399.19301,1.01018
401.12148,1.16354
403.04995,0.94362
404.97842,0.56256
406.90689,0.36128
408.83536,0.25600
410.76382,0.19279
412.69229,0.14804
414.62076,0.13898
416.54923,0.13145
418.47770,0.10284
420.40617,0.13953
422.33464,0.18582
424.26311,0.25103
426.19157,0.37201
428.12004,0.42878
430.04851,0.33840
431.97698,0.20998
433.90545,0.14470
435.83392,0.11143
437.76239,0.10600
439.69085,0.08320
441.61932,0.04099
443.54779,0.02116
445.47626,0.03208
447.40473,0.02992
449.33320,-0.00817
451.26167,-0.03328
453.19013,0.01301
455.11860,0.11499
457.04707,0.16644
458.97554,0.11435
460.90401,0.06942
462.83248,0.07086
464.76095,0.03814
466.68942,-0.02208
468.61788,-0.05517
470.54635,-0.04182
472.47482,0.03571
474.40329,0.06086
476.33176,-0.02837
478.26023,-0.07778
480.18870,-0.03512
482.11716,0.09398
484.04563,0.20793
485.97410,0.22243
487.90257,0.18100
489.83104,0.13103
491.75951,0.07014
493.68798,0.00113
495.61645,-0.06377
497.54491,-0.11625
499.47338,-0.13542
501.40185,-0.08202
503.33032,0.01717
505.25879,0.06375
507.18726,0.05410
509.11573,0.04217
511.04419,0.05522
512.97266,0.09250
514.90113,0.11203
516.82960,0.08339
518.75807,0.03970
520.68654,0.00715
522.61501,0.00019
524.54348,0.04189
526.47194,0.08854
528.40041,0.07891
530.32888,0.05301
532.25735,0.06565
534.18582,0.10227
536.11429,0.11272
538.04276,0.09288
539.97122,0.07948
541.89969,0.06750
543.82816,0.03832
545.75663,0.01196
547.68510,0.01404
549.61357,0.05742
551.54204,0.13003
553.47051,0.17597
555.39897,0.16183
557.32744,0.12213
559.25591,0.10484
561.18438,0.11086
563.11285,0.10599
565.04132,0.08871
566.96979,0.08215
568.89825,0.07228
570.82672,0.07328
572.75519,0.10136
574.68366,0.10536
576.61213,0.07843
578.54060,0.07117
580.46907,0.06739
582.39754,0.06538
584.32600,0.08332
586.25447,0.08995
588.18294,0.10060
590.11141,0.12894
592.03988,0.13278
593.96835,0.09758
595.89682,0.05083
597.82528,0.04433
599.75375,0.07533
601.68222,0.08351
603.61069,0.05972
605.53916,0.03680
607.46763,0.04460
609.39610,0.07496
611.32456,0.08605
613.25303,0.07215
615.18150,0.05467
617.10997,0.05250
619.03844,0.06774
620.96691,0.07505
622.89538,0.07505
624.82385,0.08522
626.75231,0.10110
628.68078,0.11053
630.60925,0.09968
632.53772,0.07730
634.46619,0.07282
636.39466,0.08526
638.32313,0.09414
640.25159,0.09572
642.18006,0.09367
644.10853,0.07725
646.03700,0.05567
647.96547,0.06929
649.89394,0.10801
651.82241,0.11503
653.75088,0.10084
655.67934,0.09828
657.60781,0.08795
659.53628,0.07340
661.46475,0.07487
663.39322,0.07434
665.32169,0.07289
667.25016,0.08102
669.17862,0.07648
671.10709,0.07223
673.03556,0.07719
674.96403,0.07641
676.89250,0.07945
678.82097,0.08753
680.74944,0.08960
682.67791,0.08369
684.60637,0.07203
686.53484,0.06422
688.46331,0.06586
690.39178,0.07195
692.32025,0.07699
694.24872,0.08250
696.17719,0.09077
698.10565,0.09858
700.03412,0.10264
701.96259,0.09491
703.89106,0.07486
705.81953,0.06976
707.74800,0.09780
709.67647,0.15840
711.60494,0.21099
713.53340,0.18603
715.46187,0.12666
717.39034,0.10416
719.31881,0.09196
721.24728,0.07677
723.17575,0.07230
725.10422,0.08021
727.03268,0.10147
728.96115,0.11973
730.88962,0.11590
732.81809,0.10084
734.74656,0.08893
736.67503,0.07946
738.60350,0.07655
740.53197,0.08121
742.46043,0.08820
744.38890,0.08932
746.31737,0.08856
748.24584,0.09389
750.17431,0.09914
752.10278,0.10176
754.03125,0.10240
755.95971,0.10209
757.88818,0.09968
759.81665,0.09066
761.74512,0.07561
763.67359,0.06626
765.60206,0.07072
767.53053,0.08278
769.45900,0.09841
771.38746,0.10820
773.31593,0.10211
775.24440,0.09222
777.17287,0.09459
779.10134,0.10123
781.02981,0.10097
782.95828,0.10400
784.88674,0.11733
786.81521,0.12446
788.74368,0.10867
790.67215,0.08561
792.60062,0.08146
794.52909,0.09249
796.45756,0.09849
798.38602,0.09776
800.31449,0.09124
802.24296,0.07568
804.17143,0.06698
806.09990,0.07759
808.02837,0.09601
809.95684,0.11028
811.88531,0.11419
813.81377,0.10451
815.74224,0.09346
817.67071,0.08994
819.59918,0.08557
821.52765,0.07590
823.45612,0.06829
825.38459,0.07404
827.31305,0.09017
829.24152,0.10079
831.16999,0.10510
833.09846,0.10780
835.02693,0.10346
836.95540,0.09215
838.88387,0.07742
840.81234,0.06780
842.74080,0.07862
844.66927,0.09806
846.59774,0.10626
848.52621,0.11485
850.45468,0.12240
852.38315,0.11092
854.31162,0.09586
856.24008,0.09652
858.16855,0.10731
860.09702,0.11563
862.02549,0.11792
863.95396,0.11760
865.88243,0.12340
867.81090,0.17433
869.73937,0.23437
871.66783,0.19795
873.59630,0.11655
875.52477,0.09040
877.45324,0.09246
879.38171,0.09331
881.31018,0.10092
883.23865,0.11115
885.16711,0.11376
887.09558,0.11030
889.02405,0.11347
890.95252,0.11787
892.88099,0.11097
894.80946,0.10078
896.73793,0.10164
898.66640,0.10555
900.59486,0.10106
902.52333,0.10271
904.45180,0.11629
906.38027,0.12323
908.30874,0.12186
910.23721,0.12149
912.16568,0.11950
914.09414,0.11590
916.02261,0.11111
917.95108,0.10214
919.87955,0.09883
921.80802,0.10932
923.73649,0.11979
925.66496,0.11849
927.59343,0.11281
929.52189,0.11431
931.45036,0.12265
933.37883,0.12665
935.30730,0.12544
937.23577,0.12468
939.16424,0.12308
941.09271,0.12159
943.02117,0.12023
944.94964,0.12049
946.87811,0.12161
948.80658,0.11757
950.73505,0.11629
952.66352,0.11733
954.59199,0.10649
956.52045,0.09444
958.44892,0.09574
960.37739,0.10252
962.30586,0.10809
964.23433,0.11084
966.16280,0.11344
968.09127,0.12044
970.01974,0.12507
971.94820,0.12759
973.87667,0.13020
975.80514,0.12122
977.73361,0.10632
979.66208,0.10192
981.59055,0.10606
983.51902,0.11021
985.44748,0.11186
987.37595,0.11122
989.30442,0.11091
991.23289,0.11462
993.16136,0.12141
995.08983,0.12780
997.01830,0.13074
998.94677,0.12788
1000.87523,0.11907
1002.80370,0.10994
1004.73217,0.10736
1006.66064,0.10661
1008.58911,0.10773
1010.51758,0.11747
1012.44605,0.12568
1014.37451,0.12480
1016.30298,0.12294
1018.23145,0.12497
1020.15992,0.12792
1022.08839,0.12659
1024.01686,0.12495
1025.94533,0.13884
1027.87380,0.15926
1029.80226,0.15240
1031.73073,0.13014
1033.65920,0.12619
1035.58767,0.13057
1037.51614,0.12861
1039.44461,0.12204
1041.37308,0.11684
1043.30154,0.12227
1045.23001,0.13286
1047.15848,0.13612
1049.08695,0.13292
1051.01542,0.13264
1052.94389,0.13897
1054.87236,0.14796
1056.80083,0.15161
1058.72929,0.14624
1060.65776,0.14067
1062.58623,0.13907
1064.51470,0.13277
1066.44317,0.12185
1068.37164,0.11871
1070.30011,0.12378
1072.22857,0.12920
1074.15704,0.13688
1076.08551,0.14130
1078.01398,0.13226
1079.94245,0.12041
1081.87092,0.11773
1083.79939,0.11951
1085.72786,0.12053
1087.65632,0.12305
1089.58479,0.12693
1091.51326,0.12418
1093.44173,0.11900
1095.37020,0.12696
1097.29867,0.14312
1099.22714,0.14705
1101.15560,0.13960
1103.08407,0.13916
1105.01254,0.14495
1106.94101,0.14873
1108.86948,0.15448
1110.79795,0.15899
1112.72642,0.15378
1114.65489,0.13958
1116.58335,0.12492
1118.51182,0.11789
1120.44029,0.12038
1122.36876,0.12638
1124.29723,0.12816
1126.22570,0.12778
1128.15417,0.12855
1130.08263,0.12649
1132.01110,0.12171
1133.93957,0.11922
1135.86804,0.12415
1137.79651,0.13690
1139.72498,0.14479
1141.65345,0.14018
1143.58191,0.13427
1145.51038,0.13658
1147.43885,0.14410
1149.36732,0.14926
1151.29579,0.14770
1153.22426,0.14211
1155.15273,0.13921
1157.08120,0.14033
1159.00966,0.14273
1160.93813,0.14538
1162.86660,0.14332
1164.79507,0.13822
1166.72354,0.14044
1168.65201,0.14867
1170.58048,0.15433
1172.50894,0.15633
1174.43741,0.15560
1176.36588,0.14873
1178.29435,0.13643
1180.22282,0.12827
1182.15129,0.13341
1184.07976,0.14509
1186.00823,0.15068
1187.93669,0.15342
1189.86516,0.15550
1191.79363,0.15300
1193.72210,0.14953
1195.65057,0.14628
1197.57904,0.14187
1199.50751,0.13797
1201.43597,0.13787
1203.36444,0.14019
1205.29291,0.13945
1207.22138,0.13899
1209.14985,0.14372
1211.07832,0.14949
1213.00679,0.15161
1214.93526,0.14953
1216.86372,0.14463
1218.79219,0.13922
1220.72066,0.13765
1222.64913,0.14481
1224.57760,0.15569
1226.50607,0.15901
1228.43454,0.15409
1230.36300,0.14865
1232.29147,0.14779
1234.21994,0.14873
1236.14841,0.14686
1238.07688,0.14390
1240.00535,0.14229
1241.93382,0.14410
1243.86229,0.14707
1245.79075,0.14443
1247.71922,0.14090
1249.64769,0.14420
1251.57616,0.14882
1253.50463,0.14903
1255.43310,0.14799
1257.36157,0.14897
1259.29003,0.15167
1261.21850,0.15214
1263.14697,0.14868
1265.07544,0.14748
1267.00391,0.14982
1268.93238,0.15371
1270.86085,0.16050
1272.78932,0.16350
1274.71778,0.15978
1276.64625,0.15778
1278.57472,0.15966
1280.50319,0.15992
1282.43166,0.15574
1284.36013,0.15061
1286.28860,0.14948
1288.21706,0.15190
1290.14553,0.15428
1292.07400,0.15563
1294.00247,0.15610
1295.93094,0.15677
1297.85941,0.16033
1299.78788,0.16345
1301.71634,0.15926
1303.64481,0.14940
1305.57328,0.14233
1307.50175,0.14294
1309.43022,0.14911
1311.35869,0.15756
1313.28716,0.16572
1315.21563,0.16817
1317.14409,0.16227
1319.07256,0.15295
1321.00103,0.14459
1322.92950,0.13829
1324.85797,0.13609
1326.78644,0.13864
1328.71491,0.14527
1330.64337,0.15148
1332.57184,0.15238
1334.50031,0.15179
1336.42878,0.15424
1338.35725,0.15790
1340.28572,0.15874
1342.21419,0.15727
1344.14266,0.15550
1346.07112,0.15291
1347.99959,0.15154
1349.92806,0.15210
1351.85653,0.15245
1353.78500,0.15351
1355.71347,0.15688
1357.64194,0.16070
1359.57040,0.16558
1361.49887,0.17222
1363.42734,0.17182
1365.35581,0.16467
1367.28428,0.16065
1369.21275,0.16056
1371.14122,0.16346
1373.06969,0.16810
1374.99815,0.16810
1376.92662,0.16231
1378.85509,0.15960
1380.78356,0.16272
1382.71203,0.16561
1384.64050,0.16628
1386.56897,0.16822
1388.49743,0.16815
1390.42590,0.16456
1392.35437,0.16476
1394.28284,0.16967
1396.21131,0.17291
1398.13978,0.16999
1400.06825,0.16308
1401.99672,0.16135
1403.92518,0.16547
1405.85365,0.16603
1407.78212,0.16324
1409.71059,0.16425
1411.63906,0.16695
1413.56753,0.16724
1415.49600,0.16856
1417.42446,0.17429
1419.35293,0.17534
1421.28140,0.17009
1423.20987,0.16816
1425.13834,0.16745
1427.06681,0.16769
1428.99528,0.17124
1430.92375,0.17547
1432.85221,0.17532
1434.78068,0.17113
1436.70915,0.16890
1438.63762,0.17150
1440.56609,0.17294
1442.49456,0.17365
1444.42303,0.17776
1446.35149,0.18403
1448.27996,0.18658
1450.20843,0.18125
1452.13690,0.17357
1454.06537,0.17444
1455.99384,0.18721
1457.92231,0.19261
1459.85077,0.18404
1461.77924,0.18322
1463.70771,0.18769
1465.63618,0.18504
1467.56465,0.17888
1469.49312,0.18207
1471.42159,0.19470
1473.35006,0.20256
1475.27852,0.19439
1477.20699,0.18509
1479.13546,0.18202
1481.06393,0.17994
1482.99240,0.17582
1484.92087,0.17472
1486.84934,0.17984
1488.77780,0.18973
1490.70627,0.19631
1492.63474,0.19631
1494.56321,0.19707
1496.49168,0.19897
1498.42015,0.19411
1500.34862,0.17902
1502.27709,0.16367
1504.20555,0.16685
1506.13402,0.20430
1508.06249,0.22509
1509.99096,0.20587
1511.91943,0.19429
1513.84790,0.19328
1515.77637,0.20061
1517.70483,0.20830
1519.63330,0.21271
1521.56177,0.21396
1523.49024,0.20587
1525.41871,0.19971
1527.34718,0.19778
1529.27565,0.19757
1531.20412,0.20161
1533.13258,0.20291
1535.06105,0.19857
1536.98952,0.20368
1538.91799,0.22303
1540.84646,0.23497
1542.77493,0.21803
1544.70340,0.20165
1546.63186,0.19493
1548.56033,0.19514
1550.48880,0.19568
1552.41727,0.19569
1554.34574,0.20210
1556.27421,0.21954
1558.20268,0.23943
1560.13115,0.21581
1562.05961,0.19122
1563.98808,0.18502
1565.91655,0.18549
1567.84502,0.19183
1569.77349,0.19769
1571.70196,0.19372
1573.63043,0.19185
1575.55889,0.19726
1577.48736,0.19700
1579.41583,0.18914
1581.34430,0.18407
1583.27277,0.18209
1585.20124,0.17988
1587.12971,0.17705
1589.05818,0.17579
1590.98664,0.17791
1592.91511,0.18212
1594.84358,0.18457
1596.77205,0.18415
1598.70052,0.18423
1600.62899,0.18504
1602.55746,0.18455
1604.48592,0.18465
1606.41439,0.18603
1608.34286,0.18719
1610.27133,0.18642
1612.19980,0.18394
1614.12827,0.18501
1616.05674,0.18992
1617.98521,0.18830
1619.91367,0.18638
1621.84214,0.19292
1623.77061,0.19920
1625.69908,0.19690
1627.62755,0.19205
1629.55602,0.18799
1631.48449,0.19006
1633.41295,0.20507
1635.34142,0.22473
1637.26989,0.21430
1639.19836,0.19423
1641.12683,0.18581
1643.05530,0.18821
1644.98377,0.20436
1646.91223,0.22527
1648.84070,0.22635
1650.76917,0.22537
1652.69764,0.23651
1654.62611,0.22897
1656.55458,0.19423
1658.48305,0.15178
1660.41152,0.11964
1662.33998,0.12931
1664.26845,0.16888
1666.19692,0.19247
1668.12539,0.20262
1670.05386,0.20669
1671.98233,0.20100
1673.91080,0.19366
1675.83926,0.18869
1677.76773,0.18983
1679.69620,0.19712
1681.62467,0.20862
1683.55314,0.22394
1685.48161,0.22235
1687.41008,0.21003
1689.33855,0.20401
1691.26701,0.20091
1693.19548,0.20471
1695.12395,0.21908
1697.05242,0.22579
1698.98089,0.21679
1700.90936,0.20977
1702.83783,0.20719
1704.76629,0.20601
1706.69476,0.20020
1708.62323,0.19071
1710.55170,0.18817
1712.48017,0.19518
1714.40864,0.21045
1716.33711,0.22667
1718.26558,0.22035
1720.19404,0.19997
1722.12251,0.18635
1724.05098,0.18031
1725.97945,0.17985
1727.90792,0.18228
1729.83639,0.18660
1731.76486,0.19527
1733.69332,0.20499
1735.62179,0.20179
1737.55026,0.19637
1739.47873,0.19707
1741.40720,0.19948
1743.33567,0.20106
1745.26414,0.20233
1747.19261,0.20415
1749.12107,0.20568
1751.04954,0.19930
1752.97801,0.18951
1754.90648,0.18878
1756.83495,0.19389
1758.76342,0.19470
1760.69189,0.19311
1762.62035,0.19091
1764.54882,0.18589
1766.47729,0.18392
1768.40576,0.19026
1770.33423,0.20164
1772.26270,0.20707
1774.19117,0.20062
1776.11964,0.19044
1778.04810,0.18225
1779.97657,0.17974
1781.90504,0.18304
1783.83351,0.18552
1785.76198,0.18185
1787.69045,0.17723
1789.61892,0.18096
1791.54738,0.19510
1793.47585,0.20552
1795.40432,0.20063
1797.33279,0.19184
1799.26126,0.18939
1801.18973,0.19042
1803.11820,0.18824
1805.04666,0.18595
1806.97513,0.18611
1808.90360,0.18920
1810.83207,0.19359
1812.76054,0.19074
1814.68901,0.18285
1816.61748,0.18581
1818.54595,0.20080
1820.47441,0.20617
1822.40288,0.19800
1824.33135,0.19209
1826.25982,0.19047
1828.18829,0.19169
1830.11676,0.19493
1832.04523,0.19056
1833.97369,0.18589
1835.90216,0.18729
1837.83063,0.18787
1839.75910,0.18703
1841.68757,0.18904
1843.61604,0.19296
1845.54451,0.19223
1847.47298,0.18588
1849.40144,0.18287
1851.32991,0.18442
1853.25838,0.18506
1855.18685,0.18462
1857.11532,0.18409
1859.04379,0.18402
1860.97226,0.18536
1862.90072,0.18689
1864.82919,0.19115
1866.75766,0.19902
1868.68613,0.20229
1870.61460,0.19639
1872.54307,0.18817
1874.47154,0.18337
1876.40001,0.18379
1878.32847,0.18558
1880.25694,0.18514
1882.18541,0.18503
1884.11388,0.18716
1886.04235,0.19006
1887.97082,0.19266
1889.89929,0.19135
1891.82775,0.18646
1893.75622,0.18386
1895.68469,0.18350
1897.61316,0.18471
1899.54163,0.18760
1901.47010,0.18945
1903.39857,0.18925
1905.32704,0.18698
1907.25550,0.18454
1909.18397,0.18600
1911.11244,0.18879
1913.04091,0.18820
1914.96938,0.18665
1916.89785,0.18752
1918.82632,0.18882
1920.75478,0.18832
1922.68325,0.18704
1924.61172,0.18479
1926.54019,0.18249
1928.46866,0.18242
1930.39713,0.18425
1932.32560,0.18556
1934.25407,0.18533
1936.18253,0.18459
1938.11100,0.18442
1940.03947,0.18614
1941.96794,0.18922
1943.89641,0.19086
1945.82488,0.19025
1947.75335,0.18796
1949.68181,0.18570
1951.61028,0.18399
1953.53875,0.18143
1955.46722,0.17928
1957.39569,0.17979
1959.32416,0.18258
1961.25263,0.18442
1963.18110,0.18385
1965.10956,0.18412
1967.03803,0.18702
1968.96650,0.19034
1970.89497,0.19123
1972.82344,0.18895
1974.75191,0.18514
1976.68038,0.18191
1978.60884,0.18091
1980.53731,0.18321
1982.46578,0.18702
1984.39425,0.18927
1986.32272,0.18995
1988.25119,0.19021
1990.17966,0.19008
1992.10812,0.18969
1994.03659,0.18847
1995.96506,0.18641
1997.89353,0.18574
1999.82200,0.18644
2001.75047,0.18644
2003.67894,0.18626
2005.60741,0.18499
2007.53587,0.18184
2009.46434,0.18220
2011.39281,0.18789
2013.32128,0.19270
2015.24975,0.19288
2017.17822,0.18999
2019.10669,0.18708
2021.03515,0.18644
2022.96362,0.18747
2024.89209,0.18879
2026.82056,0.19019
2028.74903,0.19153
2030.67750,0.19248
2032.60597,0.19214
2034.53444,0.19007
2036.46290,0.18698
2038.39137,0.18633
2040.31984,0.19010
2042.24831,0.19163
2044.17678,0.18889
2046.10525,0.18880
2048.03372,0.19026
2049.96218,0.18856
2051.89065,0.18555
2053.81912,0.18503
2055.74759,0.18738
2057.67606,0.18787
2059.60453,0.18624
2061.53300,0.18776
2063.46147,0.19102
2065.38993,0.19215
2067.31840,0.19133
2069.24687,0.19000
2071.17534,0.18996
2073.10381,0.19101
2075.03228,0.19152
2076.96075,0.19052
2078.88921,0.18813
2080.81768,0.18648
2082.74615,0.18689
2084.67462,0.18848
2086.60309,0.18894
2088.53156,0.18696
2090.46003,0.18452
2092.38850,0.18415
2094.31696,0.18739
2096.24543,0.19199
2098.17390,0.19291
2100.10237,0.19080
2102.03084,0.18914
2103.95931,0.18825
2105.88778,0.18778
2107.81624,0.18823
2109.74471,0.19033
2111.67318,0.19321
2113.60165,0.19447
2115.53012,0.19342
2117.45859,0.19097
2119.38706,0.18873
2121.31553,0.18915
2123.24399,0.19234
2125.17246,0.19386
2127.10093,0.19191
2129.02940,0.19152
2130.95787,0.19338
2132.88634,0.19217
2134.81481,0.18877
2136.74327,0.18760
2138.67174,0.18876
2140.60021,0.19050
2142.52868,0.19067
2144.45715,0.18964
2146.38562,0.19164
2148.31409,0.19540
2150.24255,0.19461
2152.17102,0.19097
2154.09949,0.19073
2156.02796,0.19316
2157.95643,0.19381
2159.88490,0.19251
2161.81337,0.19181
2163.74184,0.19116
2165.67030,0.18861
2167.59877,0.18622
2169.52724,0.18707
2171.45571,0.18987
2173.38418,0.19223
2175.31265,0.19355
2177.24112,0.19360
2179.16958,0.19259
2181.09805,0.19176
2183.02652,0.19343
2184.95499,0.19677
2186.88346,0.19746
2188.81193,0.19649
2190.74040,0.19577
2192.66887,0.19296
2194.59733,0.19065
2196.52580,0.19204
2198.45427,0.19216
2200.38274,0.18976
2202.31121,0.19120
2204.23968,0.19496
2206.16815,0.19448
2208.09661,0.19133
2210.02508,0.18948
2211.95355,0.18952
2213.88202,0.18948
2215.81049,0.18833
2217.73896,0.18792
2219.66743,0.18791
2221.59590,0.18815
2223.52436,0.18997
2225.45283,0.19230
2227.38130,0.19246
2229.30977,0.18931
2231.23824,0.18563
2233.16671,0.18561
2235.09518,0.19059
2237.02364,0.19540
2238.95211,0.19479
2240.88058,0.19188
2242.80905,0.19002
2244.73752,0.18816
2246.66599,0.18691
2248.59446,0.18841
2250.52293,0.19118
2252.45139,0.19173
2254.37986,0.19133
2256.30833,0.19346
2258.23680,0.19622
2260.16527,0.19501
2262.09374,0.19097
2264.02221,0.18922
2265.95067,0.19000
2267.87914,0.18923
2269.80761,0.18609
2271.73608,0.18370
2273.66455,0.18584
2275.59302,0.19134
2277.52149,0.19383
2279.44996,0.19176
2281.37842,0.18902
2283.30689,0.18801
2285.23536,0.18876
2287.16383,0.19090
2289.09230,0.19234
2291.02077,0.19350
2292.94924,0.19814
2294.87770,0.19962
2296.80617,0.19413
2298.73464,0.19171
2300.66311,0.19055
2302.59158,0.18380
2304.52005,0.17806
2306.44852,0.17719
2308.37699,0.17558
2310.30545,0.17105
2312.23392,0.16792
2314.16239,0.16801
2316.09086,0.16967
2318.01933,0.16895
2319.94780,0.16191
2321.87627,0.15554
2323.80473,0.15253
2325.73320,0.14748
2327.66167,0.14968
2329.59014,0.15711
2331.51861,0.15641
2333.44708,0.15298
2335.37555,0.15218
2337.30401,0.15472
2339.23248,0.15517
2341.16095,0.14573
2343.08942,0.13683
2345.01789,0.14145
2346.94636,0.15460
2348.87483,0.16242
2350.80330,0.16037
2352.73176,0.15834
2354.66023,0.16851
2356.58870,0.17091
2358.51717,0.14920
2360.44564,0.12959
2362.37411,0.13791
2364.30258,0.15399
2366.23104,0.15258
2368.15951,0.15200
2370.08798,0.15646
2372.01645,0.15744
2373.94492,0.16004
2375.87339,0.16638
2377.80186,0.17219
2379.73033,0.17468
2381.65879,0.17737
2383.58726,0.18440
2385.51573,0.19367
2387.44420,0.19927
2389.37267,0.19871
2391.30114,0.19584
2393.22961,0.19490
2395.15807,0.19402
2397.08654,0.19121
2399.01501,0.18982
2400.94348,0.18934
2402.87195,0.18690
2404.80042,0.18615
2406.72889,0.18958
2408.65736,0.19349
2410.58582,0.19574
2412.51429,0.19695
2414.44276,0.19702
2416.37123,0.19602
2418.29970,0.19403
2420.22817,0.19219
2422.15664,0.19285
2424.08510,0.19579
2426.01357,0.19773
2427.94204,0.19656
2429.87051,0.19450
2431.79898,0.19449
2433.72745,0.19619
2435.65592,0.19769
2437.58439,0.19785
2439.51285,0.19689
2441.44132,0.19616
2443.36979,0.19660
2445.29826,0.19835
2447.22673,0.19692
2449.15520,0.18404
2451.08367,0.16553
2453.01213,0.16009
2454.94060,0.17170
2456.86907,0.18514
2458.79754,0.19003
2460.72601,0.19054
2462.65448,0.18947
2464.58295,0.18755
2466.51142,0.19045
2468.43988,0.19617
2470.36835,0.19794
2472.29682,0.19723
2474.22529,0.19635
2476.15376,0.19540
2478.08223,0.19629
2480.01070,0.19778
2481.93916,0.19668
2483.86763,0.19390
2485.79610,0.19300
2487.72457,0.19610
2489.65304,0.20022
2491.58151,0.20020
2493.50998,0.19598
2495.43844,0.19315
2497.36691,0.19463
2499.29538,0.19755
2501.22385,0.19929
2503.15232,0.19746
2505.08079,0.19226
2507.00926,0.18969
2508.93773,0.19315
2510.86619,0.19844
2512.79466,0.19975
2514.72313,0.19733
2516.65160,0.19596
2518.58007,0.19721
2520.50854,0.19903
2522.43701,0.20146
2524.36547,0.20500
2526.29394,0.20667
2528.22241,0.20602
2530.15088,0.20505
2532.07935,0.20202
2534.00782,0.19787
2535.93629,0.19664
2537.86476,0.19758
2539.79322,0.19861
2541.72169,0.19881
2543.65016,0.19783
2545.57863,0.19738
2547.50710,0.19775
2549.43557,0.19647
2551.36404,0.19238
2553.29250,0.18980
2555.22097,0.19191
2557.14944,0.19277
2559.07791,0.18894
2561.00638,0.18687
2562.93485,0.19014
2564.86332,0.19381
2566.79179,0.19515
2568.72025,0.19671
2570.64872,0.19834
2572.57719,0.19805
2574.50566,0.19688
2576.43413,0.19685
2578.36260,0.19826
2580.29107,0.20163
2582.21953,0.20474
2584.14800,0.20262
2586.07647,0.19803
2588.00494,0.19833
2589.93341,0.20305
2591.86188,0.20564
2593.79035,0.20405
2595.71882,0.20234
2597.64728,0.20317
2599.57575,0.20547
2601.50422,0.20644
2603.43269,0.20349
2605.36116,0.19890
2607.28963,0.19753
2609.21810,0.19829
2611.14656,0.19782
2613.07503,0.19624
2615.00350,0.19608
2616.93197,0.19872
2618.86044,0.20010
2620.78891,0.20001
2622.71738,0.20353
2624.64585,0.20745
2626.57431,0.20637
2628.50278,0.20312
2630.43125,0.20113
2632.35972,0.19912
2634.28819,0.19781
2636.21666,0.19926
2638.14513,0.20129
2640.07359,0.20118
2642.00206,0.20072
2643.93053,0.20254
2645.85900,0.20433
2647.78747,0.20369
2649.71594,0.20303
2651.64441,0.20369
2653.57288,0.20333
2655.50134,0.20186
2657.42981,0.20137
2659.35828,0.20128
2661.28675,0.20012
2663.21522,0.19731
2665.14369,0.19553
2667.07216,0.19850
2669.00062,0.20355
2670.92909,0.20539
2672.85756,0.20423
2674.78603,0.20339
2676.71450,0.20265
2678.64297,0.20195
2680.57144,0.20406
2682.49990,0.20646
2684.42837,0.20563
2686.35684,0.20406
2688.28531,0.20187
2690.21378,0.19846
2692.14225,0.19860
2694.07072,0.20557
2695.99919,0.21379
2697.92765,0.21531
2699.85612,0.21196
2701.78459,0.20921
2703.71306,0.20791
2705.64153,0.20757
2707.57000,0.20840
2709.49847,0.21046
2711.42693,0.21046
2713.35540,0.20803
2715.28387,0.20682
2717.21234,0.20587
2719.14081,0.20511
2721.06928,0.20787
2722.99775,0.20944
2724.92622,0.20305
2726.85468,0.19683
2728.78315,0.20041
2730.71162,0.20796
2732.64009,0.21069
2734.56856,0.20915
2736.49703,0.20777
2738.42550,0.20691
2740.35396,0.20537
2742.28243,0.20322
2744.21090,0.20089
2746.13937,0.19994
2748.06784,0.20129
2749.99631,0.20366
2751.92478,0.20438
2753.85325,0.20308
2755.78171,0.20410
2757.71018,0.20961
2759.63865,0.21361
2761.56712,0.21260
2763.49559,0.21088
2765.42406,0.20975
2767.35253,0.20820
2769.28099,0.20920
2771.20946,0.21337
2773.13793,0.21361
2775.06640,0.20774
2776.99487,0.20440
2778.92334,0.20807
2780.85181,0.21436
2782.78028,0.21790
2784.70874,0.21640
2786.63721,0.21196
2788.56568,0.20976
2790.49415,0.20963
2792.42262,0.20813
2794.35109,0.20791
2796.27956,0.21074
2798.20802,0.21336
2800.13649,0.21235
2802.06496,0.21016
2803.99343,0.21246
2805.92190,0.21600
2807.85037,0.21528
2809.77884,0.21177
2811.70731,0.20771
2813.63577,0.20500
2815.56424,0.20630
2817.49271,0.21167
2819.42118,0.21635
2821.34965,0.21546
2823.27812,0.21218
2825.20659,0.21219
2827.13505,0.21361
2829.06352,0.21471
2830.99199,0.21668
2832.92046,0.21645
2834.84893,0.21317
2836.77740,0.21053
2838.70587,0.21004
2840.63433,0.21014
2842.56280,0.20897
2844.49127,0.20875
2846.41974,0.21090
2848.34821,0.21394
2850.27668,0.21907
2852.20515,0.22266
2854.13362,0.21992
2856.06208,0.21746
2857.99055,0.21859
2859.91902,0.21791
2861.84749,0.21659
2863.77596,0.21622
2865.70443,0.21309
2867.63290,0.20958
2869.56136,0.21140
2871.48983,0.21678
2873.41830,0.21999
2875.34677,0.21937
2877.27524,0.21567
2879.20371,0.21121
2881.13218,0.21004
2883.06065,0.21194
2884.98911,0.21447
2886.91758,0.21614
2888.84605,0.21590
2890.77452,0.21714
2892.70299,0.21970
2894.63146,0.21651
2896.55993,0.21144
2898.48839,0.21315
2900.41686,0.21729
2902.34533,0.21800
2904.27380,0.21580
2906.20227,0.21185
2908.13074,0.20891
2910.05921,0.21066
2911.98768,0.21384
2913.91614,0.21070
2915.84461,0.20499
2917.77308,0.20563
2919.70155,0.20920
2921.63002,0.20938
2923.55849,0.21056
2925.48696,0.21671
2927.41542,0.22107
2929.34389,0.21932
2931.27236,0.21378
2933.20083,0.20971
2935.12930,0.21147
2937.05777,0.21388
2938.98624,0.21215
2940.91471,0.20951
2942.84317,0.21102
2944.77164,0.21736
2946.70011,0.22187
2948.62858,0.22181
2950.55705,0.22286
2952.48552,0.22544
2954.41399,0.22411
2956.34245,0.22057
2958.27092,0.21914
2960.19939,0.21851
2962.12786,0.21802
2964.05633,0.21753
2965.98480,0.21512
2967.91327,0.21209
2969.84174,0.21166
2971.77020,0.21141
2973.69867,0.20883
2975.62714,0.20836
2977.55561,0.21069
2979.48408,0.21273
2981.41255,0.21425
2983.34102,0.21578
2985.26948,0.22102
2987.19795,0.22864
2989.12642,0.23187
2991.05489,0.23099
2992.98336,0.22765
2994.91183,0.22292
2996.84030,0.22090
2998.76877,0.22230
3000.69723,0.22499
3002.62570,0.22775
3004.55417,0.22692
3006.48264,0.22250
3008.41111,0.22045
3010.33958,0.22149
3012.26805,0.22106
3014.19651,0.21387
3016.12498,0.20348
3018.05345,0.20290
3019.98192,0.21144
3021.91039,0.21819
3023.83886,0.22231
3025.76733,0.22296
3027.69579,0.21728
3029.62426,0.21061
3031.55273,0.20943
3033.48120,0.21477
3035.40967,0.22083
3037.33814,0.22205
3039.26661,0.22085
3041.19508,0.22042
3043.12354,0.22054
3045.05201,0.22154
3046.98048,0.22412
3048.90895,0.22617
3050.83742,0.22617
3052.76589,0.22406
3054.69436,0.21872
3056.62282,0.21566
3058.55129,0.22069
3060.47976,0.22492
3062.40823,0.22127
3064.33670,0.21761
3066.26517,0.21901
3068.19364,0.22058
3070.12211,0.21909
3072.05057,0.21852
3073.97904,0.21798
3075.90751,0.21358
3077.83598,0.21457
3079.76445,0.22391
3081.69292,0.23058
3083.62139,0.23215
3085.54985,0.23118
3087.47832,0.22688
3089.40679,0.22274
3091.33526,0.22256
3093.26373,0.22099
3095.19220,0.21495
3097.12067,0.21049
3099.04914,0.21206
3100.97760,0.21763
3102.90607,0.22152
3104.83454,0.22058
3106.76301,0.21700
3108.69148,0.21654
3110.61995,0.21750
3112.54842,0.21739
3114.47688,0.22330
3116.40535,0.23041
3118.33382,0.23002
3120.26229,0.22757
3122.19076,0.22572
3124.11923,0.22083
3126.04770,0.21443
3127.97617,0.21288
3129.90463,0.21687
3131.83310,0.22536
3133.76157,0.23736
3135.69004,0.24113
3137.61851,0.23108
3139.54698,0.22006
3141.47545,0.21565
3143.40391,0.21235
3145.33238,0.20961
3147.26085,0.21142
3149.18932,0.21642
3151.11779,0.22185
3153.04626,0.22461
3154.97473,0.22247
3156.90320,0.21917
3158.83166,0.21747
3160.76013,0.21587
3162.68860,0.21597
3164.61707,0.22069
3166.54554,0.22757
3168.47401,0.23115
3170.40248,0.23085
3172.33094,0.23086
3174.25941,0.23206
3176.18788,0.23209
3178.11635,0.23018
3180.04482,0.22733
3181.97329,0.22509
3183.90176,0.22448
3185.83022,0.22624
3187.75869,0.22878
3189.68716,0.22732
3191.61563,0.22124
3193.54410,0.21590
3195.47257,0.21575
3197.40104,0.22145
3199.32951,0.22959
3201.25797,0.23468
3203.18644,0.23344
3205.11491,0.22664
3207.04338,0.21862
3208.97185,0.21350
3210.90032,0.21121
3212.82879,0.21278
3214.75725,0.22155
3216.68572,0.22935
3218.61419,0.22468
3220.54266,0.21552
3222.47113,0.21516
3224.39960,0.22044
3226.32807,0.22500
3228.25654,0.22792
3230.18500,0.22531
3232.11347,0.21992
3234.04194,0.21829
3235.97041,0.21614
3237.89888,0.21070
3239.82735,0.20429
3241.75582,0.19987
3243.68428,0.20173
3245.61275,0.20706
3247.54122,0.21335
3249.46969,0.22147
3251.39816,0.22532
3253.32663,0.22273
3255.25510,0.22116
3257.18357,0.22372
3259.11203,0.22598
3261.04050,0.22540
3262.96897,0.22345
3264.89744,0.22280
3266.82591,0.22535
3268.75438,0.22855
3270.68285,0.23100
3272.61131,0.23392
3274.53978,0.23584
3276.46825,0.23650
3278.39672,0.23638
3280.32519,0.23302
3282.25366,0.22643
3284.18213,0.22113
3286.11060,0.21998
3288.03906,0.22296
3289.96753,0.22701
3291.89600,0.22726
3293.82447,0.22159
3295.75294,0.21388
3297.68141,0.21334
3299.60988,0.21852
3301.53834,0.22032
3303.46681,0.21954
3305.39528,0.21675
3307.32375,0.21276
3309.25222,0.21312
3311.18069,0.21569
3313.10916,0.21589
3315.03763,0.21601
3316.96609,0.21941
3318.89456,0.22401
3320.82303,0.22342
3322.75150,0.21808
3324.67997,0.21381
3326.60844,0.21326
3328.53691,0.21910
3330.46537,0.22612
3332.39384,0.22642
3334.32231,0.22363
3336.25078,0.22188
3338.17925,0.22363
3340.10772,0.22951
3342.03619,0.22948
3343.96466,0.21990
3345.89312,0.21517
3347.82159,0.22044
3349.75006,0.22290
3351.67853,0.21865
3353.60700,0.21643
3355.53547,0.21687
3357.46394,0.21586
3359.39240,0.21865
3361.32087,0.22524
3363.24934,0.22793
3365.17781,0.22759
3367.10628,0.22690
3369.03475,0.22454
3370.96322,0.22345
3372.89168,0.22587
3374.82015,0.22706
3376.74862,0.22721
3378.67709,0.22654
3380.60556,0.22120
3382.53403,0.21780
3384.46250,0.22071
3386.39097,0.22477
3388.31943,0.22601
3390.24790,0.22168
3392.17637,0.21605
3394.10484,0.21780
3396.03331,0.22392
3397.96178,0.22547
3399.89025,0.22065
3401.81871,0.21404
3403.74718,0.21125
3405.67565,0.21290
3407.60412,0.21663
3409.53259,0.21750
3411.46106,0.21289
3413.38953,0.21251
3415.31800,0.22022
3417.24646,0.22424
3419.17493,0.21895
3421.10340,0.21323
3423.03187,0.21524
3424.96034,0.22018
3426.88881,0.21873
3428.81728,0.21272
3430.74574,0.21200
3432.67421,0.21572
3434.60268,0.21576
3436.53115,0.21482
3438.45962,0.21930
3440.38809,0.22346
3442.31656,0.22058
3444.24503,0.21730
3446.17349,0.22007
3448.10196,0.22111
3450.03043,0.21355
3451.95890,0.20779
3453.88737,0.21103
3455.81584,0.21388
3457.74431,0.21138
3459.67277,0.21083
3461.60124,0.21229
3463.52971,0.20835
3465.45818,0.20285
3467.38665,0.20269
3469.31512,0.20432
3471.24359,0.20256
3473.17206,0.19907
3475.10052,0.19976
3477.02899,0.20200
3478.95746,0.19850
3480.88593,0.19342
3482.81440,0.19174
3484.74287,0.19028
3486.67134,0.18833
3488.59980,0.18883
3490.52827,0.18831
3492.45674,0.18166
3494.38521,0.17650
3496.31368,0.18053
3498.24215,0.18831
3500.17062,0.19458
3502.09909,0.19698
3504.02755,0.19310
3505.95602,0.19097
3507.88449,0.19517
3509.81296,0.19641
3511.74143,0.19037
3513.66990,0.18350
3515.59837,0.18113
3517.52683,0.18339
3519.45530,0.18778
3521.38377,0.19206
3523.31224,0.19404
3525.24071,0.19542
3527.16918,0.19628
3529.09765,0.19060
3531.02611,0.18046
3532.95458,0.17466
3534.88305,0.17444
3536.81152,0.17463
3538.73999,0.17320
3540.66846,0.17514
3542.59693,0.18321
3544.52540,0.19127
3546.45386,0.19246
3548.38233,0.18753
3550.31080,0.17950
3552.23927,0.17128
3554.16774,0.16589
3556.09621,0.16257
3558.02468,0.16241
3559.95314,0.16751
3561.88161,0.17489
3563.81008,0.18333
3565.73855,0.19300
3567.66702,0.19445
3569.59549,0.18436
3571.52396,0.17268
3573.45243,0.16241
3575.38089,0.15756
3577.30936,0.16067
3579.23783,0.16402
3581.16630,0.16265
3583.09477,0.16221
3585.02324,0.16738
3586.95171,0.17360
3588.88017,0.17112
3590.80864,0.16390
3592.73711,0.16003
3594.66558,0.15972
3596.59405,0.16023
3598.52252,0.16220
3600.45099,0.16509
3602.37946,0.16760
3604.30792,0.17097
3606.23639,0.17345
3608.16486,0.17292
3610.09333,0.17042
3612.02180,0.16523
3613.95027,0.15771
3615.87874,0.15656
3617.80720,0.16489
3619.73567,0.16918
3621.66414,0.15922
3623.59261,0.14886
3625.52108,0.15033
3627.44955,0.16166
3629.37802,0.16205
3631.30649,0.15188
3633.23495,0.14996
3635.16342,0.14938
3637.09189,0.14555
3639.02036,0.14199
3640.94883,0.14000
3642.87730,0.14079
3644.80577,0.14681
3646.73423,0.16194
3648.66270,0.18150
3650.59117,0.17452
3652.51964,0.15810
3654.44811,0.15577
3656.37658,0.15831
3658.30505,0.15434
3660.23352,0.14711
3662.16198,0.14128
3664.09045,0.14000
3666.01892,0.14457
3667.94739,0.15304
3669.87586,0.15934
3671.80433,0.15716
3673.73280,0.15447
3675.66126,0.15321
3677.58973,0.15108
3679.51820,0.14887
3681.44667,0.14491
3683.37514,0.14153
3685.30361,0.14398
3687.23208,0.15406
3689.16055,0.16350
3691.08901,0.15624
3693.01748,0.14112
3694.94595,0.13217
3696.87442,0.12846
3698.80289,0.12539
3700.73136,0.12664
3702.65983,0.13303
3704.58829,0.13472
3706.51676,0.13224
3708.44523,0.13651
3710.37370,0.14998
3712.30217,0.15354
3714.23064,0.14783
3716.15911,0.14527
3718.08757,0.14610
3720.01604,0.15206
3721.94451,0.15693
3723.87298,0.15279
3725.80145,0.14378
3727.72992,0.13658
3729.65839,0.13855
3731.58686,0.15308
3733.51532,0.17013
3735.44379,0.17059
3737.37226,0.15510
3739.30073,0.14372
3741.22920,0.14240
3743.15767,0.14517
3745.08614,0.14898
3747.01460,0.15643
3748.94307,0.16788
3750.87154,0.17048
3752.80001,0.15211
3754.72848,0.14018
3756.65695,0.14034
3758.58542,0.14350
3760.51389,0.14280
3762.44235,0.13728
3764.37082,0.13196
3766.29929,0.13027
3768.22776,0.13022
3770.15623,0.13054
3772.08470,0.13088
3774.01317,0.13108
3775.94163,0.13170
3777.87010,0.12944
3779.79857,0.12149
3781.72704,0.11680
3783.65551,0.12283
3785.58398,0.13146
3787.51245,0.12998
3789.44092,0.12215
3791.36938,0.11868
3793.29785,0.12217
3795.22632,0.12777
3797.15479,0.13189
3799.08326,0.14014
3801.01173,0.15114
3802.94020,0.14771
3804.86866,0.13998
3806.79713,0.13384
3808.72560,0.12494
3810.65407,0.12524
3812.58254,0.13328
3814.51101,0.13965
3816.43948,0.14116
3818.36795,0.14051
3820.29641,0.13795
3822.22488,0.13143
3824.15335,0.12803
3826.08182,0.12829
3828.01029,0.12776
3829.93876,0.12362
3831.86723,0.11681
3833.79569,0.11455
3835.72416,0.12270
3837.65263,0.13468
3839.58110,0.13725
3841.50957,0.13332
3843.43804,0.13002
3845.36651,0.12777
3847.29498,0.12833
3849.22344,0.13372
3851.15191,0.14028
3853.08038,0.14280
3855.00885,0.14279
3856.93732,0.14022
3858.86579,0.13915
3860.79426,0.14186
3862.72272,0.14487
3864.65119,0.14439
3866.57966,0.13743
3868.50813,0.12770
3870.43660,0.12417
3872.36507,0.12790
3874.29354,0.12958
3876.22200,0.12760
3878.15047,0.12718
3880.07894,0.13080
3882.00741,0.13439
3883.93588,0.13189
3885.86435,0.12125
3887.79282,0.11253
3889.72129,0.11544
3891.64975,0.12566
3893.57822,0.12837
3895.50669,0.12262
3897.43516,0.12164
3899.36363,0.13109
3901.29210,0.13994
3903.22057,0.13159
3905.14903,0.11035
3907.07750,0.10138
3909.00597,0.10737
3910.93444,0.11303
3912.86291,0.11253
3914.79138,0.11364
3916.71985,0.11935
3918.64832,0.12230
3920.57678,0.12043
3922.50525,0.11890
3924.43372,0.11801
3926.36219,0.11621
3928.29066,0.11847
3930.21913,0.12402
3932.14760,0.12205
3934.07606,0.11240
3936.00453,0.10608
3937.93300,0.10593
3939.86147,0.10956
3941.78994,0.11139
3943.71841,0.10755
3945.64688,0.10652
3947.57535,0.11096
3949.50381,0.11342
3951.43228,0.11343
3953.36075,0.11327
3955.28922,0.11156
3957.21769,0.10693
3959.14616,0.10206
3961.07463,0.10028
3963.00309,0.10050
3964.93156,0.10379
3966.86003,0.10865
3968.78850,0.10867
3970.71697,0.10656
3972.64544,0.10898
3974.57391,0.11300
3976.50238,0.11363
3978.43084,0.11154
3980.35931,0.10774
3982.28778,0.10525
3984.21625,0.10973
3986.14472,0.11629
3988.07319,0.11582
3990.00166,0.11001
3991.93012,0.10303
3993.85859,0.09808
3995.78706,0.09923
3997.71553,0.10352
3999.64400,0.10451
4001.57247,0.10089
4003.50094,0.09676
4005.42941,0.09521
4007.35787,0.09339
4009.28634,0.09038
4011.21481,0.08731
4013.14328,0.08409
4015.07175,0.08429
4017.00022,0.08560
4018.92869,0.08286
4020.85715,0.08255
4022.78562,0.08831
4024.71409,0.09276
4026.64256,0.09171
4028.57103,0.09141
4030.49950,0.09695
4032.42797,0.10017
4034.35644,0.09557
4036.28490,0.09252
4038.21337,0.09505
4040.14184,0.09426
4042.07031,0.08927
4043.99878,0.09053
4045.92725,0.09759
4047.85572,0.09998
4049.78418,0.09623
4051.71265,0.09060
4053.64112,0.08672
4055.56959,0.08556
4057.49806,0.08361
4059.42653,0.08121
4061.35500,0.08135
4063.28346,0.08061
4065.21193,0.07799
4067.14040,0.07852
4069.06887,0.08109
4070.99734,0.08472
4072.92581,0.09104
4074.85428,0.09448
4076.78275,0.09403
4078.71121,0.09298
4080.63968,0.09049
4082.56815,0.08972
4084.49662,0.09200
4086.42509,0.09436
4088.35356,0.09346
4090.28203,0.08943
4092.21049,0.08863
4094.13896,0.09052
4096.06743,0.08853
4097.99590,0.08198
4099.92437,0.07809
4101.85284,0.08050
4103.78131,0.08159
4105.70978,0.08085
4107.63824,0.08555
4109.56671,0.09107
4111.49518,0.08843
4113.42365,0.08093
4115.35212,0.07638
4117.28059,0.07377
4119.20906,0.07097
4121.13752,0.07214
4123.06599,0.07993
4124.99446,0.08759
4126.92293,0.08570
4128.85140,0.07794
4130.77987,0.07561
4132.70834,0.07931
4134.63681,0.08226
4136.56527,0.08262
4138.49374,0.08121
4140.42221,0.07588
4142.35068,0.06772
4144.27915,0.06431
4146.20762,0.06857
4148.13609,0.07198
4150.06455,0.07151
4151.99302,0.07225
4153.92149,0.07035
4155.84996,0.06552
4157.77843,0.06419
4159.70690,0.06478
4161.63537,0.06467
4163.56384,0.06674
4165.49230,0.07300
4167.42077,0.07549
4169.34924,0.07134
4171.27771,0.07137
4173.20618,0.07760
4175.13465,0.08193
4177.06312,0.07948
4178.99158,0.07300
4180.92005,0.06927
4182.84852,0.06927
4184.77699,0.06713
4186.70546,0.06219
4188.63393,0.06334
4190.56240,0.07150
4192.49087,0.07362
4194.41933,0.06903
4196.34780,0.06911
4198.27627,0.06907
4200.20474,0.06375
4202.13321,0.06137
4204.06168,0.06114
4205.99015,0.05954
4207.91861,0.05817
4209.84708,0.05467
4211.77555,0.05182
4213.70402,0.05450
4215.63249,0.05582
4217.56096,0.05014
4219.48943,0.04249
4221.41789,0.04076
4223.34636,0.04461
4225.27483,0.04678
4227.20330,0.05049
4229.13177,0.05657
4231.06024,0.05587
4232.98871,0.05200
4234.91718,0.05219
4236.84564,0.05250
4238.77411,0.05191
4240.70258,0.05287
4242.63105,0.05179
4244.55952,0.04976
4246.48799,0.05258
4248.41646,0.05338
4250.34492,0.04737
4252.27339,0.04880
4254.20186,0.06160
4256.13033,0.06834
4258.05880,0.06132
4259.98727,0.05320
4261.91574,0.05779
4263.84421,0.06913
4265.77267,0.06920
4267.70114,0.05944
4269.62961,0.05626
4271.55808,0.05990
4273.48655,0.06238
4275.41502,0.06236
4277.34349,0.05829
4279.27195,0.05285
4281.20042,0.05420
4283.12889,0.05926
4285.05736,0.05846
4286.98583,0.05202
4288.91430,0.04067
4290.84277,0.02694
4292.77124,0.02317
4294.69970,0.03168
4296.62817,0.03921
4298.55664,0.04029
4300.48511,0.04039
4302.41358,0.03953
4304.34205,0.03849
4306.27052,0.03803
4308.19898,0.03554
4310.12745,0.03713
4312.05592,0.04205
4313.98439,0.04411
4315.91286,0.04689
4317.84133,0.04844
4319.76980,0.04519
4321.69827,0.04434
4323.62673,0.04630
4325.55520,0.04365
4327.48367,0.03814
4329.41214,0.03309
4331.34061,0.03248
4333.26908,0.04079
4335.19755,0.04624
4337.12601,0.04163
4339.05448,0.03896
4340.98295,0.03651
4342.91142,0.02551
4344.83989,0.01661
4346.76836,0.01767
4348.69683,0.02171
4350.62530,0.02483
4352.55376,0.02669
4354.48223,0.02692
4356.41070,0.02666
4358.33917,0.02590
4360.26764,0.02415
4362.19611,0.02077
4364.12458,0.01762
4366.05304,0.01895
4367.98151,0.02190
4369.90998,0.02110
4371.83845,0.01676
4373.76692,0.00936
4375.69539,0.00125
4377.62386,0.00054
4379.55232,0.01052
4381.48079,0.02190
4383.40926,0.02428
4385.33773,0.02115
4387.26620,0.02172
4389.19467,0.02427
4391.12314,0.02269
4393.05161,0.02139
4394.98007,0.02524
4396.90854,0.02661
4398.83701,0.02243
4400.76548,0.01886
4402.69395,0.01892
4404.62242,0.02510
4406.55089,0.03112
4408.47935,0.02462
4410.40782,0.01266
4412.33629,0.01162
4414.26476,0.01859
4416.19323,0.02383
4418.12170,0.02678
4420.05017,0.02558
4421.97864,0.02234
4423.90710,0.02509
4425.83557,0.02833
4427.76404,0.02319
4429.69251,0.01773
4431.62098,0.01819
4433.54945,0.02007
4435.47792,0.02024
4437.40638,0.01611
4439.33485,0.00789
4441.26332,0.00013
4443.19179,-0.00376
4445.12026,-0.00668
4447.04873,-0.00848
4448.97720,-0.00138
4450.90567,0.01080
4452.83413,0.01703
4454.76260,0.01525
4456.69107,0.00944
4458.61954,0.00788
4460.54801,0.01455
4462.47648,0.02122
4464.40495,0.02383
4466.33341,0.02617
4468.26188,0.02475
4470.19035,0.01515
4472.11882,0.00608
4474.04729,0.00797
4475.97576,0.01238
4477.90423,0.00783
4479.83270,0.00318
4481.76116,0.00949
4483.68963,0.02071
4485.61810,0.02396
4487.54657,0.02085
4489.47504,0.02179
4491.40351,0.02559
4493.33198,0.02375
4495.26044,0.01630
4497.18891,0.00928
4499.11738,0.00319
4501.04585,-0.00198
4502.97432,-0.00189
4504.90279,0.00368
4506.83126,0.01035
4508.75973,0.01475
4510.68819,0.01700
4512.61666,0.01324
4514.54513,0.00384
4516.47360,0.00270
4518.40207,0.01261
4520.33054,0.01996
4522.25901,0.01311
4524.18747,-0.00448
4526.11594,-0.01200
4528.04441,-0.00434
4529.97288,-0.00114
4531.90135,-0.00853
4533.82982,-0.01299
4535.75829,-0.00834
4537.68676,-0.00116
4539.61522,0.00177
4541.54369,0.00413
4543.47216,0.00778
4545.40063,0.00900
4547.32910,0.01058
4549.25757,0.01402
4551.18604,0.01387
4553.11450,0.01145
4555.04297,0.01238
4556.97144,0.01563
4558.89991,0.01633
4560.82838,0.01420
4562.75685,0.01208
4564.68532,0.01064
4566.61378,0.01021
4568.54225,0.01081
4570.47072,0.01123
4572.39919,0.01065
4574.32766,0.01004
4576.25613,0.00404
4578.18460,-0.00645
4580.11307,-0.00718
4582.04153,-0.00163
4583.97000,0.00226
4585.89847,0.00770
4587.82694,0.00637
4589.75541,-0.00988
4591.68388,-0.02692
4593.61235,-0.02262
4595.54081,-0.00452
4597.46928,0.00147
4599.39775,-0.00624
4601.32622,-0.00498
4603.25469,0.01235
4605.18316,0.02007
4607.11163,0.00881
4609.04010,-0.00016
4610.96856,0.00064
4612.89703,0.00034
4614.82550,0.00076
4616.75397,0.00624
4618.68244,0.01015
4620.61091,0.01795
4622.53938,0.02617
4624.46784,0.01843
4626.39631,0.00646
4628.32478,0.00621
4630.25325,0.00658
4632.18172,0.00154
4634.11019,0.00078
4636.03866,0.00928
4637.96713,0.01976
4639.89559,0.01855
4641.82406,0.00845
4643.75253,0.00388
4645.68100,0.00882
4647.60947,0.01845
4649.53794,0.02091
4651.46641,0.01836
4653.39487,0.02008
4655.32334,0.01991
4657.25181,0.01393
4659.18028,0.00105
4661.10875,-0.01199
4663.03722,-0.01231
4664.96569,-0.00139
4666.89416,0.01044
4668.82262,0.01359
4670.75109,0.01379
4672.67956,0.02338
4674.60803,0.03338
4676.53650,0.03195
4678.46497,0.02328
4680.39344,0.01015
4682.32190,0.00034
4684.25037,0.00708
4686.17884,0.01913
4688.10731,0.02056
4690.03578,0.01344
4691.96425,0.00456
4693.89272,0.00244
4695.82119,0.00807
4697.74965,0.01116
4699.67812,0.00793
4701.60659,0.00487
4703.53506,0.00483
4705.46353,0.00394
4707.39200,-0.00076
4709.32047,-0.00038
4711.24893,0.00962
4713.17740,0.01428
4715.10587,0.00682
4717.03434,-0.00469
4718.96281,-0.00807
4720.89128,0.00453
4722.81975,0.01832
4724.74821,0.01760
4726.67668,0.01625
4728.60515,0.02255
4730.53362,0.02643
4732.46209,0.02500
4734.39056,0.01451
4736.31903,-0.00569
4738.24750,-0.01610
4740.17596,-0.00081
4742.10443,0.01599
4744.03290,0.00695
4745.96137,-0.01407
4747.88984,-0.02667
4749.81831,-0.02684
4751.74678,-0.01909
4753.67524,-0.00882
4755.60371,0.00015
4757.53218,0.00529
4759.46065,0.01175
4761.38912,0.02181
4763.31759,0.01839
4765.24606,0.00170
4767.17453,-0.01197
4769.10299,-0.01835
4771.03146,-0.00741
4772.95993,0.01398
4774.88840,0.01619
4776.81687,0.00540
4778.74534,0.00678
4780.67381,0.01161
4782.60227,-0.00080
4784.53074,-0.01996
4786.45921,-0.02409
4788.38768,-0.01949
4790.31615,-0.01877
4792.24462,-0.02054
4794.17309,-0.01923
4796.10156,-0.01205
4798.03002,-0.00580
4799.95849,-0.00243
4801.88696,0.00357
4803.81543,0.01062
4805.74390,0.01932
4807.67237,0.03038
4809.60084,0.03037
4811.52930,0.01664
4813.45777,0.00908
4815.38624,0.01265
4817.31471,0.01074
4819.24318,0.00215
4821.17165,0.00510
4823.10012,0.02776
4825.02859,0.04843
4826.95705,0.03475
4828.88552,0.00306
4830.81399,-0.00379
4832.74246,0.00935
4834.67093,0.01356
4836.59940,0.00225
4838.52787,-0.01279
4840.45633,-0.01633
4842.38480,-0.00531
4844.31327,0.00507
4846.24174,0.00702
4848.17021,0.01162
4850.09868,0.01974
4852.02715,0.02718
4853.95562,0.03893
4855.88408,0.04524
4857.81255,0.03041
4859.74102,0.01461
4861.66949,0.02249
4863.59796,0.02826
4865.52643,0.01662
4867.45490,0.00885
4869.38336,0.00965
4871.31183,0.01112
4873.24030,0.00684
4875.16877,0.00105
4877.09724,0.00365
4879.02571,0.00283
4880.95418,-0.00620
4882.88265,-0.01015
4884.81111,-0.00763
4886.73958,0.00052
4888.66805,0.01092
4890.59652,0.01462
4892.52499,0.01024
4894.45346,0.00018
4896.38193,-0.00634
4898.31039,0.00277
4900.23886,0.02203
4902.16733,0.03970
4904.09580,0.05408
4906.02427,0.05915
4907.95274,0.04702
4909.88121,0.02526
4911.80967,0.00578
4913.73814,-0.00549
4915.66661,-0.00130
4917.59508,0.00763
4919.52355,-0.00182
4921.45202,-0.02397
4923.38049,-0.03438
4925.30896,-0.01952
4927.23742,0.00546
4929.16589,0.01473
4931.09436,0.01593
4933.02283,0.02305
4934.95130,0.02699
4936.87977,0.02182
4938.80824,0.01310
4940.73670,0.00803
4942.66517,0.00197
4944.59364,-0.00648
4946.52211,-0.00995
4948.45058,-0.01622
4950.37905,-0.03016
4952.30752,-0.04091
4954.23599,-0.02928
4956.16445,0.00077
4958.09292,0.02015
4960.02139,0.03051
4961.94986,0.04067
4963.87833,0.03891
4965.80680,0.02847
4967.73527,0.01750
4969.66373,0.00295
4971.59220,-0.00602
4973.52067,-0.00058
4975.44914,0.00680
4977.37761,0.01085
4979.30608,0.01989
4981.23455,0.02594
4983.16302,0.02088
4985.09148,0.01902
4987.01995,0.02090
4988.94842,0.01983
4990.87689,0.01797
4992.80536,0.00785
4994.73383,-0.00620
4996.66230,-0.01054
4998.59076,-0.00377
5000.51923,0.00851
5002.44770,0.01244
5004.37617,-0.00464
5006.30464,-0.02315
5008.23311,-0.02051
5010.16158,-0.01058
5012.09005,-0.00200
5014.01851,0.01909
5015.94698,0.03529
5017.87545,0.02636
5019.80392,0.01543
5021.73239,0.00764
5023.66086,-0.00754
5025.58933,-0.00858
5027.51779,0.00903
5029.44626,0.01929
5031.37473,0.01312
5033.30320,0.00591
5035.23167,0.01007
5037.16014,0.01887
5039.08861,0.02386
5041.01708,0.01771
5042.94554,-0.00559
5044.87401,-0.02079
5046.80248,-0.00406
5048.73095,0.01145
5050.65942,-0.00307
5052.58789,-0.02048
5054.51636,-0.01580
5056.44482,0.00360
5058.37329,0.02489
5060.30176,0.02933
5062.23023,0.00517
5064.15870,-0.02263
5066.08717,-0.02795
5068.01564,-0.01460
5069.94410,0.00473
5071.87257,0.02291
5073.80104,0.03296
5075.72951,0.02792
5077.65798,0.01549
5079.58645,0.01680
5081.51492,0.02400
5083.44339,0.01232
5085.37185,-0.00786
5087.30032,-0.01728
5089.22879,-0.01274
5091.15726,0.00489
5093.08573,0.02698
5095.01420,0.03921
5096.94267,0.03151
5098.87113,0.02146
5100.79960,0.02606
5102.72807,0.02409
5104.65654,0.00320
5106.58501,-0.01482
5108.51348,-0.01203
5110.44195,-0.00265
5112.37042,-0.00543
5114.29888,-0.00875
5116.22735,0.00183
5118.15582,0.01312
5120.08429,0.01676
5122.01276,0.02435
5123.94123,0.03165
5125.86970,0.02944
5127.79816,0.01740
5129.72663,-0.00054
5131.65510,-0.00086
5133.58357,0.02032
5135.51204,0.03208
5137.44051,0.02602
5139.36898,0.01410
5141.29745,-0.00009
5143.22591,-0.00827
5145.15438,-0.00409
5147.08285,-0.00092
5149.01132,-0.00450
5150.93979,-0.00132
5152.86826,0.01879
5154.79673,0.04919
5156.72519,0.06923
5158.65366,0.06231
5160.58213,0.03343
5162.51060,0.01051
5164.43907,0.00609
5166.36754,0.01025
5168.29601,0.03288
5170.22448,0.06225
5172.15294,0.06303
5174.08141,0.03970
5176.00988,0.01990
5177.93835,0.01459
5179.86682,0.01262
5181.79529,0.01703
5183.72376,0.02528
5185.65222,0.01135
5187.58069,-0.00536
5189.50916,0.00622
5191.43763,0.03977
5193.36610,0.07115
5195.29457,0.06431
5197.22304,0.02163
5199.15151,-0.00716
5201.07997,-0.00233
5203.00844,0.01527
5204.93691,0.03457
5206.86538,0.05102
5208.79385,0.04337
5210.72232,0.01690
5212.65079,-0.00480
5214.57925,-0.01684
5216.50772,-0.00713
5218.43619,0.03097
5220.36466,0.06354
5222.29313,0.06689
5224.22160,0.05847
5226.15007,0.05607
5228.07854,0.05994
5230.00700,0.05532
5231.93547,0.03431
5233.86394,0.01682
5235.79241,0.01352
5237.72088,0.01835
5239.64935,0.03713
5241.57782,0.05859
5243.50628,0.06035
5245.43475,0.05070
5247.36322,0.05454
5249.29169,0.08001
5251.22016,0.09795
5253.14863,0.07699
5255.07710,0.04062
5257.00556,0.02794
5258.93403,0.03749
5260.86250,0.06002
5262.79097,0.08327
5264.71944,0.08069
5266.64791,0.04906
5268.57638,0.01748
5270.50485,0.00914
5272.43331,0.01548
5274.36178,0.01678
5276.29025,0.01620
5278.21872,0.02340
5280.14719,0.03354
5282.07566,0.03798
5284.00413,0.03384
5285.93259,0.02100
5287.86106,0.00736
5289.78953,0.00561
5291.71800,0.01959
5293.64647,0.03771
5295.57494,0.05050
5297.50341,0.04953
5299.43188,0.02708
5301.36034,0.01503
5303.28881,0.03923
5305.21728,0.05503
5307.14575,0.03671
5309.07422,0.01507
5311.00269,0.00555
5312.93116,0.00457
5314.85962,0.01721
5316.78809,0.03720
5318.71656,0.04562
5320.64503,0.03919
5322.57350,0.02404
5324.50197,0.01795
5326.43044,0.02706
5328.35891,0.01190
5330.28737,-0.02397
5332.21584,-0.02357
5334.14431,0.01093
5336.07278,0.03106
5338.00125,0.03403
5339.92972,0.03905
5341.85819,0.04197
5343.78665,0.04701
5345.71512,0.06169
5347.64359,0.07016
5349.57206,0.06887
5351.50053,0.07542
5353.42900,0.09053
5355.35747,0.09231
5357.28594,0.08442
5359.21440,0.07548
5361.14287,0.06781
5363.07134,0.05903
5364.99981,0.02807
5366.92828,-0.00181
5368.85675,0.00650
5370.78522,0.02721
5372.71368,0.03442
5374.64215,0.03648
5376.57062,0.05327
5378.49909,0.08471
5380.42756,0.09973
5382.35603,0.09740
5384.28450,0.08928
5386.21297,0.06487
5388.14143,0.02762
5390.06990,0.00480
5391.99837,0.01743
5393.92684,0.05690
5395.85531,0.08140
5397.78378,0.07318
5399.71225,0.05595
5401.64071,0.05552
5403.56918,0.07075
5405.49765,0.09494
5407.42612,0.12221
5409.35459,0.13391
5411.28306,0.12287
5413.21153,0.10746
5415.13999,0.11053
5417.06846,0.11366
5418.99693,0.08644
5420.92540,0.04202
5422.85387,0.02116
5424.78234,0.03364
5426.71081,0.04491
5428.63928,0.03154
5430.56774,0.03265
5432.49621,0.06846
5434.42468,0.09075
5436.35315,0.06807
5438.28162,0.03160
5440.21009,0.01879
5442.13856,0.04065
5444.06702,0.06161
5445.99549,0.05666
5447.92396,0.04532
5449.85243,0.03793
5451.78090,0.03498
5453.70937,0.04347
5455.63784,0.05790
5457.56631,0.06057
5459.49477,0.04256
5461.42324,0.03335
5463.35171,0.06662
5465.28018,0.10784
5467.20865,0.10846
5469.13712,0.07940
5471.06559,0.04674
5472.99405,0.02927
5474.92252,0.06503
5476.85099,0.13312
5478.77946,0.16177
5480.70793,0.16539
5482.63640,0.16013
5484.56487,0.11520
5486.49334,0.06206
5488.42180,0.05671
5490.35027,0.07242
5492.27874,0.08411
5494.20721,0.09627
5496.13568,0.08169
5498.06415,0.02753
5499.99262,-0.02888
5501.92108,-0.03903
5503.84955,-0.02155
5505.77802,-0.01232
5507.70649,-0.00188
5509.63496,0.04042
5511.56343,0.10765
5513.49190,0.13459
5515.42037,0.08392
5517.34883,0.00484
5519.27730,-0.02291
5521.20577,0.01347
5523.13424,0.06174
5525.06271,0.08215
5526.99118,0.07309
5528.91965,0.05889
5530.84811,0.04836
5532.77658,0.04051
5534.70505,0.03480
5536.63352,0.03455
5538.56199,0.05630
5540.49046,0.08025
5542.41893,0.07714
5544.34740,0.05174
5546.27586,0.03449
5548.20433,0.04479
5550.13280,0.07631
5552.06127,0.11880
5553.98974,0.12328
5555.91821,0.06963
5557.84668,0.02104
5559.77514,0.01674
5561.70361,0.02488
5563.63208,0.01553
5565.56055,0.01046
5567.48902,0.02802
5569.41749,0.04515
5571.34596,0.04892
5573.27443,0.05375
5575.20289,0.06148
5577.13136,0.06249
5579.05983,0.06120
5580.98830,0.05950
5582.91677,0.05800
5584.84524,0.05663
5586.77371,0.04916
5588.70217,0.03648
5590.63064,0.03011
5592.55911,0.02904
5594.48758,0.02493
5596.41605,0.03188
5598.34452,0.04948
5600.27299,0.05816
5602.20145,0.06117
5604.12992,0.06907
5606.05839,0.08592
5607.98686,0.10506
5609.91533,0.10258
5611.84380,0.08162
5613.77227,0.08389
5615.70074,0.09851
5617.62920,0.09033
5619.55767,0.08444
5621.48614,0.09970
5623.41461,0.11753
5625.34308,0.12969
5627.27155,0.13266
5629.20002,0.12091
5631.12848,0.10904
5633.05695,0.10676
5634.98542,0.10083
5636.91389,0.08313
5638.84236,0.06345
5640.77083,0.06102
5642.69930,0.06916
5644.62777,0.07912
5646.55623,0.10921
5648.48470,0.13157
5650.41317,0.11124
5652.34164,0.09010
5654.27011,0.09803
5656.19858,0.09842
5658.12705,0.07709
5660.05551,0.07205
5661.98398,0.09012
5663.91245,0.08445
5665.84092,0.05703
5667.76939,0.05470
5669.69786,0.06381
5671.62633,0.06718
5673.55480,0.09017
5675.48326,0.11267
5677.41173,0.09147
5679.34020,0.05176
5681.26867,0.04239
5683.19714,0.04626
5685.12561,0.03871
5687.05408,0.03895
5688.98254,0.05596
5690.91101,0.07589
5692.83948,0.07299
5694.76795,0.04074
5696.69642,0.00358
5698.62489,-0.00716
5700.55336,0.03389
5702.48183,0.10144
5704.41029,0.13722
5706.33876,0.12389
5708.26723,0.09089
5710.19570,0.07206
5712.12417,0.07013
5714.05264,0.08382
5715.98111,0.12156
5717.90957,0.13230
5719.83804,0.07862
5721.76651,0.03549
5723.69498,0.03746
5725.62345,0.03937
5727.55192,0.02748
5729.48039,0.02557
5731.40886,0.04617
5733.33732,0.06485
5735.26579,0.06633
5737.19426,0.06795
5739.12273,0.08286
5741.05120,0.09138
5742.97967,0.08167
5744.90814,0.08576
5746.83660,0.11484
5748.76507,0.14692
5750.69354,0.15008
5752.62201,0.11293
5754.55048,0.06704
5756.47895,0.04398
5758.40742,0.05842
5760.33588,0.07944
5762.26435,0.07191
5764.19282,0.05999
5766.12129,0.07206
5768.04976,0.09164
5769.97823,0.09644
5771.90670,0.09394
5773.83517,0.08352
5775.76363,0.07078
5777.69210,0.09456
5779.62057,0.12325
5781.54904,0.08700
5783.47751,0.03739
5785.40598,0.03477
5787.33445,0.02938
5789.26291,0.00330
5791.19138,0.00707
5793.11985,0.06340
5795.04832,0.12145
5796.97679,0.12270
5798.90526,0.10097
5800.83373,0.09255
5802.76220,0.09088
5804.69066,0.09425
5806.61913,0.09307
5808.54760,0.09897
5810.47607,0.11583
5812.40454,0.10448
5814.33301,0.07283
5816.26148,0.06747
5818.18994,0.07884
5820.11841,0.08098
5822.04688,0.08017
5823.97535,0.08675
5825.90382,0.09345
5827.83229,0.06446
5829.76076,0.01800
5831.68923,0.01127
5833.61769,0.00969
5835.54616,0.00826
5837.47463,0.04752
5839.40310,0.10503
5841.33157,0.15062
5843.26004,0.14115
5845.18851,0.08821
5847.11697,0.05378
5849.04544,0.03361
5850.97391,0.02586
5852.90238,0.03722
5854.83085,0.05675
5856.75932,0.07603
5858.68779,0.07605
5860.61626,0.07122
5862.54472,0.08889
5864.47319,0.11044
5866.40166,0.09571
5868.33013,0.04332
5870.25860,0.00700
5872.18707,0.00551
5874.11554,0.02158
5876.04400,0.06626
5877.97247,0.11139
5879.90094,0.11661
5881.82941,0.09743
5883.75788,0.07007
5885.68635,0.06456
5887.61482,0.07787
5889.54329,0.05277
5891.47175,0.03049
5893.40022,0.07858
5895.32869,0.13099
5897.25716,0.12100
5899.18563,0.10186
5901.11410,0.13070
5903.04257,0.16155
5904.97103,0.14080
5906.89950,0.10873
5908.82797,0.09960
5910.75644,0.09708
5912.68491,0.08704
5914.61338,0.05502
5916.54185,0.02968
5918.47032,0.04963
5920.39878,0.09247
5922.32725,0.12516
5924.25572,0.11328
5926.18419,0.06955
5928.11266,0.04453
5930.04113,0.01998
5931.96960,-0.00571
5933.89806,0.00815
5935.82653,0.04123
5937.75500,0.03412
5939.68347,-0.01109
5941.61194,-0.01340
5943.54041,0.06595
5945.46888,0.13521
5947.39734,0.11828
5949.32581,0.07703
5951.25428,0.08411
5953.18275,0.08577
5955.11122,0.05538
5957.03969,0.02863
5958.96816,0.00478
5960.89663,-0.00168
5962.82509,0.02960
5964.75356,0.08497
5966.68203,0.12830
5968.61050,0.13315
5970.53897,0.12195
5972.46744,0.07884
5974.39591,0.00049
5976.32437,-0.01721
5978.25284,0.02991
5980.18131,0.06150
5982.10978,0.07006
5984.03825,0.07098
5985.96672,0.08054
5987.89519,0.11702
5989.82366,0.14881
5991.75212,0.15406
5993.68059,0.11703
5995.60906,0.04253
5997.53753,0.01216
5999.46600,0.03855
6001.39447,0.05945
6003.32294,0.06091
6005.25140,0.04268
6007.17987,-0.00828
6009.10834,-0.03628
6011.03681,0.01650
6012.96528,0.08122
6014.89375,0.06229
6016.82222,-0.00134
6018.75069,-0.00301
6020.67915,0.05710
6022.60762,0.11616
6024.53609,0.14052
6026.46456,0.14191
6028.39303,0.13868
6030.32150,0.10209
6032.24997,0.03647
6034.17843,-0.02156
6036.10690,-0.02385
6038.03537,0.03500
6039.96384,0.05580
6041.89231,0.02100
6043.82078,0.01984
6045.74925,0.05924
6047.67772,0.06702
6049.60618,0.02381
6051.53465,0.00250
6053.46312,0.05541
6055.39159,0.13060
6057.32006,0.16351
6059.24853,0.14518
6061.17700,0.10247
6063.10546,0.10007
6065.03393,0.10389
6066.96240,0.05842
6068.89087,0.01998
6070.81934,0.01700
6072.74781,0.04098
6074.67628,0.07870
6076.60475,0.09142
6078.53321,0.06738
6080.46168,0.02498
6082.39015,-0.00497
6084.31862,-0.00823
6086.24709,-0.00116
6088.17556,0.01065
6090.10403,0.03243
6092.03249,0.05704
6093.96096,0.08568
6095.88943,0.10508
6097.81790,0.07930
6099.74637,0.03311
6101.67484,0.03072
6103.60331,0.05617
6105.53177,0.05312
6107.46024,0.02114
6109.38871,0.01266
6111.31718,0.05811
6113.24565,0.09353
6115.17412,0.07913
6117.10259,0.08153
6119.03106,0.11643
6120.95952,0.10617
6122.88799,0.05054
6124.81646,0.01214
6126.74493,0.00838
6128.67340,-0.00321
6130.60187,-0.01810
6132.53034,0.02587
6134.45880,0.10264
6136.38727,0.14881
6138.31574,0.14595
6140.24421,0.09896
6142.17268,0.07482
6144.10115,0.11167
6146.02962,0.12318
6147.95809,0.08581
6149.88655,0.07321
6151.81502,0.11653
6153.74349,0.16491
6155.67196,0.18076
6157.60043,0.16041
6159.52890,0.09541
6161.45737,0.04240
6163.38583,0.05124
6165.31430,0.07198
6167.24277,0.09037
6169.17124,0.10497
6171.09971,0.08013
6173.02818,0.05973
6174.95665,0.06762
6176.88512,0.04546
6178.81358,0.02075
6180.74205,0.06250
6182.67052,0.13497
6184.59899,0.14961
6186.52746,0.09540
6188.45593,0.06458
6190.38440,0.10563
6192.31286,0.16738
6194.24133,0.19954
6196.16980,0.14044
6198.09827,0.00913
6200.02674,-0.08479
6201.95521,-0.08136
6203.88368,0.00900
6205.81215,0.10750
6207.74061,0.19055
6209.66908,0.23950
6211.59755,0.17088
6213.52602,0.08110
6215.45449,0.06267
6217.38296,0.06180
6219.31143,0.07113
6221.23989,0.07418
6223.16836,0.03115
6225.09683,0.02488
6227.02530,0.09730
6228.95377,0.14115
6230.88224,0.11261
6232.81071,0.07662
6234.73918,0.08355
6236.66764,0.10302
6238.59611,0.08627
6240.52458,0.04771
6242.45305,0.03759
6244.38152,0.04574
6246.30999,0.05956
6248.23846,0.09376
6250.16692,0.13826
6252.09539,0.18401
6254.02386,0.19278
6255.95233,0.13987
6257.88080,0.08338
6259.80927,0.08602
6261.73774,0.13820
6263.66621,0.18770
6265.59467,0.21615
6267.52314,0.22242
6269.45161,0.14729
6271.38008,0.00470
6273.30855,-0.08304
6275.23702,-0.03503
6277.16549,0.07748
6279.09395,0.12057
6281.02242,0.08431
6282.95089,0.04271
6284.87936,0.01066
6286.80783,0.00107
6288.73630,0.01388
6290.66477,-0.00049
6292.59323,-0.00606
6294.52170,0.03865
6296.45017,0.05879
6298.37864,0.05290
6300.30711,0.08609
6302.23558,0.12837
6304.16405,0.13959
6306.09252,0.14826
6308.02098,0.14275
6309.94945,0.07642
6311.87792,0.00628
6313.80639,0.01974
6315.73486,0.07938
6317.66333,0.11694
6319.59180,0.11045
6321.52026,0.06532
6323.44873,0.00637
6325.37720,-0.02259
6327.30567,0.01316
6329.23414,0.08226
6331.16261,0.10636
6333.09108,0.06488
6335.01955,0.01353
6336.94801,0.02820
6338.87648,0.09567
6340.80495,0.10845
6342.73342,0.06282
6344.66189,0.03894
6346.59036,0.07275
6348.51883,0.14453
6350.44729,0.18175
6352.37576,0.14296
6354.30423,0.07280
6356.23270,0.01090
6358.16117,-0.03746
6360.08964,-0.08468
6362.01811,-0.11349
6363.94658,-0.08137
6365.87504,-0.04797
6367.80351,-0.06123
6369.73198,-0.02424
6371.66045,0.02885
6373.58892,-0.01129
6375.51739,-0.07744
6377.44586,-0.08593
6379.37432,-0.06677
6381.30279,-0.07403
6383.23126,-0.06562
6385.15973,0.01004
6387.08820,0.04092
6389.01667,0.02447
6390.94514,0.07882
6392.87361,0.15409
6394.80207,0.11613
6396.73054,0.02729
6398.65901,-0.00537
6400.58748,-0.01309
6402.51595,-0.03409
6404.44442,-0.00186
6406.37289,0.05918
6408.30135,0.06617
6410.22982,0.04320
6412.15829,0.01248
6414.08676,0.00231
6416.01523,0.02273
6417.94370,0.01254
6419.87217,-0.00720
6421.80064,0.02492
6423.72910,0.05079
6425.65757,0.05620
6427.58604,0.11427
6429.51451,0.18668
6431.44298,0.16800
6433.37145,0.10967
6435.29992,0.11893
6437.22838,0.13831
6439.15685,0.08311
6441.08532,0.02665
6443.01379,0.04376
6444.94226,0.09941
6446.87073,0.11283
6448.79920,0.08154
6450.72766,0.05344
6452.65613,0.05234
6454.58460,0.08555
6456.51307,0.11177
6458.44154,0.06856
6460.37001,-0.00019
6462.29848,0.00897
6464.22695,0.09790
6466.15541,0.10936
6468.08388,0.00019
6470.01235,-0.03267
6471.94082,0.06127
6473.86929,0.13350
6475.79776,0.11602
6477.72623,0.00091
6479.65469,-0.10847
6481.58316,-0.07664
6483.51163,0.05680
6485.44010,0.14725
6487.36857,0.14993
6489.29704,0.10143
6491.22551,0.05542
6493.15398,0.04720
6495.08244,0.06214
6497.01091,0.05664
6498.93938,0.00571
6500.86785,-0.05505
6502.79632,-0.06734
6504.72479,-0.03505
6506.65326,0.02651
6508.58172,0.08857
6510.51019,0.08565
6512.43866,0.02002
6514.36713,0.01773
6516.29560,0.10651
6518.22407,0.14721
6520.15254,0.08599
6522.08101,0.01583
6524.00947,0.01688
6525.93794,0.03813
6527.86641,0.00026
6529.79488,-0.02049
6531.72335,0.01794
6533.65182,0.03683
6535.58029,0.02915
6537.50875,0.00829
6539.43722,-0.03246
6541.36569,-0.03952
6543.29416,-0.02663
6545.22263,0.00378
6547.15110,0.08923
6549.07957,0.14721
6551.00804,0.10215
6552.93650,0.01990
6554.86497,0.00032
6556.79344,0.05164
6558.72191,0.08045
6560.65038,0.07619
6562.57885,0.11266
6564.50732,0.15692
6566.43578,0.13139
6568.36425,0.08509
6570.29272,0.08323
6572.22119,0.09300
6574.14966,0.05735
6576.07813,-0.02425
6578.00660,-0.11240
6579.93507,-0.17901
6581.86353,-0.15424
6583.79200,-0.01397
6585.72047,0.08060
6587.64894,0.05112
6589.57741,0.01228
6591.50588,0.05472
6593.43435,0.09440
6595.36281,0.04891
6597.29128,-0.00132
6599.21975,-0.00736
6601.14822,0.02574
6603.07669,0.10444
6605.00516,0.20741
6606.93363,0.20948
6608.86210,0.07158
6610.79056,0.00482
6612.71903,0.07844
6614.64750,0.13331
6616.57597,0.13889
6618.50444,0.11992
6620.43291,0.06963
6622.36138,0.04950
6624.28984,0.06997
6626.21831,0.06580
6628.14678,0.05026
6630.07525,0.05971
6632.00372,0.02783
6633.93219,-0.05432
6635.86066,-0.04844
6637.78912,0.06247
6639.71759,0.06148
6641.64606,-0.03195
6643.57453,-0.03211
6645.50300,0.03098
6647.43147,0.01909
6649.35994,-0.02038
6651.28841,-0.00864
6653.21687,0.06234
6655.14534,0.15322
6657.07381,0.18903
6659.00228,0.11391
6660.93075,-0.00792
6662.85922,-0.05505
6664.78769,-0.07048
6666.71615,-0.06980
6668.64462,0.03877
6670.57309,0.18956
6672.50156,0.24641
6674.43003,0.17743
6676.35850,0.05458
6678.28697,-0.00243
6680.21544,0.04883
6682.14390,0.12013
6684.07237,0.13255
6686.00084,0.10908
6687.92931,0.07310
6689.85778,0.01076
6691.78625,-0.02506
6693.71472,0.02497
6695.64318,0.12331
6697.57165,0.15850
6699.50012,0.08249
6701.42859,-0.01897
6703.35706,-0.01083
6705.28553,0.09230
6707.21400,0.15378
6709.14247,0.13496
6711.07093,0.07255
6712.99940,0.01505
6714.92787,0.00767
6716.85634,0.05092
6718.78481,0.08472
6720.71328,0.05846
6722.64175,0.03714
6724.57021,0.05970
6726.49868,0.03377
6728.42715,-0.04138
6730.35562,-0.08109
6732.28409,-0.10384
6734.21256,-0.11847
6736.14103,-0.06600
6738.06950,0.02984
6739.99796,0.10541
6741.92643,0.14107
6743.85490,0.19472
6745.78337,0.24261
6747.71184,0.21875
6749.64031,0.18258
6751.56878,0.13324
6753.49724,0.02237
6755.42571,-0.03775
6757.35418,0.01738
6759.28265,0.08392
6761.21112,0.10050
6763.13959,0.11752
6765.06806,0.12381
6766.99653,0.08930
6768.92499,0.04476
6770.85346,0.03402
6772.78193,0.07292
6774.71040,0.12069
6776.63887,0.10703
6778.56734,0.04509
6780.49581,-0.01612
6782.42427,-0.10178
6784.35274,-0.12677
6786.28121,0.04509
6788.20968,0.25379
6790.13815,0.28248
6792.06662,0.17908
6793.99509,0.13807
6795.92355,0.16631
6797.85202,0.14176
6799.78049,0.11902
6801.70896,0.19400
6803.63743,0.26219
6805.56590,0.21148
6807.49437,0.08171
6809.42284,0.00761
6811.35130,0.06398
6813.27977,0.11121
6815.20824,0.08787
6817.13671,0.09055
6819.06518,0.05783
6820.99365,-0.00953
6822.92212,0.04034
6824.85058,0.10200
6826.77905,0.03765
6828.70752,0.02257
6830.63599,0.06964
6832.56446,0.01652
6834.49293,-0.05821
6836.42140,-0.11387
6838.34987,-0.19556
6840.27833,-0.22085
6842.20680,-0.15247
6844.13527,-0.01753
6846.06374,0.12950
6847.99221,0.21362
6849.92068,0.19911
6851.84915,0.13558
6853.77761,0.07245
6855.70608,0.03011
6857.63455,0.04057
6859.56302,0.08159
6861.49149,0.12939
6863.41996,0.14422
6865.34843,0.10867
6867.27690,0.07413
6869.20536,0.03326
6871.13383,-0.01306
6873.06230,0.03515
6874.99077,0.16446
6876.91924,0.23049
6878.84771,0.20271
6880.77618,0.14222
6882.70464,0.05744
6884.63311,-0.02610
6886.56158,-0.04045
6888.49005,0.02304
6890.41852,0.14336
6892.34699,0.24408
6894.27546,0.24528
6896.20393,0.20747
6898.13239,0.18776
6900.06086,0.11766
6901.98933,-0.02365
6903.91780,-0.13486
6905.84627,-0.12168
6907.77474,-0.05169
6909.70321,-0.02776
6911.63167,0.01875
6913.56014,0.08086
6915.48861,0.05175
6917.41708,0.04316
6919.34555,0.09605
6921.27402,0.10890
6923.20249,0.07788
6925.13096,0.02017
6927.05942,-0.00999
6928.98789,-0.02580
6930.91636,-0.02825
6932.84483,0.01909
6934.77330,0.06630
6936.70177,0.14323
6938.63024,0.24494
6940.55870,0.26256
6942.48717,0.18359
6944.41564,0.06608
6946.34411,-0.04448
6948.27258,-0.01451
6950.20105,0.12667
6952.12952,0.18010
6954.05799,0.11690
6955.98645,0.11094
6957.91492,0.20756
6959.84339,0.21952
6961.77186,0.11856
6963.70033,0.04231
6965.62880,0.03023
6967.55727,0.08302
6969.48573,0.17478
6971.41420,0.27335
6973.34267,0.34872
6975.27114,0.32194
6977.19961,0.24149
6979.12808,0.19638
6981.05655,0.12504
6982.98501,0.04318
6984.91348,0.10639
6986.84195,0.23730
6988.77042,0.23509
6990.69889,0.10180
6992.62736,-0.03775
6994.55583,-0.08101
6996.48430,-0.01398
6998.41276,0.04809
7000.34123,0.01957
7002.26970,-0.01925
7004.19817,-0.03327
7006.12664,-0.02460
7008.05511,0.07897
7009.98358,0.24304
7011.91204,0.36661
7013.84051,0.35525
7015.76898,0.18164
7017.69745,0.04271
7019.62592,0.08556
7021.55439,0.17968
7023.48286,0.18133
7025.41133,0.07975
7027.33979,-0.06945
7029.26826,-0.15908
7031.19673,-0.12299
7033.12520,0.02994
7035.05367,0.16193
7036.98214,0.13207
7038.91061,0.06020
7040.83907,-0.01374
7042.76754,-0.06979
7044.69601,0.00953
7046.62448,0.10974
7048.55295,0.11265
7050.48142,0.11593
7052.40989,0.15214
7054.33836,0.19408
7056.26682,0.27156
7058.19529,0.32934
7060.12376,0.22875
7062.05223,0.04615
7063.98070,-0.03306
7065.90917,0.04022
7067.83764,0.17804
7069.76610,0.25287
7071.69457,0.14127
7073.62304,-0.02103
7075.55151,-0.04344
7077.47998,0.04913
7079.40845,0.09676
7081.33692,0.07280
7083.26539,0.15042
7085.19385,0.15172
7087.12232,-0.05717
7089.05079,-0.16408
7090.97926,-0.04974
7092.90773,0.08342
7094.83620,0.09720
7096.76467,-0.02020
7098.69313,-0.11568
7100.62160,-0.12109
7102.55007,-0.07489
7104.47854,0.00946
7106.40701,0.03317
7108.33548,0.03080
7110.26395,0.04201
7112.19242,-0.03685
7114.12088,-0.16361
7116.04935,-0.23604
7117.97782,-0.16131
7119.90629,0.05608
7121.83476,0.19247
7123.76323,0.19712
7125.69170,0.21582
7127.62016,0.26559
7129.54863,0.25046
7131.47710,0.14755
7133.40557,-0.04727
7135.33404,-0.11616
7137.26251,0.00727
7139.19098,0.09953
7141.11944,0.13712
7143.04791,0.19739
7144.97638,0.21921
7146.90485,0.08381
7148.83332,-0.13381
7150.76179,-0.15709
7152.69026,0.04917
7154.61873,0.17023
7156.54719,0.02637
7158.47566,-0.18083
7160.40413,-0.22340
7162.33260,-0.10265
7164.26107,0.03663
7166.18954,0.13598
7168.11801,0.18873
7170.04647,0.06238
7171.97494,-0.21421
7173.90341,-0.24365
7175.83188,0.06362
7177.76035,0.31158
7179.68882,0.32948
7181.61729,0.29422
7183.54576,0.22668
7185.47422,0.12771
7187.40269,0.01404
7189.33116,-0.12254
7191.25963,-0.13212
7193.18810,-0.00875
7195.11657,-0.03370
7197.04504,-0.15260
7198.97350,-0.09969
7200.90197,0.03233
7202.83044,0.02290
7204.75891,-0.21446
7206.68738,-0.40172
7208.61585,-0.27837
7210.54432,-0.05403
7212.47279,0.03793
7214.40125,0.08283
7216.32972,0.30375
7218.25819,0.52542
7220.18666,0.42668
7222.11513,0.26746
7224.04360,0.13207
7225.97207,-0.07061
7227.90053,-0.22474
7229.82900,-0.17094
7231.75747,-0.03934
7233.68594,-0.03208
7235.61441,-0.05100
7237.54288,-0.03432
7239.47135,0.00950
7241.39982,0.10649
7243.32828,0.27457
7245.25675,0.37817
7247.18522,0.32931
7249.11369,0.28769
7251.04216,0.45022
7252.97063,0.61730
7254.89910,0.38069
7256.82756,0.07436
7258.75603,-0.07269
7260.68450,-0.16068
7262.61297,-0.24888
7264.54144,-0.17831
7266.46991,0.06697
7268.39838,0.33790
7270.32685,0.58752
7272.25531,0.71095
7274.18378,0.60166
7276.11225,0.37081
7278.04072,0.09564
7279.96919,-0.05218
7281.89766,0.08467
7283.82613,0.17221
7285.75459,0.04988
7287.68306,-0.09492
7289.61153,-0.17738
7291.54000,-0.23945
7293.46847,-0.25803
7295.39694,-0.18252
7297.32541,-0.03134
7299.25387,0.05109
7301.18234,0.00177
7303.11081,-0.04610
7305.03928,0.02079
7306.96775,0.08638
7308.89622,0.03384
7310.82469,-0.07106
7312.75316,-0.12383
7314.68162,-0.09643
7316.61009,-0.00088
7318.53856,0.04212
7320.46703,-0.01714
7322.39550,-0.01735
7324.32397,0.07043
7326.25244,0.15607
7328.18090,0.15694
7330.10937,0.09309
7332.03784,0.09952
7333.96631,0.02879
7335.89478,-0.13627
7337.82325,-0.26582
7339.75172,-0.31532
7341.68019,-0.21935
7343.60865,0.07977
7345.53712,0.43092
7347.46559,0.61275
7349.39406,0.63814
7351.32253,0.43092
7353.25100,0.20592
7355.17947,0.12137
7357.10793,-0.03751
7359.03640,-0.32860
7360.96487,-0.48353
7362.89334,-0.40171
7364.82181,-0.17309
7366.75028,0.04829
7368.67875,0.10714
7370.60722,0.00691
7372.53568,-0.11723
7374.46415,-0.25321
7376.39262,-0.32065
7378.32109,-0.17346
7380.24956,0.02083
7382.17803,0.01377
7384.10650,-0.08171
7386.03496,-0.02674
7387.96343,0.01956
7389.89190,0.02154
7391.82037,0.13114
7393.74884,0.25437
7395.67731,0.22719
7397.60578,0.17409
7399.53425,0.28400
7401.46271,0.45634
7403.39118,0.54368
7405.31965,0.51161
7407.24812,0.43756
7409.17659,0.33816
7411.10506,0.12325
7413.03353,-0.10476
7414.96199,-0.11556
7416.89046,0.12056
7418.81893,0.24590
7420.74740,0.05059
7422.67587,-0.06796
7424.60434,-0.02683
7426.53281,-0.01157
7428.46128,-0.10807
7430.38974,-0.14456
7432.31821,-0.01865
7434.24668,0.13456
7436.17515,0.23934
7438.10362,0.22329
7440.03209,0.22942
7441.96056,0.11325
7443.88902,-0.11500
7445.81749,-0.11014
7447.74596,0.02707
7449.67443,0.03138
7451.60290,-0.06867
7453.53137,-0.10237
7455.45984,-0.03768
7457.38831,0.03086
7459.31677,0.06900
7461.24524,0.13540
7463.17371,0.22106
7465.10218,0.25072
7467.03065,0.26068
7468.95912,0.26902
7470.88759,0.15489
7472.81605,0.06902
7474.74452,0.14367
7476.67299,0.24937
7478.60146,0.10208
7480.52993,-0.20725
7482.45840,-0.15117
7484.38687,0.09824
7486.31533,0.24913
7488.24380,0.22686
7490.17227,0.04355
7492.10074,0.01176
7494.02921,0.13277
7495.95768,0.24640
7497.88615,0.30281
