399.19301,0.24059
401.12148,0.59018
403.04995,0.23772
404.97842,0.06807
406.90689,0.02746
408.83536,-0.04186
410.76382,-0.07246
412.69229,0.02461
414.62076,0.13114
416.54923,0.20625
418.47770,0.29631
420.40617,0.31500
422.33464,0.27068
424.26311,0.21185
426.19157,0.11695
428.12004,0.04235
430.04851,0.02321
431.97698,0.04524
433.90545,0.08846
435.83392,0.13064
437.76239,0.14774
439.69085,0.13513
441.61932,0.13242
443.54779,0.17656
445.47626,0.25384
447.40473,0.32894
449.33320,0.29369
451.26167,0.15412
453.19013,0.07441
455.11860,0.09078
457.04707,0.08810
458.97554,0.03467
460.90401,0.02091
462.83248,0.03573
464.76095,0.01952
466.68942,-0.00256
468.61788,0.02270
470.54635,0.09746
472.47482,0.20753
474.40329,0.25153
476.33176,0.15772
478.26023,0.08966
480.18870,0.07927
482.11716,0.07853
484.04563,0.10279
485.97410,0.16100
487.90257,0.21072
489.83104,0.26083
491.75951,0.26552
493.68798,0.19028
495.61645,0.09923
497.54491,0.02661
499.47338,-0.01166
501.40185,0.01471
503.33032,0.07333
505.25879,0.09857
507.18726,0.09890
509.11573,0.07915
511.04419,0.04611
512.97266,0.04761
514.90113,0.08155
516.82960,0.10013
518.75807,0.08937
520.68654,0.06785
522.61501,0.05322
524.54348,0.04610
526.47194,0.05914
528.40041,0.10959
530.32888,0.14525
532.25735,0.12345
534.18582,0.08107
536.11429,0.06779
538.04276,0.07995
539.97122,0.06402
541.89969,0.02657
543.82816,0.01726
545.75663,0.02336
547.68510,0.03178
549.61357,0.06134
551.54204,0.08900
553.47051,0.10005
555.39897,0.12554
557.32744,0.15088
559.25591,0.14713
561.18438,0.12937
563.11285,0.11564
565.04132,0.11319
566.96979,0.10497
568.89825,0.08751
570.82672,0.08975
572.75519,0.11114
574.68366,0.12173
576.61213,0.10713
578.54060,0.08780
580.46907,0.09263
582.39754,0.13609
584.32600,0.18519
586.25447,0.18422
588.18294,0.14180
590.11141,0.11628
592.03988,0.12488
593.96835,0.12838
595.89682,0.10543
597.82528,0.08932
599.75375,0.09753
601.68222,0.11128
603.61069,0.10921
605.53916,0.08338
607.46763,0.06263
609.39610,0.07275
611.32456,0.09315
613.25303,0.09553
615.18150,0.08554
617.10997,0.08391
619.03844,0.09266
620.96691,0.10496
622.89538,0.11167
624.82385,0.10828
626.75231,0.10275
628.68078,0.10173
630.60925,0.10923
632.53772,0.11804
634.46619,0.11344
636.39466,0.10834
638.32313,0.12057
640.25159,0.12959
642.18006,0.10738
644.10853,0.07898
646.03700,0.07947
647.96547,0.09193
649.89394,0.10208
651.82241,0.12330
653.75088,0.14371
655.67934,0.14463
657.60781,0.13024
659.53628,0.11842
661.46475,0.11441
663.39322,0.11017
665.32169,0.10751
667.25016,0.10526
669.17862,0.11447
671.10709,0.13607
673.03556,0.13598
674.96403,0.11636
676.89250,0.10667
678.82097,0.10805
680.74944,0.10259
682.67791,0.10057
684.60637,0.10889
686.53484,0.10955
688.46331,0.10428
690.39178,0.10871
692.32025,0.11826
694.24872,0.12181
696.17719,0.11834
698.10565,0.11426
700.03412,0.10694
701.96259,0.09774
703.89106,0.10121
705.81953,0.11419
707.74800,0.12031
709.67647,0.11958
711.60494,0.12751
713.53340,0.14690
715.46187,0.15844
717.39034,0.15389
719.31881,0.14100
721.24728,0.13175
723.17575,0.13157
725.10422,0.13135
727.03268,0.13430
728.96115,0.13760
730.88962,0.12794
732.81809,0.11833
734.74656,0.11765
736.67503,0.12084
738.60350,0.12371
740.53197,0.11904
742.46043,0.11382
744.38890,0.11325
746.31737,0.11138
748.24584,0.11186
750.17431,0.12193
752.10278,0.13544
754.03125,0.14420
755.95971,0.14788
757.88818,0.14117
759.81665,0.12522
761.74512,0.11228
763.67359,0.11347
765.60206,0.12676
767.53053,0.13283
769.45900,0.12694
771.38746,0.11988
773.31593,0.11443
775.24440,0.11448
777.17287,0.11916
779.10134,0.12239
781.02981,0.12914
782.95828,0.13870
784.88674,0.14029
786.81521,0.13436
788.74368,0.12929
790.67215,0.12445
792.60062,0.11629
794.52909,0.11170
796.45756,0.11579
798.38602,0.12065
800.31449,0.12009
802.24296,0.11900
804.17143,0.12095
806.09990,0.12024
808.02837,0.11207
809.95684,0.10284
811.88531,0.10433
813.81377,0.11454
815.74224,0.12286
817.67071,0.12871
819.59918,0.13396
821.52765,0.13579
823.45612,0.13398
825.38459,0.12836
827.31305,0.11945
829.24152,0.11506
831.16999,0.11723
833.09846,0.11889
835.02693,0.12101
836.95540,0.13190
838.88387,0.14417
840.81234,0.14276
842.74080,0.13648
844.66927,0.13990
846.59774,0.14254
848.52621,0.13355
850.45468,0.12441
852.38315,0.12262
854.31162,0.12082
856.24008,0.12046
858.16855,0.12577
860.09702,0.13017
862.02549,0.13162
863.95396,0.13782
865.88243,0.14421
867.81090,0.13826
869.73937,0.12954
871.66783,0.13443
873.59630,0.14435
875.52477,0.14202
877.45324,0.13192
879.38171,0.12913
881.31018,0.13035
883.23865,0.12695
885.16711,0.12422
887.09558,0.12564
889.02405,0.12523
890.95252,0.12154
892.88099,0.11924
894.80946,0.12060
896.73793,0.12695
898.66640,0.13519
900.59486,0.13978
902.52333,0.14252
904.45180,0.14116
906.38027,0.13389
908.30874,0.12812
910.23721,0.12980
912.16568,0.14166
914.09414,0.15178
916.02261,0.14802
917.95108,0.13826
919.87955,0.13008
921.80802,0.12670
923.73649,0.12776
925.66496,0.12863
927.59343,0.12875
929.52189,0.12723
931.45036,0.12590
933.37883,0.12803
935.30730,0.12803
937.23577,0.12385
939.16424,0.12164
941.09271,0.12256
943.02117,0.12962
944.94964,0.13972
946.87811,0.13717
948.80658,0.12521
950.73505,0.12328
952.66352,0.13647
954.59199,0.14971
956.52045,0.14859
958.44892,0.13987
960.37739,0.13615
962.30586,0.13968
964.23433,0.14399
966.16280,0.14283
968.09127,0.13998
970.01974,0.14214
971.94820,0.14698
973.87667,0.15012
975.80514,0.15000
977.73361,0.14649
979.66208,0.14493
981.59055,0.14521
983.51902,0.14080
985.44748,0.13406
987.37595,0.13173
989.30442,0.13258
991.23289,0.13465
993.16136,0.13889
995.08983,0.13901
997.01830,0.13586
998.94677,0.13515
1000.87523,0.13375
1002.80370,0.13390
1004.73217,0.13742
1006.66064,0.14213
1008.58911,0.14909
1010.51758,0.15418
1012.44605,0.15183
1014.37451,0.14477
1016.30298,0.14269
1018.23145,0.14849
1020.15992,0.15167
1022.08839,0.14989
1024.01686,0.15006
1025.94533,0.14807
1027.87380,0.14125
1029.80226,0.13696
1031.73073,0.13578
1033.65920,0.13301
1035.58767,0.13197
1037.51614,0.13472
1039.44461,0.13611
1041.37308,0.13870
1043.30154,0.14366
1045.23001,0.14322
1047.15848,0.13764
1049.08695,0.13199
1051.01542,0.12945
1052.94389,0.13391
1054.87236,0.14587
1056.80083,0.15801
1058.72929,0.16240
1060.65776,0.16106
1062.58623,0.16123
1064.51470,0.16672
1066.44317,0.17179
1068.37164,0.16595
1070.30011,0.15229
1072.22857,0.14491
1074.15704,0.14858
1076.08551,0.15896
1078.01398,0.16731
1079.94245,0.16049
1081.87092,0.14524
1083.79939,0.14027
1085.72786,0.14115
1087.65632,0.13955
1089.58479,0.14293
1091.51326,0.15131
1093.44173,0.15585
1095.37020,0.15715
1097.29867,0.16076
1099.22714,0.16326
1101.15560,0.15929
1103.08407,0.15171
1105.01254,0.14666
1106.94101,0.14763
1108.86948,0.15155
1110.79795,0.15364
1112.72642,0.15377
1114.65489,0.15452
1116.58335,0.15632
1118.51182,0.15392
1120.44029,0.14767
1122.36876,0.14572
1124.29723,0.14858
1126.22570,0.14961
1128.15417,0.14915
1130.08263,0.15129
1132.01110,0.14914
1133.93957,0.14151
1135.86804,0.14145
1137.79651,0.14433
1139.72498,0.13769
1141.65345,0.13430
1143.58191,0.14506
1145.51038,0.15722
1147.43885,0.16127
1149.36732,0.16307
1151.29579,0.16576
1153.22426,0.16514
1155.15273,0.16192
1157.08120,0.15924
1159.00966,0.15952
1160.93813,0.16444
1162.86660,0.16769
1164.79507,0.16239
1166.72354,0.15306
1168.65201,0.14924
1170.58048,0.15004
1172.50894,0.14822
1174.43741,0.14581
1176.36588,0.14850
1178.29435,0.15361
1180.22282,0.15627
1182.15129,0.15770
1184.07976,0.15902
1186.00823,0.15804
1187.93669,0.15532
1189.86516,0.15439
1191.79363,0.15616
1193.72210,0.15946
1195.65057,0.16111
1197.57904,0.15877
1199.50751,0.15812
1201.43597,0.15916
1203.36444,0.15749
1205.29291,0.15736
1207.22138,0.15821
1209.14985,0.15567
1211.07832,0.15162
1213.00679,0.15061
1214.93526,0.15462
1216.86372,0.15930
1218.79219,0.16092
1220.72066,0.16101
1222.64913,0.16077
1224.57760,0.15986
1226.50607,0.15877
1228.43454,0.15672
1230.36300,0.15216
1232.29147,0.14807
1234.21994,0.14998
1236.14841,0.15714
1238.07688,0.16228
1240.00535,0.16168
1241.93382,0.15807
1243.86229,0.15453
1245.79075,0.15463
1247.71922,0.16012
1249.64769,0.16308
1251.57616,0.15655
1253.50463,0.14776
1255.43310,0.14743
1257.36157,0.15326
1259.29003,0.15636
1261.21850,0.15825
1263.14697,0.16160
1265.07544,0.16223
1267.00391,0.16023
1268.93238,0.15855
1270.86085,0.15959
1272.78932,0.16298
1274.71778,0.16413
1276.64625,0.16243
1278.57472,0.16203
1280.50319,0.16239
1282.43166,0.16149
1284.36013,0.16199
1286.28860,0.16360
1288.21706,0.16370
1290.14553,0.16316
1292.07400,0.16359
1294.00247,0.16472
1295.93094,0.16414
1297.85941,0.16048
1299.78788,0.15582
1301.71634,0.15270
1303.64481,0.15181
1305.57328,0.15464
1307.50175,0.16012
1309.43022,0.16223
1311.35869,0.16211
1313.28716,0.16663
1315.21563,0.17243
1317.14409,0.17303
1319.07256,0.16875
1321.00103,0.16519
1322.92950,0.16746
1324.85797,0.16980
1326.78644,0.16789
1328.71491,0.16692
1330.64337,0.16642
1332.57184,0.16430
1334.50031,0.16362
1336.42878,0.16576
1338.35725,0.17019
1340.28572,0.16925
1342.21419,0.16228
1344.14266,0.16321
1346.07112,0.16774
1347.99959,0.16566
1349.92806,0.16399
1351.85653,0.16441
1353.78500,0.16377
1355.71347,0.16540
1357.64194,0.16717
1359.57040,0.16750
1361.49887,0.17202
1363.42734,0.17611
1365.35581,0.17008
1367.28428,0.16399
1369.21275,0.16669
1371.14122,0.17257
1373.06969,0.17676
1374.99815,0.17940
1376.92662,0.17735
1378.85509,0.16998
1380.78356,0.16441
1382.71203,0.16434
1384.64050,0.16570
1386.56897,0.16686
1388.49743,0.16846
1390.42590,0.17097
1392.35437,0.17491
1394.28284,0.17851
1396.21131,0.17984
1398.13978,0.17882
1400.06825,0.17606
1401.99672,0.17387
1403.92518,0.17342
1405.85365,0.17421
1407.78212,0.17257
1409.71059,0.16903
1411.63906,0.17036
1413.56753,0.17514
1415.49600,0.17695
1417.42446,0.17473
1419.35293,0.17043
1421.28140,0.17114
1423.20987,0.17549
1425.13834,0.17791
1427.06681,0.17927
1428.99528,0.17877
1430.92375,0.17514
1432.85221,0.17468
1434.78068,0.17947
1436.70915,0.18306
1438.63762,0.18051
1440.56609,0.17850
1442.49456,0.17848
1444.42303,0.17811
1446.35149,0.17961
1448.27996,0.18359
1450.20843,0.18487
1452.13690,0.18331
1454.06537,0.18402
1455.99384,0.19168
1457.92231,0.19665
1459.85077,0.19119
1461.77924,0.18987
1463.70771,0.19077
1465.63618,0.18859
1467.56465,0.18676
1469.49312,0.18808
1471.42159,0.19118
1473.35006,0.19088
1475.27852,0.18461
1477.20699,0.17694
1479.13546,0.17174
1481.06393,0.17100
1482.99240,0.17389
1484.92087,0.18150
1486.84934,0.19406
1488.77780,0.20284
1490.70627,0.19862
1492.63474,0.19140
1494.56321,0.19081
1496.49168,0.19597
1498.42015,0.19563
1500.34862,0.18886
1502.27709,0.18801
1504.20555,0.19651
1506.13402,0.20974
1508.06249,0.20696
1509.99096,0.19509
1511.91943,0.18999
1513.84790,0.19248
1515.77637,0.20034
1517.70483,0.20929
1519.63330,0.21636
1521.56177,0.21408
1523.49024,0.20272
1525.41871,0.19498
1527.34718,0.18870
1529.27565,0.18585
1531.20412,0.18920
1533.13258,0.19294
1535.06105,0.19291
1536.98952,0.19857
1538.91799,0.21938
1540.84646,0.23716
1542.77493,0.22004
1544.70340,0.20013
1546.63186,0.18874
1548.56033,0.18307
1550.48880,0.18094
1552.41727,0.18438
1554.34574,0.19233
1556.27421,0.20038
1558.20268,0.21099
1560.13115,0.20666
1562.05961,0.19230
1563.98808,0.18639
1565.91655,0.18741
1567.84502,0.19308
1569.77349,0.19623
1571.70196,0.19050
1573.63043,0.18764
1575.55889,0.19071
1577.48736,0.18795
1579.41583,0.18000
1581.34430,0.17384
1583.27277,0.17067
1585.20124,0.17342
1587.12971,0.18073
1589.05818,0.18497
1590.98664,0.18351
1592.91511,0.17959
1594.84358,0.17617
1596.77205,0.17471
1598.70052,0.17430
1600.62899,0.17529
1602.55746,0.17757
1604.48592,0.17825
1606.41439,0.17644
1608.34286,0.17556
1610.27133,0.17971
1612.19980,0.18730
1614.12827,0.19565
1616.05674,0.20112
1617.98521,0.19586
1619.91367,0.19011
1621.84214,0.19193
1623.77061,0.19483
1625.69908,0.19286
1627.62755,0.19043
1629.55602,0.19044
1631.48449,0.19437
1633.41295,0.20369
1635.34142,0.21337
1637.26989,0.20689
1639.19836,0.19468
1641.12683,0.18951
1643.05530,0.19353
1644.98377,0.20670
1646.91223,0.21741
1648.84070,0.21249
1650.76917,0.21145
1652.69764,0.21944
1654.62611,0.21154
1656.55458,0.19710
1658.48305,0.19130
1660.41152,0.19501
1662.33998,0.20300
1664.26845,0.20315
1666.19692,0.19917
1668.12539,0.19774
1670.05386,0.19732
1671.98233,0.19815
1673.91080,0.20026
1675.83926,0.19979
1677.76773,0.19803
1679.69620,0.19914
1681.62467,0.20400
1683.55314,0.21138
1685.48161,0.20929
1687.41008,0.20157
1689.33855,0.19645
1691.26701,0.19218
1693.19548,0.19170
1695.12395,0.19766
1697.05242,0.20451
1698.98089,0.20611
1700.90936,0.20167
1702.83783,0.19535
1704.76629,0.19223
1706.69476,0.19159
1708.62323,0.19196
1710.55170,0.19184
1712.48017,0.19008
1714.40864,0.18965
1716.33711,0.19307
1718.26558,0.19107
1720.19404,0.18435
1722.12251,0.18117
1724.05098,0.18106
1725.97945,0.18217
1727.90792,0.18411
1729.83639,0.18744
1731.76486,0.19195
1733.69332,0.19601
1735.62179,0.19425
1737.55026,0.19141
1739.47873,0.19289
1741.40720,0.19471
1743.33567,0.19335
1745.26414,0.19310
1747.19261,0.19447
1749.12107,0.19388
1751.04954,0.18994
1752.97801,0.18522
1754.90648,0.18318
1756.83495,0.18391
1758.76342,0.18624
1760.69189,0.19065
1762.62035,0.19341
1764.54882,0.19127
1766.47729,0.19055
1768.40576,0.19516
1770.33423,0.20245
1772.26270,0.20469
1774.19117,0.19750
1776.11964,0.19039
1778.04810,0.18785
1779.97657,0.18732
1781.90504,0.18553
1783.83351,0.18300
1785.76198,0.18180
1787.69045,0.18240
1789.61892,0.18522
1791.54738,0.19098
1793.47585,0.19552
1795.40432,0.19346
1797.33279,0.18830
1799.26126,0.18598
1801.18973,0.18672
1803.11820,0.18482
1805.04666,0.18252
1806.97513,0.18490
1808.90360,0.18877
1810.83207,0.18849
1812.76054,0.18555
1814.68901,0.18534
1816.61748,0.18634
1818.54595,0.18355
1820.47441,0.18009
1822.40288,0.18107
1824.33135,0.18470
1826.25982,0.18894
1828.18829,0.19272
1830.11676,0.19166
1832.04523,0.18710
1833.97369,0.18607
1835.90216,0.18796
1837.83063,0.18753
1839.75910,0.18520
1841.68757,0.18644
1843.61604,0.18954
1845.54451,0.18910
1847.47298,0.18818
1849.40144,0.18873
1851.32991,0.18856
1853.25838,0.18656
1855.18685,0.18436
1857.11532,0.18367
1859.04379,0.18408
1860.97226,0.18520
1862.90072,0.18619
1864.82919,0.18605
1866.75766,0.18516
1868.68613,0.18328
1870.61460,0.18060
1872.54307,0.17987
1874.47154,0.18130
1876.40001,0.18214
1878.32847,0.18173
1880.25694,0.18254
1882.18541,0.18470
1884.11388,0.18594
1886.04235,0.18515
1887.97082,0.18419
1889.89929,0.18511
1891.82775,0.18557
1893.75622,0.18540
1895.68469,0.18724
1897.61316,0.18822
1899.54163,0.18486
1901.47010,0.18013
1903.39857,0.17925
1905.32704,0.18159
1907.25550,0.18319
1909.18397,0.18336
1911.11244,0.18192
1913.04091,0.17986
1914.96938,0.18049
1916.89785,0.18374
1918.82632,0.18570
1920.75478,0.18611
1922.68325,0.18592
1924.61172,0.18479
1926.54019,0.18491
1928.46866,0.18486
1930.39713,0.18279
1932.32560,0.18170
1934.25407,0.18313
1936.18253,0.18619
1938.11100,0.18878
1940.03947,0.18886
1941.96794,0.18746
1943.89641,0.18651
1945.82488,0.18580
1947.75335,0.18419
1949.68181,0.18224
1951.61028,0.18169
1953.53875,0.18242
1955.46722,0.18317
1957.39569,0.18265
1959.32416,0.18190
1961.25263,0.18360
1963.18110,0.18587
1965.10956,0.18660
1967.03803,0.18814
1968.96650,0.18959
1970.89497,0.18736
1972.82344,0.18364
1974.75191,0.18296
1976.68038,0.18495
1978.60884,0.18667
1980.53731,0.18711
1982.46578,0.18649
1984.39425,0.18579
1986.32272,0.18585
1988.25119,0.18560
1990.17966,0.18622
1992.10812,0.18779
1994.03659,0.18658
1995.96506,0.18460
1997.89353,0.18610
1999.82200,0.18943
2001.75047,0.18934
2003.67894,0.18595
2005.60741,0.18453
2007.53587,0.18554
2009.46434,0.18582
2011.39281,0.18481
2013.32128,0.18351
2015.24975,0.18296
2017.17822,0.18380
2019.10669,0.18397
2021.03515,0.18414
2022.96362,0.18689
2024.89209,0.18863
2026.82056,0.18729
2028.74903,0.18623
2030.67750,0.18572
2032.60597,0.18384
2034.53444,0.18279
2036.46290,0.18547
2038.39137,0.18878
2040.31984,0.18810
2042.24831,0.18451
2044.17678,0.18217
2046.10525,0.18218
2048.03372,0.18359
2049.96218,0.18679
2051.89065,0.18973
2053.81912,0.18858
2055.74759,0.18533
2057.67606,0.18444
2059.60453,0.18571
2061.53300,0.18794
2063.46147,0.18984
2065.38993,0.18800
2067.31840,0.18384
2069.24687,0.18314
2071.17534,0.18578
2073.10381,0.18747
2075.03228,0.18784
2076.96075,0.18915
2078.88921,0.19067
2080.81768,0.18983
2082.74615,0.18730
2084.67462,0.18523
2086.60309,0.18428
2088.53156,0.18473
2090.46003,0.18615
2092.38850,0.18647
2094.31696,0.18564
2096.24543,0.18689
2098.17390,0.18947
2100.10237,0.18948
2102.03084,0.18792
2103.95931,0.18689
2105.88778,0.18566
2107.81624,0.18513
2109.74471,0.18661
2111.67318,0.18851
2113.60165,0.18985
2115.53012,0.19095
2117.45859,0.19090
2119.38706,0.18972
2121.31553,0.18863
2123.24399,0.18735
2125.17246,0.18638
2127.10093,0.18644
2129.02940,0.18647
2130.95787,0.18651
2132.88634,0.18669
2134.81481,0.18690
2136.74327,0.18744
2138.67174,0.18760
2140.60021,0.18785
2142.52868,0.18958
2144.45715,0.19118
2146.38562,0.18972
2148.31409,0.18691
2150.24255,0.18529
2152.17102,0.18365
2154.09949,0.18251
2156.02796,0.18392
2157.95643,0.18701
2159.88490,0.18925
2161.81337,0.18992
2163.74184,0.19026
2165.67030,0.19098
2167.59877,0.19212
2169.52724,0.19250
2171.45571,0.19119
2173.38418,0.18871
2175.31265,0.18669
2177.24112,0.18730
2179.16958,0.18952
2181.09805,0.19072
2183.02652,0.19046
2184.95499,0.18936
2186.88346,0.18776
2188.81193,0.18608
2190.74040,0.18584
2192.66887,0.18771
2194.59733,0.19078
2196.52580,0.19244
2198.45427,0.19179
2200.38274,0.19143
2202.31121,0.19000
2204.23968,0.18588
2206.16815,0.18368
2208.09661,0.18515
2210.02508,0.18673
2211.95355,0.18766
2213.88202,0.18843
2215.81049,0.18777
2217.73896,0.18627
2219.66743,0.18526
2221.59590,0.18530
2223.52436,0.18678
2225.45283,0.18883
2227.38130,0.18994
2229.30977,0.18919
2231.23824,0.18778
2233.16671,0.18781
2235.09518,0.18892
2237.02364,0.18879
2238.95211,0.18779
2240.88058,0.18869
2242.80905,0.18975
2244.73752,0.18735
2246.66599,0.18420
2248.59446,0.18472
2250.52293,0.18728
2252.45139,0.18885
2254.37986,0.18903
2256.30833,0.18742
2258.23680,0.18524
2260.16527,0.18470
2262.09374,0.18444
2264.02221,0.18247
2265.95067,0.18112
2267.87914,0.18270
2269.80761,0.18468
2271.73608,0.18579
2273.66455,0.18683
2275.59302,0.18634
2277.52149,0.18467
2279.44996,0.18390
2281.37842,0.18480
2283.30689,0.18629
2285.23536,0.18616
2287.16383,0.18557
2289.09230,0.18507
2291.02077,0.18311
2292.94924,0.18259
2294.87770,0.18485
2296.80617,0.18519
2298.73464,0.18121
2300.66311,0.17709
2302.59158,0.17689
2304.52005,0.17771
2306.44852,0.17660
2308.37699,0.17544
2310.30545,0.17313
2312.23392,0.16774
2314.16239,0.16386
2316.09086,0.16376
2318.01933,0.16355
2319.94780,0.16252
2321.87627,0.16169
2323.80473,0.16026
2325.73320,0.15792
2327.66167,0.15367
2329.59014,0.15415
2331.51861,0.16536
2333.44708,0.17314
2335.37555,0.16393
2337.30401,0.14276
2339.23248,0.12728
2341.16095,0.12882
2343.08942,0.13971
2345.01789,0.15314
2346.94636,0.16352
2348.87483,0.16236
2350.80330,0.15123
2352.73176,0.14241
2354.66023,0.15128
2356.58870,0.16357
2358.51717,0.15365
2360.44564,0.13419
2362.37411,0.12587
2364.30258,0.13778
2366.23104,0.15680
2368.15951,0.15890
2370.08798,0.15160
2372.01645,0.14962
2373.94492,0.15476
2375.87339,0.16258
2377.80186,0.16932
2379.73033,0.17559
2381.65879,0.18122
2383.58726,0.18408
2385.51573,0.18380
2387.44420,0.18270
2389.37267,0.18298
2391.30114,0.18538
2393.22961,0.18865
2395.15807,0.18997
2397.08654,0.18937
2399.01501,0.18760
2400.94348,0.18460
2402.87195,0.18300
2404.80042,0.18456
2406.72889,0.18702
2408.65736,0.18771
2410.58582,0.18705
2412.51429,0.18580
2414.44276,0.18381
2416.37123,0.18289
2418.29970,0.18351
2420.22817,0.18462
2422.15664,0.18607
2424.08510,0.18682
2426.01357,0.18690
2427.94204,0.18659
2429.87051,0.18569
2431.79898,0.18643
2433.72745,0.18899
2435.65592,0.19078
2437.58439,0.19044
2439.51285,0.18808
2441.44132,0.18603
2443.36979,0.18671
2445.29826,0.18946
2447.22673,0.19221
2449.15520,0.19338
2451.08367,0.19211
2453.01213,0.18924
2454.94060,0.18697
2456.86907,0.18760
2458.79754,0.19028
2460.72601,0.19012
2462.65448,0.18783
2464.58295,0.18860
2466.51142,0.19022
2468.43988,0.18862
2470.36835,0.18568
2472.29682,0.18461
2474.22529,0.18583
2476.15376,0.18792
2478.08223,0.19001
2480.01070,0.19165
2481.93916,0.19177
2483.86763,0.19094
2485.79610,0.19109
2487.72457,0.19175
2489.65304,0.19242
2491.58151,0.19282
2493.50998,0.19083
2495.43844,0.18714
2497.36691,0.18447
2499.29538,0.18341
2501.22385,0.18377
2503.15232,0.18561
2505.08079,0.18863
2507.00926,0.19092
2508.93773,0.19012
2510.86619,0.18741
2512.79466,0.18669
2514.72313,0.18930
2516.65160,0.19223
2518.58007,0.19298
2520.50854,0.19174
2522.43701,0.19072
2524.36547,0.19234
2526.29394,0.19413
2528.22241,0.19381
2530.15088,0.19380
2532.07935,0.19430
2534.00782,0.19397
2535.93629,0.19332
2537.86476,0.19335
2539.79322,0.19432
2541.72169,0.19458
2543.65016,0.19298
2545.57863,0.19206
2547.50710,0.19336
2549.43557,0.19430
2551.36404,0.19511
2553.29250,0.19672
2555.22097,0.19659
2557.14944,0.19486
2559.07791,0.19310
2561.00638,0.19157
2562.93485,0.19049
2564.86332,0.18994
2566.79179,0.19037
2568.72025,0.19134
2570.64872,0.19188
2572.57719,0.19303
2574.50566,0.19560
2576.43413,0.19758
2578.36260,0.19766
2580.29107,0.19600
2582.21953,0.19234
2584.14800,0.18890
2586.07647,0.18948
2588.00494,0.19301
2589.93341,0.19538
2591.86188,0.19502
2593.79035,0.19358
2595.71882,0.19329
2597.64728,0.19250
2599.57575,0.19112
2601.50422,0.19222
2603.43269,0.19291
2605.36116,0.19127
2607.28963,0.19135
2609.21810,0.19395
2611.14656,0.19493
2613.07503,0.19319
2615.00350,0.19300
2616.93197,0.19414
2618.86044,0.19351
2620.78891,0.19288
2622.71738,0.19350
2624.64585,0.19427
2626.57431,0.19459
2628.50278,0.19556
2630.43125,0.19852
2632.35972,0.20034
2634.28819,0.19854
2636.21666,0.19540
2638.14513,0.19298
2640.07359,0.19313
2642.00206,0.19465
2643.93053,0.19317
2645.85900,0.19001
2647.78747,0.18942
2649.71594,0.19117
2651.64441,0.19287
2653.57288,0.19299
2655.50134,0.19321
2657.42981,0.19560
2659.35828,0.19726
2661.28675,0.19761
2663.21522,0.19799
2665.14369,0.19619
2667.07216,0.19470
2669.00062,0.19513
2670.92909,0.19282
2672.85756,0.19008
2674.78603,0.19204
2676.71450,0.19430
2678.64297,0.19279
2680.57144,0.19169
2682.49990,0.19238
2684.42837,0.19171
2686.35684,0.19034
2688.28531,0.19077
2690.21378,0.19405
2692.14225,0.19848
2694.07072,0.19982
2695.99919,0.19796
2697.92765,0.19710
2699.85612,0.19739
2701.78459,0.19637
2703.71306,0.19527
2705.64153,0.19770
2707.57000,0.20347
2709.49847,0.20648
2711.42693,0.20488
2713.35540,0.20334
2715.28387,0.20269
2717.21234,0.20179
2719.14081,0.20021
2721.06928,0.19713
2722.99775,0.19528
2724.92622,0.19597
2726.85468,0.19640
2728.78315,0.19603
2730.71162,0.19699
2732.64009,0.19939
2734.56856,0.20050
2736.49703,0.19987
2738.42550,0.20010
2740.35396,0.20158
2742.28243,0.20215
2744.21090,0.20100
2746.13937,0.19911
2748.06784,0.19780
2749.99631,0.19804
2751.92478,0.19841
2753.85325,0.19885
2755.78171,0.20170
2757.71018,0.20467
2759.63865,0.20522
2761.56712,0.20524
2763.49559,0.20581
2765.42406,0.20553
2767.35253,0.20342
2769.28099,0.20042
2771.20946,0.19836
2773.13793,0.19731
2775.06640,0.19637
2776.99487,0.19732
2778.92334,0.20029
2780.85181,0.20161
2782.78028,0.20083
2784.70874,0.20006
2786.63721,0.20069
2788.56568,0.20334
2790.49415,0.20638
2792.42262,0.20763
2794.35109,0.20681
2796.27956,0.20582
2798.20802,0.20586
2800.13649,0.20567
2802.06496,0.20506
2803.99343,0.20491
2805.92190,0.20578
2807.85037,0.20668
2809.77884,0.20565
2811.70731,0.20590
2813.63577,0.21025
2815.56424,0.21273
2817.49271,0.20904
2819.42118,0.20463
2821.34965,0.20538
2823.27812,0.20917
2825.20659,0.21123
2827.13505,0.21043
2829.06352,0.20891
2830.99199,0.20941
2832.92046,0.21212
2834.84893,0.21335
2836.77740,0.21170
2838.70587,0.21057
2840.63433,0.21095
2842.56280,0.21174
2844.49127,0.21254
2846.41974,0.21184
2848.34821,0.20799
2850.27668,0.20212
2852.20515,0.19903
2854.13362,0.20133
2856.06208,0.20402
2857.99055,0.20260
2859.91902,0.20179
2861.84749,0.20481
2863.77596,0.20640
2865.70443,0.20535
2867.63290,0.20490
2869.56136,0.20418
2871.48983,0.20331
2873.41830,0.20256
2875.34677,0.20027
2877.27524,0.19986
2879.20371,0.20360
2881.13218,0.20644
2883.06065,0.20481
2884.98911,0.20167
2886.91758,0.20126
2888.84605,0.20192
2890.77452,0.20197
2892.70299,0.20516
2894.63146,0.20948
2896.55993,0.21002
2898.48839,0.20819
2900.41686,0.20613
2902.34533,0.20427
2904.27380,0.20093
2906.20227,0.19709
2908.13074,0.19636
2910.05921,0.19855
2911.98768,0.20153
2913.91614,0.20167
2915.84461,0.20003
2917.77308,0.20153
2919.70155,0.20326
2921.63002,0.20160
2923.55849,0.19919
2925.48696,0.19793
2927.41542,0.19824
2929.34389,0.20066
2931.27236,0.20391
2933.20083,0.20599
2935.12930,0.20399
2937.05777,0.19828
2938.98624,0.19557
2940.91471,0.19832
2942.84317,0.20269
2944.77164,0.20561
2946.70011,0.20561
2948.62858,0.20636
2950.55705,0.21063
2952.48552,0.21227
2954.41399,0.20813
2956.34245,0.20220
2958.27092,0.20068
2960.19939,0.20646
2962.12786,0.21213
2964.05633,0.21105
2965.98480,0.20690
2967.91327,0.20565
2969.84174,0.20689
2971.77020,0.20785
2973.69867,0.20920
2975.62714,0.20740
2977.55561,0.20277
2979.48408,0.20617
2981.41255,0.21608
2983.34102,0.21947
2985.26948,0.21503
2987.19795,0.21087
2989.12642,0.21223
2991.05489,0.21638
2992.98336,0.21827
2994.91183,0.21715
2996.84030,0.21090
2998.76877,0.20161
3000.69723,0.19927
3002.62570,0.20677
3004.55417,0.21568
3006.48264,0.21877
3008.41111,0.21763
3010.33958,0.21352
3012.26805,0.20323
3014.19651,0.18980
3016.12498,0.18375
3018.05345,0.19041
3019.98192,0.20395
3021.91039,0.21455
3023.83886,0.21767
3025.76733,0.21562
3027.69579,0.21228
3029.62426,0.21147
3031.55273,0.21567
3033.48120,0.22016
3035.40967,0.21893
3037.33814,0.21667
3039.26661,0.22006
3041.19508,0.22255
3043.12354,0.21810
3045.05201,0.21218
3046.98048,0.20809
3048.90895,0.20713
3050.83742,0.21010
3052.76589,0.21193
3054.69436,0.20974
3056.62282,0.20719
3058.55129,0.20783
3060.47976,0.21023
3062.40823,0.21128
3064.33670,0.21026
3066.26517,0.20799
3068.19364,0.20758
3070.12211,0.21160
3072.05057,0.21546
3073.97904,0.21307
3075.90751,0.20832
3077.83598,0.20913
3079.76445,0.21479
3081.69292,0.21743
3083.62139,0.21200
3085.54985,0.20586
3087.47832,0.20772
3089.40679,0.21205
3091.33526,0.21238
3093.26373,0.20992
3095.19220,0.20778
3097.12067,0.20991
3099.04914,0.21495
3100.97760,0.21603
3102.90607,0.21047
3104.83454,0.20562
3106.76301,0.20821
3108.69148,0.21321
3110.61995,0.21276
3112.54842,0.20867
3114.47688,0.20820
3116.40535,0.21077
3118.33382,0.21105
3120.26229,0.21019
3122.19076,0.21120
3124.11923,0.21043
3126.04770,0.20512
3127.97617,0.20084
3129.90463,0.20129
3131.83310,0.20659
3133.76157,0.21492
3135.69004,0.22055
3137.61851,0.22154
3139.54698,0.21998
3141.47545,0.21731
3143.40391,0.21321
3145.33238,0.20834
3147.26085,0.20645
3149.18932,0.20674
3151.11779,0.20460
3153.04626,0.20306
3154.97473,0.20567
3156.90320,0.20937
3158.83166,0.21373
3160.76013,0.21890
3162.68860,0.22143
3164.61707,0.21944
3166.54554,0.21628
3168.47401,0.21724
3170.40248,0.22064
3172.33094,0.22193
3174.25941,0.22135
3176.18788,0.22032
3178.11635,0.21930
3180.04482,0.21897
3181.97329,0.21959
3183.90176,0.22055
3185.83022,0.22111
3187.75869,0.22118
3189.68716,0.22052
3191.61563,0.21937
3193.54410,0.21810
3195.47257,0.21559
3197.40104,0.21400
3199.32951,0.21740
3201.25797,0.22252
3203.18644,0.22208
3205.11491,0.21745
3207.04338,0.21602
3208.97185,0.21767
3210.90032,0.21818
3212.82879,0.21633
3214.75725,0.21297
3216.68572,0.21226
3218.61419,0.21653
3220.54266,0.21946
3222.47113,0.21752
3224.39960,0.21807
3226.32807,0.22252
3228.25654,0.22290
3230.18500,0.21900
3232.11347,0.21659
3234.04194,0.21453
3235.97041,0.21247
3237.89888,0.21545
3239.82735,0.22113
3241.75582,0.22410
3243.68428,0.22325
3245.61275,0.21921
3247.54122,0.21368
3249.46969,0.21005
3251.39816,0.21234
3253.32663,0.21680
3255.25510,0.21677
3257.18357,0.21348
3259.11203,0.21070
3261.04050,0.20952
3262.96897,0.20998
3264.89744,0.21165
3266.82591,0.21400
3268.75438,0.21713
3270.68285,0.21842
3272.61131,0.21725
3274.53978,0.21762
3276.46825,0.21872
3278.39672,0.21645
3280.32519,0.21276
3282.25366,0.21452
3284.18213,0.21937
3286.11060,0.21694
3288.03906,0.20991
3289.96753,0.20842
3291.89600,0.20982
3293.82447,0.20862
3295.75294,0.20951
3297.68141,0.21348
3299.60988,0.21253
3301.53834,0.20812
3303.46681,0.21068
3305.39528,0.21831
3307.32375,0.22203
3309.25222,0.22242
3311.18069,0.22501
3313.10916,0.22825
3315.03763,0.22651
3316.96609,0.22449
3318.89456,0.22661
3320.82303,0.22507
3322.75150,0.21821
3324.67997,0.21294
3326.60844,0.21182
3328.53691,0.21446
3330.46537,0.21981
3332.39384,0.22647
3334.32231,0.23140
3336.25078,0.23206
3338.17925,0.23096
3340.10772,0.22714
3342.03619,0.21799
3343.96466,0.21218
3345.89312,0.21620
3347.82159,0.22120
3349.75006,0.22076
3351.67853,0.21909
3353.60700,0.21897
3355.53547,0.21912
3357.46394,0.21976
3359.39240,0.22375
3361.32087,0.22859
3363.24934,0.22856
3365.17781,0.22336
3367.10628,0.21609
3369.03475,0.21519
3370.96322,0.22278
3372.89168,0.22699
3374.82015,0.22310
3376.74862,0.21811
3378.67709,0.21777
3380.60556,0.22230
3382.53403,0.22653
3384.46250,0.22625
3386.39097,0.22402
3388.31943,0.22459
3390.24790,0.22630
3392.17637,0.22203
3394.10484,0.21515
3396.03331,0.21387
3397.96178,0.21382
3399.89025,0.21266
3401.81871,0.21323
3403.74718,0.21476
3405.67565,0.21850
3407.60412,0.22330
3409.53259,0.22337
3411.46106,0.22005
3413.38953,0.21953
3415.31800,0.22088
3417.24646,0.22094
3419.17493,0.21918
3421.10340,0.21571
3423.03187,0.21305
3424.96034,0.21390
3426.88881,0.21509
3428.81728,0.21068
3430.74574,0.20607
3432.67421,0.20985
3434.60268,0.21445
3436.53115,0.21244
3438.45962,0.21051
3440.38809,0.21213
3442.31656,0.21197
3444.24503,0.20886
3446.17349,0.20716
3448.10196,0.20824
3450.03043,0.20845
3451.95890,0.20628
3453.88737,0.20335
3455.81584,0.20137
3457.74431,0.20048
3459.67277,0.19797
3461.60124,0.19603
3463.52971,0.19971
3465.45818,0.20540
3467.38665,0.20727
3469.31512,0.20529
3471.24359,0.20341
3473.17206,0.20230
3475.10052,0.19868
3477.02899,0.19420
3478.95746,0.19337
3480.88593,0.19502
3482.81440,0.19470
3484.74287,0.19406
3486.67134,0.19617
3488.59980,0.19735
3490.52827,0.19518
3492.45674,0.19259
3494.38521,0.19162
3496.31368,0.18963
3498.24215,0.18654
3500.17062,0.18717
3502.09909,0.18937
3504.02755,0.18683
3505.95602,0.18236
3507.88449,0.18288
3509.81296,0.18865
3511.74143,0.19277
3513.66990,0.18997
3515.59837,0.18521
3517.52683,0.18282
3519.45530,0.17899
3521.38377,0.17691
3523.31224,0.17999
3525.24071,0.18069
3527.16918,0.17801
3529.09765,0.17643
3531.02611,0.17233
3532.95458,0.16560
3534.88305,0.16359
3536.81152,0.16476
3538.73999,0.16460
3540.66846,0.16727
3542.59693,0.17300
3544.52540,0.17862
3546.45386,0.18100
3548.38233,0.17745
3550.31080,0.17388
3552.23927,0.17399
3554.16774,0.17321
3556.09621,0.16949
3558.02468,0.16491
3559.95314,0.16311
3561.88161,0.16746
3563.81008,0.17368
3565.73855,0.17587
3567.66702,0.17504
3569.59549,0.17234
3571.52396,0.16842
3573.45243,0.16570
3575.38089,0.16330
3577.30936,0.16101
3579.23783,0.16154
3581.16630,0.16331
3583.09477,0.16472
3585.02324,0.16863
3586.95171,0.17299
3588.88017,0.17174
3590.80864,0.16745
3592.73711,0.16342
3594.66558,0.16256
3596.59405,0.16432
3598.52252,0.16314
3600.45099,0.16026
3602.37946,0.15961
3604.30792,0.16096
3606.23639,0.16279
3608.16486,0.16260
3610.09333,0.15992
3612.02180,0.15922
3613.95027,0.16084
3615.87874,0.16169
3617.80720,0.16223
3619.73567,0.16100
3621.66414,0.15509
3623.59261,0.14888
3625.52108,0.14844
3627.44955,0.15482
3629.37802,0.15722
3631.30649,0.15263
3633.23495,0.15184
3635.16342,0.14921
3637.09189,0.14095
3639.02036,0.13570
3640.94883,0.13688
3642.87730,0.13929
3644.80577,0.14138
3646.73423,0.14594
3648.66270,0.15564
3650.59117,0.15700
3652.51964,0.14639
3654.44811,0.13950
3656.37658,0.14253
3658.30505,0.14850
3660.23352,0.14636
3662.16198,0.13963
3664.09045,0.13590
3666.01892,0.13633
3667.94739,0.14137
3669.87586,0.15003
3671.80433,0.15231
3673.73280,0.15236
3675.66126,0.15623
3677.58973,0.15469
3679.51820,0.14763
3681.44667,0.14124
3683.37514,0.13678
3685.30361,0.13367
3687.23208,0.13647
3689.16055,0.14626
3691.08901,0.14384
3693.01748,0.13259
3694.94595,0.12969
3696.87442,0.13252
3698.80289,0.13255
3700.73136,0.13299
3702.65983,0.13750
3704.58829,0.13883
3706.51676,0.13682
3708.44523,0.13686
3710.37370,0.14122
3712.30217,0.14121
3714.23064,0.13426
3716.15911,0.13159
3718.08757,0.13486
3720.01604,0.13837
3721.94451,0.13989
3723.87298,0.14142
3725.80145,0.13958
3727.72992,0.13520
3729.65839,0.13470
3731.58686,0.14185
3733.51532,0.15304
3735.44379,0.14996
3737.37226,0.13721
3739.30073,0.13568
3741.22920,0.14071
3743.15767,0.14098
3745.08614,0.13235
3747.01460,0.13091
3748.94307,0.14265
3750.87154,0.15836
3752.80001,0.15765
3754.72848,0.14844
3756.65695,0.14444
3758.58542,0.14554
3760.51389,0.14417
3762.44235,0.13853
3764.37082,0.13359
3766.29929,0.13352
3768.22776,0.13624
3770.15623,0.13296
3772.08470,0.12555
3774.01317,0.12175
3775.94163,0.12228
3777.87010,0.12838
3779.79857,0.13552
3781.72704,0.13591
3783.65551,0.13441
3785.58398,0.13349
3787.51245,0.12962
3789.44092,0.12511
3791.36938,0.12465
3793.29785,0.12812
3795.22632,0.13338
3797.15479,0.13676
3799.08326,0.13483
3801.01173,0.13007
3802.94020,0.12837
3804.86866,0.13098
3806.79713,0.13229
3808.72560,0.13155
3810.65407,0.13318
3812.58254,0.13628
3814.51101,0.14217
3816.43948,0.14832
3818.36795,0.14390
3820.29641,0.13414
3822.22488,0.12820
3824.15335,0.12649
3826.08182,0.12755
3828.01029,0.12990
3829.93876,0.13201
3831.86723,0.13479
3833.79569,0.13560
3835.72416,0.13614
3837.65263,0.14174
3839.58110,0.14245
3841.50957,0.13417
3843.43804,0.12854
3845.36651,0.12676
3847.29498,0.12624
3849.22344,0.12874
3851.15191,0.13437
3853.08038,0.13296
3855.00885,0.11846
3856.93732,0.11329
3858.86579,0.11496
3860.79426,0.11730
3862.72272,0.12042
3864.65119,0.12477
3866.57966,0.12828
3868.50813,0.13074
3870.43660,0.13343
3872.36507,0.13478
3874.29354,0.13192
3876.22200,0.12913
3878.15047,0.13176
3880.07894,0.13345
3882.00741,0.12815
3883.93588,0.12660
3885.86435,0.13040
3887.79282,0.13077
3889.72129,0.12949
3891.64975,0.13061
3893.57822,0.13147
3895.50669,0.13032
3897.43516,0.12908
3899.36363,0.12600
3901.29210,0.11817
3903.22057,0.11023
3905.14903,0.10953
3907.07750,0.11328
3909.00597,0.11443
3910.93444,0.11342
3912.86291,0.11446
3914.79138,0.11715
3916.71985,0.11802
3918.64832,0.11690
3920.57678,0.11830
3922.50525,0.12525
3924.43372,0.13169
3926.36219,0.12896
3928.29066,0.12227
3930.21913,0.12019
3932.14760,0.12147
3934.07606,0.12029
3936.00453,0.11716
3937.93300,0.11678
3939.86147,0.11977
3941.78994,0.12044
3943.71841,0.11682
3945.64688,0.11784
3947.57535,0.12549
3949.50381,0.12684
3951.43228,0.11812
3953.36075,0.11332
3955.28922,0.11513
3957.21769,0.11295
3959.14616,0.10644
3961.07463,0.10425
3963.00309,0.10645
3964.93156,0.10866
3966.86003,0.11050
3968.78850,0.11385
3970.71697,0.11760
3972.64544,0.12024
3974.57391,0.12316
3976.50238,0.12227
3978.43084,0.11646
3980.35931,0.11307
3982.28778,0.11411
3984.21625,0.11606
3986.14472,0.11844
3988.07319,0.12121
3990.00166,0.12093
3991.93012,0.11638
3993.85859,0.10917
3995.78706,0.10588
3997.71553,0.11107
3999.64400,0.11473
4001.57247,0.11296
4003.50094,0.11256
4005.42941,0.11005
4007.35787,0.10217
4009.28634,0.09794
4011.21481,0.10185
4013.14328,0.10555
4015.07175,0.10329
4017.00022,0.09932
4018.92869,0.09862
4020.85715,0.10163
4022.78562,0.10626
4024.71409,0.10992
4026.64256,0.11002
4028.57103,0.10600
4030.49950,0.10149
4032.42797,0.09994
4034.35644,0.10198
4036.28490,0.10504
4038.21337,0.10437
4040.14184,0.09947
4042.07031,0.09533
4043.99878,0.09674
4045.92725,0.10076
4047.85572,0.10050
4049.78418,0.09768
4051.71265,0.09890
4053.64112,0.10383
4055.56959,0.10728
4057.49806,0.10941
4059.42653,0.10948
4061.35500,0.10364
4063.28346,0.09592
4065.21193,0.09312
4067.14040,0.09673
4069.06887,0.10199
4070.99734,0.10398
4072.92581,0.10366
4074.85428,0.10129
4076.78275,0.09602
4078.71121,0.09063
4080.63968,0.08720
4082.56815,0.08604
4084.49662,0.08960
4086.42509,0.09781
4088.35356,0.10530
4090.28203,0.10722
4092.21049,0.10257
4094.13896,0.09714
4096.06743,0.09713
4097.99590,0.09720
4099.92437,0.09113
4101.85284,0.08599
4103.78131,0.08837
4105.70978,0.09263
4107.63824,0.09240
4109.56671,0.08897
4111.49518,0.08564
4113.42365,0.08578
4115.35212,0.09073
4117.28059,0.09563
4119.20906,0.09463
4121.13752,0.08757
4123.06599,0.08112
4124.99446,0.08037
4126.92293,0.08176
4128.85140,0.08407
4130.77987,0.09242
4132.70834,0.09981
4134.63681,0.09442
4136.56527,0.08812
4138.49374,0.09114
4140.42221,0.09305
4142.35068,0.09244
4144.27915,0.09267
4146.20762,0.09014
4148.13609,0.08853
4150.06455,0.09334
4151.99302,0.09706
4153.92149,0.09380
4155.84996,0.09140
4157.77843,0.09086
4159.70690,0.08618
4161.63537,0.07902
4163.56384,0.07318
4165.49230,0.07310
4167.42077,0.08260
4169.34924,0.09669
4171.27771,0.10296
4173.20618,0.09753
4175.13465,0.09142
4177.06312,0.08963
4178.99158,0.08785
4180.92005,0.08804
4182.84852,0.08706
4184.77699,0.08010
4186.70546,0.07350
4188.63393,0.07141
4190.56240,0.07264
4192.49087,0.07596
4194.41933,0.07818
4196.34780,0.07558
4198.27627,0.07208
4200.20474,0.07531
4202.13321,0.08159
4204.06168,0.08494
4205.99015,0.08766
4207.91861,0.09058
4209.84708,0.09133
4211.77555,0.08890
4213.70402,0.08441
4215.63249,0.08270
4217.56096,0.08153
4219.48943,0.07649
4221.41789,0.07588
4223.34636,0.07870
4225.27483,0.07505
4227.20330,0.07004
4229.13177,0.06730
4231.06024,0.05987
4232.98871,0.05109
4234.91718,0.05233
4236.84564,0.06151
4238.77411,0.06720
4240.70258,0.06801
4242.63105,0.06876
4244.55952,0.06886
4246.48799,0.07036
4248.41646,0.07369
4250.34492,0.07237
4252.27339,0.06728
4254.20186,0.06165
4256.13033,0.05955
4258.05880,0.06466
4259.98727,0.06912
4261.91574,0.06896
4263.84421,0.06757
4265.77267,0.06503
4267.70114,0.06063
4269.62961,0.05692
4271.55808,0.05939
4273.48655,0.06341
4275.41502,0.06111
4277.34349,0.05893
4279.27195,0.06176
4281.20042,0.06111
4283.12889,0.05272
4285.05736,0.04601
4286.98583,0.04895
4288.91430,0.05859
4290.84277,0.06553
4292.77124,0.06487
4294.69970,0.06024
4296.62817,0.05477
4298.55664,0.05135
4300.48511,0.05157
4302.41358,0.05523
4304.34205,0.06051
4306.27052,0.06482
4308.19898,0.06644
4310.12745,0.05952
4312.05592,0.04968
4313.98439,0.04620
4315.91286,0.04414
4317.84133,0.04447
4319.76980,0.05120
4321.69827,0.05683
4323.62673,0.05652
4325.55520,0.05683
4327.48367,0.06070
4329.41214,0.06278
4331.34061,0.06200
4333.26908,0.05803
4335.19755,0.05209
4337.12601,0.04956
4339.05448,0.04804
4340.98295,0.04653
4342.91142,0.04973
4344.83989,0.05078
4346.76836,0.04582
4348.69683,0.04340
4350.62530,0.04543
4352.55376,0.04752
4354.48223,0.04546
4356.41070,0.04160
4358.33917,0.04373
4360.26764,0.04874
4362.19611,0.04833
4364.12458,0.04394
4366.05304,0.04145
4367.98151,0.04166
4369.90998,0.04224
4371.83845,0.04210
4373.76692,0.04016
4375.69539,0.03545
4377.62386,0.03056
4379.55232,0.03087
4381.48079,0.03427
4383.40926,0.03246
4385.33773,0.02850
4387.26620,0.03128
4389.19467,0.03781
4391.12314,0.03951
4393.05161,0.03900
4394.98007,0.03928
4396.90854,0.03284
4398.83701,0.02487
4400.76548,0.02549
4402.69395,0.02996
4404.62242,0.03435
4406.55089,0.04088
4408.47935,0.04925
4410.40782,0.05190
4412.33629,0.04234
4414.26476,0.02883
4416.19323,0.02349
4418.12170,0.02494
4420.05017,0.02846
4421.97864,0.03445
4423.90710,0.03691
4425.83557,0.03111
4427.76404,0.02691
4429.69251,0.03178
4431.62098,0.03663
4433.54945,0.03455
4435.47792,0.03008
4437.40638,0.02778
4439.33485,0.02893
4441.26332,0.03066
4443.19179,0.02866
4445.12026,0.02394
4447.04873,0.02376
4448.97720,0.03205
4450.90567,0.03929
4452.83413,0.03477
4454.76260,0.02460
4456.69107,0.01785
4458.61954,0.01353
4460.54801,0.01122
4462.47648,0.01101
4464.40495,0.01093
4466.33341,0.01329
4468.26188,0.01854
4470.19035,0.02002
4472.11882,0.01936
4474.04729,0.02226
4475.97576,0.02111
4477.90423,0.01470
4479.83270,0.01278
4481.76116,0.01555
4483.68963,0.01720
4485.61810,0.01628
4487.54657,0.01792
4489.47504,0.02303
4491.40351,0.02283
4493.33198,0.01334
4495.26044,0.00228
4497.18891,0.00165
4499.11738,0.01586
4501.04585,0.03028
4502.97432,0.02764
4504.90279,0.01436
4506.83126,0.00602
4508.75973,0.00109
4510.68819,-0.00534
4512.61666,-0.00874
4514.54513,-0.00561
4516.47360,0.00462
4518.40207,0.02249
4520.33054,0.04185
4522.25901,0.04615
4524.18747,0.03070
4526.11594,0.01087
4528.04441,0.00129
4529.97288,0.00802
4531.90135,0.02250
4533.82982,0.02773
4535.75829,0.01651
4537.68676,0.00099
4539.61522,0.00252
4541.54369,0.01698
4543.47216,0.02071
4545.40063,0.01431
4547.32910,0.01577
4549.25757,0.02156
4551.18604,0.01726
4553.11450,0.00698
4555.04297,-0.00002
4556.97144,-0.00547
4558.89991,-0.00500
4560.82838,0.00738
4562.75685,0.01759
4564.68532,0.01256
4566.61378,-0.00163
4568.54225,-0.01105
4570.47072,-0.00862
4572.39919,-0.00335
4574.32766,-0.00436
4576.25613,-0.00842
4578.18460,-0.00887
4580.11307,-0.00539
4582.04153,-0.00190
4583.97000,0.00538
4585.89847,0.01770
4587.82694,0.02314
4589.75541,0.01513
4591.68388,0.00591
4593.61235,0.00779
4595.54081,0.01530
4597.46928,0.01837
4599.39775,0.01562
4601.32622,0.01174
4603.25469,0.01017
4605.18316,0.00870
4607.11163,0.00646
4609.04010,0.00623
4610.96856,0.00678
4612.89703,0.00703
4614.82550,0.01230
4616.75397,0.02508
4618.68244,0.03404
4620.61091,0.02913
4622.53938,0.01794
4624.46784,0.01105
4626.39631,0.00839
4628.32478,0.00445
4630.25325,0.00249
4632.18172,0.00909
4634.11019,0.01840
4636.03866,0.01951
4637.96713,0.01208
4639.89559,0.00595
4641.82406,0.00599
4643.75253,0.00864
4645.68100,0.01073
4647.60947,0.00836
4649.53794,0.00046
4651.46641,-0.00667
4653.39487,-0.00545
4655.32334,0.00369
4657.25181,0.01563
4659.18028,0.02240
4661.10875,0.01942
4663.03722,0.01725
4664.96569,0.01801
4666.89416,0.01650
4668.82262,0.01643
4670.75109,0.01393
4672.67956,0.00394
4674.60803,-0.00302
4676.53650,-0.00202
4678.46497,-0.00659
4680.39344,-0.01758
4682.32190,-0.01960
4684.25037,-0.01053
4686.17884,-0.00158
4688.10731,0.00231
4690.03578,0.00243
4691.96425,-0.00212
4693.89272,-0.00791
4695.82119,-0.01052
4697.74965,-0.00762
4699.67812,0.00275
4701.60659,0.01526
4703.53506,0.02136
4705.46353,0.02473
4707.39200,0.03133
4709.32047,0.02947
4711.24893,0.01450
4713.17740,0.00209
4715.10587,-0.00576
4717.03434,-0.01246
4718.96281,-0.00600
4720.89128,0.00752
4722.81975,0.00911
4724.74821,0.00641
4726.67668,0.00941
4728.60515,0.00913
4730.53362,0.00319
4732.46209,0.00052
4734.39056,0.00372
4736.31903,0.00878
4738.24750,0.01336
4740.17596,0.01860
4742.10443,0.02249
4744.03290,0.01913
4745.96137,0.01205
4747.88984,0.00830
4749.81831,0.00960
4751.74678,0.01606
4753.67524,0.02274
4755.60371,0.02229
4757.53218,0.01419
4759.46065,0.00576
4761.38912,0.00297
4763.31759,0.00406
4765.24606,0.00686
4767.17453,0.00800
4769.10299,0.00493
4771.03146,-0.00103
4772.95993,-0.00713
4774.88840,-0.00749
4776.81687,-0.00502
4778.74534,-0.00300
4780.67381,0.00555
4782.60227,0.01916
4784.53074,0.02743
4786.45921,0.02268
4788.38768,0.01135
4790.31615,0.01017
4792.24462,0.02244
4794.17309,0.02745
4796.10156,0.01875
4798.03002,0.01648
4799.95849,0.01986
4801.88696,0.01103
4803.81543,-0.00529
4805.74390,-0.01073
4807.67237,-0.00925
4809.60084,-0.00770
4811.52930,0.00471
4813.45777,0.02022
4815.38624,0.01660
4817.31471,0.00070
4819.24318,-0.00536
4821.17165,0.00118
4823.10012,0.01177
4825.02859,0.01496
4826.95705,0.00435
4828.88552,-0.00762
4830.81399,-0.00362
4832.74246,0.00545
4834.67093,0.00301
4836.59940,0.00012
4838.52787,0.00618
4840.45633,0.01471
4842.38480,0.02067
4844.31327,0.02082
4846.24174,0.01426
4848.17021,0.00154
4850.09868,-0.00979
4852.02715,-0.01455
4853.95562,-0.01248
4855.88408,-0.00302
4857.81255,0.00671
4859.74102,0.01279
4861.66949,0.01847
4863.59796,0.02135
4865.52643,0.01997
4867.45490,0.01080
4869.38336,-0.00067
4871.31183,-0.00234
4873.24030,-0.00097
4875.16877,-0.00923
4877.09724,-0.01653
4879.02571,-0.00634
4880.95418,0.01059
4882.88265,0.02201
4884.81111,0.02682
4886.73958,0.02207
4888.66805,0.01406
4890.59652,0.00824
4892.52499,0.00463
4894.45346,0.00475
4896.38193,-0.00028
4898.31039,-0.01141
4900.23886,-0.00764
4902.16733,0.01085
4904.09580,0.01950
4906.02427,0.01026
4907.95274,-0.00190
4909.88121,-0.00620
4911.80967,-0.00776
4913.73814,-0.00656
4915.66661,-0.00005
4917.59508,0.00734
4919.52355,0.01466
4921.45202,0.01382
4923.38049,-0.00162
4925.30896,-0.01424
4927.23742,-0.00545
4929.16589,0.00988
4931.09436,0.00446
4933.02283,-0.01246
4934.95130,-0.01264
4936.87977,-0.00178
4938.80824,0.00274
4940.73670,0.00863
4942.66517,0.01512
4944.59364,0.01015
4946.52211,0.00562
4948.45058,0.01042
4950.37905,0.01674
4952.30752,0.02413
4954.23599,0.02515
4956.16445,0.00730
4958.09292,-0.01808
4960.02139,-0.02886
4961.94986,-0.02133
4963.87833,-0.00683
4965.80680,0.00256
4967.73527,0.00372
4969.66373,0.00687
4971.59220,0.01358
4973.52067,0.01207
4975.44914,0.00395
4977.37761,0.00342
4979.30608,0.01163
4981.23455,0.01536
4983.16302,0.00948
4985.09148,0.00811
4987.01995,0.01900
4988.94842,0.02917
4990.87689,0.03265
4992.80536,0.02768
4994.73383,0.00707
4996.66230,-0.01473
4998.59076,-0.01703
5000.51923,-0.00651
5002.44770,0.00048
5004.37617,0.00480
5006.30464,0.01356
5008.23311,0.02007
5010.16158,0.01774
5012.09005,0.00773
5014.01851,-0.00111
5015.94698,0.00064
5017.87545,0.00824
5019.80392,0.01560
5021.73239,0.02222
5023.66086,0.02479
5025.58933,0.02075
5027.51779,0.01794
5029.44626,0.02326
5031.37473,0.02699
5033.30320,0.02407
5035.23167,0.01683
5037.16014,0.00941
5039.08861,0.01130
5041.01708,0.01315
5042.94554,0.00465
5044.87401,0.00102
5046.80248,0.01119
5048.73095,0.02634
5050.65942,0.03528
5052.58789,0.02988
5054.51636,0.01832
5056.44482,0.01109
5058.37329,0.00362
5060.30176,0.00323
5062.23023,0.01290
5064.15870,0.01026
5066.08717,-0.00290
5068.01564,-0.00245
5069.94410,0.00650
5071.87257,0.00945
5073.80104,0.01021
5075.72951,0.01300
5077.65798,0.02413
5079.58645,0.04029
5081.51492,0.04096
5083.44339,0.03174
5085.37185,0.03061
5087.30032,0.02918
5089.22879,0.01831
5091.15726,0.00652
5093.08573,-0.00143
5095.01420,-0.00206
5096.94267,0.01185
5098.87113,0.03060
5100.79960,0.03855
5102.72807,0.03997
5104.65654,0.03896
5106.58501,0.03347
5108.51348,0.03339
5110.44195,0.03502
5112.37042,0.02808
5114.29888,0.02552
5116.22735,0.03486
5118.15582,0.04722
5120.08429,0.04868
5122.01276,0.03463
5123.94123,0.02271
5125.86970,0.02742
5127.79816,0.03789
5129.72663,0.03909
5131.65510,0.03131
5133.58357,0.02127
5135.51204,0.02074
5137.44051,0.03099
5139.36898,0.04207
5141.29745,0.05183
5143.22591,0.05750
5145.15438,0.05444
5147.08285,0.04570
5149.01132,0.03762
5150.93979,0.03227
5152.86826,0.03423
5154.79673,0.03970
5156.72519,0.03131
5158.65366,0.01381
5160.58213,0.00679
5162.51060,0.01294
5164.43907,0.02587
5166.36754,0.03947
5168.29601,0.04489
5170.22448,0.04103
5172.15294,0.03952
5174.08141,0.04527
5176.00988,0.05078
5177.93835,0.03969
5179.86682,0.01689
5181.79529,0.01822
5183.72376,0.04730
5185.65222,0.06295
5187.58069,0.04761
5189.50916,0.03107
5191.43763,0.03424
5193.36610,0.04989
5195.29457,0.06454
5197.22304,0.05844
5199.15151,0.02120
5201.07997,-0.00945
5203.00844,0.00251
5204.93691,0.03637
5206.86538,0.04960
5208.79385,0.03689
5210.72232,0.02591
5212.65079,0.02779
5214.57925,0.03549
5216.50772,0.03400
5218.43619,0.01915
5220.36466,0.01353
5222.29313,0.02808
5224.22160,0.04708
5226.15007,0.05343
5228.07854,0.04274
5230.00700,0.02924
5231.93547,0.02480
5233.86394,0.02928
5235.79241,0.03656
5237.72088,0.04166
5239.64935,0.03983
5241.57782,0.03283
5243.50628,0.04047
5245.43475,0.06363
5247.36322,0.07113
5249.29169,0.05894
5251.22016,0.04857
5253.14863,0.04538
5255.07710,0.04231
5257.00556,0.04092
5258.93403,0.04932
5260.86250,0.05781
5262.79097,0.05225
5264.71944,0.04284
5266.64791,0.04297
5268.57638,0.04730
5270.50485,0.05255
5272.43331,0.06372
5274.36178,0.07346
5276.29025,0.07042
5278.21872,0.06321
5280.14719,0.05838
5282.07566,0.05053
5284.00413,0.04166
5285.93259,0.03591
5287.86106,0.04309
5289.78953,0.06483
5291.71800,0.07095
5293.64647,0.05483
5295.57494,0.03868
5297.50341,0.02884
5299.43188,0.03202
5301.36034,0.03752
5303.28881,0.03056
5305.21728,0.02608
5307.14575,0.02664
5309.07422,0.03019
5311.00269,0.04733
5312.93116,0.07005
5314.85962,0.08794
5316.78809,0.09111
5318.71656,0.07360
5320.64503,0.06324
5322.57350,0.07552
5324.50197,0.09282
5326.43044,0.10041
5328.35891,0.08530
5330.28737,0.05988
5332.21584,0.05146
5334.14431,0.06079
5336.07278,0.07197
5338.00125,0.07893
5339.92972,0.09218
5341.85819,0.10543
5343.78665,0.08844
5345.71512,0.04444
5347.64359,0.02382
5349.57206,0.02225
5351.50053,0.01716
5353.42900,0.03368
5355.35747,0.07225
5357.28594,0.08522
5359.21440,0.07080
5361.14287,0.06120
5363.07134,0.06459
5364.99981,0.06832
5366.92828,0.06729
5368.85675,0.06364
5370.78522,0.07840
5372.71368,0.11232
5374.64215,0.11926
5376.57062,0.08063
5378.49909,0.04965
5380.42756,0.04537
5382.35603,0.04009
5384.28450,0.02776
5386.21297,0.02576
5388.14143,0.04420
5390.06990,0.06384
5391.99837,0.07206
5393.92684,0.07911
5395.85531,0.08400
5397.78378,0.07761
5399.71225,0.06822
5401.64071,0.06570
5403.56918,0.06506
5405.49765,0.06458
5407.42612,0.06877
5409.35459,0.07426
5411.28306,0.07659
5413.21153,0.07089
5415.13999,0.06684
5417.06846,0.06972
5418.99693,0.06740
5420.92540,0.06094
5422.85387,0.05845
5424.78234,0.05414
5426.71081,0.04080
5428.63928,0.02311
5430.56774,0.01716
5432.49621,0.03634
5434.42468,0.06803
5436.35315,0.08466
5438.28162,0.07936
5440.21009,0.06767
5442.13856,0.06945
5444.06702,0.07158
5445.99549,0.06167
5447.92396,0.05749
5449.85243,0.06188
5451.78090,0.06961
5453.70937,0.08114
5455.63784,0.09829
5457.56631,0.11609
5459.49477,0.12038
5461.42324,0.11010
5463.35171,0.09256
5465.28018,0.07711
5467.20865,0.07333
5469.13712,0.07738
5471.06559,0.08061
5472.99405,0.08141
5474.92252,0.06706
5476.85099,0.04175
5478.77946,0.03303
5480.70793,0.03715
5482.63640,0.05077
5484.56487,0.07715
5486.49334,0.09692
5488.42180,0.09819
5490.35027,0.09679
5492.27874,0.09715
5494.20721,0.08559
5496.13568,0.07257
5498.06415,0.06980
5499.99262,0.06958
5501.92108,0.07457
5503.84955,0.09552
5505.77802,0.11932
5507.70649,0.12050
5509.63496,0.10008
5511.56343,0.08210
5513.49190,0.07696
5515.42037,0.07962
5517.34883,0.08332
5519.27730,0.07515
5521.20577,0.06651
5523.13424,0.07765
5525.06271,0.07820
5526.99118,0.05015
5528.91965,0.02584
5530.84811,0.02146
5532.77658,0.03215
5534.70505,0.05393
5536.63352,0.06856
5538.56199,0.06908
5540.49046,0.07541
5542.41893,0.08498
5544.34740,0.07904
5546.27586,0.06774
5548.20433,0.05845
5550.13280,0.04181
5552.06127,0.04515
5553.98974,0.08982
5555.91821,0.12808
5557.84668,0.12297
5559.77514,0.10412
5561.70361,0.09407
5563.63208,0.08943
5565.56055,0.09689
5567.48902,0.10989
5569.41749,0.11180
5571.34596,0.10654
5573.27443,0.10151
5575.20289,0.09297
5577.13136,0.07860
5579.05983,0.06730
5580.98830,0.06002
5582.91677,0.05045
5584.84524,0.04657
5586.77371,0.06040
5588.70217,0.07900
5590.63064,0.07402
5592.55911,0.05346
5594.48758,0.04750
5596.41605,0.05461
5598.34452,0.05096
5600.27299,0.04160
5602.20145,0.04620
5604.12992,0.06540
5606.05839,0.08642
5607.98686,0.08088
5609.91533,0.04347
5611.84380,0.02619
5613.77227,0.06182
5615.70074,0.09640
5617.62920,0.08713
5619.55767,0.06679
5621.48614,0.07813
5623.41461,0.10164
5625.34308,0.08708
5627.27155,0.05251
5629.20002,0.04933
5631.12848,0.06452
5633.05695,0.06684
5634.98542,0.06667
5636.91389,0.07841
5638.84236,0.08278
5640.77083,0.07565
5642.69930,0.07981
5644.62777,0.09449
5646.55623,0.09119
5648.48470,0.08528
5650.41317,0.11050
5652.34164,0.12303
5654.27011,0.09032
5656.19858,0.05470
5658.12705,0.04945
5660.05551,0.07643
5661.98398,0.11340
5663.91245,0.12261
5665.84092,0.10295
5667.76939,0.08116
5669.69786,0.06835
5671.62633,0.05658
5673.55480,0.03796
5675.48326,0.03170
5677.41173,0.05443
5679.34020,0.08341
5681.26867,0.10063
5683.19714,0.10251
5685.12561,0.08126
5687.05408,0.05968
5688.98254,0.06405
5690.91101,0.07409
5692.83948,0.07086
5694.76795,0.06484
5696.69642,0.07603
5698.62489,0.09810
5700.55336,0.09889
5702.48183,0.07730
5704.41029,0.05605
5706.33876,0.05297
5708.26723,0.07408
5710.19570,0.09965
5712.12417,0.09773
5714.05264,0.07186
5715.98111,0.06924
5717.90957,0.10892
5719.83804,0.13730
5721.76651,0.11810
5723.69498,0.09150
5725.62345,0.07430
5727.55192,0.06171
5729.48039,0.07764
5731.40886,0.09277
5733.33732,0.07046
5735.26579,0.05557
5737.19426,0.08322
5739.12273,0.10352
5741.05120,0.09613
5742.97967,0.09976
5744.90814,0.10635
5746.83660,0.09691
5748.76507,0.09363
5750.69354,0.09312
5752.62201,0.07689
5754.55048,0.05022
5756.47895,0.02111
5758.40742,0.01180
5760.33588,0.03248
5762.26435,0.04972
5764.19282,0.04529
5766.12129,0.04874
5768.04976,0.06494
5769.97823,0.07196
5771.90670,0.07257
5773.83517,0.07955
5775.76363,0.08206
5777.69210,0.06648
5779.62057,0.05654
5781.54904,0.08535
5783.47751,0.13032
5785.40598,0.13559
5787.33445,0.10622
5789.26291,0.09937
5791.19138,0.11057
5793.11985,0.10459
5795.04832,0.09389
5796.97679,0.10094
5798.90526,0.13471
5800.83373,0.18008
5802.76220,0.19404
5804.69066,0.16912
5806.61913,0.14501
5808.54760,0.14102
5810.47607,0.14417
5812.40454,0.13614
5814.33301,0.10993
5816.26148,0.08552
5818.18994,0.09974
5820.11841,0.14322
5822.04688,0.14659
5823.97535,0.10084
5825.90382,0.05823
5827.83229,0.03817
5829.76076,0.05102
5831.68923,0.07723
5833.61769,0.08092
5835.54616,0.07644
5837.47463,0.08656
5839.40310,0.10848
5841.33157,0.13302
5843.26004,0.15711
5845.18851,0.16567
5847.11697,0.15370
5849.04544,0.14173
5850.97391,0.13227
5852.90238,0.11468
5854.83085,0.09475
5856.75932,0.08900
5858.68779,0.08840
5860.61626,0.08024
5862.54472,0.07791
5864.47319,0.08428
5866.40166,0.07703
5868.33013,0.05831
5870.25860,0.07186
5872.18707,0.09749
5874.11554,0.08901
5876.04400,0.06579
5877.97247,0.06823
5879.90094,0.11730
5881.82941,0.16828
5883.75788,0.15557
5885.68635,0.10251
5887.61482,0.07607
5889.54329,0.09805
5891.47175,0.13021
5893.40022,0.12381
5895.32869,0.09096
5897.25716,0.08424
5899.18563,0.10736
5901.11410,0.12222
5903.04257,0.12012
5904.97103,0.12301
5906.89950,0.11330
5908.82797,0.07302
5910.75644,0.04963
5912.68491,0.06039
5914.61338,0.07051
5916.54185,0.06719
5918.47032,0.06182
5920.39878,0.06614
5922.32725,0.07669
5924.25572,0.07144
5926.18419,0.05694
5928.11266,0.06932
5930.04113,0.09476
5931.96960,0.10037
5933.89806,0.09748
5935.82653,0.10206
5937.75500,0.11042
5939.68347,0.12125
5941.61194,0.13316
5943.54041,0.14624
5945.46888,0.16447
5947.39734,0.16207
5949.32581,0.10536
5951.25428,0.03555
5953.18275,0.02271
5955.11122,0.06175
5957.03969,0.09594
5958.96816,0.08616
5960.89663,0.06315
5962.82509,0.07763
5964.75356,0.11092
5966.68203,0.11752
5968.61050,0.10074
5970.53897,0.11193
5972.46744,0.16581
5974.39591,0.20596
5976.32437,0.19231
5978.25284,0.14894
5980.18131,0.10310
5982.10978,0.08120
5984.03825,0.09128
5985.96672,0.10395
5987.89519,0.12567
5989.82366,0.14715
5991.75212,0.14110
5993.68059,0.14467
5995.60906,0.14771
5997.53753,0.11901
5999.46600,0.10540
6001.39447,0.11295
6003.32294,0.11599
6005.25140,0.12764
6007.17987,0.14998
6009.10834,0.15949
6011.03681,0.15079
6012.96528,0.12997
6014.89375,0.10628
6016.82222,0.11703
6018.75069,0.16392
6020.67915,0.16516
6022.60762,0.10765
6024.53609,0.05905
6026.46456,0.03948
6028.39303,0.02899
6030.32150,0.02167
6032.24997,0.03259
6034.17843,0.05726
6036.10690,0.06862
6038.03537,0.07081
6039.96384,0.09161
6041.89231,0.12944
6043.82078,0.14119
6045.74925,0.12073
6047.67772,0.11066
6049.60618,0.10836
6051.53465,0.08791
6053.46312,0.06007
6055.39159,0.04960
6057.32006,0.05330
6059.24853,0.04026
6061.17700,0.02163
6063.10546,0.02216
6065.03393,0.02312
6066.96240,0.04456
6068.89087,0.11645
6070.81934,0.15718
6072.74781,0.11385
6074.67628,0.06617
6076.60475,0.06070
6078.53321,0.07020
6080.46168,0.09277
6082.39015,0.13755
6084.31862,0.16957
6086.24709,0.16258
6088.17556,0.14034
6090.10403,0.11190
6092.03249,0.07783
6093.96096,0.05408
6095.88943,0.05505
6097.81790,0.06234
6099.74637,0.05536
6101.67484,0.07533
6103.60331,0.13154
6105.53177,0.16153
6107.46024,0.15093
6109.38871,0.13632
6111.31718,0.12565
6113.24565,0.13653
6115.17412,0.16299
6117.10259,0.15087
6119.03106,0.12150
6120.95952,0.10396
6122.88799,0.05411
6124.81646,0.02249
6126.74493,0.08608
6128.67340,0.16045
6130.60187,0.13286
6132.53034,0.04398
6134.45880,-0.00999
6136.38727,-0.00012
6138.31574,0.02781
6140.24421,0.04421
6142.17268,0.05899
6144.10115,0.06808
6146.02962,0.06408
6147.95809,0.05213
6149.88655,0.05237
6151.81502,0.09057
6153.74349,0.12943
6155.67196,0.12360
6157.60043,0.13341
6159.52890,0.18470
6161.45737,0.20395
6163.38583,0.15296
6165.31430,0.06353
6167.24277,0.00955
6169.17124,0.03640
6171.09971,0.10787
6173.02818,0.15181
6174.95665,0.15605
6176.88512,0.13019
6178.81358,0.09255
6180.74205,0.08138
6182.67052,0.08285
6184.59899,0.09060
6186.52746,0.09887
6188.45593,0.06296
6190.38440,0.01448
6192.31286,0.01434
6194.24133,0.02714
6196.16980,-0.00639
6198.09827,-0.05178
6200.02674,-0.04747
6201.95521,-0.01376
6203.88368,0.01492
6205.81215,0.04462
6207.74061,0.06925
6209.66908,0.07475
6211.59755,0.06577
6213.52602,0.04932
6215.45449,0.05457
6217.38296,0.08799
6219.31143,0.09466
6221.23989,0.05328
6223.16836,0.01276
6225.09683,0.02901
6227.02530,0.07079
6228.95377,0.05815
6230.88224,-0.00222
6232.81071,-0.03718
6234.73918,-0.01436
6236.66764,0.05533
6238.59611,0.10626
6240.52458,0.08687
6242.45305,0.05954
6244.38152,0.05305
6246.30999,0.05744
6248.23846,0.07933
6250.16692,0.05067
6252.09539,-0.01854
6254.02386,-0.02326
6255.95233,0.04015
6257.88080,0.09800
6259.80927,0.08646
6261.73774,0.05597
6263.66621,0.09309
6265.59467,0.14554
6267.52314,0.09312
6269.45161,-0.01895
6271.38008,-0.05245
6273.30855,-0.00312
6275.23702,0.02704
6277.16549,0.02647
6279.09395,0.05436
6281.02242,0.09270
6282.95089,0.08829
6284.87936,0.08116
6286.80783,0.11825
6288.73630,0.14486
6290.66477,0.13303
6292.59323,0.10511
6294.52170,0.07326
6296.45017,0.06518
6298.37864,0.08123
6300.30711,0.08253
6302.23558,0.07075
6304.16405,0.09705
6306.09252,0.13581
6308.02098,0.10758
6309.94945,0.03358
6311.87792,-0.03230
6313.80639,-0.06142
6315.73486,-0.00686
6317.66333,0.08780
6319.59180,0.12876
6321.52026,0.13112
6323.44873,0.13731
6325.37720,0.13650
6327.30567,0.13789
6329.23414,0.16835
6331.16261,0.20659
6333.09108,0.17527
6335.01955,0.04886
6336.94801,-0.05947
6338.87648,-0.03495
6340.80495,0.06472
6342.73342,0.10764
6344.66189,0.10051
6346.59036,0.12984
6348.51883,0.19989
6350.44729,0.23292
6352.37576,0.19522
6354.30423,0.13721
6356.23270,0.11902
6358.16117,0.16913
6360.08964,0.20881
6362.01811,0.18541
6363.94658,0.18050
6365.87504,0.19703
6367.80351,0.15234
6369.73198,0.08411
6371.66045,0.07653
6373.58892,0.08483
6375.51739,0.04702
6377.44586,0.01461
6379.37432,0.03666
6381.30279,0.09580
6383.23126,0.12480
6385.15973,0.09928
6387.08820,0.06954
6389.01667,0.04148
6390.94514,0.02362
6392.87361,0.02403
6394.80207,0.00335
6396.73054,0.00032
6398.65901,0.04771
6400.58748,0.06752
6402.51595,0.04132
6404.44442,0.04105
6406.37289,0.07313
6408.30135,0.07890
6410.22982,0.05275
6412.15829,0.07632
6414.08676,0.13043
6416.01523,0.10984
6417.94370,0.03912
6419.87217,0.02316
6421.80064,0.04932
6423.72910,0.07341
6425.65757,0.07620
6427.58604,0.03543
6429.51451,0.00517
6431.44298,0.05203
6433.37145,0.13969
6435.29992,0.19678
6437.22838,0.19190
6439.15685,0.14251
6441.08532,0.08869
6443.01379,0.05480
6444.94226,0.05652
6446.87073,0.08633
6448.79920,0.11981
6450.72766,0.12761
6452.65613,0.11631
6454.58460,0.08965
6456.51307,0.04520
6458.44154,0.03419
6460.37001,0.07863
6462.29848,0.13292
6464.22695,0.13277
6466.15541,0.08045
6468.08388,0.08560
6470.01235,0.17227
6471.94082,0.20185
6473.86929,0.14007
6475.79776,0.06907
6477.72623,0.05858
6479.65469,0.13846
6481.58316,0.19293
6483.51163,0.11350
6485.44010,0.01395
6487.36857,-0.01213
6489.29704,0.01447
6491.22551,0.05767
6493.15398,0.05282
6495.08244,-0.03225
6497.01091,-0.11169
6498.93938,-0.10268
6500.86785,-0.02558
6502.79632,0.02945
6504.72479,0.03125
6506.65326,0.02543
6508.58172,-0.00241
6510.51019,-0.06300
6512.43866,-0.04313
6514.36713,0.04858
6516.29560,0.09572
6518.22407,0.10112
6520.15254,0.09792
6522.08101,0.12231
6524.00947,0.17613
6525.93794,0.16120
6527.86641,0.09516
6529.79488,0.07449
6531.72335,0.05960
6533.65182,0.02559
6535.58029,0.02370
6537.50875,0.06258
6539.43722,0.11740
6541.36569,0.15239
6543.29416,0.14511
6545.22263,0.11569
6547.15110,0.06794
6549.07957,-0.01788
6551.00804,-0.08482
6552.93650,-0.09453
6554.86497,-0.08006
6556.79344,-0.01513
6558.72191,0.05106
6560.65038,0.03996
6562.57885,0.01885
6564.50732,0.02970
6566.43578,0.04134
6568.36425,0.03896
6570.29272,0.02850
6572.22119,0.02310
6574.14966,0.00493
6576.07813,-0.00113
6578.00660,0.04384
6579.93507,0.06856
6581.86353,0.00832
6583.79200,-0.05997
6585.72047,-0.03835
6587.64894,0.05831
6589.57741,0.14918
6591.50588,0.18923
6593.43435,0.17053
6595.36281,0.10217
6597.29128,0.06471
6599.21975,0.09384
6601.14822,0.12579
6603.07669,0.11943
6605.00516,0.10204
6606.93363,0.08589
6608.86210,0.06748
6610.79056,0.02801
6612.71903,0.00617
6614.64750,0.04872
6616.57597,0.07605
6618.50444,0.07042
6620.43291,0.06978
6622.36138,0.05986
6624.28984,0.07409
6626.21831,0.09075
6628.14678,0.05614
6630.07525,0.03432
6632.00372,0.08268
6633.93219,0.11342
6635.86066,0.02408
6637.78912,-0.09731
6639.71759,-0.09115
6641.64606,-0.01382
6643.57453,0.00188
6645.50300,-0.00556
6647.43147,0.09814
6649.35994,0.25662
6651.28841,0.33318
6653.21687,0.30704
6655.14534,0.22568
6657.07381,0.12322
6659.00228,0.04854
6660.93075,0.06390
6662.85922,0.09948
6664.78769,0.06495
6666.71615,0.03547
6668.64462,0.07246
6670.57309,0.09482
6672.50156,0.04885
6674.43003,0.01646
6676.35850,0.01491
6678.28697,-0.03529
6680.21544,-0.07748
6682.14390,-0.01914
6684.07237,0.07687
6686.00084,0.11090
6687.92931,0.11379
6689.85778,0.13617
6691.78625,0.14633
6693.71472,0.15584
6695.64318,0.19085
6697.57165,0.17573
6699.50012,0.07995
6701.42859,0.06346
6703.35706,0.17916
6705.28553,0.24478
6707.21400,0.17714
6709.14247,0.07671
6711.07093,0.03047
6712.99940,0.02557
6714.92787,0.00425
6716.85634,-0.01342
6718.78481,0.04738
6720.71328,0.10453
6722.64175,0.06936
6724.57021,0.05195
6726.49868,0.06779
6728.42715,0.04550
6730.35562,0.04976
6732.28409,0.10327
6734.21256,0.09990
6736.14103,0.05523
6738.06950,0.07627
6739.99796,0.13842
6741.92643,0.13103
6743.85490,0.08672
6745.78337,0.11436
6747.71184,0.15936
6749.64031,0.11382
6751.56878,0.02993
6753.49724,0.03527
6755.42571,0.09527
6757.35418,0.06131
6759.28265,-0.08233
6761.21112,-0.16518
6763.13959,-0.10389
6765.06806,-0.03494
6766.99653,-0.03318
6768.92499,-0.03884
6770.85346,-0.00247
6772.78193,0.01346
6774.71040,-0.02883
6776.63887,-0.02786
6778.56734,0.03141
6780.49581,0.02054
6782.42427,-0.04851
6784.35274,-0.05867
6786.28121,-0.02628
6788.20968,-0.02189
6790.13815,-0.03179
6792.06662,-0.00893
6793.99509,0.03621
6795.92355,0.05766
6797.85202,0.05228
6799.78049,0.04139
6801.70896,0.04081
6803.63743,0.05515
6805.56590,0.07397
6807.49437,0.08173
6809.42284,0.05641
6811.35130,0.03254
6813.27977,0.05894
6815.20824,0.04210
6817.13671,-0.04302
6819.06518,-0.06087
6820.99365,0.00678
6822.92212,0.07783
6824.85058,0.09088
6826.77905,0.08192
6828.70752,0.06228
6830.63599,0.04517
6832.56446,0.07770
6834.49293,0.11891
6836.42140,0.11164
6838.34987,0.07935
6840.27833,0.08795
6842.20680,0.10381
6844.13527,0.06158
6846.06374,0.01588
6847.99221,0.00979
6849.92068,0.03637
6851.84915,0.04881
6853.77761,-0.02799
6855.70608,-0.12254
6857.63455,-0.06616
6859.56302,0.06735
6861.49149,0.11497
6863.41996,0.09594
6865.34843,0.07214
6867.27690,0.03940
6869.20536,0.03932
6871.13383,0.06870
6873.06230,0.11021
6874.99077,0.12551
6876.91924,0.07487
6878.84771,0.04288
6880.77618,0.08151
6882.70464,0.05668
6884.63311,-0.03608
6886.56158,-0.04756
6888.49005,0.02955
6890.41852,0.12107
6892.34699,0.20052
6894.27546,0.22471
6896.20393,0.21656
6898.13239,0.20053
6900.06086,0.13334
6901.98933,0.02949
6903.91780,-0.02085
6905.84627,0.04430
6907.77474,0.10297
6909.70321,0.07661
6911.63167,0.04185
6913.56014,0.01693
6915.48861,0.00552
6917.41708,-0.00060
6919.34555,-0.07083
6921.27402,-0.10920
6923.20249,-0.03956
6925.13096,0.00907
6927.05942,-0.01583
6928.98789,-0.05851
6930.91636,-0.03694
6932.84483,0.07013
6934.77330,0.14974
6936.70177,0.15246
6938.63024,0.09426
6940.55870,-0.01391
6942.48717,-0.08126
6944.41564,-0.06799
6946.34411,-0.01935
6948.27258,0.02591
6950.20105,0.04360
6952.12952,0.04883
6954.05799,0.07421
6955.98645,0.12637
6957.91492,0.17723
6959.84339,0.18923
6961.77186,0.15433
6963.70033,0.10049
6965.62880,0.03623
6967.55727,-0.03817
6969.48573,-0.13513
6971.41420,-0.21555
6973.34267,-0.14937
6975.27114,0.01212
6977.19961,0.07620
6979.12808,0.05146
6981.05655,-0.03547
6982.98501,-0.13220
6984.91348,-0.11010
6986.84195,-0.00933
6988.77042,0.07086
6990.69889,0.10955
6992.62736,0.08882
6994.55583,0.02668
6996.48430,-0.05162
6998.41276,-0.09165
7000.34123,-0.00609
7002.26970,0.14495
7004.19817,0.21958
7006.12664,0.16515
7008.05511,0.01461
7009.98358,-0.11232
7011.91204,-0.13357
7013.84051,-0.08927
7015.76898,-0.10433
7017.69745,-0.14762
7019.62592,-0.09655
7021.55439,-0.00601
7023.48286,0.01249
7025.41133,0.02169
7027.33979,0.02695
7029.26826,-0.01110
7031.19673,0.03124
7033.12520,0.12439
7035.05367,0.18207
7036.98214,0.18693
7038.91061,0.18203
7040.83907,0.23337
7042.76754,0.25434
7044.69601,0.16787
7046.62448,0.07991
7048.55295,0.03643
7050.48142,0.05209
7052.40989,0.10244
7054.33836,0.15826
7056.26682,0.24245
7058.19529,0.27698
7060.12376,0.21576
7062.05223,0.15807
7063.98070,0.09943
7065.90917,0.02062
7067.83764,-0.02587
7069.76610,-0.00591
7071.69457,0.02739
7073.62304,-0.00528
7075.55151,-0.03861
7077.47998,0.02035
7079.40845,0.09907
7081.33692,0.03778
7083.26539,-0.01844
7085.19385,0.03824
7087.12232,0.05528
7089.05079,0.02532
7090.97926,0.04894
7092.90773,0.06457
7094.83620,-0.00217
7096.76467,-0.06830
7098.69313,-0.04826
7100.62160,0.01242
7102.55007,0.07409
7104.47854,0.16391
7106.40701,0.22146
7108.33548,0.17573
7110.26395,0.11337
7112.19242,0.10056
7114.12088,0.13015
7116.04935,0.10251
7117.97782,-0.00467
7119.90629,0.04544
7121.83476,0.15732
7123.76323,0.12458
7125.69170,-0.00333
7127.62016,-0.13010
7129.54863,-0.10577
7131.47710,0.09271
7133.40557,0.23476
7135.33404,0.17907
7137.26251,0.06339
7139.19098,0.03937
7141.11944,0.06266
7143.04791,0.01879
7144.97638,-0.02026
7146.90485,0.09701
7148.83332,0.18075
7150.76179,0.08239
7152.69026,0.00890
7154.61873,0.06145
7156.54719,0.09758
7158.47566,0.15700
7160.40413,0.28837
7162.33260,0.36393
7164.26107,0.29753
7166.18954,0.17263
7168.11801,0.09204
7170.04647,0.03702
7171.97494,-0.10385
7173.90341,-0.31851
7175.83188,-0.34978
7177.76035,-0.09633
7179.68882,0.14295
7181.61729,0.20843
7183.54576,0.09823
7185.47422,-0.01242
7187.40269,0.01550
7189.33116,0.03298
7191.25963,-0.00890
7193.18810,-0.03170
7195.11657,-0.04402
7197.04504,-0.02663
7198.97350,0.02879
7200.90197,0.10806
7202.83044,0.16399
7204.75891,0.06855
7206.68738,-0.03746
7208.61585,0.04772
7210.54432,0.18798
7212.47279,0.23276
7214.40125,0.18510
7216.32972,0.17462
7218.25819,0.25696
7220.18666,0.33102
7222.11513,0.37266
7224.04360,0.36705
7225.97207,0.27466
7227.90053,0.17420
7229.82900,0.09824
7231.75747,0.01620
7233.68594,0.00221
7235.61441,0.07075
7237.54288,0.16073
7239.47135,0.23685
7241.39982,0.23661
7243.32828,0.12473
7245.25675,0.07833
7247.18522,0.14662
7249.11369,0.19115
7251.04216,0.09071
7252.97063,-0.07570
7254.89910,-0.04243
7256.82756,0.04151
7258.75603,0.10846
7260.68450,0.25450
7262.61297,0.35989
7264.54144,0.30977
7266.46991,0.19928
7268.39838,0.09206
7270.32685,-0.02421
7272.25531,-0.08237
7274.18378,-0.05015
7276.11225,-0.08284
7278.04072,-0.17399
7279.96919,-0.19494
7281.89766,-0.10564
7283.82613,-0.00361
7285.75459,0.03944
7287.68306,0.04740
7289.61153,0.11090
7291.54000,0.20159
7293.46847,0.17459
7295.39694,0.05305
7297.32541,0.01980
7299.25387,0.09827
7301.18234,0.13700
7303.11081,0.13297
7305.03928,0.10070
7306.96775,-0.08260
7308.89622,-0.25693
7310.82469,-0.15259
7312.75316,0.03806
7314.68162,0.13291
7316.61009,0.14139
7318.53856,0.15752
7320.46703,0.19869
7322.39550,0.24634
7324.32397,0.19382
7326.25244,0.01076
7328.18090,-0.14244
7330.10937,-0.18929
7332.03784,-0.17247
7333.96631,-0.08411
7335.89478,0.02180
7337.82325,0.12313
7339.75172,0.28891
7341.68019,0.38113
7343.60865,0.35055
7345.53712,0.32346
7347.46559,0.22705
7349.39406,0.04975
7351.32253,-0.11048
7353.25100,-0.18980
7355.17947,-0.13219
7357.10793,-0.01862
7359.03640,-0.03603
7360.96487,-0.03888
7362.89334,0.14566
7364.82181,0.34879
7366.75028,0.43628
7368.67875,0.36252
7370.60722,0.24273
7372.53568,0.22025
7374.46415,0.17461
7376.39262,0.03225
7378.32109,0.05496
7380.24956,0.15903
7382.17803,0.09220
7384.10650,-0.12477
7386.03496,-0.27982
7387.96343,-0.26449
7389.89190,-0.13911
7391.82037,0.04642
7393.74884,0.30439
7395.67731,0.54088
7397.60578,0.60243
7399.53425,0.50288
7401.46271,0.38310
7403.39118,0.25248
7405.31965,0.14542
7407.24812,0.13450
7409.17659,0.03038
7411.10506,-0.15675
7413.03353,-0.18800
7414.96199,-0.07981
7416.89046,-0.01143
7418.81893,-0.01358
7420.74740,0.01863
7422.67587,0.00499
7424.60434,-0.07392
7426.53281,-0.16499
7428.46128,-0.25425
7430.38974,-0.23136
7432.31821,-0.05275
7434.24668,0.11263
7436.17515,0.20592
7438.10362,0.23394
7440.03209,0.19702
7441.96056,0.20820
7443.88902,0.32284
7445.81749,0.37384
7447.74596,0.19882
7449.67443,-0.16607
7451.60290,-0.38799
7453.53137,-0.25049
7455.45984,-0.04038
7457.38831,0.07927
7459.31677,0.11042
7461.24524,0.07751
7463.17371,0.11287
7465.10218,0.20035
7467.03065,0.21104
7468.95912,0.14639
7470.88759,0.08814
7472.81605,0.03124
7474.74452,-0.05891
7476.67299,-0.02756
7478.60146,0.22943
7480.52993,0.44360
7482.45840,0.39425
7484.38687,0.26588
7486.31533,0.18409
7488.24380,0.14857
7490.17227,0.19782
7492.10074,0.22790
7494.02921,0.18913
7495.95768,0.15748
7497.88615,0.02977
