399.19301,1.46929
401.12148,0.42285
403.04995,0.09289
404.97842,0.21652
406.90689,0.26517
408.83536,0.17475
410.76382,0.12464
412.69229,0.18595
414.62076,0.25278
416.54923,0.22500
418.47770,0.06417
420.40617,-0.08533
422.33464,-0.12315
424.26311,-0.10094
426.19157,-0.03913
428.12004,-0.01090
430.04851,0.04262
431.97698,0.20619
433.90545,0.26809
435.83392,0.18271
437.76239,0.13896
439.69085,0.13698
441.61932,0.09106
443.54779,0.06246
445.47626,0.08934
447.40473,0.10206
449.33320,0.06983
451.26167,0.01931
453.19013,0.00707
455.11860,0.04811
457.04707,0.08704
458.97554,0.07802
460.90401,0.03930
462.83248,-0.01111
464.76095,-0.02966
466.68942,0.01768
468.61788,0.07402
470.54635,0.09439
472.47482,0.08004
474.40329,0.03191
476.33176,0.02130
478.26023,0.04179
480.18870,0.05795
482.11716,0.10022
484.04563,0.17025
485.97410,0.20595
487.90257,0.18020
489.83104,0.12808
491.75951,0.10467
493.68798,0.11443
495.61645,0.12661
497.54491,0.15782
499.47338,0.22652
501.40185,0.24862
503.33032,0.17128
505.25879,0.10505
507.18726,0.11000
509.11573,0.13246
511.04419,0.12484
512.97266,0.08213
514.90113,0.02453
516.82960,-0.01752
518.75807,-0.00640
520.68654,0.04506
522.61501,0.07502
524.54348,0.07571
526.47194,0.07109
528.40041,0.06722
530.32888,0.06903
532.25735,0.06110
534.18582,0.05440
536.11429,0.07835
538.04276,0.11709
539.97122,0.12547
541.89969,0.07711
543.82816,0.01702
545.75663,0.00164
547.68510,0.01891
549.61357,0.06172
551.54204,0.14080
553.47051,0.19275
555.39897,0.16439
557.32744,0.11321
559.25591,0.07502
561.18438,0.04842
563.11285,0.06659
565.04132,0.09896
566.96979,0.09750
568.89825,0.09737
570.82672,0.11999
572.75519,0.13971
574.68366,0.13210
576.61213,0.08891
578.54060,0.04692
580.46907,0.04509
582.39754,0.07075
584.32600,0.08096
586.25447,0.07703
588.18294,0.09746
590.11141,0.13324
592.03988,0.15136
593.96835,0.15134
595.89682,0.14506
597.82528,0.14981
599.75375,0.16485
601.68222,0.15455
603.61069,0.11407
605.53916,0.07733
607.46763,0.05814
609.39610,0.05872
611.32456,0.07884
613.25303,0.10616
615.18150,0.11715
617.10997,0.10692
619.03844,0.10558
620.96691,0.12376
622.89538,0.13115
624.82385,0.10575
626.75231,0.07631
628.68078,0.07362
630.60925,0.07949
632.53772,0.09015
634.46619,0.11302
636.39466,0.12608
638.32313,0.11947
640.25159,0.10206
642.18006,0.09206
644.10853,0.09718
646.03700,0.10440
647.96547,0.11449
649.89394,0.13150
651.82241,0.14393
653.75088,0.14521
655.67934,0.12759
657.60781,0.10104
659.53628,0.08582
661.46475,0.08089
663.39322,0.08751
665.32169,0.10458
667.25016,0.11933
669.17862,0.11515
671.10709,0.10810
673.03556,0.11177
674.96403,0.10827
676.89250,0.09412
678.82097,0.08795
680.74944,0.08952
682.67791,0.09575
684.60637,0.10905
686.53484,0.11876
688.46331,0.12390
690.39178,0.13310
692.32025,0.13922
694.24872,0.13121
696.17719,0.11828
698.10565,0.11175
700.03412,0.10632
701.96259,0.10368
703.89106,0.10914
705.81953,0.11510
707.74800,0.12088
709.67647,0.14119
711.60494,0.16577
713.53340,0.16053
715.46187,0.13832
717.39034,0.13218
719.31881,0.13374
721.24728,0.13547
723.17575,0.14344
725.10422,0.14852
727.03268,0.14269
728.96115,0.13104
730.88962,0.12265
732.81809,0.12572
734.74656,0.13579
736.67503,0.13862
738.60350,0.13244
740.53197,0.12732
742.46043,0.12609
744.38890,0.11929
746.31737,0.11269
748.24584,0.11949
750.17431,0.12466
752.10278,0.11688
754.03125,0.11618
755.95971,0.13083
757.88818,0.14082
759.81665,0.13644
761.74512,0.12422
763.67359,0.11427
765.60206,0.11954
767.53053,0.13613
769.45900,0.14529
771.38746,0.14143
773.31593,0.13462
775.24440,0.13257
777.17287,0.13093
779.10134,0.12594
781.02981,0.12457
782.95828,0.12547
784.88674,0.11887
786.81521,0.10986
788.74368,0.11230
790.67215,0.12428
792.60062,0.12838
794.52909,0.11998
796.45756,0.10980
798.38602,0.10233
800.31449,0.10135
802.24296,0.10599
804.17143,0.11082
806.09990,0.11501
808.02837,0.11134
809.95684,0.10178
811.88531,0.10105
813.81377,0.11023
815.74224,0.12260
817.67071,0.12860
819.59918,0.12111
821.52765,0.11255
823.45612,0.11438
825.38459,0.12305
827.31305,0.13268
829.24152,0.13772
831.16999,0.13622
833.09846,0.13401
835.02693,0.13540
836.95540,0.13764
838.88387,0.14150
840.81234,0.14790
842.74080,0.14962
844.66927,0.14034
846.59774,0.12480
848.52621,0.11392
850.45468,0.11644
852.38315,0.13105
854.31162,0.14461
856.24008,0.14869
858.16855,0.13923
860.09702,0.11679
862.02549,0.10328
863.95396,0.11440
865.88243,0.13548
867.81090,0.15003
869.73937,0.15466
871.66783,0.15359
873.59630,0.15418
875.52477,0.15620
877.45324,0.15532
879.38171,0.14982
881.31018,0.14230
883.23865,0.13751
885.16711,0.13191
887.09558,0.12429
889.02405,0.12194
890.95252,0.12511
892.88099,0.12864
894.80946,0.13265
896.73793,0.13899
898.66640,0.14319
900.59486,0.14215
902.52333,0.13802
904.45180,0.13177
906.38027,0.12932
908.30874,0.13673
910.23721,0.14438
912.16568,0.14252
914.09414,0.13783
916.02261,0.13361
917.95108,0.12743
919.87955,0.12508
921.80802,0.12965
923.73649,0.13733
925.66496,0.14228
927.59343,0.13850
929.52189,0.13028
931.45036,0.12819
933.37883,0.13696
935.30730,0.15245
937.23577,0.16151
939.16424,0.15890
941.09271,0.15286
943.02117,0.14595
944.94964,0.13666
946.87811,0.12903
948.80658,0.12596
950.73505,0.12692
952.66352,0.13187
954.59199,0.13523
956.52045,0.13050
958.44892,0.12740
960.37739,0.13410
962.30586,0.13792
964.23433,0.12889
966.16280,0.11687
968.09127,0.11360
970.01974,0.11859
971.94820,0.12436
973.87667,0.12631
975.80514,0.12955
977.73361,0.13884
979.66208,0.14544
981.59055,0.14179
983.51902,0.13838
985.44748,0.14099
987.37595,0.13862
989.30442,0.13128
991.23289,0.13072
993.16136,0.13625
995.08983,0.13881
997.01830,0.13710
998.94677,0.13652
1000.87523,0.14159
1002.80370,0.15092
1004.73217,0.15460
1006.66064,0.14936
1008.58911,0.14631
1010.51758,0.14889
1012.44605,0.14944
1014.37451,0.14757
1016.30298,0.14651
1018.23145,0.14579
1020.15992,0.14649
1022.08839,0.14831
1024.01686,0.14764
1025.94533,0.14319
1027.87380,0.13748
1029.80226,0.13385
1031.73073,0.13225
1033.65920,0.13703
1035.58767,0.15197
1037.51614,0.16343
1039.44461,0.16084
1041.37308,0.15223
1043.30154,0.14689
1045.23001,0.14715
1047.15848,0.14754
1049.08695,0.14209
1051.01542,0.13674
1052.94389,0.14032
1054.87236,0.15121
1056.80083,0.16104
1058.72929,0.16169
1060.65776,0.15492
1062.58623,0.14910
1064.51470,0.14809
1066.44317,0.15083
1068.37164,0.15287
1070.30011,0.15544
1072.22857,0.15966
1074.15704,0.16115
1076.08551,0.16026
1078.01398,0.16224
1079.94245,0.16885
1081.87092,0.17036
1083.79939,0.16224
1085.72786,0.15145
1087.65632,0.14069
1089.58479,0.13349
1091.51326,0.13402
1093.44173,0.14051
1095.37020,0.15037
1097.29867,0.16116
1099.22714,0.17113
1101.15560,0.17805
1103.08407,0.17653
1105.01254,0.16769
1106.94101,0.15959
1108.86948,0.15639
1110.79795,0.15560
1112.72642,0.15215
1114.65489,0.14797
1116.58335,0.14673
1118.51182,0.14486
1120.44029,0.14357
1122.36876,0.14889
1124.29723,0.15586
1126.22570,0.15346
1128.15417,0.14475
1130.08263,0.14261
1132.01110,0.14958
1133.93957,0.15713
1135.86804,0.15488
1137.79651,0.14556
1139.72498,0.14161
1141.65345,0.14331
1143.58191,0.14737
1145.51038,0.15293
1147.43885,0.15417
1149.36732,0.15167
1151.29579,0.15184
1153.22426,0.15588
1155.15273,0.16015
1157.08120,0.16162
1159.00966,0.16008
1160.93813,0.15510
1162.86660,0.14930
1164.79507,0.14700
1166.72354,0.14800
1168.65201,0.15224
1170.58048,0.15908
1172.50894,0.16277
1174.43741,0.16141
1176.36588,0.15804
1178.29435,0.15543
1180.22282,0.15754
1182.15129,0.16130
1184.07976,0.15926
1186.00823,0.15288
1187.93669,0.14945
1189.86516,0.15302
1191.79363,0.15939
1193.72210,0.16206
1195.65057,0.16085
1197.57904,0.15891
1199.50751,0.15946
1201.43597,0.16086
1203.36444,0.15868
1205.29291,0.15569
1207.22138,0.15328
1209.14985,0.14915
1211.07832,0.14759
1213.00679,0.15304
1214.93526,0.16058
1216.86372,0.16041
1218.79219,0.15566
1220.72066,0.15621
1222.64913,0.15942
1224.57760,0.15987
1226.50607,0.15774
1228.43454,0.15481
1230.36300,0.15299
1232.29147,0.15342
1234.21994,0.15607
1236.14841,0.15966
1238.07688,0.16196
1240.00535,0.16095
1241.93382,0.15742
1243.86229,0.15572
1245.79075,0.15968
1247.71922,0.16516
1249.64769,0.16464
1251.57616,0.16009
1253.50463,0.15895
1255.43310,0.16240
1257.36157,0.16608
1259.29003,0.16786
1261.21850,0.16641
1263.14697,0.15965
1265.07544,0.15178
1267.00391,0.14941
1268.93238,0.15238
1270.86085,0.15708
1272.78932,0.15991
1274.71778,0.15892
1276.64625,0.15749
1278.57472,0.15760
1280.50319,0.15735
1282.43166,0.15764
1284.36013,0.15878
1286.28860,0.16044
1288.21706,0.16365
1290.14553,0.16682
1292.07400,0.16904
1294.00247,0.17050
1295.93094,0.16876
1297.85941,0.16310
1299.78788,0.15867
1301.71634,0.15699
1303.64481,0.15143
1305.57328,0.14586
1307.50175,0.15153
1309.43022,0.16349
1311.35869,0.17135
1313.28716,0.17433
1315.21563,0.17193
1317.14409,0.16575
1319.07256,0.16387
1321.00103,0.16796
1322.92950,0.17144
1324.85797,0.17004
1326.78644,0.16487
1328.71491,0.16141
1330.64337,0.16087
1332.57184,0.15960
1334.50031,0.15912
1336.42878,0.16205
1338.35725,0.16487
1340.28572,0.16360
1342.21419,0.16170
1344.14266,0.16115
1346.07112,0.16005
1347.99959,0.16066
1349.92806,0.16331
1351.85653,0.16438
1353.78500,0.16251
1355.71347,0.15815
1357.64194,0.15588
1359.57040,0.16031
1361.49887,0.16869
1363.42734,0.17166
1365.35581,0.16764
1367.28428,0.16505
1369.21275,0.16611
1371.14122,0.16749
1373.06969,0.16813
1374.99815,0.16866
1376.92662,0.16910
1378.85509,0.17014
1380.78356,0.17088
1382.71203,0.17063
1384.64050,0.17216
1386.56897,0.17460
1388.49743,0.17431
1390.42590,0.17361
1392.35437,0.17336
1394.28284,0.17075
1396.21131,0.16949
1398.13978,0.17504
1400.06825,0.17979
1401.99672,0.17828
1403.92518,0.17425
1405.85365,0.16997
1407.78212,0.16819
1409.71059,0.16965
1411.63906,0.17091
1413.56753,0.17124
1415.49600,0.17583
1417.42446,0.18611
1419.35293,0.19026
1421.28140,0.18527
1423.20987,0.18025
1425.13834,0.17457
1427.06681,0.17217
1428.99528,0.17344
1430.92375,0.17250
1432.85221,0.17120
1434.78068,0.17400
1436.70915,0.18001
1438.63762,0.18087
1440.56609,0.17625
1442.49456,0.17161
1444.42303,0.16918
1446.35149,0.17090
1448.27996,0.17689
1450.20843,0.18190
1452.13690,0.18282
1454.06537,0.18401
1455.99384,0.19396
1457.92231,0.20397
1459.85077,0.19604
1461.77924,0.18909
1463.70771,0.18892
1465.63618,0.18727
1467.56465,0.18188
1469.49312,0.18182
1471.42159,0.18833
1473.35006,0.19238
1475.27852,0.19023
1477.20699,0.18800
1479.13546,0.18449
1481.06393,0.17944
1482.99240,0.17713
1484.92087,0.18106
1486.84934,0.18788
1488.77780,0.18973
1490.70627,0.18620
1492.63474,0.18478
1494.56321,0.18636
1496.49168,0.18827
1498.42015,0.18698
1500.34862,0.18385
1502.27709,0.18192
1504.20555,0.18339
1506.13402,0.19196
1508.06249,0.19877
1509.99096,0.19225
1511.91943,0.18525
1513.84790,0.18420
1515.77637,0.18822
1517.70483,0.19057
1519.63330,0.19346
1521.56177,0.20252
1523.49024,0.20532
1525.41871,0.20012
1527.34718,0.19240
1529.27565,0.18733
1531.20412,0.19062
1533.13258,0.19578
1535.06105,0.19368
1536.98952,0.19567
1538.91799,0.20856
1540.84646,0.21618
1542.77493,0.20671
1544.70340,0.19732
1546.63186,0.19045
1548.56033,0.18684
1550.48880,0.18631
1552.41727,0.18708
1554.34574,0.18960
1556.27421,0.19975
1558.20268,0.21477
1560.13115,0.20402
1562.05961,0.18882
1563.98808,0.18263
1565.91655,0.18208
1567.84502,0.18767
1569.77349,0.19302
1571.70196,0.19083
1573.63043,0.18873
1575.55889,0.19026
1577.48736,0.18847
1579.41583,0.18271
1581.34430,0.17881
1583.27277,0.17808
1585.20124,0.17857
1587.12971,0.17815
1589.05818,0.17657
1590.98664,0.17508
1592.91511,0.17576
1594.84358,0.17701
1596.77205,0.17541
1598.70052,0.17371
1600.62899,0.17424
1602.55746,0.17482
1604.48592,0.17593
1606.41439,0.17756
1608.34286,0.17699
1610.27133,0.17581
1612.19980,0.17811
1614.12827,0.18419
1616.05674,0.19139
1617.98521,0.19212
1619.91367,0.18791
1621.84214,0.18667
1623.77061,0.18935
1625.69908,0.19116
1627.62755,0.18909
1629.55602,0.18457
1631.48449,0.18206
1633.41295,0.18421
1635.34142,0.19015
1637.26989,0.19093
1639.19836,0.18929
1641.12683,0.19187
1643.05530,0.19725
1644.98377,0.20716
1646.91223,0.22169
1648.84070,0.22252
1650.76917,0.21594
1652.69764,0.21380
1654.62611,0.20629
1656.55458,0.19758
1658.48305,0.19519
1660.41152,0.19728
1662.33998,0.19940
1664.26845,0.19719
1666.19692,0.19759
1668.12539,0.20445
1670.05386,0.20672
1671.98233,0.20047
1673.91080,0.19677
1675.83926,0.19420
1677.76773,0.19277
1679.69620,0.19703
1681.62467,0.20595
1683.55314,0.21307
1685.48161,0.20752
1687.41008,0.19861
1689.33855,0.19366
1691.26701,0.19297
1693.19548,0.19825
1695.12395,0.20738
1697.05242,0.21203
1698.98089,0.20977
1700.90936,0.20134
1702.83783,0.19551
1704.76629,0.19668
1706.69476,0.19494
1708.62323,0.18896
1710.55170,0.18608
1712.48017,0.18696
1714.40864,0.19112
1716.33711,0.19485
1718.26558,0.19159
1720.19404,0.18793
1722.12251,0.18564
1724.05098,0.18273
1725.97945,0.18237
1727.90792,0.18621
1729.83639,0.19150
1731.76486,0.19776
1733.69332,0.20201
1735.62179,0.19627
1737.55026,0.19043
1739.47873,0.19033
1741.40720,0.19310
1743.33567,0.19409
1745.26414,0.19218
1747.19261,0.18958
1749.12107,0.18907
1751.04954,0.18883
1752.97801,0.18745
1754.90648,0.18722
1756.83495,0.18660
1758.76342,0.18482
1760.69189,0.18498
1762.62035,0.18674
1764.54882,0.18753
1766.47729,0.18886
1768.40576,0.19211
1770.33423,0.19671
1772.26270,0.19991
1774.19117,0.19462
1776.11964,0.18513
1778.04810,0.18047
1779.97657,0.18225
1781.90504,0.18598
1783.83351,0.18903
1785.76198,0.18970
1787.69045,0.18802
1789.61892,0.18847
1791.54738,0.19146
1793.47585,0.19215
1795.40432,0.19127
1797.33279,0.19117
1799.26126,0.19054
1801.18973,0.18743
1803.11820,0.18262
1805.04666,0.18015
1806.97513,0.18210
1808.90360,0.18723
1810.83207,0.19148
1812.76054,0.19114
1814.68901,0.18791
1816.61748,0.18420
1818.54595,0.18212
1820.47441,0.18307
1822.40288,0.18492
1824.33135,0.18563
1826.25982,0.18451
1828.18829,0.18332
1830.11676,0.18480
1832.04523,0.18684
1833.97369,0.18583
1835.90216,0.18319
1837.83063,0.18125
1839.75910,0.18037
1841.68757,0.18219
1843.61604,0.18789
1845.54451,0.19209
1847.47298,0.19156
1849.40144,0.18917
1851.32991,0.18679
1853.25838,0.18530
1855.18685,0.18348
1857.11532,0.18164
1859.04379,0.18245
1860.97226,0.18491
1862.90072,0.18618
1864.82919,0.18762
1866.75766,0.19134
1868.68613,0.19327
1870.61460,0.19029
1872.54307,0.18827
1874.47154,0.18833
1876.40001,0.18651
1878.32847,0.18200
1880.25694,0.18049
1882.18541,0.18461
1884.11388,0.18862
1886.04235,0.19054
1887.97082,0.19220
1889.89929,0.19005
1891.82775,0.18517
1893.75622,0.18374
1895.68469,0.18377
1897.61316,0.18199
1899.54163,0.18135
1901.47010,0.18344
1903.39857,0.18517
1905.32704,0.18470
1907.25550,0.18433
1909.18397,0.18503
1911.11244,0.18438
1913.04091,0.18242
1914.96938,0.18155
1916.89785,0.18293
1918.82632,0.18601
1920.75478,0.18854
1922.68325,0.18828
1924.61172,0.18514
1926.54019,0.18291
1928.46866,0.18409
1930.39713,0.18620
1932.32560,0.18521
1934.25407,0.18346
1936.18253,0.18551
1938.11100,0.18711
1940.03947,0.18477
1941.96794,0.18262
1943.89641,0.18341
1945.82488,0.18477
1947.75335,0.18352
1949.68181,0.18088
1951.61028,0.17978
1953.53875,0.18068
1955.46722,0.18315
1957.39569,0.18594
1959.32416,0.18743
1961.25263,0.18779
1963.18110,0.18908
1965.10956,0.19028
1967.03803,0.18842
1968.96650,0.18503
1970.89497,0.18300
1972.82344,0.18266
1974.75191,0.18322
1976.68038,0.18391
1978.60884,0.18496
1980.53731,0.18559
1982.46578,0.18433
1984.39425,0.18366
1986.32272,0.18461
1988.25119,0.18549
1990.17966,0.18752
1992.10812,0.18844
1994.03659,0.18519
1995.96506,0.18199
1997.89353,0.18301
1999.82200,0.18561
2001.75047,0.18493
2003.67894,0.18159
2005.60741,0.17898
2007.53587,0.17929
2009.46434,0.18193
2011.39281,0.18530
2013.32128,0.18886
2015.24975,0.19067
2017.17822,0.18856
2019.10669,0.18512
2021.03515,0.18533
2022.96362,0.18728
2024.89209,0.18671
2026.82056,0.18701
2028.74903,0.19057
2030.67750,0.19161
2032.60597,0.18820
2034.53444,0.18647
2036.46290,0.18716
2038.39137,0.18618
2040.31984,0.18558
2042.24831,0.18757
2044.17678,0.19009
2046.10525,0.19193
2048.03372,0.19227
2049.96218,0.19068
2051.89065,0.18820
2053.81912,0.18633
2055.74759,0.18629
2057.67606,0.18724
2059.60453,0.18758
2061.53300,0.18830
2063.46147,0.18930
2065.38993,0.18853
2067.31840,0.18708
2069.24687,0.18664
2071.17534,0.18684
2073.10381,0.18807
2075.03228,0.18953
2076.96075,0.18853
2078.88921,0.18560
2080.81768,0.18427
2082.74615,0.18396
2084.67462,0.18270
2086.60309,0.18294
2088.53156,0.18473
2090.46003,0.18575
2092.38850,0.18707
2094.31696,0.18839
2096.24543,0.18905
2098.17390,0.19012
2100.10237,0.18930
2102.03084,0.18682
2103.95931,0.18631
2105.88778,0.18682
2107.81624,0.18699
2109.74471,0.18789
2111.67318,0.18849
2113.60165,0.18764
2115.53012,0.18728
2117.45859,0.18747
2119.38706,0.18650
2121.31553,0.18525
2123.24399,0.18528
2125.17246,0.18711
2127.10093,0.18788
2129.02940,0.18677
2130.95787,0.18754
2132.88634,0.18867
2134.81481,0.18744
2136.74327,0.18621
2138.67174,0.18683
2140.60021,0.18840
2142.52868,0.18881
2144.45715,0.18735
2146.38562,0.18559
2148.31409,0.18561
2150.24255,0.18713
2152.17102,0.18827
2154.09949,0.18869
2156.02796,0.18768
2157.95643,0.18573
2159.88490,0.18568
2161.81337,0.18760
2163.74184,0.18853
2165.67030,0.18718
2167.59877,0.18530
2169.52724,0.18556
2171.45571,0.18707
2173.38418,0.18707
2175.31265,0.18832
2177.24112,0.19171
2179.16958,0.19245
2181.09805,0.19079
2183.02652,0.18943
2184.95499,0.18837
2186.88346,0.18793
2188.81193,0.18846
2190.74040,0.18891
2192.66887,0.18838
2194.59733,0.18781
2196.52580,0.18809
2198.45427,0.18854
2200.38274,0.18774
2202.31121,0.18541
2204.23968,0.18362
2206.16815,0.18429
2208.09661,0.18609
2210.02508,0.18644
2211.95355,0.18548
2213.88202,0.18526
2215.81049,0.18515
2217.73896,0.18363
2219.66743,0.18318
2221.59590,0.18474
2223.52436,0.18531
2225.45283,0.18479
2227.38130,0.18485
2229.30977,0.18619
2231.23824,0.18861
2233.16671,0.18920
2235.09518,0.18762
2237.02364,0.18847
2238.95211,0.19195
2240.88058,0.19379
2242.80905,0.19333
2244.73752,0.19138
2246.66599,0.18864
2248.59446,0.18719
2250.52293,0.18693
2252.45139,0.18550
2254.37986,0.18362
2256.30833,0.18399
2258.23680,0.18602
2260.16527,0.18788
2262.09374,0.18885
2264.02221,0.18861
2265.95067,0.18755
2267.87914,0.18677
2269.80761,0.18789
2271.73608,0.19038
2273.66455,0.19221
2275.59302,0.19343
2277.52149,0.19254
2279.44996,0.18798
2281.37842,0.18327
2283.30689,0.18240
2285.23536,0.18475
2287.16383,0.18652
2289.09230,0.18569
2291.02077,0.18357
2292.94924,0.18242
2294.87770,0.18304
2296.80617,0.18398
2298.73464,0.18247
2300.66311,0.17669
2302.59158,0.17017
2304.52005,0.16784
2306.44852,0.16918
2308.37699,0.17198
2310.30545,0.17331
2312.23392,0.17138
2314.16239,0.17092
2316.09086,0.17329
2318.01933,0.17391
2319.94780,0.17012
2321.87627,0.16169
2323.80473,0.15612
2325.73320,0.15686
2327.66167,0.15626
2329.59014,0.15306
2331.51861,0.14985
2333.44708,0.14843
2335.37555,0.15095
2337.30401,0.15485
2339.23248,0.15714
2341.16095,0.15888
2343.08942,0.15562
2345.01789,0.14707
2346.94636,0.14459
2348.87483,0.14733
2350.80330,0.14877
2352.73176,0.14385
2354.66023,0.13607
2356.58870,0.13725
2358.51717,0.13729
2360.44564,0.13545
2362.37411,0.15058
2364.30258,0.16302
2366.23104,0.15674
2368.15951,0.15467
2370.08798,0.16345
2372.01645,0.16916
2373.94492,0.17030
2375.87339,0.17342
2377.80186,0.17575
2379.73033,0.17451
2381.65879,0.17692
2383.58726,0.18415
2385.51573,0.18881
2387.44420,0.18951
2389.37267,0.18940
2391.30114,0.18928
2393.22961,0.18946
2395.15807,0.18954
2397.08654,0.18829
2399.01501,0.18610
2400.94348,0.18583
2402.87195,0.18890
2404.80042,0.19125
2406.72889,0.19094
2408.65736,0.19075
2410.58582,0.19021
2412.51429,0.18794
2414.44276,0.18594
2416.37123,0.18528
2418.29970,0.18535
2420.22817,0.18655
2422.15664,0.18821
2424.08510,0.18866
2426.01357,0.18806
2427.94204,0.18830
2429.87051,0.19004
2431.79898,0.19126
2433.72745,0.19058
2435.65592,0.19009
2437.58439,0.19154
2439.51285,0.19239
2441.44132,0.19034
2443.36979,0.18797
2445.29826,0.18823
2447.22673,0.18902
2449.15520,0.18933
2451.08367,0.19080
2453.01213,0.19050
2454.94060,0.18729
2456.86907,0.18463
2458.79754,0.18501
2460.72601,0.18883
2462.65448,0.19230
2464.58295,0.19305
2466.51142,0.19226
2468.43988,0.19076
2470.36835,0.19043
2472.29682,0.19201
2474.22529,0.19307
2476.15376,0.19203
2478.08223,0.19081
2480.01070,0.19155
2481.93916,0.19257
2483.86763,0.19162
2485.79610,0.19035
2487.72457,0.18944
2489.65304,0.18736
2491.58151,0.18626
2493.50998,0.18845
2495.43844,0.19126
2497.36691,0.19150
2499.29538,0.18974
2501.22385,0.18849
2503.15232,0.18870
2505.08079,0.18977
2507.00926,0.19125
2508.93773,0.19154
2510.86619,0.19006
2512.79466,0.18934
2514.72313,0.18979
2516.65160,0.19034
2518.58007,0.19145
2520.50854,0.19397
2522.43701,0.19679
2524.36547,0.19676
2526.29394,0.19536
2528.22241,0.19619
2530.15088,0.19748
2532.07935,0.19612
2534.00782,0.19337
2535.93629,0.19185
2537.86476,0.19192
2539.79322,0.19295
2541.72169,0.19303
2543.65016,0.19152
2545.57863,0.19024
2547.50710,0.19003
2549.43557,0.18990
2551.36404,0.18898
2553.29250,0.18813
2555.22097,0.18738
2557.14944,0.18676
2559.07791,0.18756
2561.00638,0.18915
2562.93485,0.19020
2564.86332,0.19011
2566.79179,0.18985
2568.72025,0.19112
2570.64872,0.19232
2572.57719,0.19190
2574.50566,0.19124
2576.43413,0.18899
2578.36260,0.18604
2580.29107,0.18750
2582.21953,0.19145
2584.14800,0.19354
2586.07647,0.19468
2588.00494,0.19560
2589.93341,0.19434
2591.86188,0.19119
2593.79035,0.18977
2595.71882,0.19096
2597.64728,0.19255
2599.57575,0.19304
2601.50422,0.19220
2603.43269,0.19098
2605.36116,0.19045
2607.28963,0.18985
2609.21810,0.18854
2611.14656,0.18795
2613.07503,0.18949
2615.00350,0.19341
2616.93197,0.19716
2618.86044,0.19763
2620.78891,0.19540
2622.71738,0.19294
2624.64585,0.19221
2626.57431,0.19194
2628.50278,0.19069
2630.43125,0.19067
2632.35972,0.19127
2634.28819,0.18972
2636.21666,0.18762
2638.14513,0.18795
2640.07359,0.19116
2642.00206,0.19426
2643.93053,0.19473
2645.85900,0.19535
2647.78747,0.19823
2649.71594,0.20050
2651.64441,0.19891
2653.57288,0.19504
2655.50134,0.19427
2657.42981,0.19703
2659.35828,0.19939
2661.28675,0.19958
2663.21522,0.19840
2665.14369,0.19838
2667.07216,0.20003
2669.00062,0.20047
2670.92909,0.19776
2672.85756,0.19425
2674.78603,0.19320
2676.71450,0.19405
2678.64297,0.19549
2680.57144,0.19773
2682.49990,0.19894
2684.42837,0.19730
2686.35684,0.19538
2688.28531,0.19544
2690.21378,0.19736
2692.14225,0.20092
2694.07072,0.20427
2695.99919,0.20555
2697.92765,0.20544
2699.85612,0.20496
2701.78459,0.20349
2703.71306,0.20134
2705.64153,0.20099
2707.57000,0.20241
2709.49847,0.20211
2711.42693,0.20017
2713.35540,0.19852
2715.28387,0.19558
2717.21234,0.19351
2719.14081,0.19579
2721.06928,0.19890
2722.99775,0.20004
2724.92622,0.20196
2726.85468,0.20572
2728.78315,0.20666
2730.71162,0.20246
2732.64009,0.19868
2734.56856,0.19882
2736.49703,0.19992
2738.42550,0.20021
2740.35396,0.19999
2742.28243,0.19962
2744.21090,0.20107
2746.13937,0.20353
2748.06784,0.20253
2749.99631,0.19997
2751.92478,0.20032
2753.85325,0.20148
2755.78171,0.20131
2757.71018,0.19946
2759.63865,0.19782
2761.56712,0.20097
2763.49559,0.20622
2765.42406,0.20734
2767.35253,0.20551
2769.28099,0.20420
2771.20946,0.20376
2773.13793,0.20285
2775.06640,0.20086
2776.99487,0.20077
2778.92334,0.20407
2780.85181,0.20609
2782.78028,0.20380
2784.70874,0.20121
2786.63721,0.20347
2788.56568,0.20886
2790.49415,0.21099
2792.42262,0.20890
2794.35109,0.20725
2796.27956,0.20665
2798.20802,0.20466
2800.13649,0.20268
2802.06496,0.20290
2803.99343,0.20565
2805.92190,0.20961
2807.85037,0.21186
2809.77884,0.21179
2811.70731,0.20971
2813.63577,0.20457
2815.56424,0.19956
2817.49271,0.19987
2819.42118,0.20390
2821.34965,0.20662
2823.27812,0.20647
2825.20659,0.20609
2827.13505,0.20834
2829.06352,0.21078
2830.99199,0.21065
2832.92046,0.20931
2834.84893,0.20665
2836.77740,0.20371
2838.70587,0.20476
2840.63433,0.20921
2842.56280,0.21202
2844.49127,0.21080
2846.41974,0.20710
2848.34821,0.20394
2850.27668,0.20380
2852.20515,0.20598
2854.13362,0.20839
2856.06208,0.21077
2857.99055,0.21128
2859.91902,0.20949
2861.84749,0.20790
2863.77596,0.20631
2865.70443,0.20488
2867.63290,0.20465
2869.56136,0.20507
2871.48983,0.20663
2873.41830,0.20751
2875.34677,0.20554
2877.27524,0.20441
2879.20371,0.20601
2881.13218,0.20825
2883.06065,0.21011
2884.98911,0.21038
2886.91758,0.20795
2888.84605,0.20410
2890.77452,0.20167
2892.70299,0.20175
2894.63146,0.20234
2896.55993,0.20228
2898.48839,0.20488
2900.41686,0.21057
2902.34533,0.21315
2904.27380,0.21006
2906.20227,0.20578
2908.13074,0.20470
2910.05921,0.20486
2911.98768,0.20332
2913.91614,0.20165
2915.84461,0.20070
2917.77308,0.20064
2919.70155,0.20356
2921.63002,0.20738
2923.55849,0.20560
2925.48696,0.19859
2927.41542,0.19445
2929.34389,0.19670
2931.27236,0.19971
2933.20083,0.19815
2935.12930,0.19502
2937.05777,0.19544
2938.98624,0.19792
2940.91471,0.19801
2942.84317,0.19897
2944.77164,0.20197
2946.70011,0.20053
2948.62858,0.19652
2950.55705,0.19776
2952.48552,0.20336
2954.41399,0.20526
2956.34245,0.20253
2958.27092,0.20321
2960.19939,0.20949
2962.12786,0.21317
2964.05633,0.21015
2965.98480,0.20699
2967.91327,0.20726
2969.84174,0.21037
2971.77020,0.21458
2973.69867,0.21480
2975.62714,0.20998
2977.55561,0.20460
2979.48408,0.20209
2981.41255,0.20331
2983.34102,0.20769
2985.26948,0.20991
2987.19795,0.20712
2989.12642,0.20656
2991.05489,0.20995
2992.98336,0.21075
2994.91183,0.20859
2996.84030,0.20680
2998.76877,0.20674
3000.69723,0.20805
3002.62570,0.20937
3004.55417,0.20980
3006.48264,0.20777
3008.41111,0.20526
3010.33958,0.20348
3012.26805,0.19720
3014.19651,0.18529
3016.12498,0.17454
3018.05345,0.17779
3019.98192,0.19642
3021.91039,0.21305
3023.83886,0.22033
3025.76733,0.22266
3027.69579,0.22079
3029.62426,0.21673
3031.55273,0.21312
3033.48120,0.21179
3035.40967,0.21450
3037.33814,0.21714
3039.26661,0.21776
3041.19508,0.21941
3043.12354,0.21909
3045.05201,0.21495
3046.98048,0.21249
3048.90895,0.21508
3050.83742,0.21939
3052.76589,0.22215
3054.69436,0.22212
3056.62282,0.21774
3058.55129,0.21373
3060.47976,0.21317
3062.40823,0.21183
3064.33670,0.20860
3066.26517,0.20553
3068.19364,0.20585
3070.12211,0.20980
3072.05057,0.21279
3073.97904,0.21119
3075.90751,0.20719
3077.83598,0.20667
3079.76445,0.21028
3081.69292,0.21497
3083.62139,0.21331
3085.54985,0.20582
3087.47832,0.20680
3089.40679,0.21383
3091.33526,0.21477
3093.26373,0.21008
3095.19220,0.20688
3097.12067,0.21043
3099.04914,0.21475
3100.97760,0.21344
3102.90607,0.20998
3104.83454,0.20883
3106.76301,0.20863
3108.69148,0.20679
3110.61995,0.20646
3112.54842,0.21106
3114.47688,0.21530
3116.40535,0.21269
3118.33382,0.20960
3120.26229,0.21036
3122.19076,0.21090
3124.11923,0.21247
3126.04770,0.21355
3127.97617,0.21238
3129.90463,0.21035
3131.83310,0.20699
3133.76157,0.20576
3135.69004,0.20818
3137.61851,0.21161
3139.54698,0.21522
3141.47545,0.21714
3143.40391,0.21739
3145.33238,0.22045
3147.26085,0.22654
3149.18932,0.22871
3151.11779,0.22456
3153.04626,0.22227
3154.97473,0.22646
3156.90320,0.22912
3158.83166,0.22421
3160.76013,0.21727
3162.68860,0.21491
3164.61707,0.21580
3166.54554,0.21536
3168.47401,0.21297
3170.40248,0.21230
3172.33094,0.21613
3174.25941,0.22172
3176.18788,0.22296
3178.11635,0.21960
3180.04482,0.21890
3181.97329,0.22409
3183.90176,0.22933
3185.83022,0.22830
3187.75869,0.22416
3189.68716,0.22369
3191.61563,0.22664
3193.54410,0.22946
3195.47257,0.22849
3197.40104,0.22160
3199.32951,0.21296
3201.25797,0.21130
3203.18644,0.21716
3205.11491,0.22077
3207.04338,0.21980
3208.97185,0.21989
3210.90032,0.22277
3212.82879,0.22512
3214.75725,0.22494
3216.68572,0.22425
3218.61419,0.22394
3220.54266,0.22474
3222.47113,0.22454
3224.39960,0.22007
3226.32807,0.21419
3228.25654,0.21062
3230.18500,0.21091
3232.11347,0.21459
3234.04194,0.22023
3235.97041,0.22426
3237.89888,0.22262
3239.82735,0.21924
3241.75582,0.21763
3243.68428,0.21382
3245.61275,0.20766
3247.54122,0.20529
3249.46969,0.20944
3251.39816,0.21614
3253.32663,0.21849
3255.25510,0.21563
3257.18357,0.21470
3259.11203,0.21642
3261.04050,0.21555
3262.96897,0.21127
3264.89744,0.20730
3266.82591,0.21074
3268.75438,0.21866
3270.68285,0.22021
3272.61131,0.21731
3274.53978,0.21573
3276.46825,0.21429
3278.39672,0.21248
3280.32519,0.21191
3282.25366,0.21321
3284.18213,0.21394
3286.11060,0.21105
3288.03906,0.20736
3289.96753,0.20709
3291.89600,0.20758
3293.82447,0.20857
3295.75294,0.21173
3297.68141,0.21273
3299.60988,0.21225
3301.53834,0.21267
3303.46681,0.21101
3305.39528,0.20812
3307.32375,0.20758
3309.25222,0.21004
3311.18069,0.21176
3313.10916,0.20939
3315.03763,0.20736
3316.96609,0.21008
3318.89456,0.21278
3320.82303,0.21288
3322.75150,0.21694
3324.67997,0.22495
3326.60844,0.22814
3328.53691,0.22415
3330.46537,0.21790
3332.39384,0.21548
3334.32231,0.21848
3336.25078,0.21844
3338.17925,0.21176
3340.10772,0.20928
3342.03619,0.21489
3343.96466,0.21950
3345.89312,0.21977
3347.82159,0.22002
3349.75006,0.22023
3351.67853,0.21918
3353.60700,0.21923
3355.53547,0.21962
3357.46394,0.21798
3359.39240,0.21754
3361.32087,0.22096
3363.24934,0.22145
3365.17781,0.21449
3367.10628,0.20983
3369.03475,0.21473
3370.96322,0.22114
3372.89168,0.22047
3374.82015,0.21633
3376.74862,0.21603
3378.67709,0.21871
3380.60556,0.22055
3382.53403,0.21970
3384.46250,0.21630
3386.39097,0.21710
3388.31943,0.22190
3390.24790,0.22147
3392.17637,0.21908
3394.10484,0.21951
3396.03331,0.21862
3397.96178,0.21963
3399.89025,0.22522
3401.81871,0.22805
3403.74718,0.22536
3405.67565,0.22189
3407.60412,0.22055
3409.53259,0.21885
3411.46106,0.21370
3413.38953,0.20839
3415.31800,0.20680
3417.24646,0.20830
3419.17493,0.21268
3421.10340,0.21734
3423.03187,0.21572
3424.96034,0.20902
3426.88881,0.20568
3428.81728,0.20784
3430.74574,0.20865
3432.67421,0.20511
3434.60268,0.20245
3436.53115,0.20376
3438.45962,0.20838
3440.38809,0.21330
3442.31656,0.21484
3444.24503,0.21431
3446.17349,0.21182
3448.10196,0.20474
3450.03043,0.19899
3451.95890,0.19872
3453.88737,0.19821
3455.81584,0.19684
3457.74431,0.19695
3459.67277,0.19680
3461.60124,0.19798
3463.52971,0.19931
3465.45818,0.19784
3467.38665,0.19686
3469.31512,0.19637
3471.24359,0.19592
3473.17206,0.19888
3475.10052,0.20171
3477.02899,0.20213
3478.95746,0.20411
3480.88593,0.20386
3482.81440,0.19691
3484.74287,0.19076
3486.67134,0.19141
3488.59980,0.19236
3490.52827,0.18658
3492.45674,0.17893
3494.38521,0.17799
3496.31368,0.18424
3498.24215,0.18976
3500.17062,0.19115
3502.09909,0.19127
3504.02755,0.18959
3505.95602,0.18543
3507.88449,0.18127
3509.81296,0.18034
3511.74143,0.18466
3513.66990,0.19029
3515.59837,0.19218
3517.52683,0.18895
3519.45530,0.18424
3521.38377,0.18381
3523.31224,0.18640
3525.24071,0.18929
3527.16918,0.19080
3529.09765,0.18646
3531.02611,0.17958
3532.95458,0.17574
3534.88305,0.17679
3536.81152,0.18055
3538.73999,0.17890
3540.66846,0.17303
3542.59693,0.17204
3544.52540,0.17611
3546.45386,0.17869
3548.38233,0.17990
3550.31080,0.18107
3552.23927,0.18012
3554.16774,0.17682
3556.09621,0.17061
3558.02468,0.16504
3559.95314,0.16559
3561.88161,0.16835
3563.81008,0.16760
3565.73855,0.16760
3567.66702,0.17157
3569.59549,0.16949
3571.52396,0.16298
3573.45243,0.15890
3575.38089,0.15547
3577.30936,0.15342
3579.23783,0.15775
3581.16630,0.16391
3583.09477,0.16361
3585.02324,0.15853
3586.95171,0.15651
3588.88017,0.15887
3590.80864,0.15940
3592.73711,0.15739
3594.66558,0.15438
3596.59405,0.15201
3598.52252,0.15029
3600.45099,0.14920
3602.37946,0.14775
3604.30792,0.14601
3606.23639,0.15067
3608.16486,0.16004
3610.09333,0.16170
3612.02180,0.15886
3613.95027,0.15720
3615.87874,0.15590
3617.80720,0.15696
3619.73567,0.15894
3621.66414,0.15672
3623.59261,0.15389
3625.52108,0.15240
3627.44955,0.15031
3629.37802,0.14990
3631.30649,0.15115
3633.23495,0.14990
3635.16342,0.14557
3637.09189,0.14135
3639.02036,0.14098
3640.94883,0.14222
3642.87730,0.14219
3644.80577,0.14207
3646.73423,0.14354
3648.66270,0.14795
3650.59117,0.15251
3652.51964,0.15328
3654.44811,0.15217
3656.37658,0.14997
3658.30505,0.14783
3660.23352,0.14545
3662.16198,0.14150
3664.09045,0.13861
3666.01892,0.13832
3667.94739,0.13912
3669.87586,0.13940
3671.80433,0.14146
3673.73280,0.14983
3675.66126,0.15507
3677.58973,0.14509
3679.51820,0.13619
3681.44667,0.13397
3683.37514,0.13673
3685.30361,0.14187
3687.23208,0.14707
3689.16055,0.15119
3691.08901,0.14647
3693.01748,0.13583
3694.94595,0.12897
3696.87442,0.12612
3698.80289,0.12742
3700.73136,0.13326
3702.65983,0.13711
3704.58829,0.13822
3706.51676,0.14205
3708.44523,0.14646
3710.37370,0.14818
3712.30217,0.14510
3714.23064,0.13878
3716.15911,0.13400
3718.08757,0.13179
3720.01604,0.13148
3721.94451,0.13149
3723.87298,0.13223
3725.80145,0.13334
3727.72992,0.13376
3729.65839,0.13830
3731.58686,0.14725
3733.51532,0.15379
3735.44379,0.16003
3737.37226,0.16309
3739.30073,0.15498
3741.22920,0.14648
3743.15767,0.14389
3745.08614,0.14425
3747.01460,0.14765
3748.94307,0.15638
3750.87154,0.16506
3752.80001,0.15886
3754.72848,0.14493
3756.65695,0.13634
3758.58542,0.13608
3760.51389,0.13768
3762.44235,0.13716
3764.37082,0.13612
3766.29929,0.13434
3768.22776,0.13281
3770.15623,0.13107
3772.08470,0.12960
3774.01317,0.13229
3775.94163,0.13703
3777.87010,0.13828
3779.79857,0.13583
3781.72704,0.13272
3783.65551,0.12955
3785.58398,0.12742
3787.51245,0.12616
3789.44092,0.12492
3791.36938,0.12630
3793.29785,0.12987
3795.22632,0.13167
3797.15479,0.13303
3799.08326,0.13663
3801.01173,0.13923
3802.94020,0.13779
3804.86866,0.13859
3806.79713,0.13908
3808.72560,0.13162
3810.65407,0.12821
3812.58254,0.13441
3814.51101,0.14290
3816.43948,0.14454
3818.36795,0.13768
3820.29641,0.13188
3822.22488,0.13333
3824.15335,0.13670
3826.08182,0.13586
3828.01029,0.13167
3829.93876,0.13040
3831.86723,0.13274
3833.79569,0.13236
3835.72416,0.12727
3837.65263,0.12036
3839.58110,0.11707
3841.50957,0.12103
3843.43804,0.12602
3845.36651,0.12765
3847.29498,0.12837
3849.22344,0.13171
3851.15191,0.14110
3853.08038,0.15236
3855.00885,0.14360
3856.93732,0.12946
3858.86579,0.12409
3860.79426,0.12574
3862.72272,0.12969
3864.65119,0.13197
3866.57966,0.13369
3868.50813,0.13473
3870.43660,0.13196
3872.36507,0.12986
3874.29354,0.13041
3876.22200,0.12924
3878.15047,0.12777
3880.07894,0.12828
3882.00741,0.12778
3883.93588,0.12353
3885.86435,0.11962
3887.79282,0.12147
3889.72129,0.12789
3891.64975,0.13583
3893.57822,0.13889
3895.50669,0.13640
3897.43516,0.13310
3899.36363,0.13072
3901.29210,0.12811
3903.22057,0.12599
3905.14903,0.12569
3907.07750,0.12474
3909.00597,0.12076
3910.93444,0.11545
3912.86291,0.11261
3914.79138,0.11050
3916.71985,0.10527
3918.64832,0.10314
3920.57678,0.11130
3922.50525,0.12174
3924.43372,0.12517
3926.36219,0.12423
3928.29066,0.12289
3930.21913,0.12090
3932.14760,0.12136
3934.07606,0.12298
3936.00453,0.12044
3937.93300,0.11774
3939.86147,0.11910
3941.78994,0.11896
3943.71841,0.11438
3945.64688,0.11066
3947.57535,0.11024
3949.50381,0.11461
3951.43228,0.12199
3953.36075,0.12715
3955.28922,0.12670
3957.21769,0.11843
3959.14616,0.10915
3961.07463,0.10712
3963.00309,0.11045
3964.93156,0.11450
3966.86003,0.11490
3968.78850,0.11269
3970.71697,0.11306
3972.64544,0.11399
3974.57391,0.11001
3976.50238,0.10260
3978.43084,0.09882
3980.35931,0.09945
3982.28778,0.10121
3984.21625,0.10505
3986.14472,0.11101
3988.07319,0.11682
3990.00166,0.11967
3991.93012,0.11844
3993.85859,0.11496
3995.78706,0.10864
3997.71553,0.10374
3999.64400,0.10701
4001.57247,0.11042
4003.50094,0.10661
4005.42941,0.10393
4007.35787,0.10718
4009.28634,0.11047
4011.21481,0.11161
4013.14328,0.11415
4015.07175,0.11509
4017.00022,0.11006
4018.92869,0.10406
4020.85715,0.10171
4022.78562,0.10025
4024.71409,0.09882
4026.64256,0.10125
4028.57103,0.10587
4030.49950,0.10937
4032.42797,0.11362
4034.35644,0.11795
4036.28490,0.11945
4038.21337,0.11709
4040.14184,0.10960
4042.07031,0.09919
4043.99878,0.09484
4045.92725,0.09887
4047.85572,0.10207
4049.78418,0.10013
4051.71265,0.09576
4053.64112,0.09247
4055.56959,0.09287
4057.49806,0.09653
4059.42653,0.10122
4061.35500,0.10457
4063.28346,0.10562
4065.21193,0.10547
4067.14040,0.10442
4069.06887,0.10247
4070.99734,0.10288
4072.92581,0.10463
4074.85428,0.10333
4076.78275,0.10260
4078.71121,0.10423
4080.63968,0.10381
4082.56815,0.10188
4084.49662,0.10057
4086.42509,0.09909
4088.35356,0.09487
4090.28203,0.08639
4092.21049,0.08163
4094.13896,0.08687
4096.06743,0.09293
4097.99590,0.09074
4099.92437,0.08663
4101.85284,0.09020
4103.78131,0.09689
4105.70978,0.09942
4107.63824,0.10049
4109.56671,0.10030
4111.49518,0.09792
4113.42365,0.09870
4115.35212,0.10292
4117.28059,0.10105
4119.20906,0.09045
4121.13752,0.08469
4123.06599,0.09128
4124.99446,0.09813
4126.92293,0.09625
4128.85140,0.09172
4130.77987,0.08972
4132.70834,0.08716
4134.63681,0.08496
4136.56527,0.08711
4138.49374,0.08959
4140.42221,0.08989
4142.35068,0.09177
4144.27915,0.09339
4146.20762,0.09151
4148.13609,0.09000
4150.06455,0.09188
4151.99302,0.09295
4153.92149,0.09027
4155.84996,0.08804
4157.77843,0.08875
4159.70690,0.09104
4161.63537,0.09381
4163.56384,0.09394
4165.49230,0.09059
4167.42077,0.08827
4169.34924,0.08804
4171.27771,0.08566
4173.20618,0.08068
4175.13465,0.07401
4177.06312,0.06886
4178.99158,0.07352
4180.92005,0.08034
4182.84852,0.07738
4184.77699,0.07458
4186.70546,0.08007
4188.63393,0.08571
4190.56240,0.08568
4192.49087,0.08033
4194.41933,0.07226
4196.34780,0.06946
4198.27627,0.07451
4200.20474,0.08053
4202.13321,0.08336
4204.06168,0.08394
4205.99015,0.08512
4207.91861,0.08606
4209.84708,0.08325
4211.77555,0.07809
4213.70402,0.07587
4215.63249,0.07775
4217.56096,0.07768
4219.48943,0.07377
4221.41789,0.07193
4223.34636,0.07296
4225.27483,0.07217
4227.20330,0.07220
4229.13177,0.07732
4231.06024,0.08154
4232.98871,0.08047
4234.91718,0.07751
4236.84564,0.07256
4238.77411,0.06763
4240.70258,0.06849
4242.63105,0.07348
4244.55952,0.07875
4246.48799,0.07955
4248.41646,0.07261
4250.34492,0.06579
4252.27339,0.06346
4254.20186,0.05941
4256.13033,0.05446
4258.05880,0.05415
4259.98727,0.05657
4261.91574,0.06108
4263.84421,0.06873
4265.77267,0.07479
4267.70114,0.07537
4269.62961,0.07004
4271.55808,0.06232
4273.48655,0.05892
4275.41502,0.06031
4277.34349,0.06447
4279.27195,0.06967
4281.20042,0.06708
4283.12889,0.05613
4285.05736,0.05286
4286.98583,0.06143
4288.91430,0.06576
4290.84277,0.05952
4292.77124,0.05148
4294.69970,0.04897
4296.62817,0.05402
4298.55664,0.05789
4300.48511,0.05564
4302.41358,0.05502
4304.34205,0.05581
4306.27052,0.05367
4308.19898,0.05089
4310.12745,0.04938
4312.05592,0.04995
4313.98439,0.05503
4315.91286,0.06300
4317.84133,0.06819
4319.76980,0.06853
4321.69827,0.06491
4323.62673,0.05995
4325.55520,0.05660
4327.48367,0.05480
4329.41214,0.05264
4331.34061,0.04869
4333.26908,0.04435
4335.19755,0.04287
4337.12601,0.04360
4339.05448,0.04352
4340.98295,0.04231
4342.91142,0.03913
4344.83989,0.03802
4346.76836,0.04432
4348.69683,0.04999
4350.62530,0.04901
4352.55376,0.04588
4354.48223,0.04294
4356.41070,0.04038
4358.33917,0.03896
4360.26764,0.04080
4362.19611,0.04690
4364.12458,0.05168
4366.05304,0.04843
4367.98151,0.04166
4369.90998,0.03937
4371.83845,0.03907
4373.76692,0.03762
4375.69539,0.03631
4377.62386,0.03583
4379.55232,0.03719
4381.48079,0.03914
4383.40926,0.03714
4385.33773,0.02989
4387.26620,0.02748
4389.19467,0.03695
4391.12314,0.04678
4393.05161,0.04786
4394.98007,0.04500
4396.90854,0.04467
4398.83701,0.04831
4400.76548,0.05073
4402.69395,0.04678
4404.62242,0.03685
4406.55089,0.02696
4408.47935,0.02561
4410.40782,0.03224
4412.33629,0.03702
4414.26476,0.03512
4416.19323,0.03150
4418.12170,0.03298
4420.05017,0.03796
4421.97864,0.03777
4423.90710,0.03090
4425.83557,0.02554
4427.76404,0.02562
4429.69251,0.02701
4431.62098,0.02912
4433.54945,0.03360
4435.47792,0.03358
4437.40638,0.02518
4439.33485,0.01717
4441.26332,0.01766
4443.19179,0.02335
4445.12026,0.02510
4447.04873,0.02085
4448.97720,0.01592
4450.90567,0.01534
4452.83413,0.01776
4454.76260,0.01688
4456.69107,0.01185
4458.61954,0.00980
4460.54801,0.01785
4462.47648,0.02677
4464.40495,0.02663
4466.33341,0.02429
4468.26188,0.02289
4470.19035,0.02199
4472.11882,0.02152
4474.04729,0.01897
4475.97576,0.02037
4477.90423,0.02595
4479.83270,0.02241
4481.76116,0.01360
4483.68963,0.01515
4485.61810,0.02229
4487.54657,0.02392
4489.47504,0.01799
4491.40351,0.00863
4493.33198,0.00855
4495.26044,0.01752
4497.18891,0.02120
4499.11738,0.01730
4501.04585,0.01243
4502.97432,0.01417
4504.90279,0.02379
4506.83126,0.02821
4508.75973,0.02208
4510.68819,0.01796
4512.61666,0.02222
4514.54513,0.02506
4516.47360,0.02151
4518.40207,0.01828
4520.33054,0.01796
4522.25901,0.01840
4524.18747,0.01662
4526.11594,0.01175
4528.04441,0.00991
4529.97288,0.01793
4531.90135,0.02709
4533.82982,0.02478
4535.75829,0.01925
4537.68676,0.01635
4539.61522,0.01013
4541.54369,0.00559
4543.47216,0.00585
4545.40063,0.00599
4547.32910,0.00784
4549.25757,0.01141
4551.18604,0.01334
4553.11450,0.01488
4555.04297,0.01385
4556.97144,0.00969
4558.89991,0.00661
4560.82838,0.00424
4562.75685,0.00400
4564.68532,0.01155
4566.61378,0.02123
4568.54225,0.01714
4570.47072,-0.00009
4572.39919,-0.00925
4574.32766,0.00169
4576.25613,0.01850
4578.18460,0.02569
4580.11307,0.02450
4582.04153,0.01996
4583.97000,0.01255
4585.89847,0.00382
4587.82694,0.00206
4589.75541,0.00522
4591.68388,0.00533
4593.61235,0.00466
4595.54081,0.00455
4597.46928,0.00525
4599.39775,0.00163
4601.32622,-0.00463
4603.25469,-0.00003
4605.18316,0.01101
4607.11163,0.01353
4609.04010,0.00949
4610.96856,0.00937
4612.89703,0.01156
4614.82550,0.00944
4616.75397,0.00324
4618.68244,-0.00106
4620.61091,0.00231
4622.53938,0.00802
4624.46784,0.00975
4626.39631,0.01031
4628.32478,0.01349
4630.25325,0.01703
4632.18172,0.01667
4634.11019,0.01398
4636.03866,0.01251
4637.96713,0.01281
4639.89559,0.01575
4641.82406,0.02141
4643.75253,0.02609
4645.68100,0.02982
4647.60947,0.03257
4649.53794,0.02613
4651.46641,0.01221
4653.39487,0.00094
4655.32334,-0.00414
4657.25181,-0.00451
4659.18028,-0.00591
4661.10875,-0.00817
4663.03722,-0.01011
4664.96569,-0.01117
4666.89416,-0.00631
4668.82262,-0.00272
4670.75109,-0.00541
4672.67956,-0.00607
4674.60803,-0.00116
4676.53650,0.00553
4678.46497,0.00917
4680.39344,0.00868
4682.32190,0.00509
4684.25037,0.00605
4686.17884,0.01252
4688.10731,0.01011
4690.03578,-0.00234
4691.96425,-0.01162
4693.89272,-0.00838
4695.82119,-0.00007
4697.74965,0.00037
4699.67812,-0.00106
4701.60659,0.00004
4703.53506,-0.00173
4705.46353,-0.00613
4707.39200,-0.00711
4709.32047,-0.00041
4711.24893,0.00773
4713.17740,0.01224
4715.10587,0.01502
4717.03434,0.01488
4718.96281,0.01268
4720.89128,0.01070
4722.81975,0.00817
4724.74821,0.00500
4726.67668,0.00385
4728.60515,0.00872
4730.53362,0.01669
4732.46209,0.02033
4734.39056,0.01892
4736.31903,0.01754
4738.24750,0.01919
4740.17596,0.01713
4742.10443,0.00492
4744.03290,-0.00240
4745.96137,0.00692
4747.88984,0.01155
4749.81831,-0.00096
4751.74678,-0.00970
4753.67524,-0.00244
4755.60371,0.01172
4757.53218,0.01735
4759.46065,0.01394
4761.38912,0.01563
4763.31759,0.02556
4765.24606,0.03227
4767.17453,0.02569
4769.10299,0.01055
4771.03146,-0.00300
4772.95993,-0.01076
4774.88840,-0.01013
4776.81687,-0.00573
4778.74534,-0.00453
4780.67381,-0.00294
4782.60227,0.00591
4784.53074,0.01578
4786.45921,0.01319
4788.38768,0.00114
4790.31615,-0.00099
4792.24462,0.00882
4794.17309,0.01206
4796.10156,0.00676
4798.03002,0.00221
4799.95849,-0.00148
4801.88696,-0.00170
4803.81543,0.00436
4805.74390,0.00746
4807.67237,0.00194
4809.60084,0.00177
4811.52930,0.01496
4813.45777,0.02677
4815.38624,0.02609
4817.31471,0.02166
4819.24318,0.01536
4821.17165,0.00384
4823.10012,0.00150
4825.02859,0.00972
4826.95705,0.01020
4828.88552,0.00427
4830.81399,0.00011
4832.74246,-0.00957
4834.67093,-0.02059
4836.59940,-0.01686
4838.52787,0.00020
4840.45633,0.01546
4842.38480,0.01977
4844.31327,0.01566
4846.24174,0.01225
4848.17021,0.01528
4850.09868,0.01706
4852.02715,0.01223
4853.95562,0.00667
4855.88408,0.00167
4857.81255,-0.00215
4859.74102,0.00393
4861.66949,0.01597
4863.59796,0.01168
4865.52643,-0.00586
4867.45490,-0.01238
4869.38336,-0.00583
4871.31183,-0.00073
4873.24030,-0.00135
4875.16877,-0.00136
4877.09724,-0.00066
4879.02571,-0.00374
4880.95418,-0.01213
4882.88265,-0.01957
4884.81111,-0.01267
4886.73958,0.01250
4888.66805,0.03846
4890.59652,0.03802
4892.52499,0.01282
4894.45346,-0.00817
4896.38193,-0.01372
4898.31039,-0.00998
4900.23886,-0.00062
4902.16733,0.01082
4904.09580,0.01503
4906.02427,0.00970
4907.95274,0.00621
4909.88121,0.00440
4911.80967,-0.00095
4913.73814,-0.00508
4915.66661,-0.01018
4917.59508,-0.01152
4919.52355,0.00030
4921.45202,0.01668
4923.38049,0.01864
4925.30896,0.00444
4927.23742,-0.00368
4929.16589,0.00380
4931.09436,0.01578
4933.02283,0.02135
4934.95130,0.02186
4936.87977,0.02347
4938.80824,0.02300
4940.73670,0.01760
4942.66517,0.01297
4944.59364,0.01002
4946.52211,0.00376
4948.45058,0.00383
4950.37905,0.01589
4952.30752,0.02338
4954.23599,0.01483
4956.16445,0.00135
4958.09292,0.00093
4960.02139,0.01424
4961.94986,0.03053
4963.87833,0.03773
4965.80680,0.02911
4967.73527,0.01793
4969.66373,0.01618
4971.59220,0.01531
4973.52067,0.01121
4975.44914,0.00923
4977.37761,0.00738
4979.30608,0.01030
4981.23455,0.01750
4983.16302,0.01757
4985.09148,0.01284
4987.01995,0.01173
4988.94842,0.01578
4990.87689,0.01275
4992.80536,0.00111
4994.73383,-0.00119
4996.66230,0.00822
4998.59076,0.01949
5000.51923,0.01950
5002.44770,0.00622
5004.37617,0.00764
5006.30464,0.02768
5008.23311,0.02946
5010.16158,0.00848
5012.09005,-0.00544
5014.01851,-0.00244
5015.94698,0.00387
5017.87545,0.00070
5019.80392,-0.00743
5021.73239,-0.00846
5023.66086,-0.00498
5025.58933,-0.00528
5027.51779,-0.00457
5029.44626,-0.00039
5031.37473,0.00066
5033.30320,0.00015
5035.23167,0.00184
5037.16014,0.00484
5039.08861,0.00565
5041.01708,-0.00234
5042.94554,-0.00784
5044.87401,0.00622
5046.80248,0.02522
5048.73095,0.02675
5050.65942,0.01639
5052.58789,0.01596
5054.51636,0.02648
5056.44482,0.02711
5058.37329,0.01981
5060.30176,0.02140
5062.23023,0.02975
5064.15870,0.02820
5066.08717,0.01269
5068.01564,0.00738
5069.94410,0.02042
5071.87257,0.03461
5073.80104,0.04492
5075.72951,0.04549
5077.65798,0.03223
5079.58645,0.01579
5081.51492,0.00334
5083.44339,-0.00227
5085.37185,0.00055
5087.30032,0.00939
5089.22879,0.01911
5091.15726,0.02530
5093.08573,0.02489
5095.01420,0.01494
5096.94267,-0.00217
5098.87113,-0.01361
5100.79960,-0.00700
5102.72807,0.00853
5104.65654,0.01740
5106.58501,0.01904
5108.51348,0.02147
5110.44195,0.02615
5112.37042,0.01681
5114.29888,-0.00496
5116.22735,-0.01114
5118.15582,0.00249
5120.08429,0.01695
5122.01276,0.01758
5123.94123,0.00959
5125.86970,0.00988
5127.79816,0.01655
5129.72663,0.01696
5131.65510,0.01031
5133.58357,0.00224
5135.51204,-0.00043
5137.44051,0.00645
5139.36898,0.01744
5141.29745,0.02368
5143.22591,0.02949
5145.15438,0.03793
5147.08285,0.03535
5149.01132,0.02725
5150.93979,0.03098
5152.86826,0.04194
5154.79673,0.05480
5156.72519,0.06563
5158.65366,0.06323
5160.58213,0.04690
5162.51060,0.02767
5164.43907,0.02029
5166.36754,0.02721
5168.29601,0.03537
5170.22448,0.03647
5172.15294,0.03592
5174.08141,0.04483
5176.00988,0.06372
5177.93835,0.07680
5179.86682,0.07264
5181.79529,0.05764
5183.72376,0.04326
5185.65222,0.03395
5187.58069,0.02722
5189.50916,0.02155
5191.43763,0.01823
5193.36610,0.01944
5195.29457,0.02759
5197.22304,0.03873
5199.15151,0.03951
5201.07997,0.02236
5203.00844,-0.00267
5204.93691,-0.01654
5206.86538,-0.00086
5208.79385,0.02912
5210.72232,0.04113
5212.65079,0.03715
5214.57925,0.02740
5216.50772,0.01926
5218.43619,0.01489
5220.36466,0.00378
5222.29313,-0.00536
5224.22160,0.00524
5226.15007,0.02719
5228.07854,0.03856
5230.00700,0.03934
5231.93547,0.03877
5233.86394,0.03815
5235.79241,0.03767
5237.72088,0.03528
5239.64935,0.03928
5241.57782,0.05452
5243.50628,0.05978
5245.43475,0.04875
5247.36322,0.03636
5249.29169,0.02174
5251.22016,0.01187
5253.14863,0.02004
5255.07710,0.03729
5257.00556,0.04405
5258.93403,0.03528
5260.86250,0.02863
5262.79097,0.04419
5264.71944,0.06860
5266.64791,0.07508
5268.57638,0.06490
5270.50485,0.05266
5272.43331,0.04588
5274.36178,0.03956
5276.29025,0.03198
5278.21872,0.02621
5280.14719,0.02954
5282.07566,0.05332
5284.00413,0.07699
5285.93259,0.07456
5287.86106,0.06433
5289.78953,0.05919
5291.71800,0.06192
5293.64647,0.08354
5295.57494,0.10431
5297.50341,0.09443
5299.43188,0.06267
5301.36034,0.04414
5303.28881,0.04473
5305.21728,0.04116
5307.14575,0.03103
5309.07422,0.03144
5311.00269,0.04190
5312.93116,0.05216
5314.85962,0.05481
5316.78809,0.05318
5318.71656,0.06321
5320.64503,0.07391
5322.57350,0.07372
5324.50197,0.07931
5326.43044,0.08509
5328.35891,0.07837
5330.28737,0.06566
5332.21584,0.04589
5334.14431,0.03443
5336.07278,0.04926
5338.00125,0.08279
5339.92972,0.10788
5341.85819,0.10940
5343.78665,0.10198
5345.71512,0.08597
5347.64359,0.06488
5349.57206,0.06140
5351.50053,0.06325
5353.42900,0.04433
5355.35747,0.02694
5357.28594,0.03114
5359.21440,0.04340
5361.14287,0.06119
5363.07134,0.07280
5364.99981,0.06087
5366.92828,0.04175
5368.85675,0.04019
5370.78522,0.04953
5372.71368,0.04513
5374.64215,0.03339
5376.57062,0.03263
5378.49909,0.03374
5380.42756,0.03025
5382.35603,0.02177
5384.28450,0.02088
5386.21297,0.03962
5388.14143,0.04482
5390.06990,0.02932
5391.99837,0.02668
5393.92684,0.03699
5395.85531,0.05136
5397.78378,0.07305
5399.71225,0.07667
5401.64071,0.06090
5403.56918,0.06075
5405.49765,0.08124
5407.42612,0.08348
5409.35459,0.05574
5411.28306,0.03685
5413.21153,0.04579
5415.13999,0.06430
5417.06846,0.06430
5418.99693,0.04488
5420.92540,0.04219
5422.85387,0.06469
5424.78234,0.07762
5426.71081,0.06372
5428.63928,0.04264
5430.56774,0.04575
5432.49621,0.06791
5434.42468,0.08568
5436.35315,0.09382
5438.28162,0.09515
5440.21009,0.08735
5442.13856,0.07531
5444.06702,0.05880
5445.99549,0.03390
5447.92396,0.02579
5449.85243,0.04066
5451.78090,0.05405
5453.70937,0.06199
5455.63784,0.05386
5457.56631,0.03007
5459.49477,0.02166
5461.42324,0.03286
5463.35171,0.05530
5465.28018,0.07729
5467.20865,0.08015
5469.13712,0.06758
5471.06559,0.05577
5472.99405,0.04430
5474.92252,0.03659
5476.85099,0.03727
5478.77946,0.04077
5480.70793,0.05261
5482.63640,0.06181
5484.56487,0.06342
5486.49334,0.07708
5488.42180,0.09605
5490.35027,0.10558
5492.27874,0.11109
5494.20721,0.11099
5496.13568,0.10361
5498.06415,0.09568
5499.99262,0.08508
5501.92108,0.07426
5503.84955,0.07158
5505.77802,0.07035
5507.70649,0.06163
5509.63496,0.05321
5511.56343,0.05517
5513.49190,0.06951
5515.42037,0.09015
5517.34883,0.09344
5519.27730,0.08575
5521.20577,0.09422
5523.13424,0.10646
5525.06271,0.10838
5526.99118,0.09277
5528.91965,0.07278
5530.84811,0.07987
5532.77658,0.09713
5534.70505,0.10386
5536.63352,0.10350
5538.56199,0.10041
5540.49046,0.10182
5542.41893,0.10221
5544.34740,0.10084
5546.27586,0.10118
5548.20433,0.08444
5550.13280,0.06169
5552.06127,0.06444
5553.98974,0.07247
5555.91821,0.06122
5557.84668,0.05205
5559.77514,0.05665
5561.70361,0.06098
5563.63208,0.06345
5565.56055,0.07104
5567.48902,0.07993
5569.41749,0.08370
5571.34596,0.08898
5573.27443,0.09977
5575.20289,0.10687
5577.13136,0.11482
5579.05983,0.11886
5580.98830,0.09500
5582.91677,0.05786
5584.84524,0.03679
5586.77371,0.03581
5588.70217,0.05453
5590.63064,0.07503
5592.55911,0.07873
5594.48758,0.06133
5596.41605,0.02686
5598.34452,0.01068
5600.27299,0.03214
5602.20145,0.05575
5604.12992,0.05415
5606.05839,0.04017
5607.98686,0.03963
5609.91533,0.05571
5611.84380,0.07439
5613.77227,0.08922
5615.70074,0.09811
5617.62920,0.09354
5619.55767,0.07554
5621.48614,0.07369
5623.41461,0.10070
5625.34308,0.12360
5627.27155,0.12313
5629.20002,0.10112
5631.12848,0.06978
5633.05695,0.06222
5634.98542,0.08151
5636.91389,0.09540
5638.84236,0.09995
5640.77083,0.09921
5642.69930,0.08588
5644.62777,0.08329
5646.55623,0.09290
5648.48470,0.07032
5650.41317,0.04479
5652.34164,0.07016
5654.27011,0.10184
5656.19858,0.08592
5658.12705,0.05558
5660.05551,0.06134
5661.98398,0.08748
5663.91245,0.09297
5665.84092,0.07175
5667.76939,0.05158
5669.69786,0.04628
5671.62633,0.04644
5673.55480,0.05884
5675.48326,0.07613
5677.41173,0.07293
5679.34020,0.05120
5681.26867,0.02870
5683.19714,0.00774
5685.12561,-0.00363
5687.05408,0.02498
5688.98254,0.07534
5690.91101,0.08631
5692.83948,0.06071
5694.76795,0.04805
5696.69642,0.06177
5698.62489,0.08032
5700.55336,0.08106
5702.48183,0.05304
5704.41029,0.02903
5706.33876,0.04825
5708.26723,0.09203
5710.19570,0.12075
5712.12417,0.12329
5714.05264,0.09675
5715.98111,0.05074
5717.90957,0.04559
5719.83804,0.10196
5721.76651,0.13603
5723.69498,0.10625
5725.62345,0.05983
5727.55192,0.02801
5729.48039,0.02219
5731.40886,0.04521
5733.33732,0.06168
5735.26579,0.04689
5737.19426,0.02660
5739.12273,0.04714
5741.05120,0.11863
5742.97967,0.16923
5744.90814,0.15262
5746.83660,0.11534
5748.76507,0.09516
5750.69354,0.08948
5752.62201,0.08075
5754.55048,0.05339
5756.47895,0.03657
5758.40742,0.05128
5760.33588,0.07789
5762.26435,0.11053
5764.19282,0.12311
5766.12129,0.09279
5768.04976,0.07506
5769.97823,0.09587
5771.90670,0.11656
5773.83517,0.11908
5775.76363,0.10911
5777.69210,0.08807
5779.62057,0.06993
5781.54904,0.05769
5783.47751,0.04208
5785.40598,0.05807
5787.33445,0.10980
5789.26291,0.13219
5791.19138,0.09655
5793.11985,0.03613
5795.04832,-0.00009
5796.97679,-0.00218
5798.90526,0.02692
5800.83373,0.09067
5802.76220,0.13914
5804.69066,0.13070
5806.61913,0.10194
5808.54760,0.07746
5810.47607,0.05416
5812.40454,0.05543
5814.33301,0.08585
5816.26148,0.12572
5818.18994,0.17055
5820.11841,0.19725
5822.04688,0.17912
5823.97535,0.13850
5825.90382,0.11243
5827.83229,0.10489
5829.76076,0.08719
5831.68923,0.06173
5833.61769,0.06341
5835.54616,0.08852
5837.47463,0.09751
5839.40310,0.08234
5841.33157,0.08048
5843.26004,0.09092
5845.18851,0.09576
5847.11697,0.10834
5849.04544,0.10876
5850.97391,0.08769
5852.90238,0.07419
5854.83085,0.06658
5856.75932,0.05717
5858.68779,0.06094
5860.61626,0.07805
5862.54472,0.08948
5864.47319,0.10264
5866.40166,0.12304
5868.33013,0.12117
5870.25860,0.09075
5872.18707,0.06767
5874.11554,0.06564
5876.04400,0.06672
5877.97247,0.07163
5879.90094,0.09010
5881.82941,0.10769
5883.75788,0.10656
5885.68635,0.08166
5887.61482,0.05341
5889.54329,0.04977
5891.47175,0.06674
5893.40022,0.08574
5895.32869,0.09173
5897.25716,0.10277
5899.18563,0.13841
5901.11410,0.14714
5903.04257,0.10713
5904.97103,0.07915
5906.89950,0.07362
5908.82797,0.07391
5910.75644,0.10394
5912.68491,0.14001
5914.61338,0.13176
5916.54185,0.10085
5918.47032,0.07676
5920.39878,0.05742
5922.32725,0.04977
5924.25572,0.05114
5926.18419,0.04781
5928.11266,0.04127
5930.04113,0.04513
5931.96960,0.06976
5933.89806,0.08998
5935.82653,0.07621
5937.75500,0.05343
5939.68347,0.04097
5941.61194,0.03117
5943.54041,0.03586
5945.46888,0.07450
5947.39734,0.12410
5949.32581,0.13273
5951.25428,0.10737
5953.18275,0.09236
5955.11122,0.07467
5957.03969,0.04746
5958.96816,0.05066
5960.89663,0.08238
5962.82509,0.08433
5964.75356,0.05265
5966.68203,0.03848
5968.61050,0.05917
5970.53897,0.09798
5972.46744,0.13027
5974.39591,0.11640
5976.32437,0.06793
5978.25284,0.04438
5980.18131,0.06458
5982.10978,0.09097
5984.03825,0.08707
5985.96672,0.05662
5987.89519,0.03801
5989.82366,0.07018
5991.75212,0.14594
5993.68059,0.21513
5995.60906,0.21831
5997.53753,0.16538
5999.46600,0.12759
6001.39447,0.11128
6003.32294,0.07708
6005.25140,0.04234
6007.17987,0.05418
6009.10834,0.08854
6011.03681,0.08808
6012.96528,0.04643
6014.89375,0.03163
6016.82222,0.07248
6018.75069,0.08260
6020.67915,0.06615
6022.60762,0.09382
6024.53609,0.11047
6026.46456,0.10285
6028.39303,0.11088
6030.32150,0.11541
6032.24997,0.11475
6034.17843,0.09972
6036.10690,0.03836
6038.03537,-0.00398
6039.96384,0.03991
6041.89231,0.11555
6043.82078,0.13967
6045.74925,0.10635
6047.67772,0.06056
6049.60618,0.01877
6051.53465,0.00474
6053.46312,0.05469
6055.39159,0.12038
6057.32006,0.14200
6059.24853,0.15601
6061.17700,0.15880
6063.10546,0.11676
6065.03393,0.08553
6066.96240,0.08828
6068.89087,0.09543
6070.81934,0.10924
6072.74781,0.10912
6074.67628,0.09284
6076.60475,0.09801
6078.53321,0.09239
6080.46168,0.05474
6082.39015,0.04819
6084.31862,0.10310
6086.24709,0.16269
6088.17556,0.16294
6090.10403,0.13189
6092.03249,0.12071
6093.96096,0.10636
6095.88943,0.05879
6097.81790,0.04239
6099.74637,0.10981
6101.67484,0.17324
6103.60331,0.15970
6105.53177,0.13095
6107.46024,0.13333
6109.38871,0.14458
6111.31718,0.14961
6113.24565,0.14072
6115.17412,0.11363
6117.10259,0.08356
6119.03106,0.07357
6120.95952,0.09397
6122.88799,0.11426
6124.81646,0.10453
6126.74493,0.09002
6128.67340,0.09375
6130.60187,0.08311
6132.53034,0.06399
6134.45880,0.05528
6136.38727,0.03737
6138.31574,0.03163
6140.24421,0.05929
6142.17268,0.10368
6144.10115,0.14886
6146.02962,0.16489
6147.95809,0.16424
6149.88655,0.16691
6151.81502,0.13549
6153.74349,0.08490
6155.67196,0.06610
6157.60043,0.05085
6159.52890,0.02982
6161.45737,0.02918
6163.38583,0.03718
6165.31430,0.03692
6167.24277,0.01932
6169.17124,0.00329
6171.09971,0.00449
6173.02818,0.02469
6174.95665,0.07622
6176.88512,0.12026
6178.81358,0.11751
6180.74205,0.09474
6182.67052,0.08432
6184.59899,0.08837
6186.52746,0.11931
6188.45593,0.18557
6190.38440,0.22531
6192.31286,0.20830
6194.24133,0.14855
6196.16980,0.07448
6198.09827,0.05665
6200.02674,0.07581
6201.95521,0.06325
6203.88368,0.06094
6205.81215,0.07878
6207.74061,0.04926
6209.66908,0.00540
6211.59755,0.02228
6213.52602,0.07961
6215.45449,0.10813
6217.38296,0.07762
6219.31143,0.03982
6221.23989,0.03983
6223.16836,0.04258
6225.09683,0.01856
6227.02530,0.01766
6228.95377,0.07455
6230.88224,0.13313
6232.81071,0.09992
6234.73918,0.00497
6236.66764,-0.02443
6238.59611,0.01436
6240.52458,0.01349
6242.45305,-0.00610
6244.38152,0.07027
6246.30999,0.16660
6248.23846,0.17113
6250.16692,0.13079
6252.09539,0.10594
6254.02386,0.10290
6255.95233,0.13942
6257.88080,0.18311
6259.80927,0.16531
6261.73774,0.13004
6263.66621,0.12123
6265.59467,0.10267
6267.52314,0.09223
6269.45161,0.10439
6271.38008,0.08880
6273.30855,0.06077
6275.23702,0.06841
6277.16549,0.07912
6279.09395,0.05548
6281.02242,0.00838
6282.95089,-0.01490
6284.87936,0.00446
6286.80783,0.03959
6288.73630,0.06256
6290.66477,0.03936
6292.59323,-0.00127
6294.52170,-0.01520
6296.45017,0.02323
6298.37864,0.10468
6300.30711,0.16327
6302.23558,0.18259
6304.16405,0.18637
6306.09252,0.17050
6308.02098,0.12835
6309.94945,0.10308
6311.87792,0.13715
6313.80639,0.15522
6315.73486,0.11430
6317.66333,0.10047
6319.59180,0.12536
6321.52026,0.10900
6323.44873,0.08015
6325.37720,0.10933
6327.30567,0.14235
6329.23414,0.12163
6331.16261,0.08882
6333.09108,0.07681
6335.01955,0.07163
6336.94801,0.06730
6338.87648,0.06942
6340.80495,0.07454
6342.73342,0.08310
6344.66189,0.09295
6346.59036,0.08104
6348.51883,0.05708
6350.44729,0.04254
6352.37576,0.04686
6354.30423,0.06800
6356.23270,0.08389
6358.16117,0.09361
6360.08964,0.11650
6362.01811,0.15034
6363.94658,0.14745
6365.87504,0.10600
6367.80351,0.09118
6369.73198,0.08538
6371.66045,0.04592
6373.58892,0.00829
6375.51739,0.02643
6377.44586,0.08594
6379.37432,0.10655
6381.30279,0.06880
6383.23126,0.04934
6385.15973,0.07241
6387.08820,0.09241
6389.01667,0.10846
6390.94514,0.10574
6392.87361,0.06829
6394.80207,0.06772
6396.73054,0.13060
6398.65901,0.16152
6400.58748,0.11049
6402.51595,0.03996
6404.44442,0.01206
6406.37289,0.02961
6408.30135,0.07957
6410.22982,0.10448
6412.15829,0.06262
6414.08676,0.02687
6416.01523,0.04450
6417.94370,0.07057
6419.87217,0.06040
6421.80064,0.03313
6423.72910,0.01330
6425.65757,-0.00040
6427.58604,-0.01469
6429.51451,-0.02302
6431.44298,-0.01106
6433.37145,-0.01055
6435.29992,-0.01835
6437.22838,0.02200
6439.15685,0.09564
6441.08532,0.12302
6443.01379,0.06525
6444.94226,0.02318
6446.87073,0.07990
6448.79920,0.12628
6450.72766,0.10128
6452.65613,0.07992
6454.58460,0.09720
6456.51307,0.12591
6458.44154,0.10376
6460.37001,0.01809
6462.29848,-0.04665
6464.22695,-0.06489
6466.15541,-0.06544
6468.08388,-0.03744
6470.01235,-0.00856
6471.94082,-0.02704
6473.86929,-0.06562
6475.79776,-0.07191
6477.72623,-0.04685
6479.65469,-0.01994
6481.58316,-0.01946
6483.51163,-0.04229
6485.44010,-0.05353
6487.36857,-0.04196
6489.29704,-0.01042
6491.22551,0.01918
6493.15398,0.05057
6495.08244,0.08814
6497.01091,0.09169
6498.93938,0.08764
6500.86785,0.09557
6502.79632,0.06679
6504.72479,0.03620
6506.65326,0.06455
6508.58172,0.11238
6510.51019,0.11887
6512.43866,0.09221
6514.36713,0.08214
6516.29560,0.08640
6518.22407,0.03694
6520.15254,-0.02643
6522.08101,0.00179
6524.00947,0.09578
6525.93794,0.14064
6527.86641,0.10738
6529.79488,0.03984
6531.72335,-0.01000
6533.65182,0.02822
6535.58029,0.12673
6537.50875,0.17578
6539.43722,0.17276
6541.36569,0.18087
6543.29416,0.18857
6545.22263,0.13341
6547.15110,0.06966
6549.07957,0.08974
6551.00804,0.11742
6552.93650,0.04119
6554.86497,-0.04890
6556.79344,-0.04853
6558.72191,-0.00770
6560.65038,0.00750
6562.57885,0.03004
6564.50732,0.08701
6566.43578,0.11397
6568.36425,0.08821
6570.29272,0.07725
6572.22119,0.09210
6574.14966,0.10243
6576.07813,0.10424
6578.00660,0.09655
6579.93507,0.08431
6581.86353,0.08313
6583.79200,0.09808
6585.72047,0.11351
6587.64894,0.13961
6589.57741,0.15716
6591.50588,0.11186
6593.43435,0.02782
6595.36281,-0.03476
6597.29128,-0.07117
6599.21975,-0.07240
6601.14822,-0.00531
6603.07669,0.07401
6605.00516,0.05987
6606.93363,0.00024
6608.86210,0.03446
6610.79056,0.13189
6612.71903,0.16349
6614.64750,0.15251
6616.57597,0.15292
6618.50444,0.12460
6620.43291,0.06033
6622.36138,-0.00425
6624.28984,-0.02405
6626.21831,0.01854
6628.14678,0.08272
6630.07525,0.10220
6632.00372,0.11455
6633.93219,0.20098
6635.86066,0.27341
6637.78912,0.22065
6639.71759,0.13754
6641.64606,0.10849
6643.57453,0.12211
6645.50300,0.14363
6647.43147,0.12537
6649.35994,0.05991
6651.28841,-0.00345
6653.21687,-0.02804
6655.14534,-0.01027
6657.07381,0.02838
6659.00228,0.07160
6660.93075,0.11773
6662.85922,0.14273
6664.78769,0.13302
6666.71615,0.12000
6668.64462,0.14362
6670.57309,0.15486
6672.50156,0.07654
6674.43003,-0.00406
6676.35850,0.01578
6678.28697,0.05658
6680.21544,0.02836
6682.14390,-0.01209
6684.07237,0.02582
6686.00084,0.09549
6687.92931,0.12301
6689.85778,0.12934
6691.78625,0.11080
6693.71472,0.08521
6695.64318,0.10819
6697.57165,0.14843
6699.50012,0.16120
6701.42859,0.15677
6703.35706,0.10907
6705.28553,0.02594
6707.21400,-0.01050
6709.14247,0.01950
6711.07093,0.06284
6712.99940,0.10123
6714.92787,0.08009
6716.85634,-0.02062
6718.78481,-0.05579
6720.71328,0.02785
6722.64175,0.06873
6724.57021,0.03719
6726.49868,0.04302
6728.42715,0.05353
6730.35562,-0.00472
6732.28409,-0.06803
6734.21256,-0.05099
6736.14103,0.03236
6738.06950,0.06759
6739.99796,-0.00773
6741.92643,-0.07661
6743.85490,-0.03655
6745.78337,0.01928
6747.71184,0.00351
6749.64031,-0.05837
6751.56878,-0.11473
6753.49724,-0.14840
6755.42571,-0.12677
6757.35418,-0.04028
6759.28265,0.07946
6761.21112,0.15260
6763.13959,0.15327
6765.06806,0.14045
6766.99653,0.12647
6768.92499,0.09638
6770.85346,0.06345
6772.78193,0.05762
6774.71040,0.06285
6776.63887,0.08431
6778.56734,0.09765
6780.49581,0.03846
6782.42427,-0.00061
6784.35274,0.05103
6786.28121,0.07398
6788.20968,-0.00772
6790.13815,-0.11036
6792.06662,-0.14281
6793.99509,-0.16893
6795.92355,-0.18694
6797.85202,-0.11878
6799.78049,-0.01966
6801.70896,-0.01117
6803.63743,-0.09013
6805.56590,-0.13871
6807.49437,-0.13822
6809.42284,-0.08692
6811.35130,-0.00494
6813.27977,0.01342
6815.20824,0.00729
6817.13671,0.04063
6819.06518,0.05053
6820.99365,0.01479
6822.92212,0.03996
6824.85058,0.14737
6826.77905,0.11962
6828.70752,-0.05507
6830.63599,-0.09776
6832.56446,0.03582
6834.49293,0.17323
6836.42140,0.25838
6838.34987,0.25805
6840.27833,0.15242
6842.20680,0.04744
6844.13527,0.04690
6846.06374,0.08445
6847.99221,0.07106
6849.92068,0.00881
6851.84915,-0.01421
6853.77761,0.09332
6855.70608,0.25542
6857.63455,0.27267
6859.56302,0.17613
6861.49149,0.09835
6863.41996,0.08265
6865.34843,0.08715
6867.27690,0.04430
6869.20536,-0.03341
6871.13383,-0.07376
6873.06230,-0.05624
6874.99077,0.00282
6876.91924,0.07602
6878.84771,0.08822
6880.77618,0.00427
6882.70464,-0.07511
6884.63311,-0.10546
6886.56158,-0.10376
6888.49005,-0.05004
6890.41852,0.04815
6892.34699,0.10553
6894.27546,0.06514
6896.20393,-0.01952
6898.13239,-0.07955
6900.06086,-0.05837
6901.98933,0.02152
6903.91780,0.04316
6905.84627,0.00919
6907.77474,0.03544
6909.70321,0.08879
6911.63167,0.15349
6913.56014,0.24826
6915.48861,0.27145
6917.41708,0.17501
6919.34555,0.11247
6921.27402,0.15564
6923.20249,0.14317
6925.13096,0.09784
6927.05942,0.11130
6928.98789,0.09632
6930.91636,0.04450
6932.84483,0.08885
6934.77330,0.14000
6936.70177,0.07341
6938.63024,-0.04444
6940.55870,-0.13703
6942.48717,-0.20219
6944.41564,-0.18064
6946.34411,-0.02053
6948.27258,0.12710
6950.20105,0.15036
6952.12952,0.11633
6954.05799,0.07867
6955.98645,0.04279
6957.91492,0.00440
6959.84339,0.01548
6961.77186,0.09105
6963.70033,0.14576
6965.62880,0.15580
6967.55727,0.16509
6969.48573,0.18350
6971.41420,0.14166
6973.34267,0.03781
6975.27114,-0.03650
6977.19961,-0.03237
6979.12808,0.05755
6981.05655,0.17489
6982.98501,0.20313
6984.91348,0.13707
6986.84195,0.12485
6988.77042,0.18332
6990.69889,0.20457
6992.62736,0.16196
6994.55583,0.07452
6996.48430,0.00862
6998.41276,0.05606
7000.34123,0.15359
7002.26970,0.19719
7004.19817,0.19613
7006.12664,0.16753
7008.05511,0.11836
7009.98358,0.09368
7011.91204,0.13731
7013.84051,0.19007
7015.76898,0.16216
7017.69745,0.10663
7019.62592,0.02781
7021.55439,-0.11516
7023.48286,-0.21980
7025.41133,-0.14416
7027.33979,0.02914
7029.26826,0.07909
7031.19673,-0.02358
7033.12520,-0.12311
7035.05367,-0.15522
7036.98214,-0.11008
7038.91061,-0.00203
7040.83907,0.15390
7042.76754,0.29780
7044.69601,0.29168
7046.62448,0.19692
7048.55295,0.17482
7050.48142,0.18714
7052.40989,0.18011
7054.33836,0.19594
7056.26682,0.21573
7058.19529,0.17695
7060.12376,0.13388
7062.05223,0.13130
7063.98070,0.09521
7065.90917,-0.00922
7067.83764,-0.10575
7069.76610,-0.13171
7071.69457,-0.02308
7073.62304,0.14678
7075.55151,0.16602
7077.47998,0.04534
7079.40845,-0.06029
7081.33692,-0.01617
7083.26539,0.08172
7085.19385,0.07196
7087.12232,0.03549
7089.05079,0.01464
7090.97926,0.00764
7092.90773,0.11064
7094.83620,0.23094
7096.76467,0.22833
7098.69313,0.19944
7100.62160,0.23525
7102.55007,0.25401
7104.47854,0.16624
7106.40701,0.02293
7108.33548,-0.01535
7110.26395,-0.00035
7112.19242,-0.04127
7114.12088,-0.08039
7116.04935,-0.06833
7117.97782,-0.08065
7119.90629,-0.13713
7121.83476,-0.11212
7123.76323,-0.00191
7125.69170,0.09219
7127.62016,0.12175
7129.54863,0.05579
7131.47710,-0.09791
7133.40557,-0.17812
7135.33404,-0.09964
7137.26251,-0.05078
7139.19098,-0.08549
7141.11944,-0.03460
7143.04791,-0.00422
7144.97638,-0.11912
7146.90485,-0.18925
7148.83332,-0.12263
7150.76179,0.00770
7152.69026,0.09622
7154.61873,0.06339
7156.54719,-0.02851
7158.47566,-0.05715
7160.40413,0.05588
7162.33260,0.17635
7164.26107,0.12120
7166.18954,-0.05339
7168.11801,-0.18882
7170.04647,-0.20014
7171.97494,-0.11972
7173.90341,-0.01766
7175.83188,0.09729
7177.76035,0.16280
7179.68882,0.19282
7181.61729,0.25189
7183.54576,0.24372
7185.47422,0.14949
7187.40269,0.10701
7189.33116,0.11101
7191.25963,0.11991
7193.18810,0.11184
7195.11657,0.03421
7197.04504,-0.05416
7198.97350,-0.00971
7200.90197,0.09506
7202.83044,0.09981
7204.75891,0.10064
7206.68738,0.23777
7208.61585,0.32840
7210.54432,0.32698
7212.47279,0.27557
7214.40125,0.23582
7216.32972,0.28501
7218.25819,0.30625
7220.18666,0.18158
7222.11513,0.12109
7224.04360,0.17425
7225.97207,0.18477
7227.90053,0.09913
7229.82900,0.04121
7231.75747,0.00722
7233.68594,-0.07186
7235.61441,-0.08670
7237.54288,0.02044
7239.47135,0.15703
7241.39982,0.24740
7243.32828,0.20038
7245.25675,0.10719
7247.18522,0.15791
7249.11369,0.25794
7251.04216,0.33447
7252.97063,0.39651
7254.89910,0.30550
7256.82756,0.20491
7258.75603,0.22387
7260.68450,0.22158
7262.61297,0.14018
7264.54144,0.10289
7266.46991,0.10910
7268.39838,0.13167
7270.32685,0.16985
7272.25531,0.24047
7274.18378,0.26339
7276.11225,0.20668
7278.04072,0.18999
7279.96919,0.23819
7281.89766,0.16795
7283.82613,0.02630
7285.75459,-0.02218
7287.68306,-0.00143
7289.61153,0.02989
7291.54000,0.01518
7293.46847,-0.03550
7295.39694,-0.04800
7297.32541,-0.06050
7299.25387,-0.07278
7301.18234,-0.04178
7303.11081,0.00400
7305.03928,0.01022
7306.96775,-0.05115
7308.89622,-0.07128
7310.82469,0.08425
7312.75316,0.25779
7314.68162,0.31637
7316.61009,0.23033
7318.53856,0.15873
7320.46703,0.20350
7322.39550,0.15244
7324.32397,-0.03587
7326.25244,-0.16762
7328.18090,-0.24830
7330.10937,-0.21265
7332.03784,-0.02018
7333.96631,0.14242
7335.89478,0.23535
7337.82325,0.33628
7339.75172,0.35759
7341.68019,0.15009
7343.60865,0.04181
7345.53712,0.16139
7347.46559,0.29682
7349.39406,0.27610
7351.32253,0.15552
7353.25100,0.02470
7355.17947,-0.01018
7357.10793,0.03073
7359.03640,0.02657
7360.96487,0.11256
7362.89334,0.29654
7364.82181,0.27148
7366.75028,0.04555
7368.67875,-0.12201
7370.60722,-0.12167
7372.53568,-0.00491
7374.46415,0.21882
7376.39262,0.37717
7378.32109,0.31139
7380.24956,0.17149
7382.17803,0.10287
7384.10650,0.12075
7386.03496,0.13489
7387.96343,0.12600
7389.89190,0.09600
7391.82037,0.07762
7393.74884,0.10699
7395.67731,0.10683
7397.60578,0.04717
7399.53425,0.04969
7401.46271,0.12756
7403.39118,0.14619
7405.31965,-0.00045
7407.24812,-0.20020
7409.17659,-0.25550
7411.10506,-0.08699
7413.03353,0.10461
7414.96199,0.20778
7416.89046,0.30038
7418.81893,0.36364
7420.74740,0.32127
7422.67587,0.31607
7424.60434,0.38662
7426.53281,0.38861
7428.46128,0.32605
7430.38974,0.31522
7432.31821,0.27419
7434.24668,0.20778
7436.17515,0.24984
7438.10362,0.30348
7440.03209,0.32102
7441.96056,0.38514
7443.88902,0.38974
7445.81749,0.27544
7447.74596,0.07538
7449.67443,-0.12023
7451.60290,-0.15238
7453.53137,-0.15984
7455.45984,-0.18069
7457.38831,-0.07358
7459.31677,0.07641
7461.24524,0.13343
7463.17371,0.20679
7465.10218,0.25003
7467.03065,0.11917
7468.95912,-0.01615
7470.88759,-0.00544
7472.81605,0.07321
7474.74452,0.15204
7476.67299,0.18420
7478.60146,0.01251
7480.52993,-0.19074
7482.45840,-0.17348
7484.38687,-0.12488
7486.31533,-0.10526
7488.24380,-0.04141
7490.17227,0.04531
7492.10074,0.07581
7494.02921,0.00737
7495.95768,-0.07173
7497.88615,-0.09690
