399.19301,1.02750
401.12148,1.11793
403.04995,0.52068
404.97842,-0.02494
406.90689,-0.12856
408.83536,0.03601
410.76382,0.22209
412.69229,0.31825
414.62076,0.32873
416.54923,0.23279
418.47770,-0.01285
420.40617,-0.13649
422.33464,-0.03174
424.26311,0.06187
426.19157,0.07007
428.12004,0.05398
430.04851,0.06877
431.97698,0.10503
433.90545,0.10951
435.83392,0.06795
437.76239,0.04166
439.69085,0.09055
441.61932,0.18512
443.54779,0.24243
445.47626,0.23877
447.40473,0.18543
449.33320,0.11693
451.26167,0.13215
453.19013,0.22784
455.11860,0.27606
457.04707,0.25382
458.97554,0.23436
460.90401,0.19063
462.83248,0.09616
464.76095,0.02576
466.68942,0.03410
468.61788,0.07483
470.54635,0.08658
472.47482,0.01336
474.40329,-0.13518
476.33176,-0.14751
478.26023,-0.07113
480.18870,-0.04000
482.11716,-0.04002
484.04563,0.00108
485.97410,0.06816
487.90257,0.13483
489.83104,0.15745
491.75951,0.10773
493.68798,0.05104
495.61645,0.03856
497.54491,0.05566
499.47338,0.07636
501.40185,0.09770
503.33032,0.08283
505.25879,0.03421
507.18726,0.02847
509.11573,0.06099
511.04419,0.09473
512.97266,0.14535
514.90113,0.18178
516.82960,0.15776
518.75807,0.10208
520.68654,0.06314
522.61501,0.04481
524.54348,0.06058
526.47194,0.11329
528.40041,0.14760
530.32888,0.14631
532.25735,0.14859
534.18582,0.16706
536.11429,0.17783
538.04276,0.15436
539.97122,0.11212
541.89969,0.09913
543.82816,0.11624
545.75663,0.12650
547.68510,0.11812
549.61357,0.09188
551.54204,0.03477
553.47051,-0.02648
555.39897,-0.00466
557.32744,0.08661
559.25591,0.13999
561.18438,0.14783
563.11285,0.15736
565.04132,0.16443
566.96979,0.13361
568.89825,0.08430
570.82672,0.07521
572.75519,0.09994
574.68366,0.10443
576.61213,0.08307
578.54060,0.08982
580.46907,0.11776
582.39754,0.11814
584.32600,0.10466
586.25447,0.10153
588.18294,0.10554
590.11141,0.11113
592.03988,0.11811
593.96835,0.12728
595.89682,0.11911
597.82528,0.09148
599.75375,0.07079
601.68222,0.06646
603.61069,0.06932
605.53916,0.06702
607.46763,0.07014
609.39610,0.09209
611.32456,0.10706
613.25303,0.10007
615.18150,0.08508
617.10997,0.07098
619.03844,0.07172
620.96691,0.09055
622.89538,0.10550
624.82385,0.10025
626.75231,0.09057
628.68078,0.10252
630.60925,0.12308
632.53772,0.13055
634.46619,0.13351
636.39466,0.13212
638.32313,0.11737
640.25159,0.09971
642.18006,0.09245
644.10853,0.09852
646.03700,0.11540
647.96547,0.12993
649.89394,0.12549
651.82241,0.10650
653.75088,0.09098
655.67934,0.09068
657.60781,0.10293
659.53628,0.11145
661.46475,0.11324
663.39322,0.11377
665.32169,0.11079
667.25016,0.11454
669.17862,0.13094
671.10709,0.12420
673.03556,0.11005
674.96403,0.11250
676.89250,0.12152
678.82097,0.12151
680.74944,0.11689
682.67791,0.11710
684.60637,0.13029
686.53484,0.14949
688.46331,0.14955
690.39178,0.13197
692.32025,0.11921
694.24872,0.11011
696.17719,0.10181
698.10565,0.10608
700.03412,0.12110
701.96259,0.12369
703.89106,0.10599
705.81953,0.09673
707.74800,0.11292
709.67647,0.12902
711.60494,0.12537
713.53340,0.11702
715.46187,0.11178
717.39034,0.10561
719.31881,0.10980
721.24728,0.12883
723.17575,0.14355
725.10422,0.13748
727.03268,0.12192
728.96115,0.11351
730.88962,0.10963
732.81809,0.10442
734.74656,0.10035
736.67503,0.10225
738.60350,0.10646
740.53197,0.10800
742.46043,0.11109
744.38890,0.11493
746.31737,0.11877
748.24584,0.12570
750.17431,0.12865
752.10278,0.12799
754.03125,0.12938
755.95971,0.12978
757.88818,0.13126
759.81665,0.13578
761.74512,0.13703
763.67359,0.13305
765.60206,0.12691
767.53053,0.11808
769.45900,0.11646
771.38746,0.12598
773.31593,0.13184
775.24440,0.13209
777.17287,0.12918
779.10134,0.12396
781.02981,0.12020
782.95828,0.11868
784.88674,0.12108
786.81521,0.12217
788.74368,0.12194
790.67215,0.12997
792.60062,0.14519
794.52909,0.15658
796.45756,0.15058
798.38602,0.12938
800.31449,0.11695
802.24296,0.12336
804.17143,0.13343
806.09990,0.13496
808.02837,0.12383
809.95684,0.10795
811.88531,0.10572
813.81377,0.12131
815.74224,0.13988
817.67071,0.14858
819.59918,0.14437
821.52765,0.13372
823.45612,0.12462
825.38459,0.11677
827.31305,0.11223
829.24152,0.11530
831.16999,0.12371
833.09846,0.12876
835.02693,0.12497
836.95540,0.12113
838.88387,0.12287
840.81234,0.12494
842.74080,0.12602
844.66927,0.12828
846.59774,0.13285
848.52621,0.13513
850.45468,0.12783
852.38315,0.12096
854.31162,0.12537
856.24008,0.12925
858.16855,0.12641
860.09702,0.12456
862.02549,0.12491
863.95396,0.12689
865.88243,0.12965
867.81090,0.13239
869.73937,0.14026
871.66783,0.14654
873.59630,0.13974
875.52477,0.12897
877.45324,0.12759
879.38171,0.13219
881.31018,0.13233
883.23865,0.13043
885.16711,0.13389
887.09558,0.13811
889.02405,0.13918
890.95252,0.13857
892.88099,0.13361
894.80946,0.12910
896.73793,0.13113
898.66640,0.13043
900.59486,0.12698
902.52333,0.12877
904.45180,0.13416
906.38027,0.14101
908.30874,0.14188
910.23721,0.13446
912.16568,0.12724
914.09414,0.12603
916.02261,0.13457
917.95108,0.14964
919.87955,0.15383
921.80802,0.13905
923.73649,0.12761
925.66496,0.13555
927.59343,0.15217
929.52189,0.16080
931.45036,0.15539
933.37883,0.14533
935.30730,0.13647
937.23577,0.13039
939.16424,0.12983
941.09271,0.13138
943.02117,0.13395
944.94964,0.13628
946.87811,0.13632
948.80658,0.13524
950.73505,0.13153
952.66352,0.12853
954.59199,0.13461
956.52045,0.14336
958.44892,0.14091
960.37739,0.13092
962.30586,0.12302
964.23433,0.11860
966.16280,0.11799
968.09127,0.11921
970.01974,0.11950
971.94820,0.12059
973.87667,0.12686
975.80514,0.13704
977.73361,0.14091
979.66208,0.13450
981.59055,0.12666
983.51902,0.12727
985.44748,0.13452
987.37595,0.13883
989.30442,0.13762
991.23289,0.13302
993.16136,0.12998
995.08983,0.13282
997.01830,0.13544
998.94677,0.13527
1000.87523,0.13814
1002.80370,0.14336
1004.73217,0.14597
1006.66064,0.14519
1008.58911,0.14336
1010.51758,0.14186
1012.44605,0.13910
1014.37451,0.13572
1016.30298,0.13450
1018.23145,0.13592
1020.15992,0.14188
1022.08839,0.14853
1024.01686,0.14830
1025.94533,0.14740
1027.87380,0.14996
1029.80226,0.14805
1031.73073,0.14211
1033.65920,0.13870
1035.58767,0.13693
1037.51614,0.13875
1039.44461,0.14545
1041.37308,0.14978
1043.30154,0.15298
1045.23001,0.15665
1047.15848,0.15625
1049.08695,0.15443
1051.01542,0.15059
1052.94389,0.14545
1054.87236,0.14544
1056.80083,0.14599
1058.72929,0.14374
1060.65776,0.14646
1062.58623,0.15518
1064.51470,0.16409
1066.44317,0.16932
1068.37164,0.16943
1070.30011,0.16818
1072.22857,0.16738
1074.15704,0.16251
1076.08551,0.15693
1078.01398,0.15993
1079.94245,0.16427
1081.87092,0.15604
1083.79939,0.14091
1085.72786,0.13385
1087.65632,0.13582
1089.58479,0.13818
1091.51326,0.14052
1093.44173,0.14397
1095.37020,0.14327
1097.29867,0.13948
1099.22714,0.14202
1101.15560,0.15112
1103.08407,0.15759
1105.01254,0.16020
1106.94101,0.16191
1108.86948,0.16369
1110.79795,0.16313
1112.72642,0.15775
1114.65489,0.15357
1116.58335,0.15093
1118.51182,0.14259
1120.44029,0.13466
1122.36876,0.13945
1124.29723,0.15242
1126.22570,0.15995
1128.15417,0.15947
1130.08263,0.15824
1132.01110,0.15887
1133.93957,0.15777
1135.86804,0.15487
1137.79651,0.15262
1139.72498,0.15228
1141.65345,0.15204
1143.58191,0.15066
1145.51038,0.14973
1147.43885,0.14906
1149.36732,0.15064
1151.29579,0.15320
1153.22426,0.15218
1155.15273,0.15113
1157.08120,0.15284
1159.00966,0.15479
1160.93813,0.15534
1162.86660,0.15365
1164.79507,0.15262
1166.72354,0.15400
1168.65201,0.15548
1170.58048,0.15732
1172.50894,0.15791
1174.43741,0.15454
1176.36588,0.15037
1178.29435,0.14937
1180.22282,0.15059
1182.15129,0.15281
1184.07976,0.15664
1186.00823,0.15826
1187.93669,0.15605
1189.86516,0.15481
1191.79363,0.15442
1193.72210,0.15188
1195.65057,0.15135
1197.57904,0.15570
1199.50751,0.15840
1201.43597,0.15684
1203.36444,0.15595
1205.29291,0.15823
1207.22138,0.16208
1209.14985,0.16339
1211.07832,0.15996
1213.00679,0.15705
1214.93526,0.15935
1216.86372,0.16208
1218.79219,0.16196
1220.72066,0.16141
1222.64913,0.16179
1224.57760,0.16192
1226.50607,0.16008
1228.43454,0.15776
1230.36300,0.15598
1232.29147,0.15539
1234.21994,0.15798
1236.14841,0.16123
1238.07688,0.15969
1240.00535,0.15506
1241.93382,0.15484
1243.86229,0.15980
1245.79075,0.16393
1247.71922,0.16337
1249.64769,0.16183
1251.57616,0.16426
1253.50463,0.16638
1255.43310,0.16189
1257.36157,0.15382
1259.29003,0.14968
1261.21850,0.15095
1263.14697,0.15696
1265.07544,0.16702
1267.00391,0.17275
1268.93238,0.17075
1270.86085,0.16759
1272.78932,0.16638
1274.71778,0.16711
1276.64625,0.16813
1278.57472,0.16732
1280.50319,0.16614
1282.43166,0.16629
1284.36013,0.16703
1286.28860,0.16575
1288.21706,0.16362
1290.14553,0.16607
1292.07400,0.17056
1294.00247,0.16919
1295.93094,0.16411
1297.85941,0.16117
1299.78788,0.15728
1301.71634,0.15006
1303.64481,0.14486
1305.57328,0.14629
1307.50175,0.15415
1309.43022,0.16245
1311.35869,0.16474
1313.28716,0.16373
1315.21563,0.16466
1317.14409,0.16653
1319.07256,0.16714
1321.00103,0.16789
1322.92950,0.16925
1324.85797,0.16755
1326.78644,0.16248
1328.71491,0.15854
1330.64337,0.15825
1332.57184,0.16074
1334.50031,0.16328
1336.42878,0.16516
1338.35725,0.16736
1340.28572,0.16688
1342.21419,0.16328
1344.14266,0.16259
1346.07112,0.16546
1347.99959,0.16778
1349.92806,0.16867
1351.85653,0.16901
1353.78500,0.16831
1355.71347,0.16561
1357.64194,0.16410
1359.57040,0.16650
1361.49887,0.16822
1363.42734,0.16687
1365.35581,0.16647
1367.28428,0.16733
1369.21275,0.16804
1371.14122,0.16736
1373.06969,0.16490
1374.99815,0.16246
1376.92662,0.16236
1378.85509,0.16582
1380.78356,0.17013
1382.71203,0.17137
1384.64050,0.17189
1386.56897,0.17545
1388.49743,0.17929
1390.42590,0.18194
1392.35437,0.18474
1394.28284,0.18272
1396.21131,0.17852
1398.13978,0.18063
1400.06825,0.18223
1401.99672,0.17893
1403.92518,0.17397
1405.85365,0.16963
1407.78212,0.16777
1409.71059,0.16871
1411.63906,0.17064
1413.56753,0.17120
1415.49600,0.17314
1417.42446,0.17852
1419.35293,0.17798
1421.28140,0.16983
1423.20987,0.16642
1425.13834,0.16857
1427.06681,0.17211
1428.99528,0.17416
1430.92375,0.17206
1432.85221,0.16891
1434.78068,0.17007
1436.70915,0.17488
1438.63762,0.17624
1440.56609,0.17428
1442.49456,0.17374
1444.42303,0.17581
1446.35149,0.17805
1448.27996,0.17991
1450.20843,0.18397
1452.13690,0.18926
1454.06537,0.19461
1455.99384,0.20220
1457.92231,0.20363
1459.85077,0.19259
1461.77924,0.18480
1463.70771,0.18364
1465.63618,0.18362
1467.56465,0.18095
1469.49312,0.18094
1471.42159,0.18542
1473.35006,0.18941
1475.27852,0.18969
1477.20699,0.18728
1479.13546,0.18119
1481.06393,0.17535
1482.99240,0.17557
1484.92087,0.18223
1486.84934,0.19239
1488.77780,0.19734
1490.70627,0.18913
1492.63474,0.18257
1494.56321,0.18727
1496.49168,0.19750
1498.42015,0.19852
1500.34862,0.19118
1502.27709,0.18567
1504.20555,0.18701
1506.13402,0.19932
1508.06249,0.20266
1509.99096,0.19333
1511.91943,0.18949
1513.84790,0.18888
1515.77637,0.19138
1517.70483,0.19900
1519.63330,0.20844
1521.56177,0.21185
1523.49024,0.20423
1525.41871,0.19622
1527.34718,0.19168
1529.27565,0.19230
1531.20412,0.19900
1533.13258,0.20360
1535.06105,0.19983
1536.98952,0.20013
1538.91799,0.21113
1540.84646,0.21893
1542.77493,0.20570
1544.70340,0.18991
1546.63186,0.18041
1548.56033,0.17936
1550.48880,0.18318
1552.41727,0.18510
1554.34574,0.18695
1556.27421,0.19571
1558.20268,0.20895
1560.13115,0.20165
1562.05961,0.19135
1563.98808,0.18996
1565.91655,0.19134
1567.84502,0.19356
1569.77349,0.19431
1571.70196,0.19062
1573.63043,0.18853
1575.55889,0.18961
1577.48736,0.18862
1579.41583,0.18592
1581.34430,0.18360
1583.27277,0.18108
1585.20124,0.17867
1587.12971,0.17694
1589.05818,0.17656
1590.98664,0.17732
1592.91511,0.17882
1594.84358,0.18132
1596.77205,0.18201
1598.70052,0.17956
1600.62899,0.17812
1602.55746,0.17896
1604.48592,0.17977
1606.41439,0.18097
1608.34286,0.18296
1610.27133,0.18339
1612.19980,0.18335
1614.12827,0.18671
1616.05674,0.19108
1617.98521,0.18875
1619.91367,0.18632
1621.84214,0.18912
1623.77061,0.19288
1625.69908,0.19413
1627.62755,0.19159
1629.55602,0.18636
1631.48449,0.18639
1633.41295,0.19505
1635.34142,0.20836
1637.26989,0.20687
1639.19836,0.19580
1641.12683,0.19150
1643.05530,0.19527
1644.98377,0.20539
1646.91223,0.21411
1648.84070,0.21044
1650.76917,0.20867
1652.69764,0.21366
1654.62611,0.20531
1656.55458,0.19336
1658.48305,0.18815
1660.41152,0.18802
1662.33998,0.19290
1664.26845,0.19709
1666.19692,0.19715
1668.12539,0.19791
1670.05386,0.20053
1671.98233,0.19964
1673.91080,0.19582
1675.83926,0.19234
1677.76773,0.19171
1679.69620,0.19533
1681.62467,0.20412
1683.55314,0.21371
1685.48161,0.20976
1687.41008,0.20342
1689.33855,0.20019
1691.26701,0.19479
1693.19548,0.19323
1695.12395,0.19985
1697.05242,0.20650
1698.98089,0.20974
1700.90936,0.21071
1702.83783,0.20495
1704.76629,0.19965
1706.69476,0.19637
1708.62323,0.19213
1710.55170,0.19020
1712.48017,0.19344
1714.40864,0.20096
1716.33711,0.21089
1718.26558,0.21078
1720.19404,0.19791
1722.12251,0.18744
1724.05098,0.18321
1725.97945,0.18162
1727.90792,0.18097
1729.83639,0.18452
1731.76486,0.19379
1733.69332,0.20044
1735.62179,0.19487
1737.55026,0.19146
1739.47873,0.19388
1741.40720,0.19532
1743.33567,0.19359
1745.26414,0.19145
1747.19261,0.19102
1749.12107,0.18946
1751.04954,0.18396
1752.97801,0.18220
1754.90648,0.18634
1756.83495,0.19016
1758.76342,0.19081
1760.69189,0.19224
1762.62035,0.19252
1764.54882,0.18875
1766.47729,0.18766
1768.40576,0.19202
1770.33423,0.19602
1772.26270,0.19548
1774.19117,0.19333
1776.11964,0.19238
1778.04810,0.19152
1779.97657,0.18926
1781.90504,0.18450
1783.83351,0.18072
1785.76198,0.18171
1787.69045,0.18445
1789.61892,0.18770
1791.54738,0.19326
1793.47585,0.19537
1795.40432,0.19141
1797.33279,0.18708
1799.26126,0.18528
1801.18973,0.18526
1803.11820,0.18600
1805.04666,0.18803
1806.97513,0.19040
1808.90360,0.19173
1810.83207,0.19143
1812.76054,0.18984
1814.68901,0.18729
1816.61748,0.18419
1818.54595,0.18349
1820.47441,0.18581
1822.40288,0.18992
1824.33135,0.19351
1826.25982,0.19235
1828.18829,0.18991
1830.11676,0.18791
1832.04523,0.18264
1833.97369,0.17860
1835.90216,0.17964
1837.83063,0.18249
1839.75910,0.18317
1841.68757,0.18432
1843.61604,0.18783
1845.54451,0.18933
1847.47298,0.18935
1849.40144,0.19078
1851.32991,0.19153
1853.25838,0.18989
1855.18685,0.18801
1857.11532,0.18711
1859.04379,0.18511
1860.97226,0.18310
1862.90072,0.18299
1864.82919,0.18383
1866.75766,0.18634
1868.68613,0.18905
1870.61460,0.18776
1872.54307,0.18582
1874.47154,0.18575
1876.40001,0.18531
1878.32847,0.18391
1880.25694,0.18343
1882.18541,0.18419
1884.11388,0.18570
1886.04235,0.18817
1887.97082,0.19087
1889.89929,0.19013
1891.82775,0.18458
1893.75622,0.18055
1895.68469,0.18196
1897.61316,0.18539
1899.54163,0.18750
1901.47010,0.18698
1903.39857,0.18468
1905.32704,0.18307
1907.25550,0.18216
1909.18397,0.18187
1911.11244,0.18131
1913.04091,0.17978
1914.96938,0.17927
1916.89785,0.17875
1918.82632,0.17762
1920.75478,0.18018
1922.68325,0.18480
1924.61172,0.18598
1926.54019,0.18474
1928.46866,0.18388
1930.39713,0.18240
1932.32560,0.17951
1934.25407,0.17792
1936.18253,0.18034
1938.11100,0.18460
1940.03947,0.18573
1941.96794,0.18436
1943.89641,0.18453
1945.82488,0.18396
1947.75335,0.18211
1949.68181,0.18268
1951.61028,0.18407
1953.53875,0.18418
1955.46722,0.18530
1957.39569,0.18801
1959.32416,0.18996
1961.25263,0.18876
1963.18110,0.18603
1965.10956,0.18551
1967.03803,0.18539
1968.96650,0.18404
1970.89497,0.18409
1972.82344,0.18599
1974.75191,0.18775
1976.68038,0.18725
1978.60884,0.18530
1980.53731,0.18526
1982.46578,0.18723
1984.39425,0.18851
1986.32272,0.18793
1988.25119,0.18579
1990.17966,0.18421
1992.10812,0.18422
1994.03659,0.18420
1995.96506,0.18472
1997.89353,0.18696
1999.82200,0.18793
2001.75047,0.18529
2003.67894,0.18222
2005.60741,0.18212
2007.53587,0.18462
2009.46434,0.18618
2011.39281,0.18427
2013.32128,0.18281
2015.24975,0.18488
2017.17822,0.18681
2019.10669,0.18669
2021.03515,0.18721
2022.96362,0.18806
2024.89209,0.18712
2026.82056,0.18546
2028.74903,0.18504
2030.67750,0.18554
2032.60597,0.18539
2034.53444,0.18498
2036.46290,0.18585
2038.39137,0.18754
2040.31984,0.18918
2042.24831,0.19077
2044.17678,0.19044
2046.10525,0.18696
2048.03372,0.18422
2049.96218,0.18494
2051.89065,0.18644
2053.81912,0.18586
2055.74759,0.18426
2057.67606,0.18506
2059.60453,0.18716
2061.53300,0.18666
2063.46147,0.18471
2065.38993,0.18477
2067.31840,0.18641
2069.24687,0.18602
2071.17534,0.18339
2073.10381,0.18210
2075.03228,0.18377
2076.96075,0.18683
2078.88921,0.18778
2080.81768,0.18565
2082.74615,0.18306
2084.67462,0.18147
2086.60309,0.18184
2088.53156,0.18488
2090.46003,0.18712
2092.38850,0.18648
2094.31696,0.18714
2096.24543,0.18932
2098.17390,0.18887
2100.10237,0.18730
2102.03084,0.18713
2103.95931,0.18756
2105.88778,0.18839
2107.81624,0.18872
2109.74471,0.18730
2111.67318,0.18592
2113.60165,0.18666
2115.53012,0.18762
2117.45859,0.18650
2119.38706,0.18473
2121.31553,0.18401
2123.24399,0.18438
2125.17246,0.18580
2127.10093,0.18702
2129.02940,0.18709
2130.95787,0.18731
2132.88634,0.18761
2134.81481,0.18689
2136.74327,0.18621
2138.67174,0.18791
2140.60021,0.19159
2142.52868,0.19308
2144.45715,0.19052
2146.38562,0.18706
2148.31409,0.18607
2150.24255,0.18725
2152.17102,0.18798
2154.09949,0.18671
2156.02796,0.18444
2157.95643,0.18306
2159.88490,0.18248
2161.81337,0.18169
2163.74184,0.18048
2165.67030,0.18095
2167.59877,0.18471
2169.52724,0.18775
2171.45571,0.18770
2173.38418,0.18762
2175.31265,0.18780
2177.24112,0.18609
2179.16958,0.18519
2181.09805,0.18715
2183.02652,0.18819
2184.95499,0.18816
2186.88346,0.18878
2188.81193,0.18741
2190.74040,0.18454
2192.66887,0.18334
2194.59733,0.18358
2196.52580,0.18471
2198.45427,0.18693
2200.38274,0.18875
2202.31121,0.18923
2204.23968,0.18933
2206.16815,0.18931
2208.09661,0.18909
2210.02508,0.18899
2211.95355,0.18934
2213.88202,0.19053
2215.81049,0.19095
2217.73896,0.18933
2219.66743,0.18804
2221.59590,0.18900
2223.52436,0.19110
2225.45283,0.19261
2227.38130,0.19315
2229.30977,0.19320
2231.23824,0.19241
2233.16671,0.19033
2235.09518,0.18865
2237.02364,0.18833
2238.95211,0.18885
2240.88058,0.19086
2242.80905,0.19315
2244.73752,0.19317
2246.66599,0.19048
2248.59446,0.18717
2250.52293,0.18588
2252.45139,0.18643
2254.37986,0.18690
2256.30833,0.18620
2258.23680,0.18418
2260.16527,0.18213
2262.09374,0.18210
2264.02221,0.18314
2265.95067,0.18454
2267.87914,0.18775
2269.80761,0.19045
2271.73608,0.18922
2273.66455,0.18560
2275.59302,0.18435
2277.52149,0.18571
2279.44996,0.18658
2281.37842,0.18663
2283.30689,0.18626
2285.23536,0.18521
2287.16383,0.18369
2289.09230,0.18259
2291.02077,0.18202
2292.94924,0.18145
2294.87770,0.18023
2296.80617,0.17819
2298.73464,0.17680
2300.66311,0.17648
2302.59158,0.17615
2304.52005,0.17592
2306.44852,0.17795
2308.37699,0.18066
2310.30545,0.17831
2312.23392,0.17242
2314.16239,0.16828
2316.09086,0.16470
2318.01933,0.15981
2319.94780,0.15660
2321.87627,0.15777
2323.80473,0.16063
2325.73320,0.16033
2327.66167,0.15524
2329.59014,0.14981
2331.51861,0.14848
2333.44708,0.14789
2335.37555,0.14419
2337.30401,0.13765
2339.23248,0.13732
2341.16095,0.14907
2343.08942,0.15516
2345.01789,0.15198
2346.94636,0.15419
2348.87483,0.15910
2350.80330,0.16179
2352.73176,0.15546
2354.66023,0.13450
2356.58870,0.11722
2358.51717,0.12176
2360.44564,0.13317
2362.37411,0.13681
2364.30258,0.13440
2366.23104,0.13067
2368.15951,0.13853
2370.08798,0.15409
2372.01645,0.16143
2373.94492,0.16081
2375.87339,0.16123
2377.80186,0.16518
2379.73033,0.17012
2381.65879,0.17599
2383.58726,0.18188
2385.51573,0.18534
2387.44420,0.18673
2389.37267,0.18755
2391.30114,0.18781
2393.22961,0.18747
2395.15807,0.18697
2397.08654,0.18674
2399.01501,0.18677
2400.94348,0.18653
2402.87195,0.18778
2404.80042,0.19056
2406.72889,0.19091
2408.65736,0.18900
2410.58582,0.18737
2412.51429,0.18607
2414.44276,0.18519
2416.37123,0.18549
2418.29970,0.18781
2420.22817,0.19082
2422.15664,0.19149
2424.08510,0.18843
2426.01357,0.18368
2427.94204,0.18235
2429.87051,0.18598
2431.79898,0.18957
2433.72745,0.18974
2435.65592,0.18966
2437.58439,0.19134
2439.51285,0.19007
2441.44132,0.18636
2443.36979,0.18679
2445.29826,0.18872
2447.22673,0.18737
2449.15520,0.18506
2451.08367,0.18391
2453.01213,0.18415
2454.94060,0.18569
2456.86907,0.18746
2458.79754,0.18965
2460.72601,0.19285
2462.65448,0.19453
2464.58295,0.19262
2466.51142,0.18999
2468.43988,0.18942
2470.36835,0.18976
2472.29682,0.19067
2474.22529,0.19266
2476.15376,0.19418
2478.08223,0.19415
2480.01070,0.19273
2481.93916,0.19003
2483.86763,0.18755
2485.79610,0.18781
2487.72457,0.18991
2489.65304,0.19233
2491.58151,0.19457
2493.50998,0.19455
2495.43844,0.19317
2497.36691,0.19254
2499.29538,0.19191
2501.22385,0.19016
2503.15232,0.18823
2505.08079,0.18738
2507.00926,0.18704
2508.93773,0.18695
2510.86619,0.18677
2512.79466,0.18662
2514.72313,0.18804
2516.65160,0.18989
2518.58007,0.18995
2520.50854,0.18920
2522.43701,0.18886
2524.36547,0.18897
2526.29394,0.18900
2528.22241,0.18850
2530.15088,0.18898
2532.07935,0.18919
2534.00782,0.18727
2535.93629,0.18667
2537.86476,0.18938
2539.79322,0.19308
2541.72169,0.19486
2543.65016,0.19397
2545.57863,0.19284
2547.50710,0.19282
2549.43557,0.19150
2551.36404,0.18825
2553.29250,0.18693
2555.22097,0.18922
2557.14944,0.19162
2559.07791,0.19115
2561.00638,0.19023
2562.93485,0.19120
2564.86332,0.19252
2566.79179,0.19250
2568.72025,0.19144
2570.64872,0.19215
2572.57719,0.19549
2574.50566,0.19780
2576.43413,0.19616
2578.36260,0.19088
2580.29107,0.18616
2582.21953,0.18686
2584.14800,0.19105
2586.07647,0.19426
2588.00494,0.19492
2589.93341,0.19232
2591.86188,0.18958
2593.79035,0.19082
2595.71882,0.19404
2597.64728,0.19496
2599.57575,0.19352
2601.50422,0.19409
2603.43269,0.19680
2605.36116,0.19590
2607.28963,0.19120
2609.21810,0.18846
2611.14656,0.19001
2613.07503,0.19178
2615.00350,0.19077
2616.93197,0.19017
2618.86044,0.19131
2620.78891,0.19160
2622.71738,0.19095
2624.64585,0.19119
2626.57431,0.19297
2628.50278,0.19489
2630.43125,0.19517
2632.35972,0.19472
2634.28819,0.19470
2636.21666,0.19346
2638.14513,0.19106
2640.07359,0.19095
2642.00206,0.19336
2643.93053,0.19477
2645.85900,0.19365
2647.78747,0.19122
2649.71594,0.19058
2651.64441,0.19231
2653.57288,0.19293
2655.50134,0.19259
2657.42981,0.19318
2659.35828,0.19497
2661.28675,0.19680
2663.21522,0.19499
2665.14369,0.19119
2667.07216,0.19121
2669.00062,0.19344
2670.92909,0.19286
2672.85756,0.19180
2674.78603,0.19407
2676.71450,0.19662
2678.64297,0.19660
2680.57144,0.19609
2682.49990,0.19659
2684.42837,0.19774
2686.35684,0.19907
2688.28531,0.19870
2690.21378,0.19578
2692.14225,0.19380
2694.07072,0.19495
2695.99919,0.19736
2697.92765,0.19985
2699.85612,0.20211
2701.78459,0.20229
2703.71306,0.19941
2705.64153,0.19645
2707.57000,0.19638
2709.49847,0.19759
2711.42693,0.19888
2713.35540,0.20125
2715.28387,0.20268
2717.21234,0.20135
2719.14081,0.19958
2721.06928,0.19953
2722.99775,0.20054
2724.92622,0.20133
2726.85468,0.20019
2728.78315,0.19588
2730.71162,0.19258
2732.64009,0.19401
2734.56856,0.19627
2736.49703,0.19653
2738.42550,0.19780
2740.35396,0.20124
2742.28243,0.20264
2744.21090,0.20032
2746.13937,0.19815
2748.06784,0.19841
2749.99631,0.19870
2751.92478,0.19829
2753.85325,0.19931
2755.78171,0.20007
2757.71018,0.20045
2759.63865,0.20288
2761.56712,0.20448
2763.49559,0.20424
2765.42406,0.20432
2767.35253,0.20401
2769.28099,0.20328
2771.20946,0.20409
2773.13793,0.20507
2775.06640,0.20286
2776.99487,0.20035
2778.92334,0.20222
2780.85181,0.20671
2782.78028,0.20916
2784.70874,0.20829
2786.63721,0.20712
2788.56568,0.20691
2790.49415,0.20538
2792.42262,0.20292
2794.35109,0.20266
2796.27956,0.20447
2798.20802,0.20582
2800.13649,0.20500
2802.06496,0.20237
2803.99343,0.20050
2805.92190,0.19979
2807.85037,0.19967
2809.77884,0.20109
2811.70731,0.20235
2813.63577,0.20389
2815.56424,0.20821
2817.49271,0.21061
2819.42118,0.20871
2821.34965,0.20781
2823.27812,0.20953
2825.20659,0.21214
2827.13505,0.21383
2829.06352,0.21290
2830.99199,0.21082
2832.92046,0.20932
2834.84893,0.20829
2836.77740,0.20792
2838.70587,0.20758
2840.63433,0.20681
2842.56280,0.20693
2844.49127,0.20632
2846.41974,0.20302
2848.34821,0.19964
2850.27668,0.19716
2852.20515,0.19666
2854.13362,0.20167
2856.06208,0.20867
2857.99055,0.21107
2859.91902,0.21005
2861.84749,0.21044
2863.77596,0.21237
2865.70443,0.21241
2867.63290,0.21009
2869.56136,0.20776
2871.48983,0.20743
2873.41830,0.20938
2875.34677,0.21097
2877.27524,0.21140
2879.20371,0.21160
2881.13218,0.20990
2883.06065,0.20673
2884.98911,0.20456
2886.91758,0.20270
2888.84605,0.20120
2890.77452,0.20207
2892.70299,0.20507
2894.63146,0.20782
2896.55993,0.20814
2898.48839,0.20650
2900.41686,0.20574
2902.34533,0.20621
2904.27380,0.20495
2906.20227,0.20186
2908.13074,0.20008
2910.05921,0.19965
2911.98768,0.19894
2913.91614,0.19847
2915.84461,0.19920
2917.77308,0.20051
2919.70155,0.20000
2921.63002,0.19719
2923.55849,0.19493
2925.48696,0.19442
2927.41542,0.19518
2929.34389,0.19824
2931.27236,0.20123
2933.20083,0.19900
2935.12930,0.19268
2937.05777,0.18929
2938.98624,0.19307
2940.91471,0.19948
2942.84317,0.20348
2944.77164,0.20538
2946.70011,0.20517
2948.62858,0.20491
2950.55705,0.20652
2952.48552,0.20741
2954.41399,0.20410
2956.34245,0.19544
2958.27092,0.18998
2960.19939,0.19542
2962.12786,0.20325
2964.05633,0.20549
2965.98480,0.20516
2967.91327,0.20601
2969.84174,0.20933
2971.77020,0.21253
2973.69867,0.21263
2975.62714,0.20906
2977.55561,0.20254
2979.48408,0.20091
2981.41255,0.20799
2983.34102,0.21306
2985.26948,0.21032
2987.19795,0.20549
2989.12642,0.20421
2991.05489,0.20734
2992.98336,0.21354
2994.91183,0.22009
2996.84030,0.22069
2998.76877,0.21509
3000.69723,0.21030
3002.62570,0.21005
3004.55417,0.21279
3006.48264,0.21443
3008.41111,0.21322
3010.33958,0.20966
3012.26805,0.20337
3014.19651,0.19090
3016.12498,0.17531
3018.05345,0.17489
3019.98192,0.19466
3021.91039,0.21266
3023.83886,0.21627
3025.76733,0.21397
3027.69579,0.21197
3029.62426,0.21026
3031.55273,0.21042
3033.48120,0.21173
3035.40967,0.21238
3037.33814,0.21229
3039.26661,0.21098
3041.19508,0.20956
3043.12354,0.20797
3045.05201,0.20643
3046.98048,0.20733
3048.90895,0.20874
3050.83742,0.20882
3052.76589,0.20735
3054.69436,0.20211
3056.62282,0.19750
3058.55129,0.20169
3060.47976,0.20913
3062.40823,0.20880
3064.33670,0.20340
3066.26517,0.20161
3068.19364,0.20728
3070.12211,0.21629
3072.05057,0.22133
3073.97904,0.22013
3075.90751,0.21436
3077.83598,0.20988
3079.76445,0.20848
3081.69292,0.20502
3083.62139,0.19868
3085.54985,0.19477
3087.47832,0.19857
3089.40679,0.20698
3091.33526,0.21077
3093.26373,0.20668
3095.19220,0.20203
3097.12067,0.20313
3099.04914,0.20882
3100.97760,0.21389
3102.90607,0.21228
3104.83454,0.21074
3106.76301,0.21790
3108.69148,0.22378
3110.61995,0.22017
3112.54842,0.21533
3114.47688,0.21442
3116.40535,0.21472
3118.33382,0.21604
3120.26229,0.21659
3122.19076,0.21611
3124.11923,0.21755
3126.04770,0.21868
3127.97617,0.21690
3129.90463,0.21434
3131.83310,0.21438
3133.76157,0.21711
3135.69004,0.21893
3137.61851,0.21722
3139.54698,0.21502
3141.47545,0.21500
3143.40391,0.21624
3145.33238,0.21988
3147.26085,0.22102
3149.18932,0.21558
3151.11779,0.21190
3153.04626,0.21234
3154.97473,0.21180
3156.90320,0.21316
3158.83166,0.21783
3160.76013,0.22040
3162.68860,0.22330
3164.61707,0.22858
3166.54554,0.22799
3168.47401,0.22071
3170.40248,0.21590
3172.33094,0.21651
3174.25941,0.21852
3176.18788,0.22073
3178.11635,0.22434
3180.04482,0.23026
3181.97329,0.23387
3183.90176,0.22808
3185.83022,0.21834
3187.75869,0.21455
3189.68716,0.21799
3191.61563,0.22393
3193.54410,0.22708
3195.47257,0.22597
3197.40104,0.22274
3199.32951,0.21968
3201.25797,0.21759
3203.18644,0.21957
3205.11491,0.22627
3207.04338,0.22987
3208.97185,0.22391
3210.90032,0.21467
3212.82879,0.21171
3214.75725,0.21241
3216.68572,0.21106
3218.61419,0.21020
3220.54266,0.21237
3222.47113,0.21314
3224.39960,0.21243
3226.32807,0.21401
3228.25654,0.21348
3230.18500,0.21201
3232.11347,0.21672
3234.04194,0.22313
3235.97041,0.22425
3237.89888,0.22027
3239.82735,0.21499
3241.75582,0.21384
3243.68428,0.21633
3245.61275,0.21810
3247.54122,0.22016
3249.46969,0.22203
3251.39816,0.22091
3253.32663,0.21851
3255.25510,0.21764
3257.18357,0.21853
3259.11203,0.22029
3261.04050,0.22177
3262.96897,0.22072
3264.89744,0.21659
3266.82591,0.21250
3268.75438,0.21051
3270.68285,0.21141
3272.61131,0.21689
3274.53978,0.22236
3276.46825,0.22128
3278.39672,0.21791
3280.32519,0.21810
3282.25366,0.21912
3284.18213,0.21840
3286.11060,0.21760
3288.03906,0.21716
3289.96753,0.21624
3291.89600,0.21383
3293.82447,0.21051
3295.75294,0.20850
3297.68141,0.21013
3299.60988,0.21627
3301.53834,0.22062
3303.46681,0.22001
3305.39528,0.22022
3307.32375,0.22174
3309.25222,0.21915
3311.18069,0.21437
3313.10916,0.21240
3315.03763,0.20871
3316.96609,0.20421
3318.89456,0.20794
3320.82303,0.21600
3322.75150,0.21853
3324.67997,0.21511
3326.60844,0.21417
3328.53691,0.21893
3330.46537,0.22152
3332.39384,0.22058
3334.32231,0.21947
3336.25078,0.21729
3338.17925,0.21539
3340.10772,0.21467
3342.03619,0.21506
3343.96466,0.21664
3345.89312,0.21581
3347.82159,0.21290
3349.75006,0.21584
3351.67853,0.22323
3353.60700,0.22413
3355.53547,0.21824
3357.46394,0.21287
3359.39240,0.21166
3361.32087,0.21257
3363.24934,0.21195
3365.17781,0.21160
3367.10628,0.21459
3369.03475,0.21750
3370.96322,0.21687
3372.89168,0.21761
3374.82015,0.22000
3376.74862,0.21823
3378.67709,0.21543
3380.60556,0.21510
3382.53403,0.21547
3384.46250,0.21607
3386.39097,0.21618
3388.31943,0.21633
3390.24790,0.21914
3392.17637,0.22325
3394.10484,0.22327
3396.03331,0.21796
3397.96178,0.21191
3399.89025,0.20829
3401.81871,0.20809
3403.74718,0.20960
3405.67565,0.20858
3407.60412,0.20769
3409.53259,0.21259
3411.46106,0.21871
3413.38953,0.21840
3415.31800,0.21726
3417.24646,0.22005
3419.17493,0.21798
3421.10340,0.21069
3423.03187,0.20598
3424.96034,0.20397
3426.88881,0.20301
3428.81728,0.20335
3430.74574,0.20532
3432.67421,0.20673
3434.60268,0.20603
3436.53115,0.20665
3438.45962,0.20899
3440.38809,0.20909
3442.31656,0.21066
3444.24503,0.21626
3446.17349,0.21818
3448.10196,0.21372
3450.03043,0.20737
3451.95890,0.20020
3453.88737,0.19329
3455.81584,0.19190
3457.74431,0.19588
3459.67277,0.19843
3461.60124,0.19713
3463.52971,0.19544
3465.45818,0.19739
3467.38665,0.20089
3469.31512,0.19950
3471.24359,0.19600
3473.17206,0.19683
3475.10052,0.19933
3477.02899,0.20094
3478.95746,0.20073
3480.88593,0.19610
3482.81440,0.19074
3484.74287,0.18950
3486.67134,0.18988
3488.59980,0.19055
3490.52827,0.19384
3492.45674,0.19662
3494.38521,0.19650
3496.31368,0.19344
3498.24215,0.18691
3500.17062,0.18295
3502.09909,0.18335
3504.02755,0.18246
3505.95602,0.18148
3507.88449,0.18461
3509.81296,0.18893
3511.74143,0.18881
3513.66990,0.18520
3515.59837,0.18460
3517.52683,0.18654
3519.45530,0.18367
3521.38377,0.17809
3523.31224,0.17610
3525.24071,0.17944
3527.16918,0.18502
3529.09765,0.18396
3531.02611,0.17609
3532.95458,0.17107
3534.88305,0.17160
3536.81152,0.17276
3538.73999,0.17463
3540.66846,0.17882
3542.59693,0.17898
3544.52540,0.17366
3546.45386,0.17103
3548.38233,0.17337
3550.31080,0.17523
3552.23927,0.17458
3554.16774,0.17179
3556.09621,0.16817
3558.02468,0.16758
3559.95314,0.17050
3561.88161,0.17229
3563.81008,0.17110
3565.73855,0.16667
3567.66702,0.15927
3569.59549,0.15659
3571.52396,0.15895
3573.45243,0.16043
3575.38089,0.15984
3577.30936,0.15884
3579.23783,0.15888
3581.16630,0.16075
3583.09477,0.16213
3585.02324,0.16314
3586.95171,0.16297
3588.88017,0.15678
3590.80864,0.15282
3592.73711,0.15448
3594.66558,0.15622
3596.59405,0.15758
3598.52252,0.15774
3600.45099,0.15402
3602.37946,0.15147
3604.30792,0.15273
3606.23639,0.15418
3608.16486,0.15338
3610.09333,0.15137
3612.02180,0.15289
3613.95027,0.15701
3615.87874,0.15736
3617.80720,0.15387
3619.73567,0.15033
3621.66414,0.14843
3623.59261,0.14826
3625.52108,0.15109
3627.44955,0.15424
3629.37802,0.14983
3631.30649,0.14254
3633.23495,0.14008
3635.16342,0.13880
3637.09189,0.13734
3639.02036,0.13829
3640.94883,0.13887
3642.87730,0.13976
3644.80577,0.14759
3646.73423,0.15916
3648.66270,0.16294
3650.59117,0.15492
3652.51964,0.14885
3654.44811,0.14819
3656.37658,0.14769
3658.30505,0.14395
3660.23352,0.14058
3662.16198,0.13830
3664.09045,0.13701
3666.01892,0.13881
3667.94739,0.14439
3669.87586,0.15081
3671.80433,0.15081
3673.73280,0.14870
3675.66126,0.15066
3677.58973,0.14979
3679.51820,0.14253
3681.44667,0.13341
3683.37514,0.12932
3685.30361,0.13580
3687.23208,0.14738
3689.16055,0.14762
3691.08901,0.13507
3693.01748,0.12803
3694.94595,0.12772
3696.87442,0.13117
3698.80289,0.13714
3700.73136,0.14262
3702.65983,0.14318
3704.58829,0.14079
3706.51676,0.14077
3708.44523,0.14556
3710.37370,0.15424
3712.30217,0.15411
3714.23064,0.14481
3716.15911,0.14030
3718.08757,0.14203
3720.01604,0.14590
3721.94451,0.14614
3723.87298,0.13961
3725.80145,0.13268
3727.72992,0.13030
3729.65839,0.12733
3731.58686,0.12210
3733.51532,0.12149
3735.44379,0.12956
3737.37226,0.13746
3739.30073,0.14024
3741.22920,0.14025
3743.15767,0.14030
3745.08614,0.14349
3747.01460,0.14601
3748.94307,0.14596
3750.87154,0.14667
3752.80001,0.14505
3754.72848,0.14140
3756.65695,0.14193
3758.58542,0.14705
3760.51389,0.14799
3762.44235,0.14180
3764.37082,0.13542
3766.29929,0.13403
3768.22776,0.13707
3770.15623,0.13863
3772.08470,0.13519
3774.01317,0.13247
3775.94163,0.13484
3777.87010,0.13918
3779.79857,0.14003
3781.72704,0.13742
3783.65551,0.13317
3785.58398,0.12588
3787.51245,0.12014
3789.44092,0.12090
3791.36938,0.12442
3793.29785,0.12920
3795.22632,0.13511
3797.15479,0.13740
3799.08326,0.13917
3801.01173,0.14277
3802.94020,0.13994
3804.86866,0.13410
3806.79713,0.13023
3808.72560,0.12845
3810.65407,0.12861
3812.58254,0.13295
3814.51101,0.14345
3816.43948,0.15061
3818.36795,0.14509
3820.29641,0.13824
3822.22488,0.13745
3824.15335,0.13614
3826.08182,0.13143
3828.01029,0.12834
3829.93876,0.12940
3831.86723,0.13213
3833.79569,0.13519
3835.72416,0.13960
3837.65263,0.14277
3839.58110,0.13817
3841.50957,0.13394
3843.43804,0.13492
3845.36651,0.13238
3847.29498,0.12538
3849.22344,0.12104
3851.15191,0.12388
3853.08038,0.13536
3855.00885,0.13630
3856.93732,0.12415
3858.86579,0.11798
3860.79426,0.12231
3862.72272,0.13070
3864.65119,0.13386
3866.57966,0.13435
3868.50813,0.13550
3870.43660,0.13224
3872.36507,0.12870
3874.29354,0.12608
3876.22200,0.12104
3878.15047,0.11932
3880.07894,0.11985
3882.00741,0.11961
3883.93588,0.12328
3885.86435,0.12614
3887.79282,0.12517
3889.72129,0.12598
3891.64975,0.12414
3893.57822,0.11883
3895.50669,0.11723
3897.43516,0.11983
3899.36363,0.12749
3901.29210,0.13648
3903.22057,0.13781
3905.14903,0.13252
3907.07750,0.12558
3909.00597,0.11843
3910.93444,0.11345
3912.86291,0.11163
3914.79138,0.11243
3916.71985,0.11582
3918.64832,0.11974
3920.57678,0.12280
3922.50525,0.12592
3924.43372,0.12638
3926.36219,0.12129
3928.29066,0.11639
3930.21913,0.11319
3932.14760,0.10932
3934.07606,0.10859
3936.00453,0.10973
3937.93300,0.11004
3939.86147,0.11073
3941.78994,0.11193
3943.71841,0.11212
3945.64688,0.11061
3947.57535,0.11244
3949.50381,0.11886
3951.43228,0.12080
3953.36075,0.11779
3955.28922,0.11670
3957.21769,0.11861
3959.14616,0.12102
3961.07463,0.12048
3963.00309,0.11824
3964.93156,0.11486
3966.86003,0.10539
3968.78850,0.09644
3970.71697,0.09975
3972.64544,0.10961
3974.57391,0.11284
3976.50238,0.11039
3978.43084,0.11054
3980.35931,0.11186
3982.28778,0.11217
3984.21625,0.11597
3986.14472,0.12033
3988.07319,0.11802
3990.00166,0.11166
3991.93012,0.10710
3993.85859,0.10424
3995.78706,0.10026
3997.71553,0.09823
3999.64400,0.10194
4001.57247,0.10653
4003.50094,0.10850
4005.42941,0.10903
4007.35787,0.10818
4009.28634,0.10613
4011.21481,0.10523
4013.14328,0.10482
4015.07175,0.10049
4017.00022,0.09706
4018.92869,0.09799
4020.85715,0.09774
4022.78562,0.09810
4024.71409,0.10078
4026.64256,0.10190
4028.57103,0.10144
4030.49950,0.10253
4032.42797,0.10501
4034.35644,0.10526
4036.28490,0.10271
4038.21337,0.09648
4040.14184,0.08797
4042.07031,0.08787
4043.99878,0.09867
4045.92725,0.10832
4047.85572,0.11032
4049.78418,0.10727
4051.71265,0.10239
4053.64112,0.09743
4055.56959,0.09289
4057.49806,0.09185
4059.42653,0.09395
4061.35500,0.09560
4063.28346,0.09909
4065.21193,0.10540
4067.14040,0.10774
4069.06887,0.10401
4070.99734,0.10319
4072.92581,0.10875
4074.85428,0.11413
4076.78275,0.11406
4078.71121,0.11088
4080.63968,0.10992
4082.56815,0.10935
4084.49662,0.10796
4086.42509,0.10831
4088.35356,0.10621
4090.28203,0.09895
4092.21049,0.09546
4094.13896,0.09724
4096.06743,0.09376
4097.99590,0.08790
4099.92437,0.08810
4101.85284,0.09105
4103.78131,0.09343
4105.70978,0.09537
4107.63824,0.09522
4109.56671,0.09228
4111.49518,0.09143
4113.42365,0.09564
4115.35212,0.09770
4117.28059,0.09230
4119.20906,0.08566
4121.13752,0.08431
4123.06599,0.08610
4124.99446,0.08714
4126.92293,0.08668
4128.85140,0.08621
4130.77987,0.08985
4132.70834,0.09644
4134.63681,0.09704
4136.56527,0.09057
4138.49374,0.08531
4140.42221,0.08502
4142.35068,0.09011
4144.27915,0.09799
4146.20762,0.10041
4148.13609,0.09472
4150.06455,0.08970
4151.99302,0.09259
4153.92149,0.09727
4155.84996,0.09703
4157.77843,0.09600
4159.70690,0.09355
4161.63537,0.08535
4163.56384,0.07752
4165.49230,0.07756
4167.42077,0.08331
4169.34924,0.08672
4171.27771,0.08275
4173.20618,0.07625
4175.13465,0.07440
4177.06312,0.07548
4178.99158,0.07554
4180.92005,0.07571
4182.84852,0.07781
4184.77699,0.08021
4186.70546,0.07869
4188.63393,0.07359
4190.56240,0.07025
4192.49087,0.07332
4194.41933,0.08148
4196.34780,0.08681
4198.27627,0.08935
4200.20474,0.09216
4202.13321,0.08975
4204.06168,0.08487
4205.99015,0.08550
4207.91861,0.08784
4209.84708,0.08261
4211.77555,0.07023
4213.70402,0.06244
4215.63249,0.06740
4217.56096,0.07768
4219.48943,0.08165
4221.41789,0.08081
4223.34636,0.07840
4225.27483,0.07435
4227.20330,0.07302
4229.13177,0.07457
4231.06024,0.07727
4232.98871,0.08291
4234.91718,0.08739
4236.84564,0.08121
4238.77411,0.06940
4240.70258,0.06526
4242.63105,0.06698
4244.55952,0.06932
4246.48799,0.07393
4248.41646,0.07814
4250.34492,0.07531
4252.27339,0.06852
4254.20186,0.06462
4256.13033,0.06110
4258.05880,0.05806
4259.98727,0.05956
4261.91574,0.06396
4263.84421,0.06763
4265.77267,0.06688
4267.70114,0.06320
4269.62961,0.06108
4271.55808,0.05976
4273.48655,0.06252
4275.41502,0.07116
4277.34349,0.07469
4279.27195,0.06804
4281.20042,0.05660
4283.12889,0.04708
4285.05736,0.04849
4286.98583,0.05853
4288.91430,0.06477
4290.84277,0.06390
4292.77124,0.05961
4294.69970,0.05990
4296.62817,0.06805
4298.55664,0.07292
4300.48511,0.06800
4302.41358,0.06189
4304.34205,0.06049
4306.27052,0.05723
4308.19898,0.05067
4310.12745,0.04698
4312.05592,0.04361
4313.98439,0.04150
4315.91286,0.04817
4317.84133,0.05909
4319.76980,0.06437
4321.69827,0.06211
4323.62673,0.05812
4325.55520,0.05718
4327.48367,0.05491
4329.41214,0.04900
4331.34061,0.04368
4333.26908,0.04466
4335.19755,0.05496
4337.12601,0.06523
4339.05448,0.06681
4340.98295,0.06364
4342.91142,0.06023
4344.83989,0.05539
4346.76836,0.04994
4348.69683,0.04877
4350.62530,0.04976
4352.55376,0.04733
4354.48223,0.04300
4356.41070,0.04232
4358.33917,0.04652
4360.26764,0.04898
4362.19611,0.04765
4364.12458,0.04894
4366.05304,0.04989
4367.98151,0.04773
4369.90998,0.05167
4371.83845,0.05762
4373.76692,0.05647
4375.69539,0.05547
4377.62386,0.05898
4379.55232,0.05798
4381.48079,0.04859
4383.40926,0.04070
4385.33773,0.03780
4387.26620,0.03392
4389.19467,0.02947
4391.12314,0.02617
4393.05161,0.02685
4394.98007,0.03423
4396.90854,0.04046
4398.83701,0.04000
4400.76548,0.03779
4402.69395,0.03616
4404.62242,0.03376
4406.55089,0.02971
4408.47935,0.02398
4410.40782,0.02171
4412.33629,0.02689
4414.26476,0.03283
4416.19323,0.03232
4418.12170,0.02999
4420.05017,0.03293
4421.97864,0.04061
4423.90710,0.04439
4425.83557,0.03670
4427.76404,0.02858
4429.69251,0.02985
4431.62098,0.03096
4433.54945,0.02792
4435.47792,0.02535
4437.40638,0.02408
4439.33485,0.02535
4441.26332,0.02951
4443.19179,0.02938
4445.12026,0.02398
4447.04873,0.02146
4448.97720,0.02043
4450.90567,0.01778
4452.83413,0.01437
4454.76260,0.01435
4456.69107,0.02187
4458.61954,0.02671
4460.54801,0.02268
4462.47648,0.02064
4464.40495,0.02380
4466.33341,0.02661
4468.26188,0.02909
4470.19035,0.03119
4472.11882,0.03128
4474.04729,0.02938
4475.97576,0.02576
4477.90423,0.02365
4479.83270,0.02453
4481.76116,0.02603
4483.68963,0.02981
4485.61810,0.03730
4487.54657,0.03807
4489.47504,0.02613
4491.40351,0.01362
4493.33198,0.00970
4495.26044,0.00901
4497.18891,0.00575
4499.11738,0.00307
4501.04585,0.00417
4502.97432,0.00544
4504.90279,0.00668
4506.83126,0.01076
4508.75973,0.01654
4510.68819,0.02364
4512.61666,0.02919
4514.54513,0.02675
4516.47360,0.02335
4518.40207,0.02786
4520.33054,0.02777
4522.25901,0.01518
4524.18747,0.00600
4526.11594,0.00654
4528.04441,0.00717
4529.97288,0.00879
4531.90135,0.01506
4533.82982,0.01867
4535.75829,0.01426
4537.68676,0.01071
4539.61522,0.01712
4541.54369,0.02387
4543.47216,0.02130
4545.40063,0.01489
4547.32910,0.01068
4549.25757,0.01135
4551.18604,0.01420
4553.11450,0.01244
4555.04297,0.00761
4556.97144,0.00672
4558.89991,0.01212
4560.82838,0.01895
4562.75685,0.02314
4564.68532,0.02536
4566.61378,0.02574
4568.54225,0.02118
4570.47072,0.01074
4572.39919,0.00346
4574.32766,0.00295
4576.25613,0.00123
4578.18460,0.00203
4580.11307,0.01127
4582.04153,0.01673
4583.97000,0.01325
4585.89847,0.01040
4587.82694,0.01104
4589.75541,0.01362
4591.68388,0.01348
4593.61235,0.00903
4595.54081,0.00715
4597.46928,0.00862
4599.39775,0.01107
4601.32622,0.01484
4603.25469,0.01695
4605.18316,0.01348
4607.11163,0.00688
4609.04010,0.00236
4610.96856,0.00174
4612.89703,0.00459
4614.82550,0.00785
4616.75397,0.01070
4618.68244,0.01371
4620.61091,0.01206
4622.53938,0.00678
4624.46784,0.00250
4626.39631,-0.00051
4628.32478,-0.00000
4630.25325,0.00151
4632.18172,-0.00159
4634.11019,-0.00677
4636.03866,-0.00559
4637.96713,0.00292
4639.89559,0.00793
4641.82406,0.00683
4643.75253,0.00868
4645.68100,0.01444
4647.60947,0.01806
4649.53794,0.02109
4651.46641,0.02358
4653.39487,0.02065
4655.32334,0.01777
4657.25181,0.01907
4659.18028,0.01628
4661.10875,0.00644
4663.03722,0.00076
4664.96569,-0.00247
4666.89416,-0.01420
4668.82262,-0.01931
4670.75109,-0.00251
4672.67956,0.01734
4674.60803,0.02158
4676.53650,0.01522
4678.46497,0.00572
4680.39344,0.00336
4682.32190,0.00906
4684.25037,0.00408
4686.17884,-0.00922
4688.10731,-0.01491
4690.03578,-0.01496
4691.96425,-0.01239
4693.89272,-0.00636
4695.82119,-0.00450
4697.74965,-0.00807
4699.67812,-0.01196
4701.60659,-0.01633
4703.53506,-0.01275
4705.46353,0.00004
4707.39200,0.01101
4709.32047,0.01728
4711.24893,0.01858
4713.17740,0.01272
4715.10587,0.00327
4717.03434,0.00045
4718.96281,0.00361
4720.89128,0.00605
4722.81975,0.00559
4724.74821,-0.00201
4726.67668,-0.00703
4728.60515,-0.00423
4730.53362,-0.00656
4732.46209,-0.00649
4734.39056,0.00786
4736.31903,0.02004
4738.24750,0.02080
4740.17596,0.01827
4742.10443,0.01111
4744.03290,0.00384
4745.96137,0.00965
4747.88984,0.01507
4749.81831,0.00407
4751.74678,-0.00868
4753.67524,-0.01182
4755.60371,-0.01119
4757.53218,-0.00994
4759.46065,-0.00506
4761.38912,0.00318
4763.31759,0.01241
4765.24606,0.01239
4767.17453,-0.00021
4769.10299,-0.00360
4771.03146,0.00496
4772.95993,0.00716
4774.88840,0.00313
4776.81687,-0.00464
4778.74534,-0.00858
4780.67381,0.00198
4782.60227,0.01175
4784.53074,0.01112
4786.45921,0.00421
4788.38768,-0.00770
4790.31615,-0.01423
4792.24462,-0.01180
4794.17309,-0.00357
4796.10156,0.00711
4798.03002,0.01316
4799.95849,0.01720
4801.88696,0.02110
4803.81543,0.01750
4805.74390,0.00638
4807.67237,0.00156
4809.60084,0.00549
4811.52930,0.00361
4813.45777,-0.00174
4815.38624,-0.00033
4817.31471,0.00402
4819.24318,0.00890
4821.17165,0.01051
4823.10012,0.00345
4825.02859,-0.00472
4826.95705,-0.00687
4828.88552,-0.00293
4830.81399,0.00804
4832.74246,0.01441
4834.67093,0.00948
4836.59940,0.00854
4838.52787,0.01450
4840.45633,0.02268
4842.38480,0.02947
4844.31327,0.02263
4846.24174,0.00623
4848.17021,0.00054
4850.09868,0.01106
4852.02715,0.02221
4853.95562,0.02763
4855.88408,0.03095
4857.81255,0.02287
4859.74102,0.00089
4861.66949,-0.01634
4863.59796,-0.01142
4865.52643,0.00154
4867.45490,0.00082
4869.38336,-0.00071
4871.31183,0.01197
4873.24030,0.02269
4875.16877,0.01706
4877.09724,0.00919
4879.02571,0.00963
4880.95418,0.00420
4882.88265,-0.01340
4884.81111,-0.02379
4886.73958,-0.01294
4888.66805,0.00708
4890.59652,0.02007
4892.52499,0.01924
4894.45346,0.00954
4896.38193,0.00335
4898.31039,0.00624
4900.23886,0.01436
4902.16733,0.01953
4904.09580,0.01894
4906.02427,0.01655
4907.95274,0.01725
4909.88121,0.01761
4911.80967,0.01056
4913.73814,0.00506
4915.66661,0.00717
4917.59508,0.00769
4919.52355,0.00591
4921.45202,0.00121
4923.38049,-0.00532
4925.30896,0.00390
4927.23742,0.01574
4929.16589,0.00476
4931.09436,-0.00404
4933.02283,0.00637
4934.95130,0.01664
4936.87977,0.02014
4938.80824,0.01676
4940.73670,0.01135
4942.66517,0.01301
4944.59364,0.01454
4946.52211,0.00992
4948.45058,0.00708
4950.37905,0.00860
4952.30752,0.00635
4954.23599,-0.00211
4956.16445,-0.00483
4958.09292,0.00780
4960.02139,0.01920
4961.94986,0.00154
4963.87833,-0.03264
4965.80680,-0.04004
4967.73527,-0.01576
4969.66373,0.00857
4971.59220,0.01977
4973.52067,0.02735
4975.44914,0.03804
4977.37761,0.04476
4979.30608,0.03880
4981.23455,0.02295
4983.16302,0.00646
4985.09148,-0.00570
4987.01995,-0.01481
4988.94842,-0.01404
4990.87689,0.00424
4992.80536,0.02208
4994.73383,0.02000
4996.66230,0.01102
4998.59076,0.01097
5000.51923,0.01549
5002.44770,0.01808
5004.37617,0.01520
5006.30464,0.01452
5008.23311,0.02231
5010.16158,0.02588
5012.09005,0.02283
5014.01851,0.02684
5015.94698,0.02988
5017.87545,0.01966
5019.80392,0.01253
5021.73239,0.01839
5023.66086,0.01908
5025.58933,0.00671
5027.51779,-0.00433
5029.44626,-0.01233
5031.37473,-0.02677
5033.30320,-0.03125
5035.23167,-0.01352
5037.16014,0.00031
5039.08861,-0.00309
5041.01708,-0.00742
5042.94554,0.00016
5044.87401,0.01968
5046.80248,0.03384
5048.73095,0.02777
5050.65942,0.01761
5052.58789,0.02034
5054.51636,0.02304
5056.44482,0.01381
5058.37329,0.00145
5060.30176,0.00123
5062.23023,0.02009
5064.15870,0.03731
5066.08717,0.03711
5068.01564,0.03626
5069.94410,0.03480
5071.87257,0.02502
5073.80104,0.02684
5075.72951,0.04082
5077.65798,0.04507
5079.58645,0.03629
5081.51492,0.02569
5083.44339,0.02326
5085.37185,0.03034
5087.30032,0.03912
5089.22879,0.03540
5091.15726,0.01746
5093.08573,0.00683
5095.01420,0.01548
5096.94267,0.02507
5098.87113,0.01822
5100.79960,0.00717
5102.72807,0.00940
5104.65654,0.02000
5106.58501,0.02706
5108.51348,0.03501
5110.44195,0.04828
5112.37042,0.05493
5114.29888,0.05061
5116.22735,0.04406
5118.15582,0.03312
5120.08429,0.01848
5122.01276,0.01687
5123.94123,0.02758
5125.86970,0.03417
5127.79816,0.03146
5129.72663,0.02496
5131.65510,0.01842
5133.58357,0.01130
5135.51204,0.00596
5137.44051,0.00273
5139.36898,0.00516
5141.29745,0.01066
5143.22591,0.01106
5145.15438,0.01414
5147.08285,0.01828
5149.01132,0.01689
5150.93979,0.02021
5152.86826,0.03017
5154.79673,0.02968
5156.72519,0.01520
5158.65366,0.01432
5160.58213,0.03308
5162.51060,0.04479
5164.43907,0.04270
5166.36754,0.04298
5168.29601,0.04676
5170.22448,0.04491
5172.15294,0.04152
5174.08141,0.04401
5176.00988,0.04852
5177.93835,0.04785
5179.86682,0.04178
5181.79529,0.03520
5183.72376,0.03248
5185.65222,0.03574
5187.58069,0.03558
5189.50916,0.02589
5191.43763,0.02191
5193.36610,0.03187
5195.29457,0.04024
5197.22304,0.03901
5199.15151,0.03652
5201.07997,0.03359
5203.00844,0.03435
5204.93691,0.05362
5206.86538,0.07728
5208.79385,0.06845
5210.72232,0.04010
5212.65079,0.02946
5214.57925,0.04072
5216.50772,0.05352
5218.43619,0.05519
5220.36466,0.04711
5222.29313,0.03761
5224.22160,0.03682
5226.15007,0.04999
5228.07854,0.07071
5230.00700,0.08793
5231.93547,0.07569
5233.86394,0.02901
5235.79241,-0.00277
5237.72088,0.00680
5239.64935,0.03394
5241.57782,0.05090
5243.50628,0.05499
5245.43475,0.05921
5247.36322,0.06322
5249.29169,0.05238
5251.22016,0.02824
5253.14863,0.01536
5255.07710,0.02631
5257.00556,0.04555
5258.93403,0.05162
5260.86250,0.04345
5262.79097,0.03166
5264.71944,0.02654
5266.64791,0.03505
5268.57638,0.03976
5270.50485,0.03067
5272.43331,0.02678
5274.36178,0.03144
5276.29025,0.03010
5278.21872,0.02245
5280.14719,0.01908
5282.07566,0.02245
5284.00413,0.03578
5285.93259,0.06241
5287.86106,0.08291
5289.78953,0.08118
5291.71800,0.07539
5293.64647,0.07502
5295.57494,0.06514
5297.50341,0.04961
5299.43188,0.04241
5301.36034,0.04813
5303.28881,0.05441
5305.21728,0.05145
5307.14575,0.05216
5309.07422,0.06065
5311.00269,0.06189
5312.93116,0.05541
5314.85962,0.06065
5316.78809,0.07006
5318.71656,0.06029
5320.64503,0.05012
5322.57350,0.05389
5324.50197,0.06256
5326.43044,0.06940
5328.35891,0.06325
5330.28737,0.05575
5332.21584,0.06001
5334.14431,0.06102
5336.07278,0.05250
5338.00125,0.04070
5339.92972,0.03410
5341.85819,0.03795
5343.78665,0.05070
5345.71512,0.06018
5347.64359,0.05080
5349.57206,0.04494
5351.50053,0.06416
5353.42900,0.07548
5355.35747,0.05408
5357.28594,0.04355
5359.21440,0.05670
5361.14287,0.05645
5363.07134,0.03558
5364.99981,0.03103
5366.92828,0.05020
5368.85675,0.06083
5370.78522,0.05389
5372.71368,0.05655
5374.64215,0.07973
5376.57062,0.09376
5378.49909,0.08905
5380.42756,0.07552
5382.35603,0.05313
5384.28450,0.04757
5386.21297,0.06148
5388.14143,0.06704
5390.06990,0.08271
5391.99837,0.10682
5393.92684,0.10749
5395.85531,0.09487
5397.78378,0.08644
5399.71225,0.07554
5401.64071,0.06854
5403.56918,0.06772
5405.49765,0.06644
5407.42612,0.06859
5409.35459,0.07223
5411.28306,0.06991
5413.21153,0.05931
5415.13999,0.04223
5417.06846,0.03885
5418.99693,0.05844
5420.92540,0.07623
5422.85387,0.07644
5424.78234,0.07094
5426.71081,0.06808
5428.63928,0.06428
5430.56774,0.05584
5432.49621,0.06520
5434.42468,0.10064
5436.35315,0.11702
5438.28162,0.10276
5440.21009,0.09030
5442.13856,0.07886
5444.06702,0.05779
5445.99549,0.05688
5447.92396,0.07984
5449.85243,0.08369
5451.78090,0.07790
5453.70937,0.08011
5455.63784,0.07429
5457.56631,0.06696
5459.49477,0.06660
5461.42324,0.06181
5463.35171,0.05231
5465.28018,0.04331
5467.20865,0.03662
5469.13712,0.03891
5471.06559,0.05957
5472.99405,0.08560
5474.92252,0.09884
5476.85099,0.10453
5478.77946,0.10241
5480.70793,0.08565
5482.63640,0.07368
5484.56487,0.07298
5486.49334,0.07248
5488.42180,0.07870
5490.35027,0.07671
5492.27874,0.04937
5494.20721,0.02599
5496.13568,0.02239
5498.06415,0.03092
5499.99262,0.04795
5501.92108,0.06534
5503.84955,0.08980
5505.77802,0.12313
5507.70649,0.13369
5509.63496,0.11559
5511.56343,0.10886
5513.49190,0.12525
5515.42037,0.12626
5517.34883,0.09885
5519.27730,0.07757
5521.20577,0.06507
5523.13424,0.05409
5525.06271,0.06496
5526.99118,0.09768
5528.91965,0.11850
5530.84811,0.08905
5532.77658,0.03250
5534.70505,0.00863
5536.63352,0.01906
5538.56199,0.03169
5540.49046,0.04430
5542.41893,0.05343
5544.34740,0.05636
5546.27586,0.06713
5548.20433,0.07194
5550.13280,0.07074
5552.06127,0.07931
5553.98974,0.08733
5555.91821,0.08999
5557.84668,0.09075
5559.77514,0.09830
5561.70361,0.11765
5563.63208,0.13460
5565.56055,0.13525
5567.48902,0.11889
5569.41749,0.10365
5571.34596,0.10837
5573.27443,0.11696
5575.20289,0.10701
5577.13136,0.09933
5579.05983,0.11550
5580.98830,0.13556
5582.91677,0.11856
5584.84524,0.07642
5586.77371,0.06465
5588.70217,0.08399
5590.63064,0.09206
5592.55911,0.08352
5594.48758,0.06431
5596.41605,0.04126
5598.34452,0.04605
5600.27299,0.07674
5602.20145,0.09845
5604.12992,0.10285
5606.05839,0.09513
5607.98686,0.08228
5609.91533,0.07171
5611.84380,0.07184
5613.77227,0.08538
5615.70074,0.10191
5617.62920,0.11082
5619.55767,0.10742
5621.48614,0.10813
5623.41461,0.12072
5625.34308,0.11924
5627.27155,0.09789
5629.20002,0.07864
5631.12848,0.07208
5633.05695,0.07806
5634.98542,0.08147
5636.91389,0.06823
5638.84236,0.05045
5640.77083,0.05234
5642.69930,0.07823
5644.62777,0.08233
5646.55623,0.03640
5648.48470,0.01662
5650.41317,0.05985
5652.34164,0.07711
5654.27011,0.04765
5656.19858,0.03916
5658.12705,0.05900
5660.05551,0.07732
5661.98398,0.07563
5663.91245,0.06010
5665.84092,0.07021
5667.76939,0.10156
5669.69786,0.10061
5671.62633,0.06482
5673.55480,0.03506
5675.48326,0.02922
5677.41173,0.03536
5679.34020,0.04966
5681.26867,0.08640
5683.19714,0.10628
5685.12561,0.07787
5687.05408,0.04261
5688.98254,0.03923
5690.91101,0.07038
5692.83948,0.10388
5694.76795,0.10946
5696.69642,0.08530
5698.62489,0.04852
5700.55336,0.04013
5702.48183,0.07320
5704.41029,0.10682
5706.33876,0.11853
5708.26723,0.12147
5710.19570,0.12062
5712.12417,0.12057
5714.05264,0.13000
5715.98111,0.12854
5717.90957,0.09608
5719.83804,0.06875
5721.76651,0.07616
5723.69498,0.09548
5725.62345,0.11600
5727.55192,0.12558
5729.48039,0.10949
5731.40886,0.09860
5733.33732,0.10763
5735.26579,0.11077
5737.19426,0.08940
5739.12273,0.05883
5741.05120,0.04935
5742.97967,0.06499
5744.90814,0.08139
5746.83660,0.07759
5748.76507,0.06107
5750.69354,0.05040
5752.62201,0.04422
5754.55048,0.04879
5756.47895,0.07124
5758.40742,0.10201
5760.33588,0.13839
5762.26435,0.16841
5764.19282,0.17758
5766.12129,0.16125
5768.04976,0.11696
5769.97823,0.06952
5771.90670,0.04984
5773.83517,0.05452
5775.76363,0.06601
5777.69210,0.06245
5779.62057,0.03705
5781.54904,0.01509
5783.47751,0.01833
5785.40598,0.04976
5787.33445,0.08779
5789.26291,0.10828
5791.19138,0.10701
5793.11985,0.09527
5795.04832,0.09471
5796.97679,0.10796
5798.90526,0.12048
5800.83373,0.12113
5802.76220,0.11282
5804.69066,0.11558
5806.61913,0.12929
5808.54760,0.12292
5810.47607,0.09700
5812.40454,0.07704
5814.33301,0.05887
5816.26148,0.04735
5818.18994,0.05985
5820.11841,0.07804
5822.04688,0.07468
5823.97535,0.06189
5825.90382,0.07426
5827.83229,0.10257
5829.76076,0.10957
5831.68923,0.09252
5833.61769,0.07324
5835.54616,0.06628
5837.47463,0.07857
5839.40310,0.09293
5841.33157,0.06454
5843.26004,0.00990
5845.18851,-0.00572
5847.11697,0.02168
5849.04544,0.05234
5850.97391,0.06055
5852.90238,0.06022
5854.83085,0.07182
5856.75932,0.09786
5858.68779,0.13448
5860.61626,0.16209
5862.54472,0.15086
5864.47319,0.11520
5866.40166,0.10634
5868.33013,0.12897
5870.25860,0.14564
5872.18707,0.13620
5874.11554,0.12221
5876.04400,0.13569
5877.97247,0.14958
5879.90094,0.12435
5881.82941,0.08751
5883.75788,0.08715
5885.68635,0.09537
5887.61482,0.05514
5889.54329,0.00566
5891.47175,-0.00084
5893.40022,0.02713
5895.32869,0.06968
5897.25716,0.08664
5899.18563,0.07330
5901.11410,0.09169
5903.04257,0.14970
5904.97103,0.18171
5906.89950,0.16944
5908.82797,0.12175
5910.75644,0.05886
5912.68491,0.03456
5914.61338,0.04809
5916.54185,0.06386
5918.47032,0.09281
5920.39878,0.12369
5922.32725,0.10790
5924.25572,0.05243
5926.18419,0.01154
5928.11266,0.00895
5930.04113,0.04110
5931.96960,0.09804
5933.89806,0.14817
5935.82653,0.16391
5937.75500,0.15873
5939.68347,0.14241
5941.61194,0.09695
5943.54041,0.03893
5945.46888,0.01775
5947.39734,0.03973
5949.32581,0.07519
5951.25428,0.10690
5953.18275,0.12148
5955.11122,0.10467
5957.03969,0.07498
5958.96816,0.07044
5960.89663,0.09501
5962.82509,0.09781
5964.75356,0.08127
5966.68203,0.08611
5968.61050,0.07680
5970.53897,0.03614
5972.46744,0.02600
5974.39591,0.07467
5976.32437,0.13212
5978.25284,0.12555
5980.18131,0.06422
5982.10978,0.04267
5984.03825,0.08941
5985.96672,0.11773
5987.89519,0.09943
5989.82366,0.12107
5991.75212,0.19207
5993.68059,0.20940
5995.60906,0.14787
5997.53753,0.09873
5999.46600,0.08493
6001.39447,0.06572
6003.32294,0.03317
6005.25140,0.01266
6007.17987,0.01218
6009.10834,0.02045
6011.03681,0.04615
6012.96528,0.06339
6014.89375,0.05701
6016.82222,0.07145
6018.75069,0.10287
6020.67915,0.10660
6022.60762,0.09671
6024.53609,0.10071
6026.46456,0.08926
6028.39303,0.04501
6030.32150,0.03867
6032.24997,0.09659
6034.17843,0.13908
6036.10690,0.14011
6038.03537,0.14787
6039.96384,0.14196
6041.89231,0.10651
6043.82078,0.08277
6045.74925,0.05694
6047.67772,0.01536
6049.60618,0.01569
6051.53465,0.07861
6053.46312,0.14311
6055.39159,0.16935
6057.32006,0.16459
6059.24853,0.12732
6061.17700,0.07457
6063.10546,0.03155
6065.03393,0.01812
6066.96240,0.05673
6068.89087,0.09803
6070.81934,0.10314
6072.74781,0.10827
6074.67628,0.11164
6076.60475,0.08550
6078.53321,0.04180
6080.46168,0.00403
6082.39015,0.00106
6084.31862,0.04505
6086.24709,0.08134
6088.17556,0.07389
6090.10403,0.08246
6092.03249,0.11670
6093.96096,0.13395
6095.88943,0.13189
6097.81790,0.09826
6099.74637,0.05448
6101.67484,0.05757
6103.60331,0.09042
6105.53177,0.12858
6107.46024,0.16119
6109.38871,0.15170
6111.31718,0.11837
6113.24565,0.10840
6115.17412,0.11844
6117.10259,0.12128
6119.03106,0.12315
6120.95952,0.15583
6122.88799,0.17533
6124.81646,0.14530
6126.74493,0.12572
6128.67340,0.15345
6130.60187,0.17347
6132.53034,0.14510
6134.45880,0.09825
6136.38727,0.07664
6138.31574,0.09233
6140.24421,0.10101
6142.17268,0.07434
6144.10115,0.06570
6146.02962,0.07098
6147.95809,0.06433
6149.88655,0.08677
6151.81502,0.12504
6153.74349,0.11825
6155.67196,0.08903
6157.60043,0.08525
6159.52890,0.09558
6161.45737,0.10743
6163.38583,0.12836
6165.31430,0.14793
6167.24277,0.14511
6169.17124,0.11450
6171.09971,0.07332
6173.02818,0.02583
6174.95665,-0.02226
6176.88512,-0.02743
6178.81358,0.02505
6180.74205,0.08793
6182.67052,0.11791
6184.59899,0.11998
6186.52746,0.09753
6188.45593,0.03683
6190.38440,-0.00229
6192.31286,0.03475
6194.24133,0.10223
6196.16980,0.13770
6198.09827,0.09921
6200.02674,0.00892
6201.95521,-0.03742
6203.88368,0.02200
6205.81215,0.13389
6207.74061,0.17713
6209.66908,0.11848
6211.59755,0.05642
6213.52602,0.04978
6215.45449,0.06451
6217.38296,0.09227
6219.31143,0.11120
6221.23989,0.11296
6223.16836,0.12380
6225.09683,0.11891
6227.02530,0.08173
6228.95377,0.05684
6230.88224,0.05220
6232.81071,0.03175
6234.73918,0.00304
6236.66764,0.02799
6238.59611,0.11384
6240.52458,0.15989
6242.45305,0.10333
6244.38152,0.03404
6246.30999,0.02165
6248.23846,0.04677
6250.16692,0.07570
6252.09539,0.09641
6254.02386,0.13942
6255.95233,0.17069
6257.88080,0.16215
6259.80927,0.16603
6261.73774,0.16490
6263.66621,0.10857
6265.59467,0.01899
6267.52314,-0.01424
6269.45161,0.05593
6271.38008,0.14788
6273.30855,0.17524
6275.23702,0.14281
6277.16549,0.09787
6279.09395,0.07826
6281.02242,0.10557
6282.95089,0.15273
6284.87936,0.18633
6286.80783,0.18170
6288.73630,0.12973
6290.66477,0.08898
6292.59323,0.09449
6294.52170,0.11316
6296.45017,0.12975
6298.37864,0.12312
6300.30711,0.06773
6302.23558,0.01747
6304.16405,0.05021
6306.09252,0.10481
6308.02098,0.10042
6309.94945,0.08079
6311.87792,0.11550
6313.80639,0.18396
6315.73486,0.19876
6317.66333,0.14111
6319.59180,0.08571
6321.52026,0.04582
6323.44873,0.01800
6325.37720,0.05533
6327.30567,0.10540
6329.23414,0.08584
6331.16261,0.05511
6333.09108,0.05373
6335.01955,0.03549
6336.94801,-0.01223
6338.87648,-0.04278
6340.80495,0.00168
6342.73342,0.08616
6344.66189,0.12341
6346.59036,0.09559
6348.51883,0.06201
6350.44729,0.06295
6352.37576,0.07048
6354.30423,0.03148
6356.23270,-0.01154
6358.16117,0.02053
6360.08964,0.05145
6362.01811,0.00601
6363.94658,-0.01299
6365.87504,0.05096
6367.80351,0.12064
6369.73198,0.12289
6371.66045,0.06396
6373.58892,0.01965
6375.51739,0.01821
6377.44586,0.00692
6379.37432,0.00084
6381.30279,0.07670
6383.23126,0.20928
6385.15973,0.24504
6387.08820,0.18645
6389.01667,0.14650
6390.94514,0.11867
6392.87361,0.05976
6394.80207,0.03466
6396.73054,0.06072
6398.65901,0.07077
6400.58748,0.05693
6402.51595,0.03820
6404.44442,0.04210
6406.37289,0.06667
6408.30135,0.07095
6410.22982,0.06916
6412.15829,0.09002
6414.08676,0.11334
6416.01523,0.10155
6417.94370,0.08636
6419.87217,0.11450
6421.80064,0.12388
6423.72910,0.11464
6425.65757,0.13582
6427.58604,0.14345
6429.51451,0.12557
6431.44298,0.11499
6433.37145,0.09066
6435.29992,0.07821
6437.22838,0.09444
6439.15685,0.08483
6441.08532,0.04414
6443.01379,0.00034
6444.94226,0.00070
6446.87073,0.03918
6448.79920,0.03943
6450.72766,0.01679
6452.65613,0.04130
6454.58460,0.10618
6456.51307,0.15872
6458.44154,0.14792
6460.37001,0.10759
6462.29848,0.09084
6464.22695,0.08050
6466.15541,0.07030
6468.08388,0.07340
6470.01235,0.07455
6471.94082,0.06661
6473.86929,0.06595
6475.79776,0.08100
6477.72623,0.09940
6479.65469,0.09388
6481.58316,0.05394
6483.51163,0.03647
6485.44010,0.06387
6487.36857,0.08235
6489.29704,0.08731
6491.22551,0.11683
6493.15398,0.15240
6495.08244,0.15975
6497.01091,0.14381
6498.93938,0.08888
6500.86785,-0.00825
6502.79632,-0.07401
6504.72479,-0.04999
6506.65326,0.04536
6508.58172,0.14486
6510.51019,0.16568
6512.43866,0.12041
6514.36713,0.12230
6516.29560,0.17398
6518.22407,0.17312
6520.15254,0.12238
6522.08101,0.08130
6524.00947,0.05739
6525.93794,0.07011
6527.86641,0.10609
6529.79488,0.08825
6531.72335,0.02456
6533.65182,0.00579
6535.58029,0.05565
6537.50875,0.08741
6539.43722,0.07038
6541.36569,0.08789
6543.29416,0.12040
6545.22263,0.09226
6547.15110,0.05859
6549.07957,0.05921
6551.00804,0.05294
6552.93650,0.04039
6554.86497,0.05937
6556.79344,0.10051
6558.72191,0.11555
6560.65038,0.06183
6562.57885,-0.00105
6564.50732,0.04373
6566.43578,0.17809
6568.36425,0.25336
6570.29272,0.19931
6572.22119,0.07907
6574.14966,0.01902
6576.07813,0.05376
6578.00660,0.08408
6579.93507,0.05643
6581.86353,0.01504
6583.79200,-0.00771
6585.72047,-0.01602
6587.64894,-0.00260
6589.57741,0.04127
6591.50588,0.07028
6593.43435,0.03375
6595.36281,-0.03594
6597.29128,-0.07019
6599.21975,-0.08571
6601.14822,-0.06410
6603.07669,0.02147
6605.00516,0.04065
6606.93363,-0.01939
6608.86210,-0.00977
6610.79056,0.07470
6612.71903,0.11358
6614.64750,0.08372
6616.57597,0.04096
6618.50444,0.02650
6620.43291,0.07882
6622.36138,0.15224
6624.28984,0.14938
6626.21831,0.11932
6628.14678,0.12120
6630.07525,0.08796
6632.00372,0.04605
6633.93219,0.06280
6635.86066,0.08203
6637.78912,0.08555
6639.71759,0.09127
6641.64606,0.04815
6643.57453,-0.01766
6645.50300,0.01464
6647.43147,0.11924
6649.35994,0.15615
6651.28841,0.09591
6653.21687,-0.01160
6655.14534,-0.04407
6657.07381,0.06722
6659.00228,0.18088
6660.93075,0.18899
6662.85922,0.13011
6664.78769,0.07748
6666.71615,0.07424
6668.64462,0.08037
6670.57309,0.04420
6672.50156,0.03109
6674.43003,0.07573
6676.35850,0.08899
6678.28697,0.06201
6680.21544,0.03132
6682.14390,0.02454
6684.07237,0.08662
6686.00084,0.15883
6687.92931,0.13209
6689.85778,0.07465
6691.78625,0.08992
6693.71472,0.11772
6695.64318,0.10539
6697.57165,0.04098
6699.50012,-0.01088
6701.42859,0.03895
6703.35706,0.13889
6705.28553,0.17532
6707.21400,0.10937
6709.14247,0.04331
6711.07093,0.08175
6712.99940,0.14560
6714.92787,0.15548
6716.85634,0.12074
6718.78481,0.06798
6720.71328,0.05314
6722.64175,0.09182
6724.57021,0.11081
6726.49868,0.10091
6728.42715,0.10256
6730.35562,0.12396
6732.28409,0.13269
6734.21256,0.06551
6736.14103,-0.00893
6738.06950,0.06985
6739.99796,0.23489
6741.92643,0.26645
6743.85490,0.15464
6745.78337,0.06503
6747.71184,0.04752
6749.64031,0.06373
6751.56878,0.04286
6753.49724,-0.01850
6755.42571,0.00913
6757.35418,0.12968
6759.28265,0.16870
6761.21112,0.08526
6763.13959,0.03136
6765.06806,0.04812
6766.99653,0.08892
6768.92499,0.10303
6770.85346,0.06980
6772.78193,0.03156
6774.71040,0.04220
6776.63887,0.11384
6778.56734,0.15988
6780.49581,0.12823
6782.42427,0.07049
6784.35274,0.05011
6786.28121,0.08476
6788.20968,0.10434
6790.13815,0.04678
6792.06662,-0.01899
6793.99509,-0.04435
6795.92355,-0.08288
6797.85202,-0.11694
6799.78049,-0.07036
6801.70896,0.03586
6803.63743,0.04207
6805.56590,-0.04304
6807.49437,-0.01668
6809.42284,0.08240
6811.35130,0.05033
6813.27977,-0.08622
6815.20824,-0.13943
6817.13671,-0.09353
6819.06518,0.00842
6820.99365,0.15301
6822.92212,0.24285
6824.85058,0.18774
6826.77905,0.07341
6828.70752,-0.01020
6830.63599,-0.02213
6832.56446,-0.00516
6834.49293,-0.01310
6836.42140,-0.02529
6838.34987,0.04385
6840.27833,0.19450
6842.20680,0.25676
6844.13527,0.15732
6846.06374,0.06613
6847.99221,0.06909
6849.92068,0.05276
6851.84915,-0.01728
6853.77761,-0.06487
6855.70608,-0.04242
6857.63455,0.00964
6859.56302,0.05432
6861.49149,0.09527
6863.41996,0.09457
6865.34843,0.06977
6867.27690,0.05557
6869.20536,0.02000
6871.13383,-0.00450
6873.06230,0.05126
6874.99077,0.11708
6876.91924,0.13448
6878.84771,0.13392
6880.77618,0.16285
6882.70464,0.22884
6884.63311,0.24339
6886.56158,0.17672
6888.49005,0.07902
6890.41852,-0.01653
6892.34699,-0.07037
6894.27546,-0.04372
6896.20393,0.05828
6898.13239,0.13139
6900.06086,0.07935
6901.98933,0.01769
6903.91780,0.04678
6905.84627,0.12846
6907.77474,0.19267
6909.70321,0.19900
6911.63167,0.14720
6913.56014,0.04264
6915.48861,-0.05377
6917.41708,-0.06574
6919.34555,-0.01037
6921.27402,0.11199
6923.20249,0.23268
6925.13096,0.22257
6927.05942,0.11516
6928.98789,0.02103
6930.91636,-0.01163
6932.84483,-0.00639
6934.77330,0.01015
6936.70177,0.00850
6938.63024,-0.06220
6940.55870,-0.14804
6942.48717,-0.08463
6944.41564,0.05762
6946.34411,0.10659
6948.27258,0.05762
6950.20105,0.02946
6952.12952,0.09292
6954.05799,0.21888
6955.98645,0.26555
6957.91492,0.18404
6959.84339,0.13049
6961.77186,0.16325
6963.70033,0.13475
6965.62880,-0.00472
6967.55727,-0.06349
6969.48573,0.07547
6971.41420,0.22620
6973.34267,0.23360
6975.27114,0.10676
6977.19961,-0.00895
6979.12808,0.00248
6981.05655,0.08131
6982.98501,0.16902
6984.91348,0.24727
6986.84195,0.20937
6988.77042,0.01764
6990.69889,-0.10491
6992.62736,-0.04700
6994.55583,0.01820
6996.48430,-0.05660
6998.41276,-0.18678
7000.34123,-0.19606
7002.26970,-0.12635
7004.19817,-0.04988
7006.12664,0.00449
7008.05511,-0.01862
7009.98358,-0.04771
7011.91204,-0.06639
7013.84051,-0.12861
7015.76898,-0.10636
7017.69745,0.00148
7019.62592,0.06285
7021.55439,0.13834
7023.48286,0.28470
7025.41133,0.31887
7027.33979,0.17567
7029.26826,0.04636
7031.19673,0.05624
7033.12520,0.12059
7035.05367,0.18036
7036.98214,0.20764
7038.91061,0.14269
7040.83907,-0.00008
7042.76754,-0.07609
7044.69601,0.00741
7046.62448,0.09267
7048.55295,-0.00138
7050.48142,-0.14476
7052.40989,-0.11359
7054.33836,0.05830
7056.26682,0.21174
7058.19529,0.24075
7060.12376,0.18058
7062.05223,0.16964
7063.98070,0.16552
7065.90917,0.12235
7067.83764,0.12515
7069.76610,0.13545
7071.69457,0.04368
7073.62304,-0.08063
7075.55151,-0.08677
7077.47998,0.03484
7079.40845,0.14561
7081.33692,0.10799
7083.26539,-0.01727
7085.19385,-0.07860
7087.12232,-0.01123
7089.05079,0.08317
7090.97926,0.06880
7092.90773,0.05078
7094.83620,0.10394
7096.76467,0.13647
7098.69313,0.08473
7100.62160,0.01370
7102.55007,0.01399
7104.47854,0.04167
7106.40701,0.02585
7108.33548,0.03216
7110.26395,0.08227
7112.19242,0.08289
7114.12088,0.06026
7116.04935,0.11441
7117.97782,0.13923
7119.90629,0.04648
7121.83476,0.01042
7123.76323,0.11119
7125.69170,0.22941
7127.62016,0.18281
7129.54863,0.03755
7131.47710,-0.00714
7133.40557,0.05327
7135.33404,0.10078
7137.26251,0.10149
7139.19098,0.13005
7141.11944,0.23369
7143.04791,0.34330
7144.97638,0.31932
7146.90485,0.11530
7148.83332,-0.04560
7150.76179,-0.04143
7152.69026,0.04819
7154.61873,0.16326
7156.54719,0.24736
7158.47566,0.24366
7160.40413,0.13346
7162.33260,-0.03244
7164.26107,-0.06875
7166.18954,0.08941
7168.11801,0.21992
7170.04647,0.13140
7171.97494,-0.03778
7173.90341,-0.02504
7175.83188,0.10585
7177.76035,0.12895
7179.68882,0.09423
7181.61729,0.22810
7183.54576,0.42004
7185.47422,0.39999
7187.40269,0.34704
7189.33116,0.36534
7191.25963,0.32512
7193.18810,0.19738
7195.11657,0.14227
7197.04504,0.22442
7198.97350,0.28660
7200.90197,0.22654
7202.83044,0.09933
7204.75891,0.01784
7206.68738,0.07096
7208.61585,0.08512
7210.54432,-0.00072
7212.47279,-0.05777
7214.40125,-0.10031
7216.32972,-0.24926
7218.25819,-0.31490
7220.18666,-0.18698
7222.11513,-0.09926
7224.04360,0.03038
7225.97207,0.22881
7227.90053,0.29937
7229.82900,0.21175
7231.75747,0.03708
7233.68594,-0.07287
7235.61441,-0.07061
7237.54288,-0.04601
7239.47135,-0.06380
7241.39982,-0.11283
7243.32828,-0.15675
7245.25675,-0.14484
7247.18522,-0.09774
7249.11369,-0.03959
7251.04216,0.08084
7252.97063,0.20113
7254.89910,0.12750
7256.82756,0.03131
7258.75603,0.07690
7260.68450,0.24025
7262.61297,0.41153
7264.54144,0.46431
7266.46991,0.29940
7268.39838,0.01916
7270.32685,-0.21818
7272.25531,-0.19750
7274.18378,0.02744
7276.11225,0.14553
7278.04072,0.16599
7279.96919,0.11241
7281.89766,-0.00958
7283.82613,-0.04059
7285.75459,0.03550
7287.68306,0.12170
7289.61153,0.20896
7291.54000,0.22609
7293.46847,0.16299
7295.39694,0.16419
7297.32541,0.17646
7299.25387,0.17407
7301.18234,0.19759
7303.11081,0.17570
7305.03928,0.10789
7306.96775,0.01484
7308.89622,-0.09316
7310.82469,0.01494
7312.75316,0.29264
7314.68162,0.48405
7316.61009,0.51554
7318.53856,0.45364
7320.46703,0.34036
7322.39550,0.23454
7324.32397,0.28673
7326.25244,0.43235
7328.18090,0.38171
7330.10937,0.09389
7332.03784,0.00762
7333.96631,0.11675
7335.89478,0.16324
7337.82325,0.14737
7339.75172,0.12652
7341.68019,0.08929
7343.60865,0.02601
7345.53712,-0.04700
7347.46559,-0.01631
7349.39406,0.14825
7351.32253,0.18353
7353.25100,0.04638
7355.17947,0.04729
7357.10793,0.16072
7359.03640,0.05011
7360.96487,-0.13486
7362.89334,-0.08052
7364.82181,0.13249
7366.75028,0.29381
7368.67875,0.31028
7370.60722,0.26677
7372.53568,0.30171
7374.46415,0.40752
7376.39262,0.35321
7378.32109,0.21711
7380.24956,0.19144
7382.17803,0.19594
7384.10650,0.11048
7386.03496,-0.00626
7387.96343,0.00116
7389.89190,0.13470
7391.82037,0.23571
7393.74884,0.18957
7395.67731,0.07844
7397.60578,0.12017
7399.53425,0.27068
7401.46271,0.30730
7403.39118,0.11237
7405.31965,-0.20343
7407.24812,-0.33592
7409.17659,-0.23462
7411.10506,-0.02754
7413.03353,0.12321
7414.96199,0.20457
7416.89046,0.36082
7418.81893,0.50410
7420.74740,0.34128
7422.67587,0.13501
7424.60434,0.04170
7426.53281,-0.03315
7428.46128,-0.06055
7430.38974,-0.01194
7432.31821,0.00325
7434.24668,-0.00206
7436.17515,0.03335
7438.10362,0.11270
7440.03209,0.20744
7441.96056,0.18031
7443.88902,-0.02858
7445.81749,-0.15880
7447.74596,-0.01052
7449.67443,0.21794
7451.60290,0.13528
7453.53137,-0.10381
7455.45984,-0.05469
7457.38831,0.18842
7459.31677,0.35799
7461.24524,0.32328
7463.17371,0.22917
7465.10218,0.15362
7467.03065,0.04416
7468.95912,-0.01141
7470.88759,0.09026
7472.81605,0.15574
7474.74452,0.08949
7476.67299,0.10220
7478.60146,0.16781
7480.52993,0.04099
7482.45840,-0.14482
7484.38687,-0.13560
7486.31533,-0.03072
7488.24380,0.06644
7490.17227,0.11727
7492.10074,0.09833
7494.02921,0.07257
7495.95768,0.09739
7497.88615,0.17621
