399.19301,3.35726
401.12148,0.04348
403.04995,-0.22518
404.97842,-0.06519
406.90689,0.04069
408.83536,0.00091
410.76382,0.02370
412.69229,0.18282
414.62076,0.24908
416.54923,0.21729
418.47770,0.17913
420.40617,0.11415
422.33464,0.06587
424.26311,0.08911
426.19157,0.12925
428.12004,0.07609
430.04851,-0.01733
431.97698,-0.03363
433.90545,0.00281
435.83392,0.03664
437.76239,0.04684
439.69085,0.04240
441.61932,0.07260
443.54779,0.13543
445.47626,0.16510
447.40473,0.14316
449.33320,0.09314
451.26167,0.07758
453.19013,0.10663
455.11860,0.12874
457.04707,0.15037
458.97554,0.17263
460.90401,0.14815
462.83248,0.11851
464.76095,0.11390
466.68942,0.10825
468.61788,0.12172
470.54635,0.18792
472.47482,0.25271
474.40329,0.18850
476.33176,0.10677
478.26023,0.10051
480.18870,0.09961
482.11716,0.07363
484.04563,0.04684
485.97410,0.05502
487.90257,0.09202
489.83104,0.11263
491.75951,0.07766
493.68798,0.03157
495.61645,0.03700
497.54491,0.08508
499.47338,0.12155
501.40185,0.12800
503.33032,0.12877
505.25879,0.13555
507.18726,0.13101
509.11573,0.11702
511.04419,0.10590
512.97266,0.08848
514.90113,0.07650
516.82960,0.08136
518.75807,0.07742
520.68654,0.06859
522.61501,0.06212
524.54348,0.05536
526.47194,0.07110
528.40041,0.09541
530.32888,0.09350
532.25735,0.08409
534.18582,0.09243
536.11429,0.07880
538.04276,0.04790
539.97122,0.06536
541.89969,0.10603
543.82816,0.12376
545.75663,0.14093
547.68510,0.17244
549.61357,0.18776
551.54204,0.16759
553.47051,0.13022
555.39897,0.08954
557.32744,0.06735
559.25591,0.07900
561.18438,0.09738
563.11285,0.09494
565.04132,0.06604
566.96979,0.04285
568.89825,0.07408
570.82672,0.12893
572.75519,0.14781
574.68366,0.13211
576.61213,0.11338
578.54060,0.10785
580.46907,0.10070
582.39754,0.08657
584.32600,0.09520
586.25447,0.12013
588.18294,0.12663
590.11141,0.11687
592.03988,0.09681
593.96835,0.07659
595.89682,0.08406
597.82528,0.10562
599.75375,0.11552
601.68222,0.11607
603.61069,0.10618
605.53916,0.09284
607.46763,0.09213
609.39610,0.09758
611.32456,0.09301
613.25303,0.08759
615.18150,0.10431
617.10997,0.12521
619.03844,0.12300
620.96691,0.12046
622.89538,0.13737
624.82385,0.14931
626.75231,0.13404
628.68078,0.10919
630.60925,0.10976
632.53772,0.13345
634.46619,0.13674
636.39466,0.10994
638.32313,0.09504
640.25159,0.11438
642.18006,0.13533
644.10853,0.12539
646.03700,0.10666
647.96547,0.10804
649.89394,0.11805
651.82241,0.12390
653.75088,0.12697
655.67934,0.12440
657.60781,0.12241
659.53628,0.11951
661.46475,0.10685
663.39322,0.09737
665.32169,0.09415
667.25016,0.07419
669.17862,0.05109
671.10709,0.06701
673.03556,0.08990
674.96403,0.11339
676.89250,0.13489
678.82097,0.13573
680.74944,0.11851
682.67791,0.10403
684.60637,0.10549
686.53484,0.11424
688.46331,0.11463
690.39178,0.10888
692.32025,0.10189
694.24872,0.10057
696.17719,0.10594
698.10565,0.10636
700.03412,0.10308
701.96259,0.10920
703.89106,0.12729
705.81953,0.13927
707.74800,0.13147
709.67647,0.12340
711.60494,0.13336
713.53340,0.14235
715.46187,0.13072
717.39034,0.10882
719.31881,0.09696
721.24728,0.10456
723.17575,0.11327
725.10422,0.11169
727.03268,0.11336
728.96115,0.10899
730.88962,0.09350
732.81809,0.09479
734.74656,0.11212
736.67503,0.12138
738.60350,0.11995
740.53197,0.11218
742.46043,0.11013
744.38890,0.12523
746.31737,0.14811
748.24584,0.16304
750.17431,0.16288
752.10278,0.15416
754.03125,0.15077
755.95971,0.15482
757.88818,0.15447
759.81665,0.15051
761.74512,0.15550
763.67359,0.15918
765.60206,0.15107
767.53053,0.14711
769.45900,0.14828
771.38746,0.13783
773.31593,0.12359
775.24440,0.12098
777.17287,0.12319
779.10134,0.12355
781.02981,0.12875
782.95828,0.14198
784.88674,0.15089
786.81521,0.14084
788.74368,0.12123
790.67215,0.11340
792.60062,0.12107
794.52909,0.12818
796.45756,0.11842
798.38602,0.10040
800.31449,0.09350
802.24296,0.10167
804.17143,0.11622
806.09990,0.12969
808.02837,0.13479
809.95684,0.12745
811.88531,0.11665
813.81377,0.11293
815.74224,0.11334
817.67071,0.11247
819.59918,0.11546
821.52765,0.12547
823.45612,0.13400
825.38459,0.12883
827.31305,0.11900
829.24152,0.12559
831.16999,0.13790
833.09846,0.13930
835.02693,0.13355
836.95540,0.12674
838.88387,0.12783
840.81234,0.13642
842.74080,0.13649
844.66927,0.12803
846.59774,0.12902
848.52621,0.13906
850.45468,0.14437
852.38315,0.13931
854.31162,0.12622
856.24008,0.11626
858.16855,0.11337
860.09702,0.11207
862.02549,0.11235
863.95396,0.11382
865.88243,0.11558
867.81090,0.12077
869.73937,0.12677
871.66783,0.12580
873.59630,0.12195
875.52477,0.12287
877.45324,0.12738
879.38171,0.13483
881.31018,0.14081
883.23865,0.14122
885.16711,0.14256
887.09558,0.14237
889.02405,0.13240
890.95252,0.12372
892.88099,0.12617
894.80946,0.13149
896.73793,0.13357
898.66640,0.13360
900.59486,0.13347
902.52333,0.13194
904.45180,0.12473
906.38027,0.11770
908.30874,0.12075
910.23721,0.12820
912.16568,0.13206
914.09414,0.13604
916.02261,0.13853
917.95108,0.13412
919.87955,0.12960
921.80802,0.13020
923.73649,0.13234
925.66496,0.13528
927.59343,0.13690
929.52189,0.13482
931.45036,0.13363
933.37883,0.13249
935.30730,0.12876
937.23577,0.12745
939.16424,0.12727
941.09271,0.12709
943.02117,0.12989
944.94964,0.13085
946.87811,0.12998
948.80658,0.13381
950.73505,0.14304
952.66352,0.14839
954.59199,0.14068
956.52045,0.13152
958.44892,0.13490
960.37739,0.14245
962.30586,0.14327
964.23433,0.13982
966.16280,0.13599
968.09127,0.13423
970.01974,0.13730
971.94820,0.14287
973.87667,0.14616
975.80514,0.14279
977.73361,0.13423
979.66208,0.12926
981.59055,0.12943
983.51902,0.12871
985.44748,0.12928
987.37595,0.13273
989.30442,0.13340
991.23289,0.13204
993.16136,0.13387
995.08983,0.13964
997.01830,0.14280
998.94677,0.14039
1000.87523,0.13884
1002.80370,0.14000
1004.73217,0.13936
1006.66064,0.13679
1008.58911,0.13702
1010.51758,0.13880
1012.44605,0.14067
1014.37451,0.14365
1016.30298,0.14504
1018.23145,0.14701
1020.15992,0.14853
1022.08839,0.14459
1024.01686,0.13713
1025.94533,0.13196
1027.87380,0.13943
1029.80226,0.15673
1031.73073,0.16369
1033.65920,0.15595
1035.58767,0.14494
1037.51614,0.13740
1039.44461,0.13372
1041.37308,0.13550
1043.30154,0.14321
1045.23001,0.14538
1047.15848,0.13707
1049.08695,0.13388
1051.01542,0.14496
1052.94389,0.15743
1054.87236,0.16114
1056.80083,0.16273
1058.72929,0.16047
1060.65776,0.15405
1062.58623,0.15675
1064.51470,0.16597
1066.44317,0.17035
1068.37164,0.16767
1070.30011,0.15790
1072.22857,0.14603
1074.15704,0.14198
1076.08551,0.14581
1078.01398,0.14716
1079.94245,0.14449
1081.87092,0.14399
1083.79939,0.14699
1085.72786,0.14902
1087.65632,0.14873
1089.58479,0.14710
1091.51326,0.13645
1093.44173,0.12547
1095.37020,0.13264
1097.29867,0.14643
1099.22714,0.15300
1101.15560,0.15506
1103.08407,0.15137
1105.01254,0.14691
1106.94101,0.15149
1108.86948,0.16130
1110.79795,0.16611
1112.72642,0.16552
1114.65489,0.16492
1116.58335,0.16203
1118.51182,0.15358
1120.44029,0.14547
1122.36876,0.14265
1124.29723,0.14602
1126.22570,0.15489
1128.15417,0.16309
1130.08263,0.16426
1132.01110,0.15803
1133.93957,0.15054
1135.86804,0.14837
1137.79651,0.15002
1139.72498,0.14953
1141.65345,0.14586
1143.58191,0.14475
1145.51038,0.14777
1147.43885,0.14815
1149.36732,0.14504
1151.29579,0.14406
1153.22426,0.14768
1155.15273,0.15604
1157.08120,0.16419
1159.00966,0.16615
1160.93813,0.16625
1162.86660,0.17020
1164.79507,0.17433
1166.72354,0.17158
1168.65201,0.16409
1170.58048,0.16196
1172.50894,0.16273
1174.43741,0.15647
1176.36588,0.14928
1178.29435,0.14879
1180.22282,0.14853
1182.15129,0.14826
1184.07976,0.15242
1186.00823,0.15375
1187.93669,0.15086
1189.86516,0.15184
1191.79363,0.15365
1193.72210,0.15113
1195.65057,0.15037
1197.57904,0.15649
1199.50751,0.16237
1201.43597,0.15978
1203.36444,0.15442
1205.29291,0.15617
1207.22138,0.16042
1209.14985,0.15726
1211.07832,0.15249
1213.00679,0.15509
1214.93526,0.16009
1216.86372,0.16026
1218.79219,0.15742
1220.72066,0.15650
1222.64913,0.15594
1224.57760,0.15444
1226.50607,0.15524
1228.43454,0.15752
1230.36300,0.16043
1232.29147,0.16366
1234.21994,0.16319
1236.14841,0.15935
1238.07688,0.15632
1240.00535,0.15436
1241.93382,0.15320
1243.86229,0.15269
1245.79075,0.15135
1247.71922,0.15325
1249.64769,0.15889
1251.57616,0.16008
1253.50463,0.15808
1255.43310,0.15997
1257.36157,0.16467
1259.29003,0.16802
1261.21850,0.16654
1263.14697,0.16248
1265.07544,0.16177
1267.00391,0.16177
1268.93238,0.16079
1270.86085,0.16174
1272.78932,0.16241
1274.71778,0.16069
1276.64625,0.15779
1278.57472,0.15529
1280.50319,0.15391
1282.43166,0.15511
1284.36013,0.15933
1286.28860,0.16309
1288.21706,0.16410
1290.14553,0.16433
1292.07400,0.16584
1294.00247,0.16691
1295.93094,0.16555
1297.85941,0.16258
1299.78788,0.16011
1301.71634,0.15715
1303.64481,0.15123
1305.57328,0.14937
1307.50175,0.15620
1309.43022,0.16287
1311.35869,0.16555
1313.28716,0.16829
1315.21563,0.16999
1317.14409,0.16860
1319.07256,0.16708
1321.00103,0.16737
1322.92950,0.16630
1324.85797,0.16215
1326.78644,0.15816
1328.71491,0.15605
1330.64337,0.15502
1332.57184,0.15634
1334.50031,0.15919
1336.42878,0.15954
1338.35725,0.15786
1340.28572,0.15699
1342.21419,0.15792
1344.14266,0.16236
1346.07112,0.16743
1347.99959,0.16868
1349.92806,0.16642
1351.85653,0.16241
1353.78500,0.15904
1355.71347,0.15858
1357.64194,0.16152
1359.57040,0.16577
1361.49887,0.16862
1363.42734,0.16870
1365.35581,0.16820
1367.28428,0.16883
1369.21275,0.16870
1371.14122,0.17104
1373.06969,0.17869
1374.99815,0.18359
1376.92662,0.18004
1378.85509,0.17341
1380.78356,0.16860
1382.71203,0.16710
1384.64050,0.16999
1386.56897,0.17598
1388.49743,0.17691
1390.42590,0.17364
1392.35437,0.17154
1394.28284,0.16899
1396.21131,0.17015
1398.13978,0.17689
1400.06825,0.18015
1401.99672,0.17752
1403.92518,0.17469
1405.85365,0.17521
1407.78212,0.17561
1409.71059,0.17465
1411.63906,0.17586
1413.56753,0.17845
1415.49600,0.18081
1417.42446,0.18174
1419.35293,0.17641
1421.28140,0.17032
1423.20987,0.17079
1425.13834,0.17481
1427.06681,0.17845
1428.99528,0.18072
1430.92375,0.18058
1432.85221,0.17883
1434.78068,0.17904
1436.70915,0.18121
1438.63762,0.17982
1440.56609,0.17778
1442.49456,0.17901
1444.42303,0.18011
1446.35149,0.17877
1448.27996,0.17698
1450.20843,0.17532
1452.13690,0.17527
1454.06537,0.17847
1455.99384,0.18701
1457.92231,0.19580
1459.85077,0.19051
1461.77924,0.18428
1463.70771,0.18161
1465.63618,0.17734
1467.56465,0.17367
1469.49312,0.17475
1471.42159,0.18040
1473.35006,0.18723
1475.27852,0.18750
1477.20699,0.18333
1479.13546,0.18030
1481.06393,0.17913
1482.99240,0.17897
1484.92087,0.18244
1486.84934,0.19240
1488.77780,0.20420
1490.70627,0.20183
1492.63474,0.18941
1494.56321,0.18127
1496.49168,0.18005
1498.42015,0.18171
1500.34862,0.18231
1502.27709,0.18452
1504.20555,0.19060
1506.13402,0.20551
1508.06249,0.21455
1509.99096,0.20336
1511.91943,0.19372
1513.84790,0.19246
1515.77637,0.19630
1517.70483,0.19896
1519.63330,0.20630
1521.56177,0.21590
1523.49024,0.20715
1525.41871,0.19338
1527.34718,0.18913
1529.27565,0.19210
1531.20412,0.19834
1533.13258,0.20176
1535.06105,0.19604
1536.98952,0.19448
1538.91799,0.20653
1540.84646,0.22197
1542.77493,0.21911
1544.70340,0.20633
1546.63186,0.19335
1548.56033,0.18688
1550.48880,0.18533
1552.41727,0.18550
1554.34574,0.18910
1556.27421,0.19776
1558.20268,0.20917
1560.13115,0.20448
1562.05961,0.19473
1563.98808,0.19174
1565.91655,0.18961
1567.84502,0.18652
1569.77349,0.18478
1571.70196,0.18555
1573.63043,0.19046
1575.55889,0.19793
1577.48736,0.19806
1579.41583,0.19183
1581.34430,0.18676
1583.27277,0.18374
1585.20124,0.18087
1587.12971,0.17770
1589.05818,0.17648
1590.98664,0.17723
1592.91511,0.17873
1594.84358,0.17935
1596.77205,0.17798
1598.70052,0.17694
1600.62899,0.17694
1602.55746,0.17653
1604.48592,0.17744
1606.41439,0.18075
1608.34286,0.18284
1610.27133,0.18401
1612.19980,0.18778
1614.12827,0.19256
1616.05674,0.19543
1617.98521,0.19307
1619.91367,0.18933
1621.84214,0.19009
1623.77061,0.19547
1625.69908,0.19862
1627.62755,0.19601
1629.55602,0.19002
1631.48449,0.18684
1633.41295,0.19150
1635.34142,0.20291
1637.26989,0.20461
1639.19836,0.19678
1641.12683,0.19019
1643.05530,0.18845
1644.98377,0.19670
1646.91223,0.21032
1648.84070,0.20778
1650.76917,0.20201
1652.69764,0.20534
1654.62611,0.20319
1656.55458,0.19590
1658.48305,0.19232
1660.41152,0.19107
1662.33998,0.19029
1664.26845,0.18897
1666.19692,0.18972
1668.12539,0.19440
1670.05386,0.19898
1671.98233,0.20062
1673.91080,0.20230
1675.83926,0.19921
1677.76773,0.19488
1679.69620,0.19738
1681.62467,0.20508
1683.55314,0.21219
1685.48161,0.20672
1687.41008,0.19826
1689.33855,0.19496
1691.26701,0.19310
1693.19548,0.19321
1695.12395,0.19793
1697.05242,0.20332
1698.98089,0.20170
1700.90936,0.19438
1702.83783,0.19517
1704.76629,0.20254
1706.69476,0.20169
1708.62323,0.19274
1710.55170,0.18817
1712.48017,0.18972
1714.40864,0.19458
1716.33711,0.19680
1718.26558,0.18982
1720.19404,0.18426
1722.12251,0.18388
1724.05098,0.18341
1725.97945,0.18109
1727.90792,0.18138
1729.83639,0.18603
1731.76486,0.19022
1733.69332,0.18951
1735.62179,0.18719
1737.55026,0.18888
1739.47873,0.19038
1741.40720,0.18781
1743.33567,0.18743
1745.26414,0.19216
1747.19261,0.19550
1749.12107,0.19561
1751.04954,0.19636
1752.97801,0.19602
1754.90648,0.19320
1756.83495,0.18825
1758.76342,0.18331
1760.69189,0.18194
1762.62035,0.18314
1764.54882,0.18492
1766.47729,0.18858
1768.40576,0.19390
1770.33423,0.19728
1772.26270,0.19614
1774.19117,0.19241
1776.11964,0.18946
1778.04810,0.18801
1779.97657,0.18746
1781.90504,0.18690
1783.83351,0.18710
1785.76198,0.18768
1787.69045,0.18732
1789.61892,0.18668
1791.54738,0.18618
1793.47585,0.18531
1795.40432,0.18547
1797.33279,0.18800
1799.26126,0.19085
1801.18973,0.18998
1803.11820,0.18630
1805.04666,0.18388
1806.97513,0.18359
1808.90360,0.18546
1810.83207,0.18724
1812.76054,0.18508
1814.68901,0.18177
1816.61748,0.18243
1818.54595,0.18712
1820.47441,0.19054
1822.40288,0.18953
1824.33135,0.18665
1826.25982,0.18665
1828.18829,0.19103
1830.11676,0.19456
1832.04523,0.19144
1833.97369,0.18671
1835.90216,0.18569
1837.83063,0.18702
1839.75910,0.18813
1841.68757,0.18967
1843.61604,0.19059
1845.54451,0.18777
1847.47298,0.18574
1849.40144,0.18713
1851.32991,0.18704
1853.25838,0.18527
1855.18685,0.18534
1857.11532,0.18631
1859.04379,0.18722
1860.97226,0.18749
1862.90072,0.18685
1864.82919,0.18876
1866.75766,0.19336
1868.68613,0.19365
1870.61460,0.18843
1872.54307,0.18289
1874.47154,0.17730
1876.40001,0.17490
1878.32847,0.17807
1880.25694,0.18131
1882.18541,0.18214
1884.11388,0.18412
1886.04235,0.18656
1887.97082,0.18690
1889.89929,0.18661
1891.82775,0.18716
1893.75622,0.18804
1895.68469,0.18850
1897.61316,0.18655
1899.54163,0.18244
1901.47010,0.18095
1903.39857,0.18437
1905.32704,0.18821
1907.25550,0.18703
1909.18397,0.18212
1911.11244,0.17931
1913.04091,0.17992
1914.96938,0.18174
1916.89785,0.18278
1918.82632,0.18280
1920.75478,0.18437
1922.68325,0.18629
1924.61172,0.18514
1926.54019,0.18335
1928.46866,0.18320
1930.39713,0.18364
1932.32560,0.18432
1934.25407,0.18478
1936.18253,0.18459
1938.11100,0.18472
1940.03947,0.18634
1941.96794,0.18871
1943.89641,0.19018
1945.82488,0.18930
1947.75335,0.18550
1949.68181,0.18130
1951.61028,0.17930
1953.53875,0.18106
1955.46722,0.18588
1957.39569,0.18933
1959.32416,0.19026
1961.25263,0.19084
1963.18110,0.19235
1965.10956,0.19430
1967.03803,0.19287
1968.96650,0.18862
1970.89497,0.18785
1972.82344,0.19009
1974.75191,0.19022
1976.68038,0.18751
1978.60884,0.18529
1980.53731,0.18498
1982.46578,0.18470
1984.39425,0.18424
1986.32272,0.18467
1988.25119,0.18475
1990.17966,0.18327
1992.10812,0.18108
1994.03659,0.17971
1995.96506,0.17999
1997.89353,0.18091
1999.82200,0.18208
2001.75047,0.18487
2003.67894,0.18863
2005.60741,0.19215
2007.53587,0.19410
2009.46434,0.19267
2011.39281,0.18971
2013.32128,0.18810
2015.24975,0.18883
2017.17822,0.19061
2019.10669,0.19153
2021.03515,0.19238
2022.96362,0.19361
2024.89209,0.19261
2026.82056,0.18931
2028.74903,0.18755
2030.67750,0.18693
2032.60597,0.18497
2034.53444,0.18352
2036.46290,0.18461
2038.39137,0.18831
2040.31984,0.19212
2042.24831,0.19291
2044.17678,0.19164
2046.10525,0.19022
2048.03372,0.18881
2049.96218,0.18767
2051.89065,0.18747
2053.81912,0.18683
2055.74759,0.18524
2057.67606,0.18531
2059.60453,0.18727
2061.53300,0.18934
2063.46147,0.18995
2065.38993,0.18899
2067.31840,0.18850
2069.24687,0.18872
2071.17534,0.18935
2073.10381,0.19032
2075.03228,0.19059
2076.96075,0.18955
2078.88921,0.18737
2080.81768,0.18485
2082.74615,0.18351
2084.67462,0.18400
2086.60309,0.18392
2088.53156,0.18304
2090.46003,0.18444
2092.38850,0.18707
2094.31696,0.18789
2096.24543,0.18683
2098.17390,0.18570
2100.10237,0.18548
2102.03084,0.18577
2103.95931,0.18671
2105.88778,0.18778
2107.81624,0.18774
2109.74471,0.18708
2111.67318,0.18693
2113.60165,0.18755
2115.53012,0.18774
2117.45859,0.18638
2119.38706,0.18547
2121.31553,0.18675
2123.24399,0.18870
2125.17246,0.18970
2127.10093,0.18999
2129.02940,0.19022
2130.95787,0.18949
2132.88634,0.18768
2134.81481,0.18581
2136.74327,0.18502
2138.67174,0.18657
2140.60021,0.18931
2142.52868,0.18999
2144.45715,0.18751
2146.38562,0.18505
2148.31409,0.18451
2150.24255,0.18406
2152.17102,0.18353
2154.09949,0.18429
2156.02796,0.18584
2157.95643,0.18646
2159.88490,0.18629
2161.81337,0.18667
2163.74184,0.18662
2165.67030,0.18548
2167.59877,0.18564
2169.52724,0.18738
2171.45571,0.18837
2173.38418,0.18797
2175.31265,0.18665
2177.24112,0.18576
2179.16958,0.18624
2181.09805,0.18782
2183.02652,0.18979
2184.95499,0.19137
2186.88346,0.19263
2188.81193,0.19241
2190.74040,0.18927
2192.66887,0.18555
2194.59733,0.18415
2196.52580,0.18489
2198.45427,0.18690
2200.38274,0.18861
2202.31121,0.18861
2204.23968,0.18836
2206.16815,0.18879
2208.09661,0.18964
2210.02508,0.19081
2211.95355,0.19140
2213.88202,0.19107
2215.81049,0.19008
2217.73896,0.18850
2219.66743,0.18593
2221.59590,0.18343
2223.52436,0.18296
2225.45283,0.18368
2227.38130,0.18493
2229.30977,0.18643
2231.23824,0.18702
2233.16671,0.18675
2235.09518,0.18664
2237.02364,0.18769
2238.95211,0.18873
2240.88058,0.18882
2242.80905,0.18897
2244.73752,0.18818
2246.66599,0.18690
2248.59446,0.18726
2250.52293,0.18885
2252.45139,0.19083
2254.37986,0.19164
2256.30833,0.19030
2258.23680,0.18904
2260.16527,0.18889
2262.09374,0.18932
2264.02221,0.19011
2265.95067,0.19052
2267.87914,0.19011
2269.80761,0.18813
2271.73608,0.18500
2273.66455,0.18299
2275.59302,0.18353
2277.52149,0.18588
2279.44996,0.18801
2281.37842,0.19018
2283.30689,0.19184
2285.23536,0.19015
2287.16383,0.18657
2289.09230,0.18417
2291.02077,0.18347
2292.94924,0.18135
2294.87770,0.17464
2296.80617,0.16963
2298.73464,0.17350
2300.66311,0.17979
2302.59158,0.17831
2304.52005,0.17155
2306.44852,0.16885
2308.37699,0.17124
2310.30545,0.17230
2312.23392,0.17014
2314.16239,0.16823
2316.09086,0.16655
2318.01933,0.16469
2319.94780,0.16323
2321.87627,0.15918
2323.80473,0.15304
2325.73320,0.14960
2327.66167,0.15103
2329.59014,0.15121
2331.51861,0.14404
2333.44708,0.14204
2335.37555,0.14872
2337.30401,0.14755
2339.23248,0.14014
2341.16095,0.14078
2343.08942,0.14798
2345.01789,0.15272
2346.94636,0.15283
2348.87483,0.15090
2350.80330,0.14886
2352.73176,0.15205
2354.66023,0.15839
2356.58870,0.15335
2358.51717,0.15433
2360.44564,0.16757
2362.37411,0.15889
2364.30258,0.13663
2366.23104,0.13045
2368.15951,0.13745
2370.08798,0.14542
2372.01645,0.15338
2373.94492,0.16052
2375.87339,0.16532
2377.80186,0.16798
2379.73033,0.16951
2381.65879,0.17322
2383.58726,0.17987
2385.51573,0.18584
2387.44420,0.18778
2389.37267,0.18567
2391.30114,0.18438
2393.22961,0.18787
2395.15807,0.19109
2397.08654,0.18886
2399.01501,0.18576
2400.94348,0.18693
2402.87195,0.19056
2404.80042,0.19256
2406.72889,0.19206
2408.65736,0.19086
2410.58582,0.18952
2412.51429,0.18777
2414.44276,0.18707
2416.37123,0.18818
2418.29970,0.18845
2420.22817,0.18631
2422.15664,0.18438
2424.08510,0.18525
2426.01357,0.18739
2427.94204,0.18795
2429.87051,0.18824
2431.79898,0.18979
2433.72745,0.19109
2435.65592,0.19123
2437.58439,0.19001
2439.51285,0.18892
2441.44132,0.18948
2443.36979,0.18957
2445.29826,0.18803
2447.22673,0.18704
2449.15520,0.18760
2451.08367,0.18725
2453.01213,0.18525
2454.94060,0.18448
2456.86907,0.18642
2458.79754,0.18987
2460.72601,0.19170
2462.65448,0.19162
2464.58295,0.19256
2466.51142,0.19429
2468.43988,0.19527
2470.36835,0.19485
2472.29682,0.19308
2474.22529,0.19186
2476.15376,0.19131
2478.08223,0.19001
2480.01070,0.18903
2481.93916,0.18925
2483.86763,0.18898
2485.79610,0.18780
2487.72457,0.18769
2489.65304,0.18876
2491.58151,0.18910
2493.50998,0.18790
2495.43844,0.18572
2497.36691,0.18424
2499.29538,0.18561
2501.22385,0.18843
2503.15232,0.18950
2505.08079,0.19004
2507.00926,0.19148
2508.93773,0.19264
2510.86619,0.19317
2512.79466,0.19249
2514.72313,0.19152
2516.65160,0.19290
2518.58007,0.19534
2520.50854,0.19502
2522.43701,0.19350
2524.36547,0.19372
2526.29394,0.19259
2528.22241,0.18929
2530.15088,0.18749
2532.07935,0.18869
2534.00782,0.19160
2535.93629,0.19338
2537.86476,0.19260
2539.79322,0.19001
2541.72169,0.18858
2543.65016,0.19040
2545.57863,0.19311
2547.50710,0.19544
2549.43557,0.19682
2551.36404,0.19573
2553.29250,0.19401
2555.22097,0.19349
2557.14944,0.19231
2559.07791,0.18929
2561.00638,0.18802
2562.93485,0.19053
2564.86332,0.19205
2566.79179,0.19021
2568.72025,0.18834
2570.64872,0.18861
2572.57719,0.19056
2574.50566,0.19224
2576.43413,0.19152
2578.36260,0.18891
2580.29107,0.18778
2582.21953,0.19020
2584.14800,0.19338
2586.07647,0.19302
2588.00494,0.19029
2589.93341,0.19019
2591.86188,0.19275
2593.79035,0.19352
2595.71882,0.19206
2597.64728,0.19088
2599.57575,0.19064
2601.50422,0.19216
2603.43269,0.19463
2605.36116,0.19501
2607.28963,0.19381
2609.21810,0.19352
2611.14656,0.19505
2613.07503,0.19730
2615.00350,0.19693
2616.93197,0.19412
2618.86044,0.19348
2620.78891,0.19599
2622.71738,0.19789
2624.64585,0.19702
2626.57431,0.19489
2628.50278,0.19390
2630.43125,0.19529
2632.35972,0.19613
2634.28819,0.19277
2636.21666,0.18881
2638.14513,0.18933
2640.07359,0.19270
2642.00206,0.19487
2643.93053,0.19452
2645.85900,0.19306
2647.78747,0.19170
2649.71594,0.18981
2651.64441,0.18966
2653.57288,0.19376
2655.50134,0.19723
2657.42981,0.19593
2659.35828,0.19445
2661.28675,0.19695
2663.21522,0.19812
2665.14369,0.19296
2667.07216,0.18861
2669.00062,0.19143
2670.92909,0.19528
2672.85756,0.19569
2674.78603,0.19753
2676.71450,0.20141
2678.64297,0.20293
2680.57144,0.20256
2682.49990,0.20077
2684.42837,0.19759
2686.35684,0.19634
2688.28531,0.19690
2690.21378,0.19567
2692.14225,0.19331
2694.07072,0.19406
2695.99919,0.19705
2697.92765,0.19872
2699.85612,0.19981
2701.78459,0.20039
2703.71306,0.20065
2705.64153,0.20166
2707.57000,0.20060
2709.49847,0.19768
2711.42693,0.19696
2713.35540,0.19836
2715.28387,0.19837
2717.21234,0.19671
2719.14081,0.19654
2721.06928,0.19779
2722.99775,0.19938
2724.92622,0.20252
2726.85468,0.20577
2728.78315,0.20640
2730.71162,0.20582
2732.64009,0.20646
2734.56856,0.20637
2736.49703,0.20317
2738.42550,0.19929
2740.35396,0.19726
2742.28243,0.19683
2744.21090,0.19808
2746.13937,0.20032
2748.06784,0.20214
2749.99631,0.20232
2751.92478,0.20163
2753.85325,0.20267
2755.78171,0.20271
2757.71018,0.20007
2759.63865,0.19964
2761.56712,0.20287
2763.49559,0.20590
2765.42406,0.20452
2767.35253,0.20060
2769.28099,0.20114
2771.20946,0.20467
2773.13793,0.20493
2775.06640,0.20426
2776.99487,0.20424
2778.92334,0.20239
2780.85181,0.20253
2782.78028,0.20594
2784.70874,0.20728
2786.63721,0.20731
2788.56568,0.20875
2790.49415,0.20805
2792.42262,0.20491
2794.35109,0.20421
2796.27956,0.20514
2798.20802,0.20466
2800.13649,0.20567
2802.06496,0.20812
2803.99343,0.20739
2805.92190,0.20547
2807.85037,0.20474
2809.77884,0.20340
2811.70731,0.20274
2813.63577,0.20314
2815.56424,0.20361
2817.49271,0.20576
2819.42118,0.20764
2821.34965,0.20522
2823.27812,0.20081
2825.20659,0.19818
2827.13505,0.19721
2829.06352,0.19808
2830.99199,0.20216
2832.92046,0.20756
2834.84893,0.20951
2836.77740,0.20942
2838.70587,0.21165
2840.63433,0.21319
2842.56280,0.20976
2844.49127,0.20453
2846.41974,0.20325
2848.34821,0.20527
2850.27668,0.20634
2852.20515,0.20495
2854.13362,0.20332
2856.06208,0.20542
2857.99055,0.21041
2859.91902,0.21255
2861.84749,0.21045
2863.77596,0.20863
2865.70443,0.20785
2867.63290,0.20611
2869.56136,0.20471
2871.48983,0.20380
2873.41830,0.20347
2875.34677,0.20527
2877.27524,0.20798
2879.20371,0.20874
2881.13218,0.20764
2883.06065,0.20729
2884.98911,0.20761
2886.91758,0.20794
2888.84605,0.20943
2890.77452,0.20975
2892.70299,0.20684
2894.63146,0.20416
2896.55993,0.20435
2898.48839,0.20636
2900.41686,0.20691
2902.34533,0.20348
2904.27380,0.20013
2906.20227,0.20277
2908.13074,0.20825
2910.05921,0.21048
2911.98768,0.21104
2913.91614,0.21032
2915.84461,0.20560
2917.77308,0.19999
2919.70155,0.19713
2921.63002,0.19687
2923.55849,0.19812
2925.48696,0.20129
2927.41542,0.20610
2929.34389,0.20686
2931.27236,0.20290
2933.20083,0.20123
2935.12930,0.20172
2937.05777,0.20296
2938.98624,0.20725
2940.91471,0.21146
2942.84317,0.21205
2944.77164,0.20691
2946.70011,0.19910
2948.62858,0.19817
2950.55705,0.20325
2952.48552,0.20666
2954.41399,0.20588
2956.34245,0.20115
2958.27092,0.19712
2960.19939,0.19806
2962.12786,0.20172
2964.05633,0.20375
2965.98480,0.20289
2967.91327,0.20366
2969.84174,0.20901
2971.77020,0.21311
2973.69867,0.21162
2975.62714,0.20846
2977.55561,0.20817
2979.48408,0.21077
2981.41255,0.21330
2983.34102,0.21256
2985.26948,0.20808
2987.19795,0.20399
2989.12642,0.20498
2991.05489,0.20991
2992.98336,0.21350
2994.91183,0.21277
2996.84030,0.20873
2998.76877,0.20567
3000.69723,0.20702
3002.62570,0.20991
3004.55417,0.21020
3006.48264,0.20775
3008.41111,0.20382
3010.33958,0.19948
3012.26805,0.19296
3014.19651,0.17997
3016.12498,0.16716
3018.05345,0.17264
3019.98192,0.19606
3021.91039,0.21367
3023.83886,0.21405
3025.76733,0.20769
3027.69579,0.20655
3029.62426,0.21189
3031.55273,0.21600
3033.48120,0.21536
3035.40967,0.21473
3037.33814,0.21376
3039.26661,0.21085
3041.19508,0.21026
3043.12354,0.21222
3045.05201,0.21261
3046.98048,0.21011
3048.90895,0.20737
3050.83742,0.20735
3052.76589,0.20844
3054.69436,0.20732
3056.62282,0.20593
3058.55129,0.20890
3060.47976,0.21251
3062.40823,0.21259
3064.33670,0.21110
3066.26517,0.20884
3068.19364,0.20928
3070.12211,0.21277
3072.05057,0.21419
3073.97904,0.21272
3075.90751,0.21174
3077.83598,0.21418
3079.76445,0.21624
3081.69292,0.21499
3083.62139,0.21201
3085.54985,0.20872
3087.47832,0.20865
3089.40679,0.21019
3091.33526,0.20769
3093.26373,0.20113
3095.19220,0.19796
3097.12067,0.20283
3099.04914,0.20848
3100.97760,0.20801
3102.90607,0.20268
3104.83454,0.20065
3106.76301,0.20753
3108.69148,0.21641
3110.61995,0.21779
3112.54842,0.21230
3114.47688,0.20967
3116.40535,0.21467
3118.33382,0.21964
3120.26229,0.21693
3122.19076,0.20941
3124.11923,0.20508
3126.04770,0.20786
3127.97617,0.21321
3129.90463,0.21435
3131.83310,0.21350
3133.76157,0.21451
3135.69004,0.21547
3137.61851,0.21487
3139.54698,0.21201
3141.47545,0.20907
3143.40391,0.21107
3145.33238,0.21612
3147.26085,0.21688
3149.18932,0.21404
3151.11779,0.21400
3153.04626,0.21552
3154.97473,0.21131
3156.90320,0.20207
3158.83166,0.19877
3160.76013,0.20631
3162.68860,0.21737
3164.61707,0.22539
3166.54554,0.22978
3168.47401,0.22998
3170.40248,0.22629
3172.33094,0.22269
3174.25941,0.22173
3176.18788,0.22162
3178.11635,0.22028
3180.04482,0.21954
3181.97329,0.22291
3183.90176,0.22767
3185.83022,0.22730
3187.75869,0.22397
3189.68716,0.22259
3191.61563,0.22049
3193.54410,0.21685
3195.47257,0.21364
3197.40104,0.21102
3199.32951,0.21090
3201.25797,0.21398
3203.18644,0.21779
3205.11491,0.21899
3207.04338,0.21790
3208.97185,0.21921
3210.90032,0.22165
3212.82879,0.22188
3214.75725,0.22163
3216.68572,0.22083
3218.61419,0.22084
3220.54266,0.22283
3222.47113,0.22408
3224.39960,0.22472
3226.32807,0.22396
3228.25654,0.21959
3230.18500,0.21424
3232.11347,0.21438
3234.04194,0.22041
3235.97041,0.22236
3237.89888,0.21824
3239.82735,0.21793
3241.75582,0.22108
3243.68428,0.21922
3245.61275,0.21376
3247.54122,0.21093
3249.46969,0.21304
3251.39816,0.21710
3253.32663,0.21516
3255.25510,0.20752
3257.18357,0.20345
3259.11203,0.20655
3261.04050,0.21313
3262.96897,0.21713
3264.89744,0.21621
3266.82591,0.21608
3268.75438,0.22083
3270.68285,0.22552
3272.61131,0.22511
3274.53978,0.22128
3276.46825,0.21741
3278.39672,0.21413
3280.32519,0.21206
3282.25366,0.21295
3284.18213,0.21596
3286.11060,0.21851
3288.03906,0.21909
3289.96753,0.21778
3291.89600,0.21648
3293.82447,0.21514
3295.75294,0.21393
3297.68141,0.21760
3299.60988,0.22452
3301.53834,0.22592
3303.46681,0.22139
3305.39528,0.21753
3307.32375,0.21709
3309.25222,0.21724
3311.18069,0.21637
3313.10916,0.21555
3315.03763,0.21269
3316.96609,0.20645
3318.89456,0.20183
3320.82303,0.20337
3322.75150,0.20931
3324.67997,0.21593
3326.60844,0.21969
3328.53691,0.21797
3330.46537,0.21341
3332.39384,0.21036
3334.32231,0.20971
3336.25078,0.21131
3338.17925,0.21375
3340.10772,0.21456
3342.03619,0.21544
3343.96466,0.21739
3345.89312,0.21655
3347.82159,0.21531
3349.75006,0.21771
3351.67853,0.21793
3353.60700,0.21350
3355.53547,0.20850
3357.46394,0.20386
3359.39240,0.20387
3361.32087,0.21160
3363.24934,0.21890
3365.17781,0.21867
3367.10628,0.21624
3369.03475,0.22058
3370.96322,0.22597
3372.89168,0.22382
3374.82015,0.22059
3376.74862,0.21875
3378.67709,0.21472
3380.60556,0.21319
3382.53403,0.21741
3384.46250,0.22328
3386.39097,0.22664
3388.31943,0.22496
3390.24790,0.21770
3392.17637,0.21144
3394.10484,0.21192
3396.03331,0.21192
3397.96178,0.20849
3399.89025,0.21131
3401.81871,0.21753
3403.74718,0.21725
3405.67565,0.21491
3407.60412,0.21489
3409.53259,0.21276
3411.46106,0.20846
3413.38953,0.20862
3415.31800,0.21353
3417.24646,0.21548
3419.17493,0.21406
3421.10340,0.21495
3423.03187,0.21525
3424.96034,0.21137
3426.88881,0.20851
3428.81728,0.20861
3430.74574,0.20912
3432.67421,0.20922
3434.60268,0.20865
3436.53115,0.20992
3438.45962,0.21498
3440.38809,0.21929
3442.31656,0.21713
3444.24503,0.21325
3446.17349,0.21173
3448.10196,0.20695
3450.03043,0.20301
3451.95890,0.20452
3453.88737,0.20545
3455.81584,0.20510
3457.74431,0.20517
3459.67277,0.20250
3461.60124,0.19709
3463.52971,0.19290
3465.45818,0.19208
3467.38665,0.19445
3469.31512,0.19818
3471.24359,0.20119
3473.17206,0.20019
3475.10052,0.19523
3477.02899,0.19258
3478.95746,0.19286
3480.88593,0.19314
3482.81440,0.19438
3484.74287,0.19639
3486.67134,0.19569
3488.59980,0.19019
3490.52827,0.18574
3492.45674,0.18758
3494.38521,0.19141
3496.31368,0.19267
3498.24215,0.19297
3500.17062,0.19444
3502.09909,0.19460
3504.02755,0.19017
3505.95602,0.18563
3507.88449,0.18573
3509.81296,0.18634
3511.74143,0.18432
3513.66990,0.18194
3515.59837,0.18048
3517.52683,0.18201
3519.45530,0.18590
3521.38377,0.18758
3523.31224,0.18753
3525.24071,0.18834
3527.16918,0.18792
3529.09765,0.18583
3531.02611,0.18489
3532.95458,0.18456
3534.88305,0.18293
3536.81152,0.17933
3538.73999,0.17300
3540.66846,0.16823
3542.59693,0.17170
3544.52540,0.17890
3546.45386,0.18055
3548.38233,0.17784
3550.31080,0.17487
3552.23927,0.17156
3554.16774,0.16903
3556.09621,0.17037
3558.02468,0.17322
3559.95314,0.17217
3561.88161,0.16813
3563.81008,0.16980
3565.73855,0.18196
3567.66702,0.19025
3569.59549,0.18294
3571.52396,0.17354
3573.45243,0.16872
3575.38089,0.16600
3577.30936,0.16270
3579.23783,0.15978
3581.16630,0.15785
3583.09477,0.15722
3585.02324,0.16013
3586.95171,0.16497
3588.88017,0.16383
3590.80864,0.16027
3592.73711,0.16011
3594.66558,0.16207
3596.59405,0.16452
3598.52252,0.16376
3600.45099,0.15899
3602.37946,0.15672
3604.30792,0.16015
3606.23639,0.16469
3608.16486,0.16425
3610.09333,0.15954
3612.02180,0.15457
3613.95027,0.15192
3615.87874,0.15522
3617.80720,0.16223
3619.73567,0.16192
3621.66414,0.15044
3623.59261,0.14105
3625.52108,0.13999
3627.44955,0.14354
3629.37802,0.14280
3631.30649,0.14066
3633.23495,0.14380
3635.16342,0.14661
3637.09189,0.14529
3639.02036,0.14173
3640.94883,0.13811
3642.87730,0.13762
3644.80577,0.14395
3646.73423,0.15764
3648.66270,0.17122
3650.59117,0.16915
3652.51964,0.15990
3654.44811,0.15523
3656.37658,0.15288
3658.30505,0.14772
3660.23352,0.14260
3662.16198,0.14050
3664.09045,0.14047
3666.01892,0.14202
3667.94739,0.14752
3669.87586,0.15572
3671.80433,0.15793
3673.73280,0.15832
3675.66126,0.15586
3677.58973,0.14615
3679.51820,0.14120
3681.44667,0.14015
3683.37514,0.13656
3685.30361,0.13260
3687.23208,0.13473
3689.16055,0.13994
3691.08901,0.13856
3693.01748,0.13583
3694.94595,0.13480
3696.87442,0.13350
3698.80289,0.13380
3700.73136,0.13696
3702.65983,0.13764
3704.58829,0.13560
3706.51676,0.13570
3708.44523,0.13500
3710.37370,0.13391
3712.30217,0.13851
3714.23064,0.14104
3716.15911,0.13961
3718.08757,0.13938
3720.01604,0.14045
3721.94451,0.13899
3723.87298,0.13459
3725.80145,0.12985
3727.72992,0.12849
3729.65839,0.13185
3731.58686,0.13613
3733.51532,0.14156
3735.44379,0.14735
3737.37226,0.14452
3739.30073,0.14268
3741.22920,0.14741
3743.15767,0.15204
3745.08614,0.14921
3747.01460,0.14288
3748.94307,0.14266
3750.87154,0.14840
3752.80001,0.14730
3754.72848,0.14405
3756.65695,0.14634
3758.58542,0.14742
3760.51389,0.13989
3762.44235,0.13153
3764.37082,0.12760
3766.29929,0.12730
3768.22776,0.12969
3770.15623,0.12940
3772.08470,0.12660
3774.01317,0.12802
3775.94163,0.13177
3777.87010,0.13423
3779.79857,0.13490
3781.72704,0.13452
3783.65551,0.13413
3785.58398,0.13041
3787.51245,0.12288
3789.44092,0.11939
3791.36938,0.12379
3793.29785,0.13075
3795.22632,0.13285
3797.15479,0.13154
3799.08326,0.13715
3801.01173,0.14725
3802.94020,0.14502
3804.86866,0.13596
3806.79713,0.13075
3808.72560,0.12908
3810.65407,0.12835
3812.58254,0.12823
3814.51101,0.13038
3816.43948,0.13447
3818.36795,0.13350
3820.29641,0.13063
3822.22488,0.13808
3824.15335,0.14605
3826.08182,0.14549
3828.01029,0.14117
3829.93876,0.13564
3831.86723,0.12672
3833.79569,0.12165
3835.72416,0.12746
3837.65263,0.13480
3839.58110,0.13227
3841.50957,0.12615
3843.43804,0.12603
3845.36651,0.12829
3847.29498,0.12590
3849.22344,0.12605
3851.15191,0.13671
3853.08038,0.14779
3855.00885,0.14189
3856.93732,0.13360
3858.86579,0.12857
3860.79426,0.12674
3862.72272,0.12778
3864.65119,0.12932
3866.57966,0.12904
3868.50813,0.12697
3870.43660,0.12475
3872.36507,0.12400
3874.29354,0.12389
3876.22200,0.12299
3878.15047,0.12234
3880.07894,0.12286
3882.00741,0.12364
3883.93588,0.12658
3885.86435,0.12936
3887.79282,0.12677
3889.72129,0.12464
3891.64975,0.12511
3893.57822,0.12373
3895.50669,0.12165
3897.43516,0.12072
3899.36363,0.12128
3901.29210,0.12605
3903.22057,0.13463
3905.14903,0.13859
3907.07750,0.13408
3909.00597,0.12565
3910.93444,0.11615
3912.86291,0.11051
3914.79138,0.11254
3916.71985,0.11594
3918.64832,0.11452
3920.57678,0.11478
3922.50525,0.12127
3924.43372,0.12647
3926.36219,0.12123
3928.29066,0.11314
3930.21913,0.11346
3932.14760,0.12085
3934.07606,0.12681
3936.00453,0.12789
3937.93300,0.12645
3939.86147,0.12338
3941.78994,0.11954
3943.71841,0.12077
3945.64688,0.12547
3947.57535,0.12470
3949.50381,0.11903
3951.43228,0.11698
3953.36075,0.11897
3955.28922,0.11768
3957.21769,0.11309
3959.14616,0.11351
3961.07463,0.11902
3963.00309,0.12027
3964.93156,0.11326
3966.86003,0.10525
3968.78850,0.10637
3970.71697,0.11280
3972.64544,0.11162
3974.57391,0.10680
3976.50238,0.10880
3978.43084,0.11321
3980.35931,0.11461
3982.28778,0.11642
3984.21625,0.12017
3986.14472,0.11784
3988.07319,0.10808
3990.00166,0.10398
3991.93012,0.10814
3993.85859,0.10968
3995.78706,0.10623
3997.71553,0.10221
3999.64400,0.10113
4001.57247,0.10344
4003.50094,0.10431
4005.42941,0.10339
4007.35787,0.10626
4009.28634,0.11043
4011.21481,0.10927
4013.14328,0.10437
4015.07175,0.10078
4017.00022,0.10207
4018.92869,0.10703
4020.85715,0.10970
4022.78562,0.10957
4024.71409,0.11038
4026.64256,0.11194
4028.57103,0.11005
4030.49950,0.10417
4032.42797,0.09954
4034.35644,0.09803
4036.28490,0.09749
4038.21337,0.09676
4040.14184,0.09625
4042.07031,0.09827
4043.99878,0.10370
4045.92725,0.10771
4047.85572,0.10616
4049.78418,0.10197
4051.71265,0.09652
4053.64112,0.09040
4055.56959,0.08938
4057.49806,0.09525
4059.42653,0.10285
4061.35500,0.10627
4063.28346,0.10294
4065.21193,0.09679
4067.14040,0.09462
4069.06887,0.09751
4070.99734,0.10152
4072.92581,0.10223
4074.85428,0.09752
4076.78275,0.09205
4078.71121,0.09145
4080.63968,0.09370
4082.56815,0.09561
4084.49662,0.09797
4086.42509,0.10058
4088.35356,0.10295
4090.28203,0.10256
4092.21049,0.09770
4094.13896,0.09567
4096.06743,0.09816
4097.99590,0.09688
4099.92437,0.09068
4101.85284,0.08693
4103.78131,0.08881
4105.70978,0.08798
4107.63824,0.08203
4109.56671,0.08277
4111.49518,0.09366
4113.42365,0.10348
4115.35212,0.10459
4117.28059,0.10015
4119.20906,0.09635
4121.13752,0.09692
4123.06599,0.09754
4124.99446,0.09410
4126.92293,0.09060
4128.85140,0.08868
4130.77987,0.08880
4132.70834,0.09092
4134.63681,0.09243
4136.56527,0.09367
4138.49374,0.09475
4140.42221,0.09351
4142.35068,0.08976
4144.27915,0.08579
4146.20762,0.08298
4148.13609,0.08257
4150.06455,0.08683
4151.99302,0.09373
4153.92149,0.09651
4155.84996,0.09287
4157.77843,0.09053
4159.70690,0.09367
4161.63537,0.09453
4163.56384,0.08990
4165.49230,0.08612
4167.42077,0.08641
4169.34924,0.08636
4171.27771,0.08231
4173.20618,0.07863
4175.13465,0.07777
4177.06312,0.07580
4178.99158,0.07208
4180.92005,0.07140
4182.84852,0.07823
4184.77699,0.08752
4186.70546,0.08774
4188.63393,0.08085
4190.56240,0.08031
4192.49087,0.08615
4194.41933,0.08851
4196.34780,0.08741
4198.27627,0.08489
4200.20474,0.07855
4202.13321,0.07374
4204.06168,0.07626
4205.99015,0.07887
4207.91861,0.07721
4209.84708,0.07700
4211.77555,0.07658
4213.70402,0.07248
4215.63249,0.07054
4217.56096,0.07132
4219.48943,0.06904
4221.41789,0.06713
4223.34636,0.07237
4225.27483,0.07917
4227.20330,0.07924
4229.13177,0.07519
4231.06024,0.07173
4232.98871,0.06993
4234.91718,0.07165
4236.84564,0.07735
4238.77411,0.08247
4240.70258,0.08428
4242.63105,0.08335
4244.55952,0.07993
4246.48799,0.07343
4248.41646,0.06455
4250.34492,0.06237
4252.27339,0.06944
4254.20186,0.07213
4256.13033,0.06577
4258.05880,0.06223
4259.98727,0.06725
4261.91574,0.07146
4263.84421,0.06812
4265.77267,0.06331
4267.70114,0.06415
4269.62961,0.06640
4271.55808,0.06323
4273.48655,0.05967
4275.41502,0.06194
4277.34349,0.06588
4279.27195,0.06630
4281.20042,0.06305
4283.12889,0.05828
4285.05736,0.05876
4286.98583,0.06591
4288.91430,0.06967
4290.84277,0.06607
4292.77124,0.05987
4294.69970,0.05533
4296.62817,0.05467
4298.55664,0.05859
4300.48511,0.06538
4302.41358,0.07056
4304.34205,0.06915
4306.27052,0.06289
4308.19898,0.05944
4310.12745,0.05724
4312.05592,0.04982
4313.98439,0.04439
4315.91286,0.05063
4317.84133,0.06048
4319.76980,0.06165
4321.69827,0.05701
4323.62673,0.05503
4325.55520,0.05563
4327.48367,0.05213
4329.41214,0.04245
4331.34061,0.03537
4333.26908,0.03858
4335.19755,0.04500
4337.12601,0.04696
4339.05448,0.04641
4340.98295,0.04566
4342.91142,0.04579
4344.83989,0.04723
4346.76836,0.04929
4348.69683,0.05009
4350.62530,0.05034
4352.55376,0.05129
4354.48223,0.04876
4356.41070,0.04277
4358.33917,0.04063
4360.26764,0.04228
4362.19611,0.04255
4364.12458,0.04300
4366.05304,0.04137
4367.98151,0.03705
4369.90998,0.03742
4371.83845,0.03947
4373.76692,0.03834
4375.69539,0.03712
4377.62386,0.03718
4379.55232,0.03708
4381.48079,0.03841
4383.40926,0.04395
4385.33773,0.04793
4387.26620,0.04357
4389.19467,0.03602
4391.12314,0.03057
4393.05161,0.02552
4394.98007,0.02427
4396.90854,0.02832
4398.83701,0.03261
4400.76548,0.03862
4402.69395,0.04539
4404.62242,0.04519
4406.55089,0.03893
4408.47935,0.03089
4410.40782,0.02412
4412.33629,0.02775
4414.26476,0.04053
4416.19323,0.04630
4418.12170,0.04221
4420.05017,0.03998
4421.97864,0.04277
4423.90710,0.04519
4425.83557,0.04279
4427.76404,0.03530
4429.69251,0.02460
4431.62098,0.01419
4433.54945,0.01159
4435.47792,0.01567
4437.40638,0.01925
4439.33485,0.02429
4441.26332,0.03128
4443.19179,0.03564
4445.12026,0.03338
4447.04873,0.02465
4448.97720,0.01591
4450.90567,0.01023
4452.83413,0.00883
4454.76260,0.01483
4456.69107,0.02423
4458.61954,0.02778
4460.54801,0.02577
4462.47648,0.02562
4464.40495,0.02408
4466.33341,0.01867
4468.26188,0.01720
4470.19035,0.02009
4472.11882,0.02405
4474.04729,0.02911
4475.97576,0.03035
4477.90423,0.02542
4479.83270,0.02212
4481.76116,0.02512
4483.68963,0.02754
4485.61810,0.02653
4487.54657,0.02815
4489.47504,0.02976
4491.40351,0.02437
4493.33198,0.01820
4495.26044,0.01913
4497.18891,0.02094
4499.11738,0.01882
4501.04585,0.02108
4502.97432,0.02572
4504.90279,0.01885
4506.83126,0.00751
4508.75973,0.00625
4510.68819,0.00991
4512.61666,0.01263
4514.54513,0.01686
4516.47360,0.02219
4518.40207,0.02311
4520.33054,0.01552
4522.25901,0.00933
4524.18747,0.01729
4526.11594,0.02769
4528.04441,0.02549
4529.97288,0.01948
4531.90135,0.01868
4533.82982,0.01733
4535.75829,0.01210
4537.68676,0.01118
4539.61522,0.01553
4541.54369,0.01580
4543.47216,0.01341
4545.40063,0.01208
4547.32910,0.01107
4549.25757,0.01276
4551.18604,0.01412
4553.11450,0.01009
4555.04297,0.00815
4556.97144,0.01333
4558.89991,0.01308
4560.82838,0.00566
4562.75685,0.00407
4564.68532,0.00796
4566.61378,0.00959
4568.54225,0.00795
4570.47072,0.00396
4572.39919,-0.00160
4574.32766,-0.00193
4576.25613,0.00539
4578.18460,0.00847
4580.11307,0.00585
4582.04153,0.00871
4583.97000,0.01237
4585.89847,0.00744
4587.82694,0.00210
4589.75541,0.00664
4591.68388,0.01635
4593.61235,0.01886
4595.54081,0.01230
4597.46928,0.00914
4599.39775,0.01076
4601.32622,0.00877
4603.25469,0.00827
4605.18316,0.00837
4607.11163,0.00050
4609.04010,-0.00613
4610.96856,-0.00181
4612.89703,0.00769
4614.82550,0.01249
4616.75397,0.01037
4618.68244,0.00848
4620.61091,0.00792
4622.53938,0.00853
4624.46784,0.01241
4626.39631,0.01136
4628.32478,0.00568
4630.25325,0.00211
4632.18172,-0.00194
4634.11019,-0.00511
4636.03866,0.00017
4637.96713,0.01209
4639.89559,0.01909
4641.82406,0.01694
4643.75253,0.01107
4645.68100,0.00605
4647.60947,0.00141
4649.53794,-0.00648
4651.46641,-0.01153
4653.39487,-0.00704
4655.32334,-0.00300
4657.25181,-0.00237
4659.18028,0.00387
4661.10875,0.00765
4663.03722,0.00163
4664.96569,-0.00122
4666.89416,0.00151
4668.82262,0.00330
4670.75109,0.00499
4672.67956,0.00478
4674.60803,-0.00037
4676.53650,-0.00883
4678.46497,-0.01641
4680.39344,-0.01443
4682.32190,-0.00291
4684.25037,0.00694
4686.17884,0.01023
4688.10731,0.00930
4690.03578,0.00659
4691.96425,0.00299
4693.89272,0.00303
4695.82119,0.00480
4697.74965,0.00410
4699.67812,0.00421
4701.60659,0.00103
4703.53506,-0.00191
4705.46353,0.00746
4707.39200,0.01982
4709.32047,0.01604
4711.24893,0.00417
4713.17740,0.00421
4715.10587,0.00961
4717.03434,0.01210
4718.96281,0.01265
4720.89128,0.01072
4722.81975,0.01401
4724.74821,0.01789
4726.67668,0.00724
4728.60515,-0.00751
4730.53362,-0.00818
4732.46209,0.00222
4734.39056,0.01158
4736.31903,0.01626
4738.24750,0.01798
4740.17596,0.01296
4742.10443,0.00390
4744.03290,0.00311
4745.96137,0.00441
4747.88984,-0.00580
4749.81831,-0.01178
4751.74678,0.00195
4753.67524,0.01941
4755.60371,0.02252
4757.53218,0.01330
4759.46065,0.00910
4761.38912,0.01290
4763.31759,0.01526
4765.24606,0.01532
4767.17453,0.01322
4769.10299,0.01042
4771.03146,0.00619
4772.95993,0.00528
4774.88840,0.01567
4776.81687,0.02305
4778.74534,0.01270
4780.67381,-0.00165
4782.60227,-0.00259
4784.53074,0.00526
4786.45921,0.01146
4788.38768,0.01501
4790.31615,0.01505
4792.24462,0.00657
4794.17309,0.00137
4796.10156,0.01387
4798.03002,0.02639
4799.95849,0.02239
4801.88696,0.01278
4803.81543,0.01095
4805.74390,0.01074
4807.67237,0.00347
4809.60084,-0.00355
4811.52930,-0.00318
4813.45777,0.00630
4815.38624,0.01666
4817.31471,0.01927
4819.24318,0.01831
4821.17165,0.01181
4823.10012,-0.00108
4825.02859,-0.00853
4826.95705,-0.00609
4828.88552,0.00106
4830.81399,0.01256
4832.74246,0.02245
4834.67093,0.01673
4836.59940,0.00314
4838.52787,0.00082
4840.45633,0.00375
4842.38480,0.00268
4844.31327,0.00285
4846.24174,-0.00192
4848.17021,-0.01666
4850.09868,-0.02503
4852.02715,-0.01376
4853.95562,0.00690
4855.88408,0.02208
4857.81255,0.02793
4859.74102,0.02919
4861.66949,0.02866
4863.59796,0.02246
4865.52643,0.01476
4867.45490,0.01105
4869.38336,0.00924
4871.31183,0.01129
4873.24030,0.01356
4875.16877,0.01091
4877.09724,0.00944
4879.02571,0.00943
4880.95418,0.00397
4882.88265,0.00097
4884.81111,0.00976
4886.73958,0.01821
4888.66805,0.01833
4890.59652,0.01255
4892.52499,0.00175
4894.45346,-0.00821
4896.38193,-0.01707
4898.31039,-0.02092
4900.23886,-0.01179
4902.16733,-0.00289
4904.09580,-0.00462
4906.02427,-0.00145
4907.95274,0.01174
4909.88121,0.01606
4911.80967,0.00768
4913.73814,0.00080
4915.66661,-0.00023
4917.59508,0.00342
4919.52355,0.00692
4921.45202,0.00206
4923.38049,-0.00597
4925.30896,-0.00981
4927.23742,-0.00936
4929.16589,-0.00198
4931.09436,0.00934
4933.02283,0.01546
4934.95130,0.01443
4936.87977,0.01275
4938.80824,0.01516
4940.73670,0.01969
4942.66517,0.02538
4944.59364,0.03026
4946.52211,0.02418
4948.45058,0.00625
4950.37905,-0.00039
4952.30752,0.01526
4954.23599,0.02962
4956.16445,0.02850
4958.09292,0.01728
4960.02139,0.00006
4961.94986,-0.01363
4963.87833,-0.01460
4965.80680,-0.00371
4967.73527,0.00669
4969.66373,0.01093
4971.59220,0.01558
4973.52067,0.01659
4975.44914,0.00978
4977.37761,0.00074
4979.30608,-0.00971
4981.23455,-0.01797
4983.16302,-0.01078
4985.09148,0.01165
4987.01995,0.03023
4988.94842,0.03321
4990.87689,0.02507
4992.80536,0.01779
4994.73383,0.01575
4996.66230,0.00955
4998.59076,-0.00371
5000.51923,-0.01532
5002.44770,-0.01876
5004.37617,-0.00925
5006.30464,0.01068
5008.23311,0.02278
5010.16158,0.02225
5012.09005,0.02540
5014.01851,0.02717
5015.94698,0.01983
5017.87545,0.01730
5019.80392,0.02027
5021.73239,0.01984
5023.66086,0.01885
5025.58933,0.02351
5027.51779,0.02866
5029.44626,0.02717
5031.37473,0.02312
5033.30320,0.01918
5035.23167,0.01332
5037.16014,0.00512
5039.08861,0.00667
5041.01708,0.02137
5042.94554,0.02385
5044.87401,0.00878
5046.80248,-0.00056
5048.73095,0.00798
5050.65942,0.02478
5052.58789,0.02961
5054.51636,0.01726
5056.44482,0.00614
5058.37329,0.00682
5060.30176,0.01012
5062.23023,0.01393
5064.15870,0.02377
5066.08717,0.03295
5068.01564,0.02922
5069.94410,0.02055
5071.87257,0.02620
5073.80104,0.03653
5075.72951,0.03174
5077.65798,0.02055
5079.58645,0.01548
5081.51492,0.01484
5083.44339,0.01377
5085.37185,0.01080
5087.30032,0.00795
5089.22879,0.00677
5091.15726,0.01610
5093.08573,0.03481
5095.01420,0.03941
5096.94267,0.02268
5098.87113,0.00674
5100.79960,0.01167
5102.72807,0.02531
5104.65654,0.02275
5106.58501,0.01496
5108.51348,0.01976
5110.44195,0.02456
5112.37042,0.02766
5114.29888,0.03321
5116.22735,0.03312
5118.15582,0.03258
5120.08429,0.03290
5122.01276,0.02795
5123.94123,0.02391
5125.86970,0.02204
5127.79816,0.01164
5129.72663,0.00067
5131.65510,0.00472
5133.58357,0.01721
5135.51204,0.02977
5137.44051,0.03818
5139.36898,0.04490
5141.29745,0.04980
5143.22591,0.04192
5145.15438,0.03712
5147.08285,0.05204
5149.01132,0.06345
5150.93979,0.05121
5152.86826,0.03216
5154.79673,0.02656
5156.72519,0.03782
5158.65366,0.06075
5160.58213,0.07751
5162.51060,0.07659
5164.43907,0.05884
5166.36754,0.03543
5168.29601,0.02554
5170.22448,0.02842
5172.15294,0.02652
5174.08141,0.01754
5176.00988,0.01694
5177.93835,0.02729
5179.86682,0.03521
5181.79529,0.03642
5183.72376,0.03325
5185.65222,0.02972
5187.58069,0.02925
5189.50916,0.03560
5191.43763,0.05002
5193.36610,0.05333
5195.29457,0.03621
5197.22304,0.02789
5199.15151,0.04758
5201.07997,0.06781
5203.00844,0.06176
5204.93691,0.03809
5206.86538,0.02659
5208.79385,0.02956
5210.72232,0.02604
5212.65079,0.02294
5214.57925,0.02754
5216.50772,0.03417
5218.43619,0.04157
5220.36466,0.04894
5222.29313,0.04741
5224.22160,0.03389
5226.15007,0.02638
5228.07854,0.03278
5230.00700,0.04112
5231.93547,0.04594
5233.86394,0.04383
5235.79241,0.03905
5237.72088,0.03584
5239.64935,0.02773
5241.57782,0.02197
5243.50628,0.03214
5245.43475,0.04272
5247.36322,0.04312
5249.29169,0.04781
5251.22016,0.05806
5253.14863,0.06898
5255.07710,0.07437
5257.00556,0.06636
5258.93403,0.04995
5260.86250,0.03338
5262.79097,0.01842
5264.71944,0.00761
5266.64791,0.01626
5268.57638,0.04701
5270.50485,0.07369
5272.43331,0.08181
5274.36178,0.08629
5276.29025,0.08563
5278.21872,0.07287
5280.14719,0.06252
5282.07566,0.05441
5284.00413,0.03999
5285.93259,0.03392
5287.86106,0.03332
5289.78953,0.02492
5291.71800,0.02397
5293.64647,0.03588
5295.57494,0.05539
5297.50341,0.07469
5299.43188,0.07522
5301.36034,0.05499
5303.28881,0.03205
5305.21728,0.02676
5307.14575,0.03552
5309.07422,0.04333
5311.00269,0.05122
5312.93116,0.05724
5314.85962,0.06148
5316.78809,0.07624
5318.71656,0.09205
5320.64503,0.08856
5322.57350,0.07685
5324.50197,0.07086
5326.43044,0.06805
5328.35891,0.06599
5330.28737,0.05266
5332.21584,0.03871
5334.14431,0.05820
5336.07278,0.08748
5338.00125,0.08551
5339.92972,0.07694
5341.85819,0.08569
5343.78665,0.09456
5345.71512,0.09247
5347.64359,0.08549
5349.57206,0.07856
5351.50053,0.07068
5353.42900,0.06282
5355.35747,0.07102
5357.28594,0.10166
5359.21440,0.10769
5361.14287,0.06604
5363.07134,0.03980
5364.99981,0.05304
5366.92828,0.05637
5368.85675,0.04872
5370.78522,0.05403
5372.71368,0.05593
5374.64215,0.04997
5376.57062,0.05976
5378.49909,0.06525
5380.42756,0.05254
5382.35603,0.05013
5384.28450,0.06187
5386.21297,0.06765
5388.14143,0.07673
5390.06990,0.09505
5391.99837,0.09924
5393.92684,0.07814
5395.85531,0.05875
5397.78378,0.06466
5399.71225,0.09037
5401.64071,0.11481
5403.56918,0.11295
5405.49765,0.09257
5407.42612,0.07859
5409.35459,0.07801
5411.28306,0.09142
5413.21153,0.10970
5415.13999,0.10919
5417.06846,0.08248
5418.99693,0.05588
5420.92540,0.05834
5422.85387,0.07338
5424.78234,0.06115
5426.71081,0.04042
5428.63928,0.04883
5430.56774,0.05059
5432.49621,0.03869
5434.42468,0.04628
5436.35315,0.06059
5438.28162,0.07090
5440.21009,0.07709
5442.13856,0.06531
5444.06702,0.04409
5445.99549,0.04311
5447.92396,0.05180
5449.85243,0.04155
5451.78090,0.03596
5453.70937,0.04941
5455.63784,0.06251
5457.56631,0.05910
5459.49477,0.04840
5461.42324,0.05764
5463.35171,0.07683
5465.28018,0.07996
5467.20865,0.07889
5469.13712,0.08530
5471.06559,0.09469
5472.99405,0.09739
5474.92252,0.08342
5476.85099,0.06453
5478.77946,0.05901
5480.70793,0.06516
5482.63640,0.07135
5484.56487,0.07923
5486.49334,0.09872
5488.42180,0.11726
5490.35027,0.11822
5492.27874,0.10263
5494.20721,0.08022
5496.13568,0.05371
5498.06415,0.03401
5499.99262,0.04916
5501.92108,0.07877
5503.84955,0.07880
5505.77802,0.06194
5507.70649,0.05090
5509.63496,0.04838
5511.56343,0.05635
5513.49190,0.07410
5515.42037,0.09668
5517.34883,0.09999
5519.27730,0.08147
5521.20577,0.07457
5523.13424,0.08128
5525.06271,0.08135
5526.99118,0.06851
5528.91965,0.05781
5530.84811,0.06125
5532.77658,0.06881
5534.70505,0.08488
5536.63352,0.09705
5538.56199,0.07718
5540.49046,0.04705
5542.41893,0.03563
5544.34740,0.04480
5546.27586,0.06389
5548.20433,0.07332
5550.13280,0.07567
5552.06127,0.08423
5553.98974,0.09324
5555.91821,0.08298
5557.84668,0.05819
5559.77514,0.06209
5561.70361,0.09290
5563.63208,0.10783
5565.56055,0.09597
5567.48902,0.08079
5569.41749,0.08792
5571.34596,0.09101
5573.27443,0.06666
5575.20289,0.05703
5577.13136,0.07318
5579.05983,0.08921
5580.98830,0.10662
5582.91677,0.11353
5584.84524,0.09065
5586.77371,0.06750
5588.70217,0.07675
5590.63064,0.09896
5592.55911,0.10826
5594.48758,0.10485
5596.41605,0.09289
5598.34452,0.07980
5600.27299,0.08031
5602.20145,0.09482
5604.12992,0.09716
5606.05839,0.07231
5607.98686,0.03909
5609.91533,0.02827
5611.84380,0.05898
5613.77227,0.10471
5615.70074,0.11557
5617.62920,0.09625
5619.55767,0.07526
5621.48614,0.05887
5623.41461,0.05742
5625.34308,0.07007
5627.27155,0.07614
5629.20002,0.07167
5631.12848,0.07079
5633.05695,0.08998
5634.98542,0.11942
5636.91389,0.11583
5638.84236,0.07836
5640.77083,0.05030
5642.69930,0.04675
5644.62777,0.06895
5646.55623,0.10367
5648.48470,0.12016
5650.41317,0.12260
5652.34164,0.11831
5654.27011,0.09957
5656.19858,0.07550
5658.12705,0.05374
5660.05551,0.02758
5661.98398,-0.00475
5663.91245,-0.01894
5665.84092,0.00826
5667.76939,0.04956
5669.69786,0.05547
5671.62633,0.03235
5673.55480,0.02691
5675.48326,0.03925
5677.41173,0.04926
5679.34020,0.06767
5681.26867,0.09566
5683.19714,0.10717
5685.12561,0.09633
5687.05408,0.08225
5688.98254,0.06153
5690.91101,0.03714
5692.83948,0.03803
5694.76795,0.06229
5696.69642,0.08204
5698.62489,0.08439
5700.55336,0.08328
5702.48183,0.07920
5704.41029,0.06483
5706.33876,0.07167
5708.26723,0.10132
5710.19570,0.11220
5712.12417,0.10197
5714.05264,0.09566
5715.98111,0.10511
5717.90957,0.11757
5719.83804,0.10716
5721.76651,0.07105
5723.69498,0.03839
5725.62345,0.04289
5727.55192,0.08401
5729.48039,0.13136
5731.40886,0.15038
5733.33732,0.12685
5735.26579,0.09645
5737.19426,0.09233
5739.12273,0.08545
5741.05120,0.07539
5742.97967,0.09443
5744.90814,0.12537
5746.83660,0.13589
5748.76507,0.12426
5750.69354,0.10463
5752.62201,0.10220
5754.55048,0.10691
5756.47895,0.08136
5758.40742,0.06418
5760.33588,0.08425
5762.26435,0.09767
5764.19282,0.11117
5766.12129,0.14309
5768.04976,0.15574
5769.97823,0.14127
5771.90670,0.12094
5773.83517,0.10398
5775.76363,0.07895
5777.69210,0.04550
5779.62057,0.03837
5781.54904,0.06274
5783.47751,0.08498
5785.40598,0.09758
5787.33445,0.10486
5789.26291,0.11232
5791.19138,0.11432
5793.11985,0.08534
5795.04832,0.04959
5796.97679,0.04931
5798.90526,0.06335
5800.83373,0.05753
5802.76220,0.04610
5804.69066,0.05766
5806.61913,0.08118
5808.54760,0.08595
5810.47607,0.06306
5812.40454,0.04888
5814.33301,0.09054
5816.26148,0.14529
5818.18994,0.13810
5820.11841,0.09443
5822.04688,0.07792
5823.97535,0.08959
5825.90382,0.10179
5827.83229,0.10499
5829.76076,0.11321
5831.68923,0.12907
5833.61769,0.13040
5835.54616,0.10771
5837.47463,0.09035
5839.40310,0.08618
5841.33157,0.06820
5843.26004,0.05694
5845.18851,0.06235
5847.11697,0.04741
5849.04544,0.02524
5850.97391,0.03324
5852.90238,0.05988
5854.83085,0.08860
5856.75932,0.11826
5858.68779,0.13696
5860.61626,0.12843
5862.54472,0.09946
5864.47319,0.07136
5866.40166,0.04737
5868.33013,0.03269
5870.25860,0.05113
5872.18707,0.08524
5874.11554,0.09177
5876.04400,0.08602
5877.97247,0.09324
5879.90094,0.07373
5881.82941,0.04519
5883.75788,0.06386
5885.68635,0.10013
5887.61482,0.12045
5889.54329,0.12096
5891.47175,0.11077
5893.40022,0.10863
5895.32869,0.11805
5897.25716,0.13569
5899.18563,0.11793
5901.11410,0.05518
5903.04257,0.02573
5904.97103,0.06132
5906.89950,0.10874
5908.82797,0.10238
5910.75644,0.06263
5912.68491,0.06522
5914.61338,0.09669
5916.54185,0.11660
5918.47032,0.12386
5920.39878,0.11417
5922.32725,0.08303
5924.25572,0.06848
5926.18419,0.10538
5928.11266,0.14241
5930.04113,0.13475
5931.96960,0.10197
5933.89806,0.07322
5935.82653,0.06534
5937.75500,0.06268
5939.68347,0.05367
5941.61194,0.04995
5943.54041,0.05388
5945.46888,0.04571
5947.39734,0.02255
5949.32581,0.02654
5951.25428,0.07073
5953.18275,0.10523
5955.11122,0.10966
5957.03969,0.10670
5958.96816,0.09886
5960.89663,0.07793
5962.82509,0.06816
5964.75356,0.07147
5966.68203,0.06494
5968.61050,0.06600
5970.53897,0.08655
5972.46744,0.09883
5974.39591,0.09144
5976.32437,0.08464
5978.25284,0.08982
5980.18131,0.09562
5982.10978,0.10308
5984.03825,0.10798
5985.96672,0.08795
5987.89519,0.05017
5989.82366,0.03209
5991.75212,0.05780
5993.68059,0.09725
5995.60906,0.11075
5997.53753,0.11479
5999.46600,0.11992
6001.39447,0.10044
6003.32294,0.05839
6005.25140,0.03082
6007.17987,0.02928
6009.10834,0.04168
6011.03681,0.05425
6012.96528,0.06030
6014.89375,0.07697
6016.82222,0.08878
6018.75069,0.09003
6020.67915,0.11727
6022.60762,0.13193
6024.53609,0.11562
6026.46456,0.12124
6028.39303,0.15596
6030.32150,0.16964
6032.24997,0.12669
6034.17843,0.06313
6036.10690,0.03790
6038.03537,0.05541
6039.96384,0.07721
6041.89231,0.09544
6043.82078,0.12143
6045.74925,0.11193
6047.67772,0.05032
6049.60618,-0.01220
6051.53465,-0.03574
6053.46312,-0.01555
6055.39159,0.00937
6057.32006,-0.00025
6059.24853,-0.01533
6061.17700,0.01535
6063.10546,0.11291
6065.03393,0.19191
6066.96240,0.15835
6068.89087,0.06330
6070.81934,0.02239
6072.74781,0.06315
6074.67628,0.12238
6076.60475,0.15424
6078.53321,0.16416
6080.46168,0.15993
6082.39015,0.14340
6084.31862,0.11005
6086.24709,0.05294
6088.17556,0.02789
6090.10403,0.08169
6092.03249,0.13929
6093.96096,0.12937
6095.88943,0.09584
6097.81790,0.11641
6099.74637,0.17300
6101.67484,0.17345
6103.60331,0.11137
6105.53177,0.06852
6107.46024,0.08952
6109.38871,0.12893
6111.31718,0.13386
6113.24565,0.11746
6115.17412,0.11689
6117.10259,0.14019
6119.03106,0.13913
6120.95952,0.10818
6122.88799,0.10507
6124.81646,0.12377
6126.74493,0.10619
6128.67340,0.04856
6130.60187,0.02339
6132.53034,0.04589
6134.45880,0.06983
6136.38727,0.09560
6138.31574,0.12741
6140.24421,0.11696
6142.17268,0.06417
6144.10115,0.03244
6146.02962,0.04466
6147.95809,0.08270
6149.88655,0.11473
6151.81502,0.12099
6153.74349,0.09725
6155.67196,0.07112
6157.60043,0.09247
6159.52890,0.12046
6161.45737,0.08141
6163.38583,0.05085
6165.31430,0.09073
6167.24277,0.10371
6169.17124,0.08002
6171.09971,0.08689
6173.02818,0.08920
6174.95665,0.06815
6176.88512,0.08346
6178.81358,0.11074
6180.74205,0.08988
6182.67052,0.06608
6184.59899,0.07769
6186.52746,0.09075
6188.45593,0.08784
6190.38440,0.08222
6192.31286,0.07921
6194.24133,0.07713
6196.16980,0.07126
6198.09827,0.07732
6200.02674,0.12855
6201.95521,0.20183
6203.88368,0.21921
6205.81215,0.14934
6207.74061,0.06119
6209.66908,0.02078
6211.59755,0.01441
6213.52602,0.02398
6215.45449,0.08483
6217.38296,0.16419
6219.31143,0.18638
6221.23989,0.14927
6223.16836,0.06142
6225.09683,-0.02854
6227.02530,-0.02143
6228.95377,0.05239
6230.88224,0.09806
6232.81071,0.08110
6234.73918,0.00771
6236.66764,-0.03660
6238.59611,0.00383
6240.52458,0.06117
6242.45305,0.07031
6244.38152,0.05427
6246.30999,0.06546
6248.23846,0.10955
6250.16692,0.13990
6252.09539,0.11193
6254.02386,0.05444
6255.95233,0.04242
6257.88080,0.06684
6259.80927,0.06796
6261.73774,0.05103
6263.66621,0.03242
6265.59467,0.01083
6267.52314,0.00752
6269.45161,0.05131
6271.38008,0.12488
6273.30855,0.18244
6275.23702,0.17733
6277.16549,0.09921
6279.09395,0.01643
6281.02242,-0.01242
6282.95089,0.00534
6284.87936,0.05604
6286.80783,0.12919
6288.73630,0.17618
6290.66477,0.15470
6292.59323,0.11928
6294.52170,0.10329
6296.45017,0.06302
6298.37864,0.00887
6300.30711,-0.00018
6302.23558,0.04982
6304.16405,0.08815
6306.09252,0.07811
6308.02098,0.07263
6309.94945,0.08847
6311.87792,0.09161
6313.80639,0.09989
6315.73486,0.12266
6317.66333,0.12520
6319.59180,0.12297
6321.52026,0.13569
6323.44873,0.12066
6325.37720,0.08782
6327.30567,0.09076
6329.23414,0.11112
6331.16261,0.09275
6333.09108,0.04402
6335.01955,0.02732
6336.94801,0.04125
6338.87648,0.06184
6340.80495,0.11298
6342.73342,0.16660
6344.66189,0.18636
6346.59036,0.17573
6348.51883,0.15948
6350.44729,0.16370
6352.37576,0.15400
6354.30423,0.13679
6356.23270,0.17140
6358.16117,0.21703
6360.08964,0.16761
6362.01811,0.06128
6363.94658,0.01390
6365.87504,0.01245
6367.80351,0.00635
6369.73198,0.01292
6371.66045,0.03933
6373.58892,0.04673
6375.51739,-0.00132
6377.44586,-0.06559
6379.37432,-0.06135
6381.30279,0.02844
6383.23126,0.10993
6385.15973,0.09523
6387.08820,0.04983
6389.01667,0.03750
6390.94514,0.03863
6392.87361,0.03092
6394.80207,0.03184
6396.73054,0.06131
6398.65901,0.09298
6400.58748,0.08917
6402.51595,0.03982
6404.44442,-0.02642
6406.37289,-0.03315
6408.30135,0.05369
6410.22982,0.14303
6412.15829,0.16809
6414.08676,0.18081
6416.01523,0.17791
6417.94370,0.09357
6419.87217,0.01457
6421.80064,0.01600
6423.72910,0.01658
6425.65757,-0.02426
6427.58604,-0.06175
6429.51451,-0.06610
6431.44298,-0.05224
6433.37145,-0.03727
6435.29992,-0.00531
6437.22838,0.05339
6439.15685,0.10451
6441.08532,0.12526
6443.01379,0.09282
6444.94226,0.02730
6446.87073,0.00403
6448.79920,0.01632
6450.72766,0.04733
6452.65613,0.06684
6454.58460,0.04639
6456.51307,0.05627
6458.44154,0.10856
6460.37001,0.12638
6462.29848,0.10293
6464.22695,0.07848
6466.15541,0.07990
6468.08388,0.06325
6470.01235,0.00861
6471.94082,0.00201
6473.86929,0.01710
6475.79776,0.00401
6477.72623,-0.01522
6479.65469,-0.01117
6481.58316,0.06801
6483.51163,0.13366
6485.44010,0.10949
6487.36857,0.08306
6489.29704,0.09648
6491.22551,0.08778
6493.15398,0.04196
6495.08244,0.02060
6497.01091,0.01857
6498.93938,0.03135
6500.86785,0.07880
6502.79632,0.12452
6504.72479,0.14094
6506.65326,0.12296
6508.58172,0.10149
6510.51019,0.11736
6512.43866,0.09560
6514.36713,0.05004
6516.29560,0.06877
6518.22407,0.05236
6520.15254,-0.02991
6522.08101,-0.08638
6524.00947,-0.10031
6525.93794,-0.06471
6527.86641,0.00667
6529.79488,0.05924
6531.72335,0.07431
6533.65182,0.06796
6535.58029,0.07309
6537.50875,0.12400
6539.43722,0.18700
6541.36569,0.17857
6543.29416,0.10287
6545.22263,0.04316
6547.15110,0.05355
6549.07957,0.12928
6551.00804,0.19761
6552.93650,0.18495
6554.86497,0.13778
6556.79344,0.11106
6558.72191,0.07283
6560.65038,0.03827
6562.57885,0.06042
6564.50732,0.07256
6566.43578,-0.00920
6568.36425,-0.08477
6570.29272,-0.07465
6572.22119,-0.06509
6574.14966,-0.05752
6576.07813,0.03410
6578.00660,0.17810
6579.93507,0.24787
6581.86353,0.21355
6583.79200,0.17971
6585.72047,0.13146
6587.64894,-0.00011
6589.57741,-0.07803
6591.50588,-0.01785
6593.43435,0.08287
6595.36281,0.14480
6597.29128,0.15018
6599.21975,0.08957
6601.14822,-0.01089
6603.07669,-0.07181
6605.00516,-0.02680
6606.93363,0.06754
6608.86210,0.06779
6610.79056,0.01558
6612.71903,0.04416
6614.64750,0.09586
6616.57597,0.05209
6618.50444,-0.03427
6620.43291,-0.02562
6622.36138,0.03512
6624.28984,0.01902
6626.21831,-0.03113
6628.14678,-0.01268
6630.07525,0.01168
6632.00372,0.01529
6633.93219,0.10790
6635.86066,0.18951
6637.78912,0.10394
6639.71759,-0.00470
6641.64606,-0.02460
6643.57453,-0.01943
6645.50300,-0.01462
6647.43147,0.05082
6649.35994,0.11328
6651.28841,0.11140
6653.21687,0.13049
6655.14534,0.21303
6657.07381,0.26953
6659.00228,0.19303
6660.93075,0.05121
6662.85922,0.02204
6664.78769,0.07956
6666.71615,0.10194
6668.64462,0.12871
6670.57309,0.18853
6672.50156,0.18082
6674.43003,0.10333
6676.35850,0.07223
6678.28697,0.09806
6680.21544,0.11882
6682.14390,0.14243
6684.07237,0.17854
6686.00084,0.20248
6687.92931,0.18422
6689.85778,0.10138
6691.78625,0.02264
6693.71472,0.01628
6695.64318,0.07148
6697.57165,0.09921
6699.50012,0.05547
6701.42859,0.00764
6703.35706,-0.01028
6705.28553,0.01031
6707.21400,0.07214
6709.14247,0.09489
6711.07093,0.07215
6712.99940,0.09200
6714.92787,0.12751
6716.85634,0.12856
6718.78481,0.14347
6720.71328,0.15090
6722.64175,0.11166
6724.57021,0.08541
6726.49868,0.08811
6728.42715,0.08671
6730.35562,0.05363
6732.28409,0.00750
6734.21256,0.00690
6736.14103,0.05697
6738.06950,0.11051
6739.99796,0.12867
6741.92643,0.10391
6743.85490,0.08456
6745.78337,0.09830
6747.71184,0.11272
6749.64031,0.09549
6751.56878,0.04566
6753.49724,0.00167
6755.42571,0.01075
6757.35418,0.04733
6759.28265,0.07224
6761.21112,0.06771
6763.13959,0.03598
6765.06806,0.04098
6766.99653,0.08002
6768.92499,0.03238
6770.85346,-0.06784
6772.78193,-0.04761
6774.71040,0.04989
6776.63887,0.08625
6778.56734,0.08696
6780.49581,0.10423
6782.42427,0.13352
6784.35274,0.16652
6786.28121,0.18049
6788.20968,0.17970
6790.13815,0.16526
6792.06662,0.06985
6793.99509,-0.03117
6795.92355,-0.02733
6797.85202,-0.01600
6799.78049,-0.02752
6801.70896,0.01933
6803.63743,0.08507
6805.56590,0.10505
6807.49437,0.10183
6809.42284,0.06639
6811.35130,0.00127
6813.27977,-0.04084
6815.20824,-0.06282
6817.13671,-0.07517
6819.06518,-0.06460
6820.99365,-0.00267
6822.92212,0.13900
6824.85058,0.24528
6826.77905,0.21835
6828.70752,0.12288
6830.63599,0.04267
6832.56446,-0.00415
6834.49293,-0.01354
6836.42140,0.02268
6838.34987,0.10010
6840.27833,0.15796
6842.20680,0.10003
6844.13527,-0.03212
6846.06374,-0.07426
6847.99221,0.02777
6849.92068,0.11983
6851.84915,0.06879
6853.77761,-0.05188
6855.70608,-0.08695
6857.63455,-0.02227
6859.56302,0.00248
6861.49149,-0.00330
6863.41996,0.01082
6865.34843,0.04726
6867.27690,0.08778
6869.20536,0.08194
6871.13383,0.07864
6873.06230,0.11269
6874.99077,0.10275
6876.91924,0.07378
6878.84771,0.06096
6880.77618,0.04939
6882.70464,0.10835
6884.63311,0.18037
6886.56158,0.13638
6888.49005,0.06502
6890.41852,0.08104
6892.34699,0.07060
6894.27546,-0.02623
6896.20393,-0.09565
6898.13239,-0.09310
6900.06086,-0.04125
6901.98933,0.03254
6903.91780,0.02023
6905.84627,-0.06375
6907.77474,-0.02290
6909.70321,0.09583
6911.63167,0.14176
6913.56014,0.10779
6915.48861,0.05110
6917.41708,0.02876
6919.34555,0.06963
6921.27402,0.04603
6923.20249,-0.06811
6925.13096,-0.07621
6927.05942,0.03512
6928.98789,0.13788
6930.91636,0.16873
6932.84483,0.11164
6934.77330,0.02400
6936.70177,-0.03195
6938.63024,-0.03741
6940.55870,0.03180
6942.48717,0.13603
6944.41564,0.16930
6946.34411,0.12893
6948.27258,0.11982
6950.20105,0.14320
6952.12952,0.10109
6954.05799,0.02597
6955.98645,0.02615
6957.91492,0.10169
6959.84339,0.23256
6961.77186,0.31989
6963.70033,0.25085
6965.62880,0.10689
6967.55727,0.03069
6969.48573,0.08051
6971.41420,0.14715
6973.34267,0.12829
6975.27114,0.03695
6977.19961,-0.03232
6979.12808,-0.01829
6981.05655,0.02471
6982.98501,0.02719
6984.91348,0.02320
6986.84195,0.11311
6988.77042,0.24501
6990.69889,0.25025
6992.62736,0.10761
6994.55583,-0.02903
6996.48430,-0.01074
6998.41276,0.11499
7000.34123,0.18124
7002.26970,0.17794
7004.19817,0.16464
7006.12664,0.12321
7008.05511,0.05928
7009.98358,0.06878
7011.91204,0.18835
7013.84051,0.30371
7015.76898,0.28302
7017.69745,0.20312
7019.62592,0.15041
7021.55439,0.11809
7023.48286,0.06579
7025.41133,-0.01569
7027.33979,-0.04367
7029.26826,0.07040
7031.19673,0.19588
7033.12520,0.22108
7035.05367,0.19998
7036.98214,0.20207
7038.91061,0.23847
7040.83907,0.27804
7042.76754,0.34051
7044.69601,0.38429
7046.62448,0.24331
7048.55295,-0.00220
7050.48142,-0.10430
7052.40989,-0.05234
7054.33836,-0.01597
7056.26682,0.00935
7058.19529,0.16971
7060.12376,0.26330
7062.05223,0.17766
7063.98070,0.08608
7065.90917,0.06011
7067.83764,0.07147
7069.76610,0.09436
7071.69457,0.11335
7073.62304,0.13618
7075.55151,0.09646
7077.47998,-0.01301
7079.40845,-0.05032
7081.33692,0.06421
7083.26539,0.09872
7085.19385,0.02998
7087.12232,0.04250
7089.05079,0.11958
7090.97926,0.16885
7092.90773,0.16972
7094.83620,0.11745
7096.76467,0.06640
7098.69313,0.08243
7100.62160,0.11787
7102.55007,0.09457
7104.47854,0.03383
7106.40701,-0.03881
7108.33548,-0.08845
7110.26395,-0.06997
7112.19242,-0.02528
7114.12088,0.01719
7116.04935,0.13034
7117.97782,0.31891
7119.90629,0.42122
7121.83476,0.40293
7123.76323,0.34418
7125.69170,0.27296
7127.62016,0.19547
7129.54863,0.15034
7131.47710,0.15338
7133.40557,0.17111
7135.33404,0.15155
7137.26251,0.13271
7139.19098,0.17742
7141.11944,0.19000
7143.04791,0.16680
7144.97638,0.20928
7146.90485,0.18242
7148.83332,0.04959
7150.76179,-0.06449
7152.69026,-0.12736
7154.61873,-0.08562
7156.54719,0.02497
7158.47566,0.09107
7160.40413,0.06760
7162.33260,-0.04099
7164.26107,-0.10038
7166.18954,-0.06115
7168.11801,-0.08230
7170.04647,-0.12778
7171.97494,-0.03876
7173.90341,0.14281
7175.83188,0.25145
7177.76035,0.21756
7179.68882,0.21795
7181.61729,0.22549
7183.54576,0.11237
7185.47422,0.11829
7187.40269,0.22935
7189.33116,0.20889
7191.25963,0.07822
7193.18810,0.01617
7195.11657,0.06498
7197.04504,0.13561
7198.97350,0.13752
7200.90197,0.11500
7202.83044,0.13248
7204.75891,0.14166
7206.68738,0.10826
7208.61585,0.13310
7210.54432,0.15565
7212.47279,0.06432
7214.40125,-0.03455
7216.32972,-0.00557
7218.25819,0.08688
7220.18666,0.09372
7222.11513,0.00611
7224.04360,-0.07765
7225.97207,-0.06988
7227.90053,0.05384
7229.82900,0.20010
7231.75747,0.16705
7233.68594,0.04941
7235.61441,0.00759
7237.54288,-0.02236
7239.47135,0.00554
7241.39982,0.05648
7243.32828,0.02428
7245.25675,-0.01770
7247.18522,-0.04140
7249.11369,-0.03202
7251.04216,0.00561
7252.97063,-0.00645
7254.89910,-0.06001
7256.82756,-0.07748
7258.75603,0.01388
7260.68450,0.22741
7262.61297,0.29261
7264.54144,0.08946
7266.46991,-0.00824
7268.39838,0.10408
7270.32685,0.22565
7272.25531,0.16919
7274.18378,-0.05515
7276.11225,-0.21312
7278.04072,-0.32163
7279.96919,-0.37673
7281.89766,-0.23485
7283.82613,-0.04424
7285.75459,0.05994
7287.68306,0.06586
7289.61153,-0.03467
7291.54000,-0.15254
7293.46847,-0.05722
7295.39694,0.19229
7297.32541,0.25459
7299.25387,0.14704
7301.18234,0.12549
7303.11081,0.20043
7305.03928,0.23601
7306.96775,0.24173
7308.89622,0.32045
7310.82469,0.39778
7312.75316,0.34283
7314.68162,0.21238
7316.61009,0.10155
7318.53856,0.13544
7320.46703,0.28534
7322.39550,0.39147
7324.32397,0.40808
7326.25244,0.36333
7328.18090,0.20778
7330.10937,0.05543
7332.03784,0.06992
7333.96631,0.08727
7335.89478,0.05686
7337.82325,0.07302
7339.75172,0.15416
7341.68019,0.15381
7343.60865,0.07858
7345.53712,0.05006
7347.46559,0.12985
7349.39406,0.26742
7351.32253,0.35001
7353.25100,0.33454
7355.17947,0.18843
7357.10793,0.00105
7359.03640,-0.00524
7360.96487,0.01276
7362.89334,-0.04155
7364.82181,-0.03132
7366.75028,-0.06371
7368.67875,-0.21489
7370.60722,-0.31955
7372.53568,-0.25501
7374.46415,-0.01454
7376.39262,0.21141
7378.32109,0.23627
7380.24956,0.18569
7382.17803,0.14238
7384.10650,0.19938
7386.03496,0.27868
7387.96343,0.16344
7389.89190,-0.04591
7391.82037,-0.14383
7393.74884,-0.07515
7395.67731,0.02161
7397.60578,-0.00439
7399.53425,-0.02228
7401.46271,0.04018
7403.39118,0.06752
7405.31965,0.05053
7407.24812,0.11750
7409.17659,0.19642
7411.10506,0.17282
7413.03353,0.16024
7414.96199,0.24785
7416.89046,0.25131
7418.81893,0.07798
7420.74740,-0.03640
7422.67587,-0.13820
7424.60434,-0.20112
7426.53281,-0.02944
7428.46128,0.27097
7430.38974,0.35840
7432.31821,0.26275
7434.24668,0.23476
7436.17515,0.16374
7438.10362,-0.06297
7440.03209,-0.26787
7441.96056,-0.26953
7443.88902,-0.11814
7445.81749,0.06478
7447.74596,0.14985
7449.67443,0.09084
7451.60290,0.03379
7453.53137,0.01808
7455.45984,0.00649
7457.38831,0.07710
7459.31677,0.15186
7461.24524,0.03174
7463.17371,-0.12046
7465.10218,-0.10169
7467.03065,0.01874
7468.95912,0.09175
7470.88759,0.08316
7472.81605,0.07527
7474.74452,0.22408
7476.67299,0.41707
7478.60146,0.29106
7480.52993,-0.02721
7482.45840,-0.06673
7484.38687,0.07315
7486.31533,0.23271
7488.24380,0.38867
7490.17227,0.40480
7492.10074,0.31441
7494.02921,0.26142
7495.95768,0.24375
7497.88615,0.28488
