399.19301,-0.26325
401.12148,0.44243
403.04995,0.64306
404.97842,0.47133
406.90689,0.27248
408.83536,0.18515
410.76382,0.21279
412.69229,0.32967
414.62076,0.44083
416.54923,0.47326
418.47770,0.36405
420.40617,0.20142
422.33464,0.16045
424.26311,0.12510
426.19157,0.04681
428.12004,-0.01413
430.04851,-0.07823
431.97698,-0.12895
433.90545,-0.05438
435.83392,0.09288
437.76239,0.18112
439.69085,0.21001
441.61932,0.23865
443.54779,0.24541
445.47626,0.22872
447.40473,0.21570
449.33320,0.17490
451.26167,0.12100
453.19013,0.06332
455.11860,-0.00990
457.04707,-0.01839
458.97554,0.03342
460.90401,-0.01384
462.83248,-0.09863
464.76095,-0.07291
466.68942,0.02367
468.61788,0.07845
470.54635,0.10692
472.47482,0.21286
474.40329,0.26359
476.33176,0.10976
478.26023,0.04293
480.18870,0.07710
482.11716,0.10606
484.04563,0.12790
485.97410,0.16838
487.90257,0.17162
489.83104,0.14720
491.75951,0.15924
493.68798,0.17413
495.61645,0.12837
497.54491,0.04567
499.47338,-0.01846
501.40185,-0.05652
503.33032,-0.04976
505.25879,0.03172
507.18726,0.14118
509.11573,0.18146
511.04419,0.18279
512.97266,0.20009
514.90113,0.20694
516.82960,0.17625
518.75807,0.12066
520.68654,0.09290
522.61501,0.11676
524.54348,0.17669
526.47194,0.22308
528.40041,0.20927
530.32888,0.17942
532.25735,0.17142
534.18582,0.15658
536.11429,0.12056
538.04276,0.08293
539.97122,0.07186
541.89969,0.10059
543.82816,0.14257
545.75663,0.16652
547.68510,0.17463
549.61357,0.17265
551.54204,0.19424
553.47051,0.23745
555.39897,0.22317
557.32744,0.16536
559.25591,0.13700
561.18438,0.12586
563.11285,0.11488
565.04132,0.10896
566.96979,0.10513
568.89825,0.11450
570.82672,0.13732
572.75519,0.14933
574.68366,0.13805
576.61213,0.11180
578.54060,0.10078
580.46907,0.12594
582.39754,0.14865
584.32600,0.13220
586.25447,0.10016
588.18294,0.09729
590.11141,0.13308
592.03988,0.15430
593.96835,0.13259
595.89682,0.10575
597.82528,0.10068
599.75375,0.11975
601.68222,0.13400
603.61069,0.13070
605.53916,0.13149
607.46763,0.12269
609.39610,0.09583
611.32456,0.08451
613.25303,0.10100
615.18150,0.11249
617.10997,0.10739
619.03844,0.10546
620.96691,0.10476
622.89538,0.10628
624.82385,0.12529
626.75231,0.14389
628.68078,0.14197
630.60925,0.16086
632.53772,0.19899
634.46619,0.17875
636.39466,0.12779
638.32313,0.10778
640.25159,0.09586
642.18006,0.08929
644.10853,0.10013
646.03700,0.11189
647.96547,0.12828
649.89394,0.14025
651.82241,0.12907
653.75088,0.11451
655.67934,0.11274
657.60781,0.11599
659.53628,0.12076
661.46475,0.13034
663.39322,0.13588
665.32169,0.12904
667.25016,0.11728
669.17862,0.12497
671.10709,0.14380
673.03556,0.14490
674.96403,0.13126
676.89250,0.12096
678.82097,0.11548
680.74944,0.11156
682.67791,0.11731
684.60637,0.12484
686.53484,0.11926
688.46331,0.10979
690.39178,0.11217
692.32025,0.11065
694.24872,0.09852
696.17719,0.10142
698.10565,0.11927
700.03412,0.13437
701.96259,0.14470
703.89106,0.14521
705.81953,0.14249
707.74800,0.13478
709.67647,0.07929
711.60494,0.01455
713.53340,0.04441
715.46187,0.12532
717.39034,0.15854
719.31881,0.15185
721.24728,0.13789
723.17575,0.13363
725.10422,0.14029
727.03268,0.14507
728.96115,0.14274
730.88962,0.13578
732.81809,0.12949
734.74656,0.12175
736.67503,0.11000
738.60350,0.10293
740.53197,0.10806
742.46043,0.12153
744.38890,0.13529
746.31737,0.14620
748.24584,0.15085
750.17431,0.14426
752.10278,0.13457
754.03125,0.13172
755.95971,0.13386
757.88818,0.13597
759.81665,0.13455
761.74512,0.13549
763.67359,0.13918
765.60206,0.13843
767.53053,0.13813
769.45900,0.13906
771.38746,0.13694
773.31593,0.14008
775.24440,0.14921
777.17287,0.15045
779.10134,0.14961
781.02981,0.15515
782.95828,0.15448
784.88674,0.14474
786.81521,0.12871
788.74368,0.10996
790.67215,0.10504
792.60062,0.11887
794.52909,0.13404
796.45756,0.13932
798.38602,0.13927
800.31449,0.13108
802.24296,0.11763
804.17143,0.11306
806.09990,0.12087
808.02837,0.13497
809.95684,0.14055
811.88531,0.13104
813.81377,0.12466
815.74224,0.13394
817.67071,0.13967
819.59918,0.12959
821.52765,0.12026
823.45612,0.11864
825.38459,0.11867
827.31305,0.11978
829.24152,0.12045
831.16999,0.12216
833.09846,0.12705
835.02693,0.12812
836.95540,0.12395
838.88387,0.12522
840.81234,0.13550
842.74080,0.14678
844.66927,0.15248
846.59774,0.15335
848.52621,0.15016
850.45468,0.14625
852.38315,0.14332
854.31162,0.13201
856.24008,0.11769
858.16855,0.11419
860.09702,0.11730
862.02549,0.12241
863.95396,0.13141
865.88243,0.14084
867.81090,0.14254
869.73937,0.13420
871.66783,0.12335
873.59630,0.11610
875.52477,0.11631
877.45324,0.12710
879.38171,0.13692
881.31018,0.13332
883.23865,0.12925
885.16711,0.13702
887.09558,0.14669
889.02405,0.14926
890.95252,0.14454
892.88099,0.13541
894.80946,0.13388
896.73793,0.14122
898.66640,0.13832
900.59486,0.12621
902.52333,0.12249
904.45180,0.12728
906.38027,0.13546
908.30874,0.14633
910.23721,0.15326
912.16568,0.15153
914.09414,0.14567
916.02261,0.14025
917.95108,0.13620
919.87955,0.13298
921.80802,0.13073
923.73649,0.12751
925.66496,0.12489
927.59343,0.13059
929.52189,0.14010
931.45036,0.14557
933.37883,0.14605
935.30730,0.14076
937.23577,0.13594
939.16424,0.13682
941.09271,0.14047
943.02117,0.14317
944.94964,0.14226
946.87811,0.13883
948.80658,0.13945
950.73505,0.14427
952.66352,0.14586
954.59199,0.14287
956.52045,0.13725
958.44892,0.13108
960.37739,0.13091
962.30586,0.13695
964.23433,0.14254
966.16280,0.14525
968.09127,0.14498
970.01974,0.14550
971.94820,0.14857
973.87667,0.14771
975.80514,0.14732
977.73361,0.15099
979.66208,0.14723
981.59055,0.13735
983.51902,0.13779
985.44748,0.14939
987.37595,0.15450
989.30442,0.14952
991.23289,0.14841
993.16136,0.15478
995.08983,0.15749
997.01830,0.14633
998.94677,0.13174
1000.87523,0.13394
1002.80370,0.14996
1004.73217,0.15743
1006.66064,0.15153
1008.58911,0.14822
1010.51758,0.15199
1012.44605,0.15649
1014.37451,0.16174
1016.30298,0.16401
1018.23145,0.16013
1020.15992,0.15634
1022.08839,0.15208
1024.01686,0.14893
1025.94533,0.15334
1027.87380,0.15730
1029.80226,0.15291
1031.73073,0.14432
1033.65920,0.14205
1035.58767,0.14846
1037.51614,0.15305
1039.44461,0.15475
1041.37308,0.15942
1043.30154,0.16675
1045.23001,0.17084
1047.15848,0.16632
1049.08695,0.15924
1051.01542,0.15631
1052.94389,0.15648
1054.87236,0.15652
1056.80083,0.15353
1058.72929,0.15277
1060.65776,0.15994
1062.58623,0.16759
1064.51470,0.16968
1066.44317,0.16944
1068.37164,0.16848
1070.30011,0.16747
1072.22857,0.16495
1074.15704,0.15892
1076.08551,0.15450
1078.01398,0.15032
1079.94245,0.14290
1081.87092,0.14232
1083.79939,0.15059
1085.72786,0.15772
1087.65632,0.16022
1089.58479,0.15836
1091.51326,0.15442
1093.44173,0.15178
1095.37020,0.15288
1097.29867,0.15654
1099.22714,0.15341
1101.15560,0.14709
1103.08407,0.15272
1105.01254,0.16044
1106.94101,0.15266
1108.86948,0.14206
1110.79795,0.14497
1112.72642,0.15108
1114.65489,0.14997
1116.58335,0.14837
1118.51182,0.15325
1120.44029,0.15933
1122.36876,0.15805
1124.29723,0.15525
1126.22570,0.15832
1128.15417,0.15913
1130.08263,0.15235
1132.01110,0.14356
1133.93957,0.13774
1135.86804,0.13915
1137.79651,0.14448
1139.72498,0.14418
1141.65345,0.14451
1143.58191,0.15303
1145.51038,0.15937
1147.43885,0.15989
1149.36732,0.16166
1151.29579,0.16402
1153.22426,0.16524
1155.15273,0.16654
1157.08120,0.16773
1159.00966,0.17003
1160.93813,0.17221
1162.86660,0.17141
1164.79507,0.16995
1166.72354,0.17013
1168.65201,0.16896
1170.58048,0.16376
1172.50894,0.15890
1174.43741,0.15941
1176.36588,0.16143
1178.29435,0.16106
1180.22282,0.16259
1182.15129,0.16687
1184.07976,0.16784
1186.00823,0.16767
1187.93669,0.17220
1189.86516,0.17429
1191.79363,0.16816
1193.72210,0.16205
1195.65057,0.16128
1197.57904,0.16112
1199.50751,0.15796
1201.43597,0.15678
1203.36444,0.16046
1205.29291,0.16340
1207.22138,0.16343
1209.14985,0.16164
1211.07832,0.15957
1213.00679,0.16068
1214.93526,0.16346
1216.86372,0.16427
1218.79219,0.16587
1220.72066,0.16981
1222.64913,0.17136
1224.57760,0.17043
1226.50607,0.16930
1228.43454,0.16606
1230.36300,0.16215
1232.29147,0.16099
1234.21994,0.16287
1236.14841,0.16653
1238.07688,0.16772
1240.00535,0.16531
1241.93382,0.16562
1243.86229,0.16823
1245.79075,0.16791
1247.71922,0.16642
1249.64769,0.16572
1251.57616,0.16470
1253.50463,0.16262
1255.43310,0.16151
1257.36157,0.16402
1259.29003,0.16867
1261.21850,0.17146
1263.14697,0.17150
1265.07544,0.17284
1267.00391,0.17530
1268.93238,0.17415
1270.86085,0.17179
1272.78932,0.17126
1274.71778,0.17122
1276.64625,0.17222
1278.57472,0.17376
1280.50319,0.17401
1282.43166,0.17360
1284.36013,0.17371
1286.28860,0.17419
1288.21706,0.17462
1290.14553,0.17568
1292.07400,0.17724
1294.00247,0.17773
1295.93094,0.17488
1297.85941,0.17114
1299.78788,0.17174
1301.71634,0.17355
1303.64481,0.17274
1305.57328,0.17134
1307.50175,0.17032
1309.43022,0.17036
1311.35869,0.17191
1313.28716,0.17357
1315.21563,0.17493
1317.14409,0.17736
1319.07256,0.18020
1321.00103,0.18138
1322.92950,0.18048
1324.85797,0.17726
1326.78644,0.17406
1328.71491,0.17431
1330.64337,0.17593
1332.57184,0.17626
1334.50031,0.17567
1336.42878,0.17525
1338.35725,0.17772
1340.28572,0.17919
1342.21419,0.17417
1344.14266,0.17044
1346.07112,0.17259
1347.99959,0.17474
1349.92806,0.17346
1351.85653,0.17220
1353.78500,0.17300
1355.71347,0.17468
1357.64194,0.17807
1359.57040,0.18257
1361.49887,0.18323
1363.42734,0.17935
1365.35581,0.17644
1367.28428,0.17727
1369.21275,0.18145
1371.14122,0.18554
1373.06969,0.18643
1374.99815,0.18463
1376.92662,0.18303
1378.85509,0.18117
1380.78356,0.17769
1382.71203,0.17684
1384.64050,0.18302
1386.56897,0.19033
1388.49743,0.18779
1390.42590,0.18172
1392.35437,0.18345
1394.28284,0.19139
1396.21131,0.19650
1398.13978,0.19828
1400.06825,0.19920
1401.99672,0.19610
1403.92518,0.19046
1405.85365,0.18491
1407.78212,0.18162
1409.71059,0.18279
1411.63906,0.18443
1413.56753,0.18310
1415.49600,0.18439
1417.42446,0.18954
1419.35293,0.18860
1421.28140,0.18296
1423.20987,0.18138
1425.13834,0.18043
1427.06681,0.18055
1428.99528,0.18540
1430.92375,0.18968
1432.85221,0.18951
1434.78068,0.18948
1436.70915,0.19008
1438.63762,0.18755
1440.56609,0.18359
1442.49456,0.18037
1444.42303,0.17914
1446.35149,0.18097
1448.27996,0.18171
1450.20843,0.17946
1452.13690,0.18216
1454.06537,0.19435
1455.99384,0.21307
1457.92231,0.21286
1459.85077,0.19346
1461.77924,0.18790
1463.70771,0.19421
1465.63618,0.19757
1467.56465,0.19299
1469.49312,0.19329
1471.42159,0.20643
1473.35006,0.22048
1475.27852,0.21427
1477.20699,0.20055
1479.13546,0.18994
1481.06393,0.18311
1482.99240,0.18074
1484.92087,0.18360
1486.84934,0.19083
1488.77780,0.19962
1490.70627,0.20239
1492.63474,0.19910
1494.56321,0.19835
1496.49168,0.20071
1498.42015,0.19846
1500.34862,0.19515
1502.27709,0.19813
1504.20555,0.20669
1506.13402,0.21888
1508.06249,0.21841
1509.99096,0.20609
1511.91943,0.19769
1513.84790,0.19651
1515.77637,0.20242
1517.70483,0.20928
1519.63330,0.21418
1521.56177,0.21796
1523.49024,0.21447
1525.41871,0.20886
1527.34718,0.20348
1529.27565,0.19853
1531.20412,0.19859
1533.13258,0.20231
1535.06105,0.20197
1536.98952,0.20307
1538.91799,0.21821
1540.84646,0.23779
1542.77493,0.23030
1544.70340,0.21430
1546.63186,0.20120
1548.56033,0.19674
1550.48880,0.19901
1552.41727,0.19865
1554.34574,0.19625
1556.27421,0.20200
1558.20268,0.21723
1560.13115,0.21710
1562.05961,0.20926
1563.98808,0.20561
1565.91655,0.20302
1567.84502,0.20486
1569.77349,0.20936
1571.70196,0.20637
1573.63043,0.20245
1575.55889,0.20315
1577.48736,0.20123
1579.41583,0.19595
1581.34430,0.19160
1583.27277,0.18783
1585.20124,0.18501
1587.12971,0.18465
1589.05818,0.18728
1590.98664,0.19164
1592.91511,0.19440
1594.84358,0.19267
1596.77205,0.18849
1598.70052,0.18669
1600.62899,0.18952
1602.55746,0.19376
1604.48592,0.19443
1606.41439,0.19177
1608.34286,0.18850
1610.27133,0.18703
1612.19980,0.18874
1614.12827,0.19268
1616.05674,0.19663
1617.98521,0.19826
1619.91367,0.20065
1621.84214,0.20533
1623.77061,0.20662
1625.69908,0.20368
1627.62755,0.20145
1629.55602,0.19919
1631.48449,0.19973
1633.41295,0.20532
1635.34142,0.21309
1637.26989,0.21264
1639.19836,0.20501
1641.12683,0.19846
1643.05530,0.19907
1644.98377,0.21130
1646.91223,0.22500
1648.84070,0.22318
1650.76917,0.22337
1652.69764,0.22858
1654.62611,0.21511
1656.55458,0.20118
1658.48305,0.19769
1660.41152,0.20122
1662.33998,0.20552
1664.26845,0.20561
1666.19692,0.20764
1668.12539,0.21390
1670.05386,0.21660
1671.98233,0.21381
1673.91080,0.21374
1675.83926,0.21240
1677.76773,0.20767
1679.69620,0.20650
1681.62467,0.21100
1683.55314,0.22159
1685.48161,0.22564
1687.41008,0.21707
1689.33855,0.20817
1691.26701,0.20280
1693.19548,0.20449
1695.12395,0.21509
1697.05242,0.22605
1698.98089,0.22652
1700.90936,0.21841
1702.83783,0.21342
1704.76629,0.21231
1706.69476,0.20492
1708.62323,0.19526
1710.55170,0.19374
1712.48017,0.19966
1714.40864,0.20884
1716.33711,0.21777
1718.26558,0.21492
1720.19404,0.20327
1722.12251,0.19587
1724.05098,0.19246
1725.97945,0.19110
1727.90792,0.19207
1729.83639,0.19375
1731.76486,0.19569
1733.69332,0.20083
1735.62179,0.20233
1737.55026,0.19875
1739.47873,0.19770
1741.40720,0.20128
1743.33567,0.20726
1745.26414,0.21280
1747.19261,0.21360
1749.12107,0.20736
1751.04954,0.19870
1752.97801,0.19486
1754.90648,0.19411
1756.83495,0.19418
1758.76342,0.19611
1760.69189,0.19689
1762.62035,0.19226
1764.54882,0.18824
1766.47729,0.19059
1768.40576,0.19839
1770.33423,0.20999
1772.26270,0.21574
1774.19117,0.20658
1776.11964,0.19739
1778.04810,0.19561
1779.97657,0.19547
1781.90504,0.19206
1783.83351,0.19029
1785.76198,0.19076
1787.69045,0.19108
1789.61892,0.19548
1791.54738,0.20128
1793.47585,0.19801
1795.40432,0.19213
1797.33279,0.19251
1799.26126,0.19583
1801.18973,0.19547
1803.11820,0.19135
1805.04666,0.18916
1806.97513,0.19141
1808.90360,0.19543
1810.83207,0.19637
1812.76054,0.19294
1814.68901,0.18997
1816.61748,0.18955
1818.54595,0.18927
1820.47441,0.18901
1822.40288,0.19116
1824.33135,0.19433
1826.25982,0.19587
1828.18829,0.19731
1830.11676,0.19662
1832.04523,0.19354
1833.97369,0.19426
1835.90216,0.19832
1837.83063,0.19939
1839.75910,0.19780
1841.68757,0.20159
1843.61604,0.20889
1845.54451,0.20696
1847.47298,0.19829
1849.40144,0.19152
1851.32991,0.18790
1853.25838,0.18714
1855.18685,0.18779
1857.11532,0.18907
1859.04379,0.19146
1860.97226,0.19172
1862.90072,0.18964
1864.82919,0.19105
1866.75766,0.19685
1868.68613,0.20062
1870.61460,0.19851
1872.54307,0.19574
1874.47154,0.19427
1876.40001,0.19097
1878.32847,0.18657
1880.25694,0.18652
1882.18541,0.19051
1884.11388,0.19360
1886.04235,0.19416
1887.97082,0.19369
1889.89929,0.19208
1891.82775,0.18774
1893.75622,0.18292
1895.68469,0.18142
1897.61316,0.18412
1899.54163,0.18802
1901.47010,0.19149
1903.39857,0.19499
1905.32704,0.19681
1907.25550,0.19715
1909.18397,0.19742
1911.11244,0.19638
1913.04091,0.19502
1914.96938,0.19571
1916.89785,0.19677
1918.82632,0.19520
1920.75478,0.19292
1922.68325,0.19193
1924.61172,0.19201
1926.54019,0.19231
1928.46866,0.19151
1930.39713,0.19075
1932.32560,0.19127
1934.25407,0.19245
1936.18253,0.19330
1938.11100,0.19304
1940.03947,0.19273
1941.96794,0.19253
1943.89641,0.19213
1945.82488,0.19137
1947.75335,0.18857
1949.68181,0.18638
1951.61028,0.18736
1953.53875,0.18968
1955.46722,0.19311
1957.39569,0.19634
1959.32416,0.19684
1961.25263,0.19494
1963.18110,0.19214
1965.10956,0.19024
1967.03803,0.18973
1968.96650,0.18946
1970.89497,0.18940
1972.82344,0.19047
1974.75191,0.19274
1976.68038,0.19435
1978.60884,0.19374
1980.53731,0.19183
1982.46578,0.19101
1984.39425,0.19225
1986.32272,0.19228
1988.25119,0.19078
1990.17966,0.19243
1992.10812,0.19402
1994.03659,0.19133
1995.96506,0.18963
1997.89353,0.19057
1999.82200,0.19099
2001.75047,0.19155
2003.67894,0.19327
2005.60741,0.19409
2007.53587,0.19336
2009.46434,0.19255
2011.39281,0.19151
2013.32128,0.19054
2015.24975,0.19155
2017.17822,0.19285
2019.10669,0.19180
2021.03515,0.19097
2022.96362,0.19188
2024.89209,0.19227
2026.82056,0.19099
2028.74903,0.18912
2030.67750,0.18895
2032.60597,0.19068
2034.53444,0.19186
2036.46290,0.19144
2038.39137,0.19029
2040.31984,0.19033
2042.24831,0.19216
2044.17678,0.19325
2046.10525,0.19202
2048.03372,0.19082
2049.96218,0.19206
2051.89065,0.19447
2053.81912,0.19589
2055.74759,0.19550
2057.67606,0.19452
2059.60453,0.19428
2061.53300,0.19437
2063.46147,0.19526
2065.38993,0.19636
2067.31840,0.19565
2069.24687,0.19386
2071.17534,0.19355
2073.10381,0.19562
2075.03228,0.19769
2076.96075,0.19710
2078.88921,0.19411
2080.81768,0.19203
2082.74615,0.19349
2084.67462,0.19573
2086.60309,0.19553
2088.53156,0.19456
2090.46003,0.19376
2092.38850,0.19350
2094.31696,0.19480
2096.24543,0.19474
2098.17390,0.19298
2100.10237,0.19352
2102.03084,0.19537
2103.95931,0.19516
2105.88778,0.19323
2107.81624,0.19188
2109.74471,0.19258
2111.67318,0.19410
2113.60165,0.19442
2115.53012,0.19268
2117.45859,0.18950
2119.38706,0.18909
2121.31553,0.19196
2123.24399,0.19251
2125.17246,0.18920
2127.10093,0.18555
2129.02940,0.18471
2130.95787,0.18557
2132.88634,0.18677
2134.81481,0.19019
2136.74327,0.19414
2138.67174,0.19616
2140.60021,0.19751
2142.52868,0.19725
2144.45715,0.19465
2146.38562,0.19206
2148.31409,0.19113
2150.24255,0.19243
2152.17102,0.19464
2154.09949,0.19582
2156.02796,0.19577
2157.95643,0.19499
2159.88490,0.19409
2161.81337,0.19477
2163.74184,0.19694
2165.67030,0.19753
2167.59877,0.19736
2169.52724,0.19839
2171.45571,0.19858
2173.38418,0.19670
2175.31265,0.19342
2177.24112,0.18999
2179.16958,0.18915
2181.09805,0.19209
2183.02652,0.19490
2184.95499,0.19554
2186.88346,0.19601
2188.81193,0.19509
2190.74040,0.19244
2192.66887,0.19144
2194.59733,0.19169
2196.52580,0.19131
2198.45427,0.19177
2200.38274,0.19271
2202.31121,0.19224
2204.23968,0.19142
2206.16815,0.19258
2208.09661,0.19565
2210.02508,0.19673
2211.95355,0.19296
2213.88202,0.18825
2215.81049,0.18729
2217.73896,0.18945
2219.66743,0.19341
2221.59590,0.19621
2223.52436,0.19428
2225.45283,0.19073
2227.38130,0.19090
2229.30977,0.19484
2231.23824,0.19820
2233.16671,0.19781
2235.09518,0.19575
2237.02364,0.19620
2238.95211,0.19859
2240.88058,0.19874
2242.80905,0.19737
2244.73752,0.19689
2246.66599,0.19545
2248.59446,0.19362
2250.52293,0.19454
2252.45139,0.19663
2254.37986,0.19745
2256.30833,0.19776
2258.23680,0.19756
2260.16527,0.19632
2262.09374,0.19459
2264.02221,0.19285
2265.95067,0.19223
2267.87914,0.19396
2269.80761,0.19585
2271.73608,0.19398
2273.66455,0.19056
2275.59302,0.19031
2277.52149,0.19156
2279.44996,0.19140
2281.37842,0.19146
2283.30689,0.19378
2285.23536,0.19681
2287.16383,0.19686
2289.09230,0.19465
2291.02077,0.19437
2292.94924,0.19456
2294.87770,0.19277
2296.80617,0.19234
2298.73464,0.19301
2300.66311,0.19235
2302.59158,0.19204
2304.52005,0.18971
2306.44852,0.18495
2308.37699,0.18399
2310.30545,0.18561
2312.23392,0.18488
2314.16239,0.18263
2316.09086,0.18055
2318.01933,0.18066
2319.94780,0.18319
2321.87627,0.18565
2323.80473,0.18951
2325.73320,0.19323
2327.66167,0.19192
2329.59014,0.19003
2331.51861,0.19139
2333.44708,0.19070
2335.37555,0.18513
2337.30401,0.17874
2339.23248,0.17437
2341.16095,0.16969
2343.08942,0.16929
2345.01789,0.17531
2346.94636,0.17781
2348.87483,0.17668
2350.80330,0.17625
2352.73176,0.17747
2354.66023,0.17873
2356.58870,0.17260
2358.51717,0.16155
2360.44564,0.15346
2362.37411,0.13745
2364.30258,0.13278
2366.23104,0.15312
2368.15951,0.16791
2370.08798,0.17332
2372.01645,0.18004
2373.94492,0.18429
2375.87339,0.18427
2377.80186,0.18429
2379.73033,0.18751
2381.65879,0.19080
2383.58726,0.19222
2385.51573,0.19281
2387.44420,0.19195
2389.37267,0.19141
2391.30114,0.19381
2393.22961,0.19676
2395.15807,0.19725
2397.08654,0.19674
2399.01501,0.19670
2400.94348,0.19603
2402.87195,0.19581
2404.80042,0.19721
2406.72889,0.19737
2408.65736,0.19408
2410.58582,0.19010
2412.51429,0.18929
2414.44276,0.19173
2416.37123,0.19487
2418.29970,0.19788
2420.22817,0.20064
2422.15664,0.20067
2424.08510,0.19803
2426.01357,0.19686
2427.94204,0.19800
2429.87051,0.19867
2431.79898,0.19770
2433.72745,0.19598
2435.65592,0.19551
2437.58439,0.19655
2439.51285,0.19682
2441.44132,0.19574
2443.36979,0.19596
2445.29826,0.19895
2447.22673,0.19989
2449.15520,0.19734
2451.08367,0.19736
2453.01213,0.19900
2454.94060,0.19779
2456.86907,0.19595
2458.79754,0.19481
2460.72601,0.19316
2462.65448,0.19395
2464.58295,0.19728
2466.51142,0.19739
2468.43988,0.19487
2470.36835,0.19698
2472.29682,0.20464
2474.22529,0.20890
2476.15376,0.20491
2478.08223,0.19847
2480.01070,0.19507
2481.93916,0.19497
2483.86763,0.19535
2485.79610,0.19457
2487.72457,0.19512
2489.65304,0.19827
2491.58151,0.19975
2493.50998,0.19854
2495.43844,0.19998
2497.36691,0.20391
2499.29538,0.20427
2501.22385,0.19965
2503.15232,0.19538
2505.08079,0.19571
2507.00926,0.19854
2508.93773,0.20072
2510.86619,0.20163
2512.79466,0.20064
2514.72313,0.19819
2516.65160,0.19649
2518.58007,0.19625
2520.50854,0.19604
2522.43701,0.19622
2524.36547,0.19872
2526.29394,0.20117
2528.22241,0.20145
2530.15088,0.20305
2532.07935,0.20501
2534.00782,0.20234
2535.93629,0.19835
2537.86476,0.19784
2539.79322,0.19966
2541.72169,0.20210
2543.65016,0.20332
2545.57863,0.20174
2547.50710,0.19841
2549.43557,0.19558
2551.36404,0.19559
2553.29250,0.19940
2555.22097,0.20363
2557.14944,0.20397
2559.07791,0.20220
2561.00638,0.20170
2562.93485,0.20165
2564.86332,0.20103
2566.79179,0.19954
2568.72025,0.19732
2570.64872,0.19577
2572.57719,0.19486
2574.50566,0.19573
2576.43413,0.19964
2578.36260,0.20291
2580.29107,0.20305
2582.21953,0.20115
2584.14800,0.19831
2586.07647,0.19589
2588.00494,0.19579
2589.93341,0.19915
2591.86188,0.20210
2593.79035,0.20077
2595.71882,0.19739
2597.64728,0.19460
2599.57575,0.19381
2601.50422,0.19474
2603.43269,0.19405
2605.36116,0.19165
2607.28963,0.19149
2609.21810,0.19499
2611.14656,0.20056
2613.07503,0.20539
2615.00350,0.20728
2616.93197,0.20644
2618.86044,0.20251
2620.78891,0.19727
2622.71738,0.19631
2624.64585,0.20061
2626.57431,0.20537
2628.50278,0.20769
2630.43125,0.20930
2632.35972,0.20996
2634.28819,0.20775
2636.21666,0.20475
2638.14513,0.20211
2640.07359,0.19967
2642.00206,0.19928
2643.93053,0.20095
2645.85900,0.20316
2647.78747,0.20545
2649.71594,0.20511
2651.64441,0.20164
2653.57288,0.20062
2655.50134,0.20357
2657.42981,0.20621
2659.35828,0.20623
2661.28675,0.20491
2663.21522,0.20425
2665.14369,0.20442
2667.07216,0.20536
2669.00062,0.20706
2670.92909,0.20799
2672.85756,0.20714
2674.78603,0.20526
2676.71450,0.20359
2678.64297,0.20418
2680.57144,0.20728
2682.49990,0.20855
2684.42837,0.20586
2686.35684,0.20407
2688.28531,0.20643
2690.21378,0.20737
2692.14225,0.20362
2694.07072,0.20135
2695.99919,0.20321
2697.92765,0.20542
2699.85612,0.20598
2701.78459,0.20524
2703.71306,0.20565
2705.64153,0.20772
2707.57000,0.20732
2709.49847,0.20461
2711.42693,0.20315
2713.35540,0.20328
2715.28387,0.20453
2717.21234,0.20654
2719.14081,0.20790
2721.06928,0.20739
2722.99775,0.20629
2724.92622,0.20818
2726.85468,0.21357
2728.78315,0.21819
2730.71162,0.21895
2732.64009,0.21583
2734.56856,0.21079
2736.49703,0.20730
2738.42550,0.20587
2740.35396,0.20512
2742.28243,0.20546
2744.21090,0.20737
2746.13937,0.20905
2748.06784,0.20934
2749.99631,0.21004
2751.92478,0.21188
2753.85325,0.21307
2755.78171,0.21351
2757.71018,0.21477
2759.63865,0.21341
2761.56712,0.20718
2763.49559,0.20398
2765.42406,0.20723
2767.35253,0.21042
2769.28099,0.21208
2771.20946,0.21485
2773.13793,0.21639
2775.06640,0.21484
2776.99487,0.21351
2778.92334,0.21492
2780.85181,0.21701
2782.78028,0.21711
2784.70874,0.21559
2786.63721,0.21371
2788.56568,0.21219
2790.49415,0.21058
2792.42262,0.20812
2794.35109,0.20831
2796.27956,0.21329
2798.20802,0.21676
2800.13649,0.21511
2802.06496,0.21372
2803.99343,0.21510
2805.92190,0.21558
2807.85037,0.21415
2809.77884,0.21434
2811.70731,0.21532
2813.63577,0.21343
2815.56424,0.21171
2817.49271,0.21355
2819.42118,0.21694
2821.34965,0.21816
2823.27812,0.21611
2825.20659,0.21522
2827.13505,0.21712
2829.06352,0.21773
2830.99199,0.21701
2832.92046,0.21727
2834.84893,0.21682
2836.77740,0.21432
2838.70587,0.21321
2840.63433,0.21536
2842.56280,0.21674
2844.49127,0.21506
2846.41974,0.21288
2848.34821,0.21220
2850.27668,0.21250
2852.20515,0.21351
2854.13362,0.21460
2856.06208,0.21568
2857.99055,0.21808
2859.91902,0.21959
2861.84749,0.21840
2863.77596,0.21751
2865.70443,0.21773
2867.63290,0.21576
2869.56136,0.21226
2871.48983,0.21150
2873.41830,0.21205
2875.34677,0.21232
2877.27524,0.21636
2879.20371,0.22388
2881.13218,0.22715
2883.06065,0.22129
2884.98911,0.21247
2886.91758,0.20972
2888.84605,0.21069
2890.77452,0.20909
2892.70299,0.20797
2894.63146,0.20974
2896.55993,0.21026
2898.48839,0.20918
2900.41686,0.20970
2902.34533,0.21134
2904.27380,0.21298
2906.20227,0.21563
2908.13074,0.21815
2910.05921,0.21873
2911.98768,0.21720
2913.91614,0.21614
2915.84461,0.21816
2917.77308,0.21897
2919.70155,0.21617
2921.63002,0.21527
2923.55849,0.21563
2925.48696,0.21162
2927.41542,0.20734
2929.34389,0.20740
2931.27236,0.20914
2933.20083,0.21223
2935.12930,0.21763
2937.05777,0.22145
2938.98624,0.21961
2940.91471,0.21513
2942.84317,0.21268
2944.77164,0.21336
2946.70011,0.21632
2948.62858,0.21752
2950.55705,0.21766
2952.48552,0.22133
2954.41399,0.22463
2956.34245,0.22326
2958.27092,0.22069
2960.19939,0.22025
2962.12786,0.22160
2964.05633,0.22252
2965.98480,0.22233
2967.91327,0.22101
2969.84174,0.21725
2971.77020,0.21433
2973.69867,0.21539
2975.62714,0.21650
2977.55561,0.21455
2979.48408,0.21163
2981.41255,0.21073
2983.34102,0.21312
2985.26948,0.21764
2987.19795,0.21992
2989.12642,0.21905
2991.05489,0.22111
2992.98336,0.22591
2994.91183,0.22722
2996.84030,0.22521
2998.76877,0.22091
3000.69723,0.21548
3002.62570,0.21520
3004.55417,0.21950
3006.48264,0.22148
3008.41111,0.22332
3010.33958,0.22739
3012.26805,0.22952
3014.19651,0.23027
3016.12498,0.23037
3018.05345,0.22736
3019.98192,0.22311
3021.91039,0.22130
3023.83886,0.22139
3025.76733,0.22026
3027.69579,0.22037
3029.62426,0.22454
3031.55273,0.22685
3033.48120,0.22429
3035.40967,0.22304
3037.33814,0.22410
3039.26661,0.22325
3041.19508,0.22204
3043.12354,0.22192
3045.05201,0.22288
3046.98048,0.22683
3048.90895,0.23058
3050.83742,0.22928
3052.76589,0.22256
3054.69436,0.21607
3056.62282,0.21746
3058.55129,0.22344
3060.47976,0.22551
3062.40823,0.22322
3064.33670,0.22168
3066.26517,0.22380
3068.19364,0.22524
3070.12211,0.22240
3072.05057,0.21997
3073.97904,0.22029
3075.90751,0.22106
3077.83598,0.22277
3079.76445,0.22382
3081.69292,0.22188
3083.62139,0.22043
3085.54985,0.22152
3087.47832,0.22239
3089.40679,0.22186
3091.33526,0.22060
3093.26373,0.21885
3095.19220,0.21712
3097.12067,0.21562
3099.04914,0.21686
3100.97760,0.22142
3102.90607,0.22317
3104.83454,0.22045
3106.76301,0.21958
3108.69148,0.22324
3110.61995,0.22560
3112.54842,0.22542
3114.47688,0.22752
3116.40535,0.22776
3118.33382,0.22378
3120.26229,0.22259
3122.19076,0.22555
3124.11923,0.23031
3126.04770,0.23455
3127.97617,0.23285
3129.90463,0.22571
3131.83310,0.22152
3133.76157,0.22388
3135.69004,0.22671
3137.61851,0.22565
3139.54698,0.22548
3141.47545,0.22800
3143.40391,0.22922
3145.33238,0.22993
3147.26085,0.22992
3149.18932,0.22704
3151.11779,0.22410
3153.04626,0.22206
3154.97473,0.22056
3156.90320,0.22381
3158.83166,0.23060
3160.76013,0.23151
3162.68860,0.22658
3164.61707,0.22533
3166.54554,0.22822
3168.47401,0.22991
3170.40248,0.23034
3172.33094,0.22999
3174.25941,0.22795
3176.18788,0.22843
3178.11635,0.23458
3180.04482,0.23854
3181.97329,0.23475
3183.90176,0.23118
3185.83022,0.23171
3187.75869,0.22831
3189.68716,0.22153
3191.61563,0.22129
3193.54410,0.22942
3195.47257,0.23992
3197.40104,0.24363
3199.32951,0.23625
3201.25797,0.22528
3203.18644,0.21872
3205.11491,0.21718
3207.04338,0.21854
3208.97185,0.21984
3210.90032,0.21920
3212.82879,0.21815
3214.75725,0.21583
3216.68572,0.21218
3218.61419,0.21270
3220.54266,0.21964
3222.47113,0.23036
3224.39960,0.23769
3226.32807,0.23491
3228.25654,0.22624
3230.18500,0.22026
3232.11347,0.21982
3234.04194,0.22120
3235.97041,0.22064
3237.89888,0.22012
3239.82735,0.22170
3241.75582,0.22483
3243.68428,0.22798
3245.61275,0.22743
3247.54122,0.22306
3249.46969,0.22179
3251.39816,0.22474
3253.32663,0.22555
3255.25510,0.22552
3257.18357,0.22452
3259.11203,0.21989
3261.04050,0.22141
3262.96897,0.23022
3264.89744,0.23196
3266.82591,0.22381
3268.75438,0.21742
3270.68285,0.21889
3272.61131,0.22285
3274.53978,0.22548
3276.46825,0.22747
3278.39672,0.22698
3280.32519,0.22280
3282.25366,0.21960
3284.18213,0.22085
3286.11060,0.22207
3288.03906,0.22062
3289.96753,0.21987
3291.89600,0.22088
3293.82447,0.22293
3295.75294,0.22537
3297.68141,0.22513
3299.60988,0.22266
3301.53834,0.22121
3303.46681,0.21999
3305.39528,0.21831
3307.32375,0.21722
3309.25222,0.21721
3311.18069,0.21663
3313.10916,0.21435
3315.03763,0.21211
3316.96609,0.21281
3318.89456,0.21845
3320.82303,0.22417
3322.75150,0.22631
3324.67997,0.22922
3326.60844,0.23369
3328.53691,0.23463
3330.46537,0.22893
3332.39384,0.22143
3334.32231,0.21942
3336.25078,0.22209
3338.17925,0.22612
3340.10772,0.23067
3342.03619,0.23128
3343.96466,0.22512
3345.89312,0.21886
3347.82159,0.22030
3349.75006,0.22807
3351.67853,0.23341
3353.60700,0.23248
3355.53547,0.22835
3357.46394,0.22395
3359.39240,0.22184
3361.32087,0.22352
3363.24934,0.22876
3365.17781,0.23280
3367.10628,0.22941
3369.03475,0.22299
3370.96322,0.22157
3372.89168,0.22238
3374.82015,0.21987
3376.74862,0.21911
3378.67709,0.22441
3380.60556,0.22646
3382.53403,0.22092
3384.46250,0.21723
3386.39097,0.21789
3388.31943,0.21673
3390.24790,0.21409
3392.17637,0.21471
3394.10484,0.21867
3396.03331,0.22422
3397.96178,0.23033
3399.89025,0.23244
3401.81871,0.22981
3403.74718,0.22839
3405.67565,0.22902
3407.60412,0.22660
3409.53259,0.22012
3411.46106,0.21559
3413.38953,0.21549
3415.31800,0.21502
3417.24646,0.21619
3419.17493,0.22345
3421.10340,0.22937
3423.03187,0.22598
3424.96034,0.21931
3426.88881,0.21822
3428.81728,0.21979
3430.74574,0.21935
3432.67421,0.21921
3434.60268,0.22044
3436.53115,0.22049
3438.45962,0.21761
3440.38809,0.21623
3442.31656,0.21849
3444.24503,0.21794
3446.17349,0.21558
3448.10196,0.21716
3450.03043,0.22011
3451.95890,0.22022
3453.88737,0.21573
3455.81584,0.21083
3457.74431,0.20859
3459.67277,0.20414
3461.60124,0.20028
3463.52971,0.20157
3465.45818,0.20293
3467.38665,0.20268
3469.31512,0.20254
3471.24359,0.20014
3473.17206,0.19659
3475.10052,0.19797
3477.02899,0.20374
3478.95746,0.20812
3480.88593,0.20822
3482.81440,0.20539
3484.74287,0.20273
3486.67134,0.20018
3488.59980,0.19718
3490.52827,0.19403
3492.45674,0.19114
3494.38521,0.19071
3496.31368,0.19220
3498.24215,0.19268
3500.17062,0.19329
3502.09909,0.19617
3504.02755,0.19900
3505.95602,0.19790
3507.88449,0.19558
3509.81296,0.19532
3511.74143,0.19206
3513.66990,0.18540
3515.59837,0.18331
3517.52683,0.18668
3519.45530,0.18951
3521.38377,0.18849
3523.31224,0.18481
3525.24071,0.18470
3527.16918,0.18961
3529.09765,0.18999
3531.02611,0.18477
3532.95458,0.18217
3534.88305,0.18187
3536.81152,0.18025
3538.73999,0.17797
3540.66846,0.17730
3542.59693,0.17888
3544.52540,0.18045
3546.45386,0.18131
3548.38233,0.18370
3550.31080,0.18610
3552.23927,0.18487
3554.16774,0.17983
3556.09621,0.17396
3558.02468,0.17091
3559.95314,0.17357
3561.88161,0.18056
3563.81008,0.18873
3565.73855,0.19404
3567.66702,0.18846
3569.59549,0.17642
3571.52396,0.17038
3573.45243,0.16954
3575.38089,0.16837
3577.30936,0.16651
3579.23783,0.16470
3581.16630,0.16422
3583.09477,0.16905
3585.02324,0.17809
3586.95171,0.18591
3588.88017,0.18502
3590.80864,0.17744
3592.73711,0.17026
3594.66558,0.16719
3596.59405,0.16950
3598.52252,0.17145
3600.45099,0.16835
3602.37946,0.16445
3604.30792,0.16490
3606.23639,0.16781
3608.16486,0.16853
3610.09333,0.16850
3612.02180,0.16937
3613.95027,0.16433
3615.87874,0.15623
3617.80720,0.15572
3619.73567,0.16183
3621.66414,0.16624
3623.59261,0.16924
3625.52108,0.17107
3627.44955,0.16871
3629.37802,0.16167
3631.30649,0.15391
3633.23495,0.14734
3635.16342,0.14422
3637.09189,0.14511
3639.02036,0.14833
3640.94883,0.15377
3642.87730,0.15883
3644.80577,0.16204
3646.73423,0.16688
3648.66270,0.17100
3650.59117,0.16209
3652.51964,0.14968
3654.44811,0.14487
3656.37658,0.14611
3658.30505,0.14588
3660.23352,0.14468
3662.16198,0.14690
3664.09045,0.14800
3666.01892,0.14365
3667.94739,0.13992
3669.87586,0.14477
3671.80433,0.15122
3673.73280,0.15520
3675.66126,0.15860
3677.58973,0.15210
3679.51820,0.14166
3681.44667,0.13667
3683.37514,0.13961
3685.30361,0.14540
3687.23208,0.14911
3689.16055,0.15142
3691.08901,0.14918
3693.01748,0.14337
3694.94595,0.13887
3696.87442,0.13517
3698.80289,0.13371
3700.73136,0.13531
3702.65983,0.13532
3704.58829,0.13122
3706.51676,0.12962
3708.44523,0.13678
3710.37370,0.14731
3712.30217,0.14840
3714.23064,0.14488
3716.15911,0.14366
3718.08757,0.14351
3720.01604,0.14410
3721.94451,0.14214
3723.87298,0.13620
3725.80145,0.13458
3727.72992,0.13821
3729.65839,0.14133
3731.58686,0.14457
3733.51532,0.14735
3735.44379,0.14649
3737.37226,0.14478
3739.30073,0.14261
3741.22920,0.13912
3743.15767,0.13830
3745.08614,0.14661
3747.01460,0.15859
3748.94307,0.16571
3750.87154,0.15875
3752.80001,0.14189
3754.72848,0.13716
3756.65695,0.14168
3758.58542,0.14617
3760.51389,0.14518
3762.44235,0.14221
3764.37082,0.14296
3766.29929,0.14539
3768.22776,0.14320
3770.15623,0.13731
3772.08470,0.13160
3774.01317,0.13002
3775.94163,0.13551
3777.87010,0.14187
3779.79857,0.13990
3781.72704,0.13519
3783.65551,0.13333
3785.58398,0.13161
3787.51245,0.13078
3789.44092,0.13229
3791.36938,0.13646
3793.29785,0.14239
3795.22632,0.14501
3797.15479,0.14246
3799.08326,0.14033
3801.01173,0.13970
3802.94020,0.13643
3804.86866,0.13135
3806.79713,0.13381
3808.72560,0.14270
3810.65407,0.14245
3812.58254,0.13631
3814.51101,0.13333
3816.43948,0.13591
3818.36795,0.14247
3820.29641,0.15144
3822.22488,0.15279
3824.15335,0.14752
3826.08182,0.14499
3828.01029,0.14236
3829.93876,0.13840
3831.86723,0.13580
3833.79569,0.13913
3835.72416,0.14955
3837.65263,0.15854
3839.58110,0.15233
3841.50957,0.13849
3843.43804,0.13306
3845.36651,0.13221
3847.29498,0.12770
3849.22344,0.12360
3851.15191,0.12715
3853.08038,0.13292
3855.00885,0.12839
3856.93732,0.12744
3858.86579,0.12879
3860.79426,0.12998
3862.72272,0.13351
3864.65119,0.13495
3866.57966,0.13207
3868.50813,0.13245
3870.43660,0.13606
3872.36507,0.13506
3874.29354,0.13480
3876.22200,0.13693
3878.15047,0.13538
3880.07894,0.13057
3882.00741,0.12419
3883.93588,0.12013
3885.86435,0.12337
3887.79282,0.12935
3889.72129,0.13383
3891.64975,0.13653
3893.57822,0.13229
3895.50669,0.12563
3897.43516,0.12643
3899.36363,0.13651
3901.29210,0.13986
3903.22057,0.12965
3905.14903,0.12239
3907.07750,0.12124
3909.00597,0.12112
3910.93444,0.12233
3912.86291,0.12493
3914.79138,0.12707
3916.71985,0.12681
3918.64832,0.12664
3920.57678,0.12871
3922.50525,0.13017
3924.43372,0.12850
3926.36219,0.12475
3928.29066,0.12232
3930.21913,0.12143
3932.14760,0.12204
3934.07606,0.12310
3936.00453,0.12182
3937.93300,0.12006
3939.86147,0.12153
3941.78994,0.12626
3943.71841,0.13013
3945.64688,0.13127
3947.57535,0.13055
3949.50381,0.12695
3951.43228,0.12093
3953.36075,0.11465
3955.28922,0.11052
3957.21769,0.11046
3959.14616,0.11511
3961.07463,0.12140
3963.00309,0.12370
3964.93156,0.12048
3966.86003,0.11393
3968.78850,0.11021
3970.71697,0.11461
3972.64544,0.12000
3974.57391,0.11657
3976.50238,0.10848
3978.43084,0.10586
3980.35931,0.10784
3982.28778,0.10815
3984.21625,0.10736
3986.14472,0.10826
3988.07319,0.11066
3990.00166,0.11407
3991.93012,0.11544
3993.85859,0.11235
3995.78706,0.10862
3997.71553,0.10784
3999.64400,0.11000
4001.57247,0.11209
4003.50094,0.11220
4005.42941,0.11244
4007.35787,0.11270
4009.28634,0.11315
4011.21481,0.11625
4013.14328,0.11977
4015.07175,0.11807
4017.00022,0.11503
4018.92869,0.11814
4020.85715,0.12004
4022.78562,0.11456
4024.71409,0.10770
4026.64256,0.10577
4028.57103,0.10717
4030.49950,0.10441
4032.42797,0.10198
4034.35644,0.10682
4036.28490,0.11247
4038.21337,0.11499
4040.14184,0.11705
4042.07031,0.11962
4043.99878,0.11976
4045.92725,0.11523
4047.85572,0.10952
4049.78418,0.10720
4051.71265,0.10794
4053.64112,0.10775
4055.56959,0.10718
4057.49806,0.10806
4059.42653,0.10888
4061.35500,0.10973
4063.28346,0.10817
4065.21193,0.10228
4067.14040,0.09842
4069.06887,0.09984
4070.99734,0.10115
4072.92581,0.10090
4074.85428,0.10178
4076.78275,0.10387
4078.71121,0.10628
4080.63968,0.10652
4082.56815,0.10349
4084.49662,0.10190
4086.42509,0.10529
4088.35356,0.11098
4090.28203,0.11204
4092.21049,0.10471
4094.13896,0.09588
4096.06743,0.09302
4097.99590,0.09595
4099.92437,0.10073
4101.85284,0.10156
4103.78131,0.09836
4105.70978,0.09417
4107.63824,0.08851
4109.56671,0.08261
4111.49518,0.08100
4113.42365,0.08748
4115.35212,0.09889
4117.28059,0.10639
4119.20906,0.10572
4121.13752,0.10088
4123.06599,0.09570
4124.99446,0.09395
4126.92293,0.09792
4128.85140,0.09941
4130.77987,0.09478
4132.70834,0.08968
4134.63681,0.08582
4136.56527,0.08442
4138.49374,0.08786
4140.42221,0.09320
4142.35068,0.09476
4144.27915,0.09307
4146.20762,0.09055
4148.13609,0.08721
4150.06455,0.08580
4151.99302,0.08563
4153.92149,0.08261
4155.84996,0.08166
4157.77843,0.08470
4159.70690,0.08552
4161.63537,0.08792
4163.56384,0.09571
4165.49230,0.10168
4167.42077,0.09954
4169.34924,0.08977
4171.27771,0.07968
4173.20618,0.07764
4175.13465,0.08293
4177.06312,0.08751
4178.99158,0.08829
4180.92005,0.08751
4182.84852,0.08612
4184.77699,0.08567
4186.70546,0.08800
4188.63393,0.09133
4190.56240,0.09130
4192.49087,0.08858
4194.41933,0.08754
4196.34780,0.08719
4198.27627,0.08491
4200.20474,0.08268
4202.13321,0.08331
4204.06168,0.08626
4205.99015,0.08935
4207.91861,0.09059
4209.84708,0.08821
4211.77555,0.08481
4213.70402,0.08432
4215.63249,0.08423
4217.56096,0.08150
4219.48943,0.07809
4221.41789,0.07798
4223.34636,0.08039
4225.27483,0.07909
4227.20330,0.07580
4229.13177,0.07693
4231.06024,0.08184
4232.98871,0.08795
4234.91718,0.09032
4236.84564,0.08612
4238.77411,0.08041
4240.70258,0.07496
4242.63105,0.06872
4244.55952,0.06561
4246.48799,0.06877
4248.41646,0.07317
4250.34492,0.07627
4252.27339,0.08103
4254.20186,0.08006
4256.13033,0.06788
4258.05880,0.05880
4259.98727,0.06391
4261.91574,0.07215
4263.84421,0.07418
4265.77267,0.07463
4267.70114,0.07305
4269.62961,0.06689
4271.55808,0.06108
4273.48655,0.05745
4275.41502,0.05477
4277.34349,0.05656
4279.27195,0.06127
4281.20042,0.06276
4283.12889,0.06153
4285.05736,0.06017
4286.98583,0.06233
4288.91430,0.07010
4290.84277,0.07449
4292.77124,0.06566
4294.69970,0.05247
4296.62817,0.05019
4298.55664,0.05635
4300.48511,0.05870
4302.41358,0.05448
4304.34205,0.04938
4306.27052,0.04894
4308.19898,0.05804
4310.12745,0.07045
4312.05592,0.06890
4313.98439,0.05679
4315.91286,0.05312
4317.84133,0.05694
4319.76980,0.05787
4321.69827,0.05797
4323.62673,0.06013
4325.55520,0.05937
4327.48367,0.05469
4329.41214,0.05354
4331.34061,0.05733
4333.26908,0.05935
4335.19755,0.05712
4337.12601,0.05149
4339.05448,0.04334
4340.98295,0.03596
4342.91142,0.03173
4344.83989,0.03014
4346.76836,0.02970
4348.69683,0.03198
4350.62530,0.03941
4352.55376,0.04650
4354.48223,0.04846
4356.41070,0.04670
4358.33917,0.04213
4360.26764,0.03866
4362.19611,0.04030
4364.12458,0.04667
4366.05304,0.05035
4367.98151,0.04523
4369.90998,0.03921
4371.83845,0.03961
4373.76692,0.04310
4375.69539,0.04478
4377.62386,0.04463
4379.55232,0.04349
4381.48079,0.04101
4383.40926,0.03910
4385.33773,0.03751
4387.26620,0.03592
4389.19467,0.03665
4391.12314,0.03964
4393.05161,0.04046
4394.98007,0.03745
4396.90854,0.03666
4398.83701,0.04041
4400.76548,0.04532
4402.69395,0.04931
4404.62242,0.04972
4406.55089,0.04486
4408.47935,0.03919
4410.40782,0.04297
4412.33629,0.05415
4414.26476,0.05898
4416.19323,0.05534
4418.12170,0.04592
4420.05017,0.03471
4421.97864,0.02789
4423.90710,0.02511
4425.83557,0.02749
4427.76404,0.03483
4429.69251,0.04216
4431.62098,0.04434
4433.54945,0.04037
4435.47792,0.03792
4437.40638,0.03839
4439.33485,0.03532
4441.26332,0.03070
4443.19179,0.02978
4445.12026,0.03182
4447.04873,0.03586
4448.97720,0.03960
4450.90567,0.03590
4452.83413,0.02576
4454.76260,0.01906
4456.69107,0.01754
4458.61954,0.01875
4460.54801,0.02515
4462.47648,0.03203
4464.40495,0.03038
4466.33341,0.02408
4468.26188,0.01918
4470.19035,0.01653
4472.11882,0.01818
4474.04729,0.02212
4475.97576,0.02426
4477.90423,0.02458
4479.83270,0.02216
4481.76116,0.01879
4483.68963,0.01936
4485.61810,0.01925
4487.54657,0.01886
4489.47504,0.02707
4491.40351,0.03317
4493.33198,0.02926
4495.26044,0.03026
4497.18891,0.03590
4499.11738,0.03212
4501.04585,0.02177
4502.97432,0.01840
4504.90279,0.02306
4506.83126,0.02294
4508.75973,0.01609
4510.68819,0.00880
4512.61666,0.00053
4514.54513,-0.00228
4516.47360,0.00387
4518.40207,0.00808
4520.33054,0.00451
4522.25901,0.00073
4524.18747,0.00538
4526.11594,0.01231
4528.04441,0.01076
4529.97288,0.00196
4531.90135,-0.00040
4533.82982,0.00897
4535.75829,0.01657
4537.68676,0.01966
4539.61522,0.02352
4541.54369,0.02250
4543.47216,0.01556
4545.40063,0.00773
4547.32910,0.00061
4549.25757,-0.00277
4551.18604,0.00297
4553.11450,0.01395
4555.04297,0.01932
4556.97144,0.01365
4558.89991,0.00405
4560.82838,0.00415
4562.75685,0.01293
4564.68532,0.01843
4566.61378,0.01820
4568.54225,0.01614
4570.47072,0.01349
4572.39919,0.01271
4574.32766,0.01571
4576.25613,0.01957
4578.18460,0.01682
4580.11307,0.00619
4582.04153,0.00004
4583.97000,0.00151
4585.89847,0.00410
4587.82694,0.00493
4589.75541,0.00012
4591.68388,-0.00403
4593.61235,0.00062
4595.54081,0.00648
4597.46928,0.01029
4599.39775,0.01846
4601.32622,0.02597
4603.25469,0.02445
4605.18316,0.02027
4607.11163,0.01778
4609.04010,0.01073
4610.96856,0.00195
4612.89703,0.00058
4614.82550,0.00515
4616.75397,0.00826
4618.68244,0.00801
4620.61091,0.00640
4622.53938,0.00443
4624.46784,-0.00050
4626.39631,-0.00903
4628.32478,-0.01149
4630.25325,-0.00312
4632.18172,0.00667
4634.11019,0.01040
4636.03866,0.01027
4637.96713,0.00649
4639.89559,-0.00292
4641.82406,-0.00927
4643.75253,-0.00258
4645.68100,0.00987
4647.60947,0.01323
4649.53794,0.00573
4651.46641,-0.00332
4653.39487,-0.00525
4655.32334,0.00291
4657.25181,0.01395
4659.18028,0.01674
4661.10875,0.00996
4663.03722,0.00589
4664.96569,0.00971
4666.89416,0.01004
4668.82262,0.00394
4670.75109,-0.00122
4672.67956,-0.00234
4674.60803,0.00058
4676.53650,0.00468
4678.46497,0.00811
4680.39344,0.00849
4682.32190,0.00667
4684.25037,0.01208
4686.17884,0.02427
4688.10731,0.03188
4690.03578,0.02779
4691.96425,0.01366
4693.89272,0.00033
4695.82119,-0.00301
4697.74965,-0.00410
4699.67812,-0.01032
4701.60659,-0.01214
4703.53506,-0.00807
4705.46353,-0.00907
4707.39200,-0.01269
4709.32047,-0.00533
4711.24893,0.01122
4713.17740,0.01781
4715.10587,0.01172
4717.03434,0.00664
4718.96281,0.00197
4720.89128,-0.00781
4722.81975,-0.00983
4724.74821,0.00210
4726.67668,0.01449
4728.60515,0.02201
4730.53362,0.02729
4732.46209,0.03097
4734.39056,0.03156
4736.31903,0.02562
4738.24750,0.01812
4740.17596,0.01272
4742.10443,0.00241
4744.03290,-0.00655
4745.96137,-0.00272
4747.88984,0.00124
4749.81831,-0.00299
4751.74678,0.00011
4753.67524,0.01305
4755.60371,0.01893
4757.53218,0.01918
4759.46065,0.02434
4761.38912,0.02385
4763.31759,0.02025
4765.24606,0.02415
4767.17453,0.02167
4769.10299,0.00817
4771.03146,-0.00093
4772.95993,0.00156
4774.88840,0.00691
4776.81687,0.00756
4778.74534,0.00552
4780.67381,-0.00028
4782.60227,-0.00702
4784.53074,-0.00096
4786.45921,0.01349
4788.38768,0.02052
4790.31615,0.02046
4792.24462,0.01628
4794.17309,0.01355
4796.10156,0.01580
4798.03002,0.01241
4799.95849,0.00781
4801.88696,0.01606
4803.81543,0.02765
4805.74390,0.02776
4807.67237,0.01646
4809.60084,-0.00253
4811.52930,-0.01591
4813.45777,-0.01365
4815.38624,-0.00625
4817.31471,-0.00579
4819.24318,-0.01391
4821.17165,-0.01563
4823.10012,-0.00094
4825.02859,0.00669
4826.95705,-0.00666
4828.88552,-0.01716
4830.81399,-0.00767
4832.74246,0.01106
4834.67093,0.01973
4836.59940,0.01694
4838.52787,0.01461
4840.45633,0.01132
4842.38480,0.00545
4844.31327,0.00889
4846.24174,0.01852
4848.17021,0.01863
4850.09868,0.01117
4852.02715,0.00924
4853.95562,0.01424
4855.88408,0.01530
4857.81255,0.01270
4859.74102,0.01310
4861.66949,0.01251
4863.59796,0.00974
4865.52643,0.00677
4867.45490,0.00269
4869.38336,-0.00327
4871.31183,-0.00522
4873.24030,0.00200
4875.16877,0.01029
4877.09724,0.01758
4879.02571,0.02512
4880.95418,0.02413
4882.88265,0.01599
4884.81111,0.01326
4886.73958,0.01659
4888.66805,0.02155
4890.59652,0.02937
4892.52499,0.02995
4894.45346,0.02114
4896.38193,0.01297
4898.31039,0.00255
4900.23886,-0.00254
4902.16733,0.00369
4904.09580,0.00907
4906.02427,0.01282
4907.95274,0.01171
4909.88121,0.00086
4911.80967,-0.00085
4913.73814,0.01276
4915.66661,0.02039
4917.59508,0.01544
4919.52355,0.01387
4921.45202,0.02072
4923.38049,0.02352
4925.30896,0.02293
4927.23742,0.02541
4929.16589,0.02276
4931.09436,0.01900
4933.02283,0.02654
4934.95130,0.02630
4936.87977,0.00406
4938.80824,-0.01399
4940.73670,-0.01407
4942.66517,-0.00472
4944.59364,0.00757
4946.52211,0.01331
4948.45058,0.01225
4950.37905,0.00828
4952.30752,0.00457
4954.23599,0.01140
4956.16445,0.02396
4958.09292,0.02642
4960.02139,0.02225
4961.94986,0.01625
4963.87833,0.00003
4965.80680,-0.01567
4967.73527,-0.01367
4969.66373,-0.00454
4971.59220,-0.00208
4973.52067,-0.00006
4975.44914,0.00528
4977.37761,0.00607
4979.30608,0.00879
4981.23455,0.01597
4983.16302,0.01554
4985.09148,0.00740
4987.01995,-0.00431
4988.94842,-0.00816
4990.87689,0.00526
4992.80536,0.01872
4994.73383,0.01597
4996.66230,0.00491
4998.59076,0.00312
5000.51923,0.01075
5002.44770,0.01574
5004.37617,0.01393
5006.30464,0.00653
5008.23311,0.00342
5010.16158,0.00872
5012.09005,0.01240
5014.01851,0.01208
5015.94698,0.01384
5017.87545,0.02042
5019.80392,0.02661
5021.73239,0.02404
5023.66086,0.01256
5025.58933,-0.00012
5027.51779,-0.00788
5029.44626,-0.00242
5031.37473,0.01275
5033.30320,0.01344
5035.23167,0.00322
5037.16014,0.01064
5039.08861,0.02985
5041.01708,0.03745
5042.94554,0.03863
5044.87401,0.04279
5046.80248,0.04032
5048.73095,0.02530
5050.65942,0.00980
5052.58789,0.00703
5054.51636,0.00619
5056.44482,-0.00885
5058.37329,-0.02746
5060.30176,-0.02564
5062.23023,-0.00350
5064.15870,0.01686
5066.08717,0.03239
5068.01564,0.04182
5069.94410,0.03040
5071.87257,0.01441
5073.80104,0.01728
5075.72951,0.02120
5077.65798,0.01363
5079.58645,0.01269
5081.51492,0.02553
5083.44339,0.04281
5085.37185,0.05772
5087.30032,0.06284
5089.22879,0.05800
5091.15726,0.05172
5093.08573,0.04414
5095.01420,0.03075
5096.94267,0.01762
5098.87113,0.01640
5100.79960,0.01867
5102.72807,0.01614
5104.65654,0.01843
5106.58501,0.02152
5108.51348,0.02355
5110.44195,0.02223
5112.37042,0.00749
5114.29888,0.00125
5116.22735,0.02201
5118.15582,0.04491
5120.08429,0.04234
5122.01276,0.02031
5123.94123,-0.00018
5125.86970,-0.00649
5127.79816,0.01035
5129.72663,0.03930
5131.65510,0.05393
5133.58357,0.04957
5135.51204,0.03583
5137.44051,0.02709
5139.36898,0.03181
5141.29745,0.02830
5143.22591,0.00942
5145.15438,-0.00172
5147.08285,0.00561
5149.01132,0.01786
5150.93979,0.00979
5152.86826,-0.00805
5154.79673,-0.00523
5156.72519,0.00805
5158.65366,0.00907
5160.58213,0.00545
5162.51060,0.00850
5164.43907,0.00947
5166.36754,0.00563
5168.29601,0.01392
5170.22448,0.03654
5172.15294,0.04752
5174.08141,0.03341
5176.00988,0.01435
5177.93835,0.01003
5179.86682,0.01426
5181.79529,0.01575
5183.72376,0.02019
5185.65222,0.03073
5187.58069,0.04346
5189.50916,0.05981
5191.43763,0.07133
5193.36610,0.06685
5195.29457,0.05045
5197.22304,0.02747
5199.15151,0.00573
5201.07997,0.00716
5203.00844,0.03195
5204.93691,0.05652
5206.86538,0.06993
5208.79385,0.06923
5210.72232,0.05526
5212.65079,0.03493
5214.57925,0.02267
5216.50772,0.03322
5218.43619,0.06166
5220.36466,0.08537
5222.29313,0.08490
5224.22160,0.07360
5226.15007,0.07239
5228.07854,0.06432
5230.00700,0.04498
5231.93547,0.04085
5233.86394,0.05398
5235.79241,0.05879
5237.72088,0.04402
5239.64935,0.03165
5241.57782,0.03465
5243.50628,0.03811
5245.43475,0.04250
5247.36322,0.05076
5249.29169,0.05346
5251.22016,0.05042
5253.14863,0.04324
5255.07710,0.04024
5257.00556,0.04495
5258.93403,0.05542
5260.86250,0.07312
5262.79097,0.07229
5264.71944,0.04436
5266.64791,0.03488
5268.57638,0.05017
5270.50485,0.06328
5272.43331,0.06634
5274.36178,0.05776
5276.29025,0.04852
5278.21872,0.05764
5280.14719,0.07757
5282.07566,0.09102
5284.00413,0.09473
5285.93259,0.08824
5287.86106,0.07454
5289.78953,0.05889
5291.71800,0.06049
5293.64647,0.07881
5295.57494,0.07362
5297.50341,0.05068
5299.43188,0.04829
5301.36034,0.06221
5303.28881,0.06735
5305.21728,0.05547
5307.14575,0.03549
5309.07422,0.02073
5311.00269,0.02381
5312.93116,0.04808
5314.85962,0.07321
5316.78809,0.07871
5318.71656,0.07968
5320.64503,0.08695
5322.57350,0.08100
5324.50197,0.06534
5326.43044,0.06543
5328.35891,0.07996
5330.28737,0.08643
5332.21584,0.07169
5334.14431,0.05271
5336.07278,0.06001
5338.00125,0.08186
5339.92972,0.08146
5341.85819,0.06838
5343.78665,0.07471
5345.71512,0.09466
5347.64359,0.09698
5349.57206,0.08617
5351.50053,0.07195
5353.42900,0.06639
5355.35747,0.08438
5357.28594,0.09838
5359.21440,0.09199
5361.14287,0.07853
5363.07134,0.05578
5364.99981,0.03156
5366.92828,0.04071
5368.85675,0.06956
5370.78522,0.07903
5372.71368,0.07273
5374.64215,0.06358
5376.57062,0.05094
5378.49909,0.03976
5380.42756,0.03625
5382.35603,0.04540
5384.28450,0.06414
5386.21297,0.08004
5388.14143,0.08818
5390.06990,0.09244
5391.99837,0.09465
5393.92684,0.08267
5395.85531,0.05288
5397.78378,0.03741
5399.71225,0.04457
5401.64071,0.05866
5403.56918,0.07901
5405.49765,0.09058
5407.42612,0.07644
5409.35459,0.05714
5411.28306,0.05588
5413.21153,0.06444
5415.13999,0.07048
5417.06846,0.08022
5418.99693,0.07778
5420.92540,0.04461
5422.85387,0.01942
5424.78234,0.03544
5426.71081,0.07291
5428.63928,0.09910
5430.56774,0.09236
5432.49621,0.08286
5434.42468,0.09000
5436.35315,0.07990
5438.28162,0.05843
5440.21009,0.06015
5442.13856,0.08245
5444.06702,0.10362
5445.99549,0.09697
5447.92396,0.05493
5449.85243,0.02498
5451.78090,0.02529
5453.70937,0.03519
5455.63784,0.06080
5457.56631,0.09319
5459.49477,0.10161
5461.42324,0.09883
5463.35171,0.10838
5465.28018,0.11678
5467.20865,0.10783
5469.13712,0.08759
5471.06559,0.06859
5472.99405,0.05789
5474.92252,0.05528
5476.85099,0.05571
5478.77946,0.05955
5480.70793,0.07166
5482.63640,0.07982
5484.56487,0.06587
5486.49334,0.04147
5488.42180,0.02880
5490.35027,0.03794
5492.27874,0.07400
5494.20721,0.10473
5496.13568,0.10370
5498.06415,0.09347
5499.99262,0.07776
5501.92108,0.06434
5503.84955,0.08202
5505.77802,0.11273
5507.70649,0.11811
5509.63496,0.10679
5511.56343,0.09961
5513.49190,0.09416
5515.42037,0.09440
5517.34883,0.09876
5519.27730,0.09116
5521.20577,0.07674
5523.13424,0.07140
5525.06271,0.07727
5526.99118,0.08391
5528.91965,0.07388
5530.84811,0.04843
5532.77658,0.03898
5534.70505,0.05160
5536.63352,0.06349
5538.56199,0.06406
5540.49046,0.05571
5542.41893,0.05852
5544.34740,0.07048
5546.27586,0.06612
5548.20433,0.06216
5550.13280,0.07162
5552.06127,0.08819
5553.98974,0.11537
5555.91821,0.13810
5557.84668,0.14122
5559.77514,0.13151
5561.70361,0.10556
5563.63208,0.07311
5565.56055,0.05892
5567.48902,0.04840
5569.41749,0.03703
5571.34596,0.03857
5573.27443,0.04290
5575.20289,0.04923
5577.13136,0.05570
5579.05983,0.05432
5580.98830,0.05087
5582.91677,0.05304
5584.84524,0.05985
5586.77371,0.06796
5588.70217,0.07442
5590.63064,0.06094
5592.55911,0.03786
5594.48758,0.05197
5596.41605,0.09978
5598.34452,0.12493
5600.27299,0.09562
5602.20145,0.04954
5604.12992,0.04098
5606.05839,0.06333
5607.98686,0.08569
5609.91533,0.09106
5611.84380,0.07006
5613.77227,0.05080
5615.70074,0.05526
5617.62920,0.05585
5619.55767,0.04648
5621.48614,0.05370
5623.41461,0.07507
5625.34308,0.07572
5627.27155,0.04653
5629.20002,0.01880
5631.12848,0.00602
5633.05695,0.00913
5634.98542,0.03164
5636.91389,0.05568
5638.84236,0.06838
5640.77083,0.07921
5642.69930,0.09310
5644.62777,0.10339
5646.55623,0.10806
5648.48470,0.10044
5650.41317,0.06375
5652.34164,0.01953
5654.27011,0.01085
5656.19858,0.04326
5658.12705,0.08835
5660.05551,0.10883
5661.98398,0.10863
5663.91245,0.12335
5665.84092,0.14221
5667.76939,0.13482
5669.69786,0.09985
5671.62633,0.06192
5673.55480,0.05664
5675.48326,0.08636
5677.41173,0.11613
5679.34020,0.12464
5681.26867,0.11369
5683.19714,0.08392
5685.12561,0.05007
5687.05408,0.04132
5688.98254,0.07184
5690.91101,0.11414
5692.83948,0.12222
5694.76795,0.10939
5696.69642,0.11415
5698.62489,0.11890
5700.55336,0.09697
5702.48183,0.06138
5704.41029,0.05141
5706.33876,0.06792
5708.26723,0.06642
5710.19570,0.05656
5712.12417,0.06961
5714.05264,0.08702
5715.98111,0.09742
5717.90957,0.10483
5719.83804,0.11729
5721.76651,0.14721
5723.69498,0.16041
5725.62345,0.12954
5727.55192,0.08310
5729.48039,0.04533
5731.40886,0.02118
5733.33732,0.02672
5735.26579,0.06157
5737.19426,0.07317
5739.12273,0.04893
5741.05120,0.04449
5742.97967,0.06005
5744.90814,0.06241
5746.83660,0.07176
5748.76507,0.10566
5750.69354,0.12445
5752.62201,0.10112
5754.55048,0.07420
5756.47895,0.07719
5758.40742,0.09316
5760.33588,0.10470
5762.26435,0.10987
5764.19282,0.10349
5766.12129,0.09734
5768.04976,0.09112
5769.97823,0.05997
5771.90670,0.03141
5773.83517,0.06878
5775.76363,0.13146
5777.69210,0.12655
5779.62057,0.08425
5781.54904,0.09106
5783.47751,0.12989
5785.40598,0.13031
5787.33445,0.09324
5789.26291,0.06331
5791.19138,0.05159
5793.11985,0.06510
5795.04832,0.09317
5796.97679,0.10735
5798.90526,0.11151
5800.83373,0.11625
5802.76220,0.11009
5804.69066,0.09279
5806.61913,0.07665
5808.54760,0.05963
5810.47607,0.03472
5812.40454,0.01688
5814.33301,0.04090
5816.26148,0.09962
5818.18994,0.14811
5820.11841,0.15699
5822.04688,0.12969
5823.97535,0.09767
5825.90382,0.09037
5827.83229,0.11521
5829.76076,0.14677
5831.68923,0.16476
5833.61769,0.15947
5835.54616,0.12526
5837.47463,0.10136
5839.40310,0.11495
5841.33157,0.14429
5843.26004,0.15295
5845.18851,0.13068
5847.11697,0.08076
5849.04544,0.02173
5850.97391,0.01596
5852.90238,0.05795
5854.83085,0.08132
5856.75932,0.07640
5858.68779,0.08689
5860.61626,0.12900
5862.54472,0.15731
5864.47319,0.13851
5866.40166,0.11070
5868.33013,0.10852
5870.25860,0.09778
5872.18707,0.06352
5874.11554,0.05481
5876.04400,0.08348
5877.97247,0.09406
5879.90094,0.07096
5881.82941,0.03932
5883.75788,0.02475
5885.68635,0.04929
5887.61482,0.07501
5889.54329,0.06951
5891.47175,0.06621
5893.40022,0.06454
5895.32869,0.04981
5897.25716,0.04210
5899.18563,0.05254
5901.11410,0.06935
5903.04257,0.07036
5904.97103,0.05304
5906.89950,0.04264
5908.82797,0.05333
5910.75644,0.06651
5912.68491,0.07391
5914.61338,0.07594
5916.54185,0.04566
5918.47032,0.01304
5920.39878,0.04227
5922.32725,0.09594
5924.25572,0.11478
5926.18419,0.10886
5928.11266,0.08788
5930.04113,0.06553
5931.96960,0.07269
5933.89806,0.08565
5935.82653,0.08356
5937.75500,0.09058
5939.68347,0.08601
5941.61194,0.05289
5943.54041,0.03267
5945.46888,0.04648
5947.39734,0.06799
5949.32581,0.07144
5951.25428,0.06952
5953.18275,0.07590
5955.11122,0.06337
5957.03969,0.03563
5958.96816,0.03806
5960.89663,0.08195
5962.82509,0.10945
5964.75356,0.09610
5966.68203,0.08065
5968.61050,0.04507
5970.53897,-0.00792
5972.46744,0.00311
5974.39591,0.05760
5976.32437,0.07382
5978.25284,0.06422
5980.18131,0.07887
5982.10978,0.10150
5984.03825,0.09499
5985.96672,0.08438
5987.89519,0.08772
5989.82366,0.07866
5991.75212,0.07886
5993.68059,0.11367
5995.60906,0.11624
5997.53753,0.07016
5999.46600,0.04449
6001.39447,0.03840
6003.32294,0.03190
6005.25140,0.03862
6007.17987,0.06686
6009.10834,0.09895
6011.03681,0.10806
6012.96528,0.11992
6014.89375,0.15082
6016.82222,0.14654
6018.75069,0.11607
6020.67915,0.11268
6022.60762,0.10653
6024.53609,0.08791
6026.46456,0.07789
6028.39303,0.07716
6030.32150,0.09527
6032.24997,0.11847
6034.17843,0.10821
6036.10690,0.07753
6038.03537,0.06054
6039.96384,0.05033
6041.89231,0.04283
6043.82078,0.04949
6045.74925,0.07201
6047.67772,0.09729
6049.60618,0.10742
6051.53465,0.08866
6053.46312,0.05347
6055.39159,0.03268
6057.32006,0.03377
6059.24853,0.04457
6061.17700,0.06377
6063.10546,0.09968
6065.03393,0.12809
6066.96240,0.12762
6068.89087,0.12344
6070.81934,0.12797
6072.74781,0.12959
6074.67628,0.11831
6076.60475,0.08475
6078.53321,0.03616
6080.46168,0.03000
6082.39015,0.08639
6084.31862,0.12052
6086.24709,0.10732
6088.17556,0.12239
6090.10403,0.15923
6092.03249,0.14619
6093.96096,0.08472
6095.88943,0.03380
6097.81790,0.01718
6099.74637,0.03283
6101.67484,0.07287
6103.60331,0.08757
6105.53177,0.04819
6107.46024,0.01958
6109.38871,0.04168
6111.31718,0.03758
6113.24565,0.00787
6115.17412,0.02132
6117.10259,0.04644
6119.03106,0.04552
6120.95952,0.02911
6122.88799,0.02502
6124.81646,0.06454
6126.74493,0.10443
6128.67340,0.09667
6130.60187,0.07410
6132.53034,0.05531
6134.45880,0.03521
6136.38727,0.03366
6138.31574,0.04941
6140.24421,0.03831
6142.17268,0.00903
6144.10115,0.01121
6146.02962,0.02290
6147.95809,0.01994
6149.88655,0.01802
6151.81502,0.03030
6153.74349,0.06579
6155.67196,0.10245
6157.60043,0.10780
6159.52890,0.10335
6161.45737,0.10218
6163.38583,0.08577
6165.31430,0.09556
6167.24277,0.12640
6169.17124,0.11339
6171.09971,0.08765
6173.02818,0.10037
6174.95665,0.13485
6176.88512,0.16497
6178.81358,0.15477
6180.74205,0.12819
6182.67052,0.14712
6184.59899,0.18217
6186.52746,0.20409
6188.45593,0.19763
6190.38440,0.13532
6192.31286,0.08043
6194.24133,0.06418
6196.16980,0.05962
6198.09827,0.08012
6200.02674,0.11423
6201.95521,0.13806
6203.88368,0.12910
6205.81215,0.07526
6207.74061,0.05044
6209.66908,0.08657
6211.59755,0.10460
6213.52602,0.09183
6215.45449,0.09404
6217.38296,0.10647
6219.31143,0.10629
6221.23989,0.09137
6223.16836,0.09567
6225.09683,0.12052
6227.02530,0.11635
6228.95377,0.08042
6230.88224,0.03899
6232.81071,0.02475
6234.73918,0.08815
6236.66764,0.18387
6238.59611,0.19195
6240.52458,0.13023
6242.45305,0.10450
6244.38152,0.13111
6246.30999,0.18561
6248.23846,0.21278
6250.16692,0.16171
6252.09539,0.07007
6254.02386,0.02469
6255.95233,0.04392
6257.88080,0.07203
6259.80927,0.09395
6261.73774,0.11803
6263.66621,0.11890
6265.59467,0.10892
6267.52314,0.09573
6269.45161,0.05007
6271.38008,0.01659
6273.30855,0.03956
6275.23702,0.10384
6277.16549,0.18361
6279.09395,0.21962
6281.02242,0.19289
6282.95089,0.14605
6284.87936,0.09989
6286.80783,0.06278
6288.73630,0.04995
6290.66477,0.09853
6292.59323,0.19838
6294.52170,0.26216
6296.45017,0.22549
6298.37864,0.10794
6300.30711,0.01215
6302.23558,0.01513
6304.16405,0.04873
6306.09252,0.03622
6308.02098,0.00926
6309.94945,0.02649
6311.87792,0.07153
6313.80639,0.09154
6315.73486,0.11379
6317.66333,0.16737
6319.59180,0.21007
6321.52026,0.21717
6323.44873,0.18664
6325.37720,0.13942
6327.30567,0.15245
6329.23414,0.21604
6331.16261,0.20443
6333.09108,0.12101
6335.01955,0.06380
6336.94801,0.04310
6338.87648,0.01736
6340.80495,-0.01221
6342.73342,0.00014
6344.66189,0.06382
6346.59036,0.14440
6348.51883,0.22192
6350.44729,0.26449
6352.37576,0.18945
6354.30423,0.06630
6356.23270,0.02389
6358.16117,0.03076
6360.08964,0.02503
6362.01811,0.02405
6363.94658,0.06937
6365.87504,0.14710
6367.80351,0.16978
6369.73198,0.13744
6371.66045,0.09814
6373.58892,0.07091
6375.51739,0.08247
6377.44586,0.11231
6379.37432,0.13869
6381.30279,0.15928
6383.23126,0.15643
6385.15973,0.14737
6387.08820,0.15276
6389.01667,0.14120
6390.94514,0.10296
6392.87361,0.03748
6394.80207,-0.02822
6396.73054,-0.02301
6398.65901,0.02774
6400.58748,0.04487
6402.51595,0.02015
6404.44442,0.01431
6406.37289,0.07327
6408.30135,0.17446
6410.22982,0.21480
6412.15829,0.15680
6414.08676,0.10022
6416.01523,0.10862
6417.94370,0.15133
6419.87217,0.18202
6421.80064,0.21631
6423.72910,0.23768
6425.65757,0.19552
6427.58604,0.15263
6429.51451,0.14320
6431.44298,0.11933
6433.37145,0.08085
6435.29992,0.04983
6437.22838,0.04136
6439.15685,0.02711
6441.08532,-0.00069
6443.01379,-0.00688
6444.94226,0.01736
6446.87073,0.08661
6448.79920,0.16486
6450.72766,0.15337
6452.65613,0.05495
6454.58460,-0.02557
6456.51307,-0.04424
6458.44154,-0.03757
6460.37001,-0.01777
6462.29848,0.02540
6464.22695,0.03748
6466.15541,0.01698
6468.08388,0.06500
6470.01235,0.17096
6471.94082,0.22553
6473.86929,0.23229
6475.79776,0.21384
6477.72623,0.17132
6479.65469,0.14337
6481.58316,0.13601
6483.51163,0.10122
6485.44010,0.04338
6487.36857,0.02583
6489.29704,0.06253
6491.22551,0.12913
6493.15398,0.18443
6495.08244,0.16605
6497.01091,0.08827
6498.93938,0.05238
6500.86785,0.10490
6502.79632,0.14272
6504.72479,0.13108
6506.65326,0.16775
6508.58172,0.24285
6510.51019,0.22884
6512.43866,0.12283
6514.36713,0.04180
6516.29560,0.00442
6518.22407,0.00155
6520.15254,0.01634
6522.08101,0.03011
6524.00947,0.06276
6525.93794,0.10430
6527.86641,0.14717
6529.79488,0.17826
6531.72335,0.14659
6533.65182,0.07614
6535.58029,0.04592
6537.50875,0.06737
6539.43722,0.09900
6541.36569,0.12799
6543.29416,0.14280
6545.22263,0.11852
6547.15110,0.07217
6549.07957,0.02394
6551.00804,0.01538
6552.93650,0.05144
6554.86497,0.05673
6556.79344,0.05479
6558.72191,0.08903
6560.65038,0.07189
6562.57885,0.00066
6564.50732,0.00536
6566.43578,0.09646
6568.36425,0.15029
6570.29272,0.08028
6572.22119,-0.07581
6574.14966,-0.11843
6576.07813,0.05533
6578.00660,0.25767
6579.93507,0.29053
6581.86353,0.23569
6583.79200,0.19790
6585.72047,0.14517
6587.64894,0.09423
6589.57741,0.07497
6591.50588,0.04717
6593.43435,0.00383
6595.36281,-0.00911
6597.29128,0.00693
6599.21975,0.03057
6601.14822,0.05934
6603.07669,0.07351
6605.00516,0.08086
6606.93363,0.08171
6608.86210,0.03062
6610.79056,-0.01954
6612.71903,0.01378
6614.64750,0.08272
6616.57597,0.16483
6618.50444,0.23673
6620.43291,0.20234
6622.36138,0.08153
6624.28984,0.00414
6626.21831,0.02189
6628.14678,0.06206
6630.07525,0.05948
6632.00372,0.03701
6633.93219,0.00735
6635.86066,-0.01714
6637.78912,0.01788
6639.71759,0.06415
6641.64606,0.04496
6643.57453,-0.03092
6645.50300,-0.08261
6647.43147,-0.02711
6649.35994,0.06317
6651.28841,0.04983
6653.21687,-0.01966
6655.14534,-0.00870
6657.07381,0.04812
6659.00228,0.05888
6660.93075,0.04535
6662.85922,-0.02835
6664.78769,-0.11603
6666.71615,-0.08544
6668.64462,0.00460
6670.57309,0.01484
6672.50156,-0.01284
6674.43003,0.02139
6676.35850,0.09192
6678.28697,0.13820
6680.21544,0.15446
6682.14390,0.15601
6684.07237,0.13923
6686.00084,0.12854
6687.92931,0.15089
6689.85778,0.16019
6691.78625,0.13517
6693.71472,0.09436
6695.64318,0.03275
6697.57165,0.00002
6699.50012,0.04132
6701.42859,0.10844
6703.35706,0.12578
6705.28553,0.03493
6707.21400,-0.09926
6709.14247,-0.10371
6711.07093,-0.00446
6712.99940,0.02140
6714.92787,-0.04834
6716.85634,-0.08935
6718.78481,-0.05046
6720.71328,0.01380
6722.64175,0.07565
6724.57021,0.12797
6726.49868,0.14768
6728.42715,0.16580
6730.35562,0.21649
6732.28409,0.20823
6734.21256,0.07483
6736.14103,-0.04645
6738.06950,-0.01273
6739.99796,0.05968
6741.92643,0.01715
6743.85490,-0.01559
6745.78337,0.03493
6747.71184,0.06103
6749.64031,0.05961
6751.56878,0.09252
6753.49724,0.14476
6755.42571,0.16733
6757.35418,0.16396
6759.28265,0.15324
6761.21112,0.13360
6763.13959,0.10987
6765.06806,0.05422
6766.99653,-0.00696
6768.92499,0.01554
6770.85346,0.05752
6772.78193,-0.00278
6774.71040,-0.04905
6776.63887,0.02682
6778.56734,0.06028
6780.49581,0.01777
6782.42427,0.01651
6784.35274,0.06060
6786.28121,0.10175
6788.20968,0.09704
6790.13815,0.01795
6792.06662,-0.03749
6793.99509,0.02272
6795.92355,0.08066
6797.85202,0.06694
6799.78049,0.06938
6801.70896,0.09897
6803.63743,0.09718
6805.56590,0.07257
6807.49437,0.05781
6809.42284,0.10712
6811.35130,0.22407
6813.27977,0.27962
6815.20824,0.19645
6817.13671,0.06677
6819.06518,0.01266
6820.99365,0.02570
6822.92212,0.03757
6824.85058,0.00025
6826.77905,-0.04423
6828.70752,-0.05010
6830.63599,-0.04794
6832.56446,-0.02829
6834.49293,0.05256
6836.42140,0.11781
6838.34987,0.12328
6840.27833,0.13561
6842.20680,0.16427
6844.13527,0.21240
6846.06374,0.20494
6847.99221,0.07555
6849.92068,-0.03260
6851.84915,0.00408
6853.77761,0.13020
6855.70608,0.21977
6857.63455,0.15573
6859.56302,0.04407
6861.49149,0.03327
6863.41996,0.06933
6865.34843,0.01412
6867.27690,-0.08448
6869.20536,-0.10645
6871.13383,-0.05199
6873.06230,0.02638
6874.99077,0.06887
6876.91924,0.05952
6878.84771,0.04367
6880.77618,0.04163
6882.70464,0.03296
6884.63311,0.02803
6886.56158,0.06704
6888.49005,0.14475
6890.41852,0.12839
6892.34699,0.03193
6894.27546,0.02031
6896.20393,0.07863
6898.13239,0.13287
6900.06086,0.14323
6901.98933,0.11517
6903.91780,0.11803
6905.84627,0.18453
6907.77474,0.20698
6909.70321,0.14980
6911.63167,0.10149
6913.56014,0.08810
6915.48861,0.09342
6917.41708,0.13221
6919.34555,0.18837
6921.27402,0.18286
6923.20249,0.14922
6925.13096,0.16918
6927.05942,0.19018
6928.98789,0.15215
6930.91636,0.10676
6932.84483,0.08985
6934.77330,0.08152
6936.70177,0.07622
6938.63024,0.05520
6940.55870,0.01894
6942.48717,-0.02839
6944.41564,-0.07883
6946.34411,-0.06133
6948.27258,0.01535
6950.20105,0.04919
6952.12952,0.09264
6954.05799,0.23764
6955.98645,0.30876
6957.91492,0.13637
6959.84339,-0.06254
6961.77186,-0.07257
6963.70033,0.04879
6965.62880,0.16981
6967.55727,0.19272
6969.48573,0.08022
6971.41420,-0.03253
6973.34267,-0.04923
6975.27114,-0.03140
6977.19961,-0.02666
6979.12808,-0.00290
6981.05655,0.05506
6982.98501,0.08914
6984.91348,0.05769
6986.84195,0.03184
6988.77042,0.08010
6990.69889,0.12858
6992.62736,0.09528
6994.55583,0.01750
6996.48430,0.01793
6998.41276,0.10470
7000.34123,0.10279
7002.26970,0.06056
7004.19817,0.06041
7006.12664,-0.00636
7008.05511,-0.10762
7009.98358,-0.06390
7011.91204,0.07160
7013.84051,0.09007
7015.76898,-0.04116
7017.69745,-0.17996
7019.62592,-0.18081
7021.55439,0.00451
7023.48286,0.17286
7025.41133,0.13754
7027.33979,0.06042
7029.26826,0.10488
7031.19673,0.14647
7033.12520,0.15204
7035.05367,0.20428
7036.98214,0.22212
7038.91061,0.08876
7040.83907,-0.06436
7042.76754,-0.00519
7044.69601,0.07785
7046.62448,0.01934
7048.55295,0.02167
7050.48142,0.05232
7052.40989,0.03838
7054.33836,-0.01477
7056.26682,-0.07088
7058.19529,0.00108
7060.12376,0.12673
7062.05223,0.14416
7063.98070,0.08948
7065.90917,0.09283
7067.83764,0.15193
7069.76610,0.14476
7071.69457,0.08113
7073.62304,0.08994
7075.55151,0.14406
7077.47998,0.21072
7079.40845,0.21651
7081.33692,0.06938
7083.26539,-0.00666
7085.19385,0.04556
7087.12232,-0.00962
7089.05079,-0.14333
7090.97926,-0.11424
7092.90773,0.05825
7094.83620,0.16897
7096.76467,0.13003
7098.69313,0.03007
7100.62160,0.01487
7102.55007,0.10803
7104.47854,0.23803
7106.40701,0.26540
7108.33548,0.13733
7110.26395,0.02580
7112.19242,0.01118
7114.12088,0.03920
7116.04935,0.11517
7117.97782,0.18989
7119.90629,0.11367
7121.83476,-0.02743
7123.76323,-0.09016
7125.69170,-0.06406
7127.62016,-0.01991
7129.54863,0.00087
7131.47710,0.05675
7133.40557,0.12866
7135.33404,0.14439
7137.26251,0.15052
7139.19098,0.12580
7141.11944,0.01901
7143.04791,-0.04757
7144.97638,0.01645
7146.90485,0.13491
7148.83332,0.20086
7150.76179,0.20099
7152.69026,0.17359
7154.61873,0.11731
7156.54719,-0.02284
7158.47566,-0.14662
7160.40413,-0.11896
7162.33260,0.03275
7164.26107,0.17444
7166.18954,0.18084
7168.11801,0.11117
7170.04647,0.15070
7171.97494,0.25686
7173.90341,0.22299
7175.83188,0.07293
7177.76035,0.04477
7179.68882,0.19035
7181.61729,0.31680
7183.54576,0.23540
7185.47422,0.03714
7187.40269,-0.08926
7189.33116,-0.12998
7191.25963,-0.07357
7193.18810,0.01471
7195.11657,0.04596
7197.04504,0.10630
7198.97350,0.22194
7200.90197,0.22472
7202.83044,0.05928
7204.75891,-0.08138
7206.68738,-0.02325
7208.61585,0.06554
7210.54432,0.04760
7212.47279,-0.10181
7214.40125,-0.32581
7216.32972,-0.50075
7218.25819,-0.41459
7220.18666,-0.10482
7222.11513,0.12739
7224.04360,0.15211
7225.97207,0.03463
7227.90053,-0.05121
7229.82900,-0.08088
7231.75747,-0.10024
7233.68594,-0.07138
7235.61441,0.05687
7237.54288,0.17681
7239.47135,0.20285
7241.39982,0.22292
7243.32828,0.22986
7245.25675,0.23237
7247.18522,0.25445
7249.11369,0.21162
7251.04216,0.09133
7252.97063,-0.01823
7254.89910,-0.03805
7256.82756,-0.02392
7258.75603,-0.06857
7260.68450,-0.13074
7262.61297,-0.01764
7264.54144,0.15389
7266.46991,0.13062
7268.39838,0.00246
7270.32685,-0.14016
7272.25531,-0.23798
7274.18378,-0.08306
7276.11225,0.14311
7278.04072,0.21248
7279.96919,0.18074
7281.89766,0.19735
7283.82613,0.21247
7285.75459,0.18015
7287.68306,0.13706
7289.61153,0.09867
7291.54000,0.04147
7293.46847,-0.00676
7295.39694,-0.00337
7297.32541,0.00800
7299.25387,-0.03969
7301.18234,-0.09926
7303.11081,-0.12500
7305.03928,-0.13334
7306.96775,-0.11251
7308.89622,-0.10736
7310.82469,-0.16614
7312.75316,-0.19708
7314.68162,-0.18549
7316.61009,-0.17836
7318.53856,-0.08419
7320.46703,0.15701
7322.39550,0.34769
7324.32397,0.31860
7326.25244,0.21537
7328.18090,0.10403
7330.10937,0.03649
7332.03784,0.07447
7333.96631,0.07527
7335.89478,0.08305
7337.82325,0.11610
7339.75172,0.05374
7341.68019,0.03808
7343.60865,0.13788
7345.53712,0.18313
7347.46559,0.10696
7349.39406,0.01459
7351.32253,0.16068
7353.25100,0.47222
7355.17947,0.64091
7357.10793,0.57160
7359.03640,0.39712
7360.96487,0.28792
7362.89334,0.26703
7364.82181,0.31079
7366.75028,0.34809
7368.67875,0.34563
7370.60722,0.27142
7372.53568,0.14140
7374.46415,0.04659
7376.39262,0.09358
7378.32109,0.16595
7380.24956,0.09101
7382.17803,-0.05269
7384.10650,-0.01344
7386.03496,0.08531
7387.96343,0.05027
7389.89190,0.08080
7391.82037,0.20651
7393.74884,0.20458
7395.67731,0.06536
7397.60578,-0.04021
7399.53425,-0.08335
7401.46271,-0.13045
7403.39118,-0.16530
7405.31965,-0.03092
7407.24812,0.14693
7409.17659,0.13090
7411.10506,0.02834
7413.03353,-0.03164
7414.96199,-0.07002
7416.89046,-0.06012
7418.81893,0.08645
7420.74740,0.19846
7422.67587,0.08556
7424.60434,-0.09341
7426.53281,-0.18794
7428.46128,-0.17098
7430.38974,-0.07786
7432.31821,-0.02649
7434.24668,-0.01476
7436.17515,0.08219
7438.10362,0.19145
7440.03209,0.23541
7441.96056,0.23755
7443.88902,0.10020
7445.81749,-0.12087
7447.74596,-0.25529
7449.67443,-0.24243
7451.60290,-0.08172
7453.53137,0.03027
7455.45984,0.06833
7457.38831,0.19408
7459.31677,0.34448
7461.24524,0.31710
7463.17371,0.17938
7465.10218,0.10150
7467.03065,0.07764
7468.95912,0.07907
7470.88759,0.15901
7472.81605,0.26933
7474.74452,0.31127
7476.67299,0.24024
7478.60146,0.13229
7480.52993,0.08867
7482.45840,0.04106
7484.38687,0.03860
7486.31533,0.14106
7488.24380,0.28912
7490.17227,0.37654
7492.10074,0.34015
7494.02921,0.20467
7495.95768,0.08922
7497.88615,0.17224
