399.19301,5.10957
401.12148,0.83047
403.04995,0.40445
404.97842,0.13541
406.90689,-0.02946
408.83536,-0.04131
410.76382,0.12167
412.69229,0.16951
414.62076,-0.03180
416.54923,-0.19057
418.47770,-0.11774
420.40617,0.02238
422.33464,0.13700
424.26311,0.21398
426.19157,0.15076
428.12004,0.00579
430.04851,-0.11226
431.97698,-0.13213
433.90545,-0.10313
435.83392,-0.08398
437.76239,-0.03029
439.69085,0.06194
441.61932,0.09210
443.54779,0.03798
445.47626,0.00867
447.40473,-0.00970
449.33320,-0.03159
451.26167,-0.01189
453.19013,0.03438
455.11860,0.04712
457.04707,0.01808
458.97554,0.02007
460.90401,0.07893
462.83248,0.11250
464.76095,0.03964
466.68942,-0.03727
468.61788,0.00235
470.54635,0.09206
472.47482,0.05265
474.40329,-0.10731
476.33176,0.00068
478.26023,0.15620
480.18870,0.16757
482.11716,0.13089
484.04563,0.13219
485.97410,0.12535
487.90257,0.12260
489.83104,0.13077
491.75951,0.08338
493.68798,0.02627
495.61645,0.02180
497.54491,0.03717
499.47338,0.05369
501.40185,0.09547
503.33032,0.13115
505.25879,0.12397
507.18726,0.09734
509.11573,0.07038
511.04419,0.05449
512.97266,0.04613
514.90113,0.03801
516.82960,0.03174
518.75807,0.03373
520.68654,0.05812
522.61501,0.10437
524.54348,0.14029
526.47194,0.12834
528.40041,0.09670
530.32888,0.09508
532.25735,0.14278
534.18582,0.19315
536.11429,0.17944
538.04276,0.14023
539.97122,0.13860
541.89969,0.15457
543.82816,0.15127
545.75663,0.13675
547.68510,0.12886
549.61357,0.13588
551.54204,0.16866
553.47051,0.19320
555.39897,0.16828
557.32744,0.12006
559.25591,0.09467
561.18438,0.09954
563.11285,0.12606
565.04132,0.15233
566.96979,0.14716
568.89825,0.11665
570.82672,0.10315
572.75519,0.10792
574.68366,0.09435
576.61213,0.07368
578.54060,0.07587
580.46907,0.08509
582.39754,0.09586
584.32600,0.11350
586.25447,0.11408
588.18294,0.09941
590.11141,0.08353
592.03988,0.06396
593.96835,0.07985
595.89682,0.13459
597.82528,0.15944
599.75375,0.13940
601.68222,0.12609
603.61069,0.12367
605.53916,0.09816
607.46763,0.07535
609.39610,0.08512
611.32456,0.09635
613.25303,0.08462
615.18150,0.07987
617.10997,0.09352
619.03844,0.08923
620.96691,0.06818
622.89538,0.06762
624.82385,0.09099
626.75231,0.11596
628.68078,0.13824
630.60925,0.16950
632.53772,0.18967
634.46619,0.16852
636.39466,0.14056
638.32313,0.14441
640.25159,0.15953
642.18006,0.16347
644.10853,0.16691
646.03700,0.16958
647.96547,0.15355
649.89394,0.13001
651.82241,0.11355
653.75088,0.09639
655.67934,0.10133
657.60781,0.12546
659.53628,0.12491
661.46475,0.11464
663.39322,0.12784
665.32169,0.14860
667.25016,0.15196
669.17862,0.13452
671.10709,0.12247
673.03556,0.11508
674.96403,0.10861
676.89250,0.11099
678.82097,0.12562
680.74944,0.13259
682.67791,0.11888
684.60637,0.10495
686.53484,0.09995
688.46331,0.09704
690.39178,0.10570
692.32025,0.12543
694.24872,0.13499
696.17719,0.12987
698.10565,0.12639
700.03412,0.13012
701.96259,0.13165
703.89106,0.12739
705.81953,0.12940
707.74800,0.14552
709.67647,0.15333
711.60494,0.13787
713.53340,0.12480
715.46187,0.12804
717.39034,0.12754
719.31881,0.11974
721.24728,0.11872
723.17575,0.12402
725.10422,0.13245
727.03268,0.14077
728.96115,0.14108
730.88962,0.13892
732.81809,0.13933
734.74656,0.13791
736.67503,0.13768
738.60350,0.13991
740.53197,0.13900
742.46043,0.13314
744.38890,0.12625
746.31737,0.12304
748.24584,0.12625
750.17431,0.13581
752.10278,0.14230
754.03125,0.14129
755.95971,0.14400
757.88818,0.14994
759.81665,0.14842
761.74512,0.13994
763.67359,0.13177
765.60206,0.12383
767.53053,0.11204
769.45900,0.11426
771.38746,0.13418
773.31593,0.14161
775.24440,0.13191
777.17287,0.12517
779.10134,0.12786
781.02981,0.12835
782.95828,0.12238
784.88674,0.11965
786.81521,0.11945
788.74368,0.07915
790.67215,-0.01001
792.60062,-0.02603
794.52909,0.07490
796.45756,0.15237
798.38602,0.15929
800.31449,0.14776
802.24296,0.13098
804.17143,0.12296
806.09990,0.13327
808.02837,0.14177
809.95684,0.13356
811.88531,0.12164
813.81377,0.12132
815.74224,0.12701
817.67071,0.12636
819.59918,0.12677
821.52765,0.13511
823.45612,0.14695
825.38459,0.15815
827.31305,0.15582
829.24152,0.14254
831.16999,0.13767
833.09846,0.14330
835.02693,0.14832
836.95540,0.14424
838.88387,0.13730
840.81234,0.14289
842.74080,0.15499
844.66927,0.15450
846.59774,0.14379
848.52621,0.13889
850.45468,0.14000
852.38315,0.13332
854.31162,0.12865
856.24008,0.14026
858.16855,0.14882
860.09702,0.14748
862.02549,0.14890
863.95396,0.14477
865.88243,0.13174
867.81090,0.12350
869.73937,0.12158
871.66783,0.12378
873.59630,0.13459
875.52477,0.14754
877.45324,0.15145
879.38171,0.15075
881.31018,0.14920
883.23865,0.14175
885.16711,0.13418
887.09558,0.13584
889.02405,0.14144
890.95252,0.13883
892.88099,0.12920
894.80946,0.12468
896.73793,0.12877
898.66640,0.13848
900.59486,0.14963
902.52333,0.15482
904.45180,0.15479
906.38027,0.15689
908.30874,0.15749
910.23721,0.14957
912.16568,0.13884
914.09414,0.13693
916.02261,0.14466
917.95108,0.14965
919.87955,0.14626
921.80802,0.14355
923.73649,0.14537
925.66496,0.14593
927.59343,0.14586
929.52189,0.14807
931.45036,0.14941
933.37883,0.14908
935.30730,0.14847
937.23577,0.14899
939.16424,0.14928
941.09271,0.14637
943.02117,0.14599
944.94964,0.14925
946.87811,0.14728
948.80658,0.14099
950.73505,0.14084
952.66352,0.14816
954.59199,0.15127
956.52045,0.14575
958.44892,0.14103
960.37739,0.14426
962.30586,0.15059
964.23433,0.15235
966.16280,0.15125
968.09127,0.14990
970.01974,0.14620
971.94820,0.14021
973.87667,0.13912
975.80514,0.14613
977.73361,0.15173
979.66208,0.15212
981.59055,0.15209
983.51902,0.14840
985.44748,0.13615
987.37595,0.13063
989.30442,0.14288
991.23289,0.15139
993.16136,0.14486
995.08983,0.13892
997.01830,0.13981
998.94677,0.14127
1000.87523,0.14398
1002.80370,0.15022
1004.73217,0.15465
1006.66064,0.15401
1008.58911,0.15084
1010.51758,0.15028
1012.44605,0.15406
1014.37451,0.16035
1016.30298,0.16511
1018.23145,0.16026
1020.15992,0.14649
1022.08839,0.13930
1024.01686,0.14829
1025.94533,0.16224
1027.87380,0.17062
1029.80226,0.17251
1031.73073,0.17085
1033.65920,0.16784
1035.58767,0.15993
1037.51614,0.15121
1039.44461,0.14885
1041.37308,0.15169
1043.30154,0.15288
1045.23001,0.15140
1047.15848,0.15572
1049.08695,0.16411
1051.01542,0.16768
1052.94389,0.16127
1054.87236,0.15406
1056.80083,0.15904
1058.72929,0.16728
1060.65776,0.16959
1062.58623,0.16710
1064.51470,0.16093
1066.44317,0.15692
1068.37164,0.15819
1070.30011,0.16143
1072.22857,0.16773
1074.15704,0.17937
1076.08551,0.18785
1078.01398,0.18186
1079.94245,0.16686
1081.87092,0.16129
1083.79939,0.16410
1085.72786,0.16231
1087.65632,0.16079
1089.58479,0.16289
1091.51326,0.16273
1093.44173,0.16104
1095.37020,0.16075
1097.29867,0.16266
1099.22714,0.16249
1101.15560,0.15569
1103.08407,0.15295
1105.01254,0.16369
1106.94101,0.17423
1108.86948,0.17505
1110.79795,0.17222
1112.72642,0.16519
1114.65489,0.15453
1116.58335,0.14746
1118.51182,0.14600
1120.44029,0.15337
1122.36876,0.16760
1124.29723,0.17383
1126.22570,0.16607
1128.15417,0.15664
1130.08263,0.15291
1132.01110,0.14988
1133.93957,0.14812
1135.86804,0.15023
1137.79651,0.15357
1139.72498,0.15490
1141.65345,0.15308
1143.58191,0.15372
1145.51038,0.16152
1147.43885,0.16985
1149.36732,0.16880
1151.29579,0.16142
1153.22426,0.15851
1155.15273,0.16285
1157.08120,0.16942
1159.00966,0.16987
1160.93813,0.16209
1162.86660,0.15448
1164.79507,0.15255
1166.72354,0.15370
1168.65201,0.15558
1170.58048,0.15922
1172.50894,0.16391
1174.43741,0.16437
1176.36588,0.16090
1178.29435,0.16238
1180.22282,0.16679
1182.15129,0.16414
1184.07976,0.15575
1186.00823,0.14966
1187.93669,0.14946
1189.86516,0.15233
1191.79363,0.15545
1193.72210,0.15832
1195.65057,0.16098
1197.57904,0.16394
1199.50751,0.16630
1201.43597,0.16658
1203.36444,0.16454
1205.29291,0.16154
1207.22138,0.16124
1209.14985,0.16486
1211.07832,0.16815
1213.00679,0.16791
1214.93526,0.16537
1216.86372,0.16412
1218.79219,0.16683
1220.72066,0.17099
1222.64913,0.17397
1224.57760,0.17511
1226.50607,0.17276
1228.43454,0.16865
1230.36300,0.16557
1232.29147,0.16285
1234.21994,0.16212
1236.14841,0.16556
1238.07688,0.16884
1240.00535,0.16890
1241.93382,0.16808
1243.86229,0.16626
1245.79075,0.16452
1247.71922,0.16544
1249.64769,0.16778
1251.57616,0.17015
1253.50463,0.16991
1255.43310,0.16580
1257.36157,0.16255
1259.29003,0.16395
1261.21850,0.16695
1263.14697,0.16807
1265.07544,0.16823
1267.00391,0.16810
1268.93238,0.16974
1270.86085,0.17376
1272.78932,0.17533
1274.71778,0.17189
1276.64625,0.16773
1278.57472,0.16807
1280.50319,0.17045
1282.43166,0.17031
1284.36013,0.16978
1286.28860,0.17134
1288.21706,0.17270
1290.14553,0.17200
1292.07400,0.17124
1294.00247,0.17122
1295.93094,0.16982
1297.85941,0.16816
1299.78788,0.16932
1301.71634,0.17169
1303.64481,0.17344
1305.57328,0.17523
1307.50175,0.17512
1309.43022,0.17329
1311.35869,0.17415
1313.28716,0.17632
1315.21563,0.17565
1317.14409,0.17575
1319.07256,0.17874
1321.00103,0.17976
1322.92950,0.17784
1324.85797,0.17643
1326.78644,0.17631
1328.71491,0.17578
1330.64337,0.17575
1332.57184,0.17799
1334.50031,0.18119
1336.42878,0.18442
1338.35725,0.18502
1340.28572,0.17850
1342.21419,0.17032
1344.14266,0.16597
1346.07112,0.16584
1347.99959,0.17185
1349.92806,0.17900
1351.85653,0.18041
1353.78500,0.17779
1355.71347,0.17650
1357.64194,0.17867
1359.57040,0.17902
1361.49887,0.17450
1363.42734,0.17278
1365.35581,0.17721
1367.28428,0.18052
1369.21275,0.17853
1371.14122,0.17570
1373.06969,0.17957
1374.99815,0.18538
1376.92662,0.18409
1378.85509,0.18069
1380.78356,0.17829
1382.71203,0.17621
1384.64050,0.17712
1386.56897,0.18177
1388.49743,0.18404
1390.42590,0.18400
1392.35437,0.18996
1394.28284,0.19911
1396.21131,0.19879
1398.13978,0.19116
1400.06825,0.18430
1401.99672,0.18033
1403.92518,0.18188
1405.85365,0.18487
1407.78212,0.18332
1409.71059,0.18207
1411.63906,0.18247
1413.56753,0.18161
1415.49600,0.18273
1417.42446,0.18823
1419.35293,0.19052
1421.28140,0.18700
1423.20987,0.18546
1425.13834,0.18536
1427.06681,0.18633
1428.99528,0.18823
1430.92375,0.18722
1432.85221,0.18656
1434.78068,0.19116
1436.70915,0.19226
1438.63762,0.18491
1440.56609,0.18125
1442.49456,0.18047
1444.42303,0.17935
1446.35149,0.18142
1448.27996,0.18652
1450.20843,0.18900
1452.13690,0.19032
1454.06537,0.19583
1455.99384,0.20880
1457.92231,0.21544
1459.85077,0.20141
1461.77924,0.19090
1463.70771,0.19140
1465.63618,0.19459
1467.56465,0.19413
1469.49312,0.19694
1471.42159,0.20450
1473.35006,0.20691
1475.27852,0.20009
1477.20699,0.19325
1479.13546,0.19030
1481.06393,0.19034
1482.99240,0.19017
1484.92087,0.19141
1486.84934,0.19699
1488.77780,0.20021
1490.70627,0.19358
1492.63474,0.18913
1494.56321,0.19252
1496.49168,0.19895
1498.42015,0.20029
1500.34862,0.19607
1502.27709,0.19653
1504.20555,0.20942
1506.13402,0.23445
1508.06249,0.23359
1509.99096,0.21115
1511.91943,0.20110
1513.84790,0.20246
1515.77637,0.20928
1517.70483,0.21430
1519.63330,0.21532
1521.56177,0.21243
1523.49024,0.20451
1525.41871,0.20221
1527.34718,0.20347
1529.27565,0.20137
1531.20412,0.20258
1533.13258,0.20935
1535.06105,0.21202
1536.98952,0.21444
1538.91799,0.22600
1540.84646,0.22973
1542.77493,0.21113
1544.70340,0.19838
1546.63186,0.19523
1548.56033,0.19712
1550.48880,0.19971
1552.41727,0.20185
1554.34574,0.20634
1556.27421,0.21701
1558.20268,0.23502
1560.13115,0.22432
1562.05961,0.20077
1563.98808,0.19089
1565.91655,0.19299
1567.84502,0.20271
1569.77349,0.20733
1571.70196,0.20149
1573.63043,0.20058
1575.55889,0.20552
1577.48736,0.20266
1579.41583,0.19461
1581.34430,0.18836
1583.27277,0.18622
1585.20124,0.18802
1587.12971,0.18755
1589.05818,0.18484
1590.98664,0.18403
1592.91511,0.18431
1594.84358,0.18504
1596.77205,0.18679
1598.70052,0.18960
1600.62899,0.19133
1602.55746,0.18896
1604.48592,0.18623
1606.41439,0.18789
1608.34286,0.19159
1610.27133,0.19277
1612.19980,0.19291
1614.12827,0.19753
1616.05674,0.20588
1617.98521,0.20513
1619.91367,0.19919
1621.84214,0.20013
1623.77061,0.20455
1625.69908,0.20536
1627.62755,0.20430
1629.55602,0.20164
1631.48449,0.20095
1633.41295,0.20883
1635.34142,0.22191
1637.26989,0.21642
1639.19836,0.20322
1641.12683,0.19727
1643.05530,0.19716
1644.98377,0.20717
1646.91223,0.22587
1648.84070,0.22805
1650.76917,0.22549
1652.69764,0.23677
1654.62611,0.23574
1656.55458,0.22041
1658.48305,0.21138
1660.41152,0.20756
1662.33998,0.20493
1664.26845,0.20126
1666.19692,0.20296
1668.12539,0.21392
1670.05386,0.22323
1671.98233,0.21994
1673.91080,0.21371
1675.83926,0.20590
1677.76773,0.20133
1679.69620,0.20584
1681.62467,0.21508
1683.55314,0.21969
1685.48161,0.21153
1687.41008,0.20307
1689.33855,0.19931
1691.26701,0.19801
1693.19548,0.20009
1695.12395,0.20875
1697.05242,0.22087
1698.98089,0.22627
1700.90936,0.22286
1702.83783,0.21677
1704.76629,0.21181
1706.69476,0.20700
1708.62323,0.20256
1710.55170,0.19970
1712.48017,0.20193
1714.40864,0.21088
1716.33711,0.21919
1718.26558,0.21345
1720.19404,0.20298
1722.12251,0.19792
1724.05098,0.19619
1725.97945,0.19526
1727.90792,0.19540
1729.83639,0.19719
1731.76486,0.19966
1733.69332,0.20239
1735.62179,0.20176
1737.55026,0.19729
1739.47873,0.19311
1741.40720,0.19261
1743.33567,0.19468
1745.26414,0.19876
1747.19261,0.20567
1749.12107,0.20908
1751.04954,0.20403
1752.97801,0.20022
1754.90648,0.20097
1756.83495,0.20043
1758.76342,0.19757
1760.69189,0.19695
1762.62035,0.19598
1764.54882,0.19174
1766.47729,0.19144
1768.40576,0.19924
1770.33423,0.20923
1772.26270,0.21055
1774.19117,0.20151
1776.11964,0.19532
1778.04810,0.19632
1779.97657,0.19971
1781.90504,0.19974
1783.83351,0.19747
1785.76198,0.19431
1787.69045,0.19209
1789.61892,0.19621
1791.54738,0.20411
1793.47585,0.20367
1795.40432,0.19695
1797.33279,0.19230
1799.26126,0.19113
1801.18973,0.19100
1803.11820,0.18911
1805.04666,0.18796
1806.97513,0.18979
1808.90360,0.19240
1810.83207,0.19183
1812.76054,0.18798
1814.68901,0.18499
1816.61748,0.18600
1818.54595,0.19137
1820.47441,0.19728
1822.40288,0.20042
1824.33135,0.20002
1826.25982,0.19862
1828.18829,0.20004
1830.11676,0.20047
1832.04523,0.19822
1833.97369,0.19798
1835.90216,0.19843
1837.83063,0.19667
1839.75910,0.19552
1841.68757,0.19878
1843.61604,0.20138
1845.54451,0.19523
1847.47298,0.18780
1849.40144,0.18506
1851.32991,0.18435
1853.25838,0.18454
1855.18685,0.18624
1857.11532,0.18850
1859.04379,0.18909
1860.97226,0.18743
1862.90072,0.18714
1864.82919,0.19187
1866.75766,0.19978
1868.68613,0.20328
1870.61460,0.19850
1872.54307,0.19282
1874.47154,0.19102
1876.40001,0.19200
1878.32847,0.19185
1880.25694,0.18948
1882.18541,0.18759
1884.11388,0.18768
1886.04235,0.19057
1887.97082,0.19582
1889.89929,0.19747
1891.82775,0.19320
1893.75622,0.19010
1895.68469,0.19066
1897.61316,0.19088
1899.54163,0.19019
1901.47010,0.19081
1903.39857,0.19145
1905.32704,0.19029
1907.25550,0.18860
1909.18397,0.18905
1911.11244,0.19075
1913.04091,0.19043
1914.96938,0.19029
1916.89785,0.19227
1918.82632,0.19286
1920.75478,0.19160
1922.68325,0.18986
1924.61172,0.18834
1926.54019,0.18875
1928.46866,0.18947
1930.39713,0.18895
1932.32560,0.18873
1934.25407,0.18977
1936.18253,0.19133
1938.11100,0.19261
1940.03947,0.19357
1941.96794,0.19437
1943.89641,0.19512
1945.82488,0.19436
1947.75335,0.19142
1949.68181,0.18983
1951.61028,0.19113
1953.53875,0.19251
1955.46722,0.19304
1957.39569,0.19258
1959.32416,0.19168
1961.25263,0.19358
1963.18110,0.19729
1965.10956,0.20004
1967.03803,0.20056
1968.96650,0.19713
1970.89497,0.19376
1972.82344,0.19288
1974.75191,0.19171
1976.68038,0.18953
1978.60884,0.18716
1980.53731,0.18761
1982.46578,0.19132
1984.39425,0.19267
1986.32272,0.19096
1988.25119,0.19135
1990.17966,0.19424
1992.10812,0.19474
1994.03659,0.19195
1995.96506,0.19018
1997.89353,0.19081
1999.82200,0.19237
2001.75047,0.19390
2003.67894,0.19386
2005.60741,0.19106
2007.53587,0.18794
2009.46434,0.18744
2011.39281,0.18985
2013.32128,0.19413
2015.24975,0.19735
2017.17822,0.19751
2019.10669,0.19624
2021.03515,0.19540
2022.96362,0.19550
2024.89209,0.19528
2026.82056,0.19329
2028.74903,0.19156
2030.67750,0.19271
2032.60597,0.19553
2034.53444,0.19728
2036.46290,0.19675
2038.39137,0.19468
2040.31984,0.19324
2042.24831,0.19226
2044.17678,0.19068
2046.10525,0.18985
2048.03372,0.18979
2049.96218,0.18895
2051.89065,0.18809
2053.81912,0.18949
2055.74759,0.19185
2057.67606,0.19217
2059.60453,0.19225
2061.53300,0.19339
2063.46147,0.19268
2065.38993,0.18980
2067.31840,0.18771
2069.24687,0.18909
2071.17534,0.19183
2073.10381,0.19198
2075.03228,0.19198
2076.96075,0.19402
2078.88921,0.19499
2080.81768,0.19401
2082.74615,0.19385
2084.67462,0.19530
2086.60309,0.19608
2088.53156,0.19428
2090.46003,0.19087
2092.38850,0.19036
2094.31696,0.19409
2096.24543,0.19739
2098.17390,0.19748
2100.10237,0.19572
2102.03084,0.19458
2103.95931,0.19451
2105.88778,0.19432
2107.81624,0.19398
2109.74471,0.19237
2111.67318,0.18979
2113.60165,0.19070
2115.53012,0.19529
2117.45859,0.19861
2119.38706,0.19947
2121.31553,0.20069
2123.24399,0.20268
2125.17246,0.20233
2127.10093,0.19820
2129.02940,0.19390
2130.95787,0.19293
2132.88634,0.19366
2134.81481,0.19371
2136.74327,0.19401
2138.67174,0.19589
2140.60021,0.19796
2142.52868,0.19846
2144.45715,0.19803
2146.38562,0.19761
2148.31409,0.19732
2150.24255,0.19668
2152.17102,0.19524
2154.09949,0.19482
2156.02796,0.19519
2157.95643,0.19401
2159.88490,0.19334
2161.81337,0.19487
2163.74184,0.19569
2165.67030,0.19490
2167.59877,0.19552
2169.52724,0.19682
2171.45571,0.19686
2173.38418,0.19757
2175.31265,0.19804
2177.24112,0.19778
2179.16958,0.19866
2181.09805,0.19920
2183.02652,0.19860
2184.95499,0.19748
2186.88346,0.19591
2188.81193,0.19466
2190.74040,0.19424
2192.66887,0.19435
2194.59733,0.19514
2196.52580,0.19500
2198.45427,0.19258
2200.38274,0.19047
2202.31121,0.19002
2204.23968,0.19056
2206.16815,0.19230
2208.09661,0.19465
2210.02508,0.19569
2211.95355,0.19456
2213.88202,0.19272
2215.81049,0.19218
2217.73896,0.19414
2219.66743,0.19631
2221.59590,0.19535
2223.52436,0.19291
2225.45283,0.19222
2227.38130,0.19265
2229.30977,0.19335
2231.23824,0.19425
2233.16671,0.19495
2235.09518,0.19686
2237.02364,0.19943
2238.95211,0.20015
2240.88058,0.19924
2242.80905,0.19862
2244.73752,0.19942
2246.66599,0.20024
2248.59446,0.19976
2250.52293,0.19888
2252.45139,0.19897
2254.37986,0.19842
2256.30833,0.19527
2258.23680,0.19215
2260.16527,0.19100
2262.09374,0.19090
2264.02221,0.19217
2265.95067,0.19462
2267.87914,0.19585
2269.80761,0.19448
2271.73608,0.19277
2273.66455,0.19262
2275.59302,0.19267
2277.52149,0.19210
2279.44996,0.19130
2281.37842,0.19064
2283.30689,0.19082
2285.23536,0.19079
2287.16383,0.19039
2289.09230,0.19192
2291.02077,0.19387
2292.94924,0.19407
2294.87770,0.19598
2296.80617,0.19913
2298.73464,0.19804
2300.66311,0.19350
2302.59158,0.18957
2304.52005,0.18677
2306.44852,0.18413
2308.37699,0.18179
2310.30545,0.17963
2312.23392,0.17908
2314.16239,0.18380
2316.09086,0.18988
2318.01933,0.18903
2319.94780,0.18523
2321.87627,0.18653
2323.80473,0.18890
2325.73320,0.18822
2327.66167,0.18082
2329.59014,0.16519
2331.51861,0.15782
2333.44708,0.16636
2335.37555,0.17570
2337.30401,0.18234
2339.23248,0.18707
2341.16095,0.18106
2343.08942,0.17460
2345.01789,0.18253
2346.94636,0.19130
2348.87483,0.18866
2350.80330,0.17495
2352.73176,0.15672
2354.66023,0.15094
2356.58870,0.16378
2358.51717,0.18184
2360.44564,0.19173
2362.37411,0.18642
2364.30258,0.17870
2366.23104,0.18427
2368.15951,0.19139
2370.08798,0.18718
2372.01645,0.18176
2373.94492,0.18400
2375.87339,0.18985
2377.80186,0.19451
2379.73033,0.19589
2381.65879,0.19493
2383.58726,0.19422
2385.51573,0.19443
2387.44420,0.19590
2389.37267,0.19888
2391.30114,0.20021
2393.22961,0.19772
2395.15807,0.19594
2397.08654,0.19807
2399.01501,0.19920
2400.94348,0.19584
2402.87195,0.19251
2404.80042,0.19266
2406.72889,0.19482
2408.65736,0.19714
2410.58582,0.19683
2412.51429,0.19492
2414.44276,0.19593
2416.37123,0.19711
2418.29970,0.19470
2420.22817,0.19272
2422.15664,0.19259
2424.08510,0.19243
2426.01357,0.19401
2427.94204,0.19635
2429.87051,0.19684
2431.79898,0.19660
2433.72745,0.19644
2435.65592,0.19634
2437.58439,0.19584
2439.51285,0.19405
2441.44132,0.19234
2443.36979,0.19297
2445.29826,0.19645
2447.22673,0.20047
2449.15520,0.20145
2451.08367,0.19975
2453.01213,0.19899
2454.94060,0.20008
2456.86907,0.20096
2458.79754,0.20013
2460.72601,0.19903
2462.65448,0.19978
2464.58295,0.20135
2466.51142,0.20159
2468.43988,0.19889
2470.36835,0.19541
2472.29682,0.19497
2474.22529,0.19535
2476.15376,0.19536
2478.08223,0.19721
2480.01070,0.19963
2481.93916,0.20095
2483.86763,0.20121
2485.79610,0.20072
2487.72457,0.19980
2489.65304,0.19932
2491.58151,0.19990
2493.50998,0.20075
2495.43844,0.20047
2497.36691,0.19931
2499.29538,0.19877
2501.22385,0.19819
2503.15232,0.19678
2505.08079,0.19664
2507.00926,0.19808
2508.93773,0.19779
2510.86619,0.19646
2512.79466,0.19694
2514.72313,0.19780
2516.65160,0.19782
2518.58007,0.19801
2520.50854,0.19953
2522.43701,0.20137
2524.36547,0.20112
2526.29394,0.19997
2528.22241,0.19957
2530.15088,0.19768
2532.07935,0.19428
2534.00782,0.19283
2535.93629,0.19474
2537.86476,0.19902
2539.79322,0.20156
2541.72169,0.19966
2543.65016,0.19744
2545.57863,0.19910
2547.50710,0.20130
2549.43557,0.19975
2551.36404,0.19805
2553.29250,0.19887
2555.22097,0.20049
2557.14944,0.20318
2559.07791,0.20424
2561.00638,0.20041
2562.93485,0.19505
2564.86332,0.19185
2566.79179,0.19225
2568.72025,0.19589
2570.64872,0.19839
2572.57719,0.19703
2574.50566,0.19572
2576.43413,0.19698
2578.36260,0.19775
2580.29107,0.19870
2582.21953,0.20235
2584.14800,0.20534
2586.07647,0.20520
2588.00494,0.20374
2589.93341,0.20206
2591.86188,0.20155
2593.79035,0.20302
2595.71882,0.20340
2597.64728,0.20130
2599.57575,0.19865
2601.50422,0.19751
2603.43269,0.19884
2605.36116,0.19991
2607.28963,0.19859
2609.21810,0.19781
2611.14656,0.19915
2613.07503,0.19931
2615.00350,0.19867
2616.93197,0.19957
2618.86044,0.20007
2620.78891,0.19984
2622.71738,0.19954
2624.64585,0.19942
2626.57431,0.20127
2628.50278,0.20441
2630.43125,0.20515
2632.35972,0.20232
2634.28819,0.19880
2636.21666,0.19755
2638.14513,0.19916
2640.07359,0.20142
2642.00206,0.20356
2643.93053,0.20505
2645.85900,0.20368
2647.78747,0.20092
2649.71594,0.19989
2651.64441,0.20023
2653.57288,0.19977
2655.50134,0.19893
2657.42981,0.19905
2659.35828,0.20126
2661.28675,0.20645
2663.21522,0.21017
2665.14369,0.20685
2667.07216,0.20075
2669.00062,0.20067
2670.92909,0.20532
2672.85756,0.20791
2674.78603,0.20824
2676.71450,0.20875
2678.64297,0.20768
2680.57144,0.20414
2682.49990,0.20261
2684.42837,0.20415
2686.35684,0.20558
2688.28531,0.20597
2690.21378,0.20609
2692.14225,0.20748
2694.07072,0.20826
2695.99919,0.20514
2697.92765,0.20173
2699.85612,0.20225
2701.78459,0.20438
2703.71306,0.20573
2705.64153,0.20637
2707.57000,0.20719
2709.49847,0.20818
2711.42693,0.20832
2713.35540,0.20854
2715.28387,0.20896
2717.21234,0.20924
2719.14081,0.20948
2721.06928,0.20850
2722.99775,0.20712
2724.92622,0.20712
2726.85468,0.20832
2728.78315,0.21051
2730.71162,0.21339
2732.64009,0.21534
2734.56856,0.21555
2736.49703,0.21300
2738.42550,0.20900
2740.35396,0.20856
2742.28243,0.21247
2744.21090,0.21629
2746.13937,0.21551
2748.06784,0.21198
2749.99631,0.21144
2751.92478,0.21369
2753.85325,0.21445
2755.78171,0.21294
2757.71018,0.21152
2759.63865,0.21122
2761.56712,0.21146
2763.49559,0.21113
2765.42406,0.20964
2767.35253,0.20853
2769.28099,0.20928
2771.20946,0.21163
2773.13793,0.21361
2775.06640,0.21352
2776.99487,0.21301
2778.92334,0.21346
2780.85181,0.21192
2782.78028,0.20896
2784.70874,0.20901
2786.63721,0.21076
2788.56568,0.21154
2790.49415,0.21334
2792.42262,0.21544
2794.35109,0.21254
2796.27956,0.20688
2798.20802,0.20588
2800.13649,0.20738
2802.06496,0.20849
2803.99343,0.21270
2805.92190,0.21732
2807.85037,0.21817
2809.77884,0.21834
2811.70731,0.21746
2813.63577,0.21270
2815.56424,0.20892
2817.49271,0.20991
2819.42118,0.21132
2821.34965,0.21112
2823.27812,0.21307
2825.20659,0.21632
2827.13505,0.21750
2829.06352,0.21735
2830.99199,0.21655
2832.92046,0.21511
2834.84893,0.21395
2836.77740,0.21317
2838.70587,0.21117
2840.63433,0.20807
2842.56280,0.20743
2844.49127,0.21067
2846.41974,0.21355
2848.34821,0.21135
2850.27668,0.20808
2852.20515,0.21100
2854.13362,0.21650
2856.06208,0.21639
2857.99055,0.21352
2859.91902,0.21537
2861.84749,0.21844
2863.77596,0.21801
2865.70443,0.21726
2867.63290,0.21546
2869.56136,0.21156
2871.48983,0.21161
2873.41830,0.21606
2875.34677,0.21820
2877.27524,0.21643
2879.20371,0.21482
2881.13218,0.21439
2883.06065,0.21359
2884.98911,0.21414
2886.91758,0.21530
2888.84605,0.21515
2890.77452,0.21566
2892.70299,0.21683
2894.63146,0.21678
2896.55993,0.21532
2898.48839,0.21439
2900.41686,0.21369
2902.34533,0.21147
2904.27380,0.21081
2906.20227,0.21321
2908.13074,0.21556
2910.05921,0.21686
2911.98768,0.21908
2913.91614,0.22081
2915.84461,0.21897
2917.77308,0.21510
2919.70155,0.21185
2921.63002,0.21191
2923.55849,0.21551
2925.48696,0.21792
2927.41542,0.21821
2929.34389,0.21996
2931.27236,0.22074
2933.20083,0.21471
2935.12930,0.20760
2937.05777,0.20865
2938.98624,0.21379
2940.91471,0.21573
2942.84317,0.21413
2944.77164,0.21363
2946.70011,0.21762
2948.62858,0.22137
2950.55705,0.21959
2952.48552,0.21552
2954.41399,0.21375
2956.34245,0.21291
2958.27092,0.21239
2960.19939,0.21526
2962.12786,0.22088
2964.05633,0.22402
2965.98480,0.21923
2967.91327,0.20953
2969.84174,0.20559
2971.77020,0.21117
2973.69867,0.22043
2975.62714,0.22411
2977.55561,0.22016
2979.48408,0.21856
2981.41255,0.22124
2983.34102,0.21974
2985.26948,0.21621
2987.19795,0.21698
2989.12642,0.22176
2991.05489,0.22713
2992.98336,0.22847
2994.91183,0.22675
2996.84030,0.22601
2998.76877,0.22576
3000.69723,0.22533
3002.62570,0.22551
3004.55417,0.22522
3006.48264,0.22234
3008.41111,0.21812
3010.33958,0.21650
3012.26805,0.21733
3014.19651,0.21978
3016.12498,0.22540
3018.05345,0.22932
3019.98192,0.22683
3021.91039,0.22315
3023.83886,0.22273
3025.76733,0.22386
3027.69579,0.22634
3029.62426,0.23051
3031.55273,0.23151
3033.48120,0.22689
3035.40967,0.22162
3037.33814,0.22043
3039.26661,0.22412
3041.19508,0.22913
3043.12354,0.23000
3045.05201,0.22715
3046.98048,0.22525
3048.90895,0.22467
3050.83742,0.22586
3052.76589,0.22910
3054.69436,0.22959
3056.62282,0.22672
3058.55129,0.22639
3060.47976,0.22796
3062.40823,0.22437
3064.33670,0.21816
3066.26517,0.21810
3068.19364,0.22269
3070.12211,0.22179
3072.05057,0.21414
3073.97904,0.21078
3075.90751,0.21521
3077.83598,0.22166
3079.76445,0.22607
3081.69292,0.22558
3083.62139,0.22180
3085.54985,0.22009
3087.47832,0.22015
3089.40679,0.21989
3091.33526,0.22115
3093.26373,0.21907
3095.19220,0.21126
3097.12067,0.20778
3099.04914,0.21178
3100.97760,0.21528
3102.90607,0.21555
3104.83454,0.21892
3106.76301,0.22516
3108.69148,0.22802
3110.61995,0.22749
3112.54842,0.22471
3114.47688,0.22111
3116.40535,0.22057
3118.33382,0.22230
3120.26229,0.22186
3122.19076,0.22025
3124.11923,0.22104
3126.04770,0.22302
3127.97617,0.22409
3129.90463,0.22500
3131.83310,0.22652
3133.76157,0.22764
3135.69004,0.22807
3137.61851,0.22781
3139.54698,0.22642
3141.47545,0.22317
3143.40391,0.22031
3145.33238,0.22344
3147.26085,0.22831
3149.18932,0.22718
3151.11779,0.22429
3153.04626,0.22253
3154.97473,0.22067
3156.90320,0.22179
3158.83166,0.22339
3160.76013,0.22197
3162.68860,0.22258
3164.61707,0.22563
3166.54554,0.22505
3168.47401,0.22105
3170.40248,0.21986
3172.33094,0.22475
3174.25941,0.23273
3176.18788,0.23675
3178.11635,0.23443
3180.04482,0.23319
3181.97329,0.23647
3183.90176,0.23940
3185.83022,0.24159
3187.75869,0.24270
3189.68716,0.23973
3191.61563,0.23708
3193.54410,0.23684
3195.47257,0.23377
3197.40104,0.22888
3199.32951,0.22473
3201.25797,0.22101
3203.18644,0.22046
3205.11491,0.22240
3207.04338,0.22514
3208.97185,0.22771
3210.90032,0.22672
3212.82879,0.22705
3214.75725,0.23035
3216.68572,0.22766
3218.61419,0.22169
3220.54266,0.22069
3222.47113,0.22391
3224.39960,0.22848
3226.32807,0.23218
3228.25654,0.23142
3230.18500,0.22544
3232.11347,0.21937
3234.04194,0.21964
3235.97041,0.22628
3237.89888,0.23022
3239.82735,0.22711
3241.75582,0.22295
3243.68428,0.22258
3245.61275,0.22619
3247.54122,0.23062
3249.46969,0.23177
3251.39816,0.22732
3253.32663,0.22152
3255.25510,0.22162
3257.18357,0.22500
3259.11203,0.22507
3261.04050,0.22433
3262.96897,0.22644
3264.89744,0.22744
3266.82591,0.22538
3268.75438,0.22227
3270.68285,0.21937
3272.61131,0.21947
3274.53978,0.22210
3276.46825,0.22352
3278.39672,0.22539
3280.32519,0.22990
3282.25366,0.23239
3284.18213,0.23106
3286.11060,0.22937
3288.03906,0.22637
3289.96753,0.22041
3291.89600,0.21641
3293.82447,0.21730
3295.75294,0.21964
3297.68141,0.22167
3299.60988,0.22160
3301.53834,0.21850
3303.46681,0.21601
3305.39528,0.21727
3307.32375,0.22070
3309.25222,0.22071
3311.18069,0.21676
3313.10916,0.21625
3315.03763,0.22126
3316.96609,0.22386
3318.89456,0.22211
3320.82303,0.22290
3322.75150,0.22576
3324.67997,0.22649
3326.60844,0.22596
3328.53691,0.22615
3330.46537,0.22813
3332.39384,0.23266
3334.32231,0.23896
3336.25078,0.24222
3338.17925,0.23884
3340.10772,0.23215
3342.03619,0.22716
3343.96466,0.22614
3345.89312,0.22697
3347.82159,0.22538
3349.75006,0.22450
3351.67853,0.22631
3353.60700,0.22546
3355.53547,0.22419
3357.46394,0.22562
3359.39240,0.22553
3361.32087,0.22429
3363.24934,0.22474
3365.17781,0.22580
3367.10628,0.22815
3369.03475,0.23093
3370.96322,0.22860
3372.89168,0.22299
3374.82015,0.22129
3376.74862,0.22304
3378.67709,0.22406
3380.60556,0.22510
3382.53403,0.22678
3384.46250,0.22602
3386.39097,0.22583
3388.31943,0.22909
3390.24790,0.22853
3392.17637,0.22178
3394.10484,0.21632
3396.03331,0.21659
3397.96178,0.22096
3399.89025,0.22406
3401.81871,0.22155
3403.74718,0.21964
3405.67565,0.22523
3407.60412,0.23071
3409.53259,0.22974
3411.46106,0.22677
3413.38953,0.22322
3415.31800,0.22015
3417.24646,0.22031
3419.17493,0.21995
3421.10340,0.21617
3423.03187,0.21379
3424.96034,0.21450
3426.88881,0.21468
3428.81728,0.21535
3430.74574,0.21638
3432.67421,0.21187
3434.60268,0.20508
3436.53115,0.20454
3438.45962,0.20880
3440.38809,0.21675
3442.31656,0.22694
3444.24503,0.22798
3446.17349,0.21773
3448.10196,0.20696
3450.03043,0.20319
3451.95890,0.20348
3453.88737,0.19976
3455.81584,0.19434
3457.74431,0.19803
3459.67277,0.21049
3461.60124,0.21664
3463.52971,0.20979
3465.45818,0.20389
3467.38665,0.20679
3469.31512,0.20937
3471.24359,0.20541
3473.17206,0.20089
3475.10052,0.20154
3477.02899,0.20247
3478.95746,0.20091
3480.88593,0.20426
3482.81440,0.21110
3484.74287,0.21207
3486.67134,0.20893
3488.59980,0.20528
3490.52827,0.19903
3492.45674,0.19010
3494.38521,0.18530
3496.31368,0.18872
3498.24215,0.19383
3500.17062,0.19704
3502.09909,0.19977
3504.02755,0.19924
3505.95602,0.19614
3507.88449,0.19624
3509.81296,0.19733
3511.74143,0.19479
3513.66990,0.19116
3515.59837,0.18946
3517.52683,0.19015
3519.45530,0.19109
3521.38377,0.19185
3523.31224,0.19213
3525.24071,0.18867
3527.16918,0.18594
3529.09765,0.18987
3531.02611,0.19323
3532.95458,0.18923
3534.88305,0.18436
3536.81152,0.18544
3538.73999,0.18942
3540.66846,0.19106
3542.59693,0.19005
3544.52540,0.19061
3546.45386,0.19375
3548.38233,0.19389
3550.31080,0.19109
3552.23927,0.18678
3554.16774,0.17945
3556.09621,0.17075
3558.02468,0.16494
3559.95314,0.16674
3561.88161,0.17463
3563.81008,0.18424
3565.73855,0.18876
3567.66702,0.17850
3569.59549,0.16753
3571.52396,0.16627
3573.45243,0.16841
3575.38089,0.17099
3577.30936,0.17384
3579.23783,0.17422
3581.16630,0.17151
3583.09477,0.17077
3585.02324,0.17291
3586.95171,0.17222
3588.88017,0.16258
3590.80864,0.15557
3592.73711,0.15956
3594.66558,0.16525
3596.59405,0.16591
3598.52252,0.16566
3600.45099,0.16339
3602.37946,0.15934
3604.30792,0.16064
3606.23639,0.16790
3608.16486,0.17094
3610.09333,0.16535
3612.02180,0.16093
3613.95027,0.16195
3615.87874,0.16716
3617.80720,0.17355
3619.73567,0.17152
3621.66414,0.16199
3623.59261,0.15892
3625.52108,0.16482
3627.44955,0.17351
3629.37802,0.16891
3631.30649,0.15801
3633.23495,0.15794
3635.16342,0.15953
3637.09189,0.15602
3639.02036,0.15134
3640.94883,0.14971
3642.87730,0.15195
3644.80577,0.15793
3646.73423,0.16741
3648.66270,0.17564
3650.59117,0.17178
3652.51964,0.16281
3654.44811,0.15799
3656.37658,0.15572
3658.30505,0.15195
3660.23352,0.14694
3662.16198,0.14378
3664.09045,0.14485
3666.01892,0.14861
3667.94739,0.15209
3669.87586,0.15156
3671.80433,0.14815
3673.73280,0.14794
3675.66126,0.14729
3677.58973,0.14456
3679.51820,0.14400
3681.44667,0.14375
3683.37514,0.14515
3685.30361,0.15026
3687.23208,0.15419
3689.16055,0.15038
3691.08901,0.14383
3693.01748,0.14158
3694.94595,0.14135
3696.87442,0.14123
3698.80289,0.14093
3700.73136,0.13951
3702.65983,0.13690
3704.58829,0.13736
3706.51676,0.14231
3708.44523,0.14962
3710.37370,0.15586
3712.30217,0.15296
3714.23064,0.14285
3716.15911,0.13546
3718.08757,0.13440
3720.01604,0.14016
3721.94451,0.14669
3723.87298,0.14910
3725.80145,0.15000
3727.72992,0.14766
3729.65839,0.14314
3731.58686,0.14438
3733.51532,0.15237
3735.44379,0.15271
3737.37226,0.14167
3739.30073,0.13670
3741.22920,0.14232
3743.15767,0.15319
3745.08614,0.16015
3747.01460,0.16015
3748.94307,0.16190
3750.87154,0.16611
3752.80001,0.16317
3754.72848,0.15454
3756.65695,0.14780
3758.58542,0.14516
3760.51389,0.14361
3762.44235,0.14282
3764.37082,0.14418
3766.29929,0.14629
3768.22776,0.15008
3770.15623,0.15351
3772.08470,0.14809
3774.01317,0.13878
3775.94163,0.13613
3777.87010,0.14064
3779.79857,0.14302
3781.72704,0.13788
3783.65551,0.13313
3785.58398,0.13295
3787.51245,0.13325
3789.44092,0.13291
3791.36938,0.13335
3793.29785,0.13477
3795.22632,0.13681
3797.15479,0.14126
3799.08326,0.14953
3801.01173,0.15439
3802.94020,0.14962
3804.86866,0.14675
3806.79713,0.14670
3808.72560,0.14011
3810.65407,0.13275
3812.58254,0.13079
3814.51101,0.13091
3816.43948,0.13361
3818.36795,0.14105
3820.29641,0.14483
3822.22488,0.13958
3824.15335,0.13476
3826.08182,0.13318
3828.01029,0.13548
3829.93876,0.14047
3831.86723,0.14212
3833.79569,0.14190
3835.72416,0.14525
3837.65263,0.14807
3839.58110,0.14483
3841.50957,0.14201
3843.43804,0.14097
3845.36651,0.13859
3847.29498,0.13589
3849.22344,0.13354
3851.15191,0.13242
3853.08038,0.12838
3855.00885,0.11978
3856.93732,0.11880
3858.86579,0.12093
3860.79426,0.12399
3862.72272,0.12568
3864.65119,0.12556
3866.57966,0.13507
3868.50813,0.14922
3870.43660,0.14755
3872.36507,0.13433
3874.29354,0.12991
3876.22200,0.13280
3878.15047,0.13817
3880.07894,0.14222
3882.00741,0.13854
3883.93588,0.13333
3885.86435,0.12939
3887.79282,0.12655
3889.72129,0.12931
3891.64975,0.13148
3893.57822,0.12392
3895.50669,0.11821
3897.43516,0.12357
3899.36363,0.13309
3901.29210,0.13702
3903.22057,0.13726
3905.14903,0.13175
3907.07750,0.12103
3909.00597,0.11399
3910.93444,0.11440
3912.86291,0.11797
3914.79138,0.12073
3916.71985,0.12382
3918.64832,0.12707
3920.57678,0.12782
3922.50525,0.12615
3924.43372,0.12456
3926.36219,0.12454
3928.29066,0.12575
3930.21913,0.12472
3932.14760,0.12082
3934.07606,0.11879
3936.00453,0.11798
3937.93300,0.11600
3939.86147,0.11425
3941.78994,0.11677
3943.71841,0.12107
3945.64688,0.11789
3947.57535,0.11182
3949.50381,0.11295
3951.43228,0.11653
3953.36075,0.11641
3955.28922,0.11743
3957.21769,0.12005
3959.14616,0.12029
3961.07463,0.11812
3963.00309,0.11317
3964.93156,0.11009
3966.86003,0.11448
3968.78850,0.11893
3970.71697,0.11798
3972.64544,0.11943
3974.57391,0.12314
3976.50238,0.12241
3978.43084,0.12150
3980.35931,0.11989
3982.28778,0.11404
3984.21625,0.11245
3986.14472,0.11609
3988.07319,0.11583
3990.00166,0.11203
3991.93012,0.11182
3993.85859,0.11588
3995.78706,0.11785
3997.71553,0.11503
3999.64400,0.11266
4001.57247,0.11248
4003.50094,0.11210
4005.42941,0.11377
4007.35787,0.11507
4009.28634,0.11239
4011.21481,0.11183
4013.14328,0.11424
4015.07175,0.11300
4017.00022,0.10857
4018.92869,0.10729
4020.85715,0.11086
4022.78562,0.11478
4024.71409,0.11508
4026.64256,0.10986
4028.57103,0.10178
4030.49950,0.09672
4032.42797,0.09511
4034.35644,0.09486
4036.28490,0.09638
4038.21337,0.10077
4040.14184,0.10758
4042.07031,0.11225
4043.99878,0.11226
4045.92725,0.10827
4047.85572,0.10218
4049.78418,0.10093
4051.71265,0.10562
4053.64112,0.10772
4055.56959,0.10335
4057.49806,0.09636
4059.42653,0.09086
4061.35500,0.08661
4063.28346,0.08487
4065.21193,0.09075
4067.14040,0.10210
4069.06887,0.11096
4070.99734,0.11118
4072.92581,0.10385
4074.85428,0.09815
4076.78275,0.09621
4078.71121,0.09275
4080.63968,0.08868
4082.56815,0.08961
4084.49662,0.09520
4086.42509,0.09870
4088.35356,0.09705
4090.28203,0.09453
4092.21049,0.09841
4094.13896,0.10471
4096.06743,0.10287
4097.99590,0.09877
4099.92437,0.09981
4101.85284,0.09872
4103.78131,0.09119
4105.70978,0.08364
4107.63824,0.08116
4109.56671,0.08327
4111.49518,0.08857
4113.42365,0.09063
4115.35212,0.08661
4117.28059,0.08558
4119.20906,0.08948
4121.13752,0.09170
4123.06599,0.09090
4124.99446,0.08929
4126.92293,0.08816
4128.85140,0.08645
4130.77987,0.08562
4132.70834,0.08859
4134.63681,0.09007
4136.56527,0.08457
4138.49374,0.08151
4140.42221,0.08947
4142.35068,0.09639
4144.27915,0.09288
4146.20762,0.08812
4148.13609,0.08601
4150.06455,0.08158
4151.99302,0.07740
4153.92149,0.07812
4155.84996,0.08175
4157.77843,0.08433
4159.70690,0.08356
4161.63537,0.08106
4163.56384,0.08351
4165.49230,0.09286
4167.42077,0.10017
4169.34924,0.09723
4171.27771,0.08536
4173.20618,0.07296
4175.13465,0.06766
4177.06312,0.06855
4178.99158,0.07024
4180.92005,0.07249
4182.84852,0.07827
4184.77699,0.08517
4186.70546,0.08667
4188.63393,0.08175
4190.56240,0.07602
4192.49087,0.07319
4194.41933,0.07599
4196.34780,0.08548
4198.27627,0.09281
4200.20474,0.09018
4202.13321,0.08413
4204.06168,0.08217
4205.99015,0.08082
4207.91861,0.07458
4209.84708,0.06612
4211.77555,0.06618
4213.70402,0.07788
4215.63249,0.08755
4217.56096,0.08581
4219.48943,0.08050
4221.41789,0.07941
4223.34636,0.07679
4225.27483,0.07072
4227.20330,0.06902
4229.13177,0.06962
4231.06024,0.07044
4232.98871,0.07662
4234.91718,0.08339
4236.84564,0.07957
4238.77411,0.07048
4240.70258,0.07186
4242.63105,0.07877
4244.55952,0.07707
4246.48799,0.07113
4248.41646,0.06993
4250.34492,0.07342
4252.27339,0.07946
4254.20186,0.08176
4256.13033,0.07662
4258.05880,0.07075
4259.98727,0.06909
4261.91574,0.06839
4263.84421,0.06682
4265.77267,0.06886
4267.70114,0.07102
4269.62961,0.06833
4271.55808,0.06782
4273.48655,0.07153
4275.41502,0.07165
4277.34349,0.06669
4279.27195,0.06331
4281.20042,0.06273
4283.12889,0.05989
4285.05736,0.05451
4286.98583,0.05319
4288.91430,0.05529
4290.84277,0.05322
4292.77124,0.05192
4294.69970,0.05905
4296.62817,0.06726
4298.55664,0.06801
4300.48511,0.06768
4302.41358,0.07204
4304.34205,0.07396
4306.27052,0.07057
4308.19898,0.06595
4310.12745,0.05975
4312.05592,0.05291
4313.98439,0.04951
4315.91286,0.04768
4317.84133,0.04679
4319.76980,0.05208
4321.69827,0.06298
4323.62673,0.06897
4325.55520,0.06272
4327.48367,0.05164
4329.41214,0.04671
4331.34061,0.05076
4333.26908,0.05635
4335.19755,0.05565
4337.12601,0.05243
4339.05448,0.04951
4340.98295,0.04509
4342.91142,0.04395
4344.83989,0.04887
4346.76836,0.05280
4348.69683,0.05099
4350.62530,0.04765
4352.55376,0.04779
4354.48223,0.05316
4356.41070,0.05974
4358.33917,0.05790
4360.26764,0.04956
4362.19611,0.04420
4364.12458,0.04137
4366.05304,0.04072
4367.98151,0.04243
4369.90998,0.04264
4371.83845,0.04512
4373.76692,0.05255
4375.69539,0.05557
4377.62386,0.05172
4379.55232,0.05063
4381.48079,0.04952
4383.40926,0.04093
4385.33773,0.03139
4387.26620,0.02835
4389.19467,0.03178
4391.12314,0.03618
4393.05161,0.03629
4394.98007,0.03673
4396.90854,0.04103
4398.83701,0.04139
4400.76548,0.03611
4402.69395,0.03323
4404.62242,0.03458
4406.55089,0.03260
4408.47935,0.02556
4410.40782,0.02439
4412.33629,0.03056
4414.26476,0.03652
4416.19323,0.04020
4418.12170,0.03730
4420.05017,0.02886
4421.97864,0.02295
4423.90710,0.02340
4425.83557,0.02801
4427.76404,0.03242
4429.69251,0.03580
4431.62098,0.03525
4433.54945,0.03112
4435.47792,0.02908
4437.40638,0.02815
4439.33485,0.02629
4441.26332,0.02349
4443.19179,0.02087
4445.12026,0.02143
4447.04873,0.02546
4448.97720,0.03184
4450.90567,0.03875
4452.83413,0.03897
4454.76260,0.03354
4456.69107,0.03365
4458.61954,0.03283
4460.54801,0.02250
4462.47648,0.01643
4464.40495,0.02043
4466.33341,0.02370
4468.26188,0.02586
4470.19035,0.03100
4472.11882,0.03336
4474.04729,0.03447
4475.97576,0.03676
4477.90423,0.03344
4479.83270,0.02805
4481.76116,0.02602
4483.68963,0.02284
4485.61810,0.01895
4487.54657,0.02206
4489.47504,0.02880
4491.40351,0.02996
4493.33198,0.02764
4495.26044,0.02303
4497.18891,0.01519
4499.11738,0.00983
4501.04585,0.00930
4502.97432,0.01049
4504.90279,0.01107
4506.83126,0.01294
4508.75973,0.01524
4510.68819,0.01801
4512.61666,0.02754
4514.54513,0.03809
4516.47360,0.03791
4518.40207,0.02800
4520.33054,0.01918
4522.25901,0.01704
4524.18747,0.01472
4526.11594,0.01128
4528.04441,0.01065
4529.97288,0.01111
4531.90135,0.01197
4533.82982,0.01283
4535.75829,0.01124
4537.68676,0.00830
4539.61522,0.00833
4541.54369,0.00939
4543.47216,0.00916
4545.40063,0.00841
4547.32910,0.00821
4549.25757,0.01628
4551.18604,0.02835
4553.11450,0.03097
4555.04297,0.03048
4556.97144,0.03073
4558.89991,0.02365
4560.82838,0.01098
4562.75685,-0.00331
4564.68532,-0.00922
4566.61378,0.00029
4568.54225,0.00713
4570.47072,0.00120
4572.39919,-0.00407
4574.32766,-0.00227
4576.25613,0.00363
4578.18460,0.01150
4580.11307,0.01671
4582.04153,0.01927
4583.97000,0.02062
4585.89847,0.01354
4587.82694,0.00228
4589.75541,0.00272
4591.68388,0.01058
4593.61235,0.01106
4595.54081,0.00557
4597.46928,0.00202
4599.39775,0.00367
4601.32622,0.00988
4603.25469,0.01320
4605.18316,0.01002
4607.11163,0.00901
4609.04010,0.01043
4610.96856,0.00686
4612.89703,0.00202
4614.82550,-0.00072
4616.75397,-0.00395
4618.68244,-0.00157
4620.61091,0.01023
4622.53938,0.01926
4624.46784,0.01610
4626.39631,0.00162
4628.32478,-0.01278
4630.25325,-0.01145
4632.18172,0.00169
4634.11019,0.01384
4636.03866,0.02120
4637.96713,0.02298
4639.89559,0.02181
4641.82406,0.01893
4643.75253,0.01335
4645.68100,0.00971
4647.60947,0.01285
4649.53794,0.01739
4651.46641,0.01590
4653.39487,0.01396
4655.32334,0.01765
4657.25181,0.01788
4659.18028,0.00860
4661.10875,0.00179
4663.03722,0.00696
4664.96569,0.01851
4666.89416,0.02605
4668.82262,0.02157
4670.75109,0.00800
4672.67956,-0.00030
4674.60803,0.00210
4676.53650,0.00720
4678.46497,0.00904
4680.39344,0.00816
4682.32190,0.00501
4684.25037,-0.00138
4686.17884,-0.00451
4688.10731,0.00132
4690.03578,0.00482
4691.96425,-0.00276
4693.89272,-0.01197
4695.82119,-0.01031
4697.74965,0.00258
4699.67812,0.01684
4701.60659,0.02535
4703.53506,0.02828
4705.46353,0.02891
4707.39200,0.02334
4709.32047,0.01190
4711.24893,0.01359
4713.17740,0.02559
4715.10587,0.02207
4717.03434,0.00828
4718.96281,0.00297
4720.89128,0.00079
4722.81975,-0.00178
4724.74821,0.00598
4726.67668,0.01874
4728.60515,0.02010
4730.53362,0.00856
4732.46209,-0.00326
4734.39056,-0.00335
4736.31903,0.00198
4738.24750,0.00416
4740.17596,0.00865
4742.10443,0.01454
4744.03290,0.01467
4745.96137,0.00923
4747.88984,0.00113
4749.81831,-0.00807
4751.74678,-0.01421
4753.67524,-0.00839
4755.60371,0.00758
4757.53218,0.01425
4759.46065,0.00556
4761.38912,-0.00311
4763.31759,-0.00312
4765.24606,-0.00370
4767.17453,-0.00685
4769.10299,-0.00278
4771.03146,0.00638
4772.95993,0.01336
4774.88840,0.01517
4776.81687,0.01172
4778.74534,0.00598
4780.67381,-0.00274
4782.60227,-0.00648
4784.53074,0.00308
4786.45921,0.01122
4788.38768,0.00872
4790.31615,0.00346
4792.24462,-0.00190
4794.17309,-0.00793
4796.10156,-0.01212
4798.03002,-0.01234
4799.95849,-0.00926
4801.88696,-0.00880
4803.81543,-0.00976
4805.74390,-0.00035
4807.67237,0.01598
4809.60084,0.02657
4811.52930,0.03276
4813.45777,0.03329
4815.38624,0.02188
4817.31471,0.00996
4819.24318,0.01023
4821.17165,0.01567
4823.10012,0.01431
4825.02859,0.00926
4826.95705,0.01159
4828.88552,0.01524
4830.81399,0.01603
4832.74246,0.01921
4834.67093,0.01436
4836.59940,-0.00045
4838.52787,-0.00880
4840.45633,-0.00462
4842.38480,0.00286
4844.31327,0.00316
4846.24174,-0.00306
4848.17021,-0.00534
4850.09868,0.00224
4852.02715,0.00663
4853.95562,-0.00374
4855.88408,-0.01454
4857.81255,-0.01383
4859.74102,-0.00638
4861.66949,0.00046
4863.59796,-0.00018
4865.52643,-0.00574
4867.45490,-0.00693
4869.38336,-0.00088
4871.31183,0.01037
4873.24030,0.01381
4875.16877,0.00522
4877.09724,0.00460
4879.02571,0.00941
4880.95418,0.00488
4882.88265,0.00222
4884.81111,0.00573
4886.73958,0.00803
4888.66805,0.01227
4890.59652,0.02185
4892.52499,0.03160
4894.45346,0.03117
4896.38193,0.01692
4898.31039,0.00144
4900.23886,0.00108
4902.16733,0.01385
4904.09580,0.02315
4906.02427,0.02382
4907.95274,0.02119
4909.88121,0.01181
4911.80967,0.00042
4913.73814,-0.00499
4915.66661,-0.00744
4917.59508,-0.00323
4919.52355,0.00408
4921.45202,0.00309
4923.38049,-0.00126
4925.30896,0.00077
4927.23742,0.00524
4929.16589,0.00421
4931.09436,0.00020
4933.02283,-0.00419
4934.95130,-0.00910
4936.87977,-0.00960
4938.80824,-0.00179
4940.73670,0.01034
4942.66517,0.01789
4944.59364,0.01882
4946.52211,0.01385
4948.45058,0.00292
4950.37905,-0.00537
4952.30752,-0.00666
4954.23599,-0.00380
4956.16445,0.00286
4958.09292,0.00777
4960.02139,0.00883
4961.94986,0.01157
4963.87833,0.01371
4965.80680,0.01145
4967.73527,0.00499
4969.66373,-0.00828
4971.59220,-0.02129
4973.52067,-0.01840
4975.44914,-0.00042
4977.37761,0.01423
4979.30608,0.01372
4981.23455,0.01014
4983.16302,0.01390
4985.09148,0.01641
4987.01995,0.02231
4988.94842,0.03646
4990.87689,0.04176
4992.80536,0.02829
4994.73383,0.00570
4996.66230,-0.00739
4998.59076,-0.00539
5000.51923,0.00077
5002.44770,0.00507
5004.37617,0.00636
5006.30464,0.00803
5008.23311,0.01547
5010.16158,0.02506
5012.09005,0.02842
5014.01851,0.03030
5015.94698,0.03910
5017.87545,0.04078
5019.80392,0.02836
5021.73239,0.02688
5023.66086,0.03860
5025.58933,0.02993
5027.51779,0.00743
5029.44626,0.00854
5031.37473,0.02228
5033.30320,0.02660
5035.23167,0.03066
5037.16014,0.03365
5039.08861,0.02962
5041.01708,0.02646
5042.94554,0.02412
5044.87401,0.01166
5046.80248,-0.00719
5048.73095,-0.01476
5050.65942,-0.01114
5052.58789,-0.00592
5054.51636,-0.00115
5056.44482,0.00580
5058.37329,0.02077
5060.30176,0.03506
5062.23023,0.03584
5064.15870,0.02939
5066.08717,0.02721
5068.01564,0.03424
5069.94410,0.04121
5071.87257,0.03544
5073.80104,0.02228
5075.72951,0.01070
5077.65798,0.00113
5079.58645,-0.00255
5081.51492,0.00413
5083.44339,0.01200
5085.37185,0.00821
5087.30032,0.00342
5089.22879,0.01541
5091.15726,0.03202
5093.08573,0.03759
5095.01420,0.03565
5096.94267,0.02711
5098.87113,0.02056
5100.79960,0.02919
5102.72807,0.03563
5104.65654,0.02459
5106.58501,0.01893
5108.51348,0.03367
5110.44195,0.04633
5112.37042,0.03546
5114.29888,0.01386
5116.22735,0.00429
5118.15582,0.00931
5120.08429,0.02179
5122.01276,0.03652
5123.94123,0.04651
5125.86970,0.03622
5127.79816,0.00926
5129.72663,-0.00301
5131.65510,0.00446
5133.58357,0.01547
5135.51204,0.02303
5137.44051,0.02475
5139.36898,0.02509
5141.29745,0.03239
5143.22591,0.04732
5145.15438,0.05041
5147.08285,0.03119
5149.01132,0.01962
5150.93979,0.02961
5152.86826,0.03667
5154.79673,0.03715
5156.72519,0.04070
5158.65366,0.03490
5160.58213,0.02432
5162.51060,0.02745
5164.43907,0.03599
5166.36754,0.03812
5168.29601,0.03319
5170.22448,0.02525
5172.15294,0.03327
5174.08141,0.04948
5176.00988,0.04298
5177.93835,0.02588
5179.86682,0.02349
5181.79529,0.03448
5183.72376,0.04175
5185.65222,0.02548
5187.58069,0.01136
5189.50916,0.03061
5191.43763,0.05053
5193.36610,0.04739
5195.29457,0.04233
5197.22304,0.03888
5199.15151,0.03211
5201.07997,0.03493
5203.00844,0.04855
5204.93691,0.05971
5206.86538,0.05829
5208.79385,0.05070
5210.72232,0.04169
5212.65079,0.03049
5214.57925,0.03123
5216.50772,0.04787
5218.43619,0.06293
5220.36466,0.05700
5222.29313,0.02826
5224.22160,0.00026
5226.15007,-0.00827
5228.07854,0.00351
5230.00700,0.03576
5231.93547,0.06533
5233.86394,0.06711
5235.79241,0.05658
5237.72088,0.04994
5239.64935,0.05020
5241.57782,0.05401
5243.50628,0.05618
5245.43475,0.06055
5247.36322,0.06395
5249.29169,0.06147
5251.22016,0.05581
5253.14863,0.04649
5255.07710,0.04194
5257.00556,0.04833
5258.93403,0.04946
5260.86250,0.03728
5262.79097,0.02587
5264.71944,0.02789
5266.64791,0.03473
5268.57638,0.03900
5270.50485,0.05725
5272.43331,0.08360
5274.36178,0.08655
5276.29025,0.06748
5278.21872,0.04868
5280.14719,0.04318
5282.07566,0.04322
5284.00413,0.03202
5285.93259,0.02543
5287.86106,0.03589
5289.78953,0.04136
5291.71800,0.05115
5293.64647,0.07815
5295.57494,0.08945
5297.50341,0.07829
5299.43188,0.06192
5301.36034,0.04564
5303.28881,0.04686
5305.21728,0.06978
5307.14575,0.08071
5309.07422,0.05727
5311.00269,0.03286
5312.93116,0.03458
5314.85962,0.03759
5316.78809,0.02934
5318.71656,0.03314
5320.64503,0.04998
5322.57350,0.06092
5324.50197,0.05913
5326.43044,0.04707
5328.35891,0.03339
5330.28737,0.02626
5332.21584,0.03255
5334.14431,0.05711
5336.07278,0.08313
5338.00125,0.09065
5339.92972,0.08319
5341.85819,0.08068
5343.78665,0.07606
5345.71512,0.06096
5347.64359,0.06278
5349.57206,0.06488
5351.50053,0.04471
5353.42900,0.04288
5355.35747,0.07263
5357.28594,0.08495
5359.21440,0.06950
5361.14287,0.05836
5363.07134,0.06792
5364.99981,0.07408
5366.92828,0.06075
5368.85675,0.04112
5370.78522,0.03437
5372.71368,0.05187
5374.64215,0.07953
5376.57062,0.08211
5378.49909,0.05940
5380.42756,0.05069
5382.35603,0.06650
5384.28450,0.08720
5386.21297,0.09582
5388.14143,0.08811
5390.06990,0.07765
5391.99837,0.08363
5393.92684,0.08654
5395.85531,0.06788
5397.78378,0.05761
5399.71225,0.05664
5401.64071,0.04962
5403.56918,0.04917
5405.49765,0.05768
5407.42612,0.05614
5409.35459,0.04901
5411.28306,0.05491
5413.21153,0.05353
5415.13999,0.02928
5417.06846,0.02244
5418.99693,0.05382
5420.92540,0.09253
5422.85387,0.09673
5424.78234,0.07063
5426.71081,0.05047
5428.63928,0.05013
5430.56774,0.06048
5432.49621,0.06693
5434.42468,0.05969
5436.35315,0.06461
5438.28162,0.09334
5440.21009,0.10963
5442.13856,0.09926
5444.06702,0.08995
5445.99549,0.09401
5447.92396,0.09109
5449.85243,0.07818
5451.78090,0.07709
5453.70937,0.07662
5455.63784,0.06519
5457.56631,0.05822
5459.49477,0.05813
5461.42324,0.05968
5463.35171,0.06010
5465.28018,0.05823
5467.20865,0.05150
5469.13712,0.04060
5471.06559,0.04590
5472.99405,0.06763
5474.92252,0.08048
5476.85099,0.08063
5478.77946,0.09042
5480.70793,0.09565
5482.63640,0.06635
5484.56487,0.03131
5486.49334,0.03145
5488.42180,0.04750
5490.35027,0.05076
5492.27874,0.05508
5494.20721,0.07645
5496.13568,0.09497
5498.06415,0.09173
5499.99262,0.08183
5501.92108,0.08362
5503.84955,0.08469
5505.77802,0.08213
5507.70649,0.09470
5509.63496,0.11884
5511.56343,0.12887
5513.49190,0.12042
5515.42037,0.10186
5517.34883,0.08415
5519.27730,0.08592
5521.20577,0.09871
5523.13424,0.10123
5525.06271,0.08643
5526.99118,0.05709
5528.91965,0.03413
5530.84811,0.02996
5532.77658,0.01874
5534.70505,0.00602
5536.63352,0.02857
5538.56199,0.06937
5540.49046,0.09920
5542.41893,0.11493
5544.34740,0.11759
5546.27586,0.11626
5548.20433,0.11801
5550.13280,0.11888
5552.06127,0.10255
5553.98974,0.07333
5555.91821,0.05456
5557.84668,0.05476
5559.77514,0.06969
5561.70361,0.08278
5563.63208,0.07954
5565.56055,0.07735
5567.48902,0.09785
5569.41749,0.11458
5571.34596,0.10497
5573.27443,0.08572
5575.20289,0.07331
5577.13136,0.06855
5579.05983,0.06770
5580.98830,0.07898
5582.91677,0.08915
5584.84524,0.07808
5586.77371,0.07260
5588.70217,0.08843
5590.63064,0.10151
5592.55911,0.09719
5594.48758,0.08145
5596.41605,0.06841
5598.34452,0.05714
5600.27299,0.03984
5602.20145,0.04103
5604.12992,0.05881
5606.05839,0.05844
5607.98686,0.05299
5609.91533,0.05606
5611.84380,0.05288
5613.77227,0.05907
5615.70074,0.08201
5617.62920,0.09587
5619.55767,0.10217
5621.48614,0.10801
5623.41461,0.10734
5625.34308,0.11146
5627.27155,0.10752
5629.20002,0.08783
5631.12848,0.08757
5633.05695,0.10587
5634.98542,0.11088
5636.91389,0.09028
5638.84236,0.05888
5640.77083,0.04440
5642.69930,0.05616
5644.62777,0.07496
5646.55623,0.08283
5648.48470,0.07531
5650.41317,0.04707
5652.34164,0.01587
5654.27011,0.01452
5656.19858,0.03335
5658.12705,0.04833
5660.05551,0.06240
5661.98398,0.08309
5663.91245,0.10901
5665.84092,0.12050
5667.76939,0.09642
5669.69786,0.06109
5671.62633,0.06494
5673.55480,0.11010
5675.48326,0.14257
5677.41173,0.12296
5679.34020,0.07791
5681.26867,0.07131
5683.19714,0.11210
5685.12561,0.13846
5687.05408,0.12667
5688.98254,0.10606
5690.91101,0.10016
5692.83948,0.10749
5694.76795,0.10776
5696.69642,0.08231
5698.62489,0.04083
5700.55336,0.01509
5702.48183,0.01092
5704.41029,0.03525
5706.33876,0.08937
5708.26723,0.12857
5710.19570,0.13570
5712.12417,0.13104
5714.05264,0.12634
5715.98111,0.13299
5717.90957,0.14051
5719.83804,0.13213
5721.76651,0.12081
5723.69498,0.11325
5725.62345,0.09447
5727.55192,0.06915
5729.48039,0.06481
5731.40886,0.08185
5733.33732,0.09588
5735.26579,0.09371
5737.19426,0.07573
5739.12273,0.04773
5741.05120,0.03414
5742.97967,0.04301
5744.90814,0.04674
5746.83660,0.04962
5748.76507,0.06404
5750.69354,0.07454
5752.62201,0.07513
5754.55048,0.06809
5756.47895,0.05548
5758.40742,0.05414
5760.33588,0.09284
5762.26435,0.14159
5764.19282,0.12950
5766.12129,0.07768
5768.04976,0.05844
5769.97823,0.08157
5771.90670,0.09107
5773.83517,0.06851
5775.76363,0.07758
5777.69210,0.13012
5779.62057,0.15203
5781.54904,0.12243
5783.47751,0.09599
5785.40598,0.09602
5787.33445,0.10110
5789.26291,0.10039
5791.19138,0.10782
5793.11985,0.11300
5795.04832,0.10984
5796.97679,0.11546
5798.90526,0.11930
5800.83373,0.12962
5802.76220,0.13944
5804.69066,0.09872
5806.61913,0.02721
5808.54760,-0.00089
5810.47607,0.02235
5812.40454,0.04292
5814.33301,0.04166
5816.26148,0.04080
5818.18994,0.04802
5820.11841,0.05708
5822.04688,0.04507
5823.97535,0.02198
5825.90382,0.03772
5827.83229,0.08497
5829.76076,0.12050
5831.68923,0.14257
5833.61769,0.15611
5835.54616,0.14990
5837.47463,0.12235
5839.40310,0.08504
5841.33157,0.05957
5843.26004,0.06468
5845.18851,0.10112
5847.11697,0.12473
5849.04544,0.11075
5850.97391,0.10111
5852.90238,0.10218
5854.83085,0.09289
5856.75932,0.08386
5858.68779,0.09176
5860.61626,0.11331
5862.54472,0.11632
5864.47319,0.09298
5866.40166,0.06526
5868.33013,0.03227
5870.25860,0.01039
5872.18707,0.03505
5874.11554,0.09966
5876.04400,0.16054
5877.97247,0.18819
5879.90094,0.18402
5881.82941,0.15499
5883.75788,0.11882
5885.68635,0.10109
5887.61482,0.10446
5889.54329,0.10395
5891.47175,0.09678
5893.40022,0.10970
5895.32869,0.13389
5897.25716,0.13068
5899.18563,0.09787
5901.11410,0.07187
5903.04257,0.07754
5904.97103,0.08972
5906.89950,0.07946
5908.82797,0.09001
5910.75644,0.13366
5912.68491,0.13701
5914.61338,0.11932
5916.54185,0.14614
5918.47032,0.17641
5920.39878,0.15859
5922.32725,0.12637
5924.25572,0.12487
5926.18419,0.12055
5928.11266,0.08344
5930.04113,0.06619
5931.96960,0.08968
5933.89806,0.10509
5935.82653,0.09616
5937.75500,0.08216
5939.68347,0.07451
5941.61194,0.09140
5943.54041,0.11024
5945.46888,0.11002
5947.39734,0.12424
5949.32581,0.14560
5951.25428,0.13109
5953.18275,0.09115
5955.11122,0.07985
5957.03969,0.11724
5958.96816,0.13714
5960.89663,0.07449
5962.82509,-0.00551
5964.75356,-0.02989
5966.68203,-0.00713
5968.61050,0.04291
5970.53897,0.08953
5972.46744,0.09131
5974.39591,0.05952
5976.32437,0.06503
5978.25284,0.13272
5980.18131,0.18587
5982.10978,0.16192
5984.03825,0.11339
5985.96672,0.08794
5987.89519,0.05153
5989.82366,0.03157
5991.75212,0.07466
5993.68059,0.13160
5995.60906,0.15072
5997.53753,0.13390
5999.46600,0.11293
6001.39447,0.11792
6003.32294,0.13800
6005.25140,0.13600
6007.17987,0.08615
6009.10834,0.01167
6011.03681,-0.02603
6012.96528,-0.02043
6014.89375,0.00312
6016.82222,0.03181
6018.75069,0.04863
6020.67915,0.06643
6022.60762,0.09200
6024.53609,0.09819
6026.46456,0.08706
6028.39303,0.08680
6030.32150,0.10821
6032.24997,0.13305
6034.17843,0.12098
6036.10690,0.08422
6038.03537,0.08531
6039.96384,0.09159
6041.89231,0.05636
6043.82078,0.03516
6045.74925,0.06663
6047.67772,0.10751
6049.60618,0.13647
6051.53465,0.16348
6053.46312,0.16736
6055.39159,0.12780
6057.32006,0.07060
6059.24853,0.04959
6061.17700,0.08205
6063.10546,0.12437
6065.03393,0.14252
6066.96240,0.14605
6068.89087,0.10919
6070.81934,0.03323
6072.74781,0.01009
6074.67628,0.05454
6076.60475,0.09380
6078.53321,0.11996
6080.46168,0.13216
6082.39015,0.10889
6084.31862,0.08442
6086.24709,0.10198
6088.17556,0.13994
6090.10403,0.13228
6092.03249,0.08733
6093.96096,0.09068
6095.88943,0.12545
6097.81790,0.12346
6099.74637,0.10066
6101.67484,0.08887
6103.60331,0.11699
6105.53177,0.18415
6107.46024,0.23253
6109.38871,0.23420
6111.31718,0.20263
6113.24565,0.13832
6115.17412,0.06831
6117.10259,0.03114
6119.03106,0.04501
6120.95952,0.08564
6122.88799,0.09502
6124.81646,0.07992
6126.74493,0.10381
6128.67340,0.17041
6130.60187,0.20023
6132.53034,0.17374
6134.45880,0.15065
6136.38727,0.14560
6138.31574,0.12736
6140.24421,0.08296
6142.17268,0.03157
6144.10115,0.00803
6146.02962,0.01337
6147.95809,0.01497
6149.88655,0.01010
6151.81502,0.01596
6153.74349,0.03035
6155.67196,0.05470
6157.60043,0.08137
6159.52890,0.07986
6161.45737,0.05229
6163.38583,0.04164
6165.31430,0.06908
6167.24277,0.10231
6169.17124,0.09797
6171.09971,0.07480
6173.02818,0.09441
6174.95665,0.12501
6176.88512,0.10421
6178.81358,0.08030
6180.74205,0.10175
6182.67052,0.12713
6184.59899,0.11509
6186.52746,0.09722
6188.45593,0.12291
6190.38440,0.12497
6192.31286,0.03950
6194.24133,-0.06153
6196.16980,-0.08745
6198.09827,-0.02357
6200.02674,0.06607
6201.95521,0.12387
6203.88368,0.12679
6205.81215,0.09639
6207.74061,0.09773
6209.66908,0.10768
6211.59755,0.08008
6213.52602,0.06014
6215.45449,0.06162
6217.38296,0.08488
6219.31143,0.11932
6221.23989,0.10254
6223.16836,0.01932
6225.09683,-0.03274
6227.02530,0.02406
6228.95377,0.10722
6230.88224,0.11894
6232.81071,0.05755
6234.73918,-0.02387
6236.66764,-0.04412
6238.59611,0.01265
6240.52458,0.04371
6242.45305,0.02483
6244.38152,0.05129
6246.30999,0.06990
6248.23846,0.02321
6250.16692,0.03134
6252.09539,0.10406
6254.02386,0.11950
6255.95233,0.08656
6257.88080,0.08037
6259.80927,0.11155
6261.73774,0.13053
6263.66621,0.11947
6265.59467,0.11855
6267.52314,0.12632
6269.45161,0.12600
6271.38008,0.13106
6273.30855,0.13965
6275.23702,0.15859
6277.16549,0.15897
6279.09395,0.07747
6281.02242,-0.02818
6282.95089,-0.03546
6284.87936,0.01425
6286.80783,0.03596
6288.73630,0.06896
6290.66477,0.11905
6292.59323,0.15138
6294.52170,0.15715
6296.45017,0.14129
6298.37864,0.11976
6300.30711,0.10185
6302.23558,0.10399
6304.16405,0.11083
6306.09252,0.07617
6308.02098,0.02993
6309.94945,0.03149
6311.87792,0.05430
6313.80639,0.07317
6315.73486,0.09328
6317.66333,0.09197
6319.59180,0.06430
6321.52026,0.02738
6323.44873,-0.01044
6325.37720,-0.02545
6327.30567,0.00890
6329.23414,0.04585
6331.16261,0.05058
6333.09108,0.05761
6335.01955,0.05458
6336.94801,0.03941
6338.87648,0.04556
6340.80495,0.04419
6342.73342,-0.03307
6344.66189,-0.14405
6346.59036,-0.13623
6348.51883,0.00349
6350.44729,0.11971
6352.37576,0.12850
6354.30423,0.09327
6356.23270,0.06707
6358.16117,0.03718
6360.08964,0.01095
6362.01811,0.02409
6363.94658,0.05295
6365.87504,0.03985
6367.80351,0.00011
6369.73198,-0.01814
6371.66045,-0.01628
6373.58892,0.00326
6375.51739,0.03004
6377.44586,0.03089
6379.37432,0.04211
6381.30279,0.09960
6383.23126,0.14508
6385.15973,0.14598
6387.08820,0.12949
6389.01667,0.07336
6390.94514,-0.01018
6392.87361,-0.05074
6394.80207,-0.01770
6396.73054,0.05921
6398.65901,0.12800
6400.58748,0.14172
6402.51595,0.10346
6404.44442,0.05400
6406.37289,0.03452
6408.30135,0.05042
6410.22982,0.07680
6412.15829,0.08333
6414.08676,0.06022
6416.01523,0.03169
6417.94370,0.02042
6419.87217,0.07481
6421.80064,0.15411
6423.72910,0.14184
6425.65757,0.04380
6427.58604,-0.02578
6429.51451,-0.01728
6431.44298,0.04726
6433.37145,0.11591
6435.29992,0.12661
6437.22838,0.07072
6439.15685,0.03627
6441.08532,0.05620
6443.01379,0.07135
6444.94226,0.08045
6446.87073,0.10086
6448.79920,0.11736
6450.72766,0.12332
6452.65613,0.10539
6454.58460,0.06328
6456.51307,0.02192
6458.44154,0.00989
6460.37001,0.02406
6462.29848,0.05496
6464.22695,0.10051
6466.15541,0.12769
6468.08388,0.12385
6470.01235,0.09833
6471.94082,0.02920
6473.86929,-0.02053
6475.79776,0.04577
6477.72623,0.13166
6479.65469,0.10669
6481.58316,0.02018
6483.51163,-0.02032
6485.44010,0.03068
6487.36857,0.10571
6489.29704,0.12803
6491.22551,0.11294
6493.15398,0.07637
6495.08244,0.03527
6497.01091,0.04984
6498.93938,0.12310
6500.86785,0.21500
6502.79632,0.24540
6504.72479,0.16569
6506.65326,0.06926
6508.58172,0.01155
6510.51019,-0.03645
6512.43866,-0.02092
6514.36713,0.08038
6516.29560,0.17137
6518.22407,0.19927
6520.15254,0.17333
6522.08101,0.08902
6524.00947,-0.02563
6525.93794,-0.07024
6527.86641,0.02752
6529.79488,0.14612
6531.72335,0.13536
6533.65182,0.09544
6535.58029,0.10993
6537.50875,0.09024
6539.43722,0.03135
6541.36569,-0.00121
6543.29416,0.00098
6545.22263,0.04560
6547.15110,0.12256
6549.07957,0.16354
6551.00804,0.12187
6552.93650,0.03459
6554.86497,-0.02595
6556.79344,-0.03371
6558.72191,-0.02478
6560.65038,-0.00785
6562.57885,0.01355
6564.50732,0.02791
6566.43578,0.04354
6568.36425,0.09014
6570.29272,0.17698
6572.22119,0.20523
6574.14966,0.10945
6576.07813,-0.00588
6578.00660,-0.02699
6579.93507,0.01352
6581.86353,0.02409
6583.79200,0.01923
6585.72047,0.04824
6587.64894,0.12249
6589.57741,0.21526
6591.50588,0.22110
6593.43435,0.11527
6595.36281,0.06136
6597.29128,0.09182
6599.21975,0.11443
6601.14822,0.13592
6603.07669,0.11175
6605.00516,0.05398
6606.93363,0.03609
6608.86210,-0.01508
6610.79056,-0.06574
6612.71903,0.00475
6614.64750,0.06214
6616.57597,0.01502
6618.50444,0.01634
6620.43291,0.09684
6622.36138,0.11425
6624.28984,0.05362
6626.21831,0.04364
6628.14678,0.09444
6630.07525,0.08865
6632.00372,0.03523
6633.93219,0.03666
6635.86066,0.07535
6637.78912,0.06872
6639.71759,0.04946
6641.64606,0.06601
6643.57453,0.03302
6645.50300,-0.05173
6647.43147,-0.02986
6649.35994,0.04709
6651.28841,0.05594
6653.21687,0.06255
6655.14534,0.09775
6657.07381,0.11104
6659.00228,0.13845
6660.93075,0.15636
6662.85922,0.14696
6664.78769,0.18618
6666.71615,0.24067
6668.64462,0.22330
6670.57309,0.09289
6672.50156,-0.04104
6674.43003,0.02606
6676.35850,0.17666
6678.28697,0.18724
6680.21544,0.10809
6682.14390,0.06495
6684.07237,0.06397
6686.00084,0.07971
6687.92931,0.08641
6689.85778,0.08997
6691.78625,0.11211
6693.71472,0.10227
6695.64318,0.06863
6697.57165,0.08028
6699.50012,0.10456
6701.42859,0.08440
6703.35706,0.01978
6705.28553,-0.03728
6707.21400,0.00280
6709.14247,0.08023
6711.07093,0.08471
6712.99940,0.07423
6714.92787,0.07092
6716.85634,0.00614
6718.78481,-0.04832
6720.71328,0.00996
6722.64175,0.05918
6724.57021,0.01529
6726.49868,0.02118
6728.42715,0.12203
6730.35562,0.17210
6732.28409,0.14807
6734.21256,0.15051
6736.14103,0.13545
6738.06950,0.02705
6739.99796,-0.11835
6741.92643,-0.15967
6743.85490,-0.06172
6745.78337,0.04840
6747.71184,0.06505
6749.64031,0.06083
6751.56878,0.12133
6753.49724,0.14148
6755.42571,0.12955
6757.35418,0.17313
6759.28265,0.23460
6761.21112,0.21038
6763.13959,0.10911
6765.06806,0.03136
6766.99653,-0.01385
6768.92499,0.00216
6770.85346,0.07175
6772.78193,0.09223
6774.71040,0.08171
6776.63887,0.08815
6778.56734,0.06639
6780.49581,0.02806
6782.42427,0.01240
6784.35274,0.03128
6786.28121,0.10261
6788.20968,0.14949
6790.13815,0.08492
6792.06662,-0.00336
6793.99509,-0.01040
6795.92355,0.00726
6797.85202,0.00924
6799.78049,0.04238
6801.70896,0.07499
6803.63743,0.03680
6805.56590,0.02683
6807.49437,0.10709
6809.42284,0.18993
6811.35130,0.19584
6813.27977,0.13287
6815.20824,0.09998
6817.13671,0.12546
6819.06518,0.13069
6820.99365,0.09677
6822.92212,0.04086
6824.85058,-0.02482
6826.77905,-0.04273
6828.70752,0.01557
6830.63599,0.07635
6832.56446,0.07133
6834.49293,0.02694
6836.42140,0.01747
6838.34987,0.07738
6840.27833,0.11483
6842.20680,0.09862
6844.13527,0.07509
6846.06374,0.04661
6847.99221,0.04236
6849.92068,0.04951
6851.84915,0.01005
6853.77761,0.03596
6855.70608,0.17542
6857.63455,0.23439
6859.56302,0.17897
6861.49149,0.13399
6863.41996,0.15174
6865.34843,0.22975
6867.27690,0.27676
6869.20536,0.23071
6871.13383,0.16481
6873.06230,0.13044
6874.99077,0.13797
6876.91924,0.14692
6878.84771,0.08680
6880.77618,0.01356
6882.70464,0.04374
6884.63311,0.08218
6886.56158,0.03846
6888.49005,0.02715
6890.41852,0.12127
6892.34699,0.21943
6894.27546,0.26765
6896.20393,0.25115
6898.13239,0.08970
6900.06086,-0.10535
6901.98933,-0.13806
6903.91780,-0.06218
6905.84627,-0.09318
6907.77474,-0.17353
6909.70321,-0.11604
6911.63167,-0.05263
6913.56014,-0.11693
6915.48861,-0.16907
6917.41708,-0.10829
6919.34555,0.00216
6921.27402,0.06095
6923.20249,0.08906
6925.13096,0.14752
6927.05942,0.17319
6928.98789,0.07263
6930.91636,-0.04059
6932.84483,0.01148
6934.77330,0.08607
6936.70177,0.07500
6938.63024,0.07033
6940.55870,0.10347
6942.48717,0.13271
6944.41564,0.16830
6946.34411,0.18841
6948.27258,0.16838
6950.20105,0.17256
6952.12952,0.20204
6954.05799,0.20675
6955.98645,0.23883
6957.91492,0.30825
6959.84339,0.31223
6961.77186,0.22362
6963.70033,0.14030
6965.62880,0.12057
6967.55727,0.15617
6969.48573,0.23217
6971.41420,0.30569
6973.34267,0.29314
6975.27114,0.15948
6977.19961,0.03022
6979.12808,0.01250
6981.05655,0.06585
6982.98501,0.09324
6984.91348,0.11221
6986.84195,0.17896
6988.77042,0.17121
6990.69889,0.06403
6992.62736,-0.00939
6994.55583,-0.03165
6996.48430,-0.02606
6998.41276,-0.00354
7000.34123,-0.01397
7002.26970,-0.01857
7004.19817,0.01951
7006.12664,0.03675
7008.05511,0.02491
7009.98358,0.02298
7011.91204,0.01189
7013.84051,0.00586
7015.76898,0.06028
7017.69745,0.13171
7019.62592,0.15325
7021.55439,0.14911
7023.48286,0.16647
7025.41133,0.19101
7027.33979,0.19124
7029.26826,0.21059
7031.19673,0.24611
7033.12520,0.15447
7035.05367,-0.08477
7036.98214,-0.25083
7038.91061,-0.22614
7040.83907,-0.07903
7042.76754,0.04072
7044.69601,0.05473
7046.62448,0.07346
7048.55295,0.07779
7050.48142,0.03414
7052.40989,0.02035
7054.33836,0.06346
7056.26682,0.12306
7058.19529,0.07101
7060.12376,-0.04931
7062.05223,-0.03266
7063.98070,0.04782
7065.90917,0.07363
7067.83764,0.11779
7069.76610,0.14919
7071.69457,0.05923
7073.62304,0.01039
7075.55151,0.09877
7077.47998,0.17195
7079.40845,0.17464
7081.33692,0.12172
7083.26539,0.01238
7085.19385,-0.05102
7087.12232,-0.04345
7089.05079,-0.00314
7090.97926,0.04472
7092.90773,0.05252
7094.83620,-0.01826
7096.76467,-0.12350
7098.69313,-0.15704
7100.62160,-0.10616
7102.55007,-0.04446
7104.47854,-0.02206
7106.40701,-0.05349
7108.33548,-0.02321
7110.26395,0.10062
7112.19242,0.19790
7114.12088,0.15654
7116.04935,0.03428
7117.97782,0.02468
7119.90629,0.13937
7121.83476,0.16084
7123.76323,0.05214
7125.69170,-0.05004
7127.62016,-0.06865
7129.54863,-0.08993
7131.47710,-0.16433
7133.40557,-0.17699
7135.33404,-0.08234
7137.26251,0.05138
7139.19098,0.21708
7141.11944,0.34196
7143.04791,0.33993
7144.97638,0.22470
7146.90485,0.08834
7148.83332,0.00559
7150.76179,-0.07099
7152.69026,-0.04008
7154.61873,0.14897
7156.54719,0.21721
7158.47566,0.15249
7160.40413,0.14601
7162.33260,0.23020
7164.26107,0.28388
7166.18954,0.22583
7168.11801,0.23415
7170.04647,0.33145
7171.97494,0.21908
7173.90341,-0.01146
7175.83188,-0.07571
7177.76035,0.05087
7179.68882,0.17903
7181.61729,0.19195
7183.54576,0.13896
7185.47422,0.10177
7187.40269,0.07999
7189.33116,0.01514
7191.25963,-0.11422
7193.18810,-0.17960
7195.11657,-0.13149
7197.04504,-0.11418
7198.97350,-0.17201
7200.90197,-0.15383
7202.83044,-0.05157
7204.75891,-0.03864
7206.68738,-0.12348
7208.61585,-0.13473
7210.54432,-0.01413
7212.47279,0.17127
7214.40125,0.30041
7216.32972,0.35369
7218.25819,0.34647
7220.18666,0.24466
7222.11513,0.12688
7224.04360,0.05915
7225.97207,-0.01015
7227.90053,-0.03952
7229.82900,0.02704
7231.75747,0.01277
7233.68594,-0.13031
7235.61441,-0.17539
7237.54288,-0.02642
7239.47135,0.13477
7241.39982,0.14547
7243.32828,0.02769
7245.25675,-0.11305
7247.18522,-0.18126
7249.11369,-0.16711
7251.04216,-0.09926
7252.97063,-0.06437
7254.89910,-0.12179
7256.82756,-0.14534
7258.75603,-0.04777
7260.68450,0.06569
7262.61297,0.06351
7264.54144,0.13917
7266.46991,0.23530
7268.39838,0.25367
7270.32685,0.31269
7272.25531,0.28046
7274.18378,0.07497
7276.11225,-0.04413
7278.04072,-0.04029
7279.96919,0.06937
7281.89766,0.20995
7283.82613,0.24550
7285.75459,0.17466
7287.68306,0.10810
7289.61153,0.15256
7291.54000,0.19329
7293.46847,0.08558
7295.39694,-0.01054
7297.32541,0.02971
7299.25387,0.17476
7301.18234,0.31995
7303.11081,0.30686
7305.03928,0.19965
7306.96775,0.18750
7308.89622,0.17963
7310.82469,0.12465
7312.75316,0.08219
7314.68162,-0.11649
7316.61009,-0.36241
7318.53856,-0.21698
7320.46703,0.07113
7322.39550,0.12943
7324.32397,0.07103
7326.25244,0.09099
7328.18090,0.06863
7330.10937,-0.05979
7332.03784,-0.10875
7333.96631,-0.11081
7335.89478,-0.13112
7337.82325,-0.12052
7339.75172,0.00872
7341.68019,0.17810
7343.60865,0.16712
7345.53712,0.12541
7347.46559,0.23721
7349.39406,0.32943
7351.32253,0.33850
7353.25100,0.31942
7355.17947,0.19163
7357.10793,0.10146
7359.03640,0.16768
7360.96487,0.06020
7362.89334,-0.06644
7364.82181,0.04205
7366.75028,0.10696
7368.67875,0.07481
7370.60722,0.10807
7372.53568,0.10995
7374.46415,-0.07137
7376.39262,-0.23291
7378.32109,-0.17288
7380.24956,-0.10129
7382.17803,-0.04265
7384.10650,0.03585
7386.03496,0.05703
7387.96343,-0.03002
7389.89190,-0.11247
7391.82037,-0.07094
7393.74884,0.02701
7395.67731,0.10819
7397.60578,0.16284
7399.53425,0.20430
7401.46271,0.25907
7403.39118,0.26220
7405.31965,0.23223
7407.24812,0.20936
7409.17659,0.15312
7411.10506,0.12718
7413.03353,0.13813
7414.96199,0.10071
7416.89046,0.00119
7418.81893,-0.06032
7420.74740,-0.04976
7422.67587,-0.09192
7424.60434,-0.11802
7426.53281,-0.05034
7428.46128,0.02456
7430.38974,0.07909
7432.31821,0.22938
7434.24668,0.35725
7436.17515,0.26351
7438.10362,0.10685
7440.03209,0.10795
7441.96056,0.15399
7443.88902,0.06318
7445.81749,-0.08971
7447.74596,-0.05878
7449.67443,0.20547
7451.60290,0.28645
7453.53137,0.01409
7455.45984,-0.10294
7457.38831,0.00106
7459.31677,0.02476
7461.24524,-0.04092
7463.17371,-0.07454
7465.10218,-0.18854
7467.03065,-0.20797
7468.95912,-0.03760
7470.88759,0.09119
7472.81605,0.12595
7474.74452,0.22153
7476.67299,0.29574
7478.60146,0.23433
7480.52993,0.18362
7482.45840,0.21992
7484.38687,0.17303
7486.31533,0.04045
7488.24380,0.05516
7490.17227,0.22341
7492.10074,0.26098
7494.02921,0.08411
7495.95768,-0.13146
7497.88615,-0.25689
