399.19301,5.24914
401.12148,0.78721
403.04995,0.02995
404.97842,0.01453
406.90689,0.05238
408.83536,0.00226
410.76382,-0.04973
412.69229,-0.06389
414.62076,-0.05313
416.54923,-0.00807
418.47770,0.04966
420.40617,0.05384
422.33464,0.08232
424.26311,0.12797
426.19157,0.12333
428.12004,0.11535
430.04851,0.11592
431.97698,0.05635
433.90545,0.02897
435.83392,0.10543
437.76239,0.19465
439.69085,0.26404
441.61932,0.31902
443.54779,0.30928
445.47626,0.22113
447.40473,0.06962
449.33320,-0.03783
451.26167,-0.00318
453.19013,0.08702
455.11860,0.15974
457.04707,0.17551
458.97554,0.12649
460.90401,0.08540
462.83248,0.06334
464.76095,0.01818
466.68942,-0.05157
468.61788,-0.08218
470.54635,-0.03779
472.47482,0.05851
474.40329,0.10533
476.33176,0.05678
478.26023,0.02314
480.18870,0.03335
482.11716,0.06312
484.04563,0.09516
485.97410,0.15489
487.90257,0.19568
489.83104,0.16189
491.75951,0.10489
493.68798,0.08114
495.61645,0.10172
497.54491,0.14752
499.47338,0.16791
501.40185,0.15006
503.33032,0.13314
505.25879,0.12399
507.18726,0.10954
509.11573,0.09689
511.04419,0.08217
512.97266,0.07674
514.90113,0.10913
516.82960,0.15423
518.75807,0.13686
520.68654,0.08557
522.61501,0.08172
524.54348,0.10474
526.47194,0.09205
528.40041,0.06159
530.32888,0.04467
532.25735,0.04258
534.18582,0.04419
536.11429,0.03125
538.04276,0.04045
539.97122,0.09701
541.89969,0.13327
543.82816,0.11551
545.75663,0.10975
547.68510,0.14663
549.61357,0.17148
551.54204,0.15242
553.47051,0.12554
555.39897,0.10835
557.32744,0.08559
559.25591,0.06002
561.18438,0.05227
563.11285,0.07243
565.04132,0.09935
566.96979,0.10940
568.89825,0.12549
570.82672,0.16702
572.75519,0.18748
574.68366,0.14704
576.61213,0.10572
578.54060,0.11854
580.46907,0.13129
582.39754,0.10235
584.32600,0.07899
586.25447,0.09670
588.18294,0.13168
590.11141,0.15091
592.03988,0.14838
593.96835,0.14720
595.89682,0.14339
597.82528,0.12137
599.75375,0.11410
601.68222,0.13870
603.61069,0.16488
605.53916,0.16993
607.46763,0.15852
609.39610,0.14026
611.32456,0.12267
613.25303,0.11151
615.18150,0.09368
617.10997,0.07483
619.03844,0.07790
620.96691,0.08762
622.89538,0.08985
624.82385,0.09238
626.75231,0.09194
628.68078,0.08685
630.60925,0.09314
632.53772,0.10853
634.46619,0.11482
636.39466,0.12498
638.32313,0.14388
640.25159,0.14682
642.18006,0.13504
644.10853,0.13127
646.03700,0.13565
647.96547,0.13820
649.89394,0.13658
651.82241,0.12869
653.75088,0.11508
655.67934,0.10353
657.60781,0.10730
659.53628,0.13213
661.46475,0.14891
663.39322,0.13458
665.32169,0.10826
667.25016,0.08464
669.17862,0.08431
671.10709,0.10966
673.03556,0.12843
674.96403,0.13785
676.89250,0.13451
678.82097,0.11207
680.74944,0.08641
682.67791,0.08984
684.60637,0.12300
686.53484,0.13733
688.46331,0.12210
690.39178,0.12404
692.32025,0.14595
694.24872,0.15313
696.17719,0.14083
698.10565,0.13755
700.03412,0.14907
701.96259,0.15189
703.89106,0.14733
705.81953,0.14540
707.74800,0.14034
709.67647,0.13864
711.60494,0.14583
713.53340,0.14405
715.46187,0.12763
717.39034,0.11905
719.31881,0.12545
721.24728,0.13349
723.17575,0.13773
725.10422,0.13473
727.03268,0.12358
728.96115,0.11416
730.88962,0.10931
732.81809,0.10882
734.74656,0.11867
736.67503,0.12924
738.60350,0.13135
740.53197,0.13726
742.46043,0.14276
744.38890,0.12791
746.31737,0.10305
748.24584,0.09763
750.17431,0.11665
752.10278,0.13779
754.03125,0.14638
755.95971,0.14470
757.88818,0.13747
759.81665,0.13512
761.74512,0.13880
763.67359,0.13596
765.60206,0.12801
767.53053,0.12634
769.45900,0.13044
771.38746,0.13397
773.31593,0.13998
775.24440,0.14896
777.17287,0.15444
779.10134,0.15438
781.02981,0.14568
782.95828,0.13684
784.88674,0.14026
786.81521,0.14395
788.74368,0.10324
790.67215,0.01493
792.60062,-0.01086
794.52909,0.06632
796.45756,0.12525
798.38602,0.12988
800.31449,0.13325
802.24296,0.13894
804.17143,0.14467
806.09990,0.15313
808.02837,0.14965
809.95684,0.13224
811.88531,0.12597
813.81377,0.14155
815.74224,0.15363
817.67071,0.15478
819.59918,0.15727
821.52765,0.15521
823.45612,0.15119
825.38459,0.14690
827.31305,0.13115
829.24152,0.12000
831.16999,0.12905
833.09846,0.14047
835.02693,0.14331
836.95540,0.15052
838.88387,0.16289
840.81234,0.16605
842.74080,0.15423
844.66927,0.13296
846.59774,0.11580
848.52621,0.11128
850.45468,0.10829
852.38315,0.10416
854.31162,0.11491
856.24008,0.13037
858.16855,0.13253
860.09702,0.13184
862.02549,0.13476
863.95396,0.13676
865.88243,0.14211
867.81090,0.14675
869.73937,0.14095
871.66783,0.13207
873.59630,0.12699
875.52477,0.12147
877.45324,0.12203
879.38171,0.13153
881.31018,0.13570
883.23865,0.13804
885.16711,0.14510
887.09558,0.14508
889.02405,0.14039
890.95252,0.14141
892.88099,0.14539
894.80946,0.14396
896.73793,0.13672
898.66640,0.12972
900.59486,0.13113
902.52333,0.14212
904.45180,0.14831
906.38027,0.14478
908.30874,0.13930
910.23721,0.13865
912.16568,0.14269
914.09414,0.14408
916.02261,0.13982
917.95108,0.13315
919.87955,0.13062
921.80802,0.13310
923.73649,0.13484
925.66496,0.13414
927.59343,0.13343
929.52189,0.13260
931.45036,0.13535
933.37883,0.14549
935.30730,0.15266
937.23577,0.15149
939.16424,0.15006
941.09271,0.14981
943.02117,0.14810
944.94964,0.15022
946.87811,0.15264
948.80658,0.14528
950.73505,0.13464
952.66352,0.13169
954.59199,0.13919
956.52045,0.14880
958.44892,0.15498
960.37739,0.16066
962.30586,0.16172
964.23433,0.15629
966.16280,0.15047
968.09127,0.14912
970.01974,0.15173
971.94820,0.15137
973.87667,0.14553
975.80514,0.14433
977.73361,0.15302
979.66208,0.16168
981.59055,0.16183
983.51902,0.15446
985.44748,0.14882
987.37595,0.15454
989.30442,0.16238
991.23289,0.15828
993.16136,0.14902
995.08983,0.14436
997.01830,0.14109
998.94677,0.13496
1000.87523,0.13127
1002.80370,0.13547
1004.73217,0.14050
1006.66064,0.14417
1008.58911,0.14825
1010.51758,0.14823
1012.44605,0.14875
1014.37451,0.15215
1016.30298,0.15223
1018.23145,0.15296
1020.15992,0.15976
1022.08839,0.16658
1024.01686,0.16865
1025.94533,0.16650
1027.87380,0.15889
1029.80226,0.15051
1031.73073,0.14686
1033.65920,0.14538
1035.58767,0.14711
1037.51614,0.15200
1039.44461,0.15592
1041.37308,0.16358
1043.30154,0.17504
1045.23001,0.17736
1047.15848,0.16642
1049.08695,0.15431
1051.01542,0.14708
1052.94389,0.13943
1054.87236,0.13901
1056.80083,0.15520
1058.72929,0.17282
1060.65776,0.17602
1062.58623,0.17237
1064.51470,0.17009
1066.44317,0.16506
1068.37164,0.16082
1070.30011,0.16681
1072.22857,0.17844
1074.15704,0.18614
1076.08551,0.18794
1078.01398,0.17894
1079.94245,0.16226
1081.87092,0.15693
1083.79939,0.16551
1085.72786,0.17106
1087.65632,0.16716
1089.58479,0.16069
1091.51326,0.15996
1093.44173,0.16804
1095.37020,0.17753
1097.29867,0.18063
1099.22714,0.17638
1101.15560,0.16936
1103.08407,0.17130
1105.01254,0.18321
1106.94101,0.18841
1108.86948,0.17951
1110.79795,0.17162
1112.72642,0.17298
1114.65489,0.17525
1116.58335,0.17679
1118.51182,0.17369
1120.44029,0.16506
1122.36876,0.16208
1124.29723,0.16319
1126.22570,0.16354
1128.15417,0.16568
1130.08263,0.16274
1132.01110,0.15442
1133.93957,0.15245
1135.86804,0.15557
1137.79651,0.15738
1139.72498,0.15843
1141.65345,0.16041
1143.58191,0.16489
1145.51038,0.16979
1147.43885,0.17264
1149.36732,0.17172
1151.29579,0.16492
1153.22426,0.15696
1155.15273,0.15772
1157.08120,0.16902
1159.00966,0.17883
1160.93813,0.17790
1162.86660,0.17344
1164.79507,0.17545
1166.72354,0.17847
1168.65201,0.17259
1170.58048,0.16413
1172.50894,0.16188
1174.43741,0.16192
1176.36588,0.16126
1178.29435,0.16138
1180.22282,0.16071
1182.15129,0.15861
1184.07976,0.15847
1186.00823,0.16304
1187.93669,0.16870
1189.86516,0.16982
1191.79363,0.16668
1193.72210,0.16280
1195.65057,0.16120
1197.57904,0.16345
1199.50751,0.16643
1201.43597,0.16673
1203.36444,0.16487
1205.29291,0.16170
1207.22138,0.15970
1209.14985,0.16085
1211.07832,0.16468
1213.00679,0.16832
1214.93526,0.16840
1216.86372,0.16788
1218.79219,0.16952
1220.72066,0.17093
1222.64913,0.17018
1224.57760,0.16897
1226.50607,0.17044
1228.43454,0.17218
1230.36300,0.17191
1232.29147,0.17184
1234.21994,0.16994
1236.14841,0.16473
1238.07688,0.16235
1240.00535,0.16390
1241.93382,0.16283
1243.86229,0.15999
1245.79075,0.16155
1247.71922,0.16716
1249.64769,0.17043
1251.57616,0.16749
1253.50463,0.16257
1255.43310,0.16224
1257.36157,0.16702
1259.29003,0.16981
1261.21850,0.16516
1263.14697,0.16018
1265.07544,0.16224
1267.00391,0.16639
1268.93238,0.16859
1270.86085,0.17214
1272.78932,0.17537
1274.71778,0.17322
1276.64625,0.16900
1278.57472,0.16844
1280.50319,0.17004
1282.43166,0.17120
1284.36013,0.17339
1286.28860,0.17519
1288.21706,0.17527
1290.14553,0.17727
1292.07400,0.17910
1294.00247,0.17792
1295.93094,0.17712
1297.85941,0.17560
1299.78788,0.17012
1301.71634,0.16220
1303.64481,0.15593
1305.57328,0.15680
1307.50175,0.16334
1309.43022,0.16757
1311.35869,0.17129
1313.28716,0.17606
1315.21563,0.17496
1317.14409,0.17051
1319.07256,0.16957
1321.00103,0.17150
1322.92950,0.17244
1324.85797,0.17236
1326.78644,0.17300
1328.71491,0.17224
1330.64337,0.17030
1332.57184,0.16955
1334.50031,0.16782
1336.42878,0.16543
1338.35725,0.16690
1340.28572,0.16999
1342.21419,0.17125
1344.14266,0.17084
1346.07112,0.16815
1347.99959,0.16799
1349.92806,0.17238
1351.85653,0.17565
1353.78500,0.17477
1355.71347,0.17325
1357.64194,0.17637
1359.57040,0.18164
1361.49887,0.18304
1363.42734,0.18126
1365.35581,0.18160
1367.28428,0.18271
1369.21275,0.18074
1371.14122,0.17934
1373.06969,0.18160
1374.99815,0.18208
1376.92662,0.18001
1378.85509,0.17948
1380.78356,0.17896
1382.71203,0.17716
1384.64050,0.17592
1386.56897,0.17723
1388.49743,0.17999
1390.42590,0.18360
1392.35437,0.18936
1394.28284,0.19368
1396.21131,0.19168
1398.13978,0.18422
1400.06825,0.17695
1401.99672,0.17537
1403.92518,0.17759
1405.85365,0.18140
1407.78212,0.18603
1409.71059,0.18933
1411.63906,0.18953
1413.56753,0.18771
1415.49600,0.18797
1417.42446,0.19130
1419.35293,0.19207
1421.28140,0.18971
1423.20987,0.18890
1425.13834,0.18905
1427.06681,0.18955
1428.99528,0.18954
1430.92375,0.18743
1432.85221,0.18430
1434.78068,0.18347
1436.70915,0.18662
1438.63762,0.18867
1440.56609,0.18667
1442.49456,0.18350
1444.42303,0.18261
1446.35149,0.18547
1448.27996,0.18947
1450.20843,0.19146
1452.13690,0.19287
1454.06537,0.19640
1455.99384,0.20304
1457.92231,0.20372
1459.85077,0.19483
1461.77924,0.18773
1463.70771,0.18332
1465.63618,0.18204
1467.56465,0.18340
1469.49312,0.18731
1471.42159,0.19722
1473.35006,0.20875
1475.27852,0.20878
1477.20699,0.20307
1479.13546,0.19787
1481.06393,0.19194
1482.99240,0.18679
1484.92087,0.18715
1486.84934,0.19446
1488.77780,0.20336
1490.70627,0.20183
1492.63474,0.19671
1494.56321,0.19904
1496.49168,0.20656
1498.42015,0.20726
1500.34862,0.19983
1502.27709,0.19521
1504.20555,0.19835
1506.13402,0.21247
1508.06249,0.22163
1509.99096,0.21391
1511.91943,0.20629
1513.84790,0.20408
1515.77637,0.20990
1517.70483,0.21798
1519.63330,0.22370
1521.56177,0.22853
1523.49024,0.22323
1525.41871,0.21223
1527.34718,0.20292
1529.27565,0.19912
1531.20412,0.20232
1533.13258,0.20668
1535.06105,0.20668
1536.98952,0.21378
1538.91799,0.23608
1540.84646,0.25089
1542.77493,0.23570
1544.70340,0.21747
1546.63186,0.20449
1548.56033,0.19969
1550.48880,0.20099
1552.41727,0.20632
1554.34574,0.21416
1556.27421,0.22111
1558.20268,0.22019
1560.13115,0.20189
1562.05961,0.19287
1563.98808,0.19040
1565.91655,0.18798
1567.84502,0.18889
1569.77349,0.19300
1571.70196,0.19587
1573.63043,0.20148
1575.55889,0.20765
1577.48736,0.19999
1579.41583,0.18823
1581.34430,0.18380
1583.27277,0.18316
1585.20124,0.18449
1587.12971,0.18715
1589.05818,0.18649
1590.98664,0.18321
1592.91511,0.18572
1594.84358,0.19273
1596.77205,0.19318
1598.70052,0.18958
1600.62899,0.18891
1602.55746,0.18923
1604.48592,0.18936
1606.41439,0.18880
1608.34286,0.18784
1610.27133,0.18865
1612.19980,0.19104
1614.12827,0.19663
1616.05674,0.20594
1617.98521,0.20690
1619.91367,0.20122
1621.84214,0.20048
1623.77061,0.20197
1625.69908,0.20150
1627.62755,0.20184
1629.55602,0.20225
1631.48449,0.20408
1633.41295,0.21312
1635.34142,0.22640
1637.26989,0.21922
1639.19836,0.20226
1641.12683,0.19478
1643.05530,0.19857
1644.98377,0.21176
1646.91223,0.22563
1648.84070,0.22839
1650.76917,0.23319
1652.69764,0.24130
1654.62611,0.22423
1656.55458,0.20591
1658.48305,0.20120
1660.41152,0.20526
1662.33998,0.20956
1664.26845,0.20717
1666.19692,0.20644
1668.12539,0.21275
1670.05386,0.21665
1671.98233,0.21160
1673.91080,0.20777
1675.83926,0.20541
1677.76773,0.20473
1679.69620,0.20979
1681.62467,0.22005
1683.55314,0.22846
1685.48161,0.21970
1687.41008,0.20852
1689.33855,0.20418
1691.26701,0.20245
1693.19548,0.20558
1695.12395,0.21802
1697.05242,0.23021
1698.98089,0.22736
1700.90936,0.21612
1702.83783,0.21017
1704.76629,0.20836
1706.69476,0.20618
1708.62323,0.20256
1710.55170,0.19998
1712.48017,0.20229
1714.40864,0.20875
1716.33711,0.21226
1718.26558,0.20557
1720.19404,0.19784
1722.12251,0.19450
1724.05098,0.19340
1725.97945,0.19421
1727.90792,0.19659
1729.83639,0.20203
1731.76486,0.21254
1733.69332,0.21741
1735.62179,0.20665
1737.55026,0.20033
1739.47873,0.20118
1741.40720,0.20057
1743.33567,0.19782
1745.26414,0.19810
1747.19261,0.20306
1749.12107,0.20867
1751.04954,0.20675
1752.97801,0.19820
1754.90648,0.19228
1756.83495,0.19263
1758.76342,0.19670
1760.69189,0.20009
1762.62035,0.19905
1764.54882,0.19564
1766.47729,0.19524
1768.40576,0.19810
1770.33423,0.20342
1772.26270,0.20743
1774.19117,0.20467
1776.11964,0.20066
1778.04810,0.19898
1779.97657,0.19821
1781.90504,0.19690
1783.83351,0.19493
1785.76198,0.19299
1787.69045,0.19321
1789.61892,0.19661
1791.54738,0.20107
1793.47585,0.20155
1795.40432,0.19862
1797.33279,0.19696
1799.26126,0.19751
1801.18973,0.19727
1803.11820,0.19503
1805.04666,0.19426
1806.97513,0.19414
1808.90360,0.19216
1810.83207,0.19092
1812.76054,0.19130
1814.68901,0.19079
1816.61748,0.19099
1818.54595,0.19361
1820.47441,0.19604
1822.40288,0.19759
1824.33135,0.19905
1826.25982,0.19899
1828.18829,0.19790
1830.11676,0.19499
1832.04523,0.19032
1833.97369,0.19026
1835.90216,0.19580
1837.83063,0.19832
1839.75910,0.19461
1841.68757,0.19281
1843.61604,0.19640
1845.54451,0.19758
1847.47298,0.19399
1849.40144,0.19228
1851.32991,0.19270
1853.25838,0.19164
1855.18685,0.18855
1857.11532,0.18636
1859.04379,0.18809
1860.97226,0.19171
1862.90072,0.19263
1864.82919,0.19262
1866.75766,0.19591
1868.68613,0.19916
1870.61460,0.19770
1872.54307,0.19342
1874.47154,0.18876
1876.40001,0.18761
1878.32847,0.19071
1880.25694,0.19369
1882.18541,0.19474
1884.11388,0.19426
1886.04235,0.19290
1887.97082,0.19335
1889.89929,0.19487
1891.82775,0.19492
1893.75622,0.19492
1895.68469,0.19459
1897.61316,0.19254
1899.54163,0.19066
1901.47010,0.19190
1903.39857,0.19509
1905.32704,0.19614
1907.25550,0.19504
1909.18397,0.19413
1911.11244,0.19317
1913.04091,0.19191
1914.96938,0.19268
1916.89785,0.19561
1918.82632,0.19659
1920.75478,0.19595
1922.68325,0.19602
1924.61172,0.19486
1926.54019,0.19398
1928.46866,0.19433
1930.39713,0.19318
1932.32560,0.19240
1934.25407,0.19320
1936.18253,0.19096
1938.11100,0.18584
1940.03947,0.18374
1941.96794,0.18630
1943.89641,0.18899
1945.82488,0.18828
1947.75335,0.18718
1949.68181,0.18900
1951.61028,0.19195
1953.53875,0.19330
1955.46722,0.19304
1957.39569,0.19242
1959.32416,0.19215
1961.25263,0.19134
1963.18110,0.19020
1965.10956,0.19095
1967.03803,0.19163
1968.96650,0.19007
1970.89497,0.19028
1972.82344,0.19265
1974.75191,0.19270
1976.68038,0.18978
1978.60884,0.18769
1980.53731,0.18860
1982.46578,0.19049
1984.39425,0.19262
1986.32272,0.19571
1988.25119,0.19760
1990.17966,0.19656
1992.10812,0.19397
1994.03659,0.19288
1995.96506,0.19412
1997.89353,0.19475
1999.82200,0.19429
2001.75047,0.19293
2003.67894,0.18855
2005.60741,0.18481
2007.53587,0.18676
2009.46434,0.19091
2011.39281,0.19233
2013.32128,0.19244
2015.24975,0.19411
2017.17822,0.19600
2019.10669,0.19534
2021.03515,0.19327
2022.96362,0.19224
2024.89209,0.19232
2026.82056,0.19317
2028.74903,0.19531
2030.67750,0.19796
2032.60597,0.19890
2034.53444,0.19791
2036.46290,0.19755
2038.39137,0.19822
2040.31984,0.19740
2042.24831,0.19570
2044.17678,0.19560
2046.10525,0.19525
2048.03372,0.19384
2049.96218,0.19361
2051.89065,0.19411
2053.81912,0.19388
2055.74759,0.19263
2057.67606,0.19179
2059.60453,0.19235
2061.53300,0.19267
2063.46147,0.19313
2065.38993,0.19429
2067.31840,0.19535
2069.24687,0.19706
2071.17534,0.19865
2073.10381,0.19896
2075.03228,0.19839
2076.96075,0.19652
2078.88921,0.19503
2080.81768,0.19613
2082.74615,0.19733
2084.67462,0.19728
2086.60309,0.19703
2088.53156,0.19614
2090.46003,0.19515
2092.38850,0.19387
2094.31696,0.19091
2096.24543,0.18777
2098.17390,0.18803
2100.10237,0.19157
2102.03084,0.19461
2103.95931,0.19524
2105.88778,0.19517
2107.81624,0.19696
2109.74471,0.19923
2111.67318,0.19978
2113.60165,0.19895
2115.53012,0.19655
2117.45859,0.19344
2119.38706,0.19181
2121.31553,0.19227
2123.24399,0.19285
2125.17246,0.19250
2127.10093,0.19315
2129.02940,0.19584
2130.95787,0.19813
2132.88634,0.19721
2134.81481,0.19572
2136.74327,0.19672
2138.67174,0.19750
2140.60021,0.19742
2142.52868,0.19856
2144.45715,0.19920
2146.38562,0.19815
2148.31409,0.19799
2150.24255,0.19881
2152.17102,0.19834
2154.09949,0.19741
2156.02796,0.19622
2157.95643,0.19449
2159.88490,0.19468
2161.81337,0.19711
2163.74184,0.19861
2165.67030,0.19629
2167.59877,0.19308
2169.52724,0.19410
2171.45571,0.19733
2173.38418,0.19830
2175.31265,0.19739
2177.24112,0.19621
2179.16958,0.19435
2181.09805,0.19290
2183.02652,0.19376
2184.95499,0.19575
2186.88346,0.19693
2188.81193,0.19765
2190.74040,0.19878
2192.66887,0.19930
2194.59733,0.19828
2196.52580,0.19598
2198.45427,0.19443
2200.38274,0.19557
2202.31121,0.19692
2204.23968,0.19605
2206.16815,0.19410
2208.09661,0.19201
2210.02508,0.19026
2211.95355,0.19002
2213.88202,0.19236
2215.81049,0.19608
2217.73896,0.19722
2219.66743,0.19503
2221.59590,0.19294
2223.52436,0.19313
2225.45283,0.19489
2227.38130,0.19619
2229.30977,0.19577
2231.23824,0.19357
2233.16671,0.19194
2235.09518,0.19304
2237.02364,0.19504
2238.95211,0.19534
2240.88058,0.19321
2242.80905,0.19011
2244.73752,0.18816
2246.66599,0.18683
2248.59446,0.18578
2250.52293,0.18801
2252.45139,0.19208
2254.37986,0.19284
2256.30833,0.19254
2258.23680,0.19512
2260.16527,0.19784
2262.09374,0.19789
2264.02221,0.19766
2265.95067,0.19759
2267.87914,0.19424
2269.80761,0.19053
2271.73608,0.19193
2273.66455,0.19572
2275.59302,0.19755
2277.52149,0.19751
2279.44996,0.19577
2281.37842,0.19403
2283.30689,0.19536
2285.23536,0.19762
2287.16383,0.19658
2289.09230,0.19296
2291.02077,0.19005
2292.94924,0.18746
2294.87770,0.18310
2296.80617,0.17939
2298.73464,0.18129
2300.66311,0.18732
2302.59158,0.18999
2304.52005,0.18774
2306.44852,0.18397
2308.37699,0.17961
2310.30545,0.17767
2312.23392,0.17920
2314.16239,0.17712
2316.09086,0.17043
2318.01933,0.16752
2319.94780,0.17207
2321.87627,0.17949
2323.80473,0.17789
2325.73320,0.16325
2327.66167,0.15267
2329.59014,0.15623
2331.51861,0.16345
2333.44708,0.16500
2335.37555,0.16040
2337.30401,0.15368
2339.23248,0.15113
2341.16095,0.15518
2343.08942,0.16129
2345.01789,0.16502
2346.94636,0.16748
2348.87483,0.16879
2350.80330,0.16860
2352.73176,0.16735
2354.66023,0.16423
2356.58870,0.16290
2358.51717,0.16995
2360.44564,0.17846
2362.37411,0.17978
2364.30258,0.16637
2366.23104,0.14520
2368.15951,0.14331
2370.08798,0.15837
2372.01645,0.17165
2373.94492,0.17637
2375.87339,0.17274
2377.80186,0.17106
2379.73033,0.17666
2381.65879,0.18288
2383.58726,0.18660
2385.51573,0.18896
2387.44420,0.19027
2389.37267,0.19084
2391.30114,0.19121
2393.22961,0.19350
2395.15807,0.19632
2397.08654,0.19521
2399.01501,0.19296
2400.94348,0.19319
2402.87195,0.19374
2404.80042,0.19433
2406.72889,0.19675
2408.65736,0.19908
2410.58582,0.19878
2412.51429,0.19789
2414.44276,0.19807
2416.37123,0.19719
2418.29970,0.19482
2420.22817,0.19372
2422.15664,0.19537
2424.08510,0.19788
2426.01357,0.19919
2427.94204,0.20006
2429.87051,0.20217
2431.79898,0.20440
2433.72745,0.20354
2435.65592,0.20049
2437.58439,0.19847
2439.51285,0.19729
2441.44132,0.19645
2443.36979,0.19617
2445.29826,0.19668
2447.22673,0.19750
2449.15520,0.19677
2451.08367,0.19405
2453.01213,0.19023
2454.94060,0.18866
2456.86907,0.19269
2458.79754,0.19916
2460.72601,0.20219
2462.65448,0.20141
2464.58295,0.20032
2466.51142,0.19947
2468.43988,0.19806
2470.36835,0.19656
2472.29682,0.19533
2474.22529,0.19433
2476.15376,0.19478
2478.08223,0.19755
2480.01070,0.20078
2481.93916,0.20334
2483.86763,0.20418
2485.79610,0.20208
2487.72457,0.19870
2489.65304,0.19667
2491.58151,0.19614
2493.50998,0.19588
2495.43844,0.19684
2497.36691,0.19849
2499.29538,0.19815
2501.22385,0.19617
2503.15232,0.19455
2505.08079,0.19523
2507.00926,0.19767
2508.93773,0.19861
2510.86619,0.19798
2512.79466,0.19741
2514.72313,0.19713
2516.65160,0.19798
2518.58007,0.19988
2520.50854,0.20110
2522.43701,0.20167
2524.36547,0.20289
2526.29394,0.20335
2528.22241,0.20208
2530.15088,0.20160
2532.07935,0.20208
2534.00782,0.20061
2535.93629,0.19858
2537.86476,0.19906
2539.79322,0.19966
2541.72169,0.19925
2543.65016,0.19998
2545.57863,0.20025
2547.50710,0.19829
2549.43557,0.19664
2551.36404,0.19684
2553.29250,0.19797
2555.22097,0.20107
2557.14944,0.20484
2559.07791,0.20539
2561.00638,0.20402
2562.93485,0.20366
2564.86332,0.20323
2566.79179,0.20129
2568.72025,0.19945
2570.64872,0.19967
2572.57719,0.20220
2574.50566,0.20542
2576.43413,0.20565
2578.36260,0.20302
2580.29107,0.20271
2582.21953,0.20483
2584.14800,0.20499
2586.07647,0.20349
2588.00494,0.20259
2589.93341,0.20212
2591.86188,0.20100
2593.79035,0.19906
2595.71882,0.19715
2597.64728,0.19695
2599.57575,0.19832
2601.50422,0.19795
2603.43269,0.19723
2605.36116,0.19908
2607.28963,0.20050
2609.21810,0.20170
2611.14656,0.20524
2613.07503,0.20590
2615.00350,0.20100
2616.93197,0.19717
2618.86044,0.19806
2620.78891,0.20209
2622.71738,0.20567
2624.64585,0.20570
2626.57431,0.20478
2628.50278,0.20509
2630.43125,0.20476
2632.35972,0.20323
2634.28819,0.20206
2636.21666,0.20153
2638.14513,0.20049
2640.07359,0.20063
2642.00206,0.20275
2643.93053,0.20346
2645.85900,0.20388
2647.78747,0.20649
2649.71594,0.20791
2651.64441,0.20675
2653.57288,0.20565
2655.50134,0.20535
2657.42981,0.20476
2659.35828,0.20283
2661.28675,0.20058
2663.21522,0.20044
2665.14369,0.20211
2667.07216,0.20344
2669.00062,0.20405
2670.92909,0.20496
2672.85756,0.20734
2674.78603,0.20956
2676.71450,0.20840
2678.64297,0.20623
2680.57144,0.20689
2682.49990,0.20873
2684.42837,0.20882
2686.35684,0.20685
2688.28531,0.20486
2690.21378,0.20479
2692.14225,0.20500
2694.07072,0.20372
2695.99919,0.20332
2697.92765,0.20504
2699.85612,0.20631
2701.78459,0.20691
2703.71306,0.20748
2705.64153,0.20671
2707.57000,0.20623
2709.49847,0.20703
2711.42693,0.20763
2713.35540,0.20743
2715.28387,0.20588
2717.21234,0.20612
2719.14081,0.20988
2721.06928,0.21319
2722.99775,0.21360
2724.92622,0.21136
2726.85468,0.20824
2728.78315,0.20635
2730.71162,0.20689
2732.64009,0.20861
2734.56856,0.20876
2736.49703,0.20723
2738.42550,0.20580
2740.35396,0.20648
2742.28243,0.20864
2744.21090,0.20898
2746.13937,0.20616
2748.06784,0.20274
2749.99631,0.20306
2751.92478,0.20578
2753.85325,0.20722
2755.78171,0.20949
2757.71018,0.21318
2759.63865,0.21376
2761.56712,0.21128
2763.49559,0.21090
2765.42406,0.21255
2767.35253,0.21356
2769.28099,0.21334
2771.20946,0.21152
2773.13793,0.21001
2775.06640,0.21083
2776.99487,0.21379
2778.92334,0.21562
2780.85181,0.21458
2782.78028,0.21495
2784.70874,0.21556
2786.63721,0.21304
2788.56568,0.21283
2790.49415,0.21663
2792.42262,0.21854
2794.35109,0.21833
2796.27956,0.21916
2798.20802,0.21927
2800.13649,0.21687
2802.06496,0.21346
2803.99343,0.21142
2805.92190,0.21303
2807.85037,0.21769
2809.77884,0.22221
2811.70731,0.22283
2813.63577,0.21704
2815.56424,0.20877
2817.49271,0.20621
2819.42118,0.21056
2821.34965,0.21435
2823.27812,0.21378
2825.20659,0.21345
2827.13505,0.21602
2829.06352,0.21812
2830.99199,0.21792
2832.92046,0.21585
2834.84893,0.21251
2836.77740,0.21182
2838.70587,0.21481
2840.63433,0.21747
2842.56280,0.21766
2844.49127,0.21556
2846.41974,0.21401
2848.34821,0.21726
2850.27668,0.22226
2852.20515,0.22149
2854.13362,0.21608
2856.06208,0.21251
2857.99055,0.21281
2859.91902,0.21546
2861.84749,0.21826
2863.77596,0.21954
2865.70443,0.21995
2867.63290,0.22032
2869.56136,0.21939
2871.48983,0.21966
2873.41830,0.22282
2875.34677,0.22383
2877.27524,0.22049
2879.20371,0.21743
2881.13218,0.21769
2883.06065,0.21761
2884.98911,0.21524
2886.91758,0.21388
2888.84605,0.21504
2890.77452,0.21596
2892.70299,0.21489
2894.63146,0.21491
2896.55993,0.21671
2898.48839,0.21819
2900.41686,0.21899
2902.34533,0.21908
2904.27380,0.21909
2906.20227,0.21911
2908.13074,0.21833
2910.05921,0.21623
2911.98768,0.21434
2913.91614,0.21517
2915.84461,0.21711
2917.77308,0.21660
2919.70155,0.21450
2921.63002,0.21369
2923.55849,0.21341
2925.48696,0.21224
2927.41542,0.21136
2929.34389,0.21248
2931.27236,0.21582
2933.20083,0.21694
2935.12930,0.21264
2937.05777,0.20825
2938.98624,0.20947
2940.91471,0.21539
2942.84317,0.21980
2944.77164,0.21776
2946.70011,0.21206
2948.62858,0.20916
2950.55705,0.21084
2952.48552,0.21268
2954.41399,0.21228
2956.34245,0.20972
2958.27092,0.20686
2960.19939,0.20776
2962.12786,0.21189
2964.05633,0.21650
2965.98480,0.21757
2967.91327,0.21398
2969.84174,0.21265
2971.77020,0.21653
2973.69867,0.22021
2975.62714,0.21833
2977.55561,0.21421
2979.48408,0.21667
2981.41255,0.22545
2983.34102,0.23066
2985.26948,0.22719
2987.19795,0.21941
2989.12642,0.21381
2991.05489,0.21299
2992.98336,0.21501
2994.91183,0.21745
2996.84030,0.21832
2998.76877,0.21734
3000.69723,0.21910
3002.62570,0.22427
3004.55417,0.22507
3006.48264,0.21981
3008.41111,0.21502
3010.33958,0.21080
3012.26805,0.20433
3014.19651,0.19462
3016.12498,0.18691
3018.05345,0.19409
3019.98192,0.21043
3021.91039,0.21986
3023.83886,0.22318
3025.76733,0.22341
3027.69579,0.22161
3029.62426,0.22400
3031.55273,0.23045
3033.48120,0.23298
3035.40967,0.22782
3037.33814,0.21959
3039.26661,0.21653
3041.19508,0.21970
3043.12354,0.22320
3045.05201,0.22358
3046.98048,0.22103
3048.90895,0.22025
3050.83742,0.22324
3052.76589,0.22410
3054.69436,0.21996
3056.62282,0.21432
3058.55129,0.21052
3060.47976,0.20994
3062.40823,0.21388
3064.33670,0.21740
3066.26517,0.21443
3068.19364,0.21126
3070.12211,0.21384
3072.05057,0.21759
3073.97904,0.21548
3075.90751,0.20872
3077.83598,0.20753
3079.76445,0.21233
3081.69292,0.21428
3083.62139,0.21257
3085.54985,0.21322
3087.47832,0.21722
3089.40679,0.21844
3091.33526,0.21760
3093.26373,0.21939
3095.19220,0.22192
3097.12067,0.22182
3099.04914,0.21797
3100.97760,0.21300
3102.90607,0.21217
3104.83454,0.21784
3106.76301,0.22415
3108.69148,0.22466
3110.61995,0.22024
3112.54842,0.21573
3114.47688,0.21682
3116.40535,0.21954
3118.33382,0.21591
3120.26229,0.21207
3122.19076,0.21609
3124.11923,0.22190
3126.04770,0.22208
3127.97617,0.22033
3129.90463,0.21950
3131.83310,0.21819
3133.76157,0.21843
3135.69004,0.22028
3137.61851,0.22328
3139.54698,0.22974
3141.47545,0.23339
3143.40391,0.22795
3145.33238,0.22124
3147.26085,0.21923
3149.18932,0.22116
3151.11779,0.22822
3153.04626,0.23636
3154.97473,0.23878
3156.90320,0.23645
3158.83166,0.23175
3160.76013,0.22546
3162.68860,0.22267
3164.61707,0.22762
3166.54554,0.23309
3168.47401,0.23011
3170.40248,0.22543
3172.33094,0.22669
3174.25941,0.22833
3176.18788,0.22638
3178.11635,0.22515
3180.04482,0.22915
3181.97329,0.23576
3183.90176,0.23793
3185.83022,0.23395
3187.75869,0.22905
3189.68716,0.22671
3191.61563,0.22593
3193.54410,0.22476
3195.47257,0.22323
3197.40104,0.22685
3199.32951,0.23192
3201.25797,0.22740
3203.18644,0.22137
3205.11491,0.22358
3207.04338,0.22536
3208.97185,0.22242
3210.90032,0.22131
3212.82879,0.22424
3214.75725,0.22726
3216.68572,0.22725
3218.61419,0.22580
3220.54266,0.22345
3222.47113,0.22117
3224.39960,0.22185
3226.32807,0.22136
3228.25654,0.21788
3230.18500,0.21605
3232.11347,0.21803
3234.04194,0.22330
3235.97041,0.22575
3237.89888,0.22261
3239.82735,0.22157
3241.75582,0.22490
3243.68428,0.22487
3245.61275,0.22142
3247.54122,0.22344
3249.46969,0.22962
3251.39816,0.23175
3253.32663,0.22859
3255.25510,0.22490
3257.18357,0.22562
3259.11203,0.23038
3261.04050,0.23299
3262.96897,0.23078
3264.89744,0.22745
3266.82591,0.22525
3268.75438,0.22472
3270.68285,0.22484
3272.61131,0.22375
3274.53978,0.22414
3276.46825,0.22581
3278.39672,0.22543
3280.32519,0.22543
3282.25366,0.22687
3284.18213,0.22725
3286.11060,0.22454
3288.03906,0.21679
3289.96753,0.21016
3291.89600,0.21362
3293.82447,0.22349
3295.75294,0.23102
3297.68141,0.23223
3299.60988,0.22473
3301.53834,0.21491
3303.46681,0.21541
3305.39528,0.22307
3307.32375,0.22750
3309.25222,0.22925
3311.18069,0.22741
3313.10916,0.22173
3315.03763,0.21872
3316.96609,0.21836
3318.89456,0.21677
3320.82303,0.21597
3322.75150,0.21897
3324.67997,0.22329
3326.60844,0.22474
3328.53691,0.22552
3330.46537,0.22636
3332.39384,0.22192
3334.32231,0.21614
3336.25078,0.21736
3338.17925,0.22259
3340.10772,0.22423
3342.03619,0.22084
3343.96466,0.21845
3345.89312,0.22252
3347.82159,0.23060
3349.75006,0.23722
3351.67853,0.23862
3353.60700,0.23472
3355.53547,0.22994
3357.46394,0.22568
3359.39240,0.22190
3361.32087,0.22312
3363.24934,0.22865
3365.17781,0.23162
3367.10628,0.23199
3369.03475,0.23313
3370.96322,0.23214
3372.89168,0.22816
3374.82015,0.22442
3376.74862,0.22066
3378.67709,0.21868
3380.60556,0.21979
3382.53403,0.22204
3384.46250,0.22542
3386.39097,0.22811
3388.31943,0.22865
3390.24790,0.22755
3392.17637,0.22459
3394.10484,0.22221
3396.03331,0.22246
3397.96178,0.22286
3399.89025,0.22223
3401.81871,0.22233
3403.74718,0.22146
3405.67565,0.21748
3407.60412,0.21417
3409.53259,0.21376
3411.46106,0.21295
3413.38953,0.21367
3415.31800,0.22021
3417.24646,0.22559
3419.17493,0.22387
3421.10340,0.22229
3423.03187,0.22328
3424.96034,0.22042
3426.88881,0.21452
3428.81728,0.21135
3430.74574,0.21209
3432.67421,0.21514
3434.60268,0.21852
3436.53115,0.21803
3438.45962,0.21491
3440.38809,0.21589
3442.31656,0.21982
3444.24503,0.22088
3446.17349,0.21967
3448.10196,0.21705
3450.03043,0.21148
3451.95890,0.20798
3453.88737,0.20869
3455.81584,0.20604
3457.74431,0.20035
3459.67277,0.19815
3461.60124,0.19825
3463.52971,0.19786
3465.45818,0.19691
3467.38665,0.19588
3469.31512,0.19630
3471.24359,0.19782
3473.17206,0.19789
3475.10052,0.19829
3477.02899,0.20198
3478.95746,0.20544
3480.88593,0.20473
3482.81440,0.20095
3484.74287,0.19729
3486.67134,0.19588
3488.59980,0.19517
3490.52827,0.19209
3492.45674,0.18996
3494.38521,0.19140
3496.31368,0.19171
3498.24215,0.19124
3500.17062,0.19439
3502.09909,0.19799
3504.02755,0.19567
3505.95602,0.18970
3507.88449,0.18839
3509.81296,0.19056
3511.74143,0.18938
3513.66990,0.18639
3515.59837,0.18526
3517.52683,0.18763
3519.45530,0.19339
3521.38377,0.19801
3523.31224,0.19762
3525.24071,0.19520
3527.16918,0.19375
3529.09765,0.19000
3531.02611,0.18755
3532.95458,0.19195
3534.88305,0.19637
3536.81152,0.19387
3538.73999,0.18771
3540.66846,0.18316
3542.59693,0.17973
3544.52540,0.17657
3546.45386,0.17851
3548.38233,0.18234
3550.31080,0.17998
3552.23927,0.17678
3554.16774,0.17914
3556.09621,0.18116
3558.02468,0.17945
3559.95314,0.17824
3561.88161,0.17989
3563.81008,0.18412
3565.73855,0.18518
3567.66702,0.17597
3569.59549,0.16733
3571.52396,0.16392
3573.45243,0.16167
3575.38089,0.16208
3577.30936,0.16629
3579.23783,0.17148
3581.16630,0.17226
3583.09477,0.16915
3585.02324,0.16759
3586.95171,0.16445
3588.88017,0.15834
3590.80864,0.16000
3592.73711,0.16552
3594.66558,0.16497
3596.59405,0.16193
3598.52252,0.16195
3600.45099,0.16135
3602.37946,0.15954
3604.30792,0.15917
3606.23639,0.16218
3608.16486,0.16605
3610.09333,0.16659
3612.02180,0.16830
3613.95027,0.17208
3615.87874,0.17436
3617.80720,0.17379
3619.73567,0.16654
3621.66414,0.15620
3623.59261,0.15090
3625.52108,0.15257
3627.44955,0.16101
3629.37802,0.16956
3631.30649,0.16694
3633.23495,0.15858
3635.16342,0.15099
3637.09189,0.14735
3639.02036,0.14899
3640.94883,0.15364
3642.87730,0.15491
3644.80577,0.15552
3646.73423,0.16518
3648.66270,0.17876
3650.59117,0.17081
3652.51964,0.15608
3654.44811,0.14935
3656.37658,0.14509
3658.30505,0.14195
3660.23352,0.14199
3662.16198,0.14364
3664.09045,0.14484
3666.01892,0.14579
3667.94739,0.15011
3669.87586,0.15600
3671.80433,0.15595
3673.73280,0.15456
3675.66126,0.15108
3677.58973,0.14604
3679.51820,0.14589
3681.44667,0.14597
3683.37514,0.14396
3685.30361,0.14562
3687.23208,0.15306
3689.16055,0.15500
3691.08901,0.14600
3693.01748,0.14183
3694.94595,0.14364
3696.87442,0.14506
3698.80289,0.14380
3700.73136,0.14037
3702.65983,0.13660
3704.58829,0.13448
3706.51676,0.13365
3708.44523,0.13769
3710.37370,0.15012
3712.30217,0.15496
3714.23064,0.14613
3716.15911,0.13828
3718.08757,0.13364
3720.01604,0.13338
3721.94451,0.13738
3723.87298,0.14009
3725.80145,0.14068
3727.72992,0.14242
3729.65839,0.14524
3731.58686,0.14814
3733.51532,0.15283
3735.44379,0.15883
3737.37226,0.15810
3739.30073,0.15141
3741.22920,0.14785
3743.15767,0.15366
3745.08614,0.16045
3747.01460,0.15480
3748.94307,0.15252
3750.87154,0.15781
3752.80001,0.14857
3754.72848,0.13688
3756.65695,0.13729
3758.58542,0.14157
3760.51389,0.14030
3762.44235,0.13880
3764.37082,0.14192
3766.29929,0.14376
3768.22776,0.14023
3770.15623,0.13914
3772.08470,0.14062
3774.01317,0.13922
3775.94163,0.13995
3777.87010,0.14449
3779.79857,0.14415
3781.72704,0.13996
3783.65551,0.13940
3785.58398,0.13903
3787.51245,0.13631
3789.44092,0.13353
3791.36938,0.13083
3793.29785,0.13044
3795.22632,0.13506
3797.15479,0.13975
3799.08326,0.14061
3801.01173,0.13988
3802.94020,0.13678
3804.86866,0.13613
3806.79713,0.14086
3808.72560,0.14156
3810.65407,0.13439
3812.58254,0.13024
3814.51101,0.13566
3816.43948,0.14484
3818.36795,0.14909
3820.29641,0.14912
3822.22488,0.14242
3824.15335,0.13599
3826.08182,0.13444
3828.01029,0.13261
3829.93876,0.12951
3831.86723,0.13080
3833.79569,0.13667
3835.72416,0.14278
3837.65263,0.14801
3839.58110,0.14992
3841.50957,0.14809
3843.43804,0.14346
3845.36651,0.13822
3847.29498,0.13742
3849.22344,0.14116
3851.15191,0.14855
3853.08038,0.15582
3855.00885,0.14393
3856.93732,0.13067
3858.86579,0.12896
3860.79426,0.13366
3862.72272,0.13859
3864.65119,0.13911
3866.57966,0.13531
3868.50813,0.13041
3870.43660,0.13157
3872.36507,0.14018
3874.29354,0.14085
3876.22200,0.13113
3878.15047,0.12655
3880.07894,0.13226
3882.00741,0.13661
3883.93588,0.13502
3885.86435,0.13074
3887.79282,0.12685
3889.72129,0.12857
3891.64975,0.13181
3893.57822,0.12958
3895.50669,0.12973
3897.43516,0.13957
3899.36363,0.15176
3901.29210,0.15286
3903.22057,0.14851
3905.14903,0.14555
3907.07750,0.13834
3909.00597,0.12812
3910.93444,0.12209
3912.86291,0.12151
3914.79138,0.12159
3916.71985,0.12214
3918.64832,0.12235
3920.57678,0.12123
3922.50525,0.12321
3924.43372,0.12868
3926.36219,0.13252
3928.29066,0.13156
3930.21913,0.12671
3932.14760,0.12036
3934.07606,0.11735
3936.00453,0.12005
3937.93300,0.12119
3939.86147,0.11637
3941.78994,0.11508
3943.71841,0.12182
3945.64688,0.12570
3947.57535,0.12309
3949.50381,0.12121
3951.43228,0.12288
3953.36075,0.12176
3955.28922,0.11782
3957.21769,0.11668
3959.14616,0.11608
3961.07463,0.11165
3963.00309,0.10692
3964.93156,0.10689
3966.86003,0.10931
3968.78850,0.11233
3970.71697,0.11676
3972.64544,0.12079
3974.57391,0.12266
3976.50238,0.12033
3978.43084,0.11324
3980.35931,0.10582
3982.28778,0.10636
3984.21625,0.11366
3986.14472,0.11540
3988.07319,0.11169
3990.00166,0.11092
3991.93012,0.11242
3993.85859,0.11333
3995.78706,0.11368
3997.71553,0.11344
3999.64400,0.11339
4001.57247,0.11180
4003.50094,0.10815
4005.42941,0.10690
4007.35787,0.10892
4009.28634,0.11260
4011.21481,0.11321
4013.14328,0.10732
4015.07175,0.10428
4017.00022,0.10794
4018.92869,0.10893
4020.85715,0.10651
4022.78562,0.10584
4024.71409,0.10745
4026.64256,0.11025
4028.57103,0.10855
4030.49950,0.10099
4032.42797,0.09566
4034.35644,0.09535
4036.28490,0.09872
4038.21337,0.10721
4040.14184,0.11395
4042.07031,0.11266
4043.99878,0.11100
4045.92725,0.11244
4047.85572,0.11362
4049.78418,0.11359
4051.71265,0.11191
4053.64112,0.11126
4055.56959,0.11193
4057.49806,0.10925
4059.42653,0.10233
4061.35500,0.09613
4063.28346,0.09546
4065.21193,0.09727
4067.14040,0.09559
4069.06887,0.09318
4070.99734,0.09395
4072.92581,0.09549
4074.85428,0.09714
4076.78275,0.09888
4078.71121,0.09787
4080.63968,0.09508
4082.56815,0.09537
4084.49662,0.09668
4086.42509,0.09547
4088.35356,0.09635
4090.28203,0.10089
4092.21049,0.10458
4094.13896,0.10490
4096.06743,0.10257
4097.99590,0.10121
4099.92437,0.10297
4101.85284,0.10206
4103.78131,0.09514
4105.70978,0.08961
4107.63824,0.08916
4109.56671,0.09083
4111.49518,0.09166
4113.42365,0.08968
4115.35212,0.08848
4117.28059,0.09038
4119.20906,0.09022
4121.13752,0.08891
4123.06599,0.09178
4124.99446,0.09596
4126.92293,0.09733
4128.85140,0.09523
4130.77987,0.09338
4132.70834,0.09397
4134.63681,0.09200
4136.56527,0.08838
4138.49374,0.08757
4140.42221,0.08747
4142.35068,0.08596
4144.27915,0.08381
4146.20762,0.08342
4148.13609,0.08664
4150.06455,0.08966
4151.99302,0.08910
4153.92149,0.08683
4155.84996,0.08332
4157.77843,0.08007
4159.70690,0.07978
4161.63537,0.08370
4163.56384,0.09021
4165.49230,0.09062
4167.42077,0.08705
4169.34924,0.09166
4171.27771,0.09884
4173.20618,0.09596
4175.13465,0.08730
4177.06312,0.08311
4178.99158,0.08162
4180.92005,0.07723
4182.84852,0.07247
4184.77699,0.07218
4186.70546,0.07658
4188.63393,0.08041
4190.56240,0.08152
4192.49087,0.08440
4194.41933,0.08724
4196.34780,0.08295
4198.27627,0.07513
4200.20474,0.07293
4202.13321,0.07464
4204.06168,0.07571
4205.99015,0.07868
4207.91861,0.08447
4209.84708,0.08861
4211.77555,0.08701
4213.70402,0.08120
4215.63249,0.07711
4217.56096,0.07521
4219.48943,0.07508
4221.41789,0.07842
4223.34636,0.07756
4225.27483,0.07176
4227.20330,0.07291
4229.13177,0.07907
4231.06024,0.08015
4232.98871,0.07810
4234.91718,0.07963
4236.84564,0.08384
4238.77411,0.08565
4240.70258,0.08362
4242.63105,0.07823
4244.55952,0.07281
4246.48799,0.07289
4248.41646,0.07532
4250.34492,0.07847
4252.27339,0.08597
4254.20186,0.08942
4256.13033,0.08059
4258.05880,0.06971
4259.98727,0.07086
4261.91574,0.07702
4263.84421,0.07430
4265.77267,0.06716
4267.70114,0.06423
4269.62961,0.06431
4271.55808,0.06442
4273.48655,0.06591
4275.41502,0.06616
4277.34349,0.06578
4279.27195,0.07207
4281.20042,0.07692
4283.12889,0.07184
4285.05736,0.06517
4286.98583,0.05933
4288.91430,0.05342
4290.84277,0.05460
4292.77124,0.06097
4294.69970,0.06501
4296.62817,0.06998
4298.55664,0.07685
4300.48511,0.07731
4302.41358,0.06796
4304.34205,0.05931
4306.27052,0.06241
4308.19898,0.06913
4310.12745,0.06718
4312.05592,0.05828
4313.98439,0.05010
4315.91286,0.04979
4317.84133,0.05595
4319.76980,0.06008
4321.69827,0.06070
4323.62673,0.06074
4325.55520,0.05936
4327.48367,0.05482
4329.41214,0.04941
4331.34061,0.04678
4333.26908,0.05058
4335.19755,0.06105
4337.12601,0.06549
4339.05448,0.05821
4340.98295,0.05337
4342.91142,0.05764
4344.83989,0.06059
4346.76836,0.05687
4348.69683,0.05583
4350.62530,0.05934
4352.55376,0.05794
4354.48223,0.05288
4356.41070,0.05097
4358.33917,0.04910
4360.26764,0.04408
4362.19611,0.04200
4364.12458,0.04561
4366.05304,0.04756
4367.98151,0.04316
4369.90998,0.03956
4371.83845,0.04544
4373.76692,0.05399
4375.69539,0.05503
4377.62386,0.05176
4379.55232,0.04735
4381.48079,0.04181
4383.40926,0.04034
4385.33773,0.04180
4387.26620,0.04136
4389.19467,0.04515
4391.12314,0.05558
4393.05161,0.06145
4394.98007,0.05785
4396.90854,0.05309
4398.83701,0.04987
4400.76548,0.04321
4402.69395,0.03926
4404.62242,0.04410
4406.55089,0.05058
4408.47935,0.05361
4410.40782,0.05155
4412.33629,0.04564
4414.26476,0.04189
4416.19323,0.04132
4418.12170,0.04058
4420.05017,0.03863
4421.97864,0.03877
4423.90710,0.04192
4425.83557,0.03988
4427.76404,0.03091
4429.69251,0.02569
4431.62098,0.02738
4433.54945,0.02983
4435.47792,0.03111
4437.40638,0.03119
4439.33485,0.02665
4441.26332,0.02112
4443.19179,0.02127
4445.12026,0.02142
4447.04873,0.01726
4448.97720,0.01501
4450.90567,0.02007
4452.83413,0.02928
4454.76260,0.03253
4456.69107,0.02834
4458.61954,0.02538
4460.54801,0.02927
4462.47648,0.03171
4464.40495,0.02186
4466.33341,0.00866
4468.26188,0.00434
4470.19035,0.00895
4472.11882,0.01662
4474.04729,0.01728
4475.97576,0.01073
4477.90423,0.00837
4479.83270,0.00957
4481.76116,0.00839
4483.68963,0.01441
4485.61810,0.02978
4487.54657,0.03736
4489.47504,0.03407
4491.40351,0.02846
4493.33198,0.02349
4495.26044,0.02320
4497.18891,0.02597
4499.11738,0.02530
4501.04585,0.01869
4502.97432,0.00789
4504.90279,0.00314
4506.83126,0.00757
4508.75973,0.00849
4510.68819,0.00467
4512.61666,0.00962
4514.54513,0.02103
4516.47360,0.02231
4518.40207,0.01656
4520.33054,0.01572
4522.25901,0.01219
4524.18747,0.00331
4526.11594,0.00362
4528.04441,0.01368
4529.97288,0.01963
4531.90135,0.01653
4533.82982,0.00952
4535.75829,0.00692
4537.68676,0.01370
4539.61522,0.01898
4541.54369,0.01204
4543.47216,0.00421
4545.40063,0.00226
4547.32910,0.00296
4549.25757,0.01087
4551.18604,0.02177
4553.11450,0.02618
4555.04297,0.02478
4556.97144,0.02124
4558.89991,0.01984
4560.82838,0.01902
4562.75685,0.01214
4564.68532,0.00396
4566.61378,0.00098
4568.54225,0.00247
4570.47072,0.00968
4572.39919,0.01628
4574.32766,0.01751
4576.25613,0.01533
4578.18460,0.00951
4580.11307,0.00934
4582.04153,0.01485
4583.97000,0.01127
4585.89847,0.00118
4587.82694,-0.00051
4589.75541,0.00585
4591.68388,0.00687
4593.61235,0.00496
4595.54081,0.00824
4597.46928,0.00819
4599.39775,0.00480
4601.32622,0.00613
4603.25469,0.00789
4605.18316,0.00993
4607.11163,0.01486
4609.04010,0.01595
4610.96856,0.01428
4612.89703,0.01617
4614.82550,0.01334
4616.75397,0.00449
4618.68244,0.00412
4620.61091,0.00895
4622.53938,0.00871
4624.46784,0.00761
4626.39631,0.01007
4628.32478,0.01132
4630.25325,0.00631
4632.18172,0.00439
4634.11019,0.01036
4636.03866,0.00803
4637.96713,-0.00445
4639.89559,-0.01013
4641.82406,-0.00346
4643.75253,0.00603
4645.68100,0.00542
4647.60947,-0.00148
4649.53794,0.00110
4651.46641,0.00748
4653.39487,0.00374
4655.32334,-0.00542
4657.25181,-0.00923
4659.18028,-0.00469
4661.10875,0.00551
4663.03722,0.01531
4664.96569,0.01837
4666.89416,0.01331
4668.82262,0.00852
4670.75109,0.00867
4672.67956,0.00560
4674.60803,0.00512
4676.53650,0.00836
4678.46497,0.00334
4680.39344,0.00281
4682.32190,0.01377
4684.25037,0.01345
4686.17884,-0.00318
4688.10731,-0.01229
4690.03578,-0.00375
4691.96425,0.00809
4693.89272,0.01342
4695.82119,0.01108
4697.74965,0.00531
4699.67812,0.00693
4701.60659,0.00802
4703.53506,-0.00042
4705.46353,-0.00540
4707.39200,-0.00357
4709.32047,-0.00013
4711.24893,0.00219
4713.17740,-0.00144
4715.10587,-0.00958
4717.03434,-0.01230
4718.96281,-0.00284
4720.89128,0.00839
4722.81975,0.01124
4724.74821,0.00938
4726.67668,0.00861
4728.60515,0.01179
4730.53362,0.01324
4732.46209,0.00887
4734.39056,0.00285
4736.31903,-0.00012
4738.24750,0.00215
4740.17596,0.00770
4742.10443,0.01701
4744.03290,0.02398
4745.96137,0.01668
4747.88984,0.00370
4749.81831,0.00290
4751.74678,0.00968
4753.67524,0.01163
4755.60371,0.01019
4757.53218,0.00977
4759.46065,0.01128
4761.38912,0.01080
4763.31759,0.00906
4765.24606,0.01534
4767.17453,0.02408
4769.10299,0.02101
4771.03146,0.01083
4772.95993,0.00642
4774.88840,0.00778
4776.81687,0.00545
4778.74534,-0.00453
4780.67381,-0.01088
4782.60227,-0.00438
4784.53074,0.00880
4786.45921,0.01413
4788.38768,0.00510
4790.31615,-0.00161
4792.24462,0.00171
4794.17309,0.00378
4796.10156,0.00440
4798.03002,0.00725
4799.95849,0.00956
4801.88696,0.00751
4803.81543,0.00061
4805.74390,-0.00072
4807.67237,0.00873
4809.60084,0.01772
4811.52930,0.02092
4813.45777,0.01917
4815.38624,0.01377
4817.31471,0.00822
4819.24318,0.00333
4821.17165,0.00044
4823.10012,-0.00287
4825.02859,-0.00686
4826.95705,-0.00518
4828.88552,0.00183
4830.81399,0.00349
4832.74246,-0.00556
4834.67093,-0.01210
4836.59940,-0.00402
4838.52787,0.01168
4840.45633,0.02195
4842.38480,0.02072
4844.31327,0.01107
4846.24174,0.00237
4848.17021,-0.00036
4850.09868,0.00561
4852.02715,0.02406
4853.95562,0.03970
4855.88408,0.03253
4857.81255,0.01268
4859.74102,0.00388
4861.66949,0.01165
4863.59796,0.02474
4865.52643,0.02922
4867.45490,0.01784
4869.38336,0.00141
4871.31183,-0.00452
4873.24030,-0.00265
4875.16877,-0.00368
4877.09724,-0.00622
4879.02571,-0.00620
4880.95418,-0.00297
4882.88265,0.00648
4884.81111,0.01994
4886.73958,0.02735
4888.66805,0.02090
4890.59652,0.00945
4892.52499,0.00749
4894.45346,0.01067
4896.38193,0.01236
4898.31039,0.01127
4900.23886,0.00243
4902.16733,-0.00553
4904.09580,-0.00526
4906.02427,-0.01127
4907.95274,-0.01843
4909.88121,-0.01520
4911.80967,-0.01395
4913.73814,-0.00921
4915.66661,0.00531
4917.59508,0.01555
4919.52355,0.01991
4921.45202,0.02274
4923.38049,0.02099
4925.30896,0.00857
4927.23742,-0.00794
4929.16589,-0.01231
4931.09436,-0.00655
4933.02283,-0.00006
4934.95130,0.00494
4936.87977,0.00553
4938.80824,0.00597
4940.73670,0.01345
4942.66517,0.02099
4944.59364,0.02168
4946.52211,0.01775
4948.45058,0.00956
4950.37905,0.00125
4952.30752,-0.00429
4954.23599,-0.01122
4956.16445,-0.00933
4958.09292,0.00707
4960.02139,0.01831
4961.94986,0.01709
4963.87833,0.01556
4965.80680,0.01244
4967.73527,0.00961
4969.66373,0.01649
4971.59220,0.01829
4973.52067,0.00494
4975.44914,-0.00187
4977.37761,0.00601
4979.30608,0.00911
4981.23455,0.00746
4983.16302,0.01767
4985.09148,0.03130
4987.01995,0.02914
4988.94842,0.01572
4990.87689,0.00996
4992.80536,0.01282
4994.73383,0.01530
4996.66230,0.01716
4998.59076,0.01820
5000.51923,0.01768
5002.44770,0.01867
5004.37617,0.01826
5006.30464,0.01454
5008.23311,0.02067
5010.16158,0.02782
5012.09005,0.01765
5014.01851,0.00762
5015.94698,0.00357
5017.87545,-0.00028
5019.80392,0.00841
5021.73239,0.02614
5023.66086,0.03776
5025.58933,0.03630
5027.51779,0.02458
5029.44626,0.01382
5031.37473,0.00584
5033.30320,-0.00264
5035.23167,-0.00400
5037.16014,0.00327
5039.08861,0.00780
5041.01708,0.00879
5042.94554,0.00885
5044.87401,0.00490
5046.80248,0.00574
5048.73095,0.01427
5050.65942,0.01484
5052.58789,0.00942
5054.51636,0.01698
5056.44482,0.03271
5058.37329,0.03854
5060.30176,0.04084
5062.23023,0.05268
5064.15870,0.06022
5066.08717,0.05151
5068.01564,0.04264
5069.94410,0.04406
5071.87257,0.04256
5073.80104,0.02489
5075.72951,-0.00212
5077.65798,-0.01330
5079.58645,0.00482
5081.51492,0.02508
5083.44339,0.02710
5085.37185,0.02923
5087.30032,0.03145
5089.22879,0.02874
5091.15726,0.03613
5093.08573,0.04371
5095.01420,0.03831
5096.94267,0.02740
5098.87113,0.01629
5100.79960,0.00952
5102.72807,0.01194
5104.65654,0.01813
5106.58501,0.02128
5108.51348,0.02517
5110.44195,0.03578
5112.37042,0.04342
5114.29888,0.03190
5116.22735,0.01613
5118.15582,0.01701
5120.08429,0.02864
5122.01276,0.04159
5123.94123,0.04424
5125.86970,0.03437
5127.79816,0.02257
5129.72663,0.01469
5131.65510,0.01872
5133.58357,0.02394
5135.51204,0.02015
5137.44051,0.03250
5139.36898,0.05742
5141.29745,0.05230
5143.22591,0.01956
5145.15438,0.00525
5147.08285,0.02327
5149.01132,0.04579
5150.93979,0.04632
5152.86826,0.02716
5154.79673,0.00579
5156.72519,-0.01245
5158.65366,-0.01636
5160.58213,-0.00037
5162.51060,0.00903
5164.43907,-0.00221
5166.36754,-0.01212
5168.29601,-0.00854
5170.22448,0.00145
5172.15294,0.02279
5174.08141,0.05425
5176.00988,0.07297
5177.93835,0.06696
5179.86682,0.04597
5181.79529,0.03128
5183.72376,0.02756
5185.65222,0.02178
5187.58069,0.01850
5189.50916,0.02362
5191.43763,0.02744
5193.36610,0.02797
5195.29457,0.02917
5197.22304,0.03448
5199.15151,0.04405
5201.07997,0.05014
5203.00844,0.05033
5204.93691,0.04211
5206.86538,0.02916
5208.79385,0.02860
5210.72232,0.04492
5212.65079,0.06947
5214.57925,0.08036
5216.50772,0.06911
5218.43619,0.04935
5220.36466,0.03119
5222.29313,0.02606
5224.22160,0.03128
5226.15007,0.02536
5228.07854,0.01236
5230.00700,0.01571
5231.93547,0.02934
5233.86394,0.03419
5235.79241,0.03577
5237.72088,0.04154
5239.64935,0.04924
5241.57782,0.05984
5243.50628,0.06471
5245.43475,0.05838
5247.36322,0.05302
5249.29169,0.05467
5251.22016,0.05198
5253.14863,0.03717
5255.07710,0.02298
5257.00556,0.01507
5258.93403,0.01097
5260.86250,0.02205
5262.79097,0.04908
5264.71944,0.07244
5266.64791,0.07439
5268.57638,0.06244
5270.50485,0.05130
5272.43331,0.04638
5274.36178,0.04711
5276.29025,0.04769
5278.21872,0.05048
5280.14719,0.05389
5282.07566,0.04757
5284.00413,0.03996
5285.93259,0.03376
5287.86106,0.02186
5289.78953,0.02039
5291.71800,0.03628
5293.64647,0.04473
5295.57494,0.03910
5297.50341,0.03539
5299.43188,0.03541
5301.36034,0.03114
5303.28881,0.02931
5305.21728,0.02914
5307.14575,0.02307
5309.07422,0.02610
5311.00269,0.04824
5312.93116,0.06208
5314.85962,0.04322
5316.78809,0.02280
5318.71656,0.03886
5320.64503,0.06593
5322.57350,0.06358
5324.50197,0.03296
5326.43044,0.01551
5328.35891,0.03874
5330.28737,0.06490
5332.21584,0.06416
5334.14431,0.06683
5336.07278,0.09218
5338.00125,0.11167
5339.92972,0.10392
5341.85819,0.09441
5343.78665,0.10182
5345.71512,0.09272
5347.64359,0.05574
5349.57206,0.03677
5351.50053,0.04836
5353.42900,0.07068
5355.35747,0.09113
5357.28594,0.10151
5359.21440,0.09306
5361.14287,0.07406
5363.07134,0.07026
5364.99981,0.07502
5366.92828,0.06525
5368.85675,0.05521
5370.78522,0.05979
5372.71368,0.05881
5374.64215,0.03721
5376.57062,0.02620
5378.49909,0.04075
5380.42756,0.05496
5382.35603,0.06675
5384.28450,0.08244
5386.21297,0.09299
5388.14143,0.09549
5390.06990,0.10563
5391.99837,0.11659
5393.92684,0.10802
5395.85531,0.09352
5397.78378,0.08833
5399.71225,0.07679
5401.64071,0.04587
5403.56918,0.01722
5405.49765,0.03013
5407.42612,0.07548
5409.35459,0.10089
5411.28306,0.09135
5413.21153,0.06928
5415.13999,0.04216
5417.06846,0.03047
5418.99693,0.04551
5420.92540,0.04789
5422.85387,0.02524
5424.78234,0.02140
5426.71081,0.04044
5428.63928,0.05561
5430.56774,0.06459
5432.49621,0.06875
5434.42468,0.06981
5436.35315,0.07413
5438.28162,0.08627
5440.21009,0.10748
5442.13856,0.11857
5444.06702,0.09520
5445.99549,0.05009
5447.92396,0.02505
5449.85243,0.03190
5451.78090,0.05490
5453.70937,0.08024
5455.63784,0.09082
5457.56631,0.08076
5459.49477,0.06588
5461.42324,0.06579
5463.35171,0.08805
5465.28018,0.11182
5467.20865,0.10811
5469.13712,0.08219
5471.06559,0.06078
5472.99405,0.04316
5474.92252,0.03370
5476.85099,0.05996
5478.77946,0.09863
5480.70793,0.10426
5482.63640,0.08229
5484.56487,0.06361
5486.49334,0.05026
5488.42180,0.04502
5490.35027,0.06371
5492.27874,0.08461
5494.20721,0.08095
5496.13568,0.06798
5498.06415,0.05559
5499.99262,0.05437
5501.92108,0.07258
5503.84955,0.07880
5505.77802,0.05961
5507.70649,0.05486
5509.63496,0.08213
5511.56343,0.10434
5513.49190,0.09944
5515.42037,0.08495
5517.34883,0.07647
5519.27730,0.06755
5521.20577,0.05034
5523.13424,0.04924
5525.06271,0.07451
5526.99118,0.07214
5528.91965,0.03573
5530.84811,0.02560
5532.77658,0.04815
5534.70505,0.06894
5536.63352,0.07795
5538.56199,0.09080
5540.49046,0.10661
5542.41893,0.09784
5544.34740,0.08104
5546.27586,0.08386
5548.20433,0.07861
5550.13280,0.06143
5552.06127,0.05900
5553.98974,0.06106
5555.91821,0.05476
5557.84668,0.05556
5559.77514,0.06564
5561.70361,0.07141
5563.63208,0.07262
5565.56055,0.07007
5567.48902,0.05936
5569.41749,0.05328
5571.34596,0.06591
5573.27443,0.08190
5575.20289,0.08848
5577.13136,0.09784
5579.05983,0.11249
5580.98830,0.11446
5582.91677,0.09270
5584.84524,0.08212
5586.77371,0.09450
5588.70217,0.09966
5590.63064,0.10118
5592.55911,0.10307
5594.48758,0.10424
5596.41605,0.10575
5598.34452,0.08806
5600.27299,0.07145
5602.20145,0.08706
5604.12992,0.11125
5606.05839,0.12560
5607.98686,0.13032
5609.91533,0.10932
5611.84380,0.07594
5613.77227,0.05972
5615.70074,0.05269
5617.62920,0.05621
5619.55767,0.07512
5621.48614,0.08880
5623.41461,0.08864
5625.34308,0.07328
5627.27155,0.04580
5629.20002,0.04879
5631.12848,0.08702
5633.05695,0.11268
5634.98542,0.11959
5636.91389,0.11431
5638.84236,0.09643
5640.77083,0.08975
5642.69930,0.09269
5644.62777,0.08043
5646.55623,0.05961
5648.48470,0.04892
5650.41317,0.05228
5652.34164,0.07079
5654.27011,0.08542
5656.19858,0.07751
5658.12705,0.05795
5660.05551,0.05195
5661.98398,0.06827
5663.91245,0.08285
5665.84092,0.07912
5667.76939,0.05684
5669.69786,0.02185
5671.62633,0.00875
5673.55480,0.04018
5675.48326,0.08405
5677.41173,0.10296
5679.34020,0.08781
5681.26867,0.06260
5683.19714,0.07520
5685.12561,0.10546
5687.05408,0.10519
5688.98254,0.10178
5690.91101,0.10972
5692.83948,0.09809
5694.76795,0.07851
5696.69642,0.07388
5698.62489,0.07342
5700.55336,0.07522
5702.48183,0.08086
5704.41029,0.08495
5706.33876,0.10158
5708.26723,0.12185
5710.19570,0.12622
5712.12417,0.13096
5714.05264,0.13384
5715.98111,0.10785
5717.90957,0.07384
5719.83804,0.07368
5721.76651,0.08354
5723.69498,0.07082
5725.62345,0.06588
5727.55192,0.07565
5729.48039,0.07230
5731.40886,0.07865
5733.33732,0.11877
5735.26579,0.16639
5737.19426,0.17599
5739.12273,0.14025
5741.05120,0.10309
5742.97967,0.08845
5744.90814,0.08720
5746.83660,0.09314
5748.76507,0.09532
5750.69354,0.09419
5752.62201,0.09543
5754.55048,0.08810
5756.47895,0.06759
5758.40742,0.05385
5760.33588,0.05562
5762.26435,0.04087
5764.19282,0.02535
5766.12129,0.05001
5768.04976,0.06950
5769.97823,0.06513
5771.90670,0.06539
5773.83517,0.05992
5775.76363,0.05074
5777.69210,0.06737
5779.62057,0.10205
5781.54904,0.11280
5783.47751,0.09613
5785.40598,0.09544
5787.33445,0.13239
5789.26291,0.16877
5791.19138,0.17031
5793.11985,0.15481
5795.04832,0.14878
5796.97679,0.14949
5798.90526,0.11510
5800.83373,0.04790
5802.76220,0.02278
5804.69066,0.04937
5806.61913,0.05955
5808.54760,0.03569
5810.47607,0.01962
5812.40454,0.03472
5814.33301,0.05086
5816.26148,0.05758
5818.18994,0.06888
5820.11841,0.06824
5822.04688,0.06005
5823.97535,0.06612
5825.90382,0.07267
5827.83229,0.06817
5829.76076,0.06425
5831.68923,0.06630
5833.61769,0.07438
5835.54616,0.09526
5837.47463,0.11849
5839.40310,0.12603
5841.33157,0.11749
5843.26004,0.12015
5845.18851,0.13409
5847.11697,0.12046
5849.04544,0.10059
5850.97391,0.10487
5852.90238,0.09147
5854.83085,0.06241
5856.75932,0.06181
5858.68779,0.07863
5860.61626,0.08568
5862.54472,0.09560
5864.47319,0.11743
5866.40166,0.13311
5868.33013,0.13228
5870.25860,0.12410
5872.18707,0.10788
5874.11554,0.08616
5876.04400,0.07932
5877.97247,0.08886
5879.90094,0.09690
5881.82941,0.09732
5883.75788,0.10673
5885.68635,0.11259
5887.61482,0.08644
5889.54329,0.05440
5891.47175,0.03459
5893.40022,0.02616
5895.32869,0.03461
5897.25716,0.04612
5899.18563,0.05947
5901.11410,0.06751
5903.04257,0.06683
5904.97103,0.08380
5906.89950,0.09753
5908.82797,0.08406
5910.75644,0.08318
5912.68491,0.11262
5914.61338,0.13481
5916.54185,0.12341
5918.47032,0.08772
5920.39878,0.05948
5922.32725,0.04790
5924.25572,0.02546
5926.18419,0.01060
5928.11266,0.03479
5930.04113,0.07470
5931.96960,0.10872
5933.89806,0.12259
5935.82653,0.10995
5937.75500,0.08501
5939.68347,0.07118
5941.61194,0.09639
5943.54041,0.14390
5945.46888,0.16326
5947.39734,0.13711
5949.32581,0.09148
5951.25428,0.08549
5953.18275,0.12167
5955.11122,0.14348
5957.03969,0.15378
5958.96816,0.15799
5960.89663,0.12117
5962.82509,0.08089
5964.75356,0.08790
5966.68203,0.11069
5968.61050,0.11426
5970.53897,0.10345
5972.46744,0.08636
5974.39591,0.09437
5976.32437,0.12782
5978.25284,0.14057
5980.18131,0.13401
5982.10978,0.12820
5984.03825,0.11765
5985.96672,0.10320
5987.89519,0.08378
5989.82366,0.06051
5991.75212,0.04864
5993.68059,0.04525
5995.60906,0.06185
5997.53753,0.10585
5999.46600,0.14077
6001.39447,0.14668
6003.32294,0.13029
6005.25140,0.10411
6007.17987,0.07842
6009.10834,0.05435
6011.03681,0.01939
6012.96528,-0.00696
6014.89375,0.00994
6016.82222,0.04522
6018.75069,0.05150
6020.67915,0.03166
6022.60762,0.03114
6024.53609,0.06272
6026.46456,0.09045
6028.39303,0.08681
6030.32150,0.07895
6032.24997,0.08997
6034.17843,0.10889
6036.10690,0.16003
6038.03537,0.20145
6039.96384,0.17286
6041.89231,0.13237
6043.82078,0.11283
6045.74925,0.10117
6047.67772,0.09975
6049.60618,0.10183
6051.53465,0.11055
6053.46312,0.12490
6055.39159,0.14790
6057.32006,0.17232
6059.24853,0.14852
6061.17700,0.09414
6063.10546,0.06817
6065.03393,0.05261
6066.96240,0.03520
6068.89087,0.05618
6070.81934,0.10610
6072.74781,0.11963
6074.67628,0.09055
6076.60475,0.08209
6078.53321,0.10050
6080.46168,0.08261
6082.39015,0.05493
6084.31862,0.07722
6086.24709,0.09738
6088.17556,0.08726
6090.10403,0.07855
6092.03249,0.06349
6093.96096,0.06572
6095.88943,0.10547
6097.81790,0.11175
6099.74637,0.06256
6101.67484,0.05646
6103.60331,0.11127
6105.53177,0.15072
6107.46024,0.14888
6109.38871,0.11551
6111.31718,0.09786
6113.24565,0.13269
6115.17412,0.15909
6117.10259,0.12638
6119.03106,0.07413
6120.95952,0.05826
6122.88799,0.08284
6124.81646,0.10274
6126.74493,0.08122
6128.67340,0.05577
6130.60187,0.04440
6132.53034,0.02477
6134.45880,0.02328
6136.38727,0.03387
6138.31574,0.02864
6140.24421,0.05041
6142.17268,0.08763
6144.10115,0.07057
6146.02962,0.05068
6147.95809,0.08483
6149.88655,0.14657
6151.81502,0.17496
6153.74349,0.12782
6155.67196,0.07218
6157.60043,0.07115
6159.52890,0.06134
6161.45737,0.00446
6163.38583,-0.01671
6165.31430,0.00141
6167.24277,-0.00732
6169.17124,-0.00991
6171.09971,0.02075
6173.02818,0.04185
6174.95665,0.02990
6176.88512,0.03703
6178.81358,0.11335
6180.74205,0.17417
6182.67052,0.15012
6184.59899,0.12977
6186.52746,0.14219
6188.45593,0.11778
6190.38440,0.07378
6192.31286,0.05189
6194.24133,0.06011
6196.16980,0.11182
6198.09827,0.15097
6200.02674,0.10719
6201.95521,0.03174
6203.88368,0.01052
6205.81215,0.03624
6207.74061,0.06172
6209.66908,0.07354
6211.59755,0.08576
6213.52602,0.10454
6215.45449,0.09122
6217.38296,0.04564
6219.31143,0.02516
6221.23989,0.02149
6223.16836,-0.00283
6225.09683,-0.02478
6227.02530,-0.00343
6228.95377,0.06630
6230.88224,0.11529
6232.81071,0.07040
6234.73918,-0.01975
6236.66764,-0.06061
6238.59611,-0.04674
6240.52458,-0.03961
6242.45305,-0.01224
6244.38152,0.05719
6246.30999,0.07618
6248.23846,0.04986
6250.16692,0.04354
6252.09539,0.03338
6254.02386,0.00948
6255.95233,0.01625
6257.88080,0.02398
6259.80927,-0.01825
6261.73774,-0.06481
6263.66621,-0.05601
6265.59467,0.00207
6267.52314,0.05464
6269.45161,0.07224
6271.38008,0.06664
6273.30855,0.07744
6275.23702,0.12681
6277.16549,0.15273
6279.09395,0.11895
6281.02242,0.05107
6282.95089,-0.02239
6284.87936,-0.04007
6286.80783,0.02476
6288.73630,0.11458
6290.66477,0.17793
6292.59323,0.19963
6294.52170,0.17918
6296.45017,0.13241
6298.37864,0.08755
6300.30711,0.07176
6302.23558,0.08670
6304.16405,0.10099
6306.09252,0.10977
6308.02098,0.15304
6309.94945,0.20636
6311.87792,0.18154
6313.80639,0.10573
6315.73486,0.09434
6317.66333,0.14150
6319.59180,0.14647
6321.52026,0.10217
6323.44873,0.05094
6325.37720,0.02505
6327.30567,0.05510
6329.23414,0.11215
6331.16261,0.16131
6333.09108,0.17605
6335.01955,0.13232
6336.94801,0.08617
6338.87648,0.09201
6340.80495,0.10131
6342.73342,0.06588
6344.66189,0.00102
6346.59036,-0.04404
6348.51883,0.00016
6350.44729,0.07645
6352.37576,0.09731
6354.30423,0.09988
6356.23270,0.07248
6358.16117,-0.00312
6360.08964,-0.04007
6362.01811,0.00745
6363.94658,0.06718
6365.87504,0.09212
6367.80351,0.08958
6369.73198,0.05378
6371.66045,0.01900
6373.58892,0.04359
6375.51739,0.09442
6377.44586,0.12026
6379.37432,0.14105
6381.30279,0.17657
6383.23126,0.20204
6385.15973,0.18106
6387.08820,0.16085
6389.01667,0.17492
6390.94514,0.17386
6392.87361,0.13837
6394.80207,0.09486
6396.73054,0.06919
6398.65901,0.05986
6400.58748,0.04205
6402.51595,0.00781
6404.44442,-0.04071
6406.37289,-0.09174
6408.30135,-0.09285
6410.22982,-0.01156
6412.15829,0.08124
6414.08676,0.10618
6416.01523,0.07161
6417.94370,0.02526
6419.87217,0.03069
6421.80064,0.07162
6423.72910,0.07941
6425.65757,0.04377
6427.58604,0.01487
6429.51451,0.02595
6431.44298,0.05584
6433.37145,0.08131
6435.29992,0.10286
6437.22838,0.10793
6439.15685,0.08893
6441.08532,0.05262
6443.01379,0.00635
6444.94226,-0.01401
6446.87073,0.01721
6448.79920,0.07035
6450.72766,0.09662
6452.65613,0.10612
6454.58460,0.11637
6456.51307,0.10855
6458.44154,0.10295
6460.37001,0.10547
6462.29848,0.10227
6464.22695,0.11023
6466.15541,0.13746
6468.08388,0.19257
6470.01235,0.24463
6471.94082,0.25019
6473.86929,0.23652
6475.79776,0.20499
6477.72623,0.11891
6479.65469,-0.00490
6481.58316,-0.05470
6483.51163,0.03188
6485.44010,0.15278
6487.36857,0.20410
6489.29704,0.15312
6491.22551,0.05516
6493.15398,-0.01065
6495.08244,-0.02795
6497.01091,-0.00147
6498.93938,0.04752
6500.86785,0.08690
6502.79632,0.14148
6504.72479,0.20999
6506.65326,0.19867
6508.58172,0.12643
6510.51019,0.11656
6512.43866,0.14306
6514.36713,0.12722
6516.29560,0.07540
6518.22407,0.03146
6520.15254,0.03372
6522.08101,0.05032
6524.00947,0.07903
6525.93794,0.15268
6527.86641,0.19827
6529.79488,0.17418
6531.72335,0.12481
6533.65182,0.08652
6535.58029,0.10255
6537.50875,0.16665
6539.43722,0.20643
6541.36569,0.18446
6543.29416,0.13126
6545.22263,0.09328
6547.15110,0.07886
6549.07957,0.07501
6551.00804,0.05811
6552.93650,0.02408
6554.86497,0.02030
6556.79344,0.04502
6558.72191,0.04976
6560.65038,0.03742
6562.57885,0.04530
6564.50732,0.09150
6566.43578,0.15165
6568.36425,0.19352
6570.29272,0.22507
6572.22119,0.22880
6574.14966,0.15786
6576.07813,0.06717
6578.00660,0.04845
6579.93507,0.05529
6581.86353,0.03345
6583.79200,0.03361
6585.72047,0.07472
6587.64894,0.13078
6589.57741,0.15521
6591.50588,0.13306
6593.43435,0.12149
6595.36281,0.11348
6597.29128,0.08364
6599.21975,0.11353
6601.14822,0.21470
6603.07669,0.26446
6605.00516,0.21934
6606.93363,0.16481
6608.86210,0.15282
6610.79056,0.11030
6612.71903,0.06049
6614.64750,0.05836
6616.57597,0.02940
6618.50444,0.03424
6620.43291,0.14245
6622.36138,0.19796
6624.28984,0.10031
6626.21831,0.04303
6628.14678,0.17601
6630.07525,0.33684
6632.00372,0.33565
6633.93219,0.18692
6635.86066,0.00822
6637.78912,0.01172
6639.71759,0.16876
6641.64606,0.26012
6643.57453,0.24341
6645.50300,0.18378
6647.43147,0.10267
6649.35994,0.07300
6651.28841,0.12662
6653.21687,0.17699
6655.14534,0.14573
6657.07381,0.08247
6659.00228,0.04960
6660.93075,0.00293
6662.85922,-0.00425
6664.78769,0.06315
6666.71615,0.12518
6668.64462,0.15501
6670.57309,0.15999
6672.50156,0.14896
6674.43003,0.15651
6676.35850,0.14317
6678.28697,0.08481
6680.21544,0.06432
6682.14390,0.10529
6684.07237,0.15965
6686.00084,0.20510
6687.92931,0.20012
6689.85778,0.13143
6691.78625,0.07315
6693.71472,0.06612
6695.64318,0.09789
6697.57165,0.11938
6699.50012,0.12204
6701.42859,0.12024
6703.35706,0.09295
6705.28553,0.05110
6707.21400,0.02622
6709.14247,0.05674
6711.07093,0.09829
6712.99940,0.07047
6714.92787,0.02301
6716.85634,0.03654
6718.78481,0.07993
6720.71328,0.09323
6722.64175,0.06885
6724.57021,0.03503
6726.49868,-0.00126
6728.42715,-0.02665
6730.35562,0.01254
6732.28409,0.10150
6734.21256,0.14825
6736.14103,0.11875
6738.06950,0.09604
6739.99796,0.09135
6741.92643,0.02878
6743.85490,-0.04267
6745.78337,-0.07212
6747.71184,-0.07921
6749.64031,-0.07032
6751.56878,-0.03983
6753.49724,0.02146
6755.42571,0.09225
6757.35418,0.13858
6759.28265,0.11824
6761.21112,0.04960
6763.13959,0.02057
6765.06806,0.02814
6766.99653,0.03028
6768.92499,0.03511
6770.85346,0.05595
6772.78193,0.06372
6774.71040,0.05409
6776.63887,0.03505
6778.56734,-0.00343
6780.49581,-0.03349
6782.42427,-0.04189
6784.35274,-0.04618
6786.28121,-0.01674
6788.20968,0.03974
6790.13815,0.03516
6792.06662,-0.01415
6793.99509,0.02069
6795.92355,0.08884
6797.85202,0.08082
6799.78049,0.04467
6801.70896,0.00459
6803.63743,-0.07285
6805.56590,-0.08555
6807.49437,0.01920
6809.42284,0.16304
6811.35130,0.28488
6813.27977,0.32661
6815.20824,0.25437
6817.13671,0.07944
6819.06518,-0.07237
6820.99365,-0.09353
6822.92212,0.00001
6824.85058,0.10479
6826.77905,0.15762
6828.70752,0.16493
6830.63599,0.14813
6832.56446,0.11931
6834.49293,0.11851
6836.42140,0.13573
6838.34987,0.11398
6840.27833,0.11721
6842.20680,0.18491
6844.13527,0.23289
6846.06374,0.17700
6847.99221,0.06396
6849.92068,0.00543
6851.84915,-0.03749
6853.77761,-0.08155
6855.70608,-0.04186
6857.63455,0.04316
6859.56302,0.07120
6861.49149,0.04140
6863.41996,0.00824
6865.34843,0.02814
6867.27690,0.11891
6869.20536,0.17722
6871.13383,0.11494
6873.06230,0.03711
6874.99077,0.06038
6876.91924,0.09630
6878.84771,0.06707
6880.77618,-0.00657
6882.70464,-0.06939
6884.63311,-0.06839
6886.56158,0.02340
6888.49005,0.15444
6890.41852,0.23953
6892.34699,0.22248
6894.27546,0.14893
6896.20393,0.12878
6898.13239,0.13537
6900.06086,0.09995
6901.98933,0.10509
6903.91780,0.14123
6905.84627,0.08503
6907.77474,-0.01267
6909.70321,-0.02613
6911.63167,0.01295
6913.56014,0.01337
6915.48861,0.01109
6917.41708,0.06641
6919.34555,0.13156
6921.27402,0.17908
6923.20249,0.17457
6925.13096,0.08800
6927.05942,0.00810
6928.98789,0.00182
6930.91636,0.06395
6932.84483,0.18137
6934.77330,0.24324
6936.70177,0.19449
6938.63024,0.14102
6940.55870,0.11739
6942.48717,0.06025
6944.41564,0.04958
6946.34411,0.10305
6948.27258,0.12426
6950.20105,0.10167
6952.12952,0.07764
6954.05799,0.03526
6955.98645,-0.04614
6957.91492,-0.08546
6959.84339,-0.05484
6961.77186,0.00106
6963.70033,0.06876
6965.62880,0.13290
6967.55727,0.13994
6969.48573,0.08749
6971.41420,0.04705
6973.34267,0.04691
6975.27114,0.08964
6977.19961,0.13281
6979.12808,0.14786
6981.05655,0.18584
6982.98501,0.20825
6984.91348,0.16858
6986.84195,0.18422
6988.77042,0.24735
6990.69889,0.19475
6992.62736,0.07414
6994.55583,0.05151
6996.48430,0.08935
6998.41276,0.02960
7000.34123,-0.03193
7002.26970,-0.03644
7004.19817,-0.11063
7006.12664,-0.19126
7008.05511,-0.14671
7009.98358,-0.07744
7011.91204,-0.06968
7013.84051,-0.03855
7015.76898,-0.00504
7017.69745,-0.03398
7019.62592,-0.03157
7021.55439,0.01103
7023.48286,-0.01701
7025.41133,-0.08132
7027.33979,-0.01350
7029.26826,0.14594
7031.19673,0.21444
7033.12520,0.23845
7035.05367,0.25757
7036.98214,0.25341
7038.91061,0.21632
7040.83907,0.14183
7042.76754,0.08620
7044.69601,0.02493
7046.62448,-0.09080
7048.55295,-0.08105
7050.48142,0.06024
7052.40989,0.11419
7054.33836,0.06849
7056.26682,0.04011
7058.19529,0.04145
7060.12376,0.12673
7062.05223,0.26291
7063.98070,0.24824
7065.90917,0.09780
7067.83764,-0.03096
7069.76610,-0.13464
7071.69457,-0.19939
7073.62304,-0.13343
7075.55151,-0.01254
7077.47998,0.05614
7079.40845,0.10471
7081.33692,0.18967
7083.26539,0.27549
7085.19385,0.27005
7087.12232,0.17898
7089.05079,0.12075
7090.97926,0.11284
7092.90773,0.11793
7094.83620,0.09729
7096.76467,0.00601
7098.69313,-0.04173
7100.62160,0.09898
7102.55007,0.28604
7104.47854,0.29765
7106.40701,0.15623
7108.33548,0.09441
7110.26395,0.11014
7112.19242,0.06926
7114.12088,0.01552
7116.04935,0.04161
7117.97782,0.06407
7119.90629,0.00352
7121.83476,-0.02686
7123.76323,-0.00772
7125.69170,-0.03512
7127.62016,-0.12433
7129.54863,-0.19381
7131.47710,-0.18485
7133.40557,-0.10580
7135.33404,-0.00507
7137.26251,0.09128
7139.19098,0.11875
7141.11944,0.02750
7143.04791,-0.07472
7144.97638,-0.11436
7146.90485,-0.10232
7148.83332,-0.05672
7150.76179,0.03966
7152.69026,0.20278
7154.61873,0.29352
7156.54719,0.24631
7158.47566,0.19410
7160.40413,0.15037
7162.33260,0.05508
7164.26107,-0.01234
7166.18954,0.05616
7168.11801,0.11879
7170.04647,0.05933
7171.97494,-0.01759
7173.90341,-0.03753
7175.83188,0.01190
7177.76035,0.03128
7179.68882,-0.10561
7181.61729,-0.21292
7183.54576,-0.11234
7185.47422,-0.02141
7187.40269,-0.03649
7189.33116,-0.06725
7191.25963,-0.08961
7193.18810,-0.08583
7195.11657,-0.06916
7197.04504,-0.04843
7198.97350,-0.02620
7200.90197,-0.03742
7202.83044,-0.10210
7204.75891,-0.13981
7206.68738,-0.11680
7208.61585,-0.10898
7210.54432,-0.00812
7212.47279,0.19912
7214.40125,0.29597
7216.32972,0.21028
7218.25819,0.14673
7220.18666,0.13824
7222.11513,0.08916
7224.04360,0.02764
7225.97207,-0.00228
7227.90053,0.11786
7229.82900,0.34122
7231.75747,0.38017
7233.68594,0.25190
7235.61441,0.15739
7237.54288,0.06464
7239.47135,0.00657
7241.39982,0.00277
7243.32828,-0.04783
7245.25675,-0.11019
7247.18522,-0.06553
7249.11369,0.08913
7251.04216,0.24341
7252.97063,0.29336
7254.89910,0.23563
7256.82756,0.15580
7258.75603,0.10434
7260.68450,0.06257
7262.61297,0.01593
7264.54144,-0.03752
7266.46991,-0.06746
7268.39838,-0.00117
7270.32685,0.08840
7272.25531,0.05372
7274.18378,-0.05876
7276.11225,-0.12171
7278.04072,-0.08976
7279.96919,0.05398
7281.89766,0.10731
7283.82613,0.04030
7285.75459,0.04586
7287.68306,0.12099
7289.61153,0.16882
7291.54000,0.19938
7293.46847,0.26378
7295.39694,0.27374
7297.32541,0.10495
7299.25387,-0.12034
7301.18234,-0.20998
7303.11081,-0.17612
7305.03928,-0.07960
7306.96775,0.06652
7308.89622,0.09194
7310.82469,-0.04690
7312.75316,-0.15206
7314.68162,-0.10800
7316.61009,0.08754
7318.53856,0.19620
7320.46703,0.18716
7322.39550,0.21565
7324.32397,0.31379
7326.25244,0.32825
7328.18090,0.15211
7330.10937,0.03271
7332.03784,0.12941
7333.96631,0.19130
7335.89478,0.14643
7337.82325,0.08502
7339.75172,0.11822
7341.68019,0.27061
7343.60865,0.36399
7345.53712,0.33083
7347.46559,0.24286
7349.39406,0.15726
7351.32253,0.02841
7353.25100,-0.01525
7355.17947,0.13927
7357.10793,0.33941
7359.03640,0.33952
7360.96487,0.21032
7362.89334,0.12481
7364.82181,0.10156
7366.75028,0.10422
7368.67875,0.06128
7370.60722,-0.01377
7372.53568,-0.05522
7374.46415,-0.04870
7376.39262,-0.03038
7378.32109,-0.00020
7380.24956,0.05951
7382.17803,0.11986
7384.10650,0.20238
7386.03496,0.27385
7387.96343,0.24003
7389.89190,0.24729
7391.82037,0.33982
7393.74884,0.28493
7395.67731,0.07022
7397.60578,-0.04193
7399.53425,0.00582
7401.46271,0.08556
7403.39118,0.08840
7405.31965,0.06599
7407.24812,0.09200
7409.17659,0.11767
7411.10506,0.09743
7413.03353,0.04569
7414.96199,0.02337
7416.89046,0.01512
7418.81893,-0.01778
7420.74740,0.00362
7422.67587,0.06010
7424.60434,0.04868
7426.53281,0.01299
7428.46128,0.13242
7430.38974,0.36045
7432.31821,0.29189
7434.24668,0.00296
7436.17515,-0.12676
7438.10362,-0.06353
7440.03209,0.03073
7441.96056,0.19857
7443.88902,0.34315
7445.81749,0.23365
7447.74596,0.02535
7449.67443,0.00547
7451.60290,0.16451
7453.53137,0.29164
7455.45984,0.30926
7457.38831,0.26689
7459.31677,0.19762
7461.24524,0.10342
7463.17371,0.10025
7465.10218,0.17938
7467.03065,0.10619
7468.95912,-0.09509
7470.88759,-0.09298
7472.81605,0.18775
7474.74452,0.28766
7476.67299,0.07610
7478.60146,-0.06770
7480.52993,0.14136
7482.45840,0.41487
7484.38687,0.37865
7486.31533,0.19647
7488.24380,0.08651
7490.17227,0.06131
7492.10074,0.08368
7494.02921,0.07718
7495.95768,-0.00963
7497.88615,-0.15738
