399.19301,4.44778
401.12148,-0.16866
403.04995,-0.51975
404.97842,-0.29985
406.90689,-0.08580
408.83536,0.03483
410.76382,0.14837
412.69229,0.20330
414.62076,0.17958
416.54923,0.17672
418.47770,0.22528
420.40617,0.22761
422.33464,0.17978
424.26311,0.13052
426.19157,0.10368
428.12004,0.09246
430.04851,0.08692
431.97698,0.08353
433.90545,0.05530
435.83392,0.05824
437.76239,0.12554
439.69085,0.20415
441.61932,0.21920
443.54779,0.10300
445.47626,-0.07112
447.40473,-0.11341
449.33320,-0.01254
451.26167,0.08651
453.19013,0.15117
455.11860,0.18804
457.04707,0.15379
458.97554,0.06430
460.90401,0.01460
462.83248,0.04307
464.76095,0.12075
466.68942,0.15066
468.61788,0.11590
470.54635,0.13227
472.47482,0.32909
474.40329,0.54183
476.33176,0.40903
478.26023,0.22886
480.18870,0.13065
482.11716,0.06965
484.04563,0.04735
485.97410,0.06600
487.90257,0.10643
489.83104,0.13302
491.75951,0.13205
493.68798,0.11278
495.61645,0.06737
497.54491,0.04176
499.47338,0.06118
501.40185,0.07267
503.33032,0.08288
505.25879,0.12005
507.18726,0.13023
509.11573,0.08383
511.04419,0.04575
512.97266,0.06376
514.90113,0.10145
516.82960,0.10309
518.75807,0.09351
520.68654,0.10216
522.61501,0.11306
524.54348,0.12338
526.47194,0.12289
528.40041,0.09917
530.32888,0.08635
532.25735,0.11668
534.18582,0.15097
536.11429,0.13431
538.04276,0.08828
539.97122,0.06332
541.89969,0.07431
543.82816,0.11720
545.75663,0.16168
547.68510,0.18633
549.61357,0.18673
551.54204,0.15577
553.47051,0.12408
555.39897,0.11744
557.32744,0.12082
559.25591,0.12395
561.18438,0.11582
563.11285,0.09307
565.04132,0.09436
566.96979,0.13499
568.89825,0.15598
570.82672,0.13850
572.75519,0.12786
574.68366,0.12107
576.61213,0.09559
578.54060,0.07148
580.46907,0.06062
582.39754,0.06749
584.32600,0.09916
586.25447,0.13597
588.18294,0.16215
590.11141,0.18231
592.03988,0.18306
593.96835,0.16380
595.89682,0.15586
597.82528,0.16248
599.75375,0.17028
601.68222,0.17776
603.61069,0.16631
605.53916,0.13827
607.46763,0.12893
609.39610,0.12988
611.32456,0.11851
613.25303,0.10534
615.18150,0.09680
617.10997,0.08695
619.03844,0.08510
620.96691,0.10010
622.89538,0.12019
624.82385,0.12910
626.75231,0.11277
628.68078,0.08229
630.60925,0.08851
632.53772,0.13641
634.46619,0.16179
636.39466,0.15236
638.32313,0.14640
640.25159,0.14567
642.18006,0.13891
644.10853,0.13684
646.03700,0.13405
647.96547,0.11705
649.89394,0.10772
651.82241,0.11342
653.75088,0.11319
655.67934,0.11154
657.60781,0.11571
659.53628,0.11045
661.46475,0.09687
663.39322,0.09619
665.32169,0.10905
667.25016,0.13209
669.17862,0.15195
671.10709,0.14784
673.03556,0.14468
674.96403,0.14822
676.89250,0.14642
678.82097,0.13374
680.74944,0.12268
682.67791,0.12082
684.60637,0.12099
686.53484,0.12617
688.46331,0.13336
690.39178,0.12847
692.32025,0.11878
694.24872,0.11318
696.17719,0.10968
698.10565,0.11347
700.03412,0.12135
701.96259,0.12083
703.89106,0.11354
705.81953,0.11338
707.74800,0.12126
709.67647,0.12328
711.60494,0.12049
713.53340,0.12655
715.46187,0.13811
717.39034,0.14404
719.31881,0.14706
721.24728,0.14661
723.17575,0.14029
725.10422,0.13945
727.03268,0.14777
728.96115,0.15296
730.88962,0.14990
732.81809,0.14435
734.74656,0.13833
736.67503,0.13224
738.60350,0.12616
740.53197,0.12293
742.46043,0.12237
744.38890,0.11539
746.31737,0.11004
748.24584,0.12410
750.17431,0.14822
752.10278,0.15906
754.03125,0.15683
755.95971,0.14981
757.88818,0.13730
759.81665,0.12750
761.74512,0.12806
763.67359,0.13326
765.60206,0.13445
767.53053,0.13306
769.45900,0.13456
771.38746,0.14057
773.31593,0.14985
775.24440,0.15523
777.17287,0.15087
779.10134,0.14072
781.02981,0.13047
782.95828,0.11834
784.88674,0.11196
786.81521,0.11850
788.74368,0.10089
790.67215,0.04761
792.60062,0.03373
794.52909,0.08265
796.45756,0.11416
798.38602,0.10779
800.31449,0.09879
802.24296,0.09544
804.17143,0.10107
806.09990,0.10955
808.02837,0.11410
809.95684,0.11766
811.88531,0.11853
813.81377,0.11436
815.74224,0.11093
817.67071,0.11959
819.59918,0.13571
821.52765,0.13997
823.45612,0.12963
825.38459,0.12206
827.31305,0.12281
829.24152,0.12421
831.16999,0.13039
833.09846,0.14313
835.02693,0.14920
836.95540,0.14526
838.88387,0.14396
840.81234,0.14324
842.74080,0.13185
844.66927,0.11903
846.59774,0.11922
848.52621,0.12679
850.45468,0.13054
852.38315,0.13406
854.31162,0.14069
856.24008,0.13934
858.16855,0.12720
860.09702,0.12067
862.02549,0.12698
863.95396,0.13087
865.88243,0.12806
867.81090,0.13189
869.73937,0.14068
871.66783,0.14133
873.59630,0.13471
875.52477,0.12904
877.45324,0.12488
879.38171,0.12343
881.31018,0.13133
883.23865,0.14641
885.16711,0.15412
887.09558,0.14979
889.02405,0.14528
890.95252,0.14589
892.88099,0.14705
894.80946,0.14343
896.73793,0.13527
898.66640,0.13018
900.59486,0.13015
902.52333,0.13392
904.45180,0.14181
906.38027,0.14775
908.30874,0.14478
910.23721,0.13785
912.16568,0.13903
914.09414,0.14483
916.02261,0.14317
917.95108,0.13599
919.87955,0.13132
921.80802,0.13275
923.73649,0.13533
925.66496,0.13224
927.59343,0.12913
929.52189,0.13307
931.45036,0.14024
933.37883,0.14378
935.30730,0.14107
937.23577,0.13924
939.16424,0.14352
941.09271,0.14819
943.02117,0.14967
944.94964,0.14969
946.87811,0.15308
948.80658,0.15652
950.73505,0.15089
952.66352,0.13986
954.59199,0.13227
956.52045,0.13255
958.44892,0.13978
960.37739,0.14751
962.30586,0.14918
964.23433,0.14482
966.16280,0.13720
968.09127,0.12683
970.01974,0.12310
971.94820,0.13311
973.87667,0.14352
975.80514,0.14621
977.73361,0.15070
979.66208,0.15769
981.59055,0.15818
983.51902,0.15035
985.44748,0.14091
987.37595,0.13744
989.30442,0.14000
991.23289,0.14735
993.16136,0.15460
995.08983,0.15493
997.01830,0.15346
998.94677,0.15319
1000.87523,0.15151
1002.80370,0.15286
1004.73217,0.15873
1006.66064,0.16270
1008.58911,0.15945
1010.51758,0.14816
1012.44605,0.14050
1014.37451,0.14770
1016.30298,0.15985
1018.23145,0.16285
1020.15992,0.15436
1022.08839,0.14611
1024.01686,0.14956
1025.94533,0.15331
1027.87380,0.15071
1029.80226,0.15259
1031.73073,0.15409
1033.65920,0.14881
1035.58767,0.14648
1037.51614,0.14528
1039.44461,0.14008
1041.37308,0.13831
1043.30154,0.13922
1045.23001,0.13801
1047.15848,0.14223
1049.08695,0.15530
1051.01542,0.16452
1052.94389,0.16252
1054.87236,0.15937
1056.80083,0.15996
1058.72929,0.15580
1060.65776,0.14696
1062.58623,0.14715
1064.51470,0.16027
1066.44317,0.16887
1068.37164,0.16483
1070.30011,0.16043
1072.22857,0.16083
1074.15704,0.16286
1076.08551,0.16596
1078.01398,0.16654
1079.94245,0.16503
1081.87092,0.17011
1083.79939,0.17605
1085.72786,0.17095
1087.65632,0.16264
1089.58479,0.16130
1091.51326,0.16542
1093.44173,0.16957
1095.37020,0.17031
1097.29867,0.17045
1099.22714,0.17125
1101.15560,0.16801
1103.08407,0.16358
1105.01254,0.16032
1106.94101,0.15378
1108.86948,0.15047
1110.79795,0.15489
1112.72642,0.16318
1114.65489,0.17028
1116.58335,0.16855
1118.51182,0.16383
1120.44029,0.16492
1122.36876,0.16723
1124.29723,0.16585
1126.22570,0.16052
1128.15417,0.15331
1130.08263,0.15098
1132.01110,0.15787
1133.93957,0.16620
1135.86804,0.16808
1137.79651,0.16302
1139.72498,0.15537
1141.65345,0.15248
1143.58191,0.15290
1145.51038,0.15493
1147.43885,0.16364
1149.36732,0.17388
1151.29579,0.17637
1153.22426,0.17347
1155.15273,0.17172
1157.08120,0.17185
1159.00966,0.17054
1160.93813,0.16742
1162.86660,0.16707
1164.79507,0.17165
1166.72354,0.17561
1168.65201,0.17287
1170.58048,0.16728
1172.50894,0.16590
1174.43741,0.16733
1176.36588,0.16716
1178.29435,0.16419
1180.22282,0.15960
1182.15129,0.15384
1184.07976,0.15005
1186.00823,0.15224
1187.93669,0.15577
1189.86516,0.15779
1191.79363,0.15994
1193.72210,0.16266
1195.65057,0.16551
1197.57904,0.16380
1199.50751,0.15837
1201.43597,0.15761
1203.36444,0.16182
1205.29291,0.16207
1207.22138,0.15671
1209.14985,0.15431
1211.07832,0.15783
1213.00679,0.16104
1214.93526,0.16019
1216.86372,0.15992
1218.79219,0.16332
1220.72066,0.16764
1222.64913,0.17025
1224.57760,0.16894
1226.50607,0.16402
1228.43454,0.16129
1230.36300,0.16406
1232.29147,0.16696
1234.21994,0.16349
1236.14841,0.15536
1238.07688,0.15394
1240.00535,0.16264
1241.93382,0.16774
1243.86229,0.16309
1245.79075,0.15594
1247.71922,0.15263
1249.64769,0.15345
1251.57616,0.15284
1253.50463,0.15333
1255.43310,0.15969
1257.36157,0.16016
1259.29003,0.14780
1261.21850,0.13729
1263.14697,0.13816
1265.07544,0.14168
1267.00391,0.14047
1268.93238,0.13992
1270.86085,0.14871
1272.78932,0.16186
1274.71778,0.16572
1276.64625,0.16338
1278.57472,0.16366
1280.50319,0.15940
1282.43166,0.15199
1284.36013,0.15098
1286.28860,0.14949
1288.21706,0.14904
1290.14553,0.15673
1292.07400,0.15903
1294.00247,0.15131
1295.93094,0.14588
1297.85941,0.14266
1299.78788,0.12974
1301.71634,0.10265
1303.64481,0.07914
1305.57328,0.08976
1307.50175,0.13161
1309.43022,0.16397
1311.35869,0.17219
1313.28716,0.17258
1315.21563,0.17162
1317.14409,0.16975
1319.07256,0.16685
1321.00103,0.16389
1322.92950,0.16500
1324.85797,0.16298
1326.78644,0.15433
1328.71491,0.14900
1330.64337,0.14472
1332.57184,0.14204
1334.50031,0.14709
1336.42878,0.15011
1338.35725,0.14885
1340.28572,0.14499
1342.21419,0.14170
1344.14266,0.14476
1346.07112,0.14578
1347.99959,0.14630
1349.92806,0.15171
1351.85653,0.15467
1353.78500,0.15250
1355.71347,0.15048
1357.64194,0.15395
1359.57040,0.16200
1361.49887,0.17012
1363.42734,0.17073
1365.35581,0.16568
1367.28428,0.16561
1369.21275,0.17003
1371.14122,0.17518
1373.06969,0.18251
1374.99815,0.18745
1376.92662,0.18402
1378.85509,0.17890
1380.78356,0.17665
1382.71203,0.17533
1384.64050,0.17664
1386.56897,0.18364
1388.49743,0.18777
1390.42590,0.18425
1392.35437,0.18318
1394.28284,0.18538
1396.21131,0.18384
1398.13978,0.18038
1400.06825,0.17736
1401.99672,0.17551
1403.92518,0.17716
1405.85365,0.18022
1407.78212,0.18087
1409.71059,0.17943
1411.63906,0.17637
1413.56753,0.17628
1415.49600,0.18296
1417.42446,0.18933
1419.35293,0.18633
1421.28140,0.18292
1423.20987,0.18633
1425.13834,0.18891
1427.06681,0.18639
1428.99528,0.18449
1430.92375,0.18684
1432.85221,0.18925
1434.78068,0.18939
1436.70915,0.18854
1438.63762,0.18650
1440.56609,0.18327
1442.49456,0.18004
1444.42303,0.17826
1446.35149,0.18056
1448.27996,0.18598
1450.20843,0.18831
1452.13690,0.18951
1454.06537,0.19589
1455.99384,0.21026
1457.92231,0.21641
1459.85077,0.20380
1461.77924,0.19591
1463.70771,0.19350
1465.63618,0.18871
1467.56465,0.18315
1469.49312,0.18333
1471.42159,0.19261
1473.35006,0.20571
1475.27852,0.20550
1477.20699,0.19731
1479.13546,0.19146
1481.06393,0.18758
1482.99240,0.18466
1484.92087,0.18666
1486.84934,0.19329
1488.77780,0.19611
1490.70627,0.19174
1492.63474,0.19095
1494.56321,0.19692
1496.49168,0.20389
1498.42015,0.20194
1500.34862,0.19437
1502.27709,0.18915
1504.20555,0.19117
1506.13402,0.21291
1508.06249,0.23333
1509.99096,0.21989
1511.91943,0.20622
1513.84790,0.20298
1515.77637,0.20682
1517.70483,0.20983
1519.63330,0.21210
1521.56177,0.21511
1523.49024,0.21154
1525.41871,0.20731
1527.34718,0.20587
1529.27565,0.20354
1531.20412,0.20138
1533.13258,0.20129
1535.06105,0.20018
1536.98952,0.20023
1538.91799,0.21281
1540.84646,0.23674
1542.77493,0.23411
1544.70340,0.21609
1546.63186,0.20318
1548.56033,0.19914
1550.48880,0.19773
1552.41727,0.19767
1554.34574,0.20273
1556.27421,0.21206
1558.20268,0.22083
1560.13115,0.20933
1562.05961,0.19726
1563.98808,0.19374
1565.91655,0.19405
1567.84502,0.19980
1569.77349,0.20530
1571.70196,0.20168
1573.63043,0.20021
1575.55889,0.20686
1577.48736,0.20776
1579.41583,0.19785
1581.34430,0.19050
1583.27277,0.18877
1585.20124,0.18734
1587.12971,0.18632
1589.05818,0.19035
1590.98664,0.19552
1592.91511,0.19507
1594.84358,0.19095
1596.77205,0.18881
1598.70052,0.19106
1600.62899,0.19606
1602.55746,0.19854
1604.48592,0.19525
1606.41439,0.18910
1608.34286,0.18585
1610.27133,0.18756
1612.19980,0.19062
1614.12827,0.19643
1616.05674,0.20479
1617.98521,0.20184
1619.91367,0.19534
1621.84214,0.19682
1623.77061,0.20108
1625.69908,0.20422
1627.62755,0.20482
1629.55602,0.20037
1631.48449,0.19907
1633.41295,0.20744
1635.34142,0.21956
1637.26989,0.21720
1639.19836,0.20914
1641.12683,0.20574
1643.05530,0.20563
1644.98377,0.20898
1646.91223,0.21227
1648.84070,0.21194
1650.76917,0.21736
1652.69764,0.22596
1654.62611,0.21737
1656.55458,0.20682
1658.48305,0.20263
1660.41152,0.20482
1662.33998,0.21147
1664.26845,0.21094
1666.19692,0.20605
1668.12539,0.20958
1670.05386,0.21887
1671.98233,0.21707
1673.91080,0.20870
1675.83926,0.20332
1677.76773,0.20516
1679.69620,0.21185
1681.62467,0.22036
1683.55314,0.22651
1685.48161,0.21976
1687.41008,0.20915
1689.33855,0.20288
1691.26701,0.20040
1693.19548,0.20429
1695.12395,0.21791
1697.05242,0.23138
1698.98089,0.23009
1700.90936,0.21919
1702.83783,0.21255
1704.76629,0.20994
1706.69476,0.20501
1708.62323,0.20075
1710.55170,0.19942
1712.48017,0.20162
1714.40864,0.21220
1716.33711,0.22699
1718.26558,0.22350
1720.19404,0.20807
1722.12251,0.19780
1724.05098,0.19237
1725.97945,0.19143
1727.90792,0.19658
1729.83639,0.20492
1731.76486,0.20996
1733.69332,0.20810
1735.62179,0.20022
1737.55026,0.19588
1739.47873,0.19674
1741.40720,0.19996
1743.33567,0.20225
1745.26414,0.20244
1747.19261,0.20298
1749.12107,0.20478
1751.04954,0.20341
1752.97801,0.19962
1754.90648,0.19707
1756.83495,0.19511
1758.76342,0.19453
1760.69189,0.19653
1762.62035,0.19614
1764.54882,0.19234
1766.47729,0.19057
1768.40576,0.19180
1770.33423,0.19659
1772.26270,0.20364
1774.19117,0.20376
1776.11964,0.19871
1778.04810,0.19634
1779.97657,0.19618
1781.90504,0.19459
1783.83351,0.19389
1785.76198,0.19474
1787.69045,0.19647
1789.61892,0.20138
1791.54738,0.20792
1793.47585,0.20838
1795.40432,0.20181
1797.33279,0.19606
1799.26126,0.19508
1801.18973,0.19475
1803.11820,0.19070
1805.04666,0.18720
1806.97513,0.18897
1808.90360,0.19294
1810.83207,0.19207
1812.76054,0.18761
1814.68901,0.18626
1816.61748,0.18896
1818.54595,0.19277
1820.47441,0.19516
1822.40288,0.19681
1824.33135,0.19853
1826.25982,0.19934
1828.18829,0.20102
1830.11676,0.20021
1832.04523,0.19389
1833.97369,0.19049
1835.90216,0.19200
1837.83063,0.19418
1839.75910,0.19621
1841.68757,0.20013
1843.61604,0.20369
1845.54451,0.20072
1847.47298,0.19535
1849.40144,0.19343
1851.32991,0.19277
1853.25838,0.19053
1855.18685,0.18884
1857.11532,0.18932
1859.04379,0.18994
1860.97226,0.19041
1862.90072,0.19129
1864.82919,0.19250
1866.75766,0.19474
1868.68613,0.19605
1870.61460,0.19297
1872.54307,0.18870
1874.47154,0.18741
1876.40001,0.18837
1878.32847,0.19003
1880.25694,0.19184
1882.18541,0.19157
1884.11388,0.18866
1886.04235,0.18549
1887.97082,0.18540
1889.89929,0.18987
1891.82775,0.19536
1893.75622,0.19791
1895.68469,0.19650
1897.61316,0.19326
1899.54163,0.19229
1901.47010,0.19421
1903.39857,0.19487
1905.32704,0.19290
1907.25550,0.19102
1909.18397,0.18917
1911.11244,0.18707
1913.04091,0.18689
1914.96938,0.18919
1916.89785,0.19256
1918.82632,0.19453
1920.75478,0.19450
1922.68325,0.19442
1924.61172,0.19493
1926.54019,0.19622
1928.46866,0.19677
1930.39713,0.19426
1932.32560,0.19125
1934.25407,0.18982
1936.18253,0.18902
1938.11100,0.19023
1940.03947,0.19470
1941.96794,0.19945
1943.89641,0.19925
1945.82488,0.19397
1947.75335,0.18936
1949.68181,0.19030
1951.61028,0.19378
1953.53875,0.19368
1955.46722,0.19136
1957.39569,0.19146
1959.32416,0.19283
1961.25263,0.19210
1963.18110,0.19060
1965.10956,0.19133
1967.03803,0.19430
1968.96650,0.19645
1970.89497,0.19562
1972.82344,0.19390
1974.75191,0.19364
1976.68038,0.19392
1978.60884,0.19353
1980.53731,0.19232
1982.46578,0.19026
1984.39425,0.18946
1986.32272,0.19187
1988.25119,0.19400
1990.17966,0.19378
1992.10812,0.19409
1994.03659,0.19335
1995.96506,0.19058
1997.89353,0.18945
1999.82200,0.18979
2001.75047,0.19027
2003.67894,0.19057
2005.60741,0.19004
2007.53587,0.19016
2009.46434,0.19153
2011.39281,0.19287
2013.32128,0.19273
2015.24975,0.19179
2017.17822,0.19344
2019.10669,0.19559
2021.03515,0.19405
2022.96362,0.19206
2024.89209,0.19255
2026.82056,0.19478
2028.74903,0.19702
2030.67750,0.19537
2032.60597,0.19052
2034.53444,0.18840
2036.46290,0.19051
2038.39137,0.19307
2040.31984,0.19398
2042.24831,0.19327
2044.17678,0.19103
2046.10525,0.19000
2048.03372,0.19142
2049.96218,0.19278
2051.89065,0.19341
2053.81912,0.19521
2055.74759,0.19762
2057.67606,0.19792
2059.60453,0.19719
2061.53300,0.19736
2063.46147,0.19716
2065.38993,0.19616
2067.31840,0.19473
2069.24687,0.19315
2071.17534,0.19378
2073.10381,0.19617
2075.03228,0.19612
2076.96075,0.19441
2078.88921,0.19387
2080.81768,0.19260
2082.74615,0.18964
2084.67462,0.18794
2086.60309,0.18832
2088.53156,0.18916
2090.46003,0.19036
2092.38850,0.19217
2094.31696,0.19397
2096.24543,0.19499
2098.17390,0.19543
2100.10237,0.19534
2102.03084,0.19554
2103.95931,0.19810
2105.88778,0.20138
2107.81624,0.20187
2109.74471,0.20038
2111.67318,0.19918
2113.60165,0.19785
2115.53012,0.19644
2117.45859,0.19620
2119.38706,0.19669
2121.31553,0.19663
2123.24399,0.19620
2125.17246,0.19697
2127.10093,0.19852
2129.02940,0.19830
2130.95787,0.19769
2132.88634,0.19914
2134.81481,0.19926
2136.74327,0.19682
2138.67174,0.19659
2140.60021,0.19833
2142.52868,0.19813
2144.45715,0.19703
2146.38562,0.19633
2148.31409,0.19610
2150.24255,0.19678
2152.17102,0.19554
2154.09949,0.19261
2156.02796,0.19186
2157.95643,0.19389
2159.88490,0.19681
2161.81337,0.19664
2163.74184,0.19288
2165.67030,0.19008
2167.59877,0.19161
2169.52724,0.19652
2171.45571,0.19897
2173.38418,0.19692
2175.31265,0.19494
2177.24112,0.19439
2179.16958,0.19330
2181.09805,0.19217
2183.02652,0.19213
2184.95499,0.19197
2186.88346,0.19121
2188.81193,0.19202
2190.74040,0.19395
2192.66887,0.19474
2194.59733,0.19458
2196.52580,0.19440
2198.45427,0.19578
2200.38274,0.19745
2202.31121,0.19716
2204.23968,0.19626
2206.16815,0.19559
2208.09661,0.19594
2210.02508,0.19780
2211.95355,0.19778
2213.88202,0.19462
2215.81049,0.19243
2217.73896,0.19356
2219.66743,0.19645
2221.59590,0.19837
2223.52436,0.19784
2225.45283,0.19705
2227.38130,0.19713
2229.30977,0.19631
2231.23824,0.19436
2233.16671,0.19197
2235.09518,0.19028
2237.02364,0.19122
2238.95211,0.19350
2240.88058,0.19406
2242.80905,0.19358
2244.73752,0.19379
2246.66599,0.19487
2248.59446,0.19682
2250.52293,0.19886
2252.45139,0.19943
2254.37986,0.19839
2256.30833,0.19695
2258.23680,0.19494
2260.16527,0.19193
2262.09374,0.18921
2264.02221,0.18933
2265.95067,0.19320
2267.87914,0.19755
2269.80761,0.19831
2271.73608,0.19455
2273.66455,0.19149
2275.59302,0.19287
2277.52149,0.19373
2279.44996,0.19229
2281.37842,0.19232
2283.30689,0.19274
2285.23536,0.19161
2287.16383,0.19202
2289.09230,0.19444
2291.02077,0.19362
2292.94924,0.18785
2294.87770,0.18328
2296.80617,0.18376
2298.73464,0.18520
2300.66311,0.18446
2302.59158,0.18098
2304.52005,0.17649
2306.44852,0.17634
2308.37699,0.18039
2310.30545,0.18371
2312.23392,0.18152
2314.16239,0.17405
2316.09086,0.17133
2318.01933,0.17452
2319.94780,0.17288
2321.87627,0.16462
2323.80473,0.15651
2325.73320,0.15188
2327.66167,0.15159
2329.59014,0.15727
2331.51861,0.16252
2333.44708,0.15893
2335.37555,0.15386
2337.30401,0.16225
2339.23248,0.18124
2341.16095,0.18519
2343.08942,0.16789
2345.01789,0.15338
2346.94636,0.15674
2348.87483,0.16825
2350.80330,0.17702
2352.73176,0.17520
2354.66023,0.15456
2356.58870,0.13248
2358.51717,0.13914
2360.44564,0.14977
2362.37411,0.14402
2364.30258,0.14836
2366.23104,0.16041
2368.15951,0.16047
2370.08798,0.15631
2372.01645,0.15765
2373.94492,0.16203
2375.87339,0.16802
2377.80186,0.17550
2379.73033,0.18196
2381.65879,0.18607
2383.58726,0.18868
2385.51573,0.18990
2387.44420,0.19000
2389.37267,0.19000
2391.30114,0.19050
2393.22961,0.19240
2395.15807,0.19475
2397.08654,0.19701
2399.01501,0.19990
2400.94348,0.19972
2402.87195,0.19630
2404.80042,0.19595
2406.72889,0.19906
2408.65736,0.20025
2410.58582,0.19757
2412.51429,0.19379
2414.44276,0.19253
2416.37123,0.19534
2418.29970,0.19934
2420.22817,0.20076
2422.15664,0.20072
2424.08510,0.20154
2426.01357,0.20235
2427.94204,0.20192
2429.87051,0.20007
2431.79898,0.19789
2433.72745,0.19831
2435.65592,0.20023
2437.58439,0.20040
2439.51285,0.20026
2441.44132,0.20061
2443.36979,0.20063
2445.29826,0.20090
2447.22673,0.19930
2449.15520,0.19393
2451.08367,0.18972
2453.01213,0.19150
2454.94060,0.19584
2456.86907,0.19711
2458.79754,0.19558
2460.72601,0.19517
2462.65448,0.19684
2464.58295,0.19779
2466.51142,0.19610
2468.43988,0.19419
2470.36835,0.19520
2472.29682,0.19750
2474.22529,0.19843
2476.15376,0.19864
2478.08223,0.19976
2480.01070,0.20166
2481.93916,0.20275
2483.86763,0.20315
2485.79610,0.20340
2487.72457,0.20301
2489.65304,0.20297
2491.58151,0.20296
2493.50998,0.20107
2495.43844,0.19780
2497.36691,0.19571
2499.29538,0.19745
2501.22385,0.20168
2503.15232,0.20302
2505.08079,0.19996
2507.00926,0.19714
2508.93773,0.19733
2510.86619,0.19850
2512.79466,0.19823
2514.72313,0.19625
2516.65160,0.19559
2518.58007,0.19817
2520.50854,0.20009
2522.43701,0.19852
2524.36547,0.19680
2526.29394,0.19737
2528.22241,0.19932
2530.15088,0.20113
2532.07935,0.19983
2534.00782,0.19632
2535.93629,0.19584
2537.86476,0.19976
2539.79322,0.20329
2541.72169,0.20233
2543.65016,0.20102
2545.57863,0.20218
2547.50710,0.20177
2549.43557,0.19892
2551.36404,0.19663
2553.29250,0.19720
2555.22097,0.19947
2557.14944,0.20074
2559.07791,0.20122
2561.00638,0.20174
2562.93485,0.20226
2564.86332,0.20260
2566.79179,0.20217
2568.72025,0.20140
2570.64872,0.20139
2572.57719,0.20184
2574.50566,0.20174
2576.43413,0.20090
2578.36260,0.20200
2580.29107,0.20574
2582.21953,0.20699
2584.14800,0.20437
2586.07647,0.20178
2588.00494,0.20145
2589.93341,0.20217
2591.86188,0.20184
2593.79035,0.20128
2595.71882,0.20107
2597.64728,0.19996
2599.57575,0.19844
2601.50422,0.19850
2603.43269,0.19988
2605.36116,0.20139
2607.28963,0.20243
2609.21810,0.20009
2611.14656,0.19502
2613.07503,0.19293
2615.00350,0.19502
2616.93197,0.19805
2618.86044,0.20089
2620.78891,0.20432
2622.71738,0.20750
2624.64585,0.20848
2626.57431,0.20766
2628.50278,0.20596
2630.43125,0.20363
2632.35972,0.20231
2634.28819,0.20135
2636.21666,0.20152
2638.14513,0.20528
2640.07359,0.20834
2642.00206,0.20656
2643.93053,0.20192
2645.85900,0.19767
2647.78747,0.19590
2649.71594,0.19727
2651.64441,0.20012
2653.57288,0.20160
2655.50134,0.20250
2657.42981,0.20388
2659.35828,0.20432
2661.28675,0.20455
2663.21522,0.20572
2665.14369,0.20727
2667.07216,0.20758
2669.00062,0.20561
2670.92909,0.20366
2672.85756,0.20304
2674.78603,0.20323
2676.71450,0.20499
2678.64297,0.20638
2680.57144,0.20615
2682.49990,0.20795
2684.42837,0.21139
2686.35684,0.21092
2688.28531,0.20607
2690.21378,0.20091
2692.14225,0.19799
2694.07072,0.20026
2695.99919,0.20712
2697.92765,0.21142
2699.85612,0.21036
2701.78459,0.20772
2703.71306,0.20657
2705.64153,0.20784
2707.57000,0.20927
2709.49847,0.20737
2711.42693,0.20407
2713.35540,0.20372
2715.28387,0.20631
2717.21234,0.20996
2719.14081,0.21148
2721.06928,0.20835
2722.99775,0.20456
2724.92622,0.20495
2726.85468,0.20836
2728.78315,0.21027
2730.71162,0.20830
2732.64009,0.20560
2734.56856,0.20517
2736.49703,0.20533
2738.42550,0.20477
2740.35396,0.20461
2742.28243,0.20564
2744.21090,0.20817
2746.13937,0.21107
2748.06784,0.21299
2749.99631,0.21354
2751.92478,0.21250
2753.85325,0.21073
2755.78171,0.20878
2757.71018,0.20814
2759.63865,0.20894
2761.56712,0.20898
2763.49559,0.20931
2765.42406,0.21008
2767.35253,0.21054
2769.28099,0.21127
2771.20946,0.21161
2773.13793,0.21149
2775.06640,0.21044
2776.99487,0.20910
2778.92334,0.20929
2780.85181,0.20987
2782.78028,0.21136
2784.70874,0.21480
2786.63721,0.21713
2788.56568,0.21740
2790.49415,0.21561
2792.42262,0.21163
2794.35109,0.21075
2796.27956,0.21410
2798.20802,0.21536
2800.13649,0.21399
2802.06496,0.21383
2803.99343,0.21392
2805.92190,0.21189
2807.85037,0.20889
2809.77884,0.20843
2811.70731,0.21150
2813.63577,0.21470
2815.56424,0.21545
2817.49271,0.21446
2819.42118,0.21257
2821.34965,0.21019
2823.27812,0.20993
2825.20659,0.21288
2827.13505,0.21377
2829.06352,0.21005
2830.99199,0.20829
2832.92046,0.21186
2834.84893,0.21516
2836.77740,0.21439
2838.70587,0.21248
2840.63433,0.21389
2842.56280,0.21704
2844.49127,0.21623
2846.41974,0.21421
2848.34821,0.21564
2850.27668,0.21576
2852.20515,0.21145
2854.13362,0.20884
2856.06208,0.21286
2857.99055,0.21907
2859.91902,0.22071
2861.84749,0.21613
2863.77596,0.20936
2865.70443,0.20621
2867.63290,0.20683
2869.56136,0.20679
2871.48983,0.20449
2873.41830,0.20339
2875.34677,0.20752
2877.27524,0.21458
2879.20371,0.21825
2881.13218,0.21607
2883.06065,0.21101
2884.98911,0.20916
2886.91758,0.21226
2888.84605,0.21558
2890.77452,0.21720
2892.70299,0.21651
2894.63146,0.21103
2896.55993,0.20598
2898.48839,0.20776
2900.41686,0.21131
2902.34533,0.21061
2904.27380,0.20519
2906.20227,0.20035
2908.13074,0.20274
2910.05921,0.20625
2911.98768,0.20589
2913.91614,0.20152
2915.84461,0.19157
2917.77308,0.18912
2919.70155,0.19921
2921.63002,0.20788
2923.55849,0.20547
2925.48696,0.18912
2927.41542,0.17520
2929.34389,0.18181
2931.27236,0.19796
2933.20083,0.20652
2935.12930,0.20026
2937.05777,0.18884
2938.98624,0.19440
2940.91471,0.21018
2942.84317,0.21538
2944.77164,0.20641
2946.70011,0.18784
2948.62858,0.18070
2950.55705,0.19383
2952.48552,0.20543
2954.41399,0.20159
2956.34245,0.18367
2958.27092,0.17405
2960.19939,0.19289
2962.12786,0.21756
2964.05633,0.22311
2965.98480,0.21123
2967.91327,0.19611
2969.84174,0.19602
2971.77020,0.20698
2973.69867,0.21236
2975.62714,0.20522
2977.55561,0.18912
2979.48408,0.18666
2981.41255,0.20661
2983.34102,0.22489
2985.26948,0.22299
2987.19795,0.20653
2989.12642,0.19862
2991.05489,0.21049
2992.98336,0.22312
2994.91183,0.22208
2996.84030,0.21443
2998.76877,0.21039
3000.69723,0.21357
3002.62570,0.21656
3004.55417,0.21186
3006.48264,0.20344
3008.41111,0.19425
3010.33958,0.17353
3012.26805,0.13192
3014.19651,0.08172
3016.12498,0.05526
3018.05345,0.08417
3019.98192,0.14960
3021.91039,0.19757
3023.83886,0.21538
3025.76733,0.21795
3027.69579,0.21308
3029.62426,0.21248
3031.55273,0.22004
3033.48120,0.22646
3035.40967,0.22662
3037.33814,0.21995
3039.26661,0.21360
3041.19508,0.21637
3043.12354,0.22056
3045.05201,0.21324
3046.98048,0.19957
3048.90895,0.20002
3050.83742,0.21481
3052.76589,0.22068
3054.69436,0.20625
3056.62282,0.18583
3058.55129,0.18662
3060.47976,0.20598
3062.40823,0.21688
3064.33670,0.20744
3066.26517,0.18900
3068.19364,0.18796
3070.12211,0.20353
3072.05057,0.21131
3073.97904,0.20234
3075.90751,0.18886
3077.83598,0.19406
3079.76445,0.21318
3081.69292,0.21995
3083.62139,0.20416
3085.54985,0.18371
3087.47832,0.18653
3089.40679,0.20500
3091.33526,0.21046
3093.26373,0.19553
3095.19220,0.18377
3097.12067,0.19322
3099.04914,0.20621
3100.97760,0.20503
3102.90607,0.19297
3104.83454,0.18923
3106.76301,0.19968
3108.69148,0.20716
3110.61995,0.20166
3112.54842,0.19356
3114.47688,0.20177
3116.40535,0.21793
3118.33382,0.22050
3120.26229,0.20643
3122.19076,0.19202
3124.11923,0.19867
3126.04770,0.21636
3127.97617,0.22112
3129.90463,0.21206
3131.83310,0.20644
3133.76157,0.21218
3135.69004,0.21633
3137.61851,0.21044
3139.54698,0.20384
3141.47545,0.20667
3143.40391,0.21460
3145.33238,0.21921
3147.26085,0.21753
3149.18932,0.21572
3151.11779,0.22064
3153.04626,0.22612
3154.97473,0.22612
3156.90320,0.22467
3158.83166,0.22919
3160.76013,0.23469
3162.68860,0.23134
3164.61707,0.22601
3166.54554,0.22687
3168.47401,0.22984
3170.40248,0.22906
3172.33094,0.22331
3174.25941,0.21777
3176.18788,0.21803
3178.11635,0.22137
3180.04482,0.22482
3181.97329,0.22865
3183.90176,0.23102
3185.83022,0.23261
3187.75869,0.23280
3189.68716,0.22791
3191.61563,0.22186
3193.54410,0.22244
3195.47257,0.22761
3197.40104,0.22895
3199.32951,0.22699
3201.25797,0.22662
3203.18644,0.22549
3205.11491,0.22320
3207.04338,0.22440
3208.97185,0.22863
3210.90032,0.23253
3212.82879,0.23523
3214.75725,0.23658
3216.68572,0.23535
3218.61419,0.23021
3220.54266,0.22388
3222.47113,0.22266
3224.39960,0.22524
3226.32807,0.22405
3228.25654,0.21909
3230.18500,0.21711
3232.11347,0.22213
3234.04194,0.22847
3235.97041,0.22859
3237.89888,0.22538
3239.82735,0.22398
3241.75582,0.22151
3243.68428,0.21495
3245.61275,0.21012
3247.54122,0.21344
3249.46969,0.22142
3251.39816,0.22440
3253.32663,0.22229
3255.25510,0.22363
3257.18357,0.22816
3259.11203,0.23157
3261.04050,0.23161
3262.96897,0.22598
3264.89744,0.21837
3266.82591,0.21568
3268.75438,0.22002
3270.68285,0.22801
3272.61131,0.23279
3274.53978,0.23265
3276.46825,0.23141
3278.39672,0.22806
3280.32519,0.22104
3282.25366,0.21416
3284.18213,0.21410
3286.11060,0.22051
3288.03906,0.22549
3289.96753,0.22661
3291.89600,0.22370
3293.82447,0.21656
3295.75294,0.21063
3297.68141,0.21028
3299.60988,0.21189
3301.53834,0.21216
3303.46681,0.21330
3305.39528,0.21408
3307.32375,0.21346
3309.25222,0.21500
3311.18069,0.21884
3313.10916,0.22326
3315.03763,0.22761
3316.96609,0.22872
3318.89456,0.22611
3320.82303,0.22440
3322.75150,0.22276
3324.67997,0.21784
3326.60844,0.21534
3328.53691,0.21851
3330.46537,0.22083
3332.39384,0.22098
3334.32231,0.22047
3336.25078,0.22040
3338.17925,0.22499
3340.10772,0.23100
3342.03619,0.23326
3343.96466,0.23216
3345.89312,0.22977
3347.82159,0.22786
3349.75006,0.22563
3351.67853,0.22407
3353.60700,0.22365
3355.53547,0.22352
3357.46394,0.22490
3359.39240,0.22697
3361.32087,0.22836
3363.24934,0.22675
3365.17781,0.22281
3367.10628,0.22250
3369.03475,0.22428
3370.96322,0.22399
3372.89168,0.22410
3374.82015,0.22493
3376.74862,0.22549
3378.67709,0.22632
3380.60556,0.22399
3382.53403,0.21794
3384.46250,0.21474
3386.39097,0.21767
3388.31943,0.22295
3390.24790,0.22689
3392.17637,0.23021
3394.10484,0.23220
3396.03331,0.23062
3397.96178,0.22766
3399.89025,0.22644
3401.81871,0.22785
3403.74718,0.22990
3405.67565,0.23010
3407.60412,0.22778
3409.53259,0.22351
3411.46106,0.21974
3413.38953,0.21674
3415.31800,0.21226
3417.24646,0.20825
3419.17493,0.21099
3421.10340,0.22001
3423.03187,0.22426
3424.96034,0.21877
3426.88881,0.21101
3428.81728,0.20866
3430.74574,0.21270
3432.67421,0.21581
3434.60268,0.21152
3436.53115,0.20618
3438.45962,0.20531
3440.38809,0.20592
3442.31656,0.20677
3444.24503,0.20965
3446.17349,0.21487
3448.10196,0.21617
3450.03043,0.21155
3451.95890,0.20976
3453.88737,0.21315
3455.81584,0.21354
3457.74431,0.20959
3459.67277,0.20953
3461.60124,0.21051
3463.52971,0.20653
3465.45818,0.20461
3467.38665,0.20725
3469.31512,0.20719
3471.24359,0.20329
3473.17206,0.20089
3475.10052,0.20171
3477.02899,0.20471
3478.95746,0.20506
3480.88593,0.19994
3482.81440,0.19767
3484.74287,0.20090
3486.67134,0.20226
3488.59980,0.20048
3490.52827,0.19702
3492.45674,0.19194
3494.38521,0.19140
3496.31368,0.19864
3498.24215,0.20516
3500.17062,0.20560
3502.09909,0.20018
3504.02755,0.19178
3505.95602,0.18832
3507.88449,0.19031
3509.81296,0.19290
3511.74143,0.19493
3513.66990,0.19374
3515.59837,0.18685
3517.52683,0.17909
3519.45530,0.17652
3521.38377,0.17916
3523.31224,0.18343
3525.24071,0.18652
3527.16918,0.18658
3529.09765,0.18434
3531.02611,0.18409
3532.95458,0.18600
3534.88305,0.18688
3536.81152,0.18326
3538.73999,0.17707
3540.66846,0.17657
3542.59693,0.18058
3544.52540,0.18259
3546.45386,0.18442
3548.38233,0.18639
3550.31080,0.18608
3552.23927,0.18666
3554.16774,0.18721
3556.09621,0.18390
3558.02468,0.17883
3559.95314,0.17605
3561.88161,0.17714
3563.81008,0.17859
3565.73855,0.17821
3567.66702,0.17859
3569.59549,0.17551
3571.52396,0.16573
3573.45243,0.15702
3575.38089,0.15871
3577.30936,0.16686
3579.23783,0.16936
3581.16630,0.16657
3583.09477,0.16830
3585.02324,0.17638
3586.95171,0.18346
3588.88017,0.17698
3590.80864,0.16266
3592.73711,0.15550
3594.66558,0.15664
3596.59405,0.15914
3598.52252,0.16208
3600.45099,0.16524
3602.37946,0.16584
3604.30792,0.16718
3606.23639,0.17215
3608.16486,0.17461
3610.09333,0.17097
3612.02180,0.16741
3613.95027,0.16501
3615.87874,0.16328
3617.80720,0.16355
3619.73567,0.16452
3621.66414,0.16262
3623.59261,0.15895
3625.52108,0.15839
3627.44955,0.16131
3629.37802,0.16052
3631.30649,0.15930
3633.23495,0.16148
3635.16342,0.16164
3637.09189,0.15912
3639.02036,0.15553
3640.94883,0.15326
3642.87730,0.15522
3644.80577,0.16033
3646.73423,0.16268
3648.66270,0.15599
3650.59117,0.15181
3652.51964,0.15399
3654.44811,0.15455
3656.37658,0.15347
3658.30505,0.15147
3660.23352,0.14900
3662.16198,0.14506
3664.09045,0.14006
3666.01892,0.13667
3667.94739,0.13833
3669.87586,0.14508
3671.80433,0.15034
3673.73280,0.15531
3675.66126,0.15927
3677.58973,0.15707
3679.51820,0.15206
3681.44667,0.14666
3683.37514,0.14534
3685.30361,0.14841
3687.23208,0.15237
3689.16055,0.15749
3691.08901,0.16256
3693.01748,0.15931
3694.94595,0.14945
3696.87442,0.14238
3698.80289,0.14098
3700.73136,0.14023
3702.65983,0.13909
3704.58829,0.13639
3706.51676,0.13298
3708.44523,0.13766
3710.37370,0.15013
3712.30217,0.15211
3714.23064,0.14368
3716.15911,0.13587
3718.08757,0.13223
3720.01604,0.13841
3721.94451,0.15110
3723.87298,0.15561
3725.80145,0.14951
3727.72992,0.14393
3729.65839,0.14267
3731.58686,0.14441
3733.51532,0.15289
3735.44379,0.16365
3737.37226,0.15902
3739.30073,0.14942
3741.22920,0.14850
3743.15767,0.15580
3745.08614,0.16189
3747.01460,0.15892
3748.94307,0.15826
3750.87154,0.16220
3752.80001,0.15865
3754.72848,0.15491
3756.65695,0.15831
3758.58542,0.16160
3760.51389,0.15518
3762.44235,0.14639
3764.37082,0.14442
3766.29929,0.14720
3768.22776,0.14770
3770.15623,0.14214
3772.08470,0.13569
3774.01317,0.13476
3775.94163,0.13604
3777.87010,0.13648
3779.79857,0.13389
3781.72704,0.12862
3783.65551,0.12818
3785.58398,0.13333
3787.51245,0.13745
3789.44092,0.13813
3791.36938,0.13644
3793.29785,0.13252
3795.22632,0.12875
3797.15479,0.13100
3799.08326,0.13411
3801.01173,0.13076
3802.94020,0.13294
3804.86866,0.13960
3806.79713,0.13802
3808.72560,0.13535
3810.65407,0.13693
3812.58254,0.13772
3814.51101,0.14356
3816.43948,0.15412
3818.36795,0.15213
3820.29641,0.13815
3822.22488,0.12767
3824.15335,0.13014
3826.08182,0.13579
3828.01029,0.13806
3829.93876,0.13816
3831.86723,0.13883
3833.79569,0.13829
3835.72416,0.13858
3837.65263,0.14277
3839.58110,0.14196
3841.50957,0.13782
3843.43804,0.13770
3845.36651,0.13693
3847.29498,0.13548
3849.22344,0.13697
3851.15191,0.14039
3853.08038,0.14384
3855.00885,0.14377
3856.93732,0.13869
3858.86579,0.13382
3860.79426,0.13416
3862.72272,0.13908
3864.65119,0.14041
3866.57966,0.13888
3868.50813,0.14128
3870.43660,0.14351
3872.36507,0.14212
3874.29354,0.13925
3876.22200,0.13346
3878.15047,0.12884
3880.07894,0.13020
3882.00741,0.13549
3883.93588,0.13769
3885.86435,0.13134
3887.79282,0.12219
3889.72129,0.12208
3891.64975,0.12807
3893.57822,0.12814
3895.50669,0.12450
3897.43516,0.12573
3899.36363,0.13315
3901.29210,0.13769
3903.22057,0.13538
3905.14903,0.13208
3907.07750,0.12734
3909.00597,0.12201
3910.93444,0.11915
3912.86291,0.12016
3914.79138,0.12335
3916.71985,0.12512
3918.64832,0.12485
3920.57678,0.12179
3922.50525,0.11609
3924.43372,0.11426
3926.36219,0.11996
3928.29066,0.12665
3930.21913,0.12894
3932.14760,0.12770
3934.07606,0.12659
3936.00453,0.12759
3937.93300,0.12886
3939.86147,0.12976
3941.78994,0.13118
3943.71841,0.12871
3945.64688,0.12211
3947.57535,0.11945
3949.50381,0.12031
3951.43228,0.11766
3953.36075,0.11483
3955.28922,0.11559
3957.21769,0.11781
3959.14616,0.12016
3961.07463,0.11953
3963.00309,0.11626
3964.93156,0.11605
3966.86003,0.11948
3968.78850,0.12267
3970.71697,0.12248
3972.64544,0.11842
3974.57391,0.11333
3976.50238,0.10952
3978.43084,0.10765
3980.35931,0.10764
3982.28778,0.10901
3984.21625,0.11380
3986.14472,0.11849
3988.07319,0.11722
3990.00166,0.11529
3991.93012,0.11621
3993.85859,0.11643
3995.78706,0.11567
3997.71553,0.11550
3999.64400,0.11678
4001.57247,0.11874
4003.50094,0.11938
4005.42941,0.11687
4007.35787,0.11223
4009.28634,0.10993
4011.21481,0.11075
4013.14328,0.11122
4015.07175,0.11022
4017.00022,0.10982
4018.92869,0.11078
4020.85715,0.11047
4022.78562,0.10799
4024.71409,0.10516
4026.64256,0.10429
4028.57103,0.10756
4030.49950,0.11112
4032.42797,0.10919
4034.35644,0.10454
4036.28490,0.10094
4038.21337,0.09773
4040.14184,0.09633
4042.07031,0.09857
4043.99878,0.10278
4045.92725,0.10461
4047.85572,0.10254
4049.78418,0.09965
4051.71265,0.09689
4053.64112,0.09671
4055.56959,0.09976
4057.49806,0.10114
4059.42653,0.10250
4061.35500,0.10477
4063.28346,0.10270
4065.21193,0.09725
4067.14040,0.09512
4069.06887,0.09901
4070.99734,0.10447
4072.92581,0.10595
4074.85428,0.10331
4076.78275,0.10233
4078.71121,0.10525
4080.63968,0.10560
4082.56815,0.09869
4084.49662,0.09028
4086.42509,0.08773
4088.35356,0.09067
4090.28203,0.09758
4092.21049,0.10626
4094.13896,0.11188
4096.06743,0.11224
4097.99590,0.10889
4099.92437,0.10398
4101.85284,0.09834
4103.78131,0.09424
4105.70978,0.09600
4107.63824,0.10178
4109.56671,0.10224
4111.49518,0.09654
4113.42365,0.09101
4115.35212,0.08685
4117.28059,0.08672
4119.20906,0.09331
4121.13752,0.10184
4123.06599,0.10494
4124.99446,0.10342
4126.92293,0.10010
4128.85140,0.09323
4130.77987,0.09036
4132.70834,0.09442
4134.63681,0.09421
4136.56527,0.08789
4138.49374,0.08397
4140.42221,0.08801
4142.35068,0.09501
4144.27915,0.09642
4146.20762,0.09385
4148.13609,0.09205
4150.06455,0.09171
4151.99302,0.09107
4153.92149,0.08983
4155.84996,0.09236
4157.77843,0.09681
4159.70690,0.09717
4161.63537,0.09492
4163.56384,0.08874
4165.49230,0.08251
4167.42077,0.08620
4169.34924,0.09259
4171.27771,0.09406
4173.20618,0.09202
4175.13465,0.08502
4177.06312,0.07654
4178.99158,0.07528
4180.92005,0.08287
4182.84852,0.08845
4184.77699,0.08729
4186.70546,0.08443
4188.63393,0.08025
4190.56240,0.07797
4192.49087,0.08209
4194.41933,0.08745
4196.34780,0.08721
4198.27627,0.08270
4200.20474,0.07841
4202.13321,0.07595
4204.06168,0.07567
4205.99015,0.07498
4207.91861,0.07220
4209.84708,0.07232
4211.77555,0.07665
4213.70402,0.07702
4215.63249,0.07027
4217.56096,0.06600
4219.48943,0.07079
4221.41789,0.07821
4223.34636,0.08083
4225.27483,0.07726
4227.20330,0.07091
4229.13177,0.06673
4231.06024,0.06584
4232.98871,0.06732
4234.91718,0.06863
4236.84564,0.06944
4238.77411,0.07516
4240.70258,0.08668
4242.63105,0.09410
4244.55952,0.09007
4246.48799,0.08021
4248.41646,0.07397
4250.34492,0.07598
4252.27339,0.07925
4254.20186,0.07425
4256.13033,0.06873
4258.05880,0.07064
4259.98727,0.07233
4261.91574,0.07007
4263.84421,0.06868
4265.77267,0.06874
4267.70114,0.06821
4269.62961,0.06753
4271.55808,0.06631
4273.48655,0.06455
4275.41502,0.06314
4277.34349,0.06221
4279.27195,0.06569
4281.20042,0.06992
4283.12889,0.06696
4285.05736,0.06627
4286.98583,0.07149
4288.91430,0.06988
4290.84277,0.06438
4292.77124,0.06617
4294.69970,0.06811
4296.62817,0.06150
4298.55664,0.05489
4300.48511,0.05557
4302.41358,0.05570
4304.34205,0.04892
4306.27052,0.04435
4308.19898,0.05229
4310.12745,0.06537
4312.05592,0.06699
4313.98439,0.05710
4315.91286,0.05192
4317.84133,0.05700
4319.76980,0.06387
4321.69827,0.06614
4323.62673,0.06193
4325.55520,0.05480
4327.48367,0.05228
4329.41214,0.05154
4331.34061,0.04876
4333.26908,0.05154
4335.19755,0.06039
4337.12601,0.06484
4339.05448,0.06040
4340.98295,0.05428
4342.91142,0.05554
4344.83989,0.06252
4346.76836,0.06543
4348.69683,0.06067
4350.62530,0.05323
4352.55376,0.04802
4354.48223,0.04600
4356.41070,0.04482
4358.33917,0.04429
4360.26764,0.04723
4362.19611,0.05289
4364.12458,0.05876
4366.05304,0.06161
4367.98151,0.05521
4369.90998,0.04300
4371.83845,0.03962
4373.76692,0.04496
4375.69539,0.04426
4377.62386,0.03596
4379.55232,0.03146
4381.48079,0.03374
4383.40926,0.03688
4385.33773,0.04000
4387.26620,0.04556
4389.19467,0.04932
4391.12314,0.04743
4393.05161,0.04630
4394.98007,0.05152
4396.90854,0.05917
4398.83701,0.06252
4400.76548,0.05609
4402.69395,0.04330
4404.62242,0.03677
4406.55089,0.03917
4408.47935,0.04280
4410.40782,0.04496
4412.33629,0.04796
4414.26476,0.05146
4416.19323,0.05254
4418.12170,0.04928
4420.05017,0.04143
4421.97864,0.03310
4423.90710,0.02680
4425.83557,0.02178
4427.76404,0.02036
4429.69251,0.02380
4431.62098,0.02968
4433.54945,0.03131
4435.47792,0.02388
4437.40638,0.01613
4439.33485,0.02122
4441.26332,0.03391
4443.19179,0.03538
4445.12026,0.02268
4447.04873,0.01079
4448.97720,0.01162
4450.90567,0.02238
4452.83413,0.02872
4454.76260,0.02533
4456.69107,0.02258
4458.61954,0.02489
4460.54801,0.02623
4462.47648,0.02433
4464.40495,0.02140
4466.33341,0.01645
4468.26188,0.00776
4470.19035,0.00108
4472.11882,0.00293
4474.04729,0.00837
4475.97576,0.01089
4477.90423,0.01547
4479.83270,0.02234
4481.76116,0.02274
4483.68963,0.01784
4485.61810,0.01566
4487.54657,0.02039
4489.47504,0.02819
4491.40351,0.03116
4493.33198,0.02704
4495.26044,0.02140
4497.18891,0.02452
4499.11738,0.03489
4501.04585,0.03678
4502.97432,0.02971
4504.90279,0.02209
4506.83126,0.01338
4508.75973,0.01104
4510.68819,0.01603
4512.61666,0.01516
4514.54513,0.01229
4516.47360,0.01735
4518.40207,0.02609
4520.33054,0.03398
4522.25901,0.04023
4524.18747,0.04099
4526.11594,0.03384
4528.04441,0.02312
4529.97288,0.01815
4531.90135,0.01943
4533.82982,0.01762
4535.75829,0.01256
4537.68676,0.01234
4539.61522,0.01989
4541.54369,0.02531
4543.47216,0.02256
4545.40063,0.02149
4547.32910,0.02067
4549.25757,0.01003
4551.18604,-0.00065
4553.11450,-0.00079
4555.04297,0.00103
4556.97144,-0.00044
4558.89991,-0.00169
4560.82838,-0.00166
4562.75685,0.00242
4564.68532,0.00980
4566.61378,0.01060
4568.54225,0.00402
4570.47072,-0.00190
4572.39919,-0.00693
4574.32766,-0.00655
4576.25613,0.00687
4578.18460,0.02271
4580.11307,0.02316
4582.04153,0.01299
4583.97000,0.01166
4585.89847,0.01907
4587.82694,0.02004
4589.75541,0.01378
4591.68388,0.01029
4593.61235,0.00933
4595.54081,0.01047
4597.46928,0.01663
4599.39775,0.02279
4601.32622,0.02371
4603.25469,0.01728
4605.18316,0.00832
4607.11163,0.00611
4609.04010,0.00354
4610.96856,-0.00364
4612.89703,-0.00114
4614.82550,0.00839
4616.75397,0.01518
4618.68244,0.02024
4620.61091,0.01767
4622.53938,0.00913
4624.46784,0.00594
4626.39631,0.01010
4628.32478,0.01334
4630.25325,0.01356
4632.18172,0.01397
4634.11019,0.00980
4636.03866,0.00267
4637.96713,0.00102
4639.89559,0.00008
4641.82406,-0.00423
4643.75253,-0.00509
4645.68100,-0.00623
4647.60947,-0.00523
4649.53794,0.00626
4651.46641,0.01561
4653.39487,0.01770
4655.32334,0.01856
4657.25181,0.01747
4659.18028,0.01430
4661.10875,0.01236
4663.03722,0.01266
4664.96569,0.01217
4666.89416,0.01111
4668.82262,0.01155
4670.75109,0.01109
4672.67956,0.00448
4674.60803,-0.00482
4676.53650,-0.00643
4678.46497,-0.00179
4680.39344,0.00320
4682.32190,0.00819
4684.25037,0.00997
4686.17884,0.00652
4688.10731,0.00131
4690.03578,0.00065
4691.96425,0.00648
4693.89272,0.01095
4695.82119,0.01056
4697.74965,0.00940
4699.67812,0.00800
4701.60659,0.00330
4703.53506,-0.00381
4705.46353,-0.00403
4707.39200,0.00373
4709.32047,0.01182
4711.24893,0.01458
4713.17740,0.00609
4715.10587,-0.01186
4717.03434,-0.02227
4718.96281,-0.01483
4720.89128,-0.00066
4722.81975,0.00637
4724.74821,0.00379
4726.67668,-0.00075
4728.60515,-0.00368
4730.53362,-0.00505
4732.46209,-0.00143
4734.39056,-0.00017
4736.31903,-0.00316
4738.24750,0.00353
4740.17596,0.01576
4742.10443,0.02093
4744.03290,0.02190
4745.96137,0.02479
4747.88984,0.02950
4749.81831,0.03148
4751.74678,0.02645
4753.67524,0.01344
4755.60371,0.00519
4757.53218,0.01454
4759.46065,0.02920
4761.38912,0.03415
4763.31759,0.03014
4765.24606,0.01786
4767.17453,0.00798
4769.10299,0.01306
4771.03146,0.01668
4772.95993,0.00978
4774.88840,0.01120
4776.81687,0.02366
4778.74534,0.02160
4780.67381,-0.00052
4782.60227,-0.01178
4784.53074,-0.00654
4786.45921,-0.00553
4788.38768,-0.00842
4790.31615,-0.00885
4792.24462,-0.00628
4794.17309,-0.00292
4796.10156,-0.00740
4798.03002,-0.01471
4799.95849,-0.01446
4801.88696,-0.00809
4803.81543,0.00065
4805.74390,0.00630
4807.67237,0.01006
4809.60084,0.01453
4811.52930,0.01376
4813.45777,0.00761
4815.38624,0.00262
4817.31471,0.00657
4819.24318,0.01505
4821.17165,0.01357
4823.10012,0.00244
4825.02859,-0.00420
4826.95705,0.00246
4828.88552,0.01190
4830.81399,0.00534
4832.74246,-0.01241
4834.67093,-0.01885
4836.59940,-0.00746
4838.52787,0.00536
4840.45633,0.00706
4842.38480,0.00341
4844.31327,-0.00003
4846.24174,-0.00515
4848.17021,-0.01005
4850.09868,-0.00949
4852.02715,-0.00620
4853.95562,-0.00832
4855.88408,-0.01088
4857.81255,-0.00608
4859.74102,-0.00661
4861.66949,-0.01942
4863.59796,-0.02407
4865.52643,-0.01082
4867.45490,0.00179
4869.38336,0.00321
4871.31183,0.00862
4873.24030,0.02237
4875.16877,0.02380
4877.09724,0.00898
4879.02571,0.00170
4880.95418,0.00873
4882.88265,0.01793
4884.81111,0.02704
4886.73958,0.03027
4888.66805,0.02078
4890.59652,0.01421
4892.52499,0.02225
4894.45346,0.02777
4896.38193,0.01802
4898.31039,0.00477
4900.23886,0.00307
4902.16733,0.00642
4904.09580,-0.00017
4906.02427,-0.00674
4907.95274,0.00219
4909.88121,0.01509
4911.80967,0.01484
4913.73814,0.00411
4915.66661,-0.00351
4917.59508,-0.00576
4919.52355,-0.00664
4921.45202,-0.00253
4923.38049,0.00158
4925.30896,-0.00168
4927.23742,-0.00833
4929.16589,-0.01773
4931.09436,-0.02038
4933.02283,-0.00002
4934.95130,0.02731
4936.87977,0.03211
4938.80824,0.02245
4940.73670,0.01945
4942.66517,0.01554
4944.59364,0.00665
4946.52211,0.00663
4948.45058,0.01192
4950.37905,0.01258
4952.30752,0.01487
4954.23599,0.01572
4956.16445,0.01007
4958.09292,0.01293
4960.02139,0.02436
4961.94986,0.02253
4963.87833,0.00734
4965.80680,0.00049
4967.73527,0.00440
4969.66373,0.00381
4971.59220,-0.00027
4973.52067,-0.00054
4975.44914,-0.00025
4977.37761,-0.00046
4979.30608,0.00322
4981.23455,0.01034
4983.16302,0.01492
4985.09148,0.02157
4987.01995,0.03609
4988.94842,0.03964
4990.87689,0.02638
4992.80536,0.02460
4994.73383,0.03620
4996.66230,0.03207
4998.59076,0.01004
5000.51923,-0.00852
5002.44770,-0.00763
5004.37617,0.01284
5006.30464,0.03097
5008.23311,0.02654
5010.16158,0.00876
5012.09005,0.00646
5014.01851,0.01440
5015.94698,0.01005
5017.87545,0.00822
5019.80392,0.01506
5021.73239,0.01448
5023.66086,0.01556
5025.58933,0.02752
5027.51779,0.03393
5029.44626,0.02933
5031.37473,0.02749
5033.30320,0.03230
5035.23167,0.03511
5037.16014,0.03211
5039.08861,0.03015
5041.01708,0.03457
5042.94554,0.04293
5044.87401,0.04468
5046.80248,0.03110
5048.73095,0.01313
5050.65942,0.00365
5052.58789,0.00434
5054.51636,0.01458
5056.44482,0.02514
5058.37329,0.02731
5060.30176,0.03004
5062.23023,0.03756
5064.15870,0.04003
5066.08717,0.03520
5068.01564,0.02580
5069.94410,0.01529
5071.87257,0.01041
5073.80104,0.01310
5075.72951,0.02406
5077.65798,0.03722
5079.58645,0.03409
5081.51492,0.01954
5083.44339,0.01305
5085.37185,0.01732
5087.30032,0.02549
5089.22879,0.02925
5091.15726,0.03846
5093.08573,0.05255
5095.01420,0.05396
5096.94267,0.04974
5098.87113,0.04070
5100.79960,0.01818
5102.72807,0.00025
5104.65654,0.00056
5106.58501,0.00705
5108.51348,0.00628
5110.44195,0.00329
5112.37042,0.01566
5114.29888,0.03738
5116.22735,0.04758
5118.15582,0.04553
5120.08429,0.03244
5122.01276,0.01324
5123.94123,0.00660
5125.86970,0.01648
5127.79816,0.02106
5129.72663,0.01558
5131.65510,0.02079
5133.58357,0.03160
5135.51204,0.03254
5137.44051,0.03040
5139.36898,0.02710
5141.29745,0.01744
5143.22591,0.01478
5145.15438,0.02455
5147.08285,0.03181
5149.01132,0.03554
5150.93979,0.02922
5152.86826,0.00525
5154.79673,-0.01086
5156.72519,-0.00746
5158.65366,0.00117
5160.58213,0.01945
5162.51060,0.03842
5164.43907,0.04002
5166.36754,0.04068
5168.29601,0.04729
5170.22448,0.04129
5172.15294,0.02235
5174.08141,0.01602
5176.00988,0.02731
5177.93835,0.04081
5179.86682,0.05018
5181.79529,0.04919
5183.72376,0.04981
5185.65222,0.06359
5187.58069,0.06193
5189.50916,0.03548
5191.43763,0.01662
5193.36610,0.01971
5195.29457,0.02783
5197.22304,0.02921
5199.15151,0.02623
5201.07997,0.02416
5203.00844,0.02399
5204.93691,0.03016
5206.86538,0.04362
5208.79385,0.05499
5210.72232,0.06551
5212.65079,0.06309
5214.57925,0.04466
5216.50772,0.03797
5218.43619,0.04555
5220.36466,0.05071
5222.29313,0.05245
5224.22160,0.05636
5226.15007,0.06255
5228.07854,0.06174
5230.00700,0.06208
5231.93547,0.06769
5233.86394,0.05195
5235.79241,0.01855
5237.72088,0.00958
5239.64935,0.02762
5241.57782,0.04061
5243.50628,0.04879
5245.43475,0.06693
5247.36322,0.07637
5249.29169,0.05111
5251.22016,0.01219
5253.14863,0.00210
5255.07710,0.02118
5257.00556,0.04001
5258.93403,0.05064
5260.86250,0.05705
5262.79097,0.05359
5264.71944,0.04068
5266.64791,0.02659
5268.57638,0.00981
5270.50485,-0.00118
5272.43331,0.01206
5274.36178,0.03618
5276.29025,0.04835
5278.21872,0.05339
5280.14719,0.05556
5282.07566,0.04606
5284.00413,0.02972
5285.93259,0.02301
5287.86106,0.03696
5289.78953,0.06274
5291.71800,0.07315
5293.64647,0.07309
5295.57494,0.08805
5297.50341,0.09883
5299.43188,0.08767
5301.36034,0.08122
5303.28881,0.08431
5305.21728,0.07781
5307.14575,0.06114
5309.07422,0.04520
5311.00269,0.04446
5312.93116,0.04956
5314.85962,0.04451
5316.78809,0.03844
5318.71656,0.03944
5320.64503,0.04565
5322.57350,0.05543
5324.50197,0.06481
5326.43044,0.06929
5328.35891,0.06378
5330.28737,0.05517
5332.21584,0.04925
5334.14431,0.04380
5336.07278,0.04724
5338.00125,0.05223
5339.92972,0.05218
5341.85819,0.06892
5343.78665,0.09448
5345.71512,0.10761
5347.64359,0.11421
5349.57206,0.11355
5351.50053,0.10440
5353.42900,0.08877
5355.35747,0.06351
5357.28594,0.04883
5359.21440,0.05342
5361.14287,0.05987
5363.07134,0.06293
5364.99981,0.05878
5366.92828,0.05381
5368.85675,0.07382
5370.78522,0.10075
5372.71368,0.10317
5374.64215,0.09557
5376.57062,0.09330
5378.49909,0.07907
5380.42756,0.06080
5382.35603,0.07114
5384.28450,0.09541
5386.21297,0.08350
5388.14143,0.06273
5390.06990,0.07841
5391.99837,0.10577
5393.92684,0.11245
5395.85531,0.09787
5397.78378,0.06793
5399.71225,0.03966
5401.64071,0.04016
5403.56918,0.05990
5405.49765,0.06386
5407.42612,0.05517
5409.35459,0.06634
5411.28306,0.09231
5413.21153,0.10629
5415.13999,0.11453
5417.06846,0.12994
5418.99693,0.13806
5420.92540,0.11620
5422.85387,0.07442
5424.78234,0.04624
5426.71081,0.04789
5428.63928,0.06907
5430.56774,0.08403
5432.49621,0.08520
5434.42468,0.08063
5436.35315,0.07307
5438.28162,0.06309
5440.21009,0.06587
5442.13856,0.08259
5444.06702,0.09537
5445.99549,0.10612
5447.92396,0.10810
5449.85243,0.10371
5451.78090,0.10866
5453.70937,0.11000
5455.63784,0.10353
5457.56631,0.10401
5459.49477,0.10014
5461.42324,0.08099
5463.35171,0.06974
5465.28018,0.07232
5467.20865,0.06966
5469.13712,0.05632
5471.06559,0.05243
5472.99405,0.06825
5474.92252,0.07682
5476.85099,0.06176
5478.77946,0.04462
5480.70793,0.04582
5482.63640,0.06367
5484.56487,0.07261
5486.49334,0.06293
5488.42180,0.04756
5490.35027,0.04775
5492.27874,0.07043
5494.20721,0.08406
5496.13568,0.07676
5498.06415,0.06928
5499.99262,0.07725
5501.92108,0.09269
5503.84955,0.08618
5505.77802,0.06488
5507.70649,0.06657
5509.63496,0.08194
5511.56343,0.07255
5513.49190,0.04474
5515.42037,0.03359
5517.34883,0.04203
5519.27730,0.05249
5521.20577,0.06859
5523.13424,0.09429
5525.06271,0.10608
5526.99118,0.09574
5528.91965,0.09229
5530.84811,0.09506
5532.77658,0.06768
5534.70505,0.03338
5536.63352,0.04217
5538.56199,0.07530
5540.49046,0.09245
5542.41893,0.08181
5544.34740,0.06033
5546.27586,0.06728
5548.20433,0.09815
5550.13280,0.11090
5552.06127,0.10228
5553.98974,0.09046
5555.91821,0.07732
5557.84668,0.06494
5559.77514,0.05734
5561.70361,0.05533
5563.63208,0.06929
5565.56055,0.09113
5567.48902,0.09665
5569.41749,0.09753
5571.34596,0.11864
5573.27443,0.14342
5575.20289,0.13283
5577.13136,0.09442
5579.05983,0.07570
5580.98830,0.08528
5582.91677,0.08735
5584.84524,0.08421
5586.77371,0.09068
5588.70217,0.08481
5590.63064,0.07067
5592.55911,0.07568
5594.48758,0.09589
5596.41605,0.11538
5598.34452,0.12612
5600.27299,0.12642
5602.20145,0.11765
5604.12992,0.10936
5606.05839,0.10230
5607.98686,0.08459
5609.91533,0.07730
5611.84380,0.09297
5613.77227,0.08771
5615.70074,0.06004
5617.62920,0.05503
5619.55767,0.06473
5621.48614,0.06644
5623.41461,0.07771
5625.34308,0.11483
5627.27155,0.15408
5629.20002,0.15088
5631.12848,0.11060
5633.05695,0.07383
5634.98542,0.06059
5636.91389,0.06886
5638.84236,0.07571
5640.77083,0.06092
5642.69930,0.05088
5644.62777,0.08550
5646.55623,0.14320
5648.48470,0.15921
5650.41317,0.12193
5652.34164,0.07655
5654.27011,0.05666
5656.19858,0.06565
5658.12705,0.08724
5660.05551,0.08319
5661.98398,0.05082
5663.91245,0.04237
5665.84092,0.05910
5667.76939,0.06457
5669.69786,0.06527
5671.62633,0.06623
5673.55480,0.06451
5675.48326,0.07666
5677.41173,0.09413
5679.34020,0.09987
5681.26867,0.09947
5683.19714,0.08811
5685.12561,0.09177
5687.05408,0.12435
5688.98254,0.11790
5690.91101,0.06637
5692.83948,0.04557
5694.76795,0.06845
5696.69642,0.09088
5698.62489,0.08769
5700.55336,0.08779
5702.48183,0.10672
5704.41029,0.12473
5706.33876,0.13563
5708.26723,0.13564
5710.19570,0.12170
5712.12417,0.11147
5714.05264,0.11585
5715.98111,0.11877
5717.90957,0.11108
5719.83804,0.09840
5721.76651,0.10390
5723.69498,0.12701
5725.62345,0.12476
5727.55192,0.09109
5729.48039,0.07097
5731.40886,0.07822
5733.33732,0.07752
5735.26579,0.07273
5737.19426,0.09652
5739.12273,0.11613
5741.05120,0.09355
5742.97967,0.05762
5744.90814,0.04836
5746.83660,0.06462
5748.76507,0.08356
5750.69354,0.08420
5752.62201,0.06457
5754.55048,0.05286
5756.47895,0.05344
5758.40742,0.04771
5760.33588,0.05344
5762.26435,0.07926
5764.19282,0.09254
5766.12129,0.08792
5768.04976,0.07589
5769.97823,0.07020
5771.90670,0.08925
5773.83517,0.10330
5775.76363,0.09107
5777.69210,0.08576
5779.62057,0.09351
5781.54904,0.08838
5783.47751,0.07078
5785.40598,0.06254
5787.33445,0.09422
5789.26291,0.14326
5791.19138,0.15109
5793.11985,0.12613
5795.04832,0.11556
5796.97679,0.12707
5798.90526,0.12258
5800.83373,0.11321
5802.76220,0.13585
5804.69066,0.14350
5806.61913,0.09781
5808.54760,0.05355
5810.47607,0.04766
5812.40454,0.05763
5814.33301,0.06044
5816.26148,0.06932
5818.18994,0.09551
5820.11841,0.11147
5822.04688,0.10252
5823.97535,0.08922
5825.90382,0.08440
5827.83229,0.09719
5829.76076,0.12320
5831.68923,0.12775
5833.61769,0.08903
5835.54616,0.03334
5837.47463,0.00462
5839.40310,0.02715
5841.33157,0.07516
5843.26004,0.09030
5845.18851,0.07534
5847.11697,0.07435
5849.04544,0.07724
5850.97391,0.06004
5852.90238,0.05689
5854.83085,0.06747
5856.75932,0.06476
5858.68779,0.08531
5860.61626,0.13847
5862.54472,0.16465
5864.47319,0.13937
5866.40166,0.10326
5868.33013,0.10671
5870.25860,0.14281
5872.18707,0.16965
5874.11554,0.16081
5876.04400,0.10341
5877.97247,0.03219
5879.90094,0.00780
5881.82941,0.02970
5883.75788,0.03262
5885.68635,-0.00021
5887.61482,0.00565
5889.54329,0.06110
5891.47175,0.09255
5893.40022,0.08324
5895.32869,0.05996
5897.25716,0.05162
5899.18563,0.07436
5901.11410,0.10319
5903.04257,0.12034
5904.97103,0.14379
5906.89950,0.16548
5908.82797,0.15874
5910.75644,0.13357
5912.68491,0.11204
5914.61338,0.09528
5916.54185,0.08391
5918.47032,0.07631
5920.39878,0.07874
5922.32725,0.09671
5924.25572,0.09909
5926.18419,0.09871
5928.11266,0.12392
5930.04113,0.14008
5931.96960,0.13747
5933.89806,0.12704
5935.82653,0.10710
5937.75500,0.07996
5939.68347,0.06151
5941.61194,0.08338
5943.54041,0.12353
5945.46888,0.11743
5947.39734,0.07857
5949.32581,0.05917
5951.25428,0.05756
5953.18275,0.06856
5955.11122,0.09113
5957.03969,0.10288
5958.96816,0.10106
5960.89663,0.08772
5962.82509,0.06492
5964.75356,0.05267
5966.68203,0.06618
5968.61050,0.10407
5970.53897,0.15092
5972.46744,0.17514
5974.39591,0.17290
5976.32437,0.17496
5978.25284,0.16838
5980.18131,0.12391
5982.10978,0.08617
5984.03825,0.11296
5985.96672,0.14250
5987.89519,0.10531
5989.82366,0.06209
5991.75212,0.05411
5993.68059,0.05149
5995.60906,0.06430
5997.53753,0.09214
5999.46600,0.08208
6001.39447,0.04857
6003.32294,0.05117
6005.25140,0.07074
6007.17987,0.05205
6009.10834,0.02666
6011.03681,0.03383
6012.96528,0.04738
6014.89375,0.06442
6016.82222,0.09735
6018.75069,0.10207
6020.67915,0.06519
6022.60762,0.05277
6024.53609,0.08024
6026.46456,0.11874
6028.39303,0.14805
6030.32150,0.13677
6032.24997,0.09252
6034.17843,0.06503
6036.10690,0.06217
6038.03537,0.04446
6039.96384,0.03503
6041.89231,0.06378
6043.82078,0.09279
6045.74925,0.10310
6047.67772,0.09536
6049.60618,0.05916
6051.53465,0.01939
6053.46312,0.02930
6055.39159,0.08474
6057.32006,0.10699
6059.24853,0.07961
6061.17700,0.06277
6063.10546,0.07653
6065.03393,0.07456
6066.96240,0.04761
6068.89087,0.04067
6070.81934,0.06504
6072.74781,0.07671
6074.67628,0.05538
6076.60475,0.04312
6078.53321,0.05742
6080.46168,0.07550
6082.39015,0.09697
6084.31862,0.13942
6086.24709,0.17456
6088.17556,0.16633
6090.10403,0.14443
6092.03249,0.13516
6093.96096,0.12779
6095.88943,0.07506
6097.81790,-0.00357
6099.74637,-0.01585
6101.67484,0.01730
6103.60331,0.03185
6105.53177,0.04653
6107.46024,0.05434
6109.38871,0.03735
6111.31718,0.04717
6113.24565,0.08733
6115.17412,0.11432
6117.10259,0.13000
6119.03106,0.13881
6120.95952,0.11725
6122.88799,0.06933
6124.81646,0.04345
6126.74493,0.04181
6128.67340,0.05226
6130.60187,0.11338
6132.53034,0.17044
6134.45880,0.14839
6136.38727,0.10329
6138.31574,0.09961
6140.24421,0.12496
6142.17268,0.14292
6144.10115,0.12814
6146.02962,0.11319
6147.95809,0.13313
6149.88655,0.17482
6151.81502,0.22462
6153.74349,0.23156
6155.67196,0.16709
6157.60043,0.11239
6159.52890,0.11900
6161.45737,0.13881
6163.38583,0.12655
6165.31430,0.09821
6167.24277,0.07372
6169.17124,0.06277
6171.09971,0.09158
6173.02818,0.13489
6174.95665,0.12699
6176.88512,0.08098
6178.81358,0.05639
6180.74205,0.04933
6182.67052,0.04166
6184.59899,0.07123
6186.52746,0.12828
6188.45593,0.11255
6190.38440,0.05399
6192.31286,0.06702
6194.24133,0.08765
6196.16980,0.04858
6198.09827,0.01739
6200.02674,0.03557
6201.95521,0.05376
6203.88368,0.03478
6205.81215,0.04123
6207.74061,0.08720
6209.66908,0.08804
6211.59755,0.05816
6213.52602,0.06410
6215.45449,0.08176
6217.38296,0.11042
6219.31143,0.14881
6221.23989,0.14206
6223.16836,0.07327
6225.09683,-0.02025
6227.02530,-0.05057
6228.95377,0.00972
6230.88224,0.05273
6232.81071,0.04958
6234.73918,0.08631
6236.66764,0.15888
6238.59611,0.18814
6240.52458,0.15090
6242.45305,0.11946
6244.38152,0.14590
6246.30999,0.17042
6248.23846,0.14857
6250.16692,0.11920
6252.09539,0.08477
6254.02386,0.05442
6255.95233,0.08507
6257.88080,0.14975
6259.80927,0.17107
6261.73774,0.15561
6263.66621,0.16671
6265.59467,0.20078
6267.52314,0.16244
6269.45161,0.07232
6271.38008,0.04210
6273.30855,0.07682
6275.23702,0.11341
6277.16549,0.09475
6279.09395,0.02426
6281.02242,0.01574
6282.95089,0.10398
6284.87936,0.15413
6286.80783,0.12115
6288.73630,0.07230
6290.66477,0.02107
6292.59323,-0.00312
6294.52170,0.04047
6296.45017,0.11460
6298.37864,0.14634
6300.30711,0.10111
6302.23558,0.05562
6304.16405,0.06924
6306.09252,0.08054
6308.02098,0.07333
6309.94945,0.07879
6311.87792,0.10174
6313.80639,0.11589
6315.73486,0.13979
6317.66333,0.19226
6319.59180,0.18118
6321.52026,0.09481
6323.44873,0.05531
6325.37720,0.07625
6327.30567,0.11407
6329.23414,0.16112
6331.16261,0.17319
6333.09108,0.14813
6335.01955,0.14501
6336.94801,0.13578
6338.87648,0.08969
6340.80495,0.05050
6342.73342,0.04020
6344.66189,0.06329
6346.59036,0.08323
6348.51883,0.06804
6350.44729,0.05087
6352.37576,0.06763
6354.30423,0.11812
6356.23270,0.11680
6358.16117,0.03136
6360.08964,-0.05991
6362.01811,-0.09670
6363.94658,-0.07222
6365.87504,-0.04979
6367.80351,-0.04125
6369.73198,0.01162
6371.66045,0.07302
6373.58892,0.08979
6375.51739,0.06516
6377.44586,0.06261
6379.37432,0.11000
6381.30279,0.13741
6383.23126,0.10613
6385.15973,0.06063
6387.08820,0.03686
6389.01667,0.03420
6390.94514,0.05243
6392.87361,0.09673
6394.80207,0.11109
6396.73054,0.05273
6398.65901,-0.01363
6400.58748,-0.03559
6402.51595,-0.04011
6404.44442,-0.03835
6406.37289,0.00153
6408.30135,0.04581
6410.22982,0.06269
6412.15829,0.07623
6414.08676,0.09808
6416.01523,0.10608
6417.94370,0.05930
6419.87217,-0.00076
6421.80064,-0.01337
6423.72910,-0.00947
6425.65757,-0.03029
6427.58604,-0.04970
6429.51451,-0.00573
6431.44298,0.08258
6433.37145,0.14126
6435.29992,0.15284
6437.22838,0.09745
6439.15685,-0.01380
6441.08532,-0.08251
6443.01379,-0.07299
6444.94226,-0.04186
6446.87073,-0.01278
6448.79920,0.01817
6450.72766,0.01492
6452.65613,-0.00549
6454.58460,0.02200
6456.51307,0.08129
6458.44154,0.09333
6460.37001,0.08450
6462.29848,0.09391
6464.22695,0.04882
6466.15541,-0.03573
6468.08388,-0.07238
6470.01235,-0.05329
6471.94082,0.00655
6473.86929,0.06900
6475.79776,0.07745
6477.72623,0.04830
6479.65469,0.07261
6481.58316,0.15029
6483.51163,0.20404
6485.44010,0.21844
6487.36857,0.20885
6489.29704,0.21124
6491.22551,0.25073
6493.15398,0.25295
6495.08244,0.15518
6497.01091,0.05706
6498.93938,0.05394
6500.86785,0.07067
6502.79632,0.02087
6504.72479,-0.01949
6506.65326,0.00333
6508.58172,0.05366
6510.51019,0.09401
6512.43866,0.11293
6514.36713,0.12842
6516.29560,0.13137
6518.22407,0.12603
6520.15254,0.16129
6522.08101,0.22285
6524.00947,0.25830
6525.93794,0.22397
6527.86641,0.16694
6529.79488,0.17716
6531.72335,0.18832
6533.65182,0.11811
6535.58029,0.05096
6537.50875,0.07245
6539.43722,0.13378
6541.36569,0.16877
6543.29416,0.16010
6545.22263,0.09270
6547.15110,0.02483
6549.07957,0.04046
6551.00804,0.11165
6552.93650,0.11038
6554.86497,0.04322
6556.79344,0.01261
6558.72191,0.01338
6560.65038,0.01311
6562.57885,0.03794
6564.50732,0.08150
6566.43578,0.07790
6568.36425,0.02186
6570.29272,-0.02254
6572.22119,-0.03166
6574.14966,0.00439
6576.07813,0.06899
6578.00660,0.08475
6579.93507,0.05497
6581.86353,0.07917
6583.79200,0.14025
6585.72047,0.14447
6587.64894,0.11895
6589.57741,0.13093
6591.50588,0.17947
6593.43435,0.18380
6595.36281,0.11268
6597.29128,0.09223
6599.21975,0.13029
6601.14822,0.12246
6603.07669,0.08976
6605.00516,0.06409
6606.93363,0.02987
6608.86210,0.03248
6610.79056,0.06838
6612.71903,0.09327
6614.64750,0.12098
6616.57597,0.11970
6618.50444,0.06941
6620.43291,0.05994
6622.36138,0.09742
6624.28984,0.09939
6626.21831,0.05886
6628.14678,0.02239
6630.07525,0.02516
6632.00372,0.08740
6633.93219,0.16043
6635.86066,0.14807
6637.78912,0.05800
6639.71759,0.02749
6641.64606,0.08146
6643.57453,0.10999
6645.50300,0.11105
6647.43147,0.16742
6649.35994,0.20444
6651.28841,0.16466
6653.21687,0.13293
6655.14534,0.17209
6657.07381,0.16374
6659.00228,0.01510
6660.93075,-0.11637
6662.85922,-0.13560
6664.78769,-0.09559
6666.71615,-0.04743
6668.64462,0.00108
6670.57309,0.04448
6672.50156,0.02965
6674.43003,-0.00319
6676.35850,0.03467
6678.28697,0.08393
6680.21544,0.10570
6682.14390,0.14902
6684.07237,0.18723
6686.00084,0.19533
6687.92931,0.20414
6689.85778,0.17268
6691.78625,0.09113
6693.71472,0.03539
6695.64318,0.03917
6697.57165,0.08562
6699.50012,0.14308
6701.42859,0.16302
6703.35706,0.10267
6705.28553,0.02242
6707.21400,0.01187
6709.14247,0.04151
6711.07093,0.04620
6712.99940,0.03877
6714.92787,0.03803
6716.85634,0.01727
6718.78481,-0.02158
6720.71328,-0.01031
6722.64175,0.04266
6724.57021,0.05349
6726.49868,0.03382
6728.42715,0.01699
6730.35562,0.00014
6732.28409,0.02393
6734.21256,0.05493
6736.14103,-0.03162
6738.06950,-0.17599
6739.99796,-0.18389
6741.92643,-0.02878
6743.85490,0.09066
6745.78337,0.08444
6747.71184,0.04471
6749.64031,0.05157
6751.56878,0.08034
6753.49724,0.10008
6755.42571,0.11100
6757.35418,0.09708
6759.28265,0.04597
6761.21112,-0.02450
6763.13959,-0.08337
6765.06806,-0.08419
6766.99653,0.00982
6768.92499,0.10380
6770.85346,0.09591
6772.78193,0.05519
6774.71040,0.03449
6776.63887,-0.00819
6778.56734,-0.02722
6780.49581,0.01348
6782.42427,0.04201
6784.35274,0.03428
6786.28121,0.05511
6788.20968,0.10259
6790.13815,0.11314
6792.06662,0.08800
6793.99509,0.03400
6795.92355,-0.04568
6797.85202,-0.07759
6799.78049,-0.03415
6801.70896,0.05595
6803.63743,0.13027
6805.56590,0.14758
6807.49437,0.12774
6809.42284,0.15137
6811.35130,0.22744
6813.27977,0.20121
6815.20824,0.10510
6817.13671,0.07101
6819.06518,0.07009
6820.99365,0.09293
6822.92212,0.14412
6824.85058,0.17063
6826.77905,0.16662
6828.70752,0.13022
6830.63599,0.02868
6832.56446,-0.07705
6834.49293,-0.07904
6836.42140,0.01968
6838.34987,0.11335
6840.27833,0.19347
6842.20680,0.22704
6844.13527,0.15352
6846.06374,0.10009
6847.99221,0.10932
6849.92068,-0.00995
6851.84915,-0.20095
6853.77761,-0.26336
6855.70608,-0.19481
6857.63455,-0.12050
6859.56302,-0.08279
6861.49149,-0.02366
6863.41996,0.07975
6865.34843,0.16632
6867.27690,0.14973
6869.20536,0.03800
6871.13383,-0.04154
6873.06230,-0.02363
6874.99077,-0.00383
6876.91924,-0.01587
6878.84771,0.00012
6880.77618,0.02869
6882.70464,0.03139
6884.63311,0.05395
6886.56158,0.11317
6888.49005,0.15402
6890.41852,0.18927
6892.34699,0.21462
6894.27546,0.14159
6896.20393,0.02772
6898.13239,0.00280
6900.06086,-0.00713
6901.98933,-0.03048
6903.91780,0.06716
6905.84627,0.15975
6907.77474,0.05696
6909.70321,-0.03640
6911.63167,0.00820
6913.56014,0.08700
6915.48861,0.13472
6917.41708,0.13457
6919.34555,0.11140
6921.27402,0.15932
6923.20249,0.21257
6925.13096,0.19437
6927.05942,0.13841
6928.98789,0.05166
6930.91636,-0.02737
6932.84483,0.00425
6934.77330,0.14663
6936.70177,0.32406
6938.63024,0.39714
6940.55870,0.23470
6942.48717,0.03078
6944.41564,-0.05900
6946.34411,-0.06220
6948.27258,0.02020
6950.20105,0.08546
6952.12952,0.01932
6954.05799,-0.10119
6955.98645,-0.06202
6957.91492,0.07137
6959.84339,0.12520
6961.77186,0.17852
6963.70033,0.23431
6965.62880,0.19731
6967.55727,0.10214
6969.48573,0.01085
6971.41420,-0.06980
6973.34267,-0.08866
6975.27114,-0.05450
6977.19961,-0.06397
6979.12808,-0.07750
6981.05655,-0.01386
6982.98501,0.10119
6984.91348,0.12730
6986.84195,0.01678
6988.77042,-0.06858
6990.69889,-0.06742
6992.62736,-0.02491
6994.55583,0.06886
6996.48430,0.11514
6998.41276,0.01454
7000.34123,-0.05086
7002.26970,0.01864
7004.19817,0.03823
7006.12664,-0.01833
7008.05511,0.02908
7009.98358,0.14543
7011.91204,0.14200
7013.84051,0.00238
7015.76898,-0.06717
7017.69745,-0.00113
7019.62592,0.09892
7021.55439,0.18690
7023.48286,0.24945
7025.41133,0.25456
7027.33979,0.20692
7029.26826,0.12163
7031.19673,0.03895
7033.12520,0.04860
7035.05367,0.11933
7036.98214,0.06814
7038.91061,-0.00352
7040.83907,0.04560
7042.76754,0.18986
7044.69601,0.27527
7046.62448,0.21355
7048.55295,0.11933
7050.48142,0.06829
7052.40989,0.02802
7054.33836,0.00053
7056.26682,-0.01283
7058.19529,-0.02526
7060.12376,0.02059
7062.05223,0.15587
7063.98070,0.22912
7065.90917,0.11898
7067.83764,0.00482
7069.76610,0.04023
7071.69457,0.09037
7073.62304,0.02154
7075.55151,-0.01208
7077.47998,0.00011
7079.40845,-0.02376
7081.33692,-0.07018
7083.26539,-0.03646
7085.19385,0.10428
7087.12232,0.23433
7089.05079,0.22837
7090.97926,0.16611
7092.90773,0.11157
7094.83620,0.07320
7096.76467,0.10162
7098.69313,0.10365
7100.62160,0.01325
7102.55007,-0.00524
7104.47854,0.11393
7106.40701,0.20783
7108.33548,0.16682
7110.26395,0.10328
7112.19242,0.07452
7114.12088,0.07905
7116.04935,0.11228
7117.97782,0.14556
7119.90629,0.12687
7121.83476,0.09268
7123.76323,0.09729
7125.69170,0.10246
7127.62016,0.10780
7129.54863,0.12448
7131.47710,0.10615
7133.40557,0.11431
7135.33404,0.19660
7137.26251,0.20454
7139.19098,0.14119
7141.11944,0.15019
7143.04791,0.22162
7144.97638,0.37180
7146.90485,0.43611
7148.83332,0.31757
7150.76179,0.18861
7152.69026,0.03187
7154.61873,-0.10883
7156.54719,-0.05991
7158.47566,0.09347
7160.40413,0.16774
7162.33260,0.08402
7164.26107,-0.02713
7166.18954,0.03625
7168.11801,0.16041
7170.04647,0.12754
7171.97494,0.01624
7173.90341,-0.06978
7175.83188,-0.08202
7177.76035,0.01629
7179.68882,0.14290
7181.61729,0.22407
7183.54576,0.19912
7185.47422,0.10603
7187.40269,0.03691
7189.33116,0.02420
7191.25963,0.06555
7193.18810,0.10449
7195.11657,0.08651
7197.04504,0.05424
7198.97350,0.07551
7200.90197,0.05299
7202.83044,-0.12930
7204.75891,-0.34815
7206.68738,-0.30686
7208.61585,-0.09312
7210.54432,0.06082
7212.47279,0.08809
7214.40125,0.09926
7216.32972,0.17014
7218.25819,0.22866
7220.18666,0.12867
7222.11513,-0.08610
7224.04360,-0.27656
7225.97207,-0.29773
7227.90053,-0.15093
7229.82900,0.00507
7231.75747,0.01885
7233.68594,-0.03905
7235.61441,-0.06312
7237.54288,-0.05214
7239.47135,0.02257
7241.39982,0.11892
7243.32828,0.15345
7245.25675,0.17333
7247.18522,0.23399
7249.11369,0.21895
7251.04216,0.05521
7252.97063,-0.10915
7254.89910,-0.05973
7256.82756,0.08395
7258.75603,0.10541
7260.68450,-0.04501
7262.61297,-0.01574
7264.54144,0.22469
7266.46991,0.28236
7268.39838,0.17107
7270.32685,0.05870
7272.25531,0.03127
7274.18378,0.02788
7276.11225,0.02473
7278.04072,0.06761
7279.96919,0.07693
7281.89766,-0.03300
7283.82613,-0.14172
7285.75459,-0.09518
7287.68306,0.04672
7289.61153,0.13988
7291.54000,0.18302
7293.46847,0.17396
7295.39694,0.12592
7297.32541,0.10621
7299.25387,0.10222
7301.18234,0.09977
7303.11081,0.19226
7305.03928,0.40668
7306.96775,0.49767
7308.89622,0.26630
7310.82469,0.03150
7312.75316,0.03425
7314.68162,0.10118
7316.61009,0.11895
7318.53856,0.09565
7320.46703,0.10928
7322.39550,0.14425
7324.32397,0.06652
7326.25244,-0.03028
7328.18090,0.11813
7330.10937,0.36933
7332.03784,0.26782
7333.96631,-0.00800
7335.89478,-0.13402
7337.82325,-0.10717
7339.75172,0.02570
7341.68019,0.14391
7343.60865,0.09301
7345.53712,-0.14273
7347.46559,-0.35025
7349.39406,-0.28484
7351.32253,-0.12676
7353.25100,-0.03008
7355.17947,0.07942
7357.10793,0.18322
7359.03640,0.29211
7360.96487,0.41792
7362.89334,0.34187
7364.82181,0.08507
7366.75028,-0.09333
7368.67875,-0.05007
7370.60722,0.06774
7372.53568,0.07382
7374.46415,0.07152
7376.39262,0.12894
7378.32109,0.18664
7380.24956,0.26599
7382.17803,0.21850
7384.10650,0.07598
7386.03496,0.01526
7387.96343,-0.04493
7389.89190,-0.14230
7391.82037,-0.14429
7393.74884,0.01324
7395.67731,0.20031
7397.60578,0.27408
7399.53425,0.26545
7401.46271,0.27064
7403.39118,0.25422
7405.31965,0.12903
7407.24812,0.02500
7409.17659,0.01339
7411.10506,0.08104
7413.03353,0.21754
7414.96199,0.31907
7416.89046,0.26411
7418.81893,0.10284
7420.74740,0.06458
7422.67587,0.06522
7424.60434,-0.00198
7426.53281,-0.01168
7428.46128,0.09411
7430.38974,0.17840
7432.31821,0.09152
7434.24668,-0.06229
7436.17515,-0.07747
7438.10362,0.03121
7440.03209,0.05382
7441.96056,0.08748
7443.88902,0.24262
7445.81749,0.26449
7447.74596,0.15273
7449.67443,0.14262
7451.60290,0.15343
7453.53137,0.01327
7455.45984,-0.10116
7457.38831,-0.06584
7459.31677,0.00889
7461.24524,-0.06796
7463.17371,-0.12907
7465.10218,-0.01713
7467.03065,0.12660
7468.95912,0.18275
7470.88759,0.18247
7472.81605,0.19005
7474.74452,0.21433
7476.67299,0.16559
7478.60146,0.02750
7480.52993,-0.00711
7482.45840,0.00993
7484.38687,-0.11851
7486.31533,-0.20496
7488.24380,-0.08994
7490.17227,0.07652
7492.10074,0.14876
7494.02921,0.17303
7495.95768,0.21468
7497.88615,0.25419
