399.19301,-0.19510
401.12148,-0.48847
403.04995,-0.22827
404.97842,-0.11847
406.90689,-0.05539
408.83536,0.00205
410.76382,-0.00765
412.69229,-0.02054
414.62076,0.03518
416.54923,0.11811
418.47770,0.16184
420.40617,0.11329
422.33464,0.03664
424.26311,-0.00111
426.19157,0.00845
428.12004,-0.03801
430.04851,-0.13411
431.97698,-0.11385
433.90545,0.00403
435.83392,0.05958
437.76239,0.06512
439.69085,0.09464
441.61932,0.15295
443.54779,0.17890
445.47626,0.08973
447.40473,-0.04939
449.33320,-0.09001
451.26167,-0.08557
453.19013,-0.09810
455.11860,-0.05892
457.04707,-0.02321
458.97554,-0.03382
460.90401,0.03327
462.83248,0.14439
464.76095,0.14724
466.68942,0.05900
468.61788,0.01950
470.54635,0.38455
472.47482,2.51602
474.40329,5.09078
476.33176,3.30736
478.26023,0.95542
480.18870,0.17336
482.11716,0.09202
484.04563,0.05717
485.97410,0.04259
487.90257,0.04237
489.83104,0.04617
491.75951,0.04041
493.68798,0.02148
495.61645,0.01331
497.54491,0.05199
499.47338,0.09120
501.40185,0.07699
503.33032,0.06030
505.25879,0.10513
507.18726,0.16507
509.11573,0.18606
511.04419,0.17537
512.97266,0.14905
514.90113,0.12367
516.82960,0.09148
518.75807,0.06773
520.68654,0.06671
522.61501,0.06358
524.54348,0.06125
526.47194,0.08634
528.40041,0.10506
530.32888,0.08865
532.25735,0.08892
534.18582,0.11995
536.11429,0.14377
538.04276,0.15118
539.97122,0.13564
541.89969,0.09735
543.82816,0.06735
545.75663,0.08138
547.68510,0.13683
549.61357,0.14361
551.54204,0.04023
553.47051,-0.04909
555.39897,-0.00424
557.32744,0.10275
559.25591,0.14511
561.18438,0.12865
563.11285,0.12510
565.04132,0.11668
566.96979,0.05652
568.89825,0.02387
570.82672,0.06675
572.75519,0.11315
574.68366,0.13774
576.61213,0.15284
578.54060,0.15210
580.46907,0.14508
582.39754,0.14801
584.32600,0.14791
586.25447,0.12751
588.18294,0.11074
590.11141,0.12394
592.03988,0.14421
593.96835,0.12615
595.89682,0.08508
597.82528,0.07486
599.75375,0.10626
601.68222,0.13767
603.61069,0.13830
605.53916,0.13666
607.46763,0.14631
609.39610,0.14612
611.32456,0.13441
613.25303,0.11593
615.18150,0.10775
617.10997,0.12562
619.03844,0.14031
620.96691,0.12719
622.89538,0.10417
624.82385,0.09780
626.75231,0.11046
628.68078,0.12097
630.60925,0.12068
632.53772,0.11849
634.46619,0.12648
636.39466,0.14189
638.32313,0.14092
640.25159,0.11888
642.18006,0.10172
644.10853,0.10395
646.03700,0.11436
647.96547,0.12286
649.89394,0.13220
651.82241,0.14441
653.75088,0.14681
655.67934,0.13655
657.60781,0.12625
659.53628,0.10723
661.46475,0.08930
663.39322,0.09807
665.32169,0.11550
667.25016,0.12830
669.17862,0.14527
671.10709,0.14226
673.03556,0.13094
674.96403,0.13882
676.89250,0.15006
678.82097,0.13204
680.74944,0.11207
682.67791,0.12009
684.60637,0.12370
686.53484,0.11391
688.46331,0.11704
690.39178,0.12122
692.32025,0.10976
694.24872,0.09645
696.17719,0.09404
698.10565,0.10044
700.03412,0.11349
701.96259,0.12661
703.89106,0.12992
705.81953,0.13114
707.74800,0.13641
709.67647,0.13318
711.60494,0.12084
713.53340,0.11249
715.46187,0.10942
717.39034,0.10906
719.31881,0.11761
721.24728,0.13384
723.17575,0.14439
725.10422,0.14588
727.03268,0.14026
728.96115,0.13137
730.88962,0.13256
732.81809,0.14096
734.74656,0.13905
736.67503,0.12905
738.60350,0.12968
740.53197,0.14459
742.46043,0.15355
744.38890,0.14419
746.31737,0.12962
748.24584,0.12376
750.17431,0.12450
752.10278,0.12976
754.03125,0.13673
755.95971,0.14166
757.88818,0.14640
759.81665,0.14450
761.74512,0.13254
763.67359,0.12106
765.60206,0.11645
767.53053,0.11662
769.45900,0.12162
771.38746,0.12723
773.31593,0.13009
775.24440,0.13624
777.17287,0.13475
779.10134,0.11831
781.02981,0.11292
782.95828,0.12680
784.88674,0.13580
786.81521,0.13335
788.74368,0.12953
790.67215,0.12775
792.60062,0.13147
794.52909,0.13802
796.45756,0.13700
798.38602,0.12682
800.31449,0.11850
802.24296,0.12204
804.17143,0.13243
806.09990,0.14138
808.02837,0.14555
809.95684,0.13965
811.88531,0.12273
813.81377,0.11088
815.74224,0.11498
817.67071,0.11907
819.59918,0.11620
821.52765,0.11893
823.45612,0.12847
825.38459,0.13694
827.31305,0.13839
829.24152,0.13312
831.16999,0.13256
833.09846,0.14088
835.02693,0.14442
836.95540,0.13961
838.88387,0.13946
840.81234,0.14161
842.74080,0.13502
844.66927,0.12557
846.59774,0.12544
848.52621,0.13390
850.45468,0.13880
852.38315,0.13335
854.31162,0.12257
856.24008,0.11214
858.16855,0.10667
860.09702,0.11250
862.02549,0.12485
863.95396,0.13303
865.88243,0.13904
867.81090,0.14080
869.73937,0.13177
871.66783,0.12335
873.59630,0.12366
875.52477,0.12195
877.45324,0.11761
879.38171,0.11891
881.31018,0.12244
883.23865,0.12594
885.16711,0.12899
887.09558,0.13195
889.02405,0.13978
890.95252,0.14544
892.88099,0.14186
894.80946,0.13782
896.73793,0.13990
898.66640,0.14153
900.59486,0.13944
902.52333,0.13962
904.45180,0.13996
906.38027,0.13828
908.30874,0.14125
910.23721,0.14408
912.16568,0.13679
914.09414,0.12981
916.02261,0.14113
917.95108,0.15868
919.87955,0.16173
921.80802,0.15949
923.73649,0.15839
925.66496,0.15161
927.59343,0.14627
929.52189,0.14616
931.45036,0.14274
933.37883,0.13769
935.30730,0.14055
937.23577,0.14908
939.16424,0.15438
941.09271,0.15466
943.02117,0.15094
944.94964,0.14642
946.87811,0.14063
948.80658,0.13230
950.73505,0.13573
952.66352,0.15003
954.59199,0.15566
956.52045,0.15192
958.44892,0.14844
960.37739,0.14937
962.30586,0.14854
964.23433,0.14273
966.16280,0.14009
968.09127,0.14159
970.01974,0.14128
971.94820,0.13628
973.87667,0.13332
975.80514,0.13622
977.73361,0.14074
979.66208,0.14585
981.59055,0.15119
983.51902,0.15440
985.44748,0.15584
987.37595,0.16092
989.30442,0.16342
991.23289,0.15562
993.16136,0.14827
995.08983,0.14741
997.01830,0.14856
998.94677,0.14871
1000.87523,0.14695
1002.80370,0.14204
1004.73217,0.13528
1006.66064,0.13489
1008.58911,0.14218
1010.51758,0.15133
1012.44605,0.15969
1014.37451,0.16082
1016.30298,0.15318
1018.23145,0.14614
1020.15992,0.14440
1022.08839,0.14294
1024.01686,0.13990
1025.94533,0.14137
1027.87380,0.14920
1029.80226,0.15846
1031.73073,0.16147
1033.65920,0.15828
1035.58767,0.15614
1037.51614,0.15477
1039.44461,0.14937
1041.37308,0.14011
1043.30154,0.13350
1045.23001,0.13307
1047.15848,0.13754
1049.08695,0.14327
1051.01542,0.14673
1052.94389,0.14795
1054.87236,0.14783
1056.80083,0.15451
1058.72929,0.16796
1060.65776,0.17454
1062.58623,0.17016
1064.51470,0.16422
1066.44317,0.16843
1068.37164,0.17808
1070.30011,0.18114
1072.22857,0.17437
1074.15704,0.16308
1076.08551,0.15699
1078.01398,0.15810
1079.94245,0.16223
1081.87092,0.16277
1083.79939,0.15501
1085.72786,0.14673
1087.65632,0.14694
1089.58479,0.15286
1091.51326,0.15955
1093.44173,0.16430
1095.37020,0.16591
1097.29867,0.16900
1099.22714,0.17442
1101.15560,0.17491
1103.08407,0.17168
1105.01254,0.17243
1106.94101,0.17127
1108.86948,0.16136
1110.79795,0.15229
1112.72642,0.14944
1114.65489,0.14694
1116.58335,0.14708
1118.51182,0.15749
1120.44029,0.17174
1122.36876,0.17481
1124.29723,0.16824
1126.22570,0.16444
1128.15417,0.16234
1130.08263,0.15572
1132.01110,0.14692
1133.93957,0.13948
1135.86804,0.13693
1137.79651,0.14274
1139.72498,0.15492
1141.65345,0.16612
1143.58191,0.17065
1145.51038,0.16946
1147.43885,0.16747
1149.36732,0.16996
1151.29579,0.17439
1153.22426,0.17326
1155.15273,0.16805
1157.08120,0.16448
1159.00966,0.16300
1160.93813,0.16262
1162.86660,0.16558
1164.79507,0.17266
1166.72354,0.17573
1168.65201,0.16850
1170.58048,0.15944
1172.50894,0.15779
1174.43741,0.16049
1176.36588,0.15943
1178.29435,0.15410
1180.22282,0.15140
1182.15129,0.15494
1184.07976,0.16073
1186.00823,0.16129
1187.93669,0.15728
1189.86516,0.15540
1191.79363,0.15535
1193.72210,0.15365
1195.65057,0.15087
1197.57904,0.15201
1199.50751,0.15966
1201.43597,0.16669
1203.36444,0.16725
1205.29291,0.16676
1207.22138,0.16931
1209.14985,0.16988
1211.07832,0.16637
1213.00679,0.16362
1214.93526,0.16380
1216.86372,0.16379
1218.79219,0.16239
1220.72066,0.16130
1222.64913,0.16041
1224.57760,0.16042
1226.50607,0.16232
1228.43454,0.16413
1230.36300,0.16560
1232.29147,0.16623
1234.21994,0.16495
1236.14841,0.16422
1238.07688,0.16322
1240.00535,0.16151
1241.93382,0.16206
1243.86229,0.16225
1245.79075,0.16044
1247.71922,0.16129
1249.64769,0.16562
1251.57616,0.17045
1253.50463,0.17251
1255.43310,0.16739
1257.36157,0.15769
1259.29003,0.15291
1261.21850,0.15765
1263.14697,0.16662
1265.07544,0.17253
1267.00391,0.17419
1268.93238,0.17297
1270.86085,0.17275
1272.78932,0.17514
1274.71778,0.17513
1276.64625,0.17273
1278.57472,0.16967
1280.50319,0.16535
1282.43166,0.16560
1284.36013,0.17056
1286.28860,0.17298
1288.21706,0.17421
1290.14553,0.17445
1292.07400,0.17192
1294.00247,0.17022
1295.93094,0.16963
1297.85941,0.16913
1299.78788,0.16671
1301.71634,0.15975
1303.64481,0.15337
1305.57328,0.15509
1307.50175,0.16320
1309.43022,0.17058
1311.35869,0.17483
1313.28716,0.17631
1315.21563,0.17699
1317.14409,0.17886
1319.07256,0.17876
1321.00103,0.17732
1322.92950,0.17986
1324.85797,0.18060
1326.78644,0.17400
1328.71491,0.16929
1330.64337,0.17061
1332.57184,0.17165
1334.50031,0.17017
1336.42878,0.16962
1338.35725,0.17383
1340.28572,0.17662
1342.21419,0.17064
1344.14266,0.16049
1346.07112,0.15509
1347.99959,0.16056
1349.92806,0.16791
1351.85653,0.16878
1353.78500,0.16886
1355.71347,0.17061
1357.64194,0.17291
1359.57040,0.17773
1361.49887,0.18477
1363.42734,0.18668
1365.35581,0.18372
1367.28428,0.18283
1369.21275,0.18255
1371.14122,0.18239
1373.06969,0.18268
1374.99815,0.18085
1376.92662,0.17811
1378.85509,0.17553
1380.78356,0.17326
1382.71203,0.17276
1384.64050,0.17516
1386.56897,0.18150
1388.49743,0.18744
1390.42590,0.18762
1392.35437,0.18624
1394.28284,0.18769
1396.21131,0.19152
1398.13978,0.19163
1400.06825,0.18567
1401.99672,0.18235
1403.92518,0.18284
1405.85365,0.18029
1407.78212,0.17819
1409.71059,0.17840
1411.63906,0.17443
1413.56753,0.17124
1415.49600,0.17675
1417.42446,0.18631
1419.35293,0.18784
1421.28140,0.18136
1423.20987,0.17818
1425.13834,0.17944
1427.06681,0.18316
1428.99528,0.18638
1430.92375,0.18521
1432.85221,0.18359
1434.78068,0.18488
1436.70915,0.18443
1438.63762,0.18066
1440.56609,0.17778
1442.49456,0.17671
1444.42303,0.18010
1446.35149,0.18674
1448.27996,0.18811
1450.20843,0.18448
1452.13690,0.18461
1454.06537,0.19079
1455.99384,0.20162
1457.92231,0.20513
1459.85077,0.19636
1461.77924,0.19174
1463.70771,0.19263
1465.63618,0.19197
1467.56465,0.18818
1469.49312,0.18761
1471.42159,0.19422
1473.35006,0.20403
1475.27852,0.20193
1477.20699,0.19301
1479.13546,0.18729
1481.06393,0.18539
1482.99240,0.18700
1484.92087,0.19262
1486.84934,0.20196
1488.77780,0.21229
1490.70627,0.21122
1492.63474,0.20293
1494.56321,0.20189
1496.49168,0.20541
1498.42015,0.20407
1500.34862,0.20006
1502.27709,0.19519
1504.20555,0.19239
1506.13402,0.20378
1508.06249,0.21548
1509.99096,0.20564
1511.91943,0.19881
1513.84790,0.20128
1515.77637,0.21132
1517.70483,0.21929
1519.63330,0.22013
1521.56177,0.21792
1523.49024,0.20917
1525.41871,0.19959
1527.34718,0.19462
1529.27565,0.19572
1531.20412,0.20168
1533.13258,0.20712
1535.06105,0.20637
1536.98952,0.20758
1538.91799,0.22084
1540.84646,0.23798
1542.77493,0.22885
1544.70340,0.21131
1546.63186,0.20141
1548.56033,0.19805
1550.48880,0.19622
1552.41727,0.19784
1554.34574,0.20514
1556.27421,0.21598
1558.20268,0.22516
1560.13115,0.20989
1562.05961,0.19526
1563.98808,0.19203
1565.91655,0.19408
1567.84502,0.19912
1569.77349,0.20003
1571.70196,0.19470
1573.63043,0.19563
1575.55889,0.20376
1577.48736,0.20451
1579.41583,0.19863
1581.34430,0.19590
1583.27277,0.19369
1585.20124,0.18980
1587.12971,0.18720
1589.05818,0.18707
1590.98664,0.18707
1592.91511,0.18597
1594.84358,0.18522
1596.77205,0.18527
1598.70052,0.18592
1600.62899,0.18794
1602.55746,0.19117
1604.48592,0.19382
1606.41439,0.19482
1608.34286,0.19471
1610.27133,0.19289
1612.19980,0.19196
1614.12827,0.19776
1616.05674,0.20729
1617.98521,0.20604
1619.91367,0.20102
1621.84214,0.20227
1623.77061,0.20279
1625.69908,0.19860
1627.62755,0.19623
1629.55602,0.19616
1631.48449,0.19774
1633.41295,0.20518
1635.34142,0.21686
1637.26989,0.21297
1639.19836,0.20215
1641.12683,0.19865
1643.05530,0.20249
1644.98377,0.21432
1646.91223,0.22714
1648.84070,0.22420
1650.76917,0.22144
1652.69764,0.23250
1654.62611,0.22813
1656.55458,0.20838
1658.48305,0.19880
1660.41152,0.19774
1662.33998,0.19788
1664.26845,0.19719
1666.19692,0.19893
1668.12539,0.20622
1670.05386,0.21418
1671.98233,0.21193
1673.91080,0.20832
1675.83926,0.20910
1677.76773,0.21053
1679.69620,0.21244
1681.62467,0.21686
1683.55314,0.22096
1685.48161,0.21682
1687.41008,0.21127
1689.33855,0.20577
1691.26701,0.19986
1693.19548,0.19968
1695.12395,0.20711
1697.05242,0.21608
1698.98089,0.21992
1700.90936,0.21960
1702.83783,0.21857
1704.76629,0.21579
1706.69476,0.20638
1708.62323,0.19612
1710.55170,0.19188
1712.48017,0.19490
1714.40864,0.20438
1716.33711,0.21308
1718.26558,0.21059
1720.19404,0.20164
1722.12251,0.19483
1724.05098,0.19190
1725.97945,0.19207
1727.90792,0.19556
1729.83639,0.20087
1731.76486,0.20588
1733.69332,0.21113
1735.62179,0.20989
1737.55026,0.20676
1739.47873,0.20775
1741.40720,0.20838
1743.33567,0.20660
1745.26414,0.20609
1747.19261,0.20755
1749.12107,0.20911
1751.04954,0.20598
1752.97801,0.19981
1754.90648,0.19845
1756.83495,0.20096
1758.76342,0.20325
1760.69189,0.20551
1762.62035,0.20412
1764.54882,0.19895
1766.47729,0.19607
1768.40576,0.19677
1770.33423,0.20267
1772.26270,0.20951
1774.19117,0.20382
1776.11964,0.19457
1778.04810,0.19356
1779.97657,0.19717
1781.90504,0.19592
1783.83351,0.19099
1785.76198,0.18930
1787.69045,0.19207
1789.61892,0.19763
1791.54738,0.20365
1793.47585,0.20463
1795.40432,0.20085
1797.33279,0.19915
1799.26126,0.20096
1801.18973,0.19994
1803.11820,0.19400
1805.04666,0.19025
1806.97513,0.19132
1808.90360,0.19348
1810.83207,0.19452
1812.76054,0.19527
1814.68901,0.19537
1816.61748,0.19399
1818.54595,0.19446
1820.47441,0.19731
1822.40288,0.19658
1824.33135,0.19315
1826.25982,0.19293
1828.18829,0.19535
1830.11676,0.19501
1832.04523,0.19069
1833.97369,0.18921
1835.90216,0.19169
1837.83063,0.19275
1839.75910,0.19136
1841.68757,0.19320
1843.61604,0.19844
1845.54451,0.19817
1847.47298,0.19461
1849.40144,0.19449
1851.32991,0.19425
1853.25838,0.19106
1855.18685,0.18918
1857.11532,0.19173
1859.04379,0.19734
1860.97226,0.20228
1862.90072,0.20188
1864.82919,0.19769
1866.75766,0.19552
1868.68613,0.19536
1870.61460,0.19406
1872.54307,0.19220
1874.47154,0.19004
1876.40001,0.18851
1878.32847,0.18892
1880.25694,0.18967
1882.18541,0.18925
1884.11388,0.18877
1886.04235,0.18909
1887.97082,0.19007
1889.89929,0.19205
1891.82775,0.19519
1893.75622,0.19747
1895.68469,0.19574
1897.61316,0.19214
1899.54163,0.19093
1901.47010,0.19118
1903.39857,0.19124
1905.32704,0.19080
1907.25550,0.19081
1909.18397,0.19232
1911.11244,0.19329
1913.04091,0.19288
1914.96938,0.19308
1916.89785,0.19406
1918.82632,0.19533
1920.75478,0.19840
1922.68325,0.20108
1924.61172,0.19894
1926.54019,0.19505
1928.46866,0.19351
1930.39713,0.19252
1932.32560,0.19081
1934.25407,0.18976
1936.18253,0.18956
1938.11100,0.19040
1940.03947,0.19305
1941.96794,0.19521
1943.89641,0.19450
1945.82488,0.19393
1947.75335,0.19541
1949.68181,0.19545
1951.61028,0.19240
1953.53875,0.19041
1955.46722,0.19113
1957.39569,0.19120
1959.32416,0.18996
1961.25263,0.18924
1963.18110,0.19041
1965.10956,0.19280
1967.03803,0.19309
1968.96650,0.19163
1970.89497,0.19187
1972.82344,0.19329
1974.75191,0.19375
1976.68038,0.19278
1978.60884,0.19086
1980.53731,0.19037
1982.46578,0.19200
1984.39425,0.19218
1986.32272,0.19037
1988.25119,0.19009
1990.17966,0.19198
1992.10812,0.19313
1994.03659,0.19236
1995.96506,0.19190
1997.89353,0.19255
1999.82200,0.19278
2001.75047,0.19275
2003.67894,0.19359
2005.60741,0.19478
2007.53587,0.19509
2009.46434,0.19384
2011.39281,0.19309
2013.32128,0.19435
2015.24975,0.19516
2017.17822,0.19379
2019.10669,0.19196
2021.03515,0.19213
2022.96362,0.19395
2024.89209,0.19557
2026.82056,0.19566
2028.74903,0.19400
2030.67750,0.19329
2032.60597,0.19490
2034.53444,0.19588
2036.46290,0.19434
2038.39137,0.19265
2040.31984,0.19313
2042.24831,0.19462
2044.17678,0.19442
2046.10525,0.19293
2048.03372,0.19336
2049.96218,0.19521
2051.89065,0.19618
2053.81912,0.19575
2055.74759,0.19326
2057.67606,0.19129
2059.60453,0.19252
2061.53300,0.19429
2063.46147,0.19433
2065.38993,0.19371
2067.31840,0.19454
2069.24687,0.19657
2071.17534,0.19701
2073.10381,0.19679
2075.03228,0.19774
2076.96075,0.19747
2078.88921,0.19535
2080.81768,0.19320
2082.74615,0.19184
2084.67462,0.19231
2086.60309,0.19491
2088.53156,0.19663
2090.46003,0.19484
2092.38850,0.19152
2094.31696,0.19047
2096.24543,0.19248
2098.17390,0.19362
2100.10237,0.19268
2102.03084,0.19312
2103.95931,0.19428
2105.88778,0.19326
2107.81624,0.19081
2109.74471,0.18948
2111.67318,0.19073
2113.60165,0.19415
2115.53012,0.19746
2117.45859,0.19852
2119.38706,0.19748
2121.31553,0.19589
2123.24399,0.19582
2125.17246,0.19750
2127.10093,0.19828
2129.02940,0.19696
2130.95787,0.19518
2132.88634,0.19356
2134.81481,0.19100
2136.74327,0.18932
2138.67174,0.19197
2140.60021,0.19595
2142.52868,0.19597
2144.45715,0.19411
2146.38562,0.19437
2148.31409,0.19737
2150.24255,0.20108
2152.17102,0.20250
2154.09949,0.20228
2156.02796,0.20239
2157.95643,0.20189
2159.88490,0.19918
2161.81337,0.19484
2163.74184,0.19204
2165.67030,0.19230
2167.59877,0.19353
2169.52724,0.19547
2171.45571,0.19939
2173.38418,0.20202
2175.31265,0.20046
2177.24112,0.19749
2179.16958,0.19491
2181.09805,0.19190
2183.02652,0.19075
2184.95499,0.19358
2186.88346,0.19735
2188.81193,0.19724
2190.74040,0.19318
2192.66887,0.19083
2194.59733,0.19168
2196.52580,0.19252
2198.45427,0.19182
2200.38274,0.19049
2202.31121,0.19142
2204.23968,0.19274
2206.16815,0.19139
2208.09661,0.18992
2210.02508,0.18979
2211.95355,0.19022
2213.88202,0.19111
2215.81049,0.19269
2217.73896,0.19472
2219.66743,0.19610
2221.59590,0.19667
2223.52436,0.19676
2225.45283,0.19557
2227.38130,0.19408
2229.30977,0.19418
2231.23824,0.19537
2233.16671,0.19716
2235.09518,0.19897
2237.02364,0.19986
2238.95211,0.19967
2240.88058,0.19839
2242.80905,0.19644
2244.73752,0.19519
2246.66599,0.19644
2248.59446,0.19936
2250.52293,0.20161
2252.45139,0.20149
2254.37986,0.19728
2256.30833,0.19119
2258.23680,0.18845
2260.16527,0.19037
2262.09374,0.19362
2264.02221,0.19496
2265.95067,0.19409
2267.87914,0.19232
2269.80761,0.19159
2271.73608,0.19230
2273.66455,0.19320
2275.59302,0.19453
2277.52149,0.19685
2279.44996,0.19948
2281.37842,0.20073
2283.30689,0.19953
2285.23536,0.19680
2287.16383,0.19370
2289.09230,0.19280
2291.02077,0.19393
2292.94924,0.19266
2294.87770,0.18963
2296.80617,0.18736
2298.73464,0.18562
2300.66311,0.18539
2302.59158,0.18556
2304.52005,0.18336
2306.44852,0.18020
2308.37699,0.17816
2310.30545,0.17650
2312.23392,0.17555
2314.16239,0.17592
2316.09086,0.17650
2318.01933,0.17643
2319.94780,0.17579
2321.87627,0.17391
2323.80473,0.16960
2325.73320,0.16517
2327.66167,0.16234
2329.59014,0.15970
2331.51861,0.15721
2333.44708,0.15662
2335.37555,0.15831
2337.30401,0.16176
2339.23248,0.16703
2341.16095,0.17276
2343.08942,0.17742
2345.01789,0.17650
2346.94636,0.17100
2348.87483,0.16979
2350.80330,0.17457
2352.73176,0.17477
2354.66023,0.15916
2356.58870,0.15080
2358.51717,0.16726
2360.44564,0.18377
2362.37411,0.18282
2364.30258,0.16621
2366.23104,0.15319
2368.15951,0.15344
2370.08798,0.15666
2372.01645,0.16073
2373.94492,0.16870
2375.87339,0.17770
2377.80186,0.18361
2379.73033,0.18592
2381.65879,0.18768
2383.58726,0.19149
2385.51573,0.19487
2387.44420,0.19438
2389.37267,0.19200
2391.30114,0.19124
2393.22961,0.19257
2395.15807,0.19519
2397.08654,0.19730
2399.01501,0.19763
2400.94348,0.19911
2402.87195,0.20322
2404.80042,0.20369
2406.72889,0.19739
2408.65736,0.19191
2410.58582,0.19307
2412.51429,0.19750
2414.44276,0.19935
2416.37123,0.19852
2418.29970,0.19858
2420.22817,0.19940
2422.15664,0.19919
2424.08510,0.19784
2426.01357,0.19558
2427.94204,0.19474
2429.87051,0.19651
2431.79898,0.19736
2433.72745,0.19626
2435.65592,0.19657
2437.58439,0.19835
2439.51285,0.19902
2441.44132,0.19874
2443.36979,0.19834
2445.29826,0.19786
2447.22673,0.19799
2449.15520,0.19869
2451.08367,0.19842
2453.01213,0.19680
2454.94060,0.19563
2456.86907,0.19640
2458.79754,0.20003
2460.72601,0.20461
2462.65448,0.20528
2464.58295,0.20220
2466.51142,0.20082
2468.43988,0.20251
2470.36835,0.20373
2472.29682,0.20399
2474.22529,0.20275
2476.15376,0.19877
2478.08223,0.19584
2480.01070,0.19586
2481.93916,0.19669
2483.86763,0.19698
2485.79610,0.19634
2487.72457,0.19549
2489.65304,0.19567
2491.58151,0.19684
2493.50998,0.19717
2495.43844,0.19610
2497.36691,0.19614
2499.29538,0.19814
2501.22385,0.20014
2503.15232,0.20242
2505.08079,0.20513
2507.00926,0.20544
2508.93773,0.20213
2510.86619,0.19789
2512.79466,0.19600
2514.72313,0.19674
2516.65160,0.19857
2518.58007,0.20054
2520.50854,0.20196
2522.43701,0.20147
2524.36547,0.20003
2526.29394,0.20036
2528.22241,0.20125
2530.15088,0.20053
2532.07935,0.19812
2534.00782,0.19580
2535.93629,0.19598
2537.86476,0.19750
2539.79322,0.19853
2541.72169,0.19872
2543.65016,0.19913
2545.57863,0.20155
2547.50710,0.20214
2549.43557,0.19851
2551.36404,0.19660
2553.29250,0.19970
2555.22097,0.20377
2557.14944,0.20425
2559.07791,0.20187
2561.00638,0.20033
2562.93485,0.19965
2564.86332,0.19753
2566.79179,0.19576
2568.72025,0.19880
2570.64872,0.20397
2572.57719,0.20525
2574.50566,0.20332
2576.43413,0.20089
2578.36260,0.19945
2580.29107,0.19987
2582.21953,0.20135
2584.14800,0.20336
2586.07647,0.20566
2588.00494,0.20795
2589.93341,0.20870
2591.86188,0.20447
2593.79035,0.19878
2595.71882,0.19894
2597.64728,0.20225
2599.57575,0.20394
2601.50422,0.20492
2603.43269,0.20515
2605.36116,0.20468
2607.28963,0.20397
2609.21810,0.20158
2611.14656,0.19857
2613.07503,0.19853
2615.00350,0.20100
2616.93197,0.20170
2618.86044,0.19997
2620.78891,0.20014
2622.71738,0.20391
2624.64585,0.20633
2626.57431,0.20335
2628.50278,0.19966
2630.43125,0.20108
2632.35972,0.20344
2634.28819,0.20257
2636.21666,0.20241
2638.14513,0.20443
2640.07359,0.20664
2642.00206,0.20774
2643.93053,0.20635
2645.85900,0.20373
2647.78747,0.20265
2649.71594,0.20312
2651.64441,0.20382
2653.57288,0.20461
2655.50134,0.20387
2657.42981,0.20064
2659.35828,0.19867
2661.28675,0.20045
2663.21522,0.20340
2665.14369,0.20551
2667.07216,0.20679
2669.00062,0.20560
2670.92909,0.20276
2672.85756,0.20234
2674.78603,0.20419
2676.71450,0.20538
2678.64297,0.20517
2680.57144,0.20314
2682.49990,0.20022
2684.42837,0.19977
2686.35684,0.20131
2688.28531,0.20189
2690.21378,0.20174
2692.14225,0.20132
2694.07072,0.20221
2695.99919,0.20592
2697.92765,0.20944
2699.85612,0.20992
2701.78459,0.20759
2703.71306,0.20508
2705.64153,0.20524
2707.57000,0.20721
2709.49847,0.20772
2711.42693,0.20620
2713.35540,0.20626
2715.28387,0.20876
2717.21234,0.21058
2719.14081,0.21108
2721.06928,0.21026
2722.99775,0.20892
2724.92622,0.20862
2726.85468,0.20780
2728.78315,0.20705
2730.71162,0.20809
2732.64009,0.20893
2734.56856,0.20781
2736.49703,0.20609
2738.42550,0.20780
2740.35396,0.21248
2742.28243,0.21420
2744.21090,0.21302
2746.13937,0.21329
2748.06784,0.21444
2749.99631,0.21385
2751.92478,0.21305
2753.85325,0.21379
2755.78171,0.21390
2757.71018,0.21280
2759.63865,0.21106
2761.56712,0.20807
2763.49559,0.20553
2765.42406,0.20578
2767.35253,0.20929
2769.28099,0.21492
2771.20946,0.21938
2773.13793,0.22089
2775.06640,0.21998
2776.99487,0.21683
2778.92334,0.21414
2780.85181,0.21350
2782.78028,0.21350
2784.70874,0.21379
2786.63721,0.21312
2788.56568,0.21202
2790.49415,0.21192
2792.42262,0.21146
2794.35109,0.21030
2796.27956,0.21057
2798.20802,0.21134
2800.13649,0.20905
2802.06496,0.20593
2803.99343,0.20718
2805.92190,0.21217
2807.85037,0.21442
2809.77884,0.21216
2811.70731,0.21176
2813.63577,0.21364
2815.56424,0.21366
2817.49271,0.21570
2819.42118,0.22123
2821.34965,0.22300
2823.27812,0.21886
2825.20659,0.21326
2827.13505,0.21019
2829.06352,0.21042
2830.99199,0.21176
2832.92046,0.21340
2834.84893,0.21430
2836.77740,0.21404
2838.70587,0.21452
2840.63433,0.21361
2842.56280,0.20908
2844.49127,0.20680
2846.41974,0.21009
2848.34821,0.21363
2850.27668,0.21457
2852.20515,0.21460
2854.13362,0.21607
2856.06208,0.21825
2857.99055,0.21900
2859.91902,0.22051
2861.84749,0.22341
2863.77596,0.22354
2865.70443,0.22012
2867.63290,0.21801
2869.56136,0.21821
2871.48983,0.21661
2873.41830,0.21214
2875.34677,0.20685
2877.27524,0.20553
2879.20371,0.21059
2881.13218,0.21599
2883.06065,0.21810
2884.98911,0.21885
2886.91758,0.21752
2888.84605,0.21499
2890.77452,0.21620
2892.70299,0.22081
2894.63146,0.22301
2896.55993,0.22020
2898.48839,0.21345
2900.41686,0.20838
2902.34533,0.20927
2904.27380,0.21101
2906.20227,0.21067
2908.13074,0.21025
2910.05921,0.20958
2911.98768,0.20941
2913.91614,0.21125
2915.84461,0.21345
2917.77308,0.21419
2919.70155,0.21514
2921.63002,0.21735
2923.55849,0.21747
2925.48696,0.21342
2927.41542,0.21077
2929.34389,0.21428
2931.27236,0.22069
2933.20083,0.22314
2935.12930,0.21828
2937.05777,0.21236
2938.98624,0.21337
2940.91471,0.21774
2942.84317,0.21744
2944.77164,0.21261
2946.70011,0.20813
2948.62858,0.20695
2950.55705,0.20817
2952.48552,0.21092
2954.41399,0.21395
2956.34245,0.21222
2958.27092,0.20892
2960.19939,0.21079
2962.12786,0.21433
2964.05633,0.21590
2965.98480,0.21566
2967.91327,0.21498
2969.84174,0.21735
2971.77020,0.22221
2973.69867,0.22489
2975.62714,0.22301
2977.55561,0.21992
2979.48408,0.21838
2981.41255,0.21537
2983.34102,0.21237
2985.26948,0.21252
2987.19795,0.21233
2989.12642,0.21162
2991.05489,0.21372
2992.98336,0.21854
2994.91183,0.22165
2996.84030,0.22013
2998.76877,0.21842
3000.69723,0.22076
3002.62570,0.22564
3004.55417,0.22841
3006.48264,0.22707
3008.41111,0.22573
3010.33958,0.22262
3012.26805,0.21072
3014.19651,0.19154
3016.12498,0.17558
3018.05345,0.17947
3019.98192,0.20254
3021.91039,0.22104
3023.83886,0.22682
3025.76733,0.22663
3027.69579,0.22196
3029.62426,0.21807
3031.55273,0.21744
3033.48120,0.21493
3035.40967,0.21095
3037.33814,0.20902
3039.26661,0.21283
3041.19508,0.22011
3043.12354,0.22226
3045.05201,0.22068
3046.98048,0.22088
3048.90895,0.22260
3050.83742,0.22359
3052.76589,0.22277
3054.69436,0.21876
3056.62282,0.21228
3058.55129,0.21244
3060.47976,0.22226
3062.40823,0.23106
3064.33670,0.22987
3066.26517,0.22291
3068.19364,0.22156
3070.12211,0.22422
3072.05057,0.22243
3073.97904,0.21778
3075.90751,0.21604
3077.83598,0.21975
3079.76445,0.22458
3081.69292,0.22394
3083.62139,0.21566
3085.54985,0.20677
3087.47832,0.20896
3089.40679,0.21832
3091.33526,0.22316
3093.26373,0.22199
3095.19220,0.21895
3097.12067,0.21753
3099.04914,0.21663
3100.97760,0.21405
3102.90607,0.20945
3104.83454,0.20697
3106.76301,0.21231
3108.69148,0.22081
3110.61995,0.22320
3112.54842,0.22116
3114.47688,0.22359
3116.40535,0.22907
3118.33382,0.22866
3120.26229,0.22149
3122.19076,0.21667
3124.11923,0.22001
3126.04770,0.22276
3127.97617,0.21989
3129.90463,0.22148
3131.83310,0.22911
3133.76157,0.23234
3135.69004,0.23036
3137.61851,0.22767
3139.54698,0.22512
3141.47545,0.22476
3143.40391,0.22625
3145.33238,0.23028
3147.26085,0.23665
3149.18932,0.23747
3151.11779,0.23202
3153.04626,0.22812
3154.97473,0.22626
3156.90320,0.22293
3158.83166,0.22074
3160.76013,0.22255
3162.68860,0.22542
3164.61707,0.22582
3166.54554,0.22282
3168.47401,0.22009
3170.40248,0.22143
3172.33094,0.22466
3174.25941,0.22843
3176.18788,0.23181
3178.11635,0.23155
3180.04482,0.22980
3181.97329,0.23108
3183.90176,0.23399
3185.83022,0.23451
3187.75869,0.23325
3189.68716,0.23384
3191.61563,0.23625
3193.54410,0.23829
3195.47257,0.24076
3197.40104,0.24259
3199.32951,0.23847
3201.25797,0.23043
3203.18644,0.22726
3205.11491,0.23097
3207.04338,0.23537
3208.97185,0.23521
3210.90032,0.23180
3212.82879,0.22824
3214.75725,0.22606
3216.68572,0.22817
3218.61419,0.23359
3220.54266,0.23773
3222.47113,0.24006
3224.39960,0.23946
3226.32807,0.23542
3228.25654,0.23251
3230.18500,0.23389
3232.11347,0.23695
3234.04194,0.23374
3235.97041,0.22392
3237.89888,0.21831
3239.82735,0.22173
3241.75582,0.22632
3243.68428,0.22127
3245.61275,0.21181
3247.54122,0.21119
3249.46969,0.21487
3251.39816,0.21663
3253.32663,0.22076
3255.25510,0.22582
3257.18357,0.22823
3259.11203,0.22874
3261.04050,0.22758
3262.96897,0.22649
3264.89744,0.22695
3266.82591,0.22769
3268.75438,0.22811
3270.68285,0.22943
3272.61131,0.23219
3274.53978,0.23333
3276.46825,0.23037
3278.39672,0.22369
3280.32519,0.21523
3282.25366,0.21164
3284.18213,0.21607
3286.11060,0.22355
3288.03906,0.22862
3289.96753,0.22809
3291.89600,0.22514
3293.82447,0.22394
3295.75294,0.22297
3297.68141,0.22135
3299.60988,0.22117
3301.53834,0.22422
3303.46681,0.22675
3305.39528,0.22523
3307.32375,0.22322
3309.25222,0.22207
3311.18069,0.21963
3313.10916,0.21787
3315.03763,0.22018
3316.96609,0.22548
3318.89456,0.22916
3320.82303,0.22682
3322.75150,0.22045
3324.67997,0.21744
3326.60844,0.21904
3328.53691,0.22168
3330.46537,0.22358
3332.39384,0.22339
3334.32231,0.22319
3336.25078,0.22618
3338.17925,0.23065
3340.10772,0.23420
3342.03619,0.23502
3343.96466,0.23362
3345.89312,0.23261
3347.82159,0.23295
3349.75006,0.23665
3351.67853,0.23989
3353.60700,0.23824
3355.53547,0.23657
3357.46394,0.23417
3359.39240,0.22800
3361.32087,0.22482
3363.24934,0.22794
3365.17781,0.23035
3367.10628,0.22559
3369.03475,0.21578
3370.96322,0.21140
3372.89168,0.21778
3374.82015,0.22469
3376.74862,0.22460
3378.67709,0.22296
3380.60556,0.22325
3382.53403,0.22463
3384.46250,0.22761
3386.39097,0.23122
3388.31943,0.23262
3390.24790,0.22867
3392.17637,0.21947
3394.10484,0.21472
3396.03331,0.22011
3397.96178,0.22546
3399.89025,0.22602
3401.81871,0.22878
3403.74718,0.23358
3405.67565,0.23452
3407.60412,0.22912
3409.53259,0.21974
3411.46106,0.21342
3413.38953,0.21369
3415.31800,0.21872
3417.24646,0.22434
3419.17493,0.22549
3421.10340,0.22467
3423.03187,0.22531
3424.96034,0.22285
3426.88881,0.21646
3428.81728,0.21288
3430.74574,0.21558
3432.67421,0.21876
3434.60268,0.21847
3436.53115,0.21618
3438.45962,0.21295
3440.38809,0.21160
3442.31656,0.21300
3444.24503,0.21471
3446.17349,0.21519
3448.10196,0.21331
3450.03043,0.21186
3451.95890,0.21411
3453.88737,0.21534
3455.81584,0.21182
3457.74431,0.20786
3459.67277,0.20659
3461.60124,0.20690
3463.52971,0.20702
3465.45818,0.20769
3467.38665,0.21083
3469.31512,0.21535
3471.24359,0.21997
3473.17206,0.22221
3475.10052,0.21803
3477.02899,0.21060
3478.95746,0.20666
3480.88593,0.20678
3482.81440,0.20710
3484.74287,0.20682
3486.67134,0.20692
3488.59980,0.20420
3490.52827,0.19889
3492.45674,0.19478
3494.38521,0.19483
3496.31368,0.20002
3498.24215,0.20256
3500.17062,0.19806
3502.09909,0.19468
3504.02755,0.19760
3505.95602,0.19970
3507.88449,0.19579
3509.81296,0.18890
3511.74143,0.18524
3513.66990,0.18784
3515.59837,0.19209
3517.52683,0.19282
3519.45530,0.18989
3521.38377,0.18716
3523.31224,0.18784
3525.24071,0.18920
3527.16918,0.18763
3529.09765,0.18343
3531.02611,0.17954
3532.95458,0.17856
3534.88305,0.18050
3536.81152,0.18288
3538.73999,0.18421
3540.66846,0.18497
3542.59693,0.18532
3544.52540,0.18605
3546.45386,0.18616
3548.38233,0.18469
3550.31080,0.18422
3552.23927,0.18418
3554.16774,0.18107
3556.09621,0.17696
3558.02468,0.17596
3559.95314,0.17714
3561.88161,0.17800
3563.81008,0.18157
3565.73855,0.19027
3567.66702,0.19173
3569.59549,0.18103
3571.52396,0.17366
3573.45243,0.17304
3575.38089,0.17256
3577.30936,0.16812
3579.23783,0.16462
3581.16630,0.16691
3583.09477,0.17152
3585.02324,0.17376
3586.95171,0.17101
3588.88017,0.16164
3590.80864,0.15476
3592.73711,0.15629
3594.66558,0.16187
3596.59405,0.16493
3598.52252,0.16251
3600.45099,0.15734
3602.37946,0.15757
3604.30792,0.16249
3606.23639,0.16640
3608.16486,0.16817
3610.09333,0.16715
3612.02180,0.16469
3613.95027,0.16346
3615.87874,0.16527
3617.80720,0.16780
3619.73567,0.16212
3621.66414,0.15214
3623.59261,0.14970
3625.52108,0.15554
3627.44955,0.16826
3629.37802,0.17723
3631.30649,0.17312
3633.23495,0.16841
3635.16342,0.16348
3637.09189,0.15632
3639.02036,0.15046
3640.94883,0.14783
3642.87730,0.14832
3644.80577,0.15481
3646.73423,0.16956
3648.66270,0.18123
3650.59117,0.17161
3652.51964,0.15947
3654.44811,0.15544
3656.37658,0.15306
3658.30505,0.14473
3660.23352,0.13435
3662.16198,0.13004
3664.09045,0.13531
3666.01892,0.14479
3667.94739,0.15067
3669.87586,0.14973
3671.80433,0.14721
3673.73280,0.15003
3675.66126,0.15306
3677.58973,0.14793
3679.51820,0.14353
3681.44667,0.14253
3683.37514,0.14154
3685.30361,0.14208
3687.23208,0.14794
3689.16055,0.15629
3691.08901,0.15567
3693.01748,0.14673
3694.94595,0.13835
3696.87442,0.13543
3698.80289,0.13925
3700.73136,0.14610
3702.65983,0.14817
3704.58829,0.14451
3706.51676,0.14238
3708.44523,0.14647
3710.37370,0.15442
3712.30217,0.15215
3714.23064,0.14040
3716.15911,0.13253
3718.08757,0.13271
3720.01604,0.14021
3721.94451,0.14578
3723.87298,0.14337
3725.80145,0.13904
3727.72992,0.13734
3729.65839,0.14068
3731.58686,0.15005
3733.51532,0.15965
3735.44379,0.16045
3737.37226,0.15271
3739.30073,0.14726
3741.22920,0.14982
3743.15767,0.15696
3745.08614,0.15833
3747.01460,0.15586
3748.94307,0.15861
3750.87154,0.15898
3752.80001,0.14764
3754.72848,0.14010
3756.65695,0.14294
3758.58542,0.14446
3760.51389,0.13537
3762.44235,0.12810
3764.37082,0.12825
3766.29929,0.13124
3768.22776,0.13231
3770.15623,0.12957
3772.08470,0.12726
3774.01317,0.12706
3775.94163,0.12592
3777.87010,0.12529
3779.79857,0.12797
3781.72704,0.13222
3783.65551,0.13513
3785.58398,0.13617
3787.51245,0.13754
3789.44092,0.13795
3791.36938,0.13527
3793.29785,0.13356
3795.22632,0.13574
3797.15479,0.13802
3799.08326,0.13930
3801.01173,0.14361
3802.94020,0.14486
3804.86866,0.14217
3806.79713,0.14143
3808.72560,0.13694
3810.65407,0.12895
3812.58254,0.12706
3814.51101,0.13525
3816.43948,0.14460
3818.36795,0.14663
3820.29641,0.14772
3822.22488,0.14467
3824.15335,0.13926
3826.08182,0.13585
3828.01029,0.13456
3829.93876,0.13691
3831.86723,0.13887
3833.79569,0.13906
3835.72416,0.14114
3837.65263,0.14423
3839.58110,0.14410
3841.50957,0.13939
3843.43804,0.13466
3845.36651,0.13167
3847.29498,0.12891
3849.22344,0.12607
3851.15191,0.12569
3853.08038,0.13593
3855.00885,0.14320
3856.93732,0.13670
3858.86579,0.13307
3860.79426,0.13638
3862.72272,0.14260
3864.65119,0.14385
3866.57966,0.14059
3868.50813,0.14017
3870.43660,0.13954
3872.36507,0.13517
3874.29354,0.13182
3876.22200,0.12930
3878.15047,0.12719
3880.07894,0.12789
3882.00741,0.13422
3883.93588,0.14151
3885.86435,0.13771
3887.79282,0.12484
3889.72129,0.11734
3891.64975,0.11853
3893.57822,0.12358
3895.50669,0.12689
3897.43516,0.13063
3899.36363,0.13462
3901.29210,0.13817
3903.22057,0.14440
3905.14903,0.14363
3907.07750,0.13300
3909.00597,0.12262
3910.93444,0.11730
3912.86291,0.11775
3914.79138,0.12000
3916.71985,0.12117
3918.64832,0.12288
3920.57678,0.12453
3922.50525,0.12308
3924.43372,0.11846
3926.36219,0.11430
3928.29066,0.11370
3930.21913,0.11721
3932.14760,0.12075
3934.07606,0.11812
3936.00453,0.11088
3937.93300,0.10678
3939.86147,0.10933
3941.78994,0.11273
3943.71841,0.11457
3945.64688,0.11733
3947.57535,0.11736
3949.50381,0.11554
3951.43228,0.11776
3953.36075,0.12135
3955.28922,0.12353
3957.21769,0.12444
3959.14616,0.12143
3961.07463,0.11664
3963.00309,0.11626
3964.93156,0.12197
3966.86003,0.12953
3968.78850,0.13003
3970.71697,0.12112
3972.64544,0.11327
3974.57391,0.11369
3976.50238,0.11765
3978.43084,0.11876
3980.35931,0.11646
3982.28778,0.11386
3984.21625,0.11323
3986.14472,0.11213
3988.07319,0.10650
3990.00166,0.10163
3991.93012,0.10614
3993.85859,0.11492
3995.78706,0.11862
3997.71553,0.11843
3999.64400,0.11664
4001.57247,0.11085
4003.50094,0.10438
4005.42941,0.10323
4007.35787,0.10675
4009.28634,0.11056
4011.21481,0.10973
4013.14328,0.10668
4015.07175,0.10856
4017.00022,0.11190
4018.92869,0.11023
4020.85715,0.10597
4022.78562,0.10349
4024.71409,0.10442
4026.64256,0.10830
4028.57103,0.11127
4030.49950,0.10809
4032.42797,0.10266
4034.35644,0.10439
4036.28490,0.10903
4038.21337,0.10924
4040.14184,0.10754
4042.07031,0.10540
4043.99878,0.10410
4045.92725,0.10742
4047.85572,0.11268
4049.78418,0.11143
4051.71265,0.10397
4053.64112,0.09643
4055.56959,0.09194
4057.49806,0.09463
4059.42653,0.10183
4061.35500,0.10505
4063.28346,0.10279
4065.21193,0.10005
4067.14040,0.10096
4069.06887,0.10096
4070.99734,0.09551
4072.92581,0.09273
4074.85428,0.10047
4076.78275,0.11117
4078.71121,0.11234
4080.63968,0.10488
4082.56815,0.09983
4084.49662,0.09948
4086.42509,0.09813
4088.35356,0.09713
4090.28203,0.09811
4092.21049,0.09665
4094.13896,0.09516
4096.06743,0.09700
4097.99590,0.09493
4099.92437,0.08852
4101.85284,0.08658
4103.78131,0.09005
4105.70978,0.09472
4107.63824,0.09484
4109.56671,0.09024
4111.49518,0.08980
4113.42365,0.09303
4115.35212,0.09072
4117.28059,0.08531
4119.20906,0.08848
4121.13752,0.09843
4123.06599,0.10055
4124.99446,0.09367
4126.92293,0.08794
4128.85140,0.08702
4130.77987,0.08973
4132.70834,0.09118
4134.63681,0.08663
4136.56527,0.08225
4138.49374,0.08490
4140.42221,0.09169
4142.35068,0.10061
4144.27915,0.10723
4146.20762,0.10331
4148.13609,0.09310
4150.06455,0.08696
4151.99302,0.08955
4153.92149,0.09620
4155.84996,0.09783
4157.77843,0.09400
4159.70690,0.08714
4161.63537,0.08152
4163.56384,0.08357
4165.49230,0.09128
4167.42077,0.09601
4169.34924,0.09176
4171.27771,0.08272
4173.20618,0.07917
4175.13465,0.08262
4177.06312,0.08369
4178.99158,0.07980
4180.92005,0.07755
4182.84852,0.07785
4184.77699,0.07905
4186.70546,0.08245
4188.63393,0.08799
4190.56240,0.09318
4192.49087,0.09402
4194.41933,0.08880
4196.34780,0.08183
4198.27627,0.07944
4200.20474,0.08390
4202.13321,0.08723
4204.06168,0.08313
4205.99015,0.08098
4207.91861,0.08509
4209.84708,0.08501
4211.77555,0.07473
4213.70402,0.06418
4215.63249,0.06435
4217.56096,0.07009
4219.48943,0.07536
4221.41789,0.08025
4223.34636,0.08247
4225.27483,0.08035
4227.20330,0.07542
4229.13177,0.07283
4231.06024,0.07488
4232.98871,0.07507
4234.91718,0.06941
4236.84564,0.06347
4238.77411,0.06309
4240.70258,0.06859
4242.63105,0.07315
4244.55952,0.07222
4246.48799,0.07148
4248.41646,0.07528
4250.34492,0.07935
4252.27339,0.07770
4254.20186,0.07306
4256.13033,0.07063
4258.05880,0.06988
4259.98727,0.07208
4261.91574,0.07683
4263.84421,0.07889
4265.77267,0.07573
4267.70114,0.06817
4269.62961,0.06133
4271.55808,0.06200
4273.48655,0.06739
4275.41502,0.06853
4277.34349,0.06526
4279.27195,0.06371
4281.20042,0.06353
4283.12889,0.06166
4285.05736,0.06126
4286.98583,0.06258
4288.91430,0.06155
4290.84277,0.06148
4292.77124,0.06642
4294.69970,0.07031
4296.62817,0.06725
4298.55664,0.06164
4300.48511,0.05748
4302.41358,0.05263
4304.34205,0.04995
4306.27052,0.05459
4308.19898,0.05971
4310.12745,0.05909
4312.05592,0.05934
4313.98439,0.06003
4315.91286,0.05546
4317.84133,0.05097
4319.76980,0.05266
4321.69827,0.05877
4323.62673,0.06428
4325.55520,0.06642
4327.48367,0.06272
4329.41214,0.05123
4331.34061,0.04111
4333.26908,0.04157
4335.19755,0.04648
4337.12601,0.04889
4339.05448,0.05190
4340.98295,0.05675
4342.91142,0.05571
4344.83989,0.04836
4346.76836,0.04660
4348.69683,0.05193
4350.62530,0.05366
4352.55376,0.05006
4354.48223,0.04817
4356.41070,0.04867
4358.33917,0.04839
4360.26764,0.04677
4362.19611,0.04452
4364.12458,0.04396
4366.05304,0.04839
4367.98151,0.05724
4369.90998,0.06354
4371.83845,0.06248
4373.76692,0.05497
4375.69539,0.04565
4377.62386,0.04225
4379.55232,0.04440
4381.48079,0.04541
4383.40926,0.04439
4385.33773,0.04217
4387.26620,0.03966
4389.19467,0.03918
4391.12314,0.04188
4393.05161,0.04758
4394.98007,0.05128
4396.90854,0.04868
4398.83701,0.04082
4400.76548,0.03315
4402.69395,0.03153
4404.62242,0.03303
4406.55089,0.03386
4408.47935,0.02988
4410.40782,0.02457
4412.33629,0.03019
4414.26476,0.03923
4416.19323,0.03971
4418.12170,0.03578
4420.05017,0.03586
4421.97864,0.04134
4423.90710,0.04231
4425.83557,0.03549
4427.76404,0.03083
4429.69251,0.03247
4431.62098,0.03515
4433.54945,0.03529
4435.47792,0.03344
4437.40638,0.03077
4439.33485,0.02679
4441.26332,0.02030
4443.19179,0.01451
4445.12026,0.01513
4447.04873,0.02363
4448.97720,0.03606
4450.90567,0.04174
4452.83413,0.03428
4454.76260,0.02774
4456.69107,0.02946
4458.61954,0.02553
4460.54801,0.01866
4462.47648,0.02281
4464.40495,0.03134
4466.33341,0.03629
4468.26188,0.03743
4470.19035,0.03640
4472.11882,0.03811
4474.04729,0.03719
4475.97576,0.03086
4477.90423,0.02472
4479.83270,0.01698
4481.76116,0.01388
4483.68963,0.02140
4485.61810,0.03060
4487.54657,0.03520
4489.47504,0.03181
4491.40351,0.02266
4493.33198,0.01960
4495.26044,0.02352
4497.18891,0.02667
4499.11738,0.02724
4501.04585,0.02101
4502.97432,0.00645
4504.90279,-0.00356
4506.83126,-0.00229
4508.75973,0.00155
4510.68819,0.00596
4512.61666,0.01387
4514.54513,0.01817
4516.47360,0.01641
4518.40207,0.01751
4520.33054,0.01966
4522.25901,0.01511
4524.18747,0.00843
4526.11594,0.00492
4528.04441,0.00296
4529.97288,0.00180
4531.90135,0.00577
4533.82982,0.01400
4535.75829,0.01682
4537.68676,0.01306
4539.61522,0.01120
4541.54369,0.01567
4543.47216,0.02479
4545.40063,0.02930
4547.32910,0.02028
4549.25757,0.00954
4551.18604,0.01073
4553.11450,0.01846
4555.04297,0.02247
4556.97144,0.01624
4558.89991,0.00586
4560.82838,0.00360
4562.75685,0.01121
4564.68532,0.02148
4566.61378,0.02226
4568.54225,0.01450
4570.47072,0.01269
4572.39919,0.01726
4574.32766,0.01643
4576.25613,0.00790
4578.18460,0.00724
4580.11307,0.02068
4582.04153,0.02659
4583.97000,0.02231
4585.89847,0.02058
4587.82694,0.01636
4589.75541,0.01391
4591.68388,0.01837
4593.61235,0.01728
4595.54081,0.00833
4597.46928,0.00408
4599.39775,0.00847
4601.32622,0.01002
4603.25469,0.00421
4605.18316,0.00132
4607.11163,0.00129
4609.04010,-0.00207
4610.96856,-0.00620
4612.89703,-0.00611
4614.82550,0.00218
4616.75397,0.00828
4618.68244,0.00268
4620.61091,-0.00547
4622.53938,-0.00461
4624.46784,0.01020
4626.39631,0.02412
4628.32478,0.02041
4630.25325,0.00840
4632.18172,0.00480
4634.11019,0.01246
4636.03866,0.01730
4637.96713,0.00816
4639.89559,-0.00320
4641.82406,-0.00400
4643.75253,0.00395
4645.68100,0.01375
4647.60947,0.01619
4649.53794,0.00753
4651.46641,-0.00504
4653.39487,-0.00457
4655.32334,0.00767
4657.25181,0.01006
4659.18028,0.00443
4661.10875,0.00411
4663.03722,0.00909
4664.96569,0.01206
4666.89416,0.00818
4668.82262,0.00653
4670.75109,0.01244
4672.67956,0.01400
4674.60803,0.00844
4676.53650,0.00547
4678.46497,0.00581
4680.39344,0.00592
4682.32190,0.00930
4684.25037,0.02072
4686.17884,0.02846
4688.10731,0.01674
4690.03578,-0.00109
4691.96425,-0.00098
4693.89272,0.01412
4695.82119,0.02443
4697.74965,0.02471
4699.67812,0.01803
4701.60659,0.00673
4703.53506,-0.00009
4705.46353,0.00246
4707.39200,0.00708
4709.32047,0.00532
4711.24893,0.00196
4713.17740,0.00646
4715.10587,0.01009
4717.03434,0.00399
4718.96281,0.00110
4720.89128,0.00781
4722.81975,0.01732
4724.74821,0.02663
4726.67668,0.02888
4728.60515,0.02019
4730.53362,0.00617
4732.46209,-0.00412
4734.39056,-0.00298
4736.31903,0.00486
4738.24750,0.00688
4740.17596,0.00267
4742.10443,0.00126
4744.03290,0.00483
4745.96137,0.01394
4747.88984,0.02708
4749.81831,0.03267
4751.74678,0.02592
4753.67524,0.01613
4755.60371,0.01076
4757.53218,0.01220
4759.46065,0.01474
4761.38912,0.01200
4763.31759,0.01287
4765.24606,0.01558
4767.17453,0.00544
4769.10299,-0.00541
4771.03146,0.00015
4772.95993,0.00807
4774.88840,0.00777
4776.81687,0.00894
4778.74534,0.00912
4780.67381,0.00032
4782.60227,-0.01170
4784.53074,-0.01625
4786.45921,-0.00984
4788.38768,0.00285
4790.31615,0.01634
4792.24462,0.01988
4794.17309,0.00969
4796.10156,-0.00013
4798.03002,0.00090
4799.95849,0.00765
4801.88696,0.01441
4803.81543,0.02034
4805.74390,0.01980
4807.67237,0.01442
4809.60084,0.01235
4811.52930,0.01122
4813.45777,0.00720
4815.38624,0.00172
4817.31471,0.00243
4819.24318,0.01010
4821.17165,0.00783
4823.10012,-0.00630
4825.02859,-0.01111
4826.95705,-0.00112
4828.88552,0.01123
4830.81399,0.01921
4832.74246,0.02224
4834.67093,0.02167
4836.59940,0.02066
4838.52787,0.02049
4840.45633,0.01499
4842.38480,0.00543
4844.31327,-0.00139
4846.24174,-0.00550
4848.17021,-0.00193
4850.09868,0.00787
4852.02715,0.01745
4853.95562,0.02483
4855.88408,0.02660
4857.81255,0.02298
4859.74102,0.01136
4861.66949,-0.00290
4863.59796,-0.00572
4865.52643,0.00042
4867.45490,0.00438
4869.38336,0.00267
4871.31183,0.00060
4873.24030,0.00442
4875.16877,0.01227
4877.09724,0.01546
4879.02571,0.01011
4880.95418,0.00658
4882.88265,0.01183
4884.81111,0.01446
4886.73958,0.01016
4888.66805,0.00577
4890.59652,0.00368
4892.52499,0.00205
4894.45346,-0.00024
4896.38193,0.00094
4898.31039,0.00498
4900.23886,0.00435
4902.16733,-0.00161
4904.09580,-0.00674
4906.02427,-0.00687
4907.95274,-0.00693
4909.88121,-0.01425
4911.80967,-0.01799
4913.73814,-0.00439
4915.66661,0.01396
4917.59508,0.02205
4919.52355,0.01899
4921.45202,0.01514
4923.38049,0.01805
4925.30896,0.02070
4927.23742,0.01824
4929.16589,0.00733
4931.09436,-0.00768
4933.02283,-0.01491
4934.95130,-0.01403
4936.87977,-0.00884
4938.80824,-0.00162
4940.73670,0.00478
4942.66517,0.01238
4944.59364,0.02637
4946.52211,0.03712
4948.45058,0.02999
4950.37905,0.01944
4952.30752,0.02189
4954.23599,0.02242
4956.16445,0.01577
4958.09292,0.01327
4960.02139,0.01211
4961.94986,0.01383
4963.87833,0.01796
4965.80680,0.01236
4967.73527,-0.00077
4969.66373,-0.01072
4971.59220,-0.01302
4973.52067,-0.01176
4975.44914,-0.01047
4977.37761,-0.00185
4979.30608,0.01420
4981.23455,0.02472
4983.16302,0.02253
4985.09148,0.01471
4987.01995,0.01211
4988.94842,0.01277
4990.87689,0.01063
4992.80536,0.01078
4994.73383,0.01433
4996.66230,0.01472
4998.59076,0.01456
5000.51923,0.01942
5002.44770,0.02458
5004.37617,0.01928
5006.30464,0.00658
5008.23311,-0.00015
5010.16158,-0.00354
5012.09005,-0.00299
5014.01851,0.01019
5015.94698,0.02374
5017.87545,0.02595
5019.80392,0.01801
5021.73239,0.00248
5023.66086,-0.00565
5025.58933,0.00928
5027.51779,0.03416
5029.44626,0.04368
5031.37473,0.03452
5033.30320,0.02015
5035.23167,0.01291
5037.16014,0.01127
5039.08861,0.00522
5041.01708,-0.00690
5042.94554,-0.01833
5044.87401,-0.02381
5046.80248,-0.01530
5048.73095,0.00636
5050.65942,0.02078
5052.58789,0.02827
5054.51636,0.03810
5056.44482,0.03803
5058.37329,0.03520
5060.30176,0.04123
5062.23023,0.04064
5064.15870,0.02929
5066.08717,0.01795
5068.01564,0.00883
5069.94410,0.00652
5071.87257,0.01729
5073.80104,0.03065
5075.72951,0.03484
5077.65798,0.03579
5079.58645,0.03476
5081.51492,0.02209
5083.44339,0.00478
5085.37185,-0.00217
5087.30032,0.00341
5089.22879,0.00945
5091.15726,0.00732
5093.08573,0.00821
5095.01420,0.01755
5096.94267,0.02599
5098.87113,0.02901
5100.79960,0.02805
5102.72807,0.02891
5104.65654,0.03550
5106.58501,0.04690
5108.51348,0.06054
5110.44195,0.06354
5112.37042,0.04693
5114.29888,0.02473
5116.22735,0.01695
5118.15582,0.02879
5120.08429,0.04015
5122.01276,0.02979
5123.94123,0.01175
5125.86970,0.00837
5127.79816,0.01305
5129.72663,0.01879
5131.65510,0.03219
5133.58357,0.04471
5135.51204,0.04686
5137.44051,0.04276
5139.36898,0.03955
5141.29745,0.04138
5143.22591,0.04618
5145.15438,0.04992
5147.08285,0.04589
5149.01132,0.03865
5150.93979,0.05118
5152.86826,0.08489
5154.79673,0.09954
5156.72519,0.07830
5158.65366,0.05526
5160.58213,0.03708
5162.51060,0.01317
5164.43907,0.00553
5166.36754,0.01704
5168.29601,0.01994
5170.22448,0.01368
5172.15294,0.01921
5174.08141,0.03320
5176.00988,0.03486
5177.93835,0.02587
5179.86682,0.02129
5181.79529,0.01962
5183.72376,0.01748
5185.65222,0.02302
5187.58069,0.04126
5189.50916,0.04918
5191.43763,0.04078
5193.36610,0.04474
5195.29457,0.05199
5197.22304,0.04624
5199.15151,0.04110
5201.07997,0.04006
5203.00844,0.03702
5204.93691,0.03060
5206.86538,0.02625
5208.79385,0.02369
5210.72232,0.01770
5212.65079,0.01412
5214.57925,0.02169
5216.50772,0.03827
5218.43619,0.05007
5220.36466,0.04772
5222.29313,0.04556
5224.22160,0.05306
5226.15007,0.05428
5228.07854,0.05086
5230.00700,0.04919
5231.93547,0.04000
5233.86394,0.03191
5235.79241,0.02861
5237.72088,0.02865
5239.64935,0.04778
5241.57782,0.07771
5243.50628,0.09055
5245.43475,0.08645
5247.36322,0.08169
5249.29169,0.07248
5251.22016,0.04994
5253.14863,0.03192
5255.07710,0.03821
5257.00556,0.05396
5258.93403,0.05106
5260.86250,0.03855
5262.79097,0.04818
5264.71944,0.05917
5266.64791,0.04762
5268.57638,0.04504
5270.50485,0.05946
5272.43331,0.07196
5274.36178,0.06972
5276.29025,0.05653
5278.21872,0.05754
5280.14719,0.07596
5282.07566,0.08390
5284.00413,0.07945
5285.93259,0.07273
5287.86106,0.05656
5289.78953,0.04726
5291.71800,0.06443
5293.64647,0.07726
5295.57494,0.07082
5297.50341,0.06639
5299.43188,0.06967
5301.36034,0.07934
5303.28881,0.08812
5305.21728,0.07610
5307.14575,0.04482
5309.07422,0.01662
5311.00269,0.01240
5312.93116,0.03118
5314.85962,0.05242
5316.78809,0.06706
5318.71656,0.06799
5320.64503,0.04057
5322.57350,0.00608
5324.50197,0.00117
5326.43044,0.03047
5328.35891,0.06955
5330.28737,0.09024
5332.21584,0.08606
5334.14431,0.06662
5336.07278,0.06056
5338.00125,0.08339
5339.92972,0.10705
5341.85819,0.10685
5343.78665,0.08739
5345.71512,0.06680
5347.64359,0.06383
5349.57206,0.07082
5351.50053,0.05263
5353.42900,0.00866
5355.35747,0.01131
5357.28594,0.05549
5359.21440,0.07275
5361.14287,0.06779
5363.07134,0.07514
5364.99981,0.07857
5366.92828,0.05828
5368.85675,0.02972
5370.78522,0.01659
5372.71368,0.03138
5374.64215,0.06796
5376.57062,0.10226
5378.49909,0.10326
5380.42756,0.07700
5382.35603,0.05230
5384.28450,0.04851
5386.21297,0.06678
5388.14143,0.08307
5390.06990,0.07960
5391.99837,0.07238
5393.92684,0.07405
5395.85531,0.07316
5397.78378,0.07110
5399.71225,0.06855
5401.64071,0.06511
5403.56918,0.07544
5405.49765,0.09367
5407.42612,0.08818
5409.35459,0.06322
5411.28306,0.06282
5413.21153,0.08195
5415.13999,0.08110
5417.06846,0.07128
5418.99693,0.07816
5420.92540,0.09540
5422.85387,0.09190
5424.78234,0.06569
5426.71081,0.04751
5428.63928,0.05276
5430.56774,0.06906
5432.49621,0.08942
5434.42468,0.10679
5436.35315,0.09725
5438.28162,0.07033
5440.21009,0.06798
5442.13856,0.09422
5444.06702,0.09727
5445.99549,0.06498
5447.92396,0.03548
5449.85243,0.02618
5451.78090,0.03209
5453.70937,0.04293
5455.63784,0.04400
5457.56631,0.04091
5459.49477,0.05744
5461.42324,0.08514
5463.35171,0.10791
5465.28018,0.12278
5467.20865,0.11462
5469.13712,0.08523
5471.06559,0.06784
5472.99405,0.07910
5474.92252,0.10852
5476.85099,0.12412
5478.77946,0.10971
5480.70793,0.08951
5482.63640,0.07567
5484.56487,0.06054
5486.49334,0.04891
5488.42180,0.04789
5490.35027,0.05087
5492.27874,0.05230
5494.20721,0.06113
5496.13568,0.07887
5498.06415,0.08649
5499.99262,0.07705
5501.92108,0.07123
5503.84955,0.06874
5505.77802,0.06542
5507.70649,0.07428
5509.63496,0.06939
5511.56343,0.03846
5513.49190,0.01776
5515.42037,0.03205
5517.34883,0.06308
5519.27730,0.07519
5521.20577,0.07136
5523.13424,0.06410
5525.06271,0.05215
5526.99118,0.04809
5528.91965,0.05166
5530.84811,0.04431
5532.77658,0.03086
5534.70505,0.02772
5536.63352,0.03616
5538.56199,0.05374
5540.49046,0.06620
5542.41893,0.07062
5544.34740,0.08270
5546.27586,0.09205
5548.20433,0.09373
5550.13280,0.10019
5552.06127,0.10490
5553.98974,0.10754
5555.91821,0.12261
5557.84668,0.13487
5559.77514,0.12304
5561.70361,0.11091
5563.63208,0.11312
5565.56055,0.10180
5567.48902,0.07103
5569.41749,0.04668
5571.34596,0.03304
5573.27443,0.03052
5575.20289,0.05180
5577.13136,0.07976
5579.05983,0.09310
5580.98830,0.10376
5582.91677,0.10469
5584.84524,0.08186
5586.77371,0.06899
5588.70217,0.07281
5590.63064,0.06613
5592.55911,0.06462
5594.48758,0.08846
5596.41605,0.11406
5598.34452,0.10447
5600.27299,0.07315
5602.20145,0.06774
5604.12992,0.07862
5606.05839,0.07439
5607.98686,0.07073
5609.91533,0.08051
5611.84380,0.09114
5613.77227,0.09181
5615.70074,0.08472
5617.62920,0.07990
5619.55767,0.08246
5621.48614,0.10265
5623.41461,0.12909
5625.34308,0.13410
5627.27155,0.11597
5629.20002,0.08198
5631.12848,0.04881
5633.05695,0.03573
5634.98542,0.04167
5636.91389,0.05100
5638.84236,0.06028
5640.77083,0.07996
5642.69930,0.10195
5644.62777,0.11340
5646.55623,0.11932
5648.48470,0.11781
5650.41317,0.10235
5652.34164,0.09064
5654.27011,0.09363
5656.19858,0.10729
5658.12705,0.12515
5660.05551,0.12386
5661.98398,0.09867
5663.91245,0.08369
5665.84092,0.09484
5667.76939,0.09187
5669.69786,0.04674
5671.62633,0.00847
5673.55480,0.02255
5675.48326,0.06270
5677.41173,0.08397
5679.34020,0.08020
5681.26867,0.07459
5683.19714,0.07348
5685.12561,0.06807
5687.05408,0.06677
5688.98254,0.08504
5690.91101,0.10942
5692.83948,0.11767
5694.76795,0.12055
5696.69642,0.11921
5698.62489,0.09580
5700.55336,0.06807
5702.48183,0.05098
5704.41029,0.04102
5706.33876,0.04267
5708.26723,0.06278
5710.19570,0.09646
5712.12417,0.10951
5714.05264,0.09301
5715.98111,0.09148
5717.90957,0.12063
5719.83804,0.14941
5721.76651,0.15801
5723.69498,0.14844
5725.62345,0.13065
5727.55192,0.11190
5729.48039,0.08855
5731.40886,0.06561
5733.33732,0.04936
5735.26579,0.05283
5737.19426,0.07982
5739.12273,0.09273
5741.05120,0.08654
5742.97967,0.08737
5744.90814,0.09291
5746.83660,0.09999
5748.76507,0.12133
5750.69354,0.14662
5752.62201,0.13806
5754.55048,0.10955
5756.47895,0.10078
5758.40742,0.09609
5760.33588,0.08013
5762.26435,0.07916
5764.19282,0.10282
5766.12129,0.13094
5768.04976,0.14877
5769.97823,0.14792
5771.90670,0.12442
5773.83517,0.08353
5775.76363,0.04139
5777.69210,0.02708
5779.62057,0.05768
5781.54904,0.10448
5783.47751,0.13387
5785.40598,0.14310
5787.33445,0.12543
5789.26291,0.07939
5791.19138,0.04770
5793.11985,0.06787
5795.04832,0.10569
5796.97679,0.11302
5798.90526,0.10249
5800.83373,0.10338
5802.76220,0.10562
5804.69066,0.08344
5806.61913,0.06258
5808.54760,0.07139
5810.47607,0.07480
5812.40454,0.06189
5814.33301,0.05531
5816.26148,0.05742
5818.18994,0.08214
5820.11841,0.12561
5822.04688,0.13948
5823.97535,0.12573
5825.90382,0.14706
5827.83229,0.20276
5829.76076,0.21717
5831.68923,0.18471
5833.61769,0.15298
5835.54616,0.12140
5837.47463,0.09179
5839.40310,0.08214
5841.33157,0.09140
5843.26004,0.08530
5845.18851,0.04637
5847.11697,0.02663
5849.04544,0.05963
5850.97391,0.10225
5852.90238,0.11782
5854.83085,0.09907
5856.75932,0.06729
5858.68779,0.07843
5860.61626,0.11304
5862.54472,0.10999
5864.47319,0.08612
5866.40166,0.07602
5868.33013,0.09304
5870.25860,0.12499
5872.18707,0.14875
5874.11554,0.16935
5876.04400,0.17207
5877.97247,0.14563
5879.90094,0.12425
5881.82941,0.11675
5883.75788,0.10715
5885.68635,0.09311
5887.61482,0.06810
5889.54329,0.03407
5891.47175,0.01961
5893.40022,0.04331
5895.32869,0.08188
5897.25716,0.10777
5899.18563,0.11109
5901.11410,0.08275
5903.04257,0.04645
5904.97103,0.04561
5906.89950,0.07740
5908.82797,0.09755
5910.75644,0.09097
5912.68491,0.08549
5914.61338,0.08233
5916.54185,0.07435
5918.47032,0.07812
5920.39878,0.10553
5922.32725,0.12392
5924.25572,0.10820
5926.18419,0.08613
5928.11266,0.08230
5930.04113,0.10204
5931.96960,0.12499
5933.89806,0.12651
5935.82653,0.11204
5937.75500,0.09623
5939.68347,0.08101
5941.61194,0.07637
5943.54041,0.09967
5945.46888,0.11048
5947.39734,0.07960
5949.32581,0.05686
5951.25428,0.05403
5953.18275,0.03175
5955.11122,0.02533
5957.03969,0.06551
5958.96816,0.09321
5960.89663,0.08881
5962.82509,0.09410
5964.75356,0.10793
5966.68203,0.12162
5968.61050,0.15078
5970.53897,0.19201
5972.46744,0.19671
5974.39591,0.15022
5976.32437,0.10948
5978.25284,0.10262
5980.18131,0.11874
5982.10978,0.13675
5984.03825,0.13686
5985.96672,0.12614
5987.89519,0.09390
5989.82366,0.05106
5991.75212,0.05520
5993.68059,0.09263
5995.60906,0.13380
5997.53753,0.16679
5999.46600,0.14693
6001.39447,0.10819
6003.32294,0.11134
6005.25140,0.11670
6007.17987,0.08443
6009.10834,0.05644
6011.03681,0.07436
6012.96528,0.10022
6014.89375,0.08895
6016.82222,0.07433
6018.75069,0.08076
6020.67915,0.08623
6022.60762,0.07629
6024.53609,0.04374
6026.46456,0.00351
6028.39303,-0.02496
6030.32150,-0.02673
6032.24997,-0.00043
6034.17843,0.02827
6036.10690,0.03572
6038.03537,0.03630
6039.96384,0.07358
6041.89231,0.11718
6043.82078,0.10871
6045.74925,0.09734
6047.67772,0.12962
6049.60618,0.14934
6051.53465,0.08938
6053.46312,0.01056
6055.39159,0.02403
6057.32006,0.09674
6059.24853,0.12817
6061.17700,0.11284
6063.10546,0.10314
6065.03393,0.13866
6066.96240,0.18576
6068.89087,0.19255
6070.81934,0.15220
6072.74781,0.10142
6074.67628,0.09966
6076.60475,0.14130
6078.53321,0.14414
6080.46168,0.10177
6082.39015,0.07830
6084.31862,0.08168
6086.24709,0.09096
6088.17556,0.11842
6090.10403,0.14371
6092.03249,0.14412
6093.96096,0.16110
6095.88943,0.17767
6097.81790,0.15297
6099.74637,0.12592
6101.67484,0.12150
6103.60331,0.12116
6105.53177,0.13079
6107.46024,0.15013
6109.38871,0.11579
6111.31718,0.03615
6113.24565,0.01751
6115.17412,0.06863
6117.10259,0.11287
6119.03106,0.09337
6120.95952,0.04641
6122.88799,0.05594
6124.81646,0.10627
6126.74493,0.11578
6128.67340,0.08357
6130.60187,0.07045
6132.53034,0.07391
6134.45880,0.07089
6136.38727,0.07676
6138.31574,0.10490
6140.24421,0.13107
6142.17268,0.12533
6144.10115,0.10329
6146.02962,0.09484
6147.95809,0.08682
6149.88655,0.06271
6151.81502,0.04896
6153.74349,0.07855
6155.67196,0.12233
6157.60043,0.12487
6159.52890,0.08284
6161.45737,0.05227
6163.38583,0.08416
6165.31430,0.14404
6167.24277,0.16015
6169.17124,0.14356
6171.09971,0.13384
6173.02818,0.11729
6174.95665,0.10247
6176.88512,0.11495
6178.81358,0.12137
6180.74205,0.12735
6182.67052,0.13959
6184.59899,0.11773
6186.52746,0.05718
6188.45593,-0.01728
6190.38440,-0.01757
6192.31286,0.07552
6194.24133,0.14631
6196.16980,0.14275
6198.09827,0.12273
6200.02674,0.12878
6201.95521,0.13017
6203.88368,0.12053
6205.81215,0.14913
6207.74061,0.18760
6209.66908,0.18867
6211.59755,0.17780
6213.52602,0.17943
6215.45449,0.19323
6217.38296,0.18808
6219.31143,0.13663
6221.23989,0.09362
6223.16836,0.10580
6225.09683,0.13501
6227.02530,0.14542
6228.95377,0.15569
6230.88224,0.16060
6232.81071,0.14719
6234.73918,0.14214
6236.66764,0.13932
6238.59611,0.12173
6240.52458,0.10026
6242.45305,0.07566
6244.38152,0.05090
6246.30999,0.05138
6248.23846,0.08461
6250.16692,0.11317
6252.09539,0.10187
6254.02386,0.07432
6255.95233,0.08139
6257.88080,0.10995
6259.80927,0.10455
6261.73774,0.07147
6263.66621,0.06998
6265.59467,0.13194
6267.52314,0.18808
6269.45161,0.19275
6271.38008,0.15418
6273.30855,0.04732
6275.23702,-0.04362
6277.16549,0.01432
6279.09395,0.13545
6281.02242,0.17340
6282.95089,0.15637
6284.87936,0.17825
6286.80783,0.18342
6288.73630,0.10491
6290.66477,0.04442
6292.59323,0.05900
6294.52170,0.07934
6296.45017,0.10291
6298.37864,0.12002
6300.30711,0.09478
6302.23558,0.04450
6304.16405,0.01391
6306.09252,0.01979
6308.02098,0.04475
6309.94945,0.08836
6311.87792,0.11448
6313.80639,0.09110
6315.73486,0.08376
6317.66333,0.12018
6319.59180,0.17357
6321.52026,0.18191
6323.44873,0.08481
6325.37720,-0.02502
6327.30567,-0.03103
6329.23414,0.05597
6331.16261,0.14106
6333.09108,0.16676
6335.01955,0.15107
6336.94801,0.14592
6338.87648,0.17928
6340.80495,0.20990
6342.73342,0.22911
6344.66189,0.26722
6346.59036,0.27550
6348.51883,0.23646
6350.44729,0.20501
6352.37576,0.17151
6354.30423,0.09719
6356.23270,0.00756
6358.16117,-0.03094
6360.08964,0.00824
6362.01811,0.07608
6363.94658,0.10042
6365.87504,0.08438
6367.80351,0.09975
6369.73198,0.14096
6371.66045,0.15548
6373.58892,0.17452
6375.51739,0.23310
6377.44586,0.24076
6379.37432,0.16694
6381.30279,0.11666
6383.23126,0.12762
6385.15973,0.12909
6387.08820,0.09362
6389.01667,0.05849
6390.94514,0.03907
6392.87361,0.00785
6394.80207,-0.01727
6396.73054,-0.01342
6398.65901,-0.02281
6400.58748,-0.04219
6402.51595,-0.02458
6404.44442,0.03686
6406.37289,0.11077
6408.30135,0.13515
6410.22982,0.10527
6412.15829,0.08309
6414.08676,0.05562
6416.01523,0.01309
6417.94370,0.01919
6419.87217,0.06477
6421.80064,0.07228
6423.72910,0.03245
6425.65757,-0.01764
6427.58604,-0.03995
6429.51451,-0.01320
6431.44298,0.05303
6433.37145,0.09056
6435.29992,0.09513
6437.22838,0.12713
6439.15685,0.15846
6441.08532,0.16176
6443.01379,0.15725
6444.94226,0.12700
6446.87073,0.08877
6448.79920,0.07827
6450.72766,0.05899
6452.65613,0.00212
6454.58460,-0.01953
6456.51307,0.02235
6458.44154,0.07248
6460.37001,0.11808
6462.29848,0.12225
6464.22695,0.07037
6466.15541,0.02738
6468.08388,-0.01857
6470.01235,-0.04093
6471.94082,0.03746
6473.86929,0.13194
6475.79776,0.15443
6477.72623,0.13349
6479.65469,0.13385
6481.58316,0.13664
6483.51163,0.08496
6485.44010,0.04904
6487.36857,0.09018
6489.29704,0.14754
6491.22551,0.15512
6493.15398,0.10864
6495.08244,0.06138
6497.01091,0.04710
6498.93938,0.04521
6500.86785,0.06659
6502.79632,0.12753
6504.72479,0.16107
6506.65326,0.12107
6508.58172,0.06296
6510.51019,0.03938
6512.43866,0.05409
6514.36713,0.08021
6516.29560,0.05257
6518.22407,-0.00675
6520.15254,-0.02266
6522.08101,-0.00359
6524.00947,0.02974
6525.93794,0.07300
6527.86641,0.11679
6529.79488,0.15748
6531.72335,0.14958
6533.65182,0.08291
6535.58029,0.02909
6537.50875,0.01181
6539.43722,0.01712
6541.36569,-0.01046
6543.29416,-0.08640
6545.22263,-0.08134
6547.15110,0.01032
6549.07957,0.09870
6551.00804,0.16068
6552.93650,0.16666
6554.86497,0.10103
6556.79344,0.03202
6558.72191,0.04413
6560.65038,0.14146
6562.57885,0.19938
6564.50732,0.12362
6566.43578,0.03372
6568.36425,0.03090
6570.29272,0.03605
6572.22119,0.02038
6574.14966,0.04020
6576.07813,0.09615
6578.00660,0.09739
6579.93507,0.02737
6581.86353,0.03564
6583.79200,0.13827
6585.72047,0.13364
6587.64894,0.01487
6589.57741,-0.04405
6591.50588,0.01022
6593.43435,0.12251
6595.36281,0.17106
6597.29128,0.08457
6599.21975,-0.01760
6601.14822,0.01004
6603.07669,0.11152
6605.00516,0.15889
6606.93363,0.17187
6608.86210,0.20311
6610.79056,0.22074
6612.71903,0.17203
6614.64750,0.09962
6616.57597,0.05868
6618.50444,0.00349
6620.43291,-0.05887
6622.36138,-0.02878
6624.28984,0.05033
6626.21831,0.05083
6628.14678,0.02693
6630.07525,0.08146
6632.00372,0.14724
6633.93219,0.14535
6635.86066,0.11137
6637.78912,0.13981
6639.71759,0.19982
6641.64606,0.15641
6643.57453,0.03278
6645.50300,-0.01637
6647.43147,-0.00203
6649.35994,-0.03650
6651.28841,-0.08654
6653.21687,-0.07348
6655.14534,-0.00199
6657.07381,0.07232
6659.00228,0.11167
6660.93075,0.15187
6662.85922,0.19492
6664.78769,0.18380
6666.71615,0.13629
6668.64462,0.11955
6670.57309,0.15309
6672.50156,0.21423
6674.43003,0.24931
6676.35850,0.19933
6678.28697,0.09335
6680.21544,-0.00398
6682.14390,-0.05433
6684.07237,0.00487
6686.00084,0.09855
6687.92931,0.08916
6689.85778,0.04844
6691.78625,0.03396
6693.71472,0.00325
6695.64318,0.01579
6697.57165,0.07172
6699.50012,0.07677
6701.42859,0.08252
6703.35706,0.14901
6705.28553,0.20683
6707.21400,0.20655
6709.14247,0.21500
6711.07093,0.22146
6712.99940,0.11931
6714.92787,-0.02204
6716.85634,-0.06467
6718.78481,-0.03745
6720.71328,-0.00106
6722.64175,0.02550
6724.57021,0.01736
6726.49868,-0.01745
6728.42715,-0.01393
6730.35562,0.05259
6732.28409,0.09528
6734.21256,0.10431
6736.14103,0.10517
6738.06950,0.02276
6739.99796,-0.06053
6741.92643,-0.00007
6743.85490,0.07040
6745.78337,0.07714
6747.71184,0.11970
6749.64031,0.17467
6751.56878,0.15845
6753.49724,0.07416
6755.42571,0.01076
6757.35418,0.03730
6759.28265,0.12142
6761.21112,0.17486
6763.13959,0.14282
6765.06806,0.07672
6766.99653,0.02895
6768.92499,-0.01277
6770.85346,-0.04633
6772.78193,-0.08601
6774.71040,-0.14121
6776.63887,-0.11570
6778.56734,0.01229
6780.49581,0.14764
6782.42427,0.21363
6784.35274,0.19086
6786.28121,0.16277
6788.20968,0.18436
6790.13815,0.16883
6792.06662,0.08701
6793.99509,0.05875
6795.92355,0.07764
6797.85202,0.07420
6799.78049,0.05566
6801.70896,0.05893
6803.63743,0.12760
6805.56590,0.14786
6807.49437,0.06159
6809.42284,0.02857
6811.35130,0.05905
6813.27977,0.02964
6815.20824,-0.03139
6817.13671,-0.02754
6819.06518,0.03393
6820.99365,0.09107
6822.92212,0.10574
6824.85058,0.07224
6826.77905,0.05199
6828.70752,0.09579
6830.63599,0.16425
6832.56446,0.18058
6834.49293,0.14778
6836.42140,0.10006
6838.34987,0.07784
6840.27833,0.10567
6842.20680,0.12292
6844.13527,0.07557
6846.06374,0.02084
6847.99221,-0.01813
6849.92068,-0.06262
6851.84915,-0.07619
6853.77761,-0.06657
6855.70608,0.00440
6857.63455,0.12986
6859.56302,0.14879
6861.49149,0.04963
6863.41996,-0.02641
6865.34843,-0.02735
6867.27690,0.01365
6869.20536,0.05954
6871.13383,0.08926
6873.06230,0.12007
6874.99077,0.14163
6876.91924,0.11335
6878.84771,0.04879
6880.77618,-0.03935
6882.70464,-0.12804
6884.63311,-0.17771
6886.56158,-0.15431
6888.49005,0.00594
6890.41852,0.20268
6892.34699,0.22276
6894.27546,0.12130
6896.20393,0.05112
6898.13239,0.01526
6900.06086,-0.01389
6901.98933,0.00797
6903.91780,0.11948
6905.84627,0.17042
6907.77474,0.06369
6909.70321,-0.02698
6911.63167,-0.03990
6913.56014,-0.00590
6915.48861,0.06501
6917.41708,0.13649
6919.34555,0.18487
6921.27402,0.14735
6923.20249,0.05397
6925.13096,0.03201
6927.05942,0.09357
6928.98789,0.16506
6930.91636,0.19140
6932.84483,0.17606
6934.77330,0.13738
6936.70177,0.10251
6938.63024,0.09853
6940.55870,0.07575
6942.48717,-0.00242
6944.41564,-0.05501
6946.34411,-0.07107
6948.27258,-0.09432
6950.20105,-0.11130
6952.12952,-0.14393
6954.05799,-0.19340
6955.98645,-0.14864
6957.91492,-0.03292
6959.84339,0.07082
6961.77186,0.15882
6963.70033,0.18513
6965.62880,0.14849
6967.55727,0.11507
6969.48573,0.11200
6971.41420,0.13269
6973.34267,0.19369
6975.27114,0.21378
6977.19961,0.09333
6979.12808,-0.05711
6981.05655,-0.10820
6982.98501,-0.07779
6984.91348,-0.06649
6986.84195,-0.11214
6988.77042,-0.15594
6990.69889,-0.07437
6992.62736,0.08352
6994.55583,0.15518
6996.48430,0.13216
6998.41276,0.08182
7000.34123,0.02870
7002.26970,0.04044
7004.19817,0.09424
7006.12664,0.06931
7008.05511,-0.03365
7009.98358,-0.10261
7011.91204,-0.06442
7013.84051,0.06170
7015.76898,0.13889
7017.69745,0.15256
7019.62592,0.12337
7021.55439,0.00903
7023.48286,-0.09462
7025.41133,-0.07248
7027.33979,-0.03309
7029.26826,-0.02506
7031.19673,0.02447
7033.12520,0.06206
7035.05367,0.03040
7036.98214,0.00717
7038.91061,0.04469
7040.83907,0.05753
7042.76754,-0.03082
7044.69601,-0.16085
7046.62448,-0.17026
7048.55295,0.06241
7050.48142,0.26648
7052.40989,0.15887
7054.33836,-0.08367
7056.26682,-0.12552
7058.19529,0.07841
7060.12376,0.28567
7062.05223,0.36759
7063.98070,0.36748
7065.90917,0.35095
7067.83764,0.30505
7069.76610,0.19534
7071.69457,0.08722
7073.62304,0.03530
7075.55151,0.03018
7077.47998,0.06767
7079.40845,0.11581
7081.33692,0.13960
7083.26539,0.12567
7085.19385,0.05617
7087.12232,-0.06441
7089.05079,-0.17440
7090.97926,-0.20747
7092.90773,-0.20252
7094.83620,-0.21146
7096.76467,-0.21142
7098.69313,-0.17694
7100.62160,-0.03682
7102.55007,0.12852
7104.47854,0.17826
7106.40701,0.19405
7108.33548,0.19663
7110.26395,0.15240
7112.19242,0.12330
7114.12088,0.09206
7116.04935,0.08928
7117.97782,0.13526
7119.90629,0.18526
7121.83476,0.27751
7123.76323,0.31091
7125.69170,0.26991
7127.62016,0.29027
7129.54863,0.28148
7131.47710,0.19025
7133.40557,0.12047
7135.33404,0.07281
7137.26251,0.05338
7139.19098,0.07835
7141.11944,0.13562
7143.04791,0.24011
7144.97638,0.26130
7146.90485,0.11948
7148.83332,0.01547
7150.76179,-0.00542
7152.69026,-0.03349
7154.61873,-0.08542
7156.54719,-0.06973
7158.47566,0.03941
7160.40413,0.14035
7162.33260,0.20985
7164.26107,0.27994
7166.18954,0.30915
7168.11801,0.33033
7170.04647,0.35014
7171.97494,0.25086
7173.90341,0.07564
7175.83188,-0.02077
7177.76035,0.03491
7179.68882,0.13838
7181.61729,0.18758
7183.54576,0.16330
7185.47422,0.07551
7187.40269,-0.00362
7189.33116,-0.02608
7191.25963,-0.04762
7193.18810,-0.10775
7195.11657,-0.07057
7197.04504,0.10564
7198.97350,0.21696
7200.90197,0.16184
7202.83044,0.05329
7204.75891,0.03727
7206.68738,0.09018
7208.61585,0.05209
7210.54432,-0.00263
7212.47279,-0.02169
7214.40125,-0.05934
7216.32972,-0.04195
7218.25819,0.04183
7220.18666,-0.00592
7222.11513,-0.11269
7224.04360,-0.11299
7225.97207,-0.00455
7227.90053,0.11289
7229.82900,0.26700
7231.75747,0.36470
7233.68594,0.29754
7235.61441,0.25264
7237.54288,0.26923
7239.47135,0.25599
7241.39982,0.20159
7243.32828,0.11801
7245.25675,0.04506
7247.18522,-0.00312
7249.11369,-0.00628
7251.04216,0.10456
7252.97063,0.16206
7254.89910,-0.03572
7256.82756,-0.17016
7258.75603,-0.10030
7260.68450,0.11283
7262.61297,0.33906
7264.54144,0.48817
7266.46991,0.46320
7268.39838,0.30495
7270.32685,0.17573
7272.25531,0.11225
7274.18378,0.09671
7276.11225,0.13829
7278.04072,0.20278
7279.96919,0.18684
7281.89766,-0.00693
7283.82613,-0.13986
7285.75459,-0.13263
7287.68306,-0.10231
7289.61153,-0.02410
7291.54000,0.09653
7293.46847,0.11948
7295.39694,0.03025
7297.32541,0.03303
7299.25387,0.13730
7301.18234,0.14123
7303.11081,0.11513
7305.03928,0.19146
7306.96775,0.26256
7308.89622,0.21774
7310.82469,0.07817
7312.75316,-0.03497
7314.68162,-0.10062
7316.61009,-0.09378
7318.53856,-0.00229
7320.46703,0.05073
7322.39550,0.07213
7324.32397,0.16826
7326.25244,0.27619
7328.18090,0.23774
7330.10937,0.07648
7332.03784,0.06735
7333.96631,0.18396
7335.89478,0.25921
7337.82325,0.36081
7339.75172,0.53090
7341.68019,0.50832
7343.60865,0.33385
7345.53712,0.16607
7347.46559,0.06904
7349.39406,0.09485
7351.32253,0.20615
7353.25100,0.28786
7355.17947,0.35767
7357.10793,0.53148
7359.03640,0.68345
7360.96487,0.54583
7362.89334,0.16761
7364.82181,-0.11818
7366.75028,-0.12276
7368.67875,0.01998
7370.60722,0.10656
7372.53568,0.13224
7374.46415,0.28991
7376.39262,0.45818
7378.32109,0.36875
7380.24956,0.17955
7382.17803,0.00571
7384.10650,-0.05619
7386.03496,-0.06609
7387.96343,-0.06259
7389.89190,0.03781
7391.82037,0.11876
7393.74884,0.06300
7395.67731,-0.01823
7397.60578,0.04686
7399.53425,0.25132
7401.46271,0.44720
7403.39118,0.48917
7405.31965,0.35284
7407.24812,0.15902
7409.17659,0.01925
7411.10506,0.01199
7413.03353,0.03365
7414.96199,-0.01064
7416.89046,0.03600
7418.81893,0.25231
7420.74740,0.25175
7422.67587,0.07310
7424.60434,0.02670
7426.53281,0.05177
7428.46128,0.06254
7430.38974,0.06745
7432.31821,0.08645
7434.24668,0.21157
7436.17515,0.32951
7438.10362,0.17487
7440.03209,-0.10489
7441.96056,-0.19946
7443.88902,-0.17326
7445.81749,-0.18286
7447.74596,-0.10415
7449.67443,0.06405
7451.60290,0.04990
7453.53137,0.04053
7455.45984,0.19601
7457.38831,0.26670
7459.31677,0.21320
7461.24524,0.18097
7463.17371,0.18842
7465.10218,0.19635
7467.03065,0.16204
7468.95912,0.09890
7470.88759,0.09025
7472.81605,0.08577
7474.74452,-0.04652
7476.67299,-0.19235
7478.60146,-0.03860
7480.52993,0.29175
7482.45840,0.31124
7484.38687,0.10311
7486.31533,-0.12026
7488.24380,-0.25674
7490.17227,-0.19271
7492.10074,-0.00860
7494.02921,0.13283
7495.95768,0.14793
7497.88615,0.01533
