399.19301,-0.74176
401.12148,-0.37777
403.04995,0.14178
404.97842,0.22631
406.90689,0.10993
408.83536,0.06669
410.76382,0.12963
412.69229,0.10564
414.62076,-0.05896
416.54923,-0.13022
418.47770,0.00548
420.40617,0.07467
422.33464,0.01465
424.26311,-0.03068
426.19157,0.00841
428.12004,0.14300
430.04851,0.21794
431.97698,0.11044
433.90545,0.07011
435.83392,0.16875
437.76239,0.18836
439.69085,0.11953
441.61932,0.08050
443.54779,0.02680
445.47626,-0.07821
447.40473,-0.12386
449.33320,-0.04091
451.26167,0.08438
453.19013,0.12195
455.11860,0.09867
457.04707,0.08803
458.97554,0.06542
460.90401,0.04812
462.83248,0.05866
464.76095,0.05948
466.68942,0.06500
468.61788,0.08708
470.54635,0.16017
472.47482,0.36092
474.40329,0.48369
476.33176,0.29008
478.26023,0.14961
480.18870,0.15993
482.11716,0.20971
484.04563,0.18998
485.97410,0.09738
487.90257,0.01428
489.83104,0.00032
491.75951,0.03910
493.68798,0.09285
495.61645,0.11483
497.54491,0.11223
499.47338,0.13789
501.40185,0.15914
503.33032,0.13866
505.25879,0.12554
507.18726,0.16126
509.11573,0.20081
511.04419,0.17727
512.97266,0.12044
514.90113,0.09093
516.82960,0.08105
518.75807,0.06728
520.68654,0.06775
522.61501,0.09536
524.54348,0.11791
526.47194,0.10272
528.40041,0.09631
530.32888,0.12348
532.25735,0.14424
534.18582,0.13657
536.11429,0.12478
538.04276,0.12396
539.97122,0.11159
541.89969,0.08967
543.82816,0.09056
545.75663,0.11510
547.68510,0.12863
549.61357,0.11063
551.54204,0.00277
553.47051,-0.13246
555.39897,-0.09082
557.32744,0.05932
559.25591,0.12634
561.18438,0.12420
563.11285,0.09855
565.04132,0.07119
566.96979,0.06159
568.89825,0.07858
570.82672,0.10893
572.75519,0.12330
574.68366,0.12210
576.61213,0.10229
578.54060,0.05663
580.46907,0.02736
582.39754,0.06599
584.32600,0.13910
586.25447,0.17747
588.18294,0.16869
590.11141,0.14625
592.03988,0.12600
593.96835,0.10296
595.89682,0.08807
597.82528,0.10023
599.75375,0.12843
601.68222,0.14225
603.61069,0.14738
605.53916,0.15120
607.46763,0.12779
609.39610,0.08922
611.32456,0.07258
613.25303,0.07616
615.18150,0.08291
617.10997,0.08472
619.03844,0.08245
620.96691,0.09365
622.89538,0.11573
624.82385,0.12481
626.75231,0.11503
628.68078,0.10483
630.60925,0.11806
632.53772,0.14268
634.46619,0.14073
636.39466,0.12300
638.32313,0.12257
640.25159,0.12850
642.18006,0.11910
644.10853,0.09969
646.03700,0.09459
647.96547,0.11216
649.89394,0.13208
651.82241,0.15383
653.75088,0.16616
655.67934,0.14101
657.60781,0.10077
659.53628,0.07898
661.46475,0.08320
663.39322,0.10507
665.32169,0.11425
667.25016,0.07939
669.17862,0.04739
671.10709,0.07975
673.03556,0.10797
674.96403,0.11978
676.89250,0.13177
678.82097,0.13171
680.74944,0.11381
682.67791,0.10749
684.60637,0.12508
686.53484,0.13835
688.46331,0.12727
690.39178,0.11772
692.32025,0.13053
694.24872,0.14583
696.17719,0.14796
698.10565,0.14542
700.03412,0.14491
701.96259,0.14426
703.89106,0.13751
705.81953,0.13022
707.74800,0.13526
709.67647,0.14459
711.60494,0.14570
713.53340,0.13958
715.46187,0.13645
717.39034,0.14110
719.31881,0.14166
721.24728,0.13074
723.17575,0.11638
725.10422,0.11581
727.03268,0.12626
728.96115,0.12166
730.88962,0.10657
732.81809,0.10373
734.74656,0.11138
736.67503,0.12030
738.60350,0.12276
740.53197,0.11821
742.46043,0.12101
744.38890,0.12727
746.31737,0.12846
748.24584,0.13497
750.17431,0.14425
752.10278,0.14735
754.03125,0.14163
755.95971,0.13424
757.88818,0.13830
759.81665,0.14545
761.74512,0.14461
763.67359,0.13693
765.60206,0.13062
767.53053,0.13441
769.45900,0.13888
771.38746,0.13565
773.31593,0.13572
775.24440,0.14316
777.17287,0.14707
779.10134,0.14519
781.02981,0.14066
782.95828,0.13275
784.88674,0.13472
786.81521,0.15065
788.74368,0.15346
790.67215,0.13954
792.60062,0.12965
794.52909,0.12378
796.45756,0.12459
798.38602,0.13911
800.31449,0.15416
802.24296,0.15931
804.17143,0.15618
806.09990,0.14810
808.02837,0.13854
809.95684,0.13269
811.88531,0.13557
813.81377,0.14205
815.74224,0.14322
817.67071,0.13804
819.59918,0.13542
821.52765,0.13981
823.45612,0.14026
825.38459,0.13403
827.31305,0.12867
829.24152,0.12379
831.16999,0.12085
833.09846,0.12934
835.02693,0.14555
836.95540,0.14984
838.88387,0.14148
840.81234,0.13636
842.74080,0.14058
844.66927,0.14789
846.59774,0.14881
848.52621,0.14473
850.45468,0.13818
852.38315,0.12679
854.31162,0.11828
856.24008,0.12289
858.16855,0.13138
860.09702,0.12564
862.02549,0.11595
863.95396,0.12098
865.88243,0.13071
867.81090,0.13385
869.73937,0.13612
871.66783,0.14072
873.59630,0.13867
875.52477,0.13098
877.45324,0.13104
879.38171,0.13709
881.31018,0.14286
883.23865,0.14708
885.16711,0.14336
887.09558,0.13518
889.02405,0.13500
890.95252,0.13969
892.88099,0.14200
894.80946,0.14298
896.73793,0.14047
898.66640,0.13766
900.59486,0.13874
902.52333,0.13822
904.45180,0.13904
906.38027,0.14627
908.30874,0.15340
910.23721,0.15437
912.16568,0.14630
914.09414,0.13367
916.02261,0.12835
917.95108,0.13035
919.87955,0.13271
921.80802,0.13793
923.73649,0.14566
925.66496,0.14852
927.59343,0.14582
929.52189,0.14350
931.45036,0.14631
933.37883,0.14877
935.30730,0.14098
937.23577,0.12991
939.16424,0.12390
941.09271,0.11985
943.02117,0.12369
944.94964,0.13531
946.87811,0.14035
948.80658,0.13907
950.73505,0.13924
952.66352,0.13925
954.59199,0.13819
956.52045,0.13858
958.44892,0.14288
960.37739,0.14783
962.30586,0.14447
964.23433,0.13745
966.16280,0.13948
968.09127,0.14602
970.01974,0.14986
971.94820,0.15496
973.87667,0.15720
975.80514,0.15211
977.73361,0.14844
979.66208,0.14808
981.59055,0.14885
983.51902,0.15043
985.44748,0.14626
987.37595,0.13897
989.30442,0.13544
991.23289,0.13706
993.16136,0.14528
995.08983,0.15322
997.01830,0.15307
998.94677,0.14946
1000.87523,0.15064
1002.80370,0.15299
1004.73217,0.15112
1006.66064,0.15217
1008.58911,0.15773
1010.51758,0.16200
1012.44605,0.16215
1014.37451,0.15746
1016.30298,0.15109
1018.23145,0.14629
1020.15992,0.14488
1022.08839,0.14515
1024.01686,0.14161
1025.94533,0.13901
1027.87380,0.14605
1029.80226,0.15312
1031.73073,0.15285
1033.65920,0.15448
1035.58767,0.15776
1037.51614,0.15863
1039.44461,0.16035
1041.37308,0.15985
1043.30154,0.15378
1045.23001,0.15214
1047.15848,0.15830
1049.08695,0.16174
1051.01542,0.15830
1052.94389,0.15175
1054.87236,0.15398
1056.80083,0.16287
1058.72929,0.15936
1060.65776,0.15049
1062.58623,0.15419
1064.51470,0.16414
1066.44317,0.17076
1068.37164,0.17733
1070.30011,0.17654
1072.22857,0.16139
1074.15704,0.14938
1076.08551,0.15181
1078.01398,0.16214
1079.94245,0.16757
1081.87092,0.15909
1083.79939,0.15058
1085.72786,0.15403
1087.65632,0.15753
1089.58479,0.15343
1091.51326,0.14966
1093.44173,0.15404
1095.37020,0.15820
1097.29867,0.15315
1099.22714,0.15194
1101.15560,0.15976
1103.08407,0.15774
1105.01254,0.13148
1106.94101,0.10177
1108.86948,0.10749
1110.79795,0.14146
1112.72642,0.16443
1114.65489,0.16600
1116.58335,0.16012
1118.51182,0.16046
1120.44029,0.16363
1122.36876,0.15690
1124.29723,0.14403
1126.22570,0.13845
1128.15417,0.14200
1130.08263,0.14731
1132.01110,0.14964
1133.93957,0.15064
1135.86804,0.15523
1137.79651,0.16177
1139.72498,0.16590
1141.65345,0.16707
1143.58191,0.16467
1145.51038,0.16158
1147.43885,0.16204
1149.36732,0.16483
1151.29579,0.16314
1153.22426,0.15767
1155.15273,0.15828
1157.08120,0.16308
1159.00966,0.16559
1160.93813,0.16763
1162.86660,0.16924
1164.79507,0.16848
1166.72354,0.16562
1168.65201,0.16198
1170.58048,0.16035
1172.50894,0.16214
1174.43741,0.16343
1176.36588,0.16262
1178.29435,0.16334
1180.22282,0.16358
1182.15129,0.15928
1184.07976,0.15454
1186.00823,0.15485
1187.93669,0.16036
1189.86516,0.16808
1191.79363,0.17003
1193.72210,0.16312
1195.65057,0.15890
1197.57904,0.16387
1199.50751,0.16872
1201.43597,0.16699
1203.36444,0.16457
1205.29291,0.16463
1207.22138,0.16356
1209.14985,0.16158
1211.07832,0.16018
1213.00679,0.16014
1214.93526,0.16285
1216.86372,0.16759
1218.79219,0.17133
1220.72066,0.17050
1222.64913,0.16887
1224.57760,0.17047
1226.50607,0.16845
1228.43454,0.16100
1230.36300,0.15714
1232.29147,0.16049
1234.21994,0.16586
1236.14841,0.16936
1238.07688,0.17149
1240.00535,0.17190
1241.93382,0.17131
1243.86229,0.17107
1245.79075,0.16823
1247.71922,0.16393
1249.64769,0.16325
1251.57616,0.16300
1253.50463,0.16110
1255.43310,0.16184
1257.36157,0.16357
1259.29003,0.16301
1261.21850,0.16322
1263.14697,0.16656
1265.07544,0.16894
1267.00391,0.16730
1268.93238,0.16608
1270.86085,0.16960
1272.78932,0.17392
1274.71778,0.17170
1276.64625,0.16618
1278.57472,0.16595
1280.50319,0.16870
1282.43166,0.17004
1284.36013,0.17152
1286.28860,0.17346
1288.21706,0.17618
1290.14553,0.17712
1292.07400,0.17308
1294.00247,0.17024
1295.93094,0.17178
1297.85941,0.17105
1299.78788,0.16579
1301.71634,0.15841
1303.64481,0.15284
1305.57328,0.15831
1307.50175,0.17291
1309.43022,0.18117
1311.35869,0.18176
1313.28716,0.18222
1315.21563,0.18179
1317.14409,0.18047
1319.07256,0.17930
1321.00103,0.17680
1322.92950,0.17504
1324.85797,0.17438
1326.78644,0.17183
1328.71491,0.16922
1330.64337,0.16798
1332.57184,0.16660
1334.50031,0.16532
1336.42878,0.16505
1338.35725,0.16625
1340.28572,0.16447
1342.21419,0.16067
1344.14266,0.16246
1346.07112,0.16803
1347.99959,0.17181
1349.92806,0.17221
1351.85653,0.17157
1353.78500,0.17176
1355.71347,0.17136
1357.64194,0.17131
1359.57040,0.17348
1361.49887,0.17742
1363.42734,0.17936
1365.35581,0.17685
1367.28428,0.17446
1369.21275,0.17581
1371.14122,0.18127
1373.06969,0.18877
1374.99815,0.19111
1376.92662,0.18610
1378.85509,0.18197
1380.78356,0.17991
1382.71203,0.17633
1384.64050,0.17553
1386.56897,0.17993
1388.49743,0.18086
1390.42590,0.17863
1392.35437,0.18153
1394.28284,0.18837
1396.21131,0.19062
1398.13978,0.18567
1400.06825,0.18070
1401.99672,0.18129
1403.92518,0.18287
1405.85365,0.18104
1407.78212,0.18055
1409.71059,0.18289
1411.63906,0.18379
1413.56753,0.18221
1415.49600,0.18206
1417.42446,0.18691
1419.35293,0.19206
1421.28140,0.19322
1423.20987,0.19264
1425.13834,0.18841
1427.06681,0.18543
1428.99528,0.18940
1430.92375,0.19409
1432.85221,0.19269
1434.78068,0.18954
1436.70915,0.18699
1438.63762,0.18355
1440.56609,0.18205
1442.49456,0.18302
1444.42303,0.18408
1446.35149,0.18594
1448.27996,0.18884
1450.20843,0.18941
1452.13690,0.19018
1454.06537,0.19625
1455.99384,0.20931
1457.92231,0.21631
1459.85077,0.20497
1461.77924,0.19169
1463.70771,0.18238
1465.63618,0.18088
1467.56465,0.18609
1469.49312,0.19494
1471.42159,0.20707
1473.35006,0.21320
1475.27852,0.20630
1477.20699,0.19743
1479.13546,0.19202
1481.06393,0.18792
1482.99240,0.18546
1484.92087,0.18897
1486.84934,0.19746
1488.77780,0.20391
1490.70627,0.20118
1492.63474,0.19587
1494.56321,0.19674
1496.49168,0.20169
1498.42015,0.20051
1500.34862,0.19485
1502.27709,0.19334
1504.20555,0.19922
1506.13402,0.21374
1508.06249,0.21802
1509.99096,0.20740
1511.91943,0.19994
1513.84790,0.20009
1515.77637,0.20622
1517.70483,0.21155
1519.63330,0.21683
1521.56177,0.22018
1523.49024,0.21478
1525.41871,0.20951
1527.34718,0.20421
1529.27565,0.19936
1531.20412,0.20073
1533.13258,0.20563
1535.06105,0.20627
1536.98952,0.20896
1538.91799,0.22085
1540.84646,0.22690
1542.77493,0.21596
1544.70340,0.20748
1546.63186,0.20272
1548.56033,0.19987
1550.48880,0.19771
1552.41727,0.19838
1554.34574,0.20374
1556.27421,0.21288
1558.20268,0.22162
1560.13115,0.21465
1562.05961,0.20640
1563.98808,0.20220
1565.91655,0.19899
1567.84502,0.19884
1569.77349,0.19889
1571.70196,0.19759
1573.63043,0.20094
1575.55889,0.20536
1577.48736,0.19813
1579.41583,0.18629
1581.34430,0.18088
1583.27277,0.18139
1585.20124,0.18153
1587.12971,0.17991
1589.05818,0.18110
1590.98664,0.18540
1592.91511,0.18937
1594.84358,0.19134
1596.77205,0.19159
1598.70052,0.19124
1600.62899,0.19167
1602.55746,0.19192
1604.48592,0.19112
1606.41439,0.19133
1608.34286,0.19201
1610.27133,0.19055
1612.19980,0.18958
1614.12827,0.19431
1616.05674,0.20414
1617.98521,0.20421
1619.91367,0.19628
1621.84214,0.19482
1623.77061,0.19795
1625.69908,0.19879
1627.62755,0.19639
1629.55602,0.19105
1631.48449,0.19087
1633.41295,0.20015
1635.34142,0.21269
1637.26989,0.21195
1639.19836,0.20482
1641.12683,0.20300
1643.05530,0.20681
1644.98377,0.21549
1646.91223,0.22358
1648.84070,0.22200
1650.76917,0.22262
1652.69764,0.22942
1654.62611,0.22318
1656.55458,0.21126
1658.48305,0.20324
1660.41152,0.19902
1662.33998,0.19828
1664.26845,0.19897
1666.19692,0.20202
1668.12539,0.20699
1670.05386,0.21092
1671.98233,0.21138
1673.91080,0.20819
1675.83926,0.20287
1677.76773,0.20202
1679.69620,0.20699
1681.62467,0.21526
1683.55314,0.22311
1685.48161,0.21780
1687.41008,0.20943
1689.33855,0.20764
1691.26701,0.20673
1693.19548,0.20534
1695.12395,0.20858
1697.05242,0.21753
1698.98089,0.22427
1700.90936,0.22633
1702.83783,0.22709
1704.76629,0.22672
1706.69476,0.22113
1708.62323,0.21029
1710.55170,0.19968
1712.48017,0.19523
1714.40864,0.19924
1716.33711,0.20566
1718.26558,0.20099
1720.19404,0.19119
1722.12251,0.18712
1724.05098,0.18803
1725.97945,0.19183
1727.90792,0.19692
1729.83639,0.20214
1731.76486,0.20708
1733.69332,0.20881
1735.62179,0.20419
1737.55026,0.20191
1739.47873,0.20444
1741.40720,0.20652
1743.33567,0.20448
1745.26414,0.20381
1747.19261,0.20792
1749.12107,0.20821
1751.04954,0.19977
1752.97801,0.19493
1754.90648,0.19559
1756.83495,0.19542
1758.76342,0.19466
1760.69189,0.19558
1762.62035,0.19532
1764.54882,0.19503
1766.47729,0.19768
1768.40576,0.20014
1770.33423,0.19952
1772.26270,0.19686
1774.19117,0.19405
1776.11964,0.19321
1778.04810,0.19371
1779.97657,0.19300
1781.90504,0.19258
1783.83351,0.19568
1785.76198,0.19782
1787.69045,0.19654
1789.61892,0.19714
1791.54738,0.20111
1793.47585,0.20214
1795.40432,0.20030
1797.33279,0.20037
1799.26126,0.19883
1801.18973,0.19234
1803.11820,0.18787
1805.04666,0.18917
1806.97513,0.19241
1808.90360,0.19564
1810.83207,0.19740
1812.76054,0.19519
1814.68901,0.19124
1816.61748,0.18817
1818.54595,0.18666
1820.47441,0.18853
1822.40288,0.19257
1824.33135,0.19456
1826.25982,0.19676
1828.18829,0.20386
1830.11676,0.20617
1832.04523,0.19622
1833.97369,0.18834
1835.90216,0.18910
1837.83063,0.19279
1839.75910,0.19570
1841.68757,0.19958
1843.61604,0.20354
1845.54451,0.20276
1847.47298,0.19714
1849.40144,0.19028
1851.32991,0.18720
1853.25838,0.18817
1855.18685,0.18920
1857.11532,0.19155
1859.04379,0.19420
1860.97226,0.19284
1862.90072,0.19002
1864.82919,0.19161
1866.75766,0.19835
1868.68613,0.20244
1870.61460,0.19790
1872.54307,0.19192
1874.47154,0.18872
1876.40001,0.18826
1878.32847,0.18954
1880.25694,0.19105
1882.18541,0.19298
1884.11388,0.19558
1886.04235,0.19852
1887.97082,0.20047
1889.89929,0.19883
1891.82775,0.19499
1893.75622,0.19310
1895.68469,0.19349
1897.61316,0.19359
1899.54163,0.19349
1901.47010,0.19492
1903.39857,0.19570
1905.32704,0.19483
1907.25550,0.19511
1909.18397,0.19559
1911.11244,0.19468
1913.04091,0.19516
1914.96938,0.19721
1916.89785,0.19741
1918.82632,0.19563
1920.75478,0.19586
1922.68325,0.19691
1924.61172,0.19529
1926.54019,0.19319
1928.46866,0.19247
1930.39713,0.19198
1932.32560,0.19123
1934.25407,0.19086
1936.18253,0.19093
1938.11100,0.19155
1940.03947,0.19315
1941.96794,0.19429
1943.89641,0.19337
1945.82488,0.19179
1947.75335,0.19076
1949.68181,0.18957
1951.61028,0.18882
1953.53875,0.19009
1955.46722,0.19226
1957.39569,0.19199
1959.32416,0.19022
1961.25263,0.19137
1963.18110,0.19467
1965.10956,0.19668
1967.03803,0.19620
1968.96650,0.19365
1970.89497,0.19091
1972.82344,0.19061
1974.75191,0.19326
1976.68038,0.19578
1978.60884,0.19703
1980.53731,0.19730
1982.46578,0.19710
1984.39425,0.19722
1986.32272,0.19563
1988.25119,0.19345
1990.17966,0.19359
1992.10812,0.19312
1994.03659,0.19002
1995.96506,0.18829
1997.89353,0.18953
1999.82200,0.19150
2001.75047,0.19327
2003.67894,0.19469
2005.60741,0.19493
2007.53587,0.19353
2009.46434,0.19226
2011.39281,0.19381
2013.32128,0.19756
2015.24975,0.19969
2017.17822,0.19751
2019.10669,0.19432
2021.03515,0.19439
2022.96362,0.19512
2024.89209,0.19369
2026.82056,0.19270
2028.74903,0.19369
2030.67750,0.19563
2032.60597,0.19717
2034.53444,0.19623
2036.46290,0.19368
2038.39137,0.19220
2040.31984,0.19248
2042.24831,0.19441
2044.17678,0.19591
2046.10525,0.19549
2048.03372,0.19531
2049.96218,0.19483
2051.89065,0.19294
2053.81912,0.19395
2055.74759,0.19679
2057.67606,0.19630
2059.60453,0.19312
2061.53300,0.18978
2063.46147,0.18917
2065.38993,0.19140
2067.31840,0.19357
2069.24687,0.19540
2071.17534,0.19601
2073.10381,0.19499
2075.03228,0.19617
2076.96075,0.19899
2078.88921,0.19830
2080.81768,0.19618
2082.74615,0.19613
2084.67462,0.19574
2086.60309,0.19355
2088.53156,0.19161
2090.46003,0.19244
2092.38850,0.19459
2094.31696,0.19465
2096.24543,0.19311
2098.17390,0.19121
2100.10237,0.18929
2102.03084,0.18855
2103.95931,0.18923
2105.88778,0.19086
2107.81624,0.19277
2109.74471,0.19439
2111.67318,0.19541
2113.60165,0.19545
2115.53012,0.19582
2117.45859,0.19677
2119.38706,0.19746
2121.31553,0.19829
2123.24399,0.19828
2125.17246,0.19711
2127.10093,0.19601
2129.02940,0.19539
2130.95787,0.19488
2132.88634,0.19354
2134.81481,0.19206
2136.74327,0.19250
2138.67174,0.19504
2140.60021,0.19757
2142.52868,0.19860
2144.45715,0.19907
2146.38562,0.19918
2148.31409,0.19772
2150.24255,0.19631
2152.17102,0.19630
2154.09949,0.19518
2156.02796,0.19279
2157.95643,0.19232
2159.88490,0.19371
2161.81337,0.19514
2163.74184,0.19729
2165.67030,0.20058
2167.59877,0.20270
2169.52724,0.20216
2171.45571,0.20046
2173.38418,0.19785
2175.31265,0.19447
2177.24112,0.19363
2179.16958,0.19555
2181.09805,0.19595
2183.02652,0.19451
2184.95499,0.19515
2186.88346,0.19720
2188.81193,0.19747
2190.74040,0.19662
2192.66887,0.19587
2194.59733,0.19499
2196.52580,0.19510
2198.45427,0.19699
2200.38274,0.19765
2202.31121,0.19577
2204.23968,0.19523
2206.16815,0.19672
2208.09661,0.19687
2210.02508,0.19554
2211.95355,0.19459
2213.88202,0.19421
2215.81049,0.19412
2217.73896,0.19429
2219.66743,0.19445
2221.59590,0.19454
2223.52436,0.19458
2225.45283,0.19376
2227.38130,0.19241
2229.30977,0.19188
2231.23824,0.19225
2233.16671,0.19434
2235.09518,0.19811
2237.02364,0.20106
2238.95211,0.20112
2240.88058,0.19825
2242.80905,0.19501
2244.73752,0.19275
2246.66599,0.19156
2248.59446,0.19231
2250.52293,0.19398
2252.45139,0.19578
2254.37986,0.19769
2256.30833,0.19790
2258.23680,0.19635
2260.16527,0.19471
2262.09374,0.19384
2264.02221,0.19381
2265.95067,0.19315
2267.87914,0.19227
2269.80761,0.19244
2271.73608,0.19244
2273.66455,0.19248
2275.59302,0.19402
2277.52149,0.19696
2279.44996,0.19915
2281.37842,0.19902
2283.30689,0.19674
2285.23536,0.19321
2287.16383,0.19126
2289.09230,0.19056
2291.02077,0.18945
2292.94924,0.19010
2294.87770,0.19021
2296.80617,0.18607
2298.73464,0.18078
2300.66311,0.17864
2302.59158,0.17973
2304.52005,0.17914
2306.44852,0.17547
2308.37699,0.17411
2310.30545,0.17668
2312.23392,0.18147
2314.16239,0.18541
2316.09086,0.18414
2318.01933,0.17975
2319.94780,0.17561
2321.87627,0.17285
2323.80473,0.17301
2325.73320,0.16875
2327.66167,0.15363
2329.59014,0.14002
2331.51861,0.14549
2333.44708,0.16148
2335.37555,0.16783
2337.30401,0.16749
2339.23248,0.16676
2341.16095,0.16270
2343.08942,0.15567
2345.01789,0.15015
2346.94636,0.15457
2348.87483,0.16503
2350.80330,0.17475
2352.73176,0.18062
2354.66023,0.17558
2356.58870,0.15421
2358.51717,0.12898
2360.44564,0.12021
2362.37411,0.12895
2364.30258,0.14435
2366.23104,0.15032
2368.15951,0.14388
2370.08798,0.14582
2372.01645,0.16085
2373.94492,0.17303
2375.87339,0.17533
2377.80186,0.17498
2379.73033,0.17889
2381.65879,0.18688
2383.58726,0.19435
2385.51573,0.19664
2387.44420,0.19439
2389.37267,0.19255
2391.30114,0.19346
2393.22961,0.19540
2395.15807,0.19729
2397.08654,0.19926
2399.01501,0.20021
2400.94348,0.19980
2402.87195,0.19856
2404.80042,0.19656
2406.72889,0.19453
2408.65736,0.19341
2410.58582,0.19404
2412.51429,0.19650
2414.44276,0.19871
2416.37123,0.19821
2418.29970,0.19658
2420.22817,0.19779
2422.15664,0.20061
2424.08510,0.20120
2426.01357,0.20044
2427.94204,0.19986
2429.87051,0.19855
2431.79898,0.19679
2433.72745,0.19542
2435.65592,0.19522
2437.58439,0.19647
2439.51285,0.19797
2441.44132,0.19890
2443.36979,0.19906
2445.29826,0.19906
2447.22673,0.19813
2449.15520,0.19585
2451.08367,0.19562
2453.01213,0.19809
2454.94060,0.19989
2456.86907,0.20073
2458.79754,0.20253
2460.72601,0.20315
2462.65448,0.20119
2464.58295,0.20110
2466.51142,0.20421
2468.43988,0.20401
2470.36835,0.19783
2472.29682,0.19346
2474.22529,0.19528
2476.15376,0.19925
2478.08223,0.20183
2480.01070,0.20236
2481.93916,0.20272
2483.86763,0.20365
2485.79610,0.20228
2487.72457,0.19878
2489.65304,0.19838
2491.58151,0.20090
2493.50998,0.20039
2495.43844,0.19766
2497.36691,0.19751
2499.29538,0.20028
2501.22385,0.20294
2503.15232,0.20225
2505.08079,0.19983
2507.00926,0.19866
2508.93773,0.19812
2510.86619,0.19823
2512.79466,0.19843
2514.72313,0.19760
2516.65160,0.19707
2518.58007,0.19840
2520.50854,0.20062
2522.43701,0.20080
2524.36547,0.19888
2526.29394,0.19761
2528.22241,0.19837
2530.15088,0.20070
2532.07935,0.20337
2534.00782,0.20373
2535.93629,0.20018
2537.86476,0.19695
2539.79322,0.19841
2541.72169,0.20314
2543.65016,0.20664
2545.57863,0.20510
2547.50710,0.20072
2549.43557,0.19844
2551.36404,0.19850
2553.29250,0.19961
2555.22097,0.19988
2557.14944,0.19741
2559.07791,0.19567
2561.00638,0.19782
2562.93485,0.20018
2564.86332,0.19967
2566.79179,0.19843
2568.72025,0.19778
2570.64872,0.19781
2572.57719,0.19912
2574.50566,0.19991
2576.43413,0.19973
2578.36260,0.20068
2580.29107,0.20239
2582.21953,0.20255
2584.14800,0.20113
2586.07647,0.20071
2588.00494,0.20212
2589.93341,0.20275
2591.86188,0.20149
2593.79035,0.20108
2595.71882,0.20184
2597.64728,0.20122
2599.57575,0.19901
2601.50422,0.19777
2603.43269,0.19888
2605.36116,0.19970
2607.28963,0.19937
2609.21810,0.20038
2611.14656,0.20196
2613.07503,0.20230
2615.00350,0.20212
2616.93197,0.20123
2618.86044,0.20002
2620.78891,0.20026
2622.71738,0.20166
2624.64585,0.20387
2626.57431,0.20566
2628.50278,0.20530
2630.43125,0.20442
2632.35972,0.20469
2634.28819,0.20438
2636.21666,0.20182
2638.14513,0.19970
2640.07359,0.19967
2642.00206,0.20019
2643.93053,0.20166
2645.85900,0.20266
2647.78747,0.20130
2649.71594,0.20028
2651.64441,0.20073
2653.57288,0.20108
2655.50134,0.20139
2657.42981,0.20108
2659.35828,0.19958
2661.28675,0.19874
2663.21522,0.19777
2665.14369,0.19638
2667.07216,0.19847
2669.00062,0.20351
2670.92909,0.20740
2672.85756,0.20929
2674.78603,0.20997
2676.71450,0.20914
2678.64297,0.20679
2680.57144,0.20499
2682.49990,0.20395
2684.42837,0.20214
2686.35684,0.20053
2688.28531,0.20032
2690.21378,0.20133
2692.14225,0.20304
2694.07072,0.20460
2695.99919,0.20517
2697.92765,0.20587
2699.85612,0.20746
2701.78459,0.20805
2703.71306,0.20709
2705.64153,0.20509
2707.57000,0.20491
2709.49847,0.20856
2711.42693,0.21026
2713.35540,0.20710
2715.28387,0.20417
2717.21234,0.20427
2719.14081,0.20557
2721.06928,0.20624
2722.99775,0.20560
2724.92622,0.20468
2726.85468,0.20605
2728.78315,0.20917
2730.71162,0.21119
2732.64009,0.21097
2734.56856,0.20897
2736.49703,0.20749
2738.42550,0.20841
2740.35396,0.21136
2742.28243,0.21448
2744.21090,0.21431
2746.13937,0.20980
2748.06784,0.20530
2749.99631,0.20490
2751.92478,0.20728
2753.85325,0.20912
2755.78171,0.20974
2757.71018,0.20956
2759.63865,0.20834
2761.56712,0.20808
2763.49559,0.21131
2765.42406,0.21428
2767.35253,0.21247
2769.28099,0.20968
2771.20946,0.21003
2773.13793,0.21178
2775.06640,0.21215
2776.99487,0.21189
2778.92334,0.21351
2780.85181,0.21381
2782.78028,0.21071
2784.70874,0.20987
2786.63721,0.21257
2788.56568,0.21468
2790.49415,0.21432
2792.42262,0.21168
2794.35109,0.21049
2796.27956,0.21350
2798.20802,0.21683
2800.13649,0.21763
2802.06496,0.21809
2803.99343,0.22002
2805.92190,0.22167
2807.85037,0.22171
2809.77884,0.22108
2811.70731,0.21842
2813.63577,0.21382
2815.56424,0.21080
2817.49271,0.20949
2819.42118,0.20818
2821.34965,0.20816
2823.27812,0.21075
2825.20659,0.21399
2827.13505,0.21473
2829.06352,0.21341
2830.99199,0.21344
2832.92046,0.21468
2834.84893,0.21553
2836.77740,0.21583
2838.70587,0.21574
2840.63433,0.21707
2842.56280,0.21847
2844.49127,0.21657
2846.41974,0.21447
2848.34821,0.21548
2850.27668,0.21679
2852.20515,0.21743
2854.13362,0.21848
2856.06208,0.21990
2857.99055,0.22198
2859.91902,0.22168
2861.84749,0.21795
2863.77596,0.21478
2865.70443,0.21229
2867.63290,0.21047
2869.56136,0.21222
2871.48983,0.21641
2873.41830,0.21895
2875.34677,0.21923
2877.27524,0.22044
2879.20371,0.22222
2881.13218,0.21986
2883.06065,0.21405
2884.98911,0.21001
2886.91758,0.21019
2888.84605,0.21480
2890.77452,0.21967
2892.70299,0.22013
2894.63146,0.21963
2896.55993,0.22014
2898.48839,0.21741
2900.41686,0.21190
2902.34533,0.20879
2904.27380,0.21009
2906.20227,0.21251
2908.13074,0.21353
2910.05921,0.21503
2911.98768,0.21660
2913.91614,0.21408
2915.84461,0.20986
2917.77308,0.21006
2919.70155,0.21149
2921.63002,0.21117
2923.55849,0.21231
2925.48696,0.21110
2927.41542,0.20702
2929.34389,0.20944
2931.27236,0.21574
2933.20083,0.21720
2935.12930,0.21391
2937.05777,0.20866
2938.98624,0.20660
2940.91471,0.20812
2942.84317,0.20809
2944.77164,0.20511
2946.70011,0.19940
2948.62858,0.19663
2950.55705,0.20208
2952.48552,0.20997
2954.41399,0.21297
2956.34245,0.20875
2958.27092,0.20318
2960.19939,0.20560
2962.12786,0.21372
2964.05633,0.21940
2965.98480,0.22020
2967.91327,0.21841
2969.84174,0.21778
2971.77020,0.21728
2973.69867,0.21716
2975.62714,0.21853
2977.55561,0.21697
2979.48408,0.21567
2981.41255,0.22093
2983.34102,0.22805
2985.26948,0.22843
2987.19795,0.22215
2989.12642,0.21857
2991.05489,0.22134
2992.98336,0.22466
2994.91183,0.22439
2996.84030,0.22160
2998.76877,0.22025
3000.69723,0.22146
3002.62570,0.22020
3004.55417,0.21469
3006.48264,0.21112
3008.41111,0.21248
3010.33958,0.21205
3012.26805,0.20217
3014.19651,0.18231
3016.12498,0.16413
3018.05345,0.16871
3019.98192,0.19350
3021.91039,0.21067
3023.83886,0.21367
3025.76733,0.21523
3027.69579,0.21765
3029.62426,0.22119
3031.55273,0.22846
3033.48120,0.23169
3035.40967,0.22597
3037.33814,0.21999
3039.26661,0.22058
3041.19508,0.22461
3043.12354,0.22594
3045.05201,0.22259
3046.98048,0.21817
3048.90895,0.21746
3050.83742,0.21856
3052.76589,0.21886
3054.69436,0.21654
3056.62282,0.20965
3058.55129,0.20522
3060.47976,0.20633
3062.40823,0.20996
3064.33670,0.21331
3066.26517,0.21222
3068.19364,0.21156
3070.12211,0.21470
3072.05057,0.21712
3073.97904,0.21682
3075.90751,0.21520
3077.83598,0.21652
3079.76445,0.21913
3081.69292,0.21735
3083.62139,0.21139
3085.54985,0.20627
3087.47832,0.20858
3089.40679,0.21687
3091.33526,0.22028
3093.26373,0.21353
3095.19220,0.20760
3097.12067,0.21418
3099.04914,0.22445
3100.97760,0.22303
3102.90607,0.21121
3104.83454,0.20651
3106.76301,0.21465
3108.69148,0.22105
3110.61995,0.21792
3112.54842,0.21156
3114.47688,0.21037
3116.40535,0.21484
3118.33382,0.21870
3120.26229,0.21840
3122.19076,0.21563
3124.11923,0.21536
3126.04770,0.21747
3127.97617,0.22062
3129.90463,0.22587
3131.83310,0.22762
3133.76157,0.22251
3135.69004,0.21763
3137.61851,0.21766
3139.54698,0.22167
3141.47545,0.22686
3143.40391,0.22844
3145.33238,0.22928
3147.26085,0.23250
3149.18932,0.23167
3151.11779,0.22780
3153.04626,0.22799
3154.97473,0.22962
3156.90320,0.22664
3158.83166,0.22228
3160.76013,0.22305
3162.68860,0.22837
3164.61707,0.23407
3166.54554,0.23683
3168.47401,0.23595
3170.40248,0.23268
3172.33094,0.22809
3174.25941,0.22464
3176.18788,0.22531
3178.11635,0.22981
3180.04482,0.23536
3181.97329,0.23979
3183.90176,0.24127
3185.83022,0.23773
3187.75869,0.23111
3189.68716,0.22911
3191.61563,0.23184
3193.54410,0.23256
3195.47257,0.23238
3197.40104,0.23091
3199.32951,0.22416
3201.25797,0.21746
3203.18644,0.21944
3205.11491,0.22910
3207.04338,0.23483
3208.97185,0.23218
3210.90032,0.22800
3212.82879,0.22607
3214.75725,0.22607
3216.68572,0.22502
3218.61419,0.22258
3220.54266,0.22448
3222.47113,0.22935
3224.39960,0.22961
3226.32807,0.22554
3228.25654,0.22320
3230.18500,0.22377
3232.11347,0.22405
3234.04194,0.22377
3235.97041,0.22585
3237.89888,0.23013
3239.82735,0.23311
3241.75582,0.23356
3243.68428,0.23363
3245.61275,0.23532
3247.54122,0.23586
3249.46969,0.23105
3251.39816,0.22361
3253.32663,0.22021
3255.25510,0.22256
3257.18357,0.22504
3259.11203,0.22321
3261.04050,0.22040
3262.96897,0.21784
3264.89744,0.21367
3266.82591,0.21214
3268.75438,0.21606
3270.68285,0.22087
3272.61131,0.22111
3274.53978,0.21973
3276.46825,0.22369
3278.39672,0.22922
3280.32519,0.22972
3282.25366,0.22562
3284.18213,0.22081
3286.11060,0.21655
3288.03906,0.21214
3289.96753,0.21199
3291.89600,0.21733
3293.82447,0.22320
3295.75294,0.22659
3297.68141,0.22638
3299.60988,0.22379
3301.53834,0.22339
3303.46681,0.22635
3305.39528,0.22696
3307.32375,0.22338
3309.25222,0.22078
3311.18069,0.22176
3313.10916,0.22416
3315.03763,0.22417
3316.96609,0.21867
3318.89456,0.21317
3320.82303,0.21564
3322.75150,0.21957
3324.67997,0.21915
3326.60844,0.22130
3328.53691,0.22686
3330.46537,0.22872
3332.39384,0.22689
3334.32231,0.22631
3336.25078,0.22800
3338.17925,0.23216
3340.10772,0.23583
3342.03619,0.23376
3343.96466,0.23028
3345.89312,0.23164
3347.82159,0.23159
3349.75006,0.22636
3351.67853,0.22282
3353.60700,0.22176
3355.53547,0.22065
3357.46394,0.22152
3359.39240,0.22496
3361.32087,0.22767
3363.24934,0.22736
3365.17781,0.22541
3367.10628,0.22486
3369.03475,0.22723
3370.96322,0.22720
3372.89168,0.22589
3374.82015,0.22851
3376.74862,0.22850
3378.67709,0.22565
3380.60556,0.22562
3382.53403,0.22535
3384.46250,0.22340
3386.39097,0.22273
3388.31943,0.22374
3390.24790,0.22505
3392.17637,0.22586
3394.10484,0.22727
3396.03331,0.23003
3397.96178,0.23046
3399.89025,0.22746
3401.81871,0.22562
3403.74718,0.22590
3405.67565,0.22372
3407.60412,0.21867
3409.53259,0.21546
3411.46106,0.21430
3413.38953,0.21574
3415.31800,0.22011
3417.24646,0.22217
3419.17493,0.22230
3421.10340,0.22478
3423.03187,0.22740
3424.96034,0.22710
3426.88881,0.22470
3428.81728,0.22108
3430.74574,0.21653
3432.67421,0.21202
3434.60268,0.20801
3436.53115,0.20703
3438.45962,0.21063
3440.38809,0.21430
3442.31656,0.21519
3444.24503,0.21298
3446.17349,0.20878
3448.10196,0.20812
3450.03043,0.21169
3451.95890,0.21495
3453.88737,0.21470
3455.81584,0.21027
3457.74431,0.20373
3459.67277,0.19889
3461.60124,0.20130
3463.52971,0.20624
3465.45818,0.20335
3467.38665,0.19751
3469.31512,0.19735
3471.24359,0.19959
3473.17206,0.19855
3475.10052,0.19674
3477.02899,0.19915
3478.95746,0.20311
3480.88593,0.20390
3482.81440,0.20186
3484.74287,0.20074
3486.67134,0.20331
3488.59980,0.20529
3490.52827,0.20220
3492.45674,0.19760
3494.38521,0.19618
3496.31368,0.19961
3498.24215,0.20367
3500.17062,0.20328
3502.09909,0.19893
3504.02755,0.19258
3505.95602,0.18757
3507.88449,0.18677
3509.81296,0.18864
3511.74143,0.18918
3513.66990,0.18882
3515.59837,0.19042
3517.52683,0.19141
3519.45530,0.18927
3521.38377,0.18613
3523.31224,0.18415
3525.24071,0.18595
3527.16918,0.19039
3529.09765,0.18995
3531.02611,0.18186
3532.95458,0.17321
3534.88305,0.17291
3536.81152,0.18164
3538.73999,0.18896
3540.66846,0.18923
3542.59693,0.18829
3544.52540,0.18744
3546.45386,0.18244
3548.38233,0.18047
3550.31080,0.18518
3552.23927,0.18631
3554.16774,0.18226
3556.09621,0.18140
3558.02468,0.18270
3559.95314,0.18159
3561.88161,0.17937
3563.81008,0.17938
3565.73855,0.18174
3567.66702,0.18142
3569.59549,0.17691
3571.52396,0.17311
3573.45243,0.17079
3575.38089,0.16861
3577.30936,0.16715
3579.23783,0.16723
3581.16630,0.16715
3583.09477,0.16612
3585.02324,0.16455
3586.95171,0.16476
3588.88017,0.16695
3590.80864,0.16658
3592.73711,0.16678
3594.66558,0.17041
3596.59405,0.17527
3598.52252,0.17697
3600.45099,0.16993
3602.37946,0.15995
3604.30792,0.15835
3606.23639,0.16231
3608.16486,0.16222
3610.09333,0.16110
3612.02180,0.16679
3613.95027,0.17246
3615.87874,0.17402
3617.80720,0.17450
3619.73567,0.16908
3621.66414,0.16098
3623.59261,0.15862
3625.52108,0.15956
3627.44955,0.15961
3629.37802,0.15686
3631.30649,0.15454
3633.23495,0.15303
3635.16342,0.15064
3637.09189,0.14810
3639.02036,0.14542
3640.94883,0.14352
3642.87730,0.14392
3644.80577,0.14870
3646.73423,0.16143
3648.66270,0.17387
3650.59117,0.16426
3652.51964,0.15179
3654.44811,0.15005
3656.37658,0.15340
3658.30505,0.15333
3660.23352,0.14876
3662.16198,0.14412
3664.09045,0.13997
3666.01892,0.13732
3667.94739,0.14318
3669.87586,0.15692
3671.80433,0.16054
3673.73280,0.15659
3675.66126,0.15119
3677.58973,0.14607
3679.51820,0.14604
3681.44667,0.14701
3683.37514,0.14606
3685.30361,0.14647
3687.23208,0.15009
3689.16055,0.15202
3691.08901,0.14995
3693.01748,0.14883
3694.94595,0.14501
3696.87442,0.13796
3698.80289,0.13685
3700.73136,0.14239
3702.65983,0.14430
3704.58829,0.14381
3706.51676,0.14627
3708.44523,0.14972
3710.37370,0.15057
3712.30217,0.14449
3714.23064,0.13778
3716.15911,0.13646
3718.08757,0.14062
3720.01604,0.14730
3721.94451,0.14593
3723.87298,0.13443
3725.80145,0.12937
3727.72992,0.13628
3729.65839,0.14683
3731.58686,0.15899
3733.51532,0.16275
3735.44379,0.15077
3737.37226,0.14821
3739.30073,0.15721
3741.22920,0.16220
3743.15767,0.15867
3745.08614,0.15080
3747.01460,0.14740
3748.94307,0.14560
3750.87154,0.14157
3752.80001,0.13881
3754.72848,0.13928
3756.65695,0.14016
3758.58542,0.14063
3760.51389,0.14212
3762.44235,0.14443
3764.37082,0.14383
3766.29929,0.14139
3768.22776,0.14388
3770.15623,0.14725
3772.08470,0.14270
3774.01317,0.13447
3775.94163,0.12786
3777.87010,0.12523
3779.79857,0.12784
3781.72704,0.13094
3783.65551,0.13222
3785.58398,0.13461
3787.51245,0.13629
3789.44092,0.13505
3791.36938,0.13266
3793.29785,0.13204
3795.22632,0.13364
3797.15479,0.13451
3799.08326,0.13571
3801.01173,0.13925
3802.94020,0.13882
3804.86866,0.13615
3806.79713,0.13631
3808.72560,0.13737
3810.65407,0.13786
3812.58254,0.13679
3814.51101,0.13380
3816.43948,0.13508
3818.36795,0.14438
3820.29641,0.15235
3822.22488,0.14657
3824.15335,0.13598
3826.08182,0.13160
3828.01029,0.12926
3829.93876,0.12539
3831.86723,0.12406
3833.79569,0.12804
3835.72416,0.13627
3837.65263,0.14758
3839.58110,0.15316
3841.50957,0.14825
3843.43804,0.13935
3845.36651,0.13300
3847.29498,0.13221
3849.22344,0.13643
3851.15191,0.14463
3853.08038,0.15088
3855.00885,0.14097
3856.93732,0.12903
3858.86579,0.12526
3860.79426,0.12852
3862.72272,0.13388
3864.65119,0.13515
3866.57966,0.13383
3868.50813,0.13388
3870.43660,0.13432
3872.36507,0.13319
3874.29354,0.12927
3876.22200,0.12449
3878.15047,0.12222
3880.07894,0.12193
3882.00741,0.12458
3883.93588,0.13078
3885.86435,0.13178
3887.79282,0.12327
3889.72129,0.11554
3891.64975,0.11333
3893.57822,0.11630
3895.50669,0.12077
3897.43516,0.12391
3899.36363,0.12694
3901.29210,0.13232
3903.22057,0.14039
3905.14903,0.14350
3907.07750,0.13419
3909.00597,0.12364
3910.93444,0.12128
3912.86291,0.12463
3914.79138,0.12799
3916.71985,0.12716
3918.64832,0.12474
3920.57678,0.12664
3922.50525,0.12859
3924.43372,0.12665
3926.36219,0.12542
3928.29066,0.12671
3930.21913,0.12852
3932.14760,0.13000
3934.07606,0.12751
3936.00453,0.12139
3937.93300,0.11581
3939.86147,0.11152
3941.78994,0.10847
3943.71841,0.10747
3945.64688,0.10966
3947.57535,0.11699
3949.50381,0.12294
3951.43228,0.11836
3953.36075,0.11147
3955.28922,0.11141
3957.21769,0.11592
3959.14616,0.11891
3961.07463,0.11867
3963.00309,0.11981
3964.93156,0.11988
3966.86003,0.11252
3968.78850,0.10568
3970.71697,0.10853
3972.64544,0.11528
3974.57391,0.11927
3976.50238,0.11943
3978.43084,0.11614
3980.35931,0.11169
3982.28778,0.10773
3984.21625,0.10684
3986.14472,0.10940
3988.07319,0.11210
3990.00166,0.11287
3991.93012,0.11139
3993.85859,0.11142
3995.78706,0.11565
3997.71553,0.11847
3999.64400,0.11593
4001.57247,0.11204
4003.50094,0.10809
4005.42941,0.10293
4007.35787,0.10370
4009.28634,0.11283
4011.21481,0.11854
4013.14328,0.11666
4015.07175,0.11386
4017.00022,0.11186
4018.92869,0.10913
4020.85715,0.10601
4022.78562,0.10448
4024.71409,0.10440
4026.64256,0.10227
4028.57103,0.09979
4030.49950,0.10166
4032.42797,0.10648
4034.35644,0.10979
4036.28490,0.10964
4038.21337,0.10584
4040.14184,0.10100
4042.07031,0.10043
4043.99878,0.10404
4045.92725,0.10664
4047.85572,0.10688
4049.78418,0.10853
4051.71265,0.11371
4053.64112,0.11600
4055.56959,0.11332
4057.49806,0.11304
4059.42653,0.11204
4061.35500,0.10515
4063.28346,0.09835
4065.21193,0.09489
4067.14040,0.09564
4069.06887,0.10082
4070.99734,0.10543
4072.92581,0.10847
4074.85428,0.11126
4076.78275,0.11191
4078.71121,0.11077
4080.63968,0.10887
4082.56815,0.10676
4084.49662,0.10349
4086.42509,0.09862
4088.35356,0.09874
4090.28203,0.10495
4092.21049,0.10820
4094.13896,0.10651
4096.06743,0.10267
4097.99590,0.09760
4099.92437,0.09626
4101.85284,0.10020
4103.78131,0.10342
4105.70978,0.10403
4107.63824,0.10430
4109.56671,0.10257
4111.49518,0.09752
4113.42365,0.09249
4115.35212,0.09044
4117.28059,0.09138
4119.20906,0.09395
4121.13752,0.09908
4123.06599,0.10254
4124.99446,0.09627
4126.92293,0.08705
4128.85140,0.08233
4130.77987,0.08041
4132.70834,0.08285
4134.63681,0.08833
4136.56527,0.09162
4138.49374,0.09117
4140.42221,0.08938
4142.35068,0.08670
4144.27915,0.08374
4146.20762,0.08276
4148.13609,0.08278
4150.06455,0.08473
4151.99302,0.08730
4153.92149,0.08768
4155.84996,0.08468
4157.77843,0.07939
4159.70690,0.08140
4161.63537,0.09016
4163.56384,0.09498
4165.49230,0.09268
4167.42077,0.08272
4169.34924,0.07178
4171.27771,0.07025
4173.20618,0.07419
4175.13465,0.07789
4177.06312,0.08393
4178.99158,0.08887
4180.92005,0.08994
4182.84852,0.09040
4184.77699,0.08759
4186.70546,0.08023
4188.63393,0.07629
4190.56240,0.07834
4192.49087,0.07836
4194.41933,0.07635
4196.34780,0.07711
4198.27627,0.07795
4200.20474,0.07810
4202.13321,0.07858
4204.06168,0.07847
4205.99015,0.07960
4207.91861,0.08298
4209.84708,0.08458
4211.77555,0.08333
4213.70402,0.08233
4215.63249,0.07942
4217.56096,0.07516
4219.48943,0.07454
4221.41789,0.07446
4223.34636,0.07264
4225.27483,0.07263
4227.20330,0.07275
4229.13177,0.07082
4231.06024,0.07000
4232.98871,0.07517
4234.91718,0.08465
4236.84564,0.08712
4238.77411,0.07956
4240.70258,0.07054
4242.63105,0.06419
4244.55952,0.06219
4246.48799,0.06756
4248.41646,0.07582
4250.34492,0.07862
4252.27339,0.07682
4254.20186,0.07558
4256.13033,0.07547
4258.05880,0.07493
4259.98727,0.07355
4261.91574,0.07178
4263.84421,0.06991
4265.77267,0.06780
4267.70114,0.06529
4269.62961,0.06156
4271.55808,0.05855
4273.48655,0.06167
4275.41502,0.06749
4277.34349,0.06992
4279.27195,0.07243
4281.20042,0.07380
4283.12889,0.07066
4285.05736,0.06926
4286.98583,0.07128
4288.91430,0.07028
4290.84277,0.06510
4292.77124,0.06235
4294.69970,0.06709
4296.62817,0.07122
4298.55664,0.06761
4300.48511,0.06468
4302.41358,0.06608
4304.34205,0.06810
4306.27052,0.06842
4308.19898,0.06375
4310.12745,0.05768
4312.05592,0.05651
4313.98439,0.05926
4315.91286,0.06219
4317.84133,0.06455
4319.76980,0.06639
4321.69827,0.06581
4323.62673,0.06231
4325.55520,0.05727
4327.48367,0.05300
4329.41214,0.05102
4331.34061,0.04981
4333.26908,0.04727
4335.19755,0.04410
4337.12601,0.04101
4339.05448,0.03913
4340.98295,0.04122
4342.91142,0.04370
4344.83989,0.04495
4346.76836,0.05066
4348.69683,0.05787
4350.62530,0.05937
4352.55376,0.05574
4354.48223,0.05013
4356.41070,0.04449
4358.33917,0.04201
4360.26764,0.04200
4362.19611,0.03931
4364.12458,0.03948
4366.05304,0.04870
4367.98151,0.05566
4369.90998,0.05125
4371.83845,0.04076
4373.76692,0.03480
4375.69539,0.03865
4377.62386,0.04443
4379.55232,0.04321
4381.48079,0.04011
4383.40926,0.04197
4385.33773,0.04446
4387.26620,0.04586
4389.19467,0.05055
4391.12314,0.05618
4393.05161,0.05597
4394.98007,0.05207
4396.90854,0.05051
4398.83701,0.04638
4400.76548,0.04078
4402.69395,0.04149
4404.62242,0.04060
4406.55089,0.03482
4408.47935,0.03481
4410.40782,0.03728
4412.33629,0.03431
4414.26476,0.03721
4416.19323,0.05031
4418.12170,0.05807
4420.05017,0.05304
4421.97864,0.04138
4423.90710,0.03326
4425.83557,0.03248
4427.76404,0.03253
4429.69251,0.03271
4431.62098,0.03375
4433.54945,0.03127
4435.47792,0.02941
4437.40638,0.03203
4439.33485,0.03594
4441.26332,0.03642
4443.19179,0.03300
4445.12026,0.03096
4447.04873,0.03059
4448.97720,0.03038
4450.90567,0.02832
4452.83413,0.02391
4454.76260,0.02371
4456.69107,0.02507
4458.61954,0.01856
4460.54801,0.01003
4462.47648,0.01193
4464.40495,0.02212
4466.33341,0.03083
4468.26188,0.03381
4470.19035,0.03319
4472.11882,0.03172
4474.04729,0.03090
4475.97576,0.03352
4477.90423,0.03346
4479.83270,0.02362
4481.76116,0.01519
4483.68963,0.01873
4485.61810,0.02670
4487.54657,0.02973
4489.47504,0.02782
4491.40351,0.02490
4493.33198,0.02246
4495.26044,0.02103
4497.18891,0.02308
4499.11738,0.02635
4501.04585,0.02728
4502.97432,0.02670
4504.90279,0.02565
4506.83126,0.02516
4508.75973,0.02326
4510.68819,0.01774
4512.61666,0.01360
4514.54513,0.01452
4516.47360,0.01661
4518.40207,0.01699
4520.33054,0.01691
4522.25901,0.01679
4524.18747,0.01558
4526.11594,0.01519
4528.04441,0.01508
4529.97288,0.00965
4531.90135,0.00296
4533.82982,0.00546
4535.75829,0.01272
4537.68676,0.01234
4539.61522,0.01067
4541.54369,0.02036
4543.47216,0.02826
4545.40063,0.01966
4547.32910,0.00638
4549.25757,-0.00094
4551.18604,-0.00118
4553.11450,0.01100
4555.04297,0.02546
4556.97144,0.02467
4558.89991,0.01626
4560.82838,0.01804
4562.75685,0.02809
4564.68532,0.02949
4566.61378,0.01590
4568.54225,-0.00052
4570.47072,-0.00692
4572.39919,-0.00197
4574.32766,0.00615
4576.25613,0.00765
4578.18460,0.00344
4580.11307,0.00533
4582.04153,0.01330
4583.97000,0.01448
4585.89847,0.01008
4587.82694,0.01040
4589.75541,0.01625
4591.68388,0.02182
4593.61235,0.01994
4595.54081,0.01297
4597.46928,0.00786
4599.39775,0.00334
4601.32622,0.00408
4603.25469,0.01226
4605.18316,0.01555
4607.11163,0.01231
4609.04010,0.01452
4610.96856,0.02457
4612.89703,0.03283
4614.82550,0.03306
4616.75397,0.02436
4618.68244,0.00863
4620.61091,-0.00246
4622.53938,-0.00303
4624.46784,0.00104
4626.39631,0.00668
4628.32478,0.00993
4630.25325,0.01002
4632.18172,0.00811
4634.11019,0.00384
4636.03866,0.00373
4637.96713,0.00618
4639.89559,0.00955
4641.82406,0.02042
4643.75253,0.02976
4645.68100,0.02753
4647.60947,0.01877
4649.53794,0.01173
4651.46641,0.01085
4653.39487,0.01203
4655.32334,0.01018
4657.25181,0.00396
4659.18028,-0.00380
4661.10875,-0.00368
4663.03722,0.00226
4664.96569,0.00420
4666.89416,0.00494
4668.82262,0.00611
4670.75109,0.00536
4672.67956,0.00488
4674.60803,0.00888
4676.53650,0.01488
4678.46497,0.01582
4680.39344,0.01120
4682.32190,0.00375
4684.25037,-0.00225
4686.17884,-0.00057
4688.10731,0.00126
4690.03578,-0.00203
4691.96425,0.00662
4693.89272,0.02556
4695.82119,0.03186
4697.74965,0.02137
4699.67812,0.00993
4701.60659,0.00731
4703.53506,0.01258
4705.46353,0.01345
4707.39200,0.00498
4709.32047,-0.00028
4711.24893,-0.00171
4713.17740,-0.00286
4715.10587,0.00002
4717.03434,0.00224
4718.96281,0.00236
4720.89128,0.00467
4722.81975,0.00820
4724.74821,0.00298
4726.67668,-0.00831
4728.60515,-0.01118
4730.53362,-0.01046
4732.46209,-0.01464
4734.39056,-0.01339
4736.31903,-0.00213
4738.24750,0.00932
4740.17596,0.01069
4742.10443,0.01074
4744.03290,0.01692
4745.96137,0.01676
4747.88984,0.01235
4749.81831,0.01503
4751.74678,0.01550
4753.67524,0.00419
4755.60371,-0.00956
4757.53218,-0.01541
4759.46065,-0.01030
4761.38912,0.00243
4763.31759,0.01221
4765.24606,0.00930
4767.17453,0.00110
4769.10299,0.00124
4771.03146,0.00724
4772.95993,0.01048
4774.88840,0.00911
4776.81687,0.00556
4778.74534,0.00338
4780.67381,0.00201
4782.60227,0.00340
4784.53074,0.01135
4786.45921,0.01600
4788.38768,0.00763
4790.31615,-0.00133
4792.24462,-0.00043
4794.17309,0.00255
4796.10156,0.00763
4798.03002,0.01735
4799.95849,0.02201
4801.88696,0.01862
4803.81543,0.01093
4805.74390,-0.00200
4807.67237,-0.01285
4809.60084,-0.00609
4811.52930,0.01134
4813.45777,0.01660
4815.38624,0.00949
4817.31471,0.00600
4819.24318,0.00263
4821.17165,-0.00391
4823.10012,0.00240
4825.02859,0.01089
4826.95705,0.00040
4828.88552,-0.00972
4830.81399,-0.00439
4832.74246,0.00259
4834.67093,0.00700
4836.59940,0.01096
4838.52787,0.01306
4840.45633,0.01631
4842.38480,0.01264
4844.31327,0.00116
4846.24174,-0.00135
4848.17021,0.00621
4850.09868,0.01676
4852.02715,0.02304
4853.95562,0.01978
4855.88408,0.01530
4857.81255,0.01216
4859.74102,0.00689
4861.66949,0.00575
4863.59796,0.01234
4865.52643,0.01824
4867.45490,0.01482
4869.38336,0.00479
4871.31183,0.00288
4873.24030,0.01439
4875.16877,0.02355
4877.09724,0.02145
4879.02571,0.01713
4880.95418,0.01841
4882.88265,0.01571
4884.81111,0.00462
4886.73958,0.00213
4888.66805,0.01234
4890.59652,0.01687
4892.52499,0.01450
4894.45346,0.01653
4896.38193,0.01885
4898.31039,0.01244
4900.23886,0.00270
4902.16733,0.00581
4904.09580,0.01612
4906.02427,0.01822
4907.95274,0.01363
4909.88121,0.00609
4911.80967,0.00436
4913.73814,0.00937
4915.66661,0.01389
4917.59508,0.01347
4919.52355,0.00321
4921.45202,-0.00454
4923.38049,-0.00214
4925.30896,0.00133
4927.23742,0.00475
4929.16589,0.01027
4931.09436,0.01832
4933.02283,0.02169
4934.95130,0.01911
4936.87977,0.01725
4938.80824,0.00628
4940.73670,-0.01206
4942.66517,-0.01715
4944.59364,-0.00700
4946.52211,0.00522
4948.45058,0.01222
4950.37905,0.01189
4952.30752,0.00549
4954.23599,-0.00222
4956.16445,-0.01043
4958.09292,-0.01554
4960.02139,-0.00307
4961.94986,0.02067
4963.87833,0.02708
4965.80680,0.01522
4967.73527,0.00192
4969.66373,-0.00388
4971.59220,0.00628
4973.52067,0.02355
4975.44914,0.02791
4977.37761,0.02070
4979.30608,0.01692
4981.23455,0.01878
4983.16302,0.01825
4985.09148,0.01749
4987.01995,0.02345
4988.94842,0.02808
4990.87689,0.02428
4992.80536,0.02506
4994.73383,0.03961
4996.66230,0.05368
4998.59076,0.04889
5000.51923,0.02733
5002.44770,0.00550
5004.37617,0.00228
5006.30464,0.01890
5008.23311,0.03285
5010.16158,0.02688
5012.09005,0.01144
5014.01851,0.00825
5015.94698,0.01104
5017.87545,0.00911
5019.80392,0.01168
5021.73239,0.00917
5023.66086,-0.00444
5025.58933,-0.00683
5027.51779,0.01166
5029.44626,0.03136
5031.37473,0.02934
5033.30320,0.01207
5035.23167,0.00122
5037.16014,0.00410
5039.08861,0.01194
5041.01708,0.01057
5042.94554,0.00498
5044.87401,0.00610
5046.80248,0.01460
5048.73095,0.02407
5050.65942,0.02196
5052.58789,0.01547
5054.51636,0.02146
5056.44482,0.03535
5058.37329,0.04269
5060.30176,0.04374
5062.23023,0.04078
5064.15870,0.02364
5066.08717,0.00456
5068.01564,0.00247
5069.94410,0.00815
5071.87257,0.01081
5073.80104,0.00755
5075.72951,0.00332
5077.65798,0.00846
5079.58645,0.02096
5081.51492,0.03149
5083.44339,0.03616
5085.37185,0.02720
5087.30032,0.01091
5089.22879,0.01187
5091.15726,0.02031
5093.08573,0.01268
5095.01420,0.00405
5096.94267,0.01459
5098.87113,0.03405
5100.79960,0.03789
5102.72807,0.02132
5104.65654,0.01156
5106.58501,0.02104
5108.51348,0.02603
5110.44195,0.01687
5112.37042,0.00436
5114.29888,0.00135
5116.22735,0.01148
5118.15582,0.02232
5120.08429,0.02955
5122.01276,0.03394
5123.94123,0.03074
5125.86970,0.02114
5127.79816,0.01669
5129.72663,0.02949
5131.65510,0.05080
5133.58357,0.05756
5135.51204,0.04881
5137.44051,0.04538
5139.36898,0.04718
5141.29745,0.04199
5143.22591,0.03933
5145.15438,0.05147
5147.08285,0.06612
5149.01132,0.06245
5150.93979,0.04613
5152.86826,0.03365
5154.79673,0.02532
5156.72519,0.02340
5158.65366,0.03122
5160.58213,0.03929
5162.51060,0.04237
5164.43907,0.04124
5166.36754,0.03452
5168.29601,0.03380
5170.22448,0.04409
5172.15294,0.04463
5174.08141,0.03804
5176.00988,0.04463
5177.93835,0.05494
5179.86682,0.05697
5181.79529,0.06072
5183.72376,0.06326
5185.65222,0.05372
5187.58069,0.04579
5189.50916,0.04567
5191.43763,0.04184
5193.36610,0.03460
5195.29457,0.03357
5197.22304,0.03910
5199.15151,0.03513
5201.07997,0.01955
5203.00844,0.02181
5204.93691,0.04659
5206.86538,0.05174
5208.79385,0.03480
5210.72232,0.03133
5212.65079,0.03442
5214.57925,0.03203
5216.50772,0.03213
5218.43619,0.04170
5220.36466,0.05291
5222.29313,0.05873
5224.22160,0.06016
5226.15007,0.05403
5228.07854,0.04524
5230.00700,0.04110
5231.93547,0.04443
5233.86394,0.04985
5235.79241,0.04255
5237.72088,0.03440
5239.64935,0.04191
5241.57782,0.05276
5243.50628,0.06325
5245.43475,0.07712
5247.36322,0.08573
5249.29169,0.08304
5251.22016,0.06510
5253.14863,0.03346
5255.07710,0.01568
5257.00556,0.04067
5258.93403,0.07475
5260.86250,0.07036
5262.79097,0.04525
5264.71944,0.04465
5266.64791,0.06057
5268.57638,0.06562
5270.50485,0.05655
5272.43331,0.04578
5274.36178,0.04878
5276.29025,0.04952
5278.21872,0.03675
5280.14719,0.04331
5282.07566,0.07631
5284.00413,0.10852
5285.93259,0.11617
5287.86106,0.09231
5289.78953,0.05872
5291.71800,0.04423
5293.64647,0.04388
5295.57494,0.03409
5297.50341,0.02040
5299.43188,0.01545
5301.36034,0.01800
5303.28881,0.02017
5305.21728,0.01689
5307.14575,0.01542
5309.07422,0.01646
5311.00269,0.02770
5312.93116,0.04779
5314.85962,0.05370
5316.78809,0.05140
5318.71656,0.06269
5320.64503,0.08589
5322.57350,0.09623
5324.50197,0.07811
5326.43044,0.05495
5328.35891,0.04674
5330.28737,0.04526
5332.21584,0.04729
5334.14431,0.05031
5336.07278,0.04653
5338.00125,0.04523
5339.92972,0.05580
5341.85819,0.06098
5343.78665,0.04983
5345.71512,0.04572
5347.64359,0.05257
5349.57206,0.03995
5351.50053,0.03396
5353.42900,0.06679
5355.35747,0.09046
5357.28594,0.08775
5359.21440,0.08785
5361.14287,0.09176
5363.07134,0.09096
5364.99981,0.07835
5366.92828,0.06486
5368.85675,0.07248
5370.78522,0.09215
5372.71368,0.10338
5374.64215,0.11010
5376.57062,0.10812
5378.49909,0.08472
5380.42756,0.05930
5382.35603,0.04034
5384.28450,0.02367
5386.21297,0.02539
5388.14143,0.04841
5390.06990,0.06637
5391.99837,0.07006
5393.92684,0.07106
5395.85531,0.08531
5397.78378,0.10145
5399.71225,0.09390
5401.64071,0.07759
5403.56918,0.07091
5405.49765,0.05351
5407.42612,0.03978
5409.35459,0.06384
5411.28306,0.09058
5413.21153,0.07014
5415.13999,0.02740
5417.06846,0.00984
5418.99693,0.02808
5420.92540,0.05802
5422.85387,0.07498
5424.78234,0.08483
5426.71081,0.08628
5428.63928,0.08030
5430.56774,0.07682
5432.49621,0.06472
5434.42468,0.04906
5436.35315,0.04224
5438.28162,0.04540
5440.21009,0.06272
5442.13856,0.09005
5444.06702,0.11598
5445.99549,0.12249
5447.92396,0.10670
5449.85243,0.08729
5451.78090,0.07475
5453.70937,0.07165
5455.63784,0.07772
5457.56631,0.09891
5459.49477,0.11466
5461.42324,0.09822
5463.35171,0.07205
5465.28018,0.06212
5467.20865,0.06493
5469.13712,0.06844
5471.06559,0.06989
5472.99405,0.07161
5474.92252,0.06720
5476.85099,0.05423
5478.77946,0.04855
5480.70793,0.05386
5482.63640,0.05499
5484.56487,0.05244
5486.49334,0.05678
5488.42180,0.07690
5490.35027,0.10862
5492.27874,0.11039
5494.20721,0.07390
5496.13568,0.04627
5498.06415,0.03209
5499.99262,0.02175
5501.92108,0.03063
5503.84955,0.05479
5505.77802,0.06949
5507.70649,0.06351
5509.63496,0.06185
5511.56343,0.09620
5513.49190,0.14519
5515.42037,0.15215
5517.34883,0.10765
5519.27730,0.05757
5521.20577,0.02944
5523.13424,0.02107
5525.06271,0.02473
5526.99118,0.02409
5528.91965,0.02948
5530.84811,0.06160
5532.77658,0.09382
5534.70505,0.09358
5536.63352,0.08119
5538.56199,0.08532
5540.49046,0.08664
5542.41893,0.08140
5544.34740,0.08879
5546.27586,0.08441
5548.20433,0.06488
5550.13280,0.06300
5552.06127,0.06995
5553.98974,0.07297
5555.91821,0.08829
5557.84668,0.11568
5559.77514,0.13414
5561.70361,0.13068
5563.63208,0.10419
5565.56055,0.07335
5567.48902,0.05313
5569.41749,0.04951
5571.34596,0.06650
5573.27443,0.07871
5575.20289,0.08021
5577.13136,0.09434
5579.05983,0.10591
5580.98830,0.10407
5582.91677,0.10632
5584.84524,0.10070
5586.77371,0.06780
5588.70217,0.04404
5590.63064,0.06559
5592.55911,0.10436
5594.48758,0.12291
5596.41605,0.10363
5598.34452,0.06047
5600.27299,0.04255
5602.20145,0.06893
5604.12992,0.08997
5606.05839,0.07111
5607.98686,0.04346
5609.91533,0.03840
5611.84380,0.06286
5613.77227,0.09225
5615.70074,0.08319
5617.62920,0.04310
5619.55767,0.00996
5621.48614,0.00250
5623.41461,0.02364
5625.34308,0.06364
5627.27155,0.09950
5629.20002,0.10773
5631.12848,0.08547
5633.05695,0.05911
5634.98542,0.06922
5636.91389,0.12122
5638.84236,0.16223
5640.77083,0.15239
5642.69930,0.11769
5644.62777,0.10395
5646.55623,0.11191
5648.48470,0.11408
5650.41317,0.10353
5652.34164,0.07431
5654.27011,0.04139
5656.19858,0.03679
5658.12705,0.06747
5660.05551,0.11581
5661.98398,0.12402
5663.91245,0.07749
5665.84092,0.05214
5667.76939,0.07831
5669.69786,0.10292
5671.62633,0.09151
5673.55480,0.05541
5675.48326,0.01272
5677.41173,0.00869
5679.34020,0.05525
5681.26867,0.09055
5683.19714,0.09214
5685.12561,0.09299
5687.05408,0.10560
5688.98254,0.11618
5690.91101,0.11380
5692.83948,0.10703
5694.76795,0.12177
5696.69642,0.14459
5698.62489,0.13474
5700.55336,0.10607
5702.48183,0.08587
5704.41029,0.07573
5706.33876,0.07705
5708.26723,0.08501
5710.19570,0.08147
5712.12417,0.06461
5714.05264,0.05970
5715.98111,0.07976
5717.90957,0.10610
5719.83804,0.11434
5721.76651,0.11187
5723.69498,0.11312
5725.62345,0.12337
5727.55192,0.14424
5729.48039,0.14057
5731.40886,0.10481
5733.33732,0.09418
5735.26579,0.12132
5737.19426,0.12405
5739.12273,0.09008
5741.05120,0.07375
5742.97967,0.08866
5744.90814,0.10460
5746.83660,0.10142
5748.76507,0.09457
5750.69354,0.10637
5752.62201,0.11953
5754.55048,0.12016
5756.47895,0.11451
5758.40742,0.09859
5760.33588,0.09022
5762.26435,0.11180
5764.19282,0.14263
5766.12129,0.15178
5768.04976,0.12183
5769.97823,0.06561
5771.90670,0.03900
5773.83517,0.05215
5775.76363,0.05597
5777.69210,0.04286
5779.62057,0.03952
5781.54904,0.05828
5783.47751,0.08597
5785.40598,0.08815
5787.33445,0.06462
5789.26291,0.05574
5791.19138,0.06183
5793.11985,0.05844
5795.04832,0.05247
5796.97679,0.04792
5798.90526,0.03715
5800.83373,0.04291
5802.76220,0.08093
5804.69066,0.11645
5806.61913,0.12474
5808.54760,0.12548
5810.47607,0.12793
5812.40454,0.11860
5814.33301,0.10797
5816.26148,0.12447
5818.18994,0.14446
5820.11841,0.09733
5822.04688,-0.00069
5823.97535,-0.03439
5825.90382,-0.00621
5827.83229,0.00426
5829.76076,0.01789
5831.68923,0.05436
5833.61769,0.06917
5835.54616,0.05805
5837.47463,0.05525
5839.40310,0.07298
5841.33157,0.08208
5843.26004,0.06359
5845.18851,0.05278
5847.11697,0.06122
5849.04544,0.05703
5850.97391,0.04700
5852.90238,0.05886
5854.83085,0.08769
5856.75932,0.11623
5858.68779,0.14330
5860.61626,0.16906
5862.54472,0.15683
5864.47319,0.10572
5866.40166,0.09089
5868.33013,0.13305
5870.25860,0.16433
5872.18707,0.14295
5874.11554,0.08206
5876.04400,0.03003
5877.97247,0.02346
5879.90094,0.03682
5881.82941,0.04722
5883.75788,0.05492
5885.68635,0.06075
5887.61482,0.06865
5889.54329,0.07204
5891.47175,0.07359
5893.40022,0.07743
5895.32869,0.07512
5897.25716,0.08411
5899.18563,0.11836
5901.11410,0.14196
5903.04257,0.12921
5904.97103,0.10586
5906.89950,0.10221
5908.82797,0.10418
5910.75644,0.07851
5912.68491,0.06402
5914.61338,0.10739
5916.54185,0.16083
5918.47032,0.17261
5920.39878,0.14461
5922.32725,0.11564
5924.25572,0.12081
5926.18419,0.12917
5928.11266,0.11326
5930.04113,0.09899
5931.96960,0.08892
5933.89806,0.07972
5935.82653,0.08061
5937.75500,0.07822
5939.68347,0.06927
5941.61194,0.07631
5943.54041,0.11341
5945.46888,0.14611
5947.39734,0.13429
5949.32581,0.10427
5951.25428,0.10921
5953.18275,0.14396
5955.11122,0.13760
5957.03969,0.06259
5958.96816,0.01760
5960.89663,0.05395
5962.82509,0.06777
5964.75356,0.03171
5966.68203,0.02829
5968.61050,0.06719
5970.53897,0.09406
5972.46744,0.10014
5974.39591,0.09039
5976.32437,0.07594
5978.25284,0.05329
5980.18131,0.01327
5982.10978,0.01007
5984.03825,0.07364
5985.96672,0.12029
5987.89519,0.08679
5989.82366,0.04034
5991.75212,0.04074
5993.68059,0.06007
5995.60906,0.06676
5997.53753,0.07404
5999.46600,0.10024
6001.39447,0.12954
6003.32294,0.14321
6005.25140,0.13524
6007.17987,0.10598
6009.10834,0.07624
6011.03681,0.07251
6012.96528,0.09727
6014.89375,0.11405
6016.82222,0.10156
6018.75069,0.10559
6020.67915,0.13577
6022.60762,0.14376
6024.53609,0.14549
6026.46456,0.15816
6028.39303,0.15798
6030.32150,0.14991
6032.24997,0.13261
6034.17843,0.09228
6036.10690,0.06900
6038.03537,0.08082
6039.96384,0.08074
6041.89231,0.06409
6043.82078,0.05024
6045.74925,0.03457
6047.67772,0.02857
6049.60618,0.03931
6051.53465,0.06262
6053.46312,0.09832
6055.39159,0.12382
6057.32006,0.13177
6059.24853,0.14720
6061.17700,0.16544
6063.10546,0.13480
6065.03393,0.05998
6066.96240,0.02982
6068.89087,0.04791
6070.81934,0.04694
6072.74781,0.03300
6074.67628,0.04265
6076.60475,0.06985
6078.53321,0.10147
6080.46168,0.13762
6082.39015,0.16801
6084.31862,0.16052
6086.24709,0.12881
6088.17556,0.12682
6090.10403,0.13852
6092.03249,0.13367
6093.96096,0.12076
6095.88943,0.11431
6097.81790,0.10984
6099.74637,0.08231
6101.67484,0.05248
6103.60331,0.06805
6105.53177,0.11673
6107.46024,0.14697
6109.38871,0.13046
6111.31718,0.08354
6113.24565,0.03786
6115.17412,0.01218
6117.10259,0.01852
6119.03106,0.06327
6120.95952,0.11030
6122.88799,0.11710
6124.81646,0.08832
6126.74493,0.05855
6128.67340,0.04112
6130.60187,0.01967
6132.53034,0.00967
6134.45880,0.04337
6136.38727,0.10738
6138.31574,0.13340
6140.24421,0.09298
6142.17268,0.06396
6144.10115,0.10046
6146.02962,0.12928
6147.95809,0.09953
6149.88655,0.07392
6151.81502,0.10493
6153.74349,0.14105
6155.67196,0.12125
6157.60043,0.06065
6159.52890,-0.00088
6161.45737,-0.01758
6163.38583,0.04726
6165.31430,0.11616
6167.24277,0.09626
6169.17124,0.04026
6171.09971,0.04172
6173.02818,0.11230
6174.95665,0.15847
6176.88512,0.11737
6178.81358,0.04983
6180.74205,0.03123
6182.67052,0.05821
6184.59899,0.10332
6186.52746,0.14722
6188.45593,0.14351
6190.38440,0.11476
6192.31286,0.13921
6194.24133,0.18403
6196.16980,0.18546
6198.09827,0.13397
6200.02674,0.06657
6201.95521,0.05200
6203.88368,0.08155
6205.81215,0.08507
6207.74061,0.08937
6209.66908,0.11902
6211.59755,0.11181
6213.52602,0.09822
6215.45449,0.12795
6217.38296,0.13688
6219.31143,0.09649
6221.23989,0.04870
6223.16836,0.01023
6225.09683,0.00596
6227.02530,0.05379
6228.95377,0.10059
6230.88224,0.11936
6232.81071,0.12835
6234.73918,0.13134
6236.66764,0.12894
6238.59611,0.10544
6240.52458,0.06757
6242.45305,0.04926
6244.38152,0.04888
6246.30999,0.06028
6248.23846,0.09175
6250.16692,0.11344
6252.09539,0.09754
6254.02386,0.07606
6255.95233,0.05153
6257.88080,0.00439
6259.80927,-0.02732
6261.73774,-0.00267
6263.66621,0.06409
6265.59467,0.13537
6267.52314,0.15463
6269.45161,0.10261
6271.38008,0.04902
6273.30855,0.02803
6275.23702,0.03755
6277.16549,0.07285
6279.09395,0.07501
6281.02242,0.02771
6282.95089,-0.00760
6284.87936,0.02722
6286.80783,0.09166
6288.73630,0.10763
6290.66477,0.10211
6292.59323,0.12496
6294.52170,0.14586
6296.45017,0.14905
6298.37864,0.12798
6300.30711,0.05133
6302.23558,-0.01413
6304.16405,0.02718
6306.09252,0.09883
6308.02098,0.09345
6309.94945,0.01921
6311.87792,-0.00283
6313.80639,0.05648
6315.73486,0.08000
6317.66333,0.09749
6319.59180,0.16633
6321.52026,0.16234
6323.44873,0.04584
6325.37720,-0.05125
6327.30567,-0.04738
6329.23414,0.01730
6331.16261,0.05020
6333.09108,0.03692
6335.01955,0.02693
6336.94801,0.06581
6338.87648,0.12138
6340.80495,0.11899
6342.73342,0.08105
6344.66189,0.06928
6346.59036,0.10722
6348.51883,0.13641
6350.44729,0.08457
6352.37576,0.01458
6354.30423,0.00585
6356.23270,0.08101
6358.16117,0.19560
6360.08964,0.19930
6362.01811,0.08289
6363.94658,0.01519
6365.87504,0.05540
6367.80351,0.10694
6369.73198,0.12140
6371.66045,0.13471
6373.58892,0.13450
6375.51739,0.08739
6377.44586,0.03081
6379.37432,0.00606
6381.30279,0.02613
6383.23126,0.09682
6385.15973,0.13712
6387.08820,0.09645
6389.01667,0.08316
6390.94514,0.13101
6392.87361,0.10512
6394.80207,0.02313
6396.73054,0.01809
6398.65901,0.01689
6400.58748,-0.02521
6402.51595,-0.03780
6404.44442,-0.00018
6406.37289,0.03023
6408.30135,0.03187
6410.22982,0.09142
6412.15829,0.20337
6414.08676,0.23753
6416.01523,0.16674
6417.94370,0.06325
6419.87217,0.01949
6421.80064,0.04204
6423.72910,0.08087
6425.65757,0.11101
6427.58604,0.10636
6429.51451,0.07744
6431.44298,0.07383
6433.37145,0.08630
6435.29992,0.09374
6437.22838,0.08367
6439.15685,0.05680
6441.08532,0.05796
6443.01379,0.06841
6444.94226,0.06958
6446.87073,0.09784
6448.79920,0.09382
6450.72766,0.00408
6452.65613,-0.04126
6454.58460,0.02612
6456.51307,0.10151
6458.44154,0.11012
6460.37001,0.05938
6462.29848,0.00193
6464.22695,-0.01124
6466.15541,-0.01314
6468.08388,-0.05058
6470.01235,-0.08757
6471.94082,-0.05708
6473.86929,0.00240
6475.79776,0.03754
6477.72623,0.06131
6479.65469,0.06800
6481.58316,0.07027
6483.51163,0.09764
6485.44010,0.12977
6487.36857,0.14927
6489.29704,0.15111
6491.22551,0.12439
6493.15398,0.08759
6495.08244,0.05272
6497.01091,0.00486
6498.93938,-0.01312
6500.86785,0.02839
6502.79632,0.07851
6504.72479,0.11446
6506.65326,0.14724
6508.58172,0.16011
6510.51019,0.13911
6512.43866,0.11538
6514.36713,0.11115
6516.29560,0.09568
6518.22407,0.05324
6520.15254,-0.00890
6522.08101,-0.06198
6524.00947,-0.04653
6525.93794,0.04939
6527.86641,0.14473
6529.79488,0.18167
6531.72335,0.17509
6533.65182,0.14080
6535.58029,0.09071
6537.50875,0.07367
6539.43722,0.10585
6541.36569,0.11094
6543.29416,0.04105
6545.22263,-0.01876
6547.15110,-0.01888
6549.07957,-0.00646
6551.00804,0.00869
6552.93650,0.03339
6554.86497,0.04517
6556.79344,0.03100
6558.72191,0.02737
6560.65038,0.09532
6562.57885,0.18295
6564.50732,0.19188
6566.43578,0.15363
6568.36425,0.10159
6570.29272,0.00734
6572.22119,-0.05354
6574.14966,-0.01057
6576.07813,0.05217
6578.00660,0.01921
6579.93507,-0.05046
6581.86353,-0.00488
6583.79200,0.07465
6585.72047,0.06401
6587.64894,0.06445
6589.57741,0.14144
6591.50588,0.21374
6593.43435,0.18739
6595.36281,0.10968
6597.29128,0.06970
6599.21975,0.04647
6601.14822,0.01857
6603.07669,-0.01001
6605.00516,0.02741
6606.93363,0.15141
6608.86210,0.22011
6610.79056,0.14837
6612.71903,0.03923
6614.64750,-0.00233
6616.57597,-0.00077
6618.50444,-0.00666
6620.43291,0.00264
6622.36138,0.05257
6624.28984,0.11379
6626.21831,0.16976
6628.14678,0.20349
6630.07525,0.18842
6632.00372,0.17410
6633.93219,0.18202
6635.86066,0.16797
6637.78912,0.13831
6639.71759,0.13942
6641.64606,0.13840
6643.57453,0.09383
6645.50300,0.06053
6647.43147,0.06334
6649.35994,0.07760
6651.28841,0.09158
6653.21687,0.01646
6655.14534,-0.14206
6657.07381,-0.15280
6659.00228,0.02864
6660.93075,0.17445
6662.85922,0.25421
6664.78769,0.29883
6666.71615,0.22183
6668.64462,0.06774
6670.57309,0.00370
6672.50156,0.02267
6674.43003,0.06074
6676.35850,0.10996
6678.28697,0.10529
6680.21544,0.06834
6682.14390,0.06838
6684.07237,0.08031
6686.00084,0.12530
6687.92931,0.21952
6689.85778,0.22260
6691.78625,0.11733
6693.71472,0.05816
6695.64318,0.09750
6697.57165,0.14934
6699.50012,0.11238
6701.42859,0.03378
6703.35706,-0.02550
6705.28553,-0.06439
6707.21400,-0.02973
6709.14247,0.02349
6711.07093,0.01035
6712.99940,0.01405
6714.92787,0.04802
6716.85634,0.04195
6718.78481,-0.00458
6720.71328,-0.06185
6722.64175,-0.10422
6724.57021,-0.12006
6726.49868,-0.07592
6728.42715,0.04808
6730.35562,0.17485
6732.28409,0.21948
6734.21256,0.18901
6736.14103,0.12019
6738.06950,0.02677
6739.99796,-0.07700
6741.92643,-0.12201
6743.85490,-0.10268
6745.78337,-0.08523
6747.71184,-0.06790
6749.64031,-0.04333
6751.56878,-0.02714
6753.49724,0.00087
6755.42571,0.05859
6757.35418,0.13870
6759.28265,0.21539
6761.21112,0.21466
6763.13959,0.12176
6765.06806,0.02040
6766.99653,0.02032
6768.92499,0.12600
6770.85346,0.18376
6772.78193,0.12578
6774.71040,0.04936
6776.63887,0.06471
6778.56734,0.15004
6780.49581,0.19686
6782.42427,0.17102
6784.35274,0.10534
6786.28121,0.04955
6788.20968,0.01961
6790.13815,0.00183
6792.06662,0.01995
6793.99509,0.06750
6795.92355,0.08600
6797.85202,0.07067
6799.78049,0.06550
6801.70896,0.08163
6803.63743,0.08099
6805.56590,0.06985
6807.49437,0.06117
6809.42284,0.02208
6811.35130,-0.04341
6813.27977,-0.10324
6815.20824,-0.15796
6817.13671,-0.16619
6819.06518,-0.08122
6820.99365,0.05669
6822.92212,0.14643
6824.85058,0.11531
6826.77905,0.05906
6828.70752,0.05631
6830.63599,0.11798
6832.56446,0.20215
6834.49293,0.20342
6836.42140,0.13442
6838.34987,0.15693
6840.27833,0.20254
6842.20680,0.15142
6844.13527,0.09493
6846.06374,0.07955
6847.99221,0.04303
6849.92068,0.00960
6851.84915,-0.00802
6853.77761,-0.04295
6855.70608,-0.04046
6857.63455,0.00302
6859.56302,0.02850
6861.49149,0.04062
6863.41996,0.05340
6865.34843,0.04192
6867.27690,-0.01823
6869.20536,-0.06850
6871.13383,-0.05513
6873.06230,-0.00301
6874.99077,0.04390
6876.91924,0.11970
6878.84771,0.23986
6880.77618,0.26406
6882.70464,0.13816
6884.63311,0.01892
6886.56158,-0.00722
6888.49005,0.01623
6890.41852,0.04653
6892.34699,0.09073
6894.27546,0.17297
6896.20393,0.31296
6898.13239,0.37513
6900.06086,0.25643
6901.98933,0.12808
6903.91780,0.12440
6905.84627,0.20867
6907.77474,0.19721
6909.70321,0.09173
6911.63167,0.09057
6913.56014,0.13282
6915.48861,0.04444
6917.41708,-0.06118
6919.34555,-0.06651
6921.27402,-0.04351
6923.20249,-0.01943
6925.13096,0.01908
6927.05942,0.06625
6928.98789,0.16398
6930.91636,0.28377
6932.84483,0.23050
6934.77330,0.06249
6936.70177,0.06604
6938.63024,0.16144
6940.55870,0.05488
6942.48717,-0.10271
6944.41564,-0.07631
6946.34411,0.02213
6948.27258,0.06823
6950.20105,0.09831
6952.12952,0.14238
6954.05799,0.12408
6955.98645,0.05588
6957.91492,0.02536
6959.84339,0.06512
6961.77186,0.14505
6963.70033,0.16158
6965.62880,0.12166
6967.55727,0.10037
6969.48573,0.09207
6971.41420,0.07256
6973.34267,0.09139
6975.27114,0.19755
6977.19961,0.29569
6979.12808,0.26241
6981.05655,0.17087
6982.98501,0.09342
6984.91348,-0.01262
6986.84195,-0.12249
6988.77042,-0.16199
6990.69889,-0.09704
6992.62736,-0.01770
6994.55583,-0.02694
6996.48430,-0.07245
6998.41276,-0.01813
7000.34123,0.09604
7002.26970,0.14075
7004.19817,0.20326
7006.12664,0.30785
7008.05511,0.29858
7009.98358,0.23535
7011.91204,0.22705
7013.84051,0.17667
7015.76898,0.04970
7017.69745,-0.00814
7019.62592,0.04990
7021.55439,0.10901
7023.48286,0.12334
7025.41133,0.14749
7027.33979,0.12053
7029.26826,-0.03676
7031.19673,-0.16195
7033.12520,-0.14795
7035.05367,-0.09254
7036.98214,-0.07494
7038.91061,-0.06117
7040.83907,-0.03179
7042.76754,0.03610
7044.69601,0.14307
7046.62448,0.19966
7048.55295,0.14797
7050.48142,0.08955
7052.40989,0.09408
7054.33836,0.15437
7056.26682,0.29694
7058.19529,0.39079
7060.12376,0.30373
7062.05223,0.16713
7063.98070,0.10323
7065.90917,0.11743
7067.83764,0.08594
7069.76610,-0.00324
7071.69457,0.01763
7073.62304,0.15351
7075.55151,0.26970
7077.47998,0.28673
7079.40845,0.19768
7081.33692,0.13144
7083.26539,0.14971
7085.19385,0.18873
7087.12232,0.17460
7089.05079,0.04386
7090.97926,0.02625
7092.90773,0.16223
7094.83620,0.19190
7096.76467,0.13721
7098.69313,0.08661
7100.62160,-0.01990
7102.55007,-0.06842
7104.47854,0.05121
7106.40701,0.12672
7108.33548,-0.00353
7110.26395,-0.07564
7112.19242,0.02475
7114.12088,0.15218
7116.04935,0.24276
7117.97782,0.23570
7119.90629,0.11493
7121.83476,0.06048
7123.76323,0.06655
7125.69170,0.08764
7127.62016,0.18450
7129.54863,0.25121
7131.47710,0.16565
7133.40557,0.02440
7135.33404,-0.07698
7137.26251,-0.08925
7139.19098,-0.02721
7141.11944,0.00063
7143.04791,-0.04908
7144.97638,-0.08432
7146.90485,-0.00358
7148.83332,0.10965
7150.76179,0.16460
7152.69026,0.14195
7154.61873,0.11443
7156.54719,0.16665
7158.47566,0.17412
7160.40413,0.03545
7162.33260,-0.13597
7164.26107,-0.17666
7166.18954,-0.04505
7168.11801,0.11076
7170.04647,0.11581
7171.97494,0.07063
7173.90341,0.13024
7175.83188,0.19967
7177.76035,0.15767
7179.68882,0.00260
7181.61729,-0.15527
7183.54576,-0.16397
7185.47422,-0.08259
7187.40269,-0.05019
7189.33116,-0.03259
7191.25963,0.05111
7193.18810,0.10461
7195.11657,0.04131
7197.04504,-0.07218
7198.97350,-0.12273
7200.90197,-0.08333
7202.83044,-0.01211
7204.75891,0.02302
7206.68738,-0.02201
7208.61585,-0.06998
7210.54432,-0.05860
7212.47279,-0.00469
7214.40125,0.04911
7216.32972,0.10822
7218.25819,0.23072
7220.18666,0.29424
7222.11513,0.29043
7224.04360,0.29658
7225.97207,0.21481
7227.90053,0.09192
7229.82900,0.03031
7231.75747,0.01256
7233.68594,0.06748
7235.61441,0.17641
7237.54288,0.27614
7239.47135,0.35068
7241.39982,0.43927
7243.32828,0.45190
7245.25675,0.32025
7247.18522,0.16159
7249.11369,0.06455
7251.04216,0.03137
7252.97063,-0.02741
7254.89910,0.04519
7256.82756,0.23765
7258.75603,0.27949
7260.68450,0.12283
7262.61297,-0.03515
7264.54144,-0.03505
7266.46991,0.13842
7268.39838,0.30928
7270.32685,0.32259
7272.25531,0.11720
7274.18378,-0.11659
7276.11225,-0.12094
7278.04072,0.05163
7279.96919,0.19508
7281.89766,0.22440
7283.82613,0.22487
7285.75459,0.19650
7287.68306,0.13980
7289.61153,0.09218
7291.54000,0.11341
7293.46847,0.23242
7295.39694,0.25823
7297.32541,0.08235
7299.25387,-0.04934
7301.18234,0.01584
7303.11081,0.20074
7305.03928,0.33123
7306.96775,0.25968
7308.89622,0.11067
7310.82469,0.12832
7312.75316,0.21947
7314.68162,0.19717
7316.61009,-0.05581
7318.53856,-0.29978
7320.46703,-0.23793
7322.39550,0.00286
7324.32397,0.17675
7326.25244,0.22670
7328.18090,0.24529
7330.10937,0.32597
7332.03784,0.39314
7333.96631,0.32384
7335.89478,0.22072
7337.82325,0.16093
7339.75172,0.07609
7341.68019,-0.05606
7343.60865,-0.15110
7345.53712,-0.11469
7347.46559,0.02165
7349.39406,0.12699
7351.32253,0.24156
7353.25100,0.31198
7355.17947,0.23057
7357.10793,0.09941
7359.03640,0.06936
7360.96487,0.16312
7362.89334,0.18153
7364.82181,0.05568
7366.75028,-0.00950
7368.67875,0.02300
7370.60722,0.06062
7372.53568,0.05763
7374.46415,0.03173
7376.39262,0.06713
7378.32109,0.13132
7380.24956,0.16841
7382.17803,0.17808
7384.10650,0.20261
7386.03496,0.18826
7387.96343,0.03599
7389.89190,-0.11657
7391.82037,-0.12646
7393.74884,0.03146
7395.67731,0.26003
7397.60578,0.35485
7399.53425,0.26023
7401.46271,0.14243
7403.39118,0.16090
7405.31965,0.27522
7407.24812,0.32902
7409.17659,0.28722
7411.10506,0.23500
7413.03353,0.24352
7414.96199,0.25276
7416.89046,0.21112
7418.81893,0.13112
7420.74740,0.11969
7422.67587,0.19671
7424.60434,0.16680
7426.53281,0.04024
7428.46128,-0.02327
7430.38974,-0.01771
7432.31821,0.04921
7434.24668,0.15877
7436.17515,0.16386
7438.10362,0.12738
7440.03209,0.18908
7441.96056,0.26056
7443.88902,0.24737
7445.81749,0.20002
7447.74596,0.16227
7449.67443,0.16365
7451.60290,0.23464
7453.53137,0.27204
7455.45984,0.25972
7457.38831,0.28509
7459.31677,0.34904
7461.24524,0.36864
7463.17371,0.33423
7465.10218,0.31504
7467.03065,0.37246
7468.95912,0.39729
7470.88759,0.26123
7472.81605,0.15618
7474.74452,0.16933
7476.67299,0.19300
7478.60146,0.27299
7480.52993,0.29197
7482.45840,0.16401
7484.38687,0.12691
7486.31533,0.24652
7488.24380,0.27717
7490.17227,0.10313
7492.10074,0.03281
7494.02921,0.11206
7495.95768,0.12760
7497.88615,0.12324
