399.19301,5.36986
401.12148,0.79571
403.04995,0.39127
404.97842,0.22149
406.90689,0.05347
408.83536,0.06520
410.76382,0.18577
412.69229,0.19761
414.62076,0.07929
416.54923,-0.02538
418.47770,-0.03662
420.40617,-0.06687
422.33464,-0.05673
424.26311,0.03049
426.19157,0.03251
428.12004,-0.03172
430.04851,-0.03880
431.97698,-0.02572
433.90545,-0.07785
435.83392,-0.13983
437.76239,-0.13623
439.69085,-0.08869
441.61932,-0.04660
443.54779,-0.02522
445.47626,-0.04269
447.40473,-0.06256
449.33320,-0.02138
451.26167,0.04598
453.19013,0.09488
455.11860,0.09710
457.04707,0.05293
458.97554,0.00974
460.90401,-0.02890
462.83248,-0.04723
464.76095,-0.00082
466.68942,0.09264
468.61788,0.18300
470.54635,0.24527
472.47482,0.27622
474.40329,0.24191
476.33176,0.12883
478.26023,0.04132
480.18870,0.00650
482.11716,0.04594
484.04563,0.16992
485.97410,0.22819
487.90257,0.16211
489.83104,0.08877
491.75951,0.03613
493.68798,0.01645
495.61645,0.06715
497.54491,0.13749
499.47338,0.14746
501.40185,0.10949
503.33032,0.08093
505.25879,0.06713
507.18726,0.05802
509.11573,0.07785
511.04419,0.12169
512.97266,0.14242
514.90113,0.12146
516.82960,0.09800
518.75807,0.09756
520.68654,0.09144
522.61501,0.07891
524.54348,0.09218
526.47194,0.11468
528.40041,0.11811
530.32888,0.11672
532.25735,0.12210
534.18582,0.12437
536.11429,0.10365
538.04276,0.08135
539.97122,0.09158
541.89969,0.12019
543.82816,0.14277
545.75663,0.15070
547.68510,0.13542
549.61357,0.10476
551.54204,0.08544
553.47051,0.08229
555.39897,0.09680
557.32744,0.11396
559.25591,0.10516
561.18438,0.09707
563.11285,0.11749
565.04132,0.13926
566.96979,0.14226
568.89825,0.14359
570.82672,0.14492
572.75519,0.12931
574.68366,0.11006
576.61213,0.10106
578.54060,0.09752
580.46907,0.11416
582.39754,0.14172
584.32600,0.13191
586.25447,0.09198
588.18294,0.07371
590.11141,0.08164
592.03988,0.09193
593.96835,0.09742
595.89682,0.11090
597.82528,0.13701
599.75375,0.15213
601.68222,0.15291
603.61069,0.15146
605.53916,0.13801
607.46763,0.12408
609.39610,0.12495
611.32456,0.12204
613.25303,0.10882
615.18150,0.10094
617.10997,0.10347
619.03844,0.10894
620.96691,0.10557
622.89538,0.09002
624.82385,0.08226
626.75231,0.09425
628.68078,0.10154
630.60925,0.08918
632.53772,0.08031
634.46619,0.09862
636.39466,0.13314
638.32313,0.15594
640.25159,0.15277
642.18006,0.13307
644.10853,0.12949
646.03700,0.14386
647.96547,0.13482
649.89394,0.10854
651.82241,0.11784
653.75088,0.15343
655.67934,0.15982
657.60781,0.14021
659.53628,0.13340
661.46475,0.12563
663.39322,0.10835
665.32169,0.10892
667.25016,0.12883
669.17862,0.13793
671.10709,0.13580
673.03556,0.13539
674.96403,0.12736
676.89250,0.11849
678.82097,0.12521
680.74944,0.13434
682.67791,0.12554
684.60637,0.11632
686.53484,0.12926
688.46331,0.14404
690.39178,0.14053
692.32025,0.13681
694.24872,0.14436
696.17719,0.14963
698.10565,0.14109
700.03412,0.12952
701.96259,0.12726
703.89106,0.13052
705.81953,0.13321
707.74800,0.13085
709.67647,0.12580
711.60494,0.12363
713.53340,0.12387
715.46187,0.12932
717.39034,0.14023
719.31881,0.14193
721.24728,0.12966
723.17575,0.12280
725.10422,0.12934
727.03268,0.13979
728.96115,0.14432
730.88962,0.14207
732.81809,0.14303
734.74656,0.14952
736.67503,0.14970
738.60350,0.13802
740.53197,0.12675
742.46043,0.12839
744.38890,0.13562
746.31737,0.13091
748.24584,0.11875
750.17431,0.11767
752.10278,0.12570
754.03125,0.13301
755.95971,0.13914
757.88818,0.14021
759.81665,0.13235
761.74512,0.12736
763.67359,0.13278
765.60206,0.13436
767.53053,0.12778
769.45900,0.12929
771.38746,0.13495
773.31593,0.13162
775.24440,0.13147
777.17287,0.13730
779.10134,0.13905
781.02981,0.13641
782.95828,0.13367
784.88674,0.13470
786.81521,0.12946
788.74368,0.08690
790.67215,0.01002
792.60062,-0.00763
794.52909,0.07082
796.45756,0.13475
798.38602,0.14007
800.31449,0.13828
802.24296,0.14328
804.17143,0.14639
806.09990,0.14585
808.02837,0.13776
809.95684,0.12843
811.88531,0.12503
813.81377,0.12342
815.74224,0.12850
817.67071,0.13919
819.59918,0.14385
821.52765,0.14708
823.45612,0.15364
825.38459,0.15273
827.31305,0.14337
829.24152,0.13785
831.16999,0.13394
833.09846,0.12544
835.02693,0.12091
836.95540,0.12994
838.88387,0.14644
840.81234,0.15777
842.74080,0.16084
844.66927,0.15870
846.59774,0.15552
848.52621,0.15761
850.45468,0.16206
852.38315,0.15994
854.31162,0.15712
856.24008,0.15785
858.16855,0.15412
860.09702,0.14394
862.02549,0.13399
863.95396,0.13369
865.88243,0.14325
867.81090,0.15115
869.73937,0.15200
871.66783,0.14921
873.59630,0.14474
875.52477,0.14382
877.45324,0.14837
879.38171,0.14936
881.31018,0.14671
883.23865,0.14559
885.16711,0.14578
887.09558,0.14914
889.02405,0.15246
890.95252,0.15068
892.88099,0.14425
894.80946,0.13812
896.73793,0.13861
898.66640,0.14217
900.59486,0.14430
902.52333,0.14443
904.45180,0.14075
906.38027,0.14155
908.30874,0.15189
910.23721,0.15732
912.16568,0.15010
914.09414,0.14041
916.02261,0.13372
917.95108,0.13003
919.87955,0.12849
921.80802,0.12624
923.73649,0.12721
925.66496,0.13528
927.59343,0.14567
929.52189,0.15229
931.45036,0.15560
933.37883,0.15619
935.30730,0.15042
937.23577,0.14328
939.16424,0.14241
941.09271,0.14244
943.02117,0.13826
944.94964,0.13490
946.87811,0.13324
948.80658,0.13107
950.73505,0.13187
952.66352,0.13616
954.59199,0.13837
956.52045,0.13759
958.44892,0.13902
960.37739,0.14198
962.30586,0.14119
964.23433,0.13649
966.16280,0.13526
968.09127,0.14163
970.01974,0.14910
971.94820,0.15379
973.87667,0.15619
975.80514,0.15465
977.73361,0.14956
979.66208,0.14232
981.59055,0.13611
983.51902,0.13586
985.44748,0.14258
987.37595,0.14777
989.30442,0.14504
991.23289,0.14327
993.16136,0.14623
995.08983,0.14942
997.01830,0.15258
998.94677,0.14907
1000.87523,0.14008
1002.80370,0.13871
1004.73217,0.13999
1006.66064,0.13579
1008.58911,0.13590
1010.51758,0.14289
1012.44605,0.14838
1014.37451,0.15132
1016.30298,0.15431
1018.23145,0.15752
1020.15992,0.15965
1022.08839,0.15838
1024.01686,0.15520
1025.94533,0.15446
1027.87380,0.15558
1029.80226,0.15466
1031.73073,0.14528
1033.65920,0.13033
1035.58767,0.12865
1037.51614,0.14405
1039.44461,0.15629
1041.37308,0.15511
1043.30154,0.15534
1045.23001,0.16802
1047.15848,0.17650
1049.08695,0.17002
1051.01542,0.16269
1052.94389,0.16122
1054.87236,0.16081
1056.80083,0.16220
1058.72929,0.16367
1060.65776,0.16426
1062.58623,0.16903
1064.51470,0.17395
1066.44317,0.17242
1068.37164,0.16730
1070.30011,0.16566
1072.22857,0.16752
1074.15704,0.16386
1076.08551,0.15434
1078.01398,0.14627
1079.94245,0.14474
1081.87092,0.14960
1083.79939,0.15509
1085.72786,0.15827
1087.65632,0.15874
1089.58479,0.15693
1091.51326,0.15392
1093.44173,0.15224
1095.37020,0.15430
1097.29867,0.15740
1099.22714,0.15948
1101.15560,0.16191
1103.08407,0.16680
1105.01254,0.17244
1106.94101,0.17648
1108.86948,0.18151
1110.79795,0.18366
1112.72642,0.17428
1114.65489,0.16150
1116.58335,0.15966
1118.51182,0.16334
1120.44029,0.16486
1122.36876,0.16608
1124.29723,0.16398
1126.22570,0.15629
1128.15417,0.14936
1130.08263,0.15199
1132.01110,0.15925
1133.93957,0.15792
1135.86804,0.15408
1137.79651,0.16079
1139.72498,0.16968
1141.65345,0.17026
1143.58191,0.16755
1145.51038,0.16549
1147.43885,0.16196
1149.36732,0.15787
1151.29579,0.15881
1153.22426,0.16396
1155.15273,0.16528
1157.08120,0.16630
1159.00966,0.17000
1160.93813,0.16702
1162.86660,0.15871
1164.79507,0.15353
1166.72354,0.15365
1168.65201,0.15839
1170.58048,0.16501
1172.50894,0.17226
1174.43741,0.17586
1176.36588,0.17036
1178.29435,0.16119
1180.22282,0.15710
1182.15129,0.15948
1184.07976,0.16098
1186.00823,0.15387
1187.93669,0.14631
1189.86516,0.15213
1191.79363,0.16407
1193.72210,0.16731
1195.65057,0.16304
1197.57904,0.16000
1199.50751,0.16326
1201.43597,0.16895
1203.36444,0.16910
1205.29291,0.16589
1207.22138,0.16633
1209.14985,0.16932
1211.07832,0.17250
1213.00679,0.17558
1214.93526,0.17343
1216.86372,0.16646
1218.79219,0.16349
1220.72066,0.16518
1222.64913,0.16472
1224.57760,0.16118
1226.50607,0.16001
1228.43454,0.16219
1230.36300,0.16503
1232.29147,0.16851
1234.21994,0.17007
1236.14841,0.16726
1238.07688,0.16481
1240.00535,0.16672
1241.93382,0.16882
1243.86229,0.16771
1245.79075,0.16693
1247.71922,0.16863
1249.64769,0.16978
1251.57616,0.16796
1253.50463,0.16500
1255.43310,0.16364
1257.36157,0.16516
1259.29003,0.16794
1261.21850,0.16788
1263.14697,0.16496
1265.07544,0.16138
1267.00391,0.15752
1268.93238,0.15500
1270.86085,0.15637
1272.78932,0.16150
1274.71778,0.16456
1276.64625,0.16329
1278.57472,0.16425
1280.50319,0.16859
1282.43166,0.17146
1284.36013,0.17234
1286.28860,0.17107
1288.21706,0.16978
1290.14553,0.17280
1292.07400,0.17593
1294.00247,0.17446
1295.93094,0.17172
1297.85941,0.17029
1299.78788,0.16653
1301.71634,0.15679
1303.64481,0.14619
1305.57328,0.14414
1307.50175,0.15226
1309.43022,0.16487
1311.35869,0.17467
1313.28716,0.17622
1315.21563,0.17636
1317.14409,0.18281
1319.07256,0.18453
1321.00103,0.17568
1322.92950,0.16827
1324.85797,0.16756
1326.78644,0.16914
1328.71491,0.16940
1330.64337,0.16696
1332.57184,0.16465
1334.50031,0.16567
1336.42878,0.16913
1338.35725,0.17384
1340.28572,0.17237
1342.21419,0.16642
1344.14266,0.16749
1346.07112,0.17223
1347.99959,0.17708
1349.92806,0.18010
1351.85653,0.17643
1353.78500,0.17116
1355.71347,0.17001
1357.64194,0.17259
1359.57040,0.17725
1361.49887,0.18127
1363.42734,0.17947
1365.35581,0.17407
1367.28428,0.17406
1369.21275,0.17909
1371.14122,0.18282
1373.06969,0.18504
1374.99815,0.18571
1376.92662,0.18271
1378.85509,0.18100
1380.78356,0.18399
1382.71203,0.18864
1384.64050,0.19253
1386.56897,0.19370
1388.49743,0.18878
1390.42590,0.18201
1392.35437,0.18022
1394.28284,0.18364
1396.21131,0.18718
1398.13978,0.18731
1400.06825,0.18642
1401.99672,0.18747
1403.92518,0.18919
1405.85365,0.18766
1407.78212,0.18429
1409.71059,0.18410
1411.63906,0.18517
1413.56753,0.18396
1415.49600,0.18489
1417.42446,0.19160
1419.35293,0.19424
1421.28140,0.18882
1423.20987,0.18564
1425.13834,0.18330
1427.06681,0.18147
1428.99528,0.18355
1430.92375,0.18698
1432.85221,0.18900
1434.78068,0.18995
1436.70915,0.18781
1438.63762,0.18417
1440.56609,0.18215
1442.49456,0.18183
1444.42303,0.18450
1446.35149,0.18987
1448.27996,0.19575
1450.20843,0.19726
1452.13690,0.19217
1454.06537,0.18752
1455.99384,0.19580
1457.92231,0.21046
1459.85077,0.20628
1461.77924,0.20043
1463.70771,0.19810
1465.63618,0.19221
1467.56465,0.18750
1469.49312,0.19178
1471.42159,0.20275
1473.35006,0.20897
1475.27852,0.20422
1477.20699,0.19734
1479.13546,0.19084
1481.06393,0.18520
1482.99240,0.18332
1484.92087,0.18669
1486.84934,0.19576
1488.77780,0.20769
1490.70627,0.20865
1492.63474,0.20077
1494.56321,0.19757
1496.49168,0.20049
1498.42015,0.20042
1500.34862,0.19528
1502.27709,0.19522
1504.20555,0.20632
1506.13402,0.22578
1508.06249,0.22208
1509.99096,0.20728
1511.91943,0.20322
1513.84790,0.20421
1515.77637,0.20621
1517.70483,0.20623
1519.63330,0.20657
1521.56177,0.21228
1523.49024,0.21422
1525.41871,0.20897
1527.34718,0.20223
1529.27565,0.19650
1531.20412,0.19577
1533.13258,0.20016
1535.06105,0.20346
1536.98952,0.20986
1538.91799,0.22745
1540.84646,0.24081
1542.77493,0.23006
1544.70340,0.21468
1546.63186,0.20151
1548.56033,0.19568
1550.48880,0.19549
1552.41727,0.19712
1554.34574,0.20235
1556.27421,0.21183
1558.20268,0.22283
1560.13115,0.21609
1562.05961,0.20256
1563.98808,0.19539
1565.91655,0.19391
1567.84502,0.19909
1569.77349,0.20325
1571.70196,0.19822
1573.63043,0.19563
1575.55889,0.20110
1577.48736,0.20249
1579.41583,0.19610
1581.34430,0.19195
1583.27277,0.19037
1585.20124,0.18752
1587.12971,0.18526
1589.05818,0.18747
1590.98664,0.19145
1592.91511,0.19383
1594.84358,0.19466
1596.77205,0.19360
1598.70052,0.19221
1600.62899,0.19215
1602.55746,0.19185
1604.48592,0.19062
1606.41439,0.18887
1608.34286,0.18708
1610.27133,0.18739
1612.19980,0.19040
1614.12827,0.19686
1616.05674,0.20660
1617.98521,0.20814
1619.91367,0.20194
1621.84214,0.19865
1623.77061,0.19839
1625.69908,0.19680
1627.62755,0.19276
1629.55602,0.19045
1631.48449,0.19371
1633.41295,0.20252
1635.34142,0.21450
1637.26989,0.21278
1639.19836,0.20345
1641.12683,0.20106
1643.05530,0.20495
1644.98377,0.21461
1646.91223,0.22621
1648.84070,0.22666
1650.76917,0.22838
1652.69764,0.24151
1654.62611,0.23385
1656.55458,0.21446
1658.48305,0.20559
1660.41152,0.20031
1662.33998,0.19526
1664.26845,0.19824
1666.19692,0.20856
1668.12539,0.21754
1670.05386,0.21547
1671.98233,0.20853
1673.91080,0.20505
1675.83926,0.19957
1677.76773,0.19692
1679.69620,0.19991
1681.62467,0.20089
1683.55314,0.19778
1685.48161,0.20133
1687.41008,0.20547
1689.33855,0.20296
1691.26701,0.19910
1693.19548,0.20278
1695.12395,0.21575
1697.05242,0.22835
1698.98089,0.23077
1700.90936,0.22160
1702.83783,0.21090
1704.76629,0.20618
1706.69476,0.20311
1708.62323,0.20111
1710.55170,0.20340
1712.48017,0.20774
1714.40864,0.21290
1716.33711,0.21949
1718.26558,0.21363
1720.19404,0.19870
1722.12251,0.18962
1724.05098,0.18687
1725.97945,0.18827
1727.90792,0.19252
1729.83639,0.19934
1731.76486,0.20626
1733.69332,0.20791
1735.62179,0.20155
1737.55026,0.19832
1739.47873,0.20036
1741.40720,0.20299
1743.33567,0.20408
1745.26414,0.20330
1747.19261,0.20098
1749.12107,0.19946
1751.04954,0.19729
1752.97801,0.19325
1754.90648,0.19107
1756.83495,0.19187
1758.76342,0.19488
1760.69189,0.19933
1762.62035,0.20058
1764.54882,0.19659
1766.47729,0.19289
1768.40576,0.19376
1770.33423,0.20085
1772.26270,0.20711
1774.19117,0.20206
1776.11964,0.19479
1778.04810,0.19375
1779.97657,0.19628
1781.90504,0.19737
1783.83351,0.19804
1785.76198,0.19825
1787.69045,0.19751
1789.61892,0.20040
1791.54738,0.20541
1793.47585,0.20395
1795.40432,0.19876
1797.33279,0.19510
1799.26126,0.19366
1801.18973,0.19417
1803.11820,0.19468
1805.04666,0.19517
1806.97513,0.19562
1808.90360,0.19492
1810.83207,0.19395
1812.76054,0.19331
1814.68901,0.19233
1816.61748,0.19112
1818.54595,0.19172
1820.47441,0.19567
1822.40288,0.19965
1824.33135,0.19970
1826.25982,0.19824
1828.18829,0.20023
1830.11676,0.20123
1832.04523,0.19738
1833.97369,0.19575
1835.90216,0.19653
1837.83063,0.19596
1839.75910,0.19693
1841.68757,0.20036
1843.61604,0.20027
1845.54451,0.19483
1847.47298,0.19131
1849.40144,0.19061
1851.32991,0.19066
1853.25838,0.19095
1855.18685,0.19025
1857.11532,0.18905
1859.04379,0.18914
1860.97226,0.18959
1862.90072,0.19011
1864.82919,0.19426
1866.75766,0.20188
1868.68613,0.20371
1870.61460,0.19640
1872.54307,0.18977
1874.47154,0.18735
1876.40001,0.18796
1878.32847,0.18888
1880.25694,0.18910
1882.18541,0.18999
1884.11388,0.19046
1886.04235,0.19056
1887.97082,0.19265
1889.89929,0.19431
1891.82775,0.19302
1893.75622,0.19285
1895.68469,0.19316
1897.61316,0.19033
1899.54163,0.18773
1901.47010,0.18797
1903.39857,0.18927
1905.32704,0.19058
1907.25550,0.19259
1909.18397,0.19373
1911.11244,0.19198
1913.04091,0.19051
1914.96938,0.19101
1916.89785,0.19047
1918.82632,0.18982
1920.75478,0.19297
1922.68325,0.19605
1924.61172,0.19419
1926.54019,0.19098
1928.46866,0.18988
1930.39713,0.18941
1932.32560,0.18799
1934.25407,0.18686
1936.18253,0.18783
1938.11100,0.19054
1940.03947,0.19345
1941.96794,0.19544
1943.89641,0.19590
1945.82488,0.19473
1947.75335,0.19218
1949.68181,0.18967
1951.61028,0.18909
1953.53875,0.19036
1955.46722,0.19105
1957.39569,0.19081
1959.32416,0.19231
1961.25263,0.19422
1963.18110,0.19441
1965.10956,0.19419
1967.03803,0.19318
1968.96650,0.19150
1970.89497,0.19071
1972.82344,0.19157
1974.75191,0.19347
1976.68038,0.19473
1978.60884,0.19484
1980.53731,0.19573
1982.46578,0.19671
1984.39425,0.19379
1986.32272,0.19059
1988.25119,0.19205
1990.17966,0.19599
1992.10812,0.19829
1994.03659,0.19575
1995.96506,0.19093
1997.89353,0.18822
1999.82200,0.18916
2001.75047,0.19223
2003.67894,0.19465
2005.60741,0.19560
2007.53587,0.19525
2009.46434,0.19410
2011.39281,0.19269
2013.32128,0.19267
2015.24975,0.19479
2017.17822,0.19550
2019.10669,0.19295
2021.03515,0.19105
2022.96362,0.19274
2024.89209,0.19562
2026.82056,0.19538
2028.74903,0.19231
2030.67750,0.18960
2032.60597,0.18764
2034.53444,0.18611
2036.46290,0.18642
2038.39137,0.18924
2040.31984,0.19260
2042.24831,0.19511
2044.17678,0.19639
2046.10525,0.19550
2048.03372,0.19467
2049.96218,0.19516
2051.89065,0.19479
2053.81912,0.19473
2055.74759,0.19629
2057.67606,0.19595
2059.60453,0.19273
2061.53300,0.19110
2063.46147,0.19217
2065.38993,0.19275
2067.31840,0.19340
2069.24687,0.19608
2071.17534,0.19729
2073.10381,0.19446
2075.03228,0.19130
2076.96075,0.19161
2078.88921,0.19429
2080.81768,0.19596
2082.74615,0.19654
2084.67462,0.19700
2086.60309,0.19593
2088.53156,0.19445
2090.46003,0.19543
2092.38850,0.19730
2094.31696,0.19705
2096.24543,0.19558
2098.17390,0.19442
2100.10237,0.19344
2102.03084,0.19246
2103.95931,0.19107
2105.88778,0.19068
2107.81624,0.19261
2109.74471,0.19374
2111.67318,0.19311
2113.60165,0.19452
2115.53012,0.19781
2117.45859,0.19819
2119.38706,0.19532
2121.31553,0.19366
2123.24399,0.19448
2125.17246,0.19565
2127.10093,0.19526
2129.02940,0.19434
2130.95787,0.19527
2132.88634,0.19560
2134.81481,0.19428
2136.74327,0.19515
2138.67174,0.19673
2140.60021,0.19504
2142.52868,0.19294
2144.45715,0.19338
2146.38562,0.19551
2148.31409,0.19812
2150.24255,0.19843
2152.17102,0.19720
2154.09949,0.19794
2156.02796,0.19804
2157.95643,0.19506
2159.88490,0.19174
2161.81337,0.18987
2163.74184,0.19032
2165.67030,0.19324
2167.59877,0.19593
2169.52724,0.19637
2171.45571,0.19551
2173.38418,0.19419
2175.31265,0.19293
2177.24112,0.19343
2179.16958,0.19479
2181.09805,0.19400
2183.02652,0.19149
2184.95499,0.18976
2186.88346,0.19072
2188.81193,0.19336
2190.74040,0.19417
2192.66887,0.19311
2194.59733,0.19287
2196.52580,0.19342
2198.45427,0.19374
2200.38274,0.19445
2202.31121,0.19566
2204.23968,0.19642
2206.16815,0.19632
2208.09661,0.19638
2210.02508,0.19697
2211.95355,0.19669
2213.88202,0.19546
2215.81049,0.19538
2217.73896,0.19735
2219.66743,0.19921
2221.59590,0.19972
2223.52436,0.19941
2225.45283,0.19708
2227.38130,0.19297
2229.30977,0.19176
2231.23824,0.19515
2233.16671,0.19838
2235.09518,0.19870
2237.02364,0.19734
2238.95211,0.19585
2240.88058,0.19588
2242.80905,0.19682
2244.73752,0.19644
2246.66599,0.19484
2248.59446,0.19496
2250.52293,0.19712
2252.45139,0.19831
2254.37986,0.19878
2256.30833,0.19944
2258.23680,0.19849
2260.16527,0.19615
2262.09374,0.19358
2264.02221,0.19248
2265.95067,0.19404
2267.87914,0.19506
2269.80761,0.19463
2271.73608,0.19527
2273.66455,0.19759
2275.59302,0.20012
2277.52149,0.20067
2279.44996,0.19872
2281.37842,0.19438
2283.30689,0.19052
2285.23536,0.19077
2287.16383,0.19215
2289.09230,0.19164
2291.02077,0.19065
2292.94924,0.18914
2294.87770,0.18720
2296.80617,0.18635
2298.73464,0.18614
2300.66311,0.18535
2302.59158,0.18371
2304.52005,0.18159
2306.44852,0.17994
2308.37699,0.17937
2310.30545,0.18042
2312.23392,0.18233
2314.16239,0.18103
2316.09086,0.17632
2318.01933,0.17207
2319.94780,0.16834
2321.87627,0.16547
2323.80473,0.16297
2325.73320,0.15568
2327.66167,0.14431
2329.59014,0.14140
2331.51861,0.15370
2333.44708,0.16073
2335.37555,0.15259
2337.30401,0.14752
2339.23248,0.14806
2341.16095,0.14673
2343.08942,0.15062
2345.01789,0.15391
2346.94636,0.15304
2348.87483,0.15993
2350.80330,0.17332
2352.73176,0.17979
2354.66023,0.17272
2356.58870,0.16509
2358.51717,0.15479
2360.44564,0.13943
2362.37411,0.13925
2364.30258,0.15333
2366.23104,0.16772
2368.15951,0.17427
2370.08798,0.17172
2372.01645,0.17031
2373.94492,0.17347
2375.87339,0.17724
2377.80186,0.18105
2379.73033,0.18614
2381.65879,0.19271
2383.58726,0.19847
2385.51573,0.20061
2387.44420,0.19929
2389.37267,0.19632
2391.30114,0.19331
2393.22961,0.19259
2395.15807,0.19433
2397.08654,0.19528
2399.01501,0.19536
2400.94348,0.19562
2402.87195,0.19533
2404.80042,0.19605
2406.72889,0.19782
2408.65736,0.19905
2410.58582,0.19982
2412.51429,0.19982
2414.44276,0.19995
2416.37123,0.20030
2418.29970,0.19967
2420.22817,0.19990
2422.15664,0.20092
2424.08510,0.19976
2426.01357,0.19806
2427.94204,0.19891
2429.87051,0.20025
2431.79898,0.19893
2433.72745,0.19592
2435.65592,0.19408
2437.58439,0.19503
2439.51285,0.19772
2441.44132,0.19910
2443.36979,0.19872
2445.29826,0.19827
2447.22673,0.19819
2449.15520,0.19758
2451.08367,0.19785
2453.01213,0.20180
2454.94060,0.20466
2456.86907,0.20215
2458.79754,0.20004
2460.72601,0.20008
2462.65448,0.19926
2464.58295,0.19691
2466.51142,0.19295
2468.43988,0.19110
2470.36835,0.19212
2472.29682,0.19254
2474.22529,0.19375
2476.15376,0.19649
2478.08223,0.19761
2480.01070,0.19596
2481.93916,0.19434
2483.86763,0.19481
2485.79610,0.19563
2487.72457,0.19544
2489.65304,0.19576
2491.58151,0.19635
2493.50998,0.19545
2495.43844,0.19501
2497.36691,0.19678
2499.29538,0.19852
2501.22385,0.19830
2503.15232,0.19701
2505.08079,0.19613
2507.00926,0.19622
2508.93773,0.19725
2510.86619,0.19764
2512.79466,0.19728
2514.72313,0.19814
2516.65160,0.19897
2518.58007,0.19753
2520.50854,0.19599
2522.43701,0.19775
2524.36547,0.20097
2526.29394,0.20079
2528.22241,0.19772
2530.15088,0.19561
2532.07935,0.19558
2534.00782,0.19686
2535.93629,0.19730
2537.86476,0.19684
2539.79322,0.19764
2541.72169,0.19890
2543.65016,0.19940
2545.57863,0.19923
2547.50710,0.19849
2549.43557,0.19760
2551.36404,0.19620
2553.29250,0.19579
2555.22097,0.19881
2557.14944,0.20203
2559.07791,0.20191
2561.00638,0.20025
2562.93485,0.19913
2564.86332,0.19776
2566.79179,0.19545
2568.72025,0.19602
2570.64872,0.19991
2572.57719,0.20132
2574.50566,0.19961
2576.43413,0.19773
2578.36260,0.19698
2580.29107,0.19846
2582.21953,0.20033
2584.14800,0.19907
2586.07647,0.19752
2588.00494,0.19989
2589.93341,0.20377
2591.86188,0.20668
2593.79035,0.20879
2595.71882,0.20902
2597.64728,0.20687
2599.57575,0.20332
2601.50422,0.19920
2603.43269,0.19718
2605.36116,0.19849
2607.28963,0.20078
2609.21810,0.20262
2611.14656,0.20269
2613.07503,0.20087
2615.00350,0.19927
2616.93197,0.19947
2618.86044,0.20153
2620.78891,0.20302
2622.71738,0.20244
2624.64585,0.20196
2626.57431,0.20258
2628.50278,0.20189
2630.43125,0.20060
2632.35972,0.20161
2634.28819,0.20328
2636.21666,0.20216
2638.14513,0.20017
2640.07359,0.20237
2642.00206,0.20655
2643.93053,0.20673
2645.85900,0.20386
2647.78747,0.20133
2649.71594,0.19920
2651.64441,0.19856
2653.57288,0.20194
2655.50134,0.20758
2657.42981,0.21009
2659.35828,0.20780
2661.28675,0.20484
2663.21522,0.20373
2665.14369,0.20322
2667.07216,0.20315
2669.00062,0.20469
2670.92909,0.20681
2672.85756,0.20645
2674.78603,0.20339
2676.71450,0.20131
2678.64297,0.20271
2680.57144,0.20496
2682.49990,0.20524
2684.42837,0.20552
2686.35684,0.20719
2688.28531,0.20652
2690.21378,0.20318
2692.14225,0.20200
2694.07072,0.20180
2695.99919,0.19973
2697.92765,0.19892
2699.85612,0.20184
2701.78459,0.20598
2703.71306,0.20939
2705.64153,0.21286
2707.57000,0.21436
2709.49847,0.21303
2711.42693,0.21107
2713.35540,0.20861
2715.28387,0.20773
2717.21234,0.21087
2719.14081,0.21412
2721.06928,0.21272
2722.99775,0.20817
2724.92622,0.20546
2726.85468,0.20707
2728.78315,0.21026
2730.71162,0.21132
2732.64009,0.21071
2734.56856,0.20988
2736.49703,0.20817
2738.42550,0.20545
2740.35396,0.20400
2742.28243,0.20459
2744.21090,0.20487
2746.13937,0.20486
2748.06784,0.20667
2749.99631,0.20828
2751.92478,0.20661
2753.85325,0.20467
2755.78171,0.20707
2757.71018,0.21141
2759.63865,0.21239
2761.56712,0.21083
2763.49559,0.21055
2765.42406,0.21228
2767.35253,0.21450
2769.28099,0.21573
2771.20946,0.21665
2773.13793,0.21749
2775.06640,0.21558
2776.99487,0.21111
2778.92334,0.20823
2780.85181,0.20792
2782.78028,0.20892
2784.70874,0.21175
2786.63721,0.21462
2788.56568,0.21325
2790.49415,0.20848
2792.42262,0.20781
2794.35109,0.21416
2796.27956,0.21963
2798.20802,0.21777
2800.13649,0.21300
2802.06496,0.21183
2803.99343,0.21343
2805.92190,0.21446
2807.85037,0.21449
2809.77884,0.21425
2811.70731,0.21382
2813.63577,0.21308
2815.56424,0.21366
2817.49271,0.21498
2819.42118,0.21393
2821.34965,0.21167
2823.27812,0.21100
2825.20659,0.21333
2827.13505,0.21801
2829.06352,0.21992
2830.99199,0.21771
2832.92046,0.21736
2834.84893,0.21979
2836.77740,0.21979
2838.70587,0.21693
2840.63433,0.21535
2842.56280,0.21662
2844.49127,0.21733
2846.41974,0.21548
2848.34821,0.21399
2850.27668,0.21385
2852.20515,0.21481
2854.13362,0.21663
2856.06208,0.21601
2857.99055,0.21452
2859.91902,0.21613
2861.84749,0.21818
2863.77596,0.21822
2865.70443,0.21688
2867.63290,0.21405
2869.56136,0.21219
2871.48983,0.21408
2873.41830,0.21597
2875.34677,0.21512
2877.27524,0.21470
2879.20371,0.21521
2881.13218,0.21370
2883.06065,0.21123
2884.98911,0.21131
2886.91758,0.21194
2888.84605,0.21077
2890.77452,0.20980
2892.70299,0.20898
2894.63146,0.20884
2896.55993,0.20995
2898.48839,0.20981
2900.41686,0.20758
2902.34533,0.20209
2904.27380,0.19582
2906.20227,0.19574
2908.13074,0.20132
2910.05921,0.20590
2911.98768,0.20623
2913.91614,0.20569
2915.84461,0.20819
2917.77308,0.21037
2919.70155,0.21088
2921.63002,0.21255
2923.55849,0.21255
2925.48696,0.20970
2927.41542,0.20877
2929.34389,0.21142
2931.27236,0.21544
2933.20083,0.21694
2935.12930,0.21201
2937.05777,0.20564
2938.98624,0.20814
2940.91471,0.21628
2942.84317,0.21990
2944.77164,0.21879
2946.70011,0.21546
2948.62858,0.21229
2950.55705,0.21256
2952.48552,0.21431
2954.41399,0.21093
2956.34245,0.20081
2958.27092,0.19779
2960.19939,0.20910
2962.12786,0.22069
2964.05633,0.22344
2965.98480,0.21864
2967.91327,0.21037
2969.84174,0.20733
2971.77020,0.21308
2973.69867,0.22108
2975.62714,0.22237
2977.55561,0.21742
2979.48408,0.21616
2981.41255,0.22059
2983.34102,0.22333
2985.26948,0.22057
2987.19795,0.21376
2989.12642,0.21097
2991.05489,0.21713
2992.98336,0.22260
2994.91183,0.22208
2996.84030,0.22118
2998.76877,0.22260
3000.69723,0.22513
3002.62570,0.22584
3004.55417,0.22306
3006.48264,0.21842
3008.41111,0.21274
3010.33958,0.20335
3012.26805,0.18902
3014.19651,0.16942
3016.12498,0.15212
3018.05345,0.16018
3019.98192,0.19340
3021.91039,0.21847
3023.83886,0.22260
3025.76733,0.22069
3027.69579,0.22165
3029.62426,0.22317
3031.55273,0.22142
3033.48120,0.21870
3035.40967,0.21907
3037.33814,0.21921
3039.26661,0.21849
3041.19508,0.21971
3043.12354,0.22252
3045.05201,0.22464
3046.98048,0.22364
3048.90895,0.22179
3050.83742,0.22024
3052.76589,0.21930
3054.69436,0.21772
3056.62282,0.21285
3058.55129,0.21473
3060.47976,0.22555
3062.40823,0.22889
3064.33670,0.21947
3066.26517,0.20975
3068.19364,0.21282
3070.12211,0.22254
3072.05057,0.22428
3073.97904,0.21976
3075.90751,0.21673
3077.83598,0.21685
3079.76445,0.21787
3081.69292,0.21654
3083.62139,0.21084
3085.54985,0.20417
3087.47832,0.20527
3089.40679,0.21345
3091.33526,0.21601
3093.26373,0.20649
3095.19220,0.19942
3097.12067,0.20764
3099.04914,0.22002
3100.97760,0.22345
3102.90607,0.21769
3104.83454,0.21499
3106.76301,0.22328
3108.69148,0.23184
3110.61995,0.22903
3112.54842,0.22038
3114.47688,0.22045
3116.40535,0.22703
3118.33382,0.22792
3120.26229,0.22318
3122.19076,0.21928
3124.11923,0.22060
3126.04770,0.22396
3127.97617,0.22270
3129.90463,0.21802
3131.83310,0.21543
3133.76157,0.21700
3135.69004,0.22091
3137.61851,0.22246
3139.54698,0.22002
3141.47545,0.21815
3143.40391,0.22036
3145.33238,0.22511
3147.26085,0.22744
3149.18932,0.22512
3151.11779,0.22240
3153.04626,0.22172
3154.97473,0.22213
3156.90320,0.22548
3158.83166,0.22939
3160.76013,0.22748
3162.68860,0.22323
3164.61707,0.22606
3166.54554,0.23540
3168.47401,0.23994
3170.40248,0.23670
3172.33094,0.23298
3174.25941,0.23070
3176.18788,0.22843
3178.11635,0.22761
3180.04482,0.22865
3181.97329,0.22816
3183.90176,0.22644
3185.83022,0.22813
3187.75869,0.23103
3189.68716,0.22987
3191.61563,0.22692
3193.54410,0.22820
3195.47257,0.23116
3197.40104,0.22783
3199.32951,0.22310
3201.25797,0.22511
3203.18644,0.23067
3205.11491,0.23250
3207.04338,0.22695
3208.97185,0.22036
3210.90032,0.22108
3212.82879,0.22780
3214.75725,0.23398
3216.68572,0.23501
3218.61419,0.23263
3220.54266,0.23071
3222.47113,0.22912
3224.39960,0.22496
3226.32807,0.21946
3228.25654,0.21651
3230.18500,0.21646
3232.11347,0.21947
3234.04194,0.22368
3235.97041,0.22541
3237.89888,0.22600
3239.82735,0.22863
3241.75582,0.23271
3243.68428,0.23266
3245.61275,0.22627
3247.54122,0.22228
3249.46969,0.22330
3251.39816,0.22168
3253.32663,0.21887
3255.25510,0.21976
3257.18357,0.22234
3259.11203,0.22601
3261.04050,0.23028
3262.96897,0.23132
3264.89744,0.22914
3266.82591,0.22726
3268.75438,0.22715
3270.68285,0.22723
3272.61131,0.22531
3274.53978,0.22282
3276.46825,0.22232
3278.39672,0.22333
3280.32519,0.22422
3282.25366,0.22563
3284.18213,0.22862
3286.11060,0.23152
3288.03906,0.23170
3289.96753,0.22833
3291.89600,0.22540
3293.82447,0.22569
3295.75294,0.22610
3297.68141,0.22424
3299.60988,0.22291
3301.53834,0.22615
3303.46681,0.22959
3305.39528,0.22908
3307.32375,0.22712
3309.25222,0.22492
3311.18069,0.22537
3313.10916,0.22899
3315.03763,0.23108
3316.96609,0.22852
3318.89456,0.22179
3320.82303,0.21745
3322.75150,0.22093
3324.67997,0.22684
3326.60844,0.22837
3328.53691,0.22646
3330.46537,0.22457
3332.39384,0.22430
3334.32231,0.22602
3336.25078,0.22956
3338.17925,0.23350
3340.10772,0.23630
3342.03619,0.23777
3343.96466,0.23692
3345.89312,0.23204
3347.82159,0.22598
3349.75006,0.22540
3351.67853,0.22882
3353.60700,0.22876
3355.53547,0.22611
3357.46394,0.22530
3359.39240,0.22392
3361.32087,0.22056
3363.24934,0.22249
3365.17781,0.23067
3367.10628,0.23412
3369.03475,0.23293
3370.96322,0.23628
3372.89168,0.24034
3374.82015,0.23815
3376.74862,0.23383
3378.67709,0.23172
3380.60556,0.23086
3382.53403,0.23205
3384.46250,0.23644
3386.39097,0.23989
3388.31943,0.23799
3390.24790,0.23310
3392.17637,0.23198
3394.10484,0.23508
3396.03331,0.23453
3397.96178,0.22948
3399.89025,0.22714
3401.81871,0.22776
3403.74718,0.22674
3405.67565,0.22425
3407.60412,0.22201
3409.53259,0.22054
3411.46106,0.21990
3413.38953,0.22041
3415.31800,0.22433
3417.24646,0.23202
3419.17493,0.23760
3421.10340,0.23406
3423.03187,0.22451
3424.96034,0.21708
3426.88881,0.21289
3428.81728,0.21159
3430.74574,0.21424
3432.67421,0.21855
3434.60268,0.22077
3436.53115,0.21969
3438.45962,0.21839
3440.38809,0.21838
3442.31656,0.21600
3444.24503,0.21232
3446.17349,0.21276
3448.10196,0.21622
3450.03043,0.21645
3451.95890,0.21182
3453.88737,0.20633
3455.81584,0.20280
3457.74431,0.20097
3459.67277,0.19983
3461.60124,0.19975
3463.52971,0.20246
3465.45818,0.20456
3467.38665,0.20286
3469.31512,0.20407
3471.24359,0.21025
3473.17206,0.21156
3475.10052,0.20616
3477.02899,0.20175
3478.95746,0.19951
3480.88593,0.19689
3482.81440,0.19563
3484.74287,0.19595
3486.67134,0.19513
3488.59980,0.19423
3490.52827,0.19525
3492.45674,0.19638
3494.38521,0.19586
3496.31368,0.19536
3498.24215,0.19684
3500.17062,0.19903
3502.09909,0.19989
3504.02755,0.19808
3505.95602,0.19452
3507.88449,0.19249
3509.81296,0.19088
3511.74143,0.18733
3513.66990,0.18533
3515.59837,0.18558
3517.52683,0.18502
3519.45530,0.18302
3521.38377,0.18245
3523.31224,0.18569
3525.24071,0.18984
3527.16918,0.19431
3529.09765,0.19562
3531.02611,0.18928
3532.95458,0.18437
3534.88305,0.18404
3536.81152,0.18261
3538.73999,0.18202
3540.66846,0.18430
3542.59693,0.18842
3544.52540,0.19368
3546.45386,0.19462
3548.38233,0.19036
3550.31080,0.18608
3552.23927,0.18190
3554.16774,0.17917
3556.09621,0.17990
3558.02468,0.17996
3559.95314,0.17582
3561.88161,0.17199
3563.81008,0.17327
3565.73855,0.17944
3567.66702,0.18809
3569.59549,0.18818
3571.52396,0.18036
3573.45243,0.17401
3575.38089,0.17053
3577.30936,0.16802
3579.23783,0.16537
3581.16630,0.16104
3583.09477,0.15995
3585.02324,0.16821
3586.95171,0.17672
3588.88017,0.17114
3590.80864,0.16530
3592.73711,0.16823
3594.66558,0.17352
3596.59405,0.17297
3598.52252,0.16726
3600.45099,0.16340
3602.37946,0.16060
3604.30792,0.15524
3606.23639,0.15081
3608.16486,0.15384
3610.09333,0.16161
3612.02180,0.16372
3613.95027,0.16056
3615.87874,0.15840
3617.80720,0.16025
3619.73567,0.16071
3621.66414,0.15416
3623.59261,0.15048
3625.52108,0.15429
3627.44955,0.16081
3629.37802,0.15954
3631.30649,0.15110
3633.23495,0.14674
3635.16342,0.14682
3637.09189,0.14984
3639.02036,0.15283
3640.94883,0.15276
3642.87730,0.15162
3644.80577,0.15576
3646.73423,0.16629
3648.66270,0.16806
3650.59117,0.15661
3652.51964,0.15583
3654.44811,0.16090
3656.37658,0.16160
3658.30505,0.15646
3660.23352,0.15181
3662.16198,0.14768
3664.09045,0.14290
3666.01892,0.14013
3667.94739,0.14366
3669.87586,0.15258
3671.80433,0.15468
3673.73280,0.15131
3675.66126,0.15269
3677.58973,0.15876
3679.51820,0.15857
3681.44667,0.15219
3683.37514,0.14568
3685.30361,0.14306
3687.23208,0.14461
3689.16055,0.14822
3691.08901,0.15049
3693.01748,0.14925
3694.94595,0.14452
3696.87442,0.13833
3698.80289,0.13401
3700.73136,0.13284
3702.65983,0.13567
3704.58829,0.14098
3706.51676,0.14284
3708.44523,0.14048
3710.37370,0.14053
3712.30217,0.14254
3714.23064,0.13866
3716.15911,0.13454
3718.08757,0.13589
3720.01604,0.14220
3721.94451,0.14980
3723.87298,0.15388
3725.80145,0.15285
3727.72992,0.15144
3729.65839,0.15383
3731.58686,0.16045
3733.51532,0.16645
3735.44379,0.16296
3737.37226,0.15397
3739.30073,0.14879
3741.22920,0.14607
3743.15767,0.14693
3745.08614,0.15789
3747.01460,0.16795
3748.94307,0.16992
3750.87154,0.16422
3752.80001,0.14987
3754.72848,0.14036
3756.65695,0.14020
3758.58542,0.14499
3760.51389,0.14571
3762.44235,0.14182
3764.37082,0.14117
3766.29929,0.14264
3768.22776,0.14061
3770.15623,0.13674
3772.08470,0.13324
3774.01317,0.13061
3775.94163,0.12987
3777.87010,0.13309
3779.79857,0.14031
3781.72704,0.14357
3783.65551,0.13978
3785.58398,0.13422
3787.51245,0.13247
3789.44092,0.13372
3791.36938,0.13478
3793.29785,0.13482
3795.22632,0.13497
3797.15479,0.13900
3799.08326,0.14647
3801.01173,0.14936
3802.94020,0.14725
3804.86866,0.14901
3806.79713,0.15010
3808.72560,0.14406
3810.65407,0.13813
3812.58254,0.13701
3814.51101,0.13726
3816.43948,0.13641
3818.36795,0.13737
3820.29641,0.13808
3822.22488,0.13656
3824.15335,0.13887
3826.08182,0.14339
3828.01029,0.14388
3829.93876,0.14019
3831.86723,0.13392
3833.79569,0.12651
3835.72416,0.12725
3837.65263,0.14125
3839.58110,0.14928
3841.50957,0.14130
3843.43804,0.13505
3845.36651,0.13744
3847.29498,0.14126
3849.22344,0.14157
3851.15191,0.14341
3853.08038,0.14895
3855.00885,0.14108
3856.93732,0.13473
3858.86579,0.13892
3860.79426,0.14669
3862.72272,0.15281
3864.65119,0.15337
3866.57966,0.15008
3868.50813,0.14981
3870.43660,0.15130
3872.36507,0.14779
3874.29354,0.13989
3876.22200,0.13244
3878.15047,0.12844
3880.07894,0.12441
3882.00741,0.12349
3883.93588,0.13226
3885.86435,0.14026
3887.79282,0.13663
3889.72129,0.13140
3891.64975,0.13050
3893.57822,0.12772
3895.50669,0.12278
3897.43516,0.12176
3899.36363,0.12793
3901.29210,0.13546
3903.22057,0.13540
3905.14903,0.13242
3907.07750,0.13284
3909.00597,0.13230
3910.93444,0.12729
3912.86291,0.12341
3914.79138,0.12418
3916.71985,0.12438
3918.64832,0.12330
3920.57678,0.12433
3922.50525,0.12700
3924.43372,0.12893
3926.36219,0.12726
3928.29066,0.12377
3930.21913,0.12386
3932.14760,0.12542
3934.07606,0.12321
3936.00453,0.12094
3937.93300,0.11701
3939.86147,0.11072
3941.78994,0.11099
3943.71841,0.11699
3945.64688,0.11955
3947.57535,0.11852
3949.50381,0.11789
3951.43228,0.12007
3953.36075,0.12259
3955.28922,0.12219
3957.21769,0.11933
3959.14616,0.11557
3961.07463,0.11171
3963.00309,0.10681
3964.93156,0.10345
3966.86003,0.10594
3968.78850,0.10960
3970.71697,0.10950
3972.64544,0.10735
3974.57391,0.10483
3976.50238,0.10499
3978.43084,0.10917
3980.35931,0.11264
3982.28778,0.11352
3984.21625,0.11460
3986.14472,0.11411
3988.07319,0.11118
3990.00166,0.11140
3991.93012,0.11419
3993.85859,0.11395
3995.78706,0.11011
3997.71553,0.10439
3999.64400,0.10040
4001.57247,0.10076
4003.50094,0.10335
4005.42941,0.10571
4007.35787,0.10752
4009.28634,0.11100
4011.21481,0.11606
4013.14328,0.11757
4015.07175,0.11396
4017.00022,0.11196
4018.92869,0.11559
4020.85715,0.11854
4022.78562,0.11747
4024.71409,0.11510
4026.64256,0.11321
4028.57103,0.11508
4030.49950,0.11934
4032.42797,0.12041
4034.35644,0.11833
4036.28490,0.11491
4038.21337,0.10974
4040.14184,0.10407
4042.07031,0.09987
4043.99878,0.09919
4045.92725,0.10356
4047.85572,0.10491
4049.78418,0.10010
4051.71265,0.10182
4053.64112,0.10907
4055.56959,0.10999
4057.49806,0.10777
4059.42653,0.10886
4061.35500,0.10881
4063.28346,0.10258
4065.21193,0.09468
4067.14040,0.09190
4069.06887,0.09314
4070.99734,0.09446
4072.92581,0.09555
4074.85428,0.09480
4076.78275,0.09355
4078.71121,0.09478
4080.63968,0.09656
4082.56815,0.10035
4084.49662,0.10461
4086.42509,0.10532
4088.35356,0.10461
4090.28203,0.10233
4092.21049,0.09902
4094.13896,0.09812
4096.06743,0.09877
4097.99590,0.09821
4099.92437,0.09551
4101.85284,0.09281
4103.78131,0.09368
4105.70978,0.09496
4107.63824,0.09192
4109.56671,0.08812
4111.49518,0.08608
4113.42365,0.08849
4115.35212,0.09662
4117.28059,0.10064
4119.20906,0.09661
4121.13752,0.09285
4123.06599,0.09507
4124.99446,0.09961
4126.92293,0.10015
4128.85140,0.09837
4130.77987,0.09775
4132.70834,0.09780
4134.63681,0.09824
4136.56527,0.09840
4138.49374,0.09678
4140.42221,0.09163
4142.35068,0.08514
4144.27915,0.08260
4146.20762,0.08344
4148.13609,0.08480
4150.06455,0.08807
4151.99302,0.09238
4153.92149,0.09478
4155.84996,0.09542
4157.77843,0.09231
4159.70690,0.08488
4161.63537,0.07894
4163.56384,0.07838
4165.49230,0.08307
4167.42077,0.08925
4169.34924,0.09090
4171.27771,0.08915
4173.20618,0.08865
4175.13465,0.08829
4177.06312,0.08774
4178.99158,0.08822
4180.92005,0.08736
4182.84852,0.08370
4184.77699,0.07961
4186.70546,0.07697
4188.63393,0.07231
4190.56240,0.06633
4192.49087,0.06620
4194.41933,0.06909
4196.34780,0.07107
4198.27627,0.07753
4200.20474,0.08692
4202.13321,0.09140
4204.06168,0.09195
4205.99015,0.09236
4207.91861,0.08943
4209.84708,0.08319
4211.77555,0.08069
4213.70402,0.08232
4215.63249,0.08291
4217.56096,0.07986
4219.48943,0.07385
4221.41789,0.07043
4223.34636,0.07406
4225.27483,0.07880
4227.20330,0.08094
4229.13177,0.08362
4231.06024,0.08129
4232.98871,0.07397
4234.91718,0.07192
4236.84564,0.07333
4238.77411,0.07439
4240.70258,0.07755
4242.63105,0.08015
4244.55952,0.07895
4246.48799,0.07595
4248.41646,0.07370
4250.34492,0.07022
4252.27339,0.06612
4254.20186,0.06723
4256.13033,0.07297
4258.05880,0.07707
4259.98727,0.07550
4261.91574,0.07090
4263.84421,0.07057
4265.77267,0.07283
4267.70114,0.06886
4269.62961,0.06256
4271.55808,0.06233
4273.48655,0.06146
4275.41502,0.05781
4277.34349,0.05842
4279.27195,0.06332
4281.20042,0.07173
4283.12889,0.07869
4285.05736,0.07672
4286.98583,0.06865
4288.91430,0.06404
4290.84277,0.06615
4292.77124,0.06771
4294.69970,0.06390
4296.62817,0.05842
4298.55664,0.05674
4300.48511,0.05807
4302.41358,0.05841
4304.34205,0.05868
4306.27052,0.06142
4308.19898,0.06391
4310.12745,0.06084
4312.05592,0.05729
4313.98439,0.05896
4315.91286,0.05779
4317.84133,0.05214
4319.76980,0.05031
4321.69827,0.05282
4323.62673,0.05636
4325.55520,0.05674
4327.48367,0.05009
4329.41214,0.04277
4331.34061,0.04338
4333.26908,0.05098
4335.19755,0.06079
4337.12601,0.06483
4339.05448,0.05786
4340.98295,0.04986
4342.91142,0.04899
4344.83989,0.05158
4346.76836,0.05547
4348.69683,0.05726
4350.62530,0.05154
4352.55376,0.04101
4354.48223,0.03318
4356.41070,0.03299
4358.33917,0.04095
4360.26764,0.04973
4362.19611,0.05145
4364.12458,0.04920
4366.05304,0.04708
4367.98151,0.04290
4369.90998,0.03845
4371.83845,0.03818
4373.76692,0.03909
4375.69539,0.03744
4377.62386,0.03563
4379.55232,0.03439
4381.48079,0.03502
4383.40926,0.04094
4385.33773,0.04453
4387.26620,0.03943
4389.19467,0.03995
4391.12314,0.04893
4393.05161,0.04932
4394.98007,0.04243
4396.90854,0.03896
4398.83701,0.04003
4400.76548,0.04170
4402.69395,0.04099
4404.62242,0.03976
4406.55089,0.03893
4408.47935,0.03673
4410.40782,0.03265
4412.33629,0.02988
4414.26476,0.02868
4416.19323,0.02760
4418.12170,0.03132
4420.05017,0.03813
4421.97864,0.03967
4423.90710,0.03752
4425.83557,0.03335
4427.76404,0.02565
4429.69251,0.02236
4431.62098,0.02377
4433.54945,0.02222
4435.47792,0.01974
4437.40638,0.02153
4439.33485,0.02724
4441.26332,0.03016
4443.19179,0.03000
4445.12026,0.03229
4447.04873,0.03422
4448.97720,0.03180
4450.90567,0.03194
4452.83413,0.04011
4454.76260,0.04485
4456.69107,0.03700
4458.61954,0.02568
4460.54801,0.02295
4462.47648,0.02761
4464.40495,0.03174
4466.33341,0.03072
4468.26188,0.02663
4470.19035,0.02693
4472.11882,0.02919
4474.04729,0.02402
4475.97576,0.01365
4477.90423,0.00624
4479.83270,0.00562
4481.76116,0.01271
4483.68963,0.02100
4485.61810,0.02385
4487.54657,0.02533
4489.47504,0.02905
4491.40351,0.02997
4493.33198,0.02423
4495.26044,0.02058
4497.18891,0.02327
4499.11738,0.02492
4501.04585,0.02520
4502.97432,0.02494
4504.90279,0.02141
4506.83126,0.01925
4508.75973,0.02266
4510.68819,0.02650
4512.61666,0.02602
4514.54513,0.02272
4516.47360,0.01968
4518.40207,0.01789
4520.33054,0.01643
4522.25901,0.01472
4524.18747,0.01448
4526.11594,0.01711
4528.04441,0.01561
4529.97288,0.00649
4531.90135,0.00391
4533.82982,0.01626
4535.75829,0.03037
4537.68676,0.03235
4539.61522,0.02144
4541.54369,0.00805
4543.47216,0.00699
4545.40063,0.01438
4547.32910,0.01577
4549.25757,0.01323
4551.18604,0.01399
4553.11450,0.01786
4555.04297,0.01593
4556.97144,0.00607
4558.89991,0.00280
4560.82838,0.00936
4562.75685,0.01528
4564.68532,0.01573
4566.61378,0.01186
4568.54225,0.00928
4570.47072,0.01313
4572.39919,0.01699
4574.32766,0.01109
4576.25613,0.00218
4578.18460,0.00145
4580.11307,0.00768
4582.04153,0.01820
4583.97000,0.02887
4585.89847,0.02927
4587.82694,0.01666
4589.75541,0.00280
4591.68388,-0.00125
4593.61235,0.00579
4595.54081,0.01901
4597.46928,0.02946
4599.39775,0.03146
4601.32622,0.02495
4603.25469,0.01223
4605.18316,0.00028
4607.11163,-0.00003
4609.04010,0.00941
4610.96856,0.01251
4612.89703,0.00942
4614.82550,0.00688
4616.75397,-0.00246
4618.68244,-0.00968
4620.61091,-0.00001
4622.53938,0.01170
4624.46784,0.00964
4626.39631,0.00430
4628.32478,0.00605
4630.25325,0.00679
4632.18172,0.00359
4634.11019,0.00404
4636.03866,0.00789
4637.96713,0.00829
4639.89559,0.00163
4641.82406,-0.00688
4643.75253,-0.00869
4645.68100,-0.00271
4647.60947,0.00749
4649.53794,0.01553
4651.46641,0.01620
4653.39487,0.00916
4655.32334,-0.00302
4657.25181,-0.01004
4659.18028,-0.00250
4661.10875,0.01010
4663.03722,0.01245
4664.96569,0.00837
4666.89416,0.01051
4668.82262,0.01918
4670.75109,0.02215
4672.67956,0.01554
4674.60803,0.01129
4676.53650,0.01214
4678.46497,0.01247
4680.39344,0.01244
4682.32190,0.01055
4684.25037,0.00799
4686.17884,0.00974
4688.10731,0.00996
4690.03578,0.00573
4691.96425,0.01030
4693.89272,0.02113
4695.82119,0.02235
4697.74965,0.01659
4699.67812,0.01568
4701.60659,0.02063
4703.53506,0.02041
4705.46353,0.01272
4707.39200,0.00751
4709.32047,0.00797
4711.24893,0.01128
4713.17740,0.01565
4715.10587,0.01758
4717.03434,0.01154
4718.96281,0.00167
4720.89128,-0.00096
4722.81975,0.00232
4724.74821,0.00206
4726.67668,0.00008
4728.60515,0.00041
4730.53362,-0.00033
4732.46209,0.00085
4734.39056,0.00921
4736.31903,0.02071
4738.24750,0.02284
4740.17596,0.01054
4742.10443,0.00051
4744.03290,0.00308
4745.96137,0.01035
4747.88984,0.01410
4749.81831,0.01232
4751.74678,0.01032
4753.67524,0.00337
4755.60371,-0.00710
4757.53218,-0.00194
4759.46065,0.01259
4761.38912,0.01471
4763.31759,0.00776
4765.24606,0.00539
4767.17453,0.00827
4769.10299,0.01234
4771.03146,0.01860
4772.95993,0.02305
4774.88840,0.02122
4776.81687,0.01636
4778.74534,0.00642
4780.67381,-0.00911
4782.60227,-0.01488
4784.53074,-0.00673
4786.45921,-0.00036
4788.38768,-0.00037
4790.31615,0.00002
4792.24462,0.00142
4794.17309,0.00055
4796.10156,-0.00681
4798.03002,-0.01635
4799.95849,-0.01489
4801.88696,0.00170
4803.81543,0.02036
4805.74390,0.02621
4807.67237,0.02315
4809.60084,0.02081
4811.52930,0.01211
4813.45777,-0.00581
4815.38624,-0.01432
4817.31471,-0.00588
4819.24318,0.00492
4821.17165,0.01231
4823.10012,0.01717
4825.02859,0.01454
4826.95705,0.01113
4828.88552,0.01379
4830.81399,0.01639
4832.74246,0.01800
4834.67093,0.02133
4836.59940,0.02343
4838.52787,0.02010
4840.45633,0.01379
4842.38480,0.00700
4844.31327,0.00006
4846.24174,-0.00139
4848.17021,0.00228
4850.09868,0.00053
4852.02715,-0.00884
4853.95562,-0.01330
4855.88408,-0.01159
4857.81255,-0.01166
4859.74102,-0.00727
4861.66949,0.00562
4863.59796,0.01127
4865.52643,0.00227
4867.45490,-0.00677
4869.38336,-0.00797
4871.31183,-0.00251
4873.24030,0.00997
4875.16877,0.01659
4877.09724,0.00857
4879.02571,0.00375
4880.95418,0.01334
4882.88265,0.02083
4884.81111,0.01873
4886.73958,0.01606
4888.66805,0.01004
4890.59652,0.00234
4892.52499,0.00498
4894.45346,0.01093
4896.38193,0.00937
4898.31039,0.00650
4900.23886,0.00864
4902.16733,0.00974
4904.09580,0.00373
4906.02427,-0.00008
4907.95274,0.00250
4909.88121,-0.00004
4911.80967,-0.00860
4913.73814,-0.01020
4915.66661,-0.00557
4917.59508,-0.00335
4919.52355,0.00279
4921.45202,0.01263
4923.38049,0.01513
4925.30896,0.01352
4927.23742,0.01367
4929.16589,0.01473
4931.09436,0.01143
4933.02283,0.00596
4934.95130,0.00753
4936.87977,0.00839
4938.80824,-0.00009
4940.73670,-0.00856
4942.66517,-0.00901
4944.59364,-0.00977
4946.52211,-0.01925
4948.45058,-0.02060
4950.37905,-0.00285
4952.30752,0.01243
4954.23599,0.00954
4956.16445,0.00372
4958.09292,0.00777
4960.02139,0.01389
4961.94986,0.02090
4963.87833,0.03188
4965.80680,0.03297
4967.73527,0.02276
4969.66373,0.01893
4971.59220,0.02264
4973.52067,0.02550
4975.44914,0.02312
4977.37761,0.01060
4979.30608,-0.00003
4981.23455,-0.00005
4983.16302,-0.00260
4985.09148,-0.00603
4987.01995,-0.00032
4988.94842,0.00464
4990.87689,0.00166
4992.80536,0.00278
4994.73383,0.00935
4996.66230,0.01165
4998.59076,0.01302
5000.51923,0.01743
5002.44770,0.02386
5004.37617,0.02726
5006.30464,0.02141
5008.23311,0.01312
5010.16158,0.02003
5012.09005,0.03952
5014.01851,0.04436
5015.94698,0.03077
5017.87545,0.02368
5019.80392,0.03349
5021.73239,0.04102
5023.66086,0.03241
5025.58933,0.02298
5027.51779,0.01798
5029.44626,0.00709
5031.37473,0.00143
5033.30320,0.01234
5035.23167,0.02419
5037.16014,0.02619
5039.08861,0.02148
5041.01708,0.01118
5042.94554,0.00712
5044.87401,0.01989
5046.80248,0.03689
5048.73095,0.03839
5050.65942,0.02741
5052.58789,0.02150
5054.51636,0.02276
5056.44482,0.02009
5058.37329,0.00706
5060.30176,-0.00016
5062.23023,0.01012
5064.15870,0.01586
5066.08717,0.01237
5068.01564,0.01657
5069.94410,0.02636
5071.87257,0.03876
5073.80104,0.04849
5075.72951,0.04321
5077.65798,0.03325
5079.58645,0.02662
5081.51492,0.01102
5083.44339,-0.00419
5085.37185,-0.00079
5087.30032,0.00777
5089.22879,0.00189
5091.15726,-0.00813
5093.08573,-0.00129
5095.01420,0.02641
5096.94267,0.05558
5098.87113,0.06401
5100.79960,0.05945
5102.72807,0.05211
5104.65654,0.03490
5106.58501,0.01791
5108.51348,0.00983
5110.44195,0.00385
5112.37042,0.00333
5114.29888,-0.00092
5116.22735,-0.01162
5118.15582,-0.00814
5120.08429,0.00456
5122.01276,0.01789
5123.94123,0.03763
5125.86970,0.05374
5127.79816,0.05650
5129.72663,0.04966
5131.65510,0.04046
5133.58357,0.03694
5135.51204,0.03490
5137.44051,0.02640
5139.36898,0.02711
5141.29745,0.04590
5143.22591,0.05606
5145.15438,0.04706
5147.08285,0.04014
5149.01132,0.04523
5150.93979,0.05291
5152.86826,0.04917
5154.79673,0.04224
5156.72519,0.04753
5158.65366,0.05079
5160.58213,0.04430
5162.51060,0.04028
5164.43907,0.04065
5166.36754,0.03987
5168.29601,0.03372
5170.22448,0.02446
5172.15294,0.01742
5174.08141,0.01387
5176.00988,0.01913
5177.93835,0.02844
5179.86682,0.03387
5181.79529,0.03752
5183.72376,0.02986
5185.65222,0.01464
5187.58069,0.01504
5189.50916,0.02884
5191.43763,0.04148
5193.36610,0.04658
5195.29457,0.03786
5197.22304,0.01792
5199.15151,0.01438
5201.07997,0.03827
5203.00844,0.06993
5204.93691,0.09134
5206.86538,0.07917
5208.79385,0.04245
5210.72232,0.02078
5212.65079,0.01823
5214.57925,0.02199
5216.50772,0.02481
5218.43619,0.03253
5220.36466,0.05283
5222.29313,0.06702
5224.22160,0.05970
5226.15007,0.04761
5228.07854,0.04439
5230.00700,0.04309
5231.93547,0.04058
5233.86394,0.03310
5235.79241,0.01845
5237.72088,0.01162
5239.64935,0.02483
5241.57782,0.04327
5243.50628,0.05132
5245.43475,0.04504
5247.36322,0.02766
5249.29169,0.01721
5251.22016,0.02795
5253.14863,0.04937
5255.07710,0.06280
5257.00556,0.06146
5258.93403,0.04874
5260.86250,0.03961
5262.79097,0.05304
5264.71944,0.07383
5266.64791,0.07294
5268.57638,0.04391
5270.50485,0.01514
5272.43331,0.02785
5274.36178,0.05491
5276.29025,0.05380
5278.21872,0.04446
5280.14719,0.04326
5282.07566,0.04146
5284.00413,0.05203
5285.93259,0.07225
5287.86106,0.07245
5289.78953,0.05522
5291.71800,0.04912
5293.64647,0.05102
5295.57494,0.04449
5297.50341,0.03548
5299.43188,0.03330
5301.36034,0.03822
5303.28881,0.04269
5305.21728,0.05670
5307.14575,0.08282
5309.07422,0.08455
5311.00269,0.06283
5312.93116,0.05019
5314.85962,0.05047
5316.78809,0.05522
5318.71656,0.05185
5320.64503,0.03630
5322.57350,0.03020
5324.50197,0.04585
5326.43044,0.05859
5328.35891,0.04992
5330.28737,0.03507
5332.21584,0.03392
5334.14431,0.05155
5336.07278,0.07010
5338.00125,0.07339
5339.92972,0.06925
5341.85819,0.07195
5343.78665,0.07596
5345.71512,0.06716
5347.64359,0.05268
5349.57206,0.04349
5351.50053,0.04749
5353.42900,0.07177
5355.35747,0.09289
5357.28594,0.09043
5359.21440,0.07670
5361.14287,0.07155
5363.07134,0.08045
5364.99981,0.08176
5366.92828,0.07145
5368.85675,0.06100
5370.78522,0.04423
5372.71368,0.04169
5374.64215,0.06949
5376.57062,0.08386
5378.49909,0.07482
5380.42756,0.07671
5382.35603,0.08763
5384.28450,0.08854
5386.21297,0.07794
5388.14143,0.07544
5390.06990,0.07465
5391.99837,0.06462
5393.92684,0.05797
5395.85531,0.06389
5397.78378,0.07473
5399.71225,0.09121
5401.64071,0.10833
5403.56918,0.10150
5405.49765,0.07137
5407.42612,0.04819
5409.35459,0.04739
5411.28306,0.05829
5413.21153,0.06556
5415.13999,0.05917
5417.06846,0.03921
5418.99693,0.02086
5420.92540,0.01858
5422.85387,0.03904
5424.78234,0.06777
5426.71081,0.07881
5428.63928,0.07606
5430.56774,0.07398
5432.49621,0.06321
5434.42468,0.04823
5436.35315,0.04660
5438.28162,0.05230
5440.21009,0.06309
5442.13856,0.08415
5444.06702,0.10354
5445.99549,0.10879
5447.92396,0.11026
5449.85243,0.11513
5451.78090,0.10609
5453.70937,0.09296
5455.63784,0.09260
5457.56631,0.08156
5459.49477,0.05486
5461.42324,0.05233
5463.35171,0.07468
5465.28018,0.08994
5467.20865,0.08816
5469.13712,0.07780
5471.06559,0.08533
5472.99405,0.10437
5474.92252,0.09501
5476.85099,0.06576
5478.77946,0.05764
5480.70793,0.07915
5482.63640,0.09954
5484.56487,0.08276
5486.49334,0.05862
5488.42180,0.06456
5490.35027,0.07065
5492.27874,0.05149
5494.20721,0.03644
5496.13568,0.03919
5498.06415,0.04615
5499.99262,0.05059
5501.92108,0.05073
5503.84955,0.06403
5505.77802,0.09264
5507.70649,0.10080
5509.63496,0.08314
5511.56343,0.07206
5513.49190,0.06387
5515.42037,0.03943
5517.34883,0.02503
5519.27730,0.04119
5521.20577,0.06461
5523.13424,0.07521
5525.06271,0.07942
5526.99118,0.08261
5528.91965,0.08325
5530.84811,0.09092
5532.77658,0.10193
5534.70505,0.10701
5536.63352,0.09212
5538.56199,0.06539
5540.49046,0.06729
5542.41893,0.08338
5544.34740,0.08450
5546.27586,0.08236
5548.20433,0.08002
5550.13280,0.07565
5552.06127,0.06462
5553.98974,0.03842
5555.91821,0.00213
5557.84668,-0.01737
5559.77514,0.00762
5561.70361,0.05068
5563.63208,0.07007
5565.56055,0.08049
5567.48902,0.09509
5569.41749,0.09369
5571.34596,0.07233
5573.27443,0.04773
5575.20289,0.03673
5577.13136,0.03693
5579.05983,0.04642
5580.98830,0.07010
5582.91677,0.09888
5584.84524,0.11591
5586.77371,0.10998
5588.70217,0.09138
5590.63064,0.07641
5592.55911,0.06025
5594.48758,0.05278
5596.41605,0.05847
5598.34452,0.05708
5600.27299,0.06121
5602.20145,0.07617
5604.12992,0.08241
5606.05839,0.08842
5607.98686,0.10137
5609.91533,0.10444
5611.84380,0.08746
5613.77227,0.06471
5615.70074,0.04543
5617.62920,0.03769
5619.55767,0.04786
5621.48614,0.06050
5623.41461,0.07378
5625.34308,0.08408
5627.27155,0.07282
5629.20002,0.06141
5631.12848,0.07427
5633.05695,0.08587
5634.98542,0.07806
5636.91389,0.06491
5638.84236,0.06472
5640.77083,0.07595
5642.69930,0.07029
5644.62777,0.04348
5646.55623,0.02472
5648.48470,0.03271
5650.41317,0.05841
5652.34164,0.07949
5654.27011,0.09003
5656.19858,0.10256
5658.12705,0.12295
5660.05551,0.12803
5661.98398,0.09826
5663.91245,0.06989
5665.84092,0.08348
5667.76939,0.11851
5669.69786,0.12797
5671.62633,0.09889
5673.55480,0.06421
5675.48326,0.05809
5677.41173,0.08462
5679.34020,0.11094
5681.26867,0.10445
5683.19714,0.09467
5685.12561,0.10606
5687.05408,0.11009
5688.98254,0.09959
5690.91101,0.07787
5692.83948,0.05239
5694.76795,0.05740
5696.69642,0.09266
5698.62489,0.12668
5700.55336,0.14725
5702.48183,0.14177
5704.41029,0.11231
5706.33876,0.08187
5708.26723,0.05975
5710.19570,0.04245
5712.12417,0.01679
5714.05264,0.00125
5715.98111,0.02696
5717.90957,0.07058
5719.83804,0.08644
5721.76651,0.06631
5723.69498,0.05380
5725.62345,0.06999
5727.55192,0.08587
5729.48039,0.08200
5731.40886,0.07675
5733.33732,0.08418
5735.26579,0.06590
5737.19426,0.00088
5739.12273,-0.03730
5741.05120,0.00769
5742.97967,0.08053
5744.90814,0.10114
5746.83660,0.08182
5748.76507,0.09397
5750.69354,0.13674
5752.62201,0.15166
5754.55048,0.14029
5756.47895,0.12915
5758.40742,0.11138
5760.33588,0.07994
5762.26435,0.07249
5764.19282,0.09627
5766.12129,0.08587
5768.04976,0.04827
5769.97823,0.03630
5771.90670,0.04863
5773.83517,0.07861
5775.76363,0.11256
5777.69210,0.11811
5779.62057,0.10308
5781.54904,0.09512
5783.47751,0.08701
5785.40598,0.06581
5787.33445,0.05305
5789.26291,0.06563
5791.19138,0.06665
5793.11985,0.04001
5795.04832,0.03488
5796.97679,0.05637
5798.90526,0.06305
5800.83373,0.07337
5802.76220,0.09745
5804.69066,0.10138
5806.61913,0.08621
5808.54760,0.07915
5810.47607,0.09825
5812.40454,0.11255
5814.33301,0.08239
5816.26148,0.04697
5818.18994,0.05368
5820.11841,0.09536
5822.04688,0.12780
5823.97535,0.11881
5825.90382,0.09510
5827.83229,0.08527
5829.76076,0.08619
5831.68923,0.09169
5833.61769,0.08931
5835.54616,0.08767
5837.47463,0.10755
5839.40310,0.13271
5841.33157,0.14140
5843.26004,0.11931
5845.18851,0.07917
5847.11697,0.06425
5849.04544,0.07757
5850.97391,0.08955
5852.90238,0.10141
5854.83085,0.11313
5856.75932,0.08851
5858.68779,0.03463
5860.61626,0.03476
5862.54472,0.10104
5864.47319,0.14369
5866.40166,0.13644
5868.33013,0.11128
5870.25860,0.07697
5872.18707,0.05490
5874.11554,0.05747
5876.04400,0.06358
5877.97247,0.06938
5879.90094,0.08254
5881.82941,0.08376
5883.75788,0.07806
5885.68635,0.07831
5887.61482,0.07348
5889.54329,0.07224
5891.47175,0.07953
5893.40022,0.08214
5895.32869,0.07461
5897.25716,0.07058
5899.18563,0.08908
5901.11410,0.10621
5903.04257,0.09105
5904.97103,0.07088
5906.89950,0.06256
5908.82797,0.05525
5910.75644,0.06233
5912.68491,0.07284
5914.61338,0.06888
5916.54185,0.06129
5918.47032,0.04349
5920.39878,0.02931
5922.32725,0.05198
5924.25572,0.08536
5926.18419,0.09002
5928.11266,0.06938
5930.04113,0.04181
5931.96960,0.04773
5933.89806,0.10111
5935.82653,0.12888
5937.75500,0.08451
5939.68347,0.02306
5941.61194,0.00410
5943.54041,0.03389
5945.46888,0.09032
5947.39734,0.12345
5949.32581,0.09996
5951.25428,0.06888
5953.18275,0.06468
5955.11122,0.05873
5957.03969,0.04672
5958.96816,0.05092
5960.89663,0.06872
5962.82509,0.09269
5964.75356,0.11315
5966.68203,0.10580
5968.61050,0.09321
5970.53897,0.09416
5972.46744,0.07264
5974.39591,0.03988
5976.32437,0.03950
5978.25284,0.05799
5980.18131,0.06371
5982.10978,0.06401
5984.03825,0.07958
5985.96672,0.12105
5987.89519,0.16590
5989.82366,0.14161
5991.75212,0.06617
5993.68059,0.06378
5995.60906,0.13197
5997.53753,0.14898
5999.46600,0.11880
6001.39447,0.10723
6003.32294,0.10261
6005.25140,0.07280
6007.17987,0.05350
6009.10834,0.07064
6011.03681,0.07043
6012.96528,0.04625
6014.89375,0.04976
6016.82222,0.07215
6018.75069,0.06747
6020.67915,0.04474
6022.60762,0.04352
6024.53609,0.05776
6026.46456,0.06855
6028.39303,0.06983
6030.32150,0.05352
6032.24997,0.02557
6034.17843,0.02992
6036.10690,0.08169
6038.03537,0.10041
6039.96384,0.09288
6041.89231,0.11634
6043.82078,0.11030
6045.74925,0.07270
6047.67772,0.09002
6049.60618,0.13093
6051.53465,0.10218
6053.46312,0.04829
6055.39159,0.05501
6057.32006,0.09718
6059.24853,0.10984
6061.17700,0.10255
6063.10546,0.09405
6065.03393,0.06138
6066.96240,0.01705
6068.89087,-0.00956
6070.81934,0.00245
6072.74781,0.07040
6074.67628,0.13597
6076.60475,0.13179
6078.53321,0.10079
6080.46168,0.08917
6082.39015,0.08200
6084.31862,0.05842
6086.24709,0.03968
6088.17556,0.07780
6090.10403,0.14032
6092.03249,0.17060
6093.96096,0.17498
6095.88943,0.15466
6097.81790,0.11984
6099.74637,0.09991
6101.67484,0.09621
6103.60331,0.08279
6105.53177,0.05331
6107.46024,0.03718
6109.38871,0.04117
6111.31718,0.05413
6113.24565,0.07170
6115.17412,0.07349
6117.10259,0.06370
6119.03106,0.05258
6120.95952,0.04265
6122.88799,0.04784
6124.81646,0.04365
6126.74493,0.02046
6128.67340,-0.00144
6130.60187,-0.01535
6132.53034,0.02088
6134.45880,0.09124
6136.38727,0.10657
6138.31574,0.07119
6140.24421,0.07671
6142.17268,0.12271
6144.10115,0.11372
6146.02962,0.07644
6147.95809,0.09341
6149.88655,0.11793
6151.81502,0.09102
6153.74349,0.06096
6155.67196,0.06327
6157.60043,0.07934
6159.52890,0.09622
6161.45737,0.08406
6163.38583,0.03273
6165.31430,-0.00350
6167.24277,-0.00223
6169.17124,0.00481
6171.09971,0.02416
6173.02818,0.06155
6174.95665,0.07357
6176.88512,0.05737
6178.81358,0.06098
6180.74205,0.08598
6182.67052,0.09862
6184.59899,0.10316
6186.52746,0.11967
6188.45593,0.14404
6190.38440,0.14550
6192.31286,0.10984
6194.24133,0.07782
6196.16980,0.07767
6198.09827,0.09722
6200.02674,0.13846
6201.95521,0.17664
6203.88368,0.19056
6205.81215,0.20747
6207.74061,0.21415
6209.66908,0.18668
6211.59755,0.15365
6213.52602,0.13070
6215.45449,0.10186
6217.38296,0.08189
6219.31143,0.09049
6221.23989,0.10311
6223.16836,0.08541
6225.09683,0.03336
6227.02530,-0.00155
6228.95377,0.01914
6230.88224,0.04330
6232.81071,0.01863
6234.73918,0.00701
6236.66764,0.06272
6238.59611,0.13563
6240.52458,0.16783
6242.45305,0.15069
6244.38152,0.12045
6246.30999,0.08878
6248.23846,0.06956
6250.16692,0.12472
6252.09539,0.18013
6254.02386,0.14137
6255.95233,0.09652
6257.88080,0.09732
6259.80927,0.09908
6261.73774,0.10297
6263.66621,0.11249
6265.59467,0.09423
6267.52314,0.08620
6269.45161,0.14943
6271.38008,0.22478
6273.30855,0.21461
6275.23702,0.14948
6277.16549,0.11989
6279.09395,0.11662
6281.02242,0.11518
6282.95089,0.10474
6284.87936,0.10837
6286.80783,0.13033
6288.73630,0.13944
6290.66477,0.13539
6292.59323,0.10094
6294.52170,0.02963
6296.45017,-0.03037
6298.37864,-0.03332
6300.30711,0.02181
6302.23558,0.09415
6304.16405,0.12502
6306.09252,0.10232
6308.02098,0.05970
6309.94945,0.02695
6311.87792,0.03797
6313.80639,0.09541
6315.73486,0.12673
6317.66333,0.11719
6319.59180,0.13382
6321.52026,0.16257
6323.44873,0.15851
6325.37720,0.12988
6327.30567,0.07400
6329.23414,0.02869
6331.16261,0.02473
6333.09108,0.00417
6335.01955,-0.03342
6336.94801,-0.00121
6338.87648,0.09494
6340.80495,0.17238
6342.73342,0.21271
6344.66189,0.23107
6346.59036,0.22330
6348.51883,0.16804
6350.44729,0.12311
6352.37576,0.15192
6354.30423,0.14313
6356.23270,0.08354
6358.16117,0.09651
6360.08964,0.15747
6362.01811,0.15454
6363.94658,0.09859
6365.87504,0.03457
6367.80351,0.00312
6369.73198,0.02778
6371.66045,0.07719
6373.58892,0.14290
6375.51739,0.18628
6377.44586,0.16559
6379.37432,0.11583
6381.30279,0.08272
6383.23126,0.07600
6385.15973,0.07871
6387.08820,0.06753
6389.01667,0.03559
6390.94514,0.03054
6392.87361,0.08864
6394.80207,0.12306
6396.73054,0.12385
6398.65901,0.16483
6400.58748,0.17981
6402.51595,0.12979
6404.44442,0.11137
6406.37289,0.15175
6408.30135,0.18195
6410.22982,0.12825
6412.15829,0.03032
6414.08676,-0.00206
6416.01523,0.04842
6417.94370,0.11296
6419.87217,0.08561
6421.80064,0.02068
6423.72910,0.03582
6425.65757,0.09838
6427.58604,0.14609
6429.51451,0.20683
6431.44298,0.24233
6433.37145,0.16010
6435.29992,0.03915
6437.22838,0.00623
6439.15685,0.03677
6441.08532,0.04238
6443.01379,0.03507
6444.94226,0.07442
6446.87073,0.14191
6448.79920,0.16101
6450.72766,0.09737
6452.65613,0.01162
6454.58460,-0.02644
6456.51307,-0.02642
6458.44154,-0.00645
6460.37001,0.03829
6462.29848,0.10420
6464.22695,0.15268
6466.15541,0.12380
6468.08388,0.05550
6470.01235,0.02706
6471.94082,0.03866
6473.86929,0.08929
6475.79776,0.15384
6477.72623,0.15530
6479.65469,0.06869
6481.58316,-0.01059
6483.51163,-0.00923
6485.44010,0.00359
6487.36857,0.02876
6489.29704,0.10969
6491.22551,0.17306
6493.15398,0.16615
6495.08244,0.11382
6497.01091,0.04172
6498.93938,0.01562
6500.86785,0.05907
6502.79632,0.10467
6504.72479,0.11544
6506.65326,0.12886
6508.58172,0.15363
6510.51019,0.11975
6512.43866,0.04213
6514.36713,0.01043
6516.29560,0.04174
6518.22407,0.12024
6520.15254,0.19391
6522.08101,0.21185
6524.00947,0.13490
6525.93794,0.04968
6527.86641,0.09530
6529.79488,0.15679
6531.72335,0.10779
6533.65182,0.04793
6535.58029,0.07920
6537.50875,0.13059
6539.43722,0.12449
6541.36569,0.12440
6543.29416,0.14144
6545.22263,0.13116
6547.15110,0.16322
6549.07957,0.24689
6551.00804,0.24404
6552.93650,0.12427
6554.86497,0.01802
6556.79344,-0.04627
6558.72191,-0.09762
6560.65038,-0.07914
6562.57885,-0.01691
6564.50732,-0.00220
6566.43578,0.00610
6568.36425,0.03003
6570.29272,0.01949
6572.22119,0.05206
6574.14966,0.14101
6576.07813,0.12031
6578.00660,0.01690
6579.93507,0.01997
6581.86353,0.05230
6583.79200,0.00617
6585.72047,-0.01401
6587.64894,-0.00723
6589.57741,-0.01297
6591.50588,0.02397
6593.43435,0.07784
6595.36281,0.06703
6597.29128,0.04203
6599.21975,0.03321
6601.14822,0.05128
6603.07669,0.13867
6605.00516,0.18978
6606.93363,0.13721
6608.86210,0.06270
6610.79056,0.05773
6612.71903,0.14561
6614.64750,0.21775
6616.57597,0.19909
6618.50444,0.15675
6620.43291,0.10599
6622.36138,0.04208
6624.28984,0.07347
6626.21831,0.20253
6628.14678,0.25161
6630.07525,0.14582
6632.00372,0.00362
6633.93219,-0.07547
6635.86066,-0.04010
6637.78912,0.06653
6639.71759,0.14188
6641.64606,0.17953
6643.57453,0.20116
6645.50300,0.20556
6647.43147,0.18181
6649.35994,0.14439
6651.28841,0.12699
6653.21687,0.13590
6655.14534,0.15340
6657.07381,0.15183
6659.00228,0.11719
6660.93075,0.07888
6662.85922,0.04468
6664.78769,0.01048
6666.71615,0.03133
6668.64462,0.11297
6670.57309,0.15559
6672.50156,0.13329
6674.43003,0.12477
6676.35850,0.12905
6678.28697,0.07242
6680.21544,0.00293
6682.14390,0.00947
6684.07237,0.06089
6686.00084,0.10289
6687.92931,0.10855
6689.85778,0.07431
6691.78625,0.04743
6693.71472,0.04571
6695.64318,0.07635
6697.57165,0.13693
6699.50012,0.17977
6701.42859,0.17181
6703.35706,0.13665
6705.28553,0.10078
6707.21400,0.07431
6709.14247,0.08607
6711.07093,0.09175
6712.99940,0.04679
6714.92787,0.01876
6716.85634,0.01461
6718.78481,-0.07025
6720.71328,-0.17065
6722.64175,-0.14480
6724.57021,-0.05826
6726.49868,0.00415
6728.42715,0.04264
6730.35562,0.05357
6732.28409,0.05262
6734.21256,0.05285
6736.14103,0.02145
6738.06950,-0.00595
6739.99796,0.04501
6741.92643,0.10463
6743.85490,0.07546
6745.78337,0.04207
6747.71184,0.08371
6749.64031,0.13039
6751.56878,0.12630
6753.49724,0.14724
6755.42571,0.19642
6757.35418,0.17246
6759.28265,0.06993
6761.21112,0.02356
6763.13959,0.07036
6765.06806,0.07058
6766.99653,0.02619
6768.92499,0.09780
6770.85346,0.22188
6772.78193,0.18730
6774.71040,0.06729
6776.63887,0.06783
6778.56734,0.16331
6780.49581,0.17810
6782.42427,0.05901
6784.35274,-0.04656
6786.28121,-0.01621
6788.20968,0.06204
6790.13815,0.09824
6792.06662,0.12985
6793.99509,0.13722
6795.92355,0.11596
6797.85202,0.14986
6799.78049,0.20057
6801.70896,0.18467
6803.63743,0.12851
6805.56590,0.09010
6807.49437,0.08509
6809.42284,0.11922
6811.35130,0.18168
6813.27977,0.20965
6815.20824,0.18057
6817.13671,0.13113
6819.06518,0.06295
6820.99365,0.00415
6822.92212,-0.00382
6824.85058,-0.03504
6826.77905,-0.08998
6828.70752,-0.05985
6830.63599,0.07599
6832.56446,0.22371
6834.49293,0.30586
6836.42140,0.32051
6838.34987,0.30241
6840.27833,0.25849
6842.20680,0.20964
6844.13527,0.16658
6846.06374,0.11647
6847.99221,0.05336
6849.92068,-0.04415
6851.84915,-0.11697
6853.77761,-0.09884
6855.70608,-0.05552
6857.63455,-0.08042
6859.56302,-0.12878
6861.49149,-0.10430
6863.41996,-0.01621
6865.34843,0.02533
6867.27690,0.00496
6869.20536,-0.03058
6871.13383,-0.05364
6873.06230,-0.00600
6874.99077,0.07594
6876.91924,0.09581
6878.84771,0.03909
6880.77618,-0.04634
6882.70464,-0.05427
6884.63311,-0.02359
6886.56158,-0.04969
6888.49005,-0.02516
6890.41852,0.13925
6892.34699,0.26161
6894.27546,0.23295
6896.20393,0.18669
6898.13239,0.19599
6900.06086,0.22994
6901.98933,0.21932
6903.91780,0.10936
6905.84627,0.00608
6907.77474,0.03028
6909.70321,0.08215
6911.63167,0.06596
6913.56014,0.07980
6915.48861,0.19510
6917.41708,0.27085
6919.34555,0.20813
6921.27402,0.12219
6923.20249,0.11412
6925.13096,0.14994
6927.05942,0.14883
6928.98789,0.08909
6930.91636,0.05413
6932.84483,0.00517
6934.77330,-0.12097
6936.70177,-0.19178
6938.63024,-0.12736
6940.55870,0.01897
6942.48717,0.10974
6944.41564,0.15802
6946.34411,0.21279
6948.27258,0.17049
6950.20105,0.05422
6952.12952,0.01102
6954.05799,0.02038
6955.98645,0.05249
6957.91492,0.11349
6959.84339,0.09710
6961.77186,0.01207
6963.70033,-0.00691
6965.62880,0.08098
6967.55727,0.21871
6969.48573,0.22959
6971.41420,0.07370
6973.34267,0.03820
6975.27114,0.24636
6977.19961,0.37133
6979.12808,0.25768
6981.05655,0.12122
6982.98501,0.12897
6984.91348,0.18538
6986.84195,0.19008
6988.77042,0.21722
6990.69889,0.25655
6992.62736,0.22162
6994.55583,0.17270
6996.48430,0.19044
6998.41276,0.21716
7000.34123,0.15989
7002.26970,0.08694
7004.19817,0.12566
7006.12664,0.20863
7008.05511,0.20805
7009.98358,0.20181
7011.91204,0.21119
7013.84051,0.10985
7015.76898,-0.01211
7017.69745,-0.02795
7019.62592,-0.04394
7021.55439,-0.08553
7023.48286,-0.03777
7025.41133,0.03089
7027.33979,-0.00217
7029.26826,-0.06015
7031.19673,-0.03827
7033.12520,0.05653
7035.05367,0.11486
7036.98214,0.11668
7038.91061,0.15996
7040.83907,0.17018
7042.76754,0.08188
7044.69601,0.04455
7046.62448,0.07208
7048.55295,0.05805
7050.48142,0.09144
7052.40989,0.18091
7054.33836,0.16204
7056.26682,0.01437
7058.19529,-0.11546
7060.12376,-0.15783
7062.05223,-0.12726
7063.98070,-0.03148
7065.90917,0.05428
7067.83764,0.08974
7069.76610,0.01885
7071.69457,-0.11656
7073.62304,-0.12149
7075.55151,-0.04378
7077.47998,-0.01684
7079.40845,-0.01032
7081.33692,0.08329
7083.26539,0.14529
7085.19385,0.03350
7087.12232,-0.15822
7089.05079,-0.26910
7090.97926,-0.22490
7092.90773,-0.07886
7094.83620,0.05324
7096.76467,0.12892
7098.69313,0.19236
7100.62160,0.21832
7102.55007,0.14998
7104.47854,0.02232
7106.40701,-0.06059
7108.33548,-0.06768
7110.26395,-0.08020
7112.19242,-0.09059
7114.12088,-0.04031
7116.04935,0.06224
7117.97782,0.13388
7119.90629,0.09815
7121.83476,0.07599
7123.76323,0.13191
7125.69170,0.18577
7127.62016,0.19070
7129.54863,0.16562
7131.47710,0.13161
7133.40557,0.11200
7135.33404,0.09013
7137.26251,0.02531
7139.19098,-0.07436
7141.11944,-0.12999
7143.04791,-0.03468
7144.97638,0.19806
7146.90485,0.28260
7148.83332,0.15084
7150.76179,0.11753
7152.69026,0.29643
7154.61873,0.46873
7156.54719,0.45022
7158.47566,0.34578
7160.40413,0.30315
7162.33260,0.31754
7164.26107,0.31574
7166.18954,0.30305
7168.11801,0.29963
7170.04647,0.19668
7171.97494,-0.01262
7173.90341,-0.10832
7175.83188,-0.03325
7177.76035,0.07939
7179.68882,0.10998
7181.61729,0.11041
7183.54576,0.11913
7185.47422,0.10335
7187.40269,0.14441
7189.33116,0.27298
7191.25963,0.37024
7193.18810,0.33082
7195.11657,0.27148
7197.04504,0.27739
7198.97350,0.26774
7200.90197,0.17972
7202.83044,0.04077
7204.75891,-0.05624
7206.68738,-0.06874
7208.61585,-0.00916
7210.54432,0.13244
7212.47279,0.16358
7214.40125,-0.07539
7216.32972,-0.38973
7218.25819,-0.37380
7220.18666,-0.10010
7222.11513,0.06308
7224.04360,0.10147
7225.97207,0.03246
7227.90053,-0.13091
7229.82900,-0.23901
7231.75747,-0.18412
7233.68594,-0.08348
7235.61441,0.02498
7237.54288,0.16378
7239.47135,0.18292
7241.39982,0.09265
7243.32828,0.09184
7245.25675,0.09387
7247.18522,0.04182
7249.11369,0.02708
7251.04216,0.00335
7252.97063,0.00256
7254.89910,0.07034
7256.82756,0.12265
7258.75603,0.12898
7260.68450,0.01081
7262.61297,-0.11220
7264.54144,-0.08380
7266.46991,-0.03044
7268.39838,0.05774
7270.32685,0.19256
7272.25531,0.29277
7274.18378,0.29064
7276.11225,0.19523
7278.04072,0.14471
7279.96919,0.16454
7281.89766,0.11026
7283.82613,0.03638
7285.75459,-0.03846
7287.68306,-0.11440
7289.61153,-0.06444
7291.54000,0.07438
7293.46847,0.11433
7295.39694,0.09348
7297.32541,0.02244
7299.25387,-0.07585
7301.18234,-0.05894
7303.11081,0.05302
7305.03928,0.09505
7306.96775,0.02142
7308.89622,-0.00610
7310.82469,0.13591
7312.75316,0.28813
7314.68162,0.35758
7316.61009,0.26594
7318.53856,0.07402
7320.46703,0.04579
7322.39550,0.17399
7324.32397,0.16386
7326.25244,-0.02282
7328.18090,-0.12768
7330.10937,-0.01096
7332.03784,0.11205
7333.96631,0.12746
7335.89478,0.17992
7337.82325,0.34284
7339.75172,0.51959
7341.68019,0.53157
7343.60865,0.50611
7345.53712,0.40401
7347.46559,0.08643
7349.39406,-0.25402
7351.32253,-0.31209
7353.25100,-0.19464
7355.17947,-0.08682
7357.10793,0.11551
7359.03640,0.24555
7360.96487,0.04102
7362.89334,-0.08375
7364.82181,0.06534
7366.75028,0.23505
7368.67875,0.25428
7370.60722,0.19086
7372.53568,0.19694
7374.46415,0.24928
7376.39262,0.18315
7378.32109,0.10700
7380.24956,0.16671
7382.17803,0.26225
7384.10650,0.26965
7386.03496,0.27089
7387.96343,0.25723
7389.89190,0.18265
7391.82037,0.13555
7393.74884,0.11983
7395.67731,0.13723
7397.60578,0.12414
7399.53425,-0.01060
7401.46271,-0.14224
7403.39118,-0.16177
7405.31965,-0.13316
7407.24812,-0.06776
7409.17659,0.09444
7411.10506,0.22743
7413.03353,0.23422
7414.96199,0.19247
7416.89046,0.14497
7418.81893,0.11390
7420.74740,0.15156
7422.67587,0.20906
7424.60434,0.18004
7426.53281,0.16688
7428.46128,0.31954
7430.38974,0.45234
7432.31821,0.33208
7434.24668,0.19960
7436.17515,0.20760
7438.10362,0.16893
7440.03209,0.00328
7441.96056,-0.04776
7443.88902,0.05661
7445.81749,0.07659
7447.74596,0.07384
7449.67443,0.21483
7451.60290,0.29516
7453.53137,0.16092
7455.45984,0.03729
7457.38831,0.01687
7459.31677,0.04032
7461.24524,0.07661
7463.17371,0.18782
7465.10218,0.28875
7467.03065,0.31963
7468.95912,0.36508
7470.88759,0.39164
7472.81605,0.38764
7474.74452,0.44313
7476.67299,0.47851
7478.60146,0.32920
7480.52993,0.10780
7482.45840,0.13150
7484.38687,0.33897
7486.31533,0.46595
7488.24380,0.47156
7490.17227,0.36205
7492.10074,0.17184
7494.02921,0.12135
7495.95768,0.18567
7497.88615,0.12830
