399.19301,4.16392
401.12148,0.10559
403.04995,0.11253
404.97842,0.09183
406.90689,-0.04930
408.83536,-0.11867
410.76382,-0.06053
412.69229,0.08479
414.62076,0.21057
416.54923,0.27149
418.47770,0.27527
420.40617,0.20389
422.33464,0.11454
424.26311,0.06824
426.19157,0.05276
428.12004,0.00909
430.04851,-0.01581
431.97698,0.07383
433.90545,0.13620
435.83392,0.08446
437.76239,0.03620
439.69085,0.07224
441.61932,0.12505
443.54779,0.09704
445.47626,0.01583
447.40473,-0.04581
449.33320,-0.08295
451.26167,-0.11071
453.19013,-0.12759
455.11860,-0.13371
457.04707,-0.13564
458.97554,-0.08946
460.90401,-0.00790
462.83248,0.03711
464.76095,0.05168
466.68942,0.07179
468.61788,0.05576
470.54635,-0.02289
472.47482,-0.12247
474.40329,-0.13243
476.33176,-0.01259
478.26023,0.09956
480.18870,0.15343
482.11716,0.15295
484.04563,0.09438
485.97410,0.03337
487.90257,0.03920
489.83104,0.07349
491.75951,0.10410
493.68798,0.15782
495.61645,0.20255
497.54491,0.17834
499.47338,0.14148
501.40185,0.16792
503.33032,0.21666
505.25879,0.21805
507.18726,0.15702
509.11573,0.08688
511.04419,0.07437
512.97266,0.08026
514.90113,0.04390
516.82960,0.01897
518.75807,0.08743
520.68654,0.17034
522.61501,0.18708
524.54348,0.17970
526.47194,0.16042
528.40041,0.12666
530.32888,0.14089
532.25735,0.16658
534.18582,0.12166
536.11429,0.05624
538.04276,0.06908
539.97122,0.13808
541.89969,0.16879
543.82816,0.13979
545.75663,0.09905
547.68510,0.07441
549.61357,0.08052
551.54204,0.10559
553.47051,0.11402
555.39897,0.08679
557.32744,0.05301
559.25591,0.06606
561.18438,0.11535
563.11285,0.14949
565.04132,0.13681
566.96979,0.10231
568.89825,0.10740
570.82672,0.14758
572.75519,0.17703
574.68366,0.16004
576.61213,0.10521
578.54060,0.06919
580.46907,0.07221
582.39754,0.09597
584.32600,0.11348
586.25447,0.12444
588.18294,0.12879
590.11141,0.10291
592.03988,0.08576
593.96835,0.11326
595.89682,0.12691
597.82528,0.10755
599.75375,0.09755
601.68222,0.11229
603.61069,0.13134
605.53916,0.14193
607.46763,0.14696
609.39610,0.14454
611.32456,0.13494
613.25303,0.11997
615.18150,0.10563
617.10997,0.10403
619.03844,0.10698
620.96691,0.10142
622.89538,0.09648
624.82385,0.10769
626.75231,0.13436
628.68078,0.15171
630.60925,0.15396
632.53772,0.15820
634.46619,0.15069
636.39466,0.13070
638.32313,0.12024
640.25159,0.10843
642.18006,0.09480
644.10853,0.09398
646.03700,0.09790
647.96547,0.11358
649.89394,0.14224
651.82241,0.14914
653.75088,0.12938
655.67934,0.11813
657.60781,0.11786
659.53628,0.10846
661.46475,0.10663
663.39322,0.11679
665.32169,0.11239
667.25016,0.08760
669.17862,0.09083
671.10709,0.12500
673.03556,0.13702
674.96403,0.12996
676.89250,0.12256
678.82097,0.11678
680.74944,0.10441
682.67791,0.09501
684.60637,0.09884
686.53484,0.10590
688.46331,0.10652
690.39178,0.10508
692.32025,0.11319
694.24872,0.13556
696.17719,0.16250
698.10565,0.16938
700.03412,0.15075
701.96259,0.13312
703.89106,0.12378
705.81953,0.11879
707.74800,0.12164
709.67647,0.12611
711.60494,0.12958
713.53340,0.13140
715.46187,0.12937
717.39034,0.12475
719.31881,0.11821
721.24728,0.11320
723.17575,0.11322
725.10422,0.11910
727.03268,0.12521
728.96115,0.12359
730.88962,0.11877
732.81809,0.11740
734.74656,0.12050
736.67503,0.13052
738.60350,0.14060
740.53197,0.14173
742.46043,0.14133
744.38890,0.14680
746.31737,0.14979
748.24584,0.14286
750.17431,0.13685
752.10278,0.14420
754.03125,0.15662
755.95971,0.15517
757.88818,0.14147
759.81665,0.13485
761.74512,0.13634
763.67359,0.13904
765.60206,0.14533
767.53053,0.15502
769.45900,0.16300
771.38746,0.15215
773.31593,0.12588
775.24440,0.11967
777.17287,0.12901
779.10134,0.12956
781.02981,0.13041
782.95828,0.13341
784.88674,0.13202
786.81521,0.13581
788.74368,0.15870
790.67215,0.19111
792.60062,0.19481
794.52909,0.16112
796.45756,0.14104
798.38602,0.15430
800.31449,0.15977
802.24296,0.14283
804.17143,0.13186
806.09990,0.13621
808.02837,0.13488
809.95684,0.12200
811.88531,0.11988
813.81377,0.13852
815.74224,0.15726
817.67071,0.15571
819.59918,0.14590
821.52765,0.14104
823.45612,0.13614
825.38459,0.13494
827.31305,0.14365
829.24152,0.15423
831.16999,0.15078
833.09846,0.13897
835.02693,0.14163
836.95540,0.14766
838.88387,0.13929
840.81234,0.12967
842.74080,0.12390
844.66927,0.12224
846.59774,0.13010
848.52621,0.14176
850.45468,0.15619
852.38315,0.16595
854.31162,0.15888
856.24008,0.14725
858.16855,0.14408
860.09702,0.14802
862.02549,0.15221
863.95396,0.14677
865.88243,0.13773
867.81090,0.13795
869.73937,0.14026
871.66783,0.13625
873.59630,0.12916
875.52477,0.12590
877.45324,0.13154
879.38171,0.14017
881.31018,0.14598
883.23865,0.14689
885.16711,0.14312
887.09558,0.13913
889.02405,0.13694
890.95252,0.14094
892.88099,0.14623
894.80946,0.14229
896.73793,0.13761
898.66640,0.13967
900.59486,0.14067
902.52333,0.13611
904.45180,0.12981
906.38027,0.12979
908.30874,0.13772
910.23721,0.14235
912.16568,0.14218
914.09414,0.14503
916.02261,0.14554
917.95108,0.14176
919.87955,0.13837
921.80802,0.13598
923.73649,0.13861
925.66496,0.14333
927.59343,0.14479
929.52189,0.14481
931.45036,0.14197
933.37883,0.13608
935.30730,0.13126
937.23577,0.13310
939.16424,0.14185
941.09271,0.14833
943.02117,0.14755
944.94964,0.14395
946.87811,0.14252
948.80658,0.14460
950.73505,0.15126
952.66352,0.15730
954.59199,0.15420
956.52045,0.14973
958.44892,0.15091
960.37739,0.14991
962.30586,0.14819
964.23433,0.15154
966.16280,0.15380
968.09127,0.15166
970.01974,0.14658
971.94820,0.13689
973.87667,0.12858
975.80514,0.13058
977.73361,0.13931
979.66208,0.14768
981.59055,0.15603
983.51902,0.16321
985.44748,0.16342
987.37595,0.15942
989.30442,0.16171
991.23289,0.16850
993.16136,0.16689
995.08983,0.15815
997.01830,0.15283
998.94677,0.14915
1000.87523,0.14651
1002.80370,0.14866
1004.73217,0.15212
1006.66064,0.15589
1008.58911,0.15899
1010.51758,0.16005
1012.44605,0.15885
1014.37451,0.15494
1016.30298,0.15601
1018.23145,0.16255
1020.15992,0.16485
1022.08839,0.16219
1024.01686,0.15988
1025.94533,0.15413
1027.87380,0.14367
1029.80226,0.14412
1031.73073,0.15633
1033.65920,0.16249
1035.58767,0.16169
1037.51614,0.16235
1039.44461,0.16314
1041.37308,0.15869
1043.30154,0.14984
1045.23001,0.14772
1047.15848,0.15913
1049.08695,0.17302
1051.01542,0.17396
1052.94389,0.15975
1054.87236,0.14686
1056.80083,0.14828
1058.72929,0.15686
1060.65776,0.16311
1062.58623,0.16318
1064.51470,0.15884
1066.44317,0.15723
1068.37164,0.16042
1070.30011,0.16483
1072.22857,0.16696
1074.15704,0.16395
1076.08551,0.15482
1078.01398,0.14180
1079.94245,0.13501
1081.87092,0.14360
1083.79939,0.15741
1085.72786,0.16440
1087.65632,0.16781
1089.58479,0.16927
1091.51326,0.16460
1093.44173,0.15980
1095.37020,0.16158
1097.29867,0.16299
1099.22714,0.16274
1101.15560,0.16561
1103.08407,0.16896
1105.01254,0.16952
1106.94101,0.16627
1108.86948,0.16215
1110.79795,0.16396
1112.72642,0.17177
1114.65489,0.17428
1116.58335,0.16717
1118.51182,0.15967
1120.44029,0.15705
1122.36876,0.15818
1124.29723,0.16078
1126.22570,0.16265
1128.15417,0.16136
1130.08263,0.15425
1132.01110,0.14617
1133.93957,0.14532
1135.86804,0.14977
1137.79651,0.15577
1139.72498,0.16187
1141.65345,0.16143
1143.58191,0.15752
1145.51038,0.15999
1147.43885,0.16633
1149.36732,0.16948
1151.29579,0.16613
1153.22426,0.16060
1155.15273,0.16046
1157.08120,0.16233
1159.00966,0.15973
1160.93813,0.15370
1162.86660,0.14984
1164.79507,0.15402
1166.72354,0.16275
1168.65201,0.16609
1170.58048,0.16457
1172.50894,0.16509
1174.43741,0.16687
1176.36588,0.16766
1178.29435,0.16804
1180.22282,0.16579
1182.15129,0.16124
1184.07976,0.16024
1186.00823,0.16494
1187.93669,0.17055
1189.86516,0.17234
1191.79363,0.17000
1193.72210,0.16686
1195.65057,0.16495
1197.57904,0.16414
1199.50751,0.16497
1201.43597,0.16650
1203.36444,0.16713
1205.29291,0.16553
1207.22138,0.16121
1209.14985,0.15755
1211.07832,0.15964
1213.00679,0.16554
1214.93526,0.16884
1216.86372,0.16982
1218.79219,0.17076
1220.72066,0.17061
1222.64913,0.16698
1224.57760,0.16207
1226.50607,0.16197
1228.43454,0.16459
1230.36300,0.16651
1232.29147,0.16935
1234.21994,0.17023
1236.14841,0.16591
1238.07688,0.16076
1240.00535,0.15950
1241.93382,0.15929
1243.86229,0.15846
1245.79075,0.15807
1247.71922,0.15792
1249.64769,0.16046
1251.57616,0.16270
1253.50463,0.15975
1255.43310,0.15761
1257.36157,0.16050
1259.29003,0.16398
1261.21850,0.16537
1263.14697,0.16595
1265.07544,0.16801
1267.00391,0.17132
1268.93238,0.17292
1270.86085,0.17418
1272.78932,0.17590
1274.71778,0.17355
1276.64625,0.16808
1278.57472,0.16561
1280.50319,0.16670
1282.43166,0.16948
1284.36013,0.17205
1286.28860,0.17139
1288.21706,0.17056
1290.14553,0.17207
1292.07400,0.17134
1294.00247,0.16747
1295.93094,0.16492
1297.85941,0.16452
1299.78788,0.16022
1301.71634,0.14802
1303.64481,0.13631
1305.57328,0.14022
1307.50175,0.15900
1309.43022,0.17384
1311.35869,0.17771
1313.28716,0.17867
1315.21563,0.17934
1317.14409,0.17897
1319.07256,0.17903
1321.00103,0.17781
1322.92950,0.17395
1324.85797,0.16816
1326.78644,0.16324
1328.71491,0.16168
1330.64337,0.15887
1332.57184,0.15614
1334.50031,0.15875
1336.42878,0.16172
1338.35725,0.16261
1340.28572,0.16220
1342.21419,0.16078
1344.14266,0.16061
1346.07112,0.16101
1347.99959,0.16252
1349.92806,0.16443
1351.85653,0.16598
1353.78500,0.16923
1355.71347,0.17226
1357.64194,0.17318
1359.57040,0.17504
1361.49887,0.17856
1363.42734,0.17753
1365.35581,0.17187
1367.28428,0.16926
1369.21275,0.17240
1371.14122,0.17846
1373.06969,0.18460
1374.99815,0.18745
1376.92662,0.18330
1378.85509,0.17712
1380.78356,0.17542
1382.71203,0.17935
1384.64050,0.18445
1386.56897,0.18488
1388.49743,0.18215
1390.42590,0.18144
1392.35437,0.18289
1394.28284,0.18585
1396.21131,0.18952
1398.13978,0.19034
1400.06825,0.18502
1401.99672,0.17818
1403.92518,0.17486
1405.85365,0.17627
1407.78212,0.17901
1409.71059,0.17820
1411.63906,0.17525
1413.56753,0.17566
1415.49600,0.18173
1417.42446,0.18960
1419.35293,0.18973
1421.28140,0.18275
1423.20987,0.17864
1425.13834,0.17974
1427.06681,0.18473
1428.99528,0.18832
1430.92375,0.18630
1432.85221,0.18518
1434.78068,0.18981
1436.70915,0.19352
1438.63762,0.19006
1440.56609,0.18705
1442.49456,0.18652
1444.42303,0.18670
1446.35149,0.19016
1448.27996,0.19428
1450.20843,0.19351
1452.13690,0.19409
1454.06537,0.20158
1455.99384,0.21154
1457.92231,0.20468
1459.85077,0.19022
1461.77924,0.18805
1463.70771,0.19191
1465.63618,0.19251
1467.56465,0.19071
1469.49312,0.19552
1471.42159,0.20635
1473.35006,0.20876
1475.27852,0.20069
1477.20699,0.19387
1479.13546,0.18881
1481.06393,0.18641
1482.99240,0.18759
1484.92087,0.19197
1486.84934,0.19837
1488.77780,0.20365
1490.70627,0.20261
1492.63474,0.19710
1494.56321,0.19469
1496.49168,0.19788
1498.42015,0.19923
1500.34862,0.19502
1502.27709,0.19453
1504.20555,0.20551
1506.13402,0.22939
1508.06249,0.22915
1509.99096,0.20642
1511.91943,0.19591
1513.84790,0.20010
1515.77637,0.21314
1517.70483,0.22046
1519.63330,0.21818
1521.56177,0.21614
1523.49024,0.21468
1525.41871,0.21200
1527.34718,0.20677
1529.27565,0.20086
1531.20412,0.19975
1533.13258,0.20206
1535.06105,0.20268
1536.98952,0.20839
1538.91799,0.22793
1540.84646,0.24504
1542.77493,0.23134
1544.70340,0.21108
1546.63186,0.19780
1548.56033,0.19297
1550.48880,0.19241
1552.41727,0.19517
1554.34574,0.20170
1556.27421,0.21021
1558.20268,0.22147
1560.13115,0.21912
1562.05961,0.20696
1563.98808,0.19933
1565.91655,0.19510
1567.84502,0.19494
1569.77349,0.19891
1571.70196,0.20165
1573.63043,0.20489
1575.55889,0.21137
1577.48736,0.20933
1579.41583,0.19766
1581.34430,0.18876
1583.27277,0.18705
1585.20124,0.18811
1587.12971,0.18798
1589.05818,0.18967
1590.98664,0.19246
1592.91511,0.19351
1594.84358,0.19249
1596.77205,0.18995
1598.70052,0.18886
1600.62899,0.18962
1602.55746,0.19085
1604.48592,0.19255
1606.41439,0.19259
1608.34286,0.18997
1610.27133,0.18782
1612.19980,0.18813
1614.12827,0.19002
1616.05674,0.19413
1617.98521,0.19766
1619.91367,0.19769
1621.84214,0.19995
1623.77061,0.20295
1625.69908,0.20118
1627.62755,0.19921
1629.55602,0.19825
1631.48449,0.19846
1633.41295,0.20291
1635.34142,0.20978
1637.26989,0.20734
1639.19836,0.19999
1641.12683,0.19854
1643.05530,0.20654
1644.98377,0.22386
1646.91223,0.23897
1648.84070,0.23515
1650.76917,0.23138
1652.69764,0.23394
1654.62611,0.22054
1656.55458,0.20305
1658.48305,0.19617
1660.41152,0.20062
1662.33998,0.20589
1664.26845,0.20080
1666.19692,0.20018
1668.12539,0.21299
1670.05386,0.22466
1671.98233,0.22129
1673.91080,0.21507
1675.83926,0.20817
1677.76773,0.20243
1679.69620,0.20147
1681.62467,0.20452
1683.55314,0.21185
1685.48161,0.21654
1687.41008,0.21331
1689.33855,0.20786
1691.26701,0.20354
1693.19548,0.20356
1695.12395,0.20887
1697.05242,0.21696
1698.98089,0.22045
1700.90936,0.21427
1702.83783,0.20951
1704.76629,0.21165
1706.69476,0.20735
1708.62323,0.19489
1710.55170,0.18913
1712.48017,0.19325
1714.40864,0.20300
1716.33711,0.21372
1718.26558,0.21303
1720.19404,0.20433
1722.12251,0.19922
1724.05098,0.19594
1725.97945,0.19425
1727.90792,0.19734
1729.83639,0.20305
1731.76486,0.20798
1733.69332,0.21072
1735.62179,0.20959
1737.55026,0.20850
1739.47873,0.20635
1741.40720,0.20223
1743.33567,0.20031
1745.26414,0.20215
1747.19261,0.20599
1749.12107,0.20802
1751.04954,0.20382
1752.97801,0.19538
1754.90648,0.19111
1756.83495,0.19338
1758.76342,0.19717
1760.69189,0.19942
1762.62035,0.19695
1764.54882,0.19256
1766.47729,0.19380
1768.40576,0.19916
1770.33423,0.20627
1772.26270,0.20984
1774.19117,0.20230
1776.11964,0.19496
1778.04810,0.19489
1779.97657,0.19869
1781.90504,0.19943
1783.83351,0.19656
1785.76198,0.19349
1787.69045,0.19179
1789.61892,0.19287
1791.54738,0.19593
1793.47585,0.19792
1795.40432,0.19785
1797.33279,0.19759
1799.26126,0.19849
1801.18973,0.19949
1803.11820,0.19896
1805.04666,0.19707
1806.97513,0.19522
1808.90360,0.19556
1810.83207,0.19646
1812.76054,0.19361
1814.68901,0.18987
1816.61748,0.19020
1818.54595,0.19292
1820.47441,0.19391
1822.40288,0.19587
1824.33135,0.20067
1826.25982,0.20341
1828.18829,0.20415
1830.11676,0.20412
1832.04523,0.20101
1833.97369,0.19662
1835.90216,0.19260
1837.83063,0.19084
1839.75910,0.19310
1841.68757,0.19728
1843.61604,0.19816
1845.54451,0.19432
1847.47298,0.19347
1849.40144,0.19589
1851.32991,0.19577
1853.25838,0.19223
1855.18685,0.18836
1857.11532,0.18692
1859.04379,0.18760
1860.97226,0.18752
1862.90072,0.18703
1864.82919,0.18972
1866.75766,0.19645
1868.68613,0.20073
1870.61460,0.19718
1872.54307,0.19371
1874.47154,0.19378
1876.40001,0.19344
1878.32847,0.19174
1880.25694,0.19010
1882.18541,0.18897
1884.11388,0.18958
1886.04235,0.19130
1887.97082,0.19314
1889.89929,0.19574
1891.82775,0.19840
1893.75622,0.19972
1895.68469,0.19840
1897.61316,0.19585
1899.54163,0.19501
1901.47010,0.19427
1903.39857,0.19112
1905.32704,0.18820
1907.25550,0.18960
1909.18397,0.19322
1911.11244,0.19337
1913.04091,0.19085
1914.96938,0.19027
1916.89785,0.19187
1918.82632,0.19228
1920.75478,0.19210
1922.68325,0.19434
1924.61172,0.19599
1926.54019,0.19372
1928.46866,0.19063
1930.39713,0.19007
1932.32560,0.19147
1934.25407,0.19259
1936.18253,0.19157
1938.11100,0.18924
1940.03947,0.18911
1941.96794,0.19094
1943.89641,0.19124
1945.82488,0.19005
1947.75335,0.18847
1949.68181,0.18793
1951.61028,0.19039
1953.53875,0.19375
1955.46722,0.19458
1957.39569,0.19321
1959.32416,0.19198
1961.25263,0.19153
1963.18110,0.19101
1965.10956,0.19049
1967.03803,0.19000
1968.96650,0.18970
1970.89497,0.19075
1972.82344,0.19341
1974.75191,0.19470
1976.68038,0.19146
1978.60884,0.18757
1980.53731,0.18801
1982.46578,0.19164
1984.39425,0.19496
1986.32272,0.19530
1988.25119,0.19371
1990.17966,0.19370
1992.10812,0.19476
1994.03659,0.19352
1995.96506,0.19145
1997.89353,0.19160
1999.82200,0.19261
2001.75047,0.19344
2003.67894,0.19348
2005.60741,0.19090
2007.53587,0.18891
2009.46434,0.19049
2011.39281,0.19186
2013.32128,0.19241
2015.24975,0.19553
2017.17822,0.19893
2019.10669,0.19844
2021.03515,0.19620
2022.96362,0.19553
2024.89209,0.19521
2026.82056,0.19373
2028.74903,0.19255
2030.67750,0.19364
2032.60597,0.19698
2034.53444,0.19895
2036.46290,0.19756
2038.39137,0.19574
2040.31984,0.19395
2042.24831,0.19271
2044.17678,0.19400
2046.10525,0.19481
2048.03372,0.19361
2049.96218,0.19278
2051.89065,0.19293
2053.81912,0.19303
2055.74759,0.19267
2057.67606,0.19326
2059.60453,0.19502
2061.53300,0.19576
2063.46147,0.19432
2065.38993,0.19188
2067.31840,0.19080
2069.24687,0.19247
2071.17534,0.19487
2073.10381,0.19567
2075.03228,0.19550
2076.96075,0.19552
2078.88921,0.19642
2080.81768,0.19754
2082.74615,0.19827
2084.67462,0.19912
2086.60309,0.19834
2088.53156,0.19611
2090.46003,0.19583
2092.38850,0.19625
2094.31696,0.19522
2096.24543,0.19452
2098.17390,0.19458
2100.10237,0.19380
2102.03084,0.19153
2103.95931,0.18975
2105.88778,0.19032
2107.81624,0.19127
2109.74471,0.19057
2111.67318,0.18958
2113.60165,0.19039
2115.53012,0.19257
2117.45859,0.19467
2119.38706,0.19611
2121.31553,0.19705
2123.24399,0.19796
2125.17246,0.19863
2127.10093,0.19755
2129.02940,0.19521
2130.95787,0.19523
2132.88634,0.19728
2134.81481,0.19774
2136.74327,0.19643
2138.67174,0.19497
2140.60021,0.19454
2142.52868,0.19532
2144.45715,0.19676
2146.38562,0.19811
2148.31409,0.19942
2150.24255,0.20110
2152.17102,0.20129
2154.09949,0.19881
2156.02796,0.19732
2157.95643,0.19898
2159.88490,0.20092
2161.81337,0.20195
2163.74184,0.20174
2165.67030,0.19963
2167.59877,0.19726
2169.52724,0.19514
2171.45571,0.19363
2173.38418,0.19354
2175.31265,0.19445
2177.24112,0.19678
2179.16958,0.19866
2181.09805,0.19669
2183.02652,0.19336
2184.95499,0.19338
2186.88346,0.19509
2188.81193,0.19362
2190.74040,0.19112
2192.66887,0.19211
2194.59733,0.19439
2196.52580,0.19516
2198.45427,0.19406
2200.38274,0.19204
2202.31121,0.19162
2204.23968,0.19268
2206.16815,0.19277
2208.09661,0.19123
2210.02508,0.18966
2211.95355,0.19001
2213.88202,0.19288
2215.81049,0.19566
2217.73896,0.19499
2219.66743,0.19176
2221.59590,0.18992
2223.52436,0.19112
2225.45283,0.19297
2227.38130,0.19392
2229.30977,0.19531
2231.23824,0.19684
2233.16671,0.19720
2235.09518,0.19771
2237.02364,0.19828
2238.95211,0.19727
2240.88058,0.19752
2242.80905,0.19958
2244.73752,0.19877
2246.66599,0.19691
2248.59446,0.19790
2250.52293,0.19869
2252.45139,0.19628
2254.37986,0.19295
2256.30833,0.19176
2258.23680,0.19143
2260.16527,0.19038
2262.09374,0.19013
2264.02221,0.19177
2265.95067,0.19353
2267.87914,0.19372
2269.80761,0.19470
2271.73608,0.19815
2273.66455,0.20098
2275.59302,0.19978
2277.52149,0.19588
2279.44996,0.19432
2281.37842,0.19585
2283.30689,0.19559
2285.23536,0.19206
2287.16383,0.18851
2289.09230,0.18626
2291.02077,0.18500
2292.94924,0.18530
2294.87770,0.18654
2296.80617,0.18665
2298.73464,0.18579
2300.66311,0.18416
2302.59158,0.18021
2304.52005,0.17864
2306.44852,0.18334
2308.37699,0.18855
2310.30545,0.18952
2312.23392,0.18496
2314.16239,0.17755
2316.09086,0.17619
2318.01933,0.18100
2319.94780,0.18158
2321.87627,0.17433
2323.80473,0.16614
2325.73320,0.16461
2327.66167,0.16595
2329.59014,0.16296
2331.51861,0.16106
2333.44708,0.15947
2335.37555,0.15279
2337.30401,0.15002
2339.23248,0.15670
2341.16095,0.16371
2343.08942,0.16190
2345.01789,0.15905
2346.94636,0.16280
2348.87483,0.16530
2350.80330,0.16497
2352.73176,0.16928
2354.66023,0.17588
2356.58870,0.16150
2358.51717,0.12872
2360.44564,0.11563
2362.37411,0.13501
2364.30258,0.16136
2366.23104,0.16469
2368.15951,0.15093
2370.08798,0.14785
2372.01645,0.15627
2373.94492,0.16429
2375.87339,0.17072
2377.80186,0.17696
2379.73033,0.18235
2381.65879,0.18679
2383.58726,0.19108
2385.51573,0.19421
2387.44420,0.19492
2389.37267,0.19405
2391.30114,0.19342
2393.22961,0.19438
2395.15807,0.19547
2397.08654,0.19636
2399.01501,0.19816
2400.94348,0.19885
2402.87195,0.19873
2404.80042,0.19935
2406.72889,0.19913
2408.65736,0.19646
2410.58582,0.19264
2412.51429,0.19174
2414.44276,0.19498
2416.37123,0.19782
2418.29970,0.19610
2420.22817,0.19294
2422.15664,0.19361
2424.08510,0.19636
2426.01357,0.19639
2427.94204,0.19434
2429.87051,0.19445
2431.79898,0.19698
2433.72745,0.19886
2435.65592,0.19931
2437.58439,0.19890
2439.51285,0.19796
2441.44132,0.19713
2443.36979,0.19595
2445.29826,0.19461
2447.22673,0.19420
2449.15520,0.19532
2451.08367,0.19779
2453.01213,0.19952
2454.94060,0.19919
2456.86907,0.19735
2458.79754,0.19473
2460.72601,0.19339
2462.65448,0.19544
2464.58295,0.19910
2466.51142,0.20002
2468.43988,0.19793
2470.36835,0.19740
2472.29682,0.19924
2474.22529,0.19936
2476.15376,0.19780
2478.08223,0.19789
2480.01070,0.19956
2481.93916,0.19971
2483.86763,0.19731
2485.79610,0.19557
2487.72457,0.19571
2489.65304,0.19504
2491.58151,0.19290
2493.50998,0.19376
2495.43844,0.19906
2497.36691,0.20293
2499.29538,0.20187
2501.22385,0.19821
2503.15232,0.19574
2505.08079,0.19607
2507.00926,0.19879
2508.93773,0.20163
2510.86619,0.20075
2512.79466,0.19737
2514.72313,0.19719
2516.65160,0.20008
2518.58007,0.20101
2520.50854,0.19948
2522.43701,0.19839
2524.36547,0.19825
2526.29394,0.19759
2528.22241,0.19598
2530.15088,0.19528
2532.07935,0.19679
2534.00782,0.19874
2535.93629,0.19945
2537.86476,0.19951
2539.79322,0.20012
2541.72169,0.20206
2543.65016,0.20344
2545.57863,0.20252
2547.50710,0.20093
2549.43557,0.19897
2551.36404,0.19632
2553.29250,0.19539
2555.22097,0.19814
2557.14944,0.20260
2559.07791,0.20576
2561.00638,0.20703
2562.93485,0.20560
2564.86332,0.20068
2566.79179,0.19595
2568.72025,0.19634
2570.64872,0.20023
2572.57719,0.20220
2574.50566,0.20222
2576.43413,0.20275
2578.36260,0.20262
2580.29107,0.20265
2582.21953,0.20398
2584.14800,0.20361
2586.07647,0.20203
2588.00494,0.20208
2589.93341,0.20347
2591.86188,0.20522
2593.79035,0.20690
2595.71882,0.20612
2597.64728,0.20133
2599.57575,0.19644
2601.50422,0.19621
2603.43269,0.19879
2605.36116,0.19889
2607.28963,0.19724
2609.21810,0.19741
2611.14656,0.19759
2613.07503,0.19736
2615.00350,0.20075
2616.93197,0.20474
2618.86044,0.20365
2620.78891,0.20126
2622.71738,0.20033
2624.64585,0.19777
2626.57431,0.19484
2628.50278,0.19522
2630.43125,0.19887
2632.35972,0.20278
2634.28819,0.20397
2636.21666,0.20309
2638.14513,0.20335
2640.07359,0.20500
2642.00206,0.20689
2643.93053,0.20833
2645.85900,0.20648
2647.78747,0.20190
2649.71594,0.20045
2651.64441,0.20318
2653.57288,0.20499
2655.50134,0.20393
2657.42981,0.20290
2659.35828,0.20228
2661.28675,0.20094
2663.21522,0.19929
2665.14369,0.19688
2667.07216,0.19572
2669.00062,0.19786
2670.92909,0.20116
2672.85756,0.20359
2674.78603,0.20361
2676.71450,0.20119
2678.64297,0.19905
2680.57144,0.20066
2682.49990,0.20648
2684.42837,0.21171
2686.35684,0.21169
2688.28531,0.20717
2690.21378,0.20302
2692.14225,0.20264
2694.07072,0.20542
2695.99919,0.20766
2697.92765,0.20715
2699.85612,0.20681
2701.78459,0.20799
2703.71306,0.20893
2705.64153,0.20904
2707.57000,0.20813
2709.49847,0.20673
2711.42693,0.20557
2713.35540,0.20328
2715.28387,0.19989
2717.21234,0.20073
2719.14081,0.20753
2721.06928,0.21326
2722.99775,0.21258
2724.92622,0.20893
2726.85468,0.20898
2728.78315,0.21183
2730.71162,0.21125
2732.64009,0.20883
2734.56856,0.21022
2736.49703,0.21393
2738.42550,0.21419
2740.35396,0.20971
2742.28243,0.20475
2744.21090,0.20264
2746.13937,0.20286
2748.06784,0.20394
2749.99631,0.20568
2751.92478,0.20734
2753.85325,0.20776
2755.78171,0.20914
2757.71018,0.21158
2759.63865,0.21098
2761.56712,0.20876
2763.49559,0.20955
2765.42406,0.21272
2767.35253,0.21487
2769.28099,0.21465
2771.20946,0.21351
2773.13793,0.21159
2775.06640,0.20918
2776.99487,0.20989
2778.92334,0.21349
2780.85181,0.21592
2782.78028,0.21629
2784.70874,0.21408
2786.63721,0.20880
2788.56568,0.20457
2790.49415,0.20481
2792.42262,0.20872
2794.35109,0.21438
2796.27956,0.21810
2798.20802,0.21693
2800.13649,0.21207
2802.06496,0.20818
2803.99343,0.20858
2805.92190,0.21147
2807.85037,0.21397
2809.77884,0.21531
2811.70731,0.21694
2813.63577,0.21928
2815.56424,0.22083
2817.49271,0.22135
2819.42118,0.22088
2821.34965,0.22007
2823.27812,0.21852
2825.20659,0.21447
2827.13505,0.20961
2829.06352,0.20824
2830.99199,0.20966
2832.92046,0.21021
2834.84893,0.21243
2836.77740,0.21604
2838.70587,0.21585
2840.63433,0.21504
2842.56280,0.21870
2844.49127,0.22319
2846.41974,0.22208
2848.34821,0.21706
2850.27668,0.21402
2852.20515,0.21319
2854.13362,0.21261
2856.06208,0.21264
2857.99055,0.21418
2859.91902,0.21706
2861.84749,0.21977
2863.77596,0.22080
2865.70443,0.22191
2867.63290,0.22419
2869.56136,0.22321
2871.48983,0.21664
2873.41830,0.21029
2875.34677,0.20960
2877.27524,0.21193
2879.20371,0.21346
2881.13218,0.21278
2883.06065,0.21034
2884.98911,0.21049
2886.91758,0.21403
2888.84605,0.21660
2890.77452,0.21586
2892.70299,0.21153
2894.63146,0.20652
2896.55993,0.20506
2898.48839,0.20574
2900.41686,0.20650
2902.34533,0.20771
2904.27380,0.20787
2906.20227,0.20775
2908.13074,0.20957
2910.05921,0.21215
2911.98768,0.21478
2913.91614,0.21600
2915.84461,0.21396
2917.77308,0.21091
2919.70155,0.20987
2921.63002,0.21181
2923.55849,0.21240
2925.48696,0.20832
2927.41542,0.20650
2929.34389,0.21016
2931.27236,0.21217
2933.20083,0.20902
2935.12930,0.20346
2937.05777,0.19981
2938.98624,0.20252
2940.91471,0.20734
2942.84317,0.20851
2944.77164,0.20756
2946.70011,0.20607
2948.62858,0.20897
2950.55705,0.21519
2952.48552,0.21620
2954.41399,0.21035
2956.34245,0.19948
2958.27092,0.19278
2960.19939,0.19824
2962.12786,0.20769
2964.05633,0.21362
2965.98480,0.21456
2967.91327,0.21023
2969.84174,0.20960
2971.77020,0.21512
2973.69867,0.21854
2975.62714,0.21485
2977.55561,0.20428
2979.48408,0.20027
2981.41255,0.20988
2983.34102,0.22209
2985.26948,0.22940
2987.19795,0.22867
2989.12642,0.22481
2991.05489,0.22638
2992.98336,0.22852
2994.91183,0.22710
2996.84030,0.22526
2998.76877,0.22390
3000.69723,0.22406
3002.62570,0.22320
3004.55417,0.21799
3006.48264,0.21126
3008.41111,0.20631
3010.33958,0.20168
3012.26805,0.18756
3014.19651,0.15732
3016.12498,0.13058
3018.05345,0.14038
3019.98192,0.17961
3021.91039,0.20832
3023.83886,0.21606
3025.76733,0.21574
3027.69579,0.21494
3029.62426,0.21687
3031.55273,0.22031
3033.48120,0.22363
3035.40967,0.22557
3037.33814,0.22338
3039.26661,0.21775
3041.19508,0.21278
3043.12354,0.21258
3045.05201,0.21551
3046.98048,0.21511
3048.90895,0.21144
3050.83742,0.20908
3052.76589,0.20939
3054.69436,0.20969
3056.62282,0.20827
3058.55129,0.21109
3060.47976,0.21937
3062.40823,0.22338
3064.33670,0.21586
3066.26517,0.20365
3068.19364,0.20290
3070.12211,0.21395
3072.05057,0.22173
3073.97904,0.21841
3075.90751,0.21077
3077.83598,0.21174
3079.76445,0.22002
3081.69292,0.22287
3083.62139,0.21483
3085.54985,0.20630
3087.47832,0.21193
3089.40679,0.22455
3091.33526,0.22787
3093.26373,0.21793
3095.19220,0.20618
3097.12067,0.20774
3099.04914,0.21546
3100.97760,0.21635
3102.90607,0.21292
3104.83454,0.21325
3106.76301,0.21862
3108.69148,0.22144
3110.61995,0.21536
3112.54842,0.20551
3114.47688,0.20535
3116.40535,0.21487
3118.33382,0.22206
3120.26229,0.21949
3122.19076,0.20934
3124.11923,0.20461
3126.04770,0.20952
3127.97617,0.21500
3129.90463,0.21559
3131.83310,0.21469
3133.76157,0.21832
3135.69004,0.22536
3137.61851,0.22708
3139.54698,0.22031
3141.47545,0.21642
3143.40391,0.22152
3145.33238,0.22755
3147.26085,0.22917
3149.18932,0.22607
3151.11779,0.22166
3153.04626,0.22087
3154.97473,0.22303
3156.90320,0.22477
3158.83166,0.22399
3160.76013,0.22133
3162.68860,0.22144
3164.61707,0.22839
3166.54554,0.23832
3168.47401,0.24113
3170.40248,0.23539
3172.33094,0.22836
3174.25941,0.22383
3176.18788,0.22387
3178.11635,0.22848
3180.04482,0.23253
3181.97329,0.23331
3183.90176,0.23414
3185.83022,0.23634
3187.75869,0.23444
3189.68716,0.22804
3191.61563,0.22563
3193.54410,0.22954
3195.47257,0.23403
3197.40104,0.23375
3199.32951,0.22827
3201.25797,0.22368
3203.18644,0.22248
3205.11491,0.22268
3207.04338,0.22453
3208.97185,0.22529
3210.90032,0.22253
3212.82879,0.22087
3214.75725,0.22353
3216.68572,0.22614
3218.61419,0.22388
3220.54266,0.22105
3222.47113,0.22595
3224.39960,0.23312
3226.32807,0.23315
3228.25654,0.23147
3230.18500,0.23250
3232.11347,0.23103
3234.04194,0.22587
3235.97041,0.22214
3237.89888,0.22269
3239.82735,0.22576
3241.75582,0.22776
3243.68428,0.22544
3245.61275,0.22004
3247.54122,0.21689
3249.46969,0.22004
3251.39816,0.22632
3253.32663,0.22894
3255.25510,0.22877
3257.18357,0.22951
3259.11203,0.22830
3261.04050,0.22284
3262.96897,0.21728
3264.89744,0.21641
3266.82591,0.22216
3268.75438,0.22866
3270.68285,0.22703
3272.61131,0.22220
3274.53978,0.22500
3276.46825,0.23278
3278.39672,0.23313
3280.32519,0.22451
3282.25366,0.21882
3284.18213,0.22079
3286.11060,0.22385
3288.03906,0.22405
3289.96753,0.22456
3291.89600,0.22736
3293.82447,0.22758
3295.75294,0.22235
3297.68141,0.21797
3299.60988,0.22081
3301.53834,0.22685
3303.46681,0.22821
3305.39528,0.22528
3307.32375,0.22303
3309.25222,0.22221
3311.18069,0.22090
3313.10916,0.21871
3315.03763,0.21909
3316.96609,0.22313
3318.89456,0.22619
3320.82303,0.22821
3322.75150,0.23100
3324.67997,0.23226
3326.60844,0.23011
3328.53691,0.22440
3330.46537,0.21793
3332.39384,0.21505
3334.32231,0.21843
3336.25078,0.22461
3338.17925,0.22501
3340.10772,0.22056
3342.03619,0.21989
3343.96466,0.22320
3345.89312,0.22454
3347.82159,0.22255
3349.75006,0.22244
3351.67853,0.22833
3353.60700,0.23507
3355.53547,0.23577
3357.46394,0.23201
3359.39240,0.23136
3361.32087,0.23670
3363.24934,0.23985
3365.17781,0.23573
3367.10628,0.23152
3369.03475,0.22921
3370.96322,0.22467
3372.89168,0.22229
3374.82015,0.22477
3376.74862,0.22792
3378.67709,0.22935
3380.60556,0.22581
3382.53403,0.22126
3384.46250,0.22472
3386.39097,0.23202
3388.31943,0.23333
3390.24790,0.22836
3392.17637,0.22322
3394.10484,0.21985
3396.03331,0.21747
3397.96178,0.22000
3399.89025,0.22664
3401.81871,0.22877
3403.74718,0.22292
3405.67565,0.21519
3407.60412,0.21427
3409.53259,0.22165
3411.46106,0.23025
3413.38953,0.23423
3415.31800,0.23383
3417.24646,0.23347
3419.17493,0.23359
3421.10340,0.23020
3423.03187,0.22735
3424.96034,0.22794
3426.88881,0.22569
3428.81728,0.21987
3430.74574,0.21485
3432.67421,0.21225
3434.60268,0.21263
3436.53115,0.21558
3438.45962,0.22071
3440.38809,0.22446
3442.31656,0.22187
3444.24503,0.21939
3446.17349,0.22383
3448.10196,0.22810
3450.03043,0.22592
3451.95890,0.21821
3453.88737,0.20733
3455.81584,0.19871
3457.74431,0.19730
3459.67277,0.20271
3461.60124,0.20746
3463.52971,0.20519
3465.45818,0.20324
3467.38665,0.20800
3469.31512,0.21171
3471.24359,0.20850
3473.17206,0.20146
3475.10052,0.19590
3477.02899,0.19609
3478.95746,0.20090
3480.88593,0.20511
3482.81440,0.20413
3484.74287,0.20010
3486.67134,0.19939
3488.59980,0.20061
3490.52827,0.19929
3492.45674,0.19640
3494.38521,0.19565
3496.31368,0.19904
3498.24215,0.20006
3500.17062,0.19722
3502.09909,0.19841
3504.02755,0.19883
3505.95602,0.19217
3507.88449,0.18765
3509.81296,0.18969
3511.74143,0.19091
3513.66990,0.18841
3515.59837,0.18708
3517.52683,0.18892
3519.45530,0.19181
3521.38377,0.19357
3523.31224,0.19334
3525.24071,0.19263
3527.16918,0.19267
3529.09765,0.18967
3531.02611,0.18132
3532.95458,0.17555
3534.88305,0.17900
3536.81152,0.18424
3538.73999,0.18256
3540.66846,0.17904
3542.59693,0.17783
3544.52540,0.17631
3546.45386,0.17596
3548.38233,0.17819
3550.31080,0.18111
3552.23927,0.18487
3554.16774,0.18498
3556.09621,0.17935
3558.02468,0.17476
3559.95314,0.17613
3561.88161,0.18207
3563.81008,0.18742
3565.73855,0.19076
3567.66702,0.18834
3569.59549,0.17560
3571.52396,0.16620
3573.45243,0.16758
3575.38089,0.17208
3577.30936,0.17159
3579.23783,0.16684
3581.16630,0.16321
3583.09477,0.16397
3585.02324,0.16981
3586.95171,0.17946
3588.88017,0.18221
3590.80864,0.17538
3592.73711,0.16909
3594.66558,0.16558
3596.59405,0.16136
3598.52252,0.15878
3600.45099,0.15853
3602.37946,0.15700
3604.30792,0.15708
3606.23639,0.16303
3608.16486,0.17126
3610.09333,0.17431
3612.02180,0.17483
3613.95027,0.17473
3615.87874,0.17575
3617.80720,0.18066
3619.73567,0.17464
3621.66414,0.15513
3623.59261,0.14591
3625.52108,0.15176
3627.44955,0.16408
3629.37802,0.17159
3631.30649,0.16873
3633.23495,0.16152
3635.16342,0.15427
3637.09189,0.15139
3639.02036,0.15138
3640.94883,0.15207
3642.87730,0.15567
3644.80577,0.16213
3646.73423,0.16808
3648.66270,0.16906
3650.59117,0.16503
3652.51964,0.16318
3654.44811,0.16191
3656.37658,0.15450
3658.30505,0.14478
3660.23352,0.14299
3662.16198,0.14335
3664.09045,0.13912
3666.01892,0.13699
3667.94739,0.14313
3669.87586,0.14922
3671.80433,0.15047
3673.73280,0.15749
3675.66126,0.16231
3677.58973,0.15231
3679.51820,0.14225
3681.44667,0.13726
3683.37514,0.13480
3685.30361,0.13423
3687.23208,0.13811
3689.16055,0.14566
3691.08901,0.14408
3693.01748,0.13411
3694.94595,0.12814
3696.87442,0.12887
3698.80289,0.13363
3700.73136,0.13843
3702.65983,0.13731
3704.58829,0.13396
3706.51676,0.13764
3708.44523,0.14869
3710.37370,0.15746
3712.30217,0.15169
3714.23064,0.14236
3716.15911,0.13999
3718.08757,0.14155
3720.01604,0.14442
3721.94451,0.14669
3723.87298,0.14520
3725.80145,0.14031
3727.72992,0.13787
3729.65839,0.14110
3731.58686,0.14552
3733.51532,0.14881
3735.44379,0.15785
3737.37226,0.16604
3739.30073,0.16343
3741.22920,0.15705
3743.15767,0.15476
3745.08614,0.15752
3747.01460,0.16111
3748.94307,0.16855
3750.87154,0.17262
3752.80001,0.16221
3754.72848,0.15379
3756.65695,0.15167
3758.58542,0.14791
3760.51389,0.13922
3762.44235,0.13498
3764.37082,0.13864
3766.29929,0.14316
3768.22776,0.14527
3770.15623,0.14861
3772.08470,0.14731
3774.01317,0.13955
3775.94163,0.13370
3777.87010,0.13361
3779.79857,0.13486
3781.72704,0.13417
3783.65551,0.13384
3785.58398,0.13500
3787.51245,0.13746
3789.44092,0.14023
3791.36938,0.14152
3793.29785,0.14083
3795.22632,0.13908
3797.15479,0.13737
3799.08326,0.13832
3801.01173,0.13999
3802.94020,0.13693
3804.86866,0.13728
3806.79713,0.14171
3808.72560,0.13893
3810.65407,0.13255
3812.58254,0.12993
3814.51101,0.13110
3816.43948,0.13580
3818.36795,0.14207
3820.29641,0.14635
3822.22488,0.14105
3824.15335,0.13450
3826.08182,0.13694
3828.01029,0.14042
3829.93876,0.13854
3831.86723,0.13545
3833.79569,0.13277
3835.72416,0.13292
3837.65263,0.13846
3839.58110,0.14308
3841.50957,0.14321
3843.43804,0.14018
3845.36651,0.13418
3847.29498,0.12957
3849.22344,0.13187
3851.15191,0.14265
3853.08038,0.15165
3855.00885,0.14049
3856.93732,0.12801
3858.86579,0.12403
3860.79426,0.12715
3862.72272,0.13146
3864.65119,0.13133
3866.57966,0.13162
3868.50813,0.13481
3870.43660,0.13592
3872.36507,0.13286
3874.29354,0.12729
3876.22200,0.12376
3878.15047,0.12625
3880.07894,0.12737
3882.00741,0.12328
3883.93588,0.12521
3885.86435,0.13206
3887.79282,0.13441
3889.72129,0.13447
3891.64975,0.13405
3893.57822,0.13216
3895.50669,0.13086
3897.43516,0.13104
3899.36363,0.13382
3901.29210,0.13670
3903.22057,0.13265
3905.14903,0.12411
3907.07750,0.11906
3909.00597,0.11848
3910.93444,0.12199
3912.86291,0.12602
3914.79138,0.12525
3916.71985,0.12428
3918.64832,0.12698
3920.57678,0.12613
3922.50525,0.12475
3924.43372,0.12890
3926.36219,0.13136
3928.29066,0.12763
3930.21913,0.12384
3932.14760,0.12391
3934.07606,0.12357
3936.00453,0.11926
3937.93300,0.11261
3939.86147,0.10678
3941.78994,0.10794
3943.71841,0.11498
3945.64688,0.11567
3947.57535,0.11383
3949.50381,0.11960
3951.43228,0.12361
3953.36075,0.11848
3955.28922,0.11442
3957.21769,0.11905
3959.14616,0.12452
3961.07463,0.12333
3963.00309,0.12276
3964.93156,0.12566
3966.86003,0.12412
3968.78850,0.11753
3970.71697,0.11066
3972.64544,0.10702
3974.57391,0.10901
3976.50238,0.11419
3978.43084,0.11783
3980.35931,0.11800
3982.28778,0.11394
3984.21625,0.10751
3986.14472,0.10404
3988.07319,0.10484
3990.00166,0.10688
3991.93012,0.10929
3993.85859,0.11236
3995.78706,0.11290
3997.71553,0.10897
3999.64400,0.10518
4001.57247,0.10478
4003.50094,0.10828
4005.42941,0.11523
4007.35787,0.11924
4009.28634,0.11653
4011.21481,0.11244
4013.14328,0.11093
4015.07175,0.11165
4017.00022,0.11122
4018.92869,0.10544
4020.85715,0.09890
4022.78562,0.10141
4024.71409,0.11072
4026.64256,0.11415
4028.57103,0.11199
4030.49950,0.11246
4032.42797,0.11147
4034.35644,0.10728
4036.28490,0.10518
4038.21337,0.10297
4040.14184,0.09763
4042.07031,0.09406
4043.99878,0.09773
4045.92725,0.10455
4047.85572,0.10412
4049.78418,0.09840
4051.71265,0.09730
4053.64112,0.09859
4055.56959,0.09788
4057.49806,0.09822
4059.42653,0.10063
4061.35500,0.10080
4063.28346,0.09679
4065.21193,0.09476
4067.14040,0.09889
4069.06887,0.10387
4070.99734,0.10378
4072.92581,0.10319
4074.85428,0.10826
4076.78275,0.11497
4078.71121,0.11648
4080.63968,0.11047
4082.56815,0.10361
4084.49662,0.10401
4086.42509,0.10600
4088.35356,0.10112
4090.28203,0.09639
4092.21049,0.09923
4094.13896,0.10261
4096.06743,0.10181
4097.99590,0.09994
4099.92437,0.09738
4101.85284,0.09422
4103.78131,0.09270
4105.70978,0.09384
4107.63824,0.09668
4109.56671,0.09792
4111.49518,0.09736
4113.42365,0.09708
4115.35212,0.09518
4117.28059,0.09416
4119.20906,0.09584
4121.13752,0.09408
4123.06599,0.09057
4124.99446,0.09102
4126.92293,0.09276
4128.85140,0.09493
4130.77987,0.09776
4132.70834,0.09424
4134.63681,0.08449
4136.56527,0.07852
4138.49374,0.07686
4140.42221,0.07755
4142.35068,0.08506
4144.27915,0.09700
4146.20762,0.10495
4148.13609,0.10405
4150.06455,0.09803
4151.99302,0.09530
4153.92149,0.09785
4155.84996,0.10064
4157.77843,0.10057
4159.70690,0.09988
4161.63537,0.09853
4163.56384,0.09460
4165.49230,0.09223
4167.42077,0.09433
4169.34924,0.09450
4171.27771,0.08856
4173.20618,0.08282
4175.13465,0.08185
4177.06312,0.08438
4178.99158,0.08639
4180.92005,0.08300
4182.84852,0.07964
4184.77699,0.08422
4186.70546,0.08879
4188.63393,0.08353
4190.56240,0.07712
4192.49087,0.07692
4194.41933,0.07605
4196.34780,0.07617
4198.27627,0.08380
4200.20474,0.09165
4202.13321,0.09014
4204.06168,0.08398
4205.99015,0.08301
4207.91861,0.08853
4209.84708,0.09383
4211.77555,0.09250
4213.70402,0.08895
4215.63249,0.08793
4217.56096,0.08575
4219.48943,0.08291
4221.41789,0.08075
4223.34636,0.07556
4225.27483,0.06810
4227.20330,0.06428
4229.13177,0.06478
4231.06024,0.06754
4232.98871,0.07123
4234.91718,0.07178
4236.84564,0.07041
4238.77411,0.07422
4240.70258,0.08242
4242.63105,0.08581
4244.55952,0.08129
4246.48799,0.07372
4248.41646,0.06941
4250.34492,0.06986
4252.27339,0.06892
4254.20186,0.06595
4256.13033,0.06477
4258.05880,0.06686
4259.98727,0.07236
4261.91574,0.07278
4263.84421,0.06489
4265.77267,0.05976
4267.70114,0.05866
4269.62961,0.05434
4271.55808,0.05095
4273.48655,0.05303
4275.41502,0.06109
4277.34349,0.07357
4279.27195,0.08062
4281.20042,0.08175
4283.12889,0.08379
4285.05736,0.08319
4286.98583,0.07800
4288.91430,0.07100
4290.84277,0.06463
4292.77124,0.06108
4294.69970,0.05700
4296.62817,0.05205
4298.55664,0.05043
4300.48511,0.05087
4302.41358,0.05403
4304.34205,0.06112
4306.27052,0.06618
4308.19898,0.06410
4310.12745,0.05770
4312.05592,0.05581
4313.98439,0.05951
4315.91286,0.06211
4317.84133,0.06303
4319.76980,0.06380
4321.69827,0.06303
4323.62673,0.06199
4325.55520,0.06291
4327.48367,0.06123
4329.41214,0.05626
4331.34061,0.05610
4333.26908,0.05630
4335.19755,0.04853
4337.12601,0.04002
4339.05448,0.04054
4340.98295,0.04798
4342.91142,0.05147
4344.83989,0.04766
4346.76836,0.04530
4348.69683,0.05027
4350.62530,0.05419
4352.55376,0.04858
4354.48223,0.04150
4356.41070,0.03837
4358.33917,0.03234
4360.26764,0.02579
4362.19611,0.02753
4364.12458,0.03586
4366.05304,0.04735
4367.98151,0.06051
4369.90998,0.06460
4371.83845,0.05511
4373.76692,0.04572
4375.69539,0.04530
4377.62386,0.04884
4379.55232,0.05092
4381.48079,0.04933
4383.40926,0.04489
4385.33773,0.04077
4387.26620,0.03793
4389.19467,0.03682
4391.12314,0.03689
4393.05161,0.03531
4394.98007,0.03308
4396.90854,0.03063
4398.83701,0.02681
4400.76548,0.02759
4402.69395,0.03228
4404.62242,0.03051
4406.55089,0.02409
4408.47935,0.02057
4410.40782,0.01995
4412.33629,0.02199
4414.26476,0.02331
4416.19323,0.02035
4418.12170,0.01682
4420.05017,0.01425
4421.97864,0.01466
4423.90710,0.02007
4425.83557,0.02593
4427.76404,0.03017
4429.69251,0.03436
4431.62098,0.03621
4433.54945,0.03529
4435.47792,0.03942
4437.40638,0.04655
4439.33485,0.04561
4441.26332,0.03992
4443.19179,0.03579
4445.12026,0.03275
4447.04873,0.03309
4448.97720,0.03330
4450.90567,0.02994
4452.83413,0.02866
4454.76260,0.02787
4456.69107,0.02584
4458.61954,0.02558
4460.54801,0.02376
4462.47648,0.02175
4464.40495,0.02661
4466.33341,0.03689
4468.26188,0.04377
4470.19035,0.04532
4472.11882,0.04118
4474.04729,0.02935
4475.97576,0.02084
4477.90423,0.02127
4479.83270,0.02106
4481.76116,0.01589
4483.68963,0.01383
4485.61810,0.02217
4487.54657,0.03119
4489.47504,0.03494
4491.40351,0.03950
4493.33198,0.03966
4495.26044,0.03234
4497.18891,0.02835
4499.11738,0.02941
4501.04585,0.02401
4502.97432,0.00926
4504.90279,-0.00297
4506.83126,-0.00420
4508.75973,0.00225
4510.68819,0.01268
4512.61666,0.02555
4514.54513,0.03435
4516.47360,0.03103
4518.40207,0.01943
4520.33054,0.01260
4522.25901,0.01192
4524.18747,0.01176
4526.11594,0.01348
4528.04441,0.01435
4529.97288,0.01029
4531.90135,0.00580
4533.82982,0.00520
4535.75829,0.00683
4537.68676,0.00937
4539.61522,0.01258
4541.54369,0.01245
4543.47216,0.00884
4545.40063,0.00770
4547.32910,0.01241
4549.25757,0.01930
4551.18604,0.02371
4553.11450,0.02894
4555.04297,0.03849
4556.97144,0.04573
4558.89991,0.04511
4560.82838,0.04216
4562.75685,0.03752
4564.68532,0.03019
4566.61378,0.02566
4568.54225,0.01942
4570.47072,0.00946
4572.39919,0.00355
4574.32766,0.00615
4576.25613,0.01519
4578.18460,0.02109
4580.11307,0.02102
4582.04153,0.01939
4583.97000,0.01346
4585.89847,0.00327
4587.82694,-0.00300
4589.75541,-0.00292
4591.68388,0.00223
4593.61235,0.01127
4595.54081,0.01490
4597.46928,0.00614
4599.39775,-0.00934
4601.32622,-0.01820
4603.25469,-0.01164
4605.18316,0.00283
4607.11163,0.01356
4609.04010,0.01743
4610.96856,0.01585
4612.89703,0.01670
4614.82550,0.02349
4616.75397,0.02762
4618.68244,0.02231
4620.61091,0.00834
4622.53938,-0.00342
4624.46784,-0.00137
4626.39631,0.00645
4628.32478,0.00815
4630.25325,0.00594
4632.18172,0.00451
4634.11019,0.00502
4636.03866,0.00316
4637.96713,-0.00159
4639.89559,-0.00169
4641.82406,0.00422
4643.75253,0.01059
4645.68100,0.01176
4647.60947,0.00745
4649.53794,0.00251
4651.46641,-0.00411
4653.39487,-0.01162
4655.32334,-0.01158
4657.25181,-0.00397
4659.18028,0.00083
4661.10875,-0.00278
4663.03722,-0.00327
4664.96569,0.00386
4666.89416,0.00645
4668.82262,0.00045
4670.75109,-0.00351
4672.67956,0.00200
4674.60803,0.01030
4676.53650,0.01294
4678.46497,0.00988
4680.39344,0.00623
4682.32190,0.00996
4684.25037,0.01856
4686.17884,0.01662
4688.10731,0.00520
4690.03578,0.00132
4691.96425,0.00615
4693.89272,0.00777
4695.82119,0.00691
4697.74965,0.01219
4699.67812,0.01719
4701.60659,0.01173
4703.53506,0.00223
4705.46353,-0.00316
4707.39200,-0.00494
4709.32047,-0.00118
4711.24893,0.00804
4713.17740,0.01388
4715.10587,0.01589
4717.03434,0.01353
4718.96281,0.00182
4720.89128,-0.00529
4722.81975,-0.00094
4724.74821,-0.00062
4726.67668,-0.00157
4728.60515,0.00544
4730.53362,0.01065
4732.46209,0.00849
4734.39056,0.00688
4736.31903,0.00632
4738.24750,0.00550
4740.17596,0.00384
4742.10443,-0.00531
4744.03290,-0.01403
4745.96137,-0.00806
4747.88984,0.00225
4749.81831,0.00021
4751.74678,-0.00783
4753.67524,-0.00849
4755.60371,0.00033
4757.53218,0.00589
4759.46065,0.00062
4761.38912,0.00013
4763.31759,0.00860
4765.24606,0.01466
4767.17453,0.01935
4769.10299,0.02134
4771.03146,0.01638
4772.95993,0.00711
4774.88840,-0.00302
4776.81687,-0.00538
4778.74534,0.00014
4780.67381,0.00126
4782.60227,-0.00287
4784.53074,-0.00653
4786.45921,-0.00580
4788.38768,0.00413
4790.31615,0.02020
4792.24462,0.03197
4794.17309,0.02929
4796.10156,0.01487
4798.03002,0.00053
4799.95849,-0.00572
4801.88696,-0.00063
4803.81543,0.00854
4805.74390,0.01125
4807.67237,0.00832
4809.60084,0.00559
4811.52930,0.00856
4813.45777,0.01776
4815.38624,0.01870
4817.31471,0.00472
4819.24318,-0.00436
4821.17165,0.00486
4823.10012,0.01869
4825.02859,0.01808
4826.95705,0.00678
4828.88552,0.00168
4830.81399,0.00786
4832.74246,0.01252
4834.67093,0.00284
4836.59940,-0.00285
4838.52787,0.00805
4840.45633,0.01374
4842.38480,0.00998
4844.31327,0.00902
4846.24174,0.00629
4848.17021,-0.00083
4850.09868,-0.00794
4852.02715,-0.01286
4853.95562,-0.01165
4855.88408,-0.00622
4857.81255,-0.00211
4859.74102,0.00077
4861.66949,0.00386
4863.59796,0.00649
4865.52643,0.00830
4867.45490,0.01425
4869.38336,0.01777
4871.31183,0.00837
4873.24030,-0.00154
4875.16877,-0.00513
4877.09724,-0.01287
4879.02571,-0.02117
4880.95418,-0.01493
4882.88265,0.00370
4884.81111,0.01167
4886.73958,0.00439
4888.66805,-0.00199
4890.59652,-0.00456
4892.52499,-0.00674
4894.45346,-0.00010
4896.38193,0.01935
4898.31039,0.03107
4900.23886,0.02197
4902.16733,0.01151
4904.09580,0.01084
4906.02427,0.01174
4907.95274,0.01309
4909.88121,0.01950
4911.80967,0.02552
4913.73814,0.02885
4915.66661,0.03589
4917.59508,0.03519
4919.52355,0.01768
4921.45202,0.00661
4923.38049,0.00997
4925.30896,0.00122
4927.23742,-0.01630
4929.16589,-0.01249
4931.09436,0.00863
4933.02283,0.02550
4934.95130,0.03285
4936.87977,0.03090
4938.80824,0.02439
4940.73670,0.01952
4942.66517,0.01264
4944.59364,0.00612
4946.52211,0.00477
4948.45058,0.00113
4950.37905,-0.00612
4952.30752,-0.00496
4954.23599,0.00623
4956.16445,0.01079
4958.09292,0.00338
4960.02139,-0.00798
4961.94986,-0.01667
4963.87833,-0.01621
4965.80680,-0.00445
4967.73527,0.01389
4969.66373,0.02242
4971.59220,0.01473
4973.52067,0.00216
4975.44914,-0.00818
4977.37761,-0.00956
4979.30608,-0.00226
4981.23455,0.00747
4983.16302,0.01305
4985.09148,0.00910
4987.01995,0.00361
4988.94842,-0.00283
4990.87689,-0.01320
4992.80536,-0.01022
4994.73383,0.00586
4996.66230,0.01258
4998.59076,0.01763
5000.51923,0.02938
5002.44770,0.03309
5004.37617,0.02560
5006.30464,0.01508
5008.23311,0.01282
5010.16158,0.01688
5012.09005,0.01217
5014.01851,0.00177
5015.94698,-0.00002
5017.87545,0.01148
5019.80392,0.02723
5021.73239,0.03547
5023.66086,0.03110
5025.58933,0.02327
5027.51779,0.02528
5029.44626,0.02913
5031.37473,0.02483
5033.30320,0.01990
5035.23167,0.02192
5037.16014,0.02501
5039.08861,0.01969
5041.01708,0.00680
5042.94554,-0.00050
5044.87401,0.00588
5046.80248,0.01632
5048.73095,0.01762
5050.65942,0.01157
5052.58789,0.00944
5054.51636,0.01114
5056.44482,0.00845
5058.37329,-0.00092
5060.30176,-0.01311
5062.23023,-0.01109
5064.15870,0.01193
5066.08717,0.03224
5068.01564,0.03658
5069.94410,0.03659
5071.87257,0.03785
5073.80104,0.03802
5075.72951,0.03753
5077.65798,0.03607
5079.58645,0.03222
5081.51492,0.02579
5083.44339,0.01777
5085.37185,0.01630
5087.30032,0.02456
5089.22879,0.03165
5091.15726,0.03370
5093.08573,0.03011
5095.01420,0.02125
5096.94267,0.02370
5098.87113,0.04697
5100.79960,0.06750
5102.72807,0.05988
5104.65654,0.03405
5106.58501,0.01713
5108.51348,0.01906
5110.44195,0.02621
5112.37042,0.02967
5114.29888,0.03719
5116.22735,0.04632
5118.15582,0.04903
5120.08429,0.05159
5122.01276,0.05425
5123.94123,0.04923
5125.86970,0.04428
5127.79816,0.04533
5129.72663,0.04199
5131.65510,0.03421
5133.58357,0.03609
5135.51204,0.04328
5137.44051,0.03470
5139.36898,0.01618
5141.29745,0.00950
5143.22591,0.01342
5145.15438,0.01858
5147.08285,0.02596
5149.01132,0.03348
5150.93979,0.03980
5152.86826,0.04416
5154.79673,0.03510
5156.72519,0.02631
5158.65366,0.04260
5160.58213,0.06148
5162.51060,0.06590
5164.43907,0.07261
5166.36754,0.07505
5168.29601,0.05645
5170.22448,0.03516
5172.15294,0.03339
5174.08141,0.03763
5176.00988,0.03340
5177.93835,0.02905
5179.86682,0.02987
5181.79529,0.03639
5183.72376,0.04365
5185.65222,0.03832
5187.58069,0.02952
5189.50916,0.03096
5191.43763,0.03680
5193.36610,0.04582
5195.29457,0.05141
5197.22304,0.03561
5199.15151,0.01327
5201.07997,0.01793
5203.00844,0.03678
5204.93691,0.04704
5206.86538,0.05211
5208.79385,0.05019
5210.72232,0.05087
5212.65079,0.06655
5214.57925,0.07695
5216.50772,0.06347
5218.43619,0.03231
5220.36466,0.00640
5222.29313,0.00438
5224.22160,0.01393
5226.15007,0.01927
5228.07854,0.02731
5230.00700,0.03474
5231.93547,0.03252
5233.86394,0.03137
5235.79241,0.03798
5237.72088,0.04872
5239.64935,0.05599
5241.57782,0.05194
5243.50628,0.04993
5245.43475,0.06351
5247.36322,0.07897
5249.29169,0.08274
5251.22016,0.07057
5253.14863,0.05465
5255.07710,0.06149
5257.00556,0.08350
5258.93403,0.08857
5260.86250,0.06638
5262.79097,0.03829
5264.71944,0.04366
5266.64791,0.06565
5268.57638,0.06738
5270.50485,0.05696
5272.43331,0.04177
5274.36178,0.02863
5276.29025,0.02888
5278.21872,0.04134
5280.14719,0.06289
5282.07566,0.08167
5284.00413,0.08398
5285.93259,0.07483
5287.86106,0.06801
5289.78953,0.06166
5291.71800,0.05641
5293.64647,0.06566
5295.57494,0.07934
5297.50341,0.07970
5299.43188,0.06498
5301.36034,0.04204
5303.28881,0.02485
5305.21728,0.02571
5307.14575,0.04567
5309.07422,0.07288
5311.00269,0.08306
5312.93116,0.06829
5314.85962,0.05070
5316.78809,0.05114
5318.71656,0.06197
5320.64503,0.06683
5322.57350,0.06240
5324.50197,0.05430
5326.43044,0.05105
5328.35891,0.05319
5330.28737,0.04696
5332.21584,0.03894
5334.14431,0.04954
5336.07278,0.05809
5338.00125,0.04521
5339.92972,0.04624
5341.85819,0.07243
5343.78665,0.09394
5345.71512,0.08872
5347.64359,0.06235
5349.57206,0.04306
5351.50053,0.04230
5353.42900,0.04909
5355.35747,0.05406
5357.28594,0.04800
5359.21440,0.03368
5361.14287,0.04029
5363.07134,0.07304
5364.99981,0.08569
5366.92828,0.06967
5368.85675,0.06510
5370.78522,0.07271
5372.71368,0.06710
5374.64215,0.05436
5376.57062,0.06352
5378.49909,0.08510
5380.42756,0.09063
5382.35603,0.08314
5384.28450,0.06735
5386.21297,0.04604
5388.14143,0.04427
5390.06990,0.05553
5391.99837,0.04270
5393.92684,0.01763
5395.85531,0.02457
5397.78378,0.05169
5399.71225,0.07599
5401.64071,0.10118
5403.56918,0.11657
5405.49765,0.10481
5407.42612,0.08491
5409.35459,0.08564
5411.28306,0.10005
5413.21153,0.10581
5415.13999,0.09537
5417.06846,0.06762
5418.99693,0.04458
5420.92540,0.05051
5422.85387,0.06691
5424.78234,0.07988
5426.71081,0.08928
5428.63928,0.09004
5430.56774,0.09311
5432.49621,0.08874
5434.42468,0.07270
5436.35315,0.07191
5438.28162,0.07677
5440.21009,0.07557
5442.13856,0.09019
5444.06702,0.10277
5445.99549,0.08449
5447.92396,0.05856
5449.85243,0.04527
5451.78090,0.04628
5453.70937,0.05121
5455.63784,0.05530
5457.56631,0.08147
5459.49477,0.11257
5461.42324,0.10637
5463.35171,0.07798
5465.28018,0.06660
5467.20865,0.07527
5469.13712,0.08658
5471.06559,0.09437
5472.99405,0.10240
5474.92252,0.11065
5476.85099,0.10610
5478.77946,0.08435
5480.70793,0.06214
5482.63640,0.05231
5484.56487,0.04887
5486.49334,0.04626
5488.42180,0.05638
5490.35027,0.09080
5492.27874,0.13001
5494.20721,0.13828
5496.13568,0.12440
5498.06415,0.10669
5499.99262,0.08173
5501.92108,0.06083
5503.84955,0.06488
5505.77802,0.08830
5507.70649,0.09550
5509.63496,0.08333
5511.56343,0.08094
5513.49190,0.08004
5515.42037,0.06275
5517.34883,0.04510
5519.27730,0.04594
5521.20577,0.06100
5523.13424,0.07197
5525.06271,0.05222
5526.99118,0.00560
5528.91965,-0.00877
5530.84811,0.03863
5532.77658,0.08956
5534.70505,0.10322
5536.63352,0.09071
5538.56199,0.06643
5540.49046,0.05372
5542.41893,0.06444
5544.34740,0.07697
5546.27586,0.08700
5548.20433,0.09941
5550.13280,0.09083
5552.06127,0.05982
5553.98974,0.02987
5555.91821,0.01616
5557.84668,0.02570
5559.77514,0.04438
5561.70361,0.06739
5563.63208,0.10051
5565.56055,0.12243
5567.48902,0.11555
5569.41749,0.08740
5571.34596,0.05495
5573.27443,0.04369
5575.20289,0.05964
5577.13136,0.07661
5579.05983,0.09491
5580.98830,0.11535
5582.91677,0.11296
5584.84524,0.09587
5586.77371,0.08895
5588.70217,0.09963
5590.63064,0.11183
5592.55911,0.11344
5594.48758,0.11542
5596.41605,0.10829
5598.34452,0.08511
5600.27299,0.06532
5602.20145,0.05782
5604.12992,0.06121
5606.05839,0.06944
5607.98686,0.07829
5609.91533,0.09292
5611.84380,0.11418
5613.77227,0.12526
5615.70074,0.11283
5617.62920,0.09195
5619.55767,0.07036
5621.48614,0.04745
5623.41461,0.04454
5625.34308,0.06722
5627.27155,0.08819
5629.20002,0.09060
5631.12848,0.07769
5633.05695,0.05656
5634.98542,0.05061
5636.91389,0.06745
5638.84236,0.07412
5640.77083,0.05818
5642.69930,0.04406
5644.62777,0.04946
5646.55623,0.06216
5648.48470,0.07071
5650.41317,0.09481
5652.34164,0.13495
5654.27011,0.14459
5656.19858,0.10682
5658.12705,0.07272
5660.05551,0.06821
5661.98398,0.07516
5663.91245,0.08645
5665.84092,0.09164
5667.76939,0.09607
5669.69786,0.10346
5671.62633,0.09998
5673.55480,0.10399
5675.48326,0.12226
5677.41173,0.12115
5679.34020,0.08319
5681.26867,0.03773
5683.19714,0.02317
5685.12561,0.04101
5687.05408,0.07380
5688.98254,0.09081
5690.91101,0.06615
5692.83948,0.03846
5694.76795,0.04826
5696.69642,0.06892
5698.62489,0.08314
5700.55336,0.09418
5702.48183,0.09418
5704.41029,0.10476
5706.33876,0.12055
5708.26723,0.10612
5710.19570,0.08325
5712.12417,0.07941
5714.05264,0.06739
5715.98111,0.05672
5717.90957,0.09018
5719.83804,0.12326
5721.76651,0.10514
5723.69498,0.07812
5725.62345,0.07787
5727.55192,0.09143
5729.48039,0.10544
5731.40886,0.10718
5733.33732,0.09425
5735.26579,0.09035
5737.19426,0.10895
5739.12273,0.12437
5741.05120,0.11616
5742.97967,0.08367
5744.90814,0.04091
5746.83660,0.02942
5748.76507,0.05854
5750.69354,0.08847
5752.62201,0.09394
5754.55048,0.07613
5756.47895,0.06676
5758.40742,0.09015
5760.33588,0.11680
5762.26435,0.12579
5764.19282,0.13669
5766.12129,0.14413
5768.04976,0.13953
5769.97823,0.13678
5771.90670,0.13311
5773.83517,0.12658
5775.76363,0.12323
5777.69210,0.11483
5779.62057,0.08499
5781.54904,0.05653
5783.47751,0.06765
5785.40598,0.10527
5787.33445,0.13068
5789.26291,0.12438
5791.19138,0.11449
5793.11985,0.12644
5795.04832,0.12405
5796.97679,0.09172
5798.90526,0.07493
5800.83373,0.08853
5802.76220,0.11046
5804.69066,0.13038
5806.61913,0.13343
5808.54760,0.10989
5810.47607,0.06946
5812.40454,0.03769
5814.33301,0.02168
5816.26148,-0.00287
5818.18994,-0.00406
5820.11841,0.04677
5822.04688,0.08182
5823.97535,0.07501
5825.90382,0.08084
5827.83229,0.10623
5829.76076,0.12571
5831.68923,0.13651
5833.61769,0.10848
5835.54616,0.03871
5837.47463,0.00412
5839.40310,0.01940
5841.33157,0.03665
5843.26004,0.05909
5845.18851,0.07857
5847.11697,0.05418
5849.04544,0.02913
5850.97391,0.06855
5852.90238,0.11494
5854.83085,0.10145
5856.75932,0.06324
5858.68779,0.06065
5860.61626,0.07655
5862.54472,0.07780
5864.47319,0.09259
5866.40166,0.12316
5868.33013,0.12959
5870.25860,0.12661
5872.18707,0.11093
5874.11554,0.06065
5876.04400,0.03449
5877.97247,0.04959
5879.90094,0.05032
5881.82941,0.04595
5883.75788,0.05528
5885.68635,0.06524
5887.61482,0.06705
5889.54329,0.06279
5891.47175,0.07429
5893.40022,0.09364
5895.32869,0.09587
5897.25716,0.10150
5899.18563,0.12155
5901.11410,0.12775
5903.04257,0.10854
5904.97103,0.09887
5906.89950,0.13205
5908.82797,0.18613
5910.75644,0.20418
5912.68491,0.16175
5914.61338,0.10538
5916.54185,0.07605
5918.47032,0.06792
5920.39878,0.06942
5922.32725,0.05532
5924.25572,0.04595
5926.18419,0.08107
5928.11266,0.12756
5930.04113,0.13792
5931.96960,0.11768
5933.89806,0.10357
5935.82653,0.11613
5937.75500,0.13363
5939.68347,0.12016
5941.61194,0.06035
5943.54041,-0.00492
5945.46888,-0.00165
5947.39734,0.05987
5949.32581,0.11437
5951.25428,0.15597
5953.18275,0.17404
5955.11122,0.15440
5957.03969,0.13995
5958.96816,0.12898
5960.89663,0.09291
5962.82509,0.05018
5964.75356,0.02436
5966.68203,0.02486
5968.61050,0.05466
5970.53897,0.09815
5972.46744,0.11191
5974.39591,0.10029
5976.32437,0.10203
5978.25284,0.10462
5980.18131,0.11020
5982.10978,0.13498
5984.03825,0.15997
5985.96672,0.16206
5987.89519,0.13909
5989.82366,0.10159
5991.75212,0.07658
5993.68059,0.07860
5995.60906,0.08386
5997.53753,0.08671
5999.46600,0.08143
6001.39447,0.05891
6003.32294,0.05557
6005.25140,0.08728
6007.17987,0.11034
6009.10834,0.10174
6011.03681,0.09104
6012.96528,0.09760
6014.89375,0.10431
6016.82222,0.08659
6018.75069,0.05510
6020.67915,0.06187
6022.60762,0.09779
6024.53609,0.09299
6026.46456,0.03116
6028.39303,-0.03142
6030.32150,-0.03723
6032.24997,0.00317
6034.17843,0.03308
6036.10690,0.02222
6038.03537,0.00110
6039.96384,0.00473
6041.89231,0.04047
6043.82078,0.09351
6045.74925,0.12025
6047.67772,0.10523
6049.60618,0.10069
6051.53465,0.12111
6053.46312,0.10700
6055.39159,0.06858
6057.32006,0.08757
6059.24853,0.14796
6061.17700,0.14806
6063.10546,0.09448
6065.03393,0.07890
6066.96240,0.09937
6068.89087,0.09523
6070.81934,0.06478
6072.74781,0.06209
6074.67628,0.08022
6076.60475,0.08732
6078.53321,0.11116
6080.46168,0.14085
6082.39015,0.14580
6084.31862,0.15518
6086.24709,0.16257
6088.17556,0.12916
6090.10403,0.09471
6092.03249,0.10878
6093.96096,0.15415
6095.88943,0.17590
6097.81790,0.15099
6099.74637,0.10969
6101.67484,0.07089
6103.60331,0.03904
6105.53177,0.03756
6107.46024,0.05320
6109.38871,0.05586
6111.31718,0.08641
6113.24565,0.17985
6115.17412,0.27527
6117.10259,0.27388
6119.03106,0.17594
6120.95952,0.10714
6122.88799,0.10073
6124.81646,0.10788
6126.74493,0.09759
6128.67340,0.06622
6130.60187,0.05732
6132.53034,0.07594
6134.45880,0.08431
6136.38727,0.08636
6138.31574,0.09489
6140.24421,0.09743
6142.17268,0.09451
6144.10115,0.09353
6146.02962,0.07780
6147.95809,0.04456
6149.88655,0.04031
6151.81502,0.09673
6153.74349,0.14913
6155.67196,0.15931
6157.60043,0.15367
6159.52890,0.12246
6161.45737,0.11040
6163.38583,0.17833
6165.31430,0.23967
6167.24277,0.21671
6169.17124,0.16343
6171.09971,0.11488
6173.02818,0.06008
6174.95665,0.01595
6176.88512,0.00365
6178.81358,0.02128
6180.74205,0.03930
6182.67052,0.03623
6184.59899,0.03585
6186.52746,0.05202
6188.45593,0.07343
6190.38440,0.09491
6192.31286,0.11576
6194.24133,0.10624
6196.16980,0.06409
6198.09827,0.06790
6200.02674,0.12070
6201.95521,0.12892
6203.88368,0.07674
6205.81215,0.03087
6207.74061,0.02513
6209.66908,0.07927
6211.59755,0.16474
6213.52602,0.19097
6215.45449,0.17453
6217.38296,0.16830
6219.31143,0.14551
6221.23989,0.09315
6223.16836,0.07773
6225.09683,0.10039
6227.02530,0.06621
6228.95377,0.00670
6230.88224,0.00523
6232.81071,0.03109
6234.73918,0.01421
6236.66764,-0.04346
6238.59611,-0.07625
6240.52458,-0.04394
6242.45305,0.02679
6244.38152,0.10021
6246.30999,0.12312
6248.23846,0.06380
6250.16692,-0.00210
6252.09539,-0.00195
6254.02386,0.04327
6255.95233,0.07134
6257.88080,0.03700
6259.80927,0.00333
6261.73774,0.04236
6263.66621,0.11134
6265.59467,0.14454
6267.52314,0.16650
6269.45161,0.20602
6271.38008,0.21742
6273.30855,0.18758
6275.23702,0.15423
6277.16549,0.13215
6279.09395,0.10957
6281.02242,0.07898
6282.95089,0.07217
6284.87936,0.08758
6286.80783,0.06884
6288.73630,0.04932
6290.66477,0.08686
6292.59323,0.13893
6294.52170,0.17063
6296.45017,0.19179
6298.37864,0.18366
6300.30711,0.14620
6302.23558,0.09998
6304.16405,0.05106
6306.09252,0.03287
6308.02098,0.04335
6309.94945,0.03133
6311.87792,0.00054
6313.80639,-0.00048
6315.73486,0.05689
6317.66333,0.13324
6319.59180,0.15153
6321.52026,0.11692
6323.44873,0.10323
6325.37720,0.11964
6327.30567,0.11701
6329.23414,0.06205
6331.16261,-0.01111
6333.09108,-0.02031
6335.01955,0.04362
6336.94801,0.11755
6338.87648,0.14083
6340.80495,0.11103
6342.73342,0.08419
6344.66189,0.06721
6346.59036,0.06063
6348.51883,0.08973
6350.44729,0.11685
6352.37576,0.13946
6354.30423,0.17353
6356.23270,0.17577
6358.16117,0.15284
6360.08964,0.12276
6362.01811,0.08966
6363.94658,0.08448
6365.87504,0.09649
6367.80351,0.10726
6369.73198,0.12336
6371.66045,0.13435
6373.58892,0.14938
6375.51739,0.17804
6377.44586,0.16987
6379.37432,0.09827
6381.30279,0.01660
6383.23126,-0.03602
6385.15973,-0.03968
6387.08820,0.01955
6389.01667,0.07556
6390.94514,0.06885
6392.87361,0.05521
6394.80207,0.08040
6396.73054,0.10521
6398.65901,0.11743
6400.58748,0.11985
6402.51595,0.11166
6404.44442,0.09106
6406.37289,0.06414
6408.30135,0.04339
6410.22982,0.01431
6412.15829,-0.02311
6414.08676,-0.03208
6416.01523,-0.01208
6417.94370,0.00125
6419.87217,-0.00872
6421.80064,-0.00270
6423.72910,0.03993
6425.65757,0.06822
6427.58604,0.10122
6429.51451,0.20808
6431.44298,0.29243
6433.37145,0.23844
6435.29992,0.12576
6437.22838,0.06952
6439.15685,0.07579
6441.08532,0.08790
6443.01379,0.08306
6444.94226,0.08133
6446.87073,0.11524
6448.79920,0.15086
6450.72766,0.16690
6452.65613,0.18095
6454.58460,0.15712
6456.51307,0.07614
6458.44154,0.02901
6460.37001,0.08052
6462.29848,0.16159
6464.22695,0.18943
6466.15541,0.18972
6468.08388,0.21134
6470.01235,0.16886
6471.94082,0.02585
6473.86929,-0.05231
6475.79776,0.01892
6477.72623,0.14786
6479.65469,0.20839
6481.58316,0.16211
6483.51163,0.06369
6485.44010,0.02998
6487.36857,0.07492
6489.29704,0.07979
6491.22551,0.00323
6493.15398,-0.05190
6495.08244,-0.02256
6497.01091,0.03793
6498.93938,0.11682
6500.86785,0.22100
6502.79632,0.24266
6504.72479,0.16717
6506.65326,0.10693
6508.58172,0.08000
6510.51019,0.05597
6512.43866,0.05841
6514.36713,0.07985
6516.29560,0.06846
6518.22407,0.04198
6520.15254,0.03952
6522.08101,0.06762
6524.00947,0.13549
6525.93794,0.20327
6527.86641,0.20001
6529.79488,0.11770
6531.72335,0.03905
6533.65182,0.02854
6535.58029,0.01817
6537.50875,-0.00083
6539.43722,0.01725
6541.36569,0.01771
6543.29416,0.00103
6545.22263,-0.00366
6547.15110,-0.02085
6549.07957,-0.02099
6551.00804,0.00280
6552.93650,0.03014
6554.86497,0.07921
6556.79344,0.08505
6558.72191,0.05028
6560.65038,0.08323
6562.57885,0.14392
6564.50732,0.16014
6566.43578,0.14173
6568.36425,0.10086
6570.29272,0.07406
6572.22119,0.08309
6574.14966,0.09254
6576.07813,0.05704
6578.00660,0.00022
6579.93507,-0.03646
6581.86353,-0.04938
6583.79200,-0.00483
6585.72047,0.07009
6587.64894,0.09749
6589.57741,0.06297
6591.50588,-0.00108
6593.43435,-0.04283
6595.36281,-0.03448
6597.29128,-0.02680
6599.21975,-0.04019
6601.14822,-0.05655
6603.07669,-0.07705
6605.00516,-0.06310
6606.93363,0.01737
6608.86210,0.11324
6610.79056,0.12367
6612.71903,0.03873
6614.64750,-0.01017
6616.57597,-0.01859
6618.50444,-0.05046
6620.43291,-0.02067
6622.36138,0.06707
6624.28984,0.10542
6626.21831,0.11730
6628.14678,0.12875
6630.07525,0.11962
6632.00372,0.13737
6633.93219,0.14675
6635.86066,0.12392
6637.78912,0.10816
6639.71759,0.08002
6641.64606,0.06692
6643.57453,0.10283
6645.50300,0.14911
6647.43147,0.12704
6649.35994,0.02529
6651.28841,-0.05410
6653.21687,-0.04014
6655.14534,0.01847
6657.07381,0.03757
6659.00228,0.05268
6660.93075,0.09589
6662.85922,0.10579
6664.78769,0.08441
6666.71615,0.05207
6668.64462,0.04176
6670.57309,0.07728
6672.50156,0.07586
6674.43003,0.02790
6676.35850,0.00365
6678.28697,-0.00540
6680.21544,0.02497
6682.14390,0.09974
6684.07237,0.14112
6686.00084,0.09656
6687.92931,0.00565
6689.85778,-0.02459
6691.78625,0.03361
6693.71472,0.09490
6695.64318,0.09175
6697.57165,0.06305
6699.50012,0.08722
6701.42859,0.12046
6703.35706,0.11543
6705.28553,0.08712
6707.21400,0.04327
6709.14247,0.02913
6711.07093,0.09963
6712.99940,0.19441
6714.92787,0.19990
6716.85634,0.11037
6718.78481,0.02730
6720.71328,0.00617
6722.64175,0.02151
6724.57021,0.04002
6726.49868,0.01586
6728.42715,-0.03378
6730.35562,0.02918
6732.28409,0.16708
6734.21256,0.20439
6736.14103,0.19107
6738.06950,0.22214
6739.99796,0.24896
6741.92643,0.18922
6743.85490,0.06870
6745.78337,-0.00138
6747.71184,-0.01082
6749.64031,0.00208
6751.56878,0.01163
6753.49724,0.03476
6755.42571,0.12836
6757.35418,0.21624
6759.28265,0.19409
6761.21112,0.10367
6763.13959,0.06172
6765.06806,0.08507
6766.99653,0.11933
6768.92499,0.14289
6770.85346,0.14477
6772.78193,0.11369
6774.71040,0.12872
6776.63887,0.20419
6778.56734,0.19443
6780.49581,0.12778
6782.42427,0.13799
6784.35274,0.18379
6786.28121,0.15814
6788.20968,0.09491
6790.13815,0.12090
6792.06662,0.18963
6793.99509,0.16040
6795.92355,0.12328
6797.85202,0.11018
6799.78049,0.06488
6801.70896,0.03215
6803.63743,0.02234
6805.56590,0.00404
6807.49437,0.00057
6809.42284,0.02804
6811.35130,0.05915
6813.27977,0.10580
6815.20824,0.21544
6817.13671,0.25419
6819.06518,0.16265
6820.99365,0.09805
6822.92212,0.10456
6824.85058,0.14238
6826.77905,0.21014
6828.70752,0.24141
6830.63599,0.19435
6832.56446,0.15696
6834.49293,0.17879
6836.42140,0.20185
6838.34987,0.13659
6840.27833,0.04659
6842.20680,0.02233
6844.13527,0.00143
6846.06374,-0.05666
6847.99221,-0.05921
6849.92068,0.02126
6851.84915,0.05590
6853.77761,0.06969
6855.70608,0.13536
6857.63455,0.17656
6859.56302,0.16363
6861.49149,0.14718
6863.41996,0.18546
6865.34843,0.24923
6867.27690,0.22424
6869.20536,0.10444
6871.13383,-0.01810
6873.06230,-0.03735
6874.99077,0.04713
6876.91924,0.09267
6878.84771,0.05995
6880.77618,0.05413
6882.70464,0.10643
6884.63311,0.15836
6886.56158,0.18965
6888.49005,0.14137
6890.41852,0.02275
6892.34699,-0.01997
6894.27546,0.01176
6896.20393,-0.02260
6898.13239,-0.07698
6900.06086,-0.07472
6901.98933,-0.09110
6903.91780,-0.06749
6905.84627,0.05983
6907.77474,0.15340
6909.70321,0.18476
6911.63167,0.20490
6913.56014,0.16583
6915.48861,0.10115
6917.41708,0.11095
6919.34555,0.14165
6921.27402,0.09977
6923.20249,0.04895
6925.13096,0.04327
6927.05942,0.03734
6928.98789,-0.00322
6930.91636,-0.02707
6932.84483,-0.00184
6934.77330,0.03357
6936.70177,0.06673
6938.63024,0.09309
6940.55870,0.11247
6942.48717,0.13073
6944.41564,0.13126
6946.34411,0.06832
6948.27258,-0.05576
6950.20105,-0.10555
6952.12952,-0.04067
6954.05799,-0.00090
6955.98645,-0.09449
6957.91492,-0.14651
6959.84339,-0.00429
6961.77186,0.15875
6963.70033,0.18112
6965.62880,0.11586
6967.55727,0.04356
6969.48573,0.04323
6971.41420,0.04384
6973.34267,-0.13175
6975.27114,-0.31637
6977.19961,-0.21989
6979.12808,-0.04839
6981.05655,-0.02753
6982.98501,-0.07686
6984.91348,-0.00285
6986.84195,0.17668
6988.77042,0.20580
6990.69889,0.06604
6992.62736,-0.00309
6994.55583,-0.01798
6996.48430,-0.10620
6998.41276,-0.16084
7000.34123,-0.11259
7002.26970,-0.06028
7004.19817,0.01530
7006.12664,0.09934
7008.05511,0.08457
7009.98358,0.01423
7011.91204,-0.00924
7013.84051,0.02746
7015.76898,0.12091
7017.69745,0.24656
7019.62592,0.30992
7021.55439,0.26293
7023.48286,0.18564
7025.41133,0.14570
7027.33979,0.07116
7029.26826,-0.04306
7031.19673,-0.04697
7033.12520,0.02767
7035.05367,0.07026
7036.98214,0.08931
7038.91061,0.10073
7040.83907,0.07641
7042.76754,0.01075
7044.69601,-0.02424
7046.62448,0.04363
7048.55295,0.11893
7050.48142,0.09948
7052.40989,-0.00376
7054.33836,-0.14872
7056.26682,-0.20273
7058.19529,-0.04817
7060.12376,0.20649
7062.05223,0.38337
7063.98070,0.39161
7065.90917,0.29649
7067.83764,0.20721
7069.76610,0.13860
7071.69457,0.08154
7073.62304,-0.01274
7075.55151,-0.11885
7077.47998,-0.14166
7079.40845,-0.10493
7081.33692,-0.05416
7083.26539,0.05122
7085.19385,0.14429
7087.12232,0.18110
7089.05079,0.14658
7090.97926,0.02192
7092.90773,-0.02439
7094.83620,0.09833
7096.76467,0.16627
7098.69313,0.09915
7100.62160,0.08123
7102.55007,0.11318
7104.47854,0.05997
7106.40701,-0.07083
7108.33548,-0.08216
7110.26395,0.04273
7112.19242,0.11505
7114.12088,0.06573
7116.04935,-0.00083
7117.97782,0.00689
7119.90629,0.04455
7121.83476,0.02953
7123.76323,-0.00689
7125.69170,-0.01582
7127.62016,0.02233
7129.54863,0.11027
7131.47710,0.14224
7133.40557,0.05361
7135.33404,-0.03472
7137.26251,-0.06753
7139.19098,-0.11172
7141.11944,-0.13540
7143.04791,-0.04125
7144.97638,0.14498
7146.90485,0.16190
7148.83332,-0.04581
7150.76179,-0.15940
7152.69026,-0.04644
7154.61873,0.12144
7156.54719,0.21726
7158.47566,0.21725
7160.40413,0.11265
7162.33260,-0.00817
7164.26107,-0.03821
7166.18954,0.02442
7168.11801,0.09373
7170.04647,0.12369
7171.97494,0.14512
7173.90341,0.21968
7175.83188,0.29122
7177.76035,0.28315
7179.68882,0.26253
7181.61729,0.25661
7183.54576,0.20219
7185.47422,0.09269
7187.40269,0.05929
7189.33116,0.16912
7191.25963,0.25475
7193.18810,0.20067
7195.11657,0.13547
7197.04504,0.09132
7198.97350,0.03999
7200.90197,0.02821
7202.83044,0.07128
7204.75891,0.07912
7206.68738,0.00134
7208.61585,-0.00953
7210.54432,-0.00584
7212.47279,-0.03411
7214.40125,0.05189
7216.32972,0.21827
7218.25819,0.23864
7220.18666,0.18051
7222.11513,0.12143
7224.04360,-0.00859
7225.97207,-0.10725
7227.90053,-0.06757
7229.82900,-0.01874
7231.75747,0.06461
7233.68594,0.19782
7235.61441,0.22593
7237.54288,0.14832
7239.47135,0.03354
7241.39982,-0.05695
7243.32828,-0.05808
7245.25675,-0.02620
7247.18522,-0.01496
7249.11369,0.01374
7251.04216,0.10512
7252.97063,0.19311
7254.89910,0.15977
7256.82756,0.12561
7258.75603,0.11646
7260.68450,0.12825
7262.61297,0.23310
7264.54144,0.35054
7266.46991,0.34976
7268.39838,0.28186
7270.32685,0.22195
7272.25531,0.13775
7274.18378,0.07071
7276.11225,0.08944
7278.04072,0.09737
7279.96919,-0.00957
7281.89766,-0.11960
7283.82613,-0.12909
7285.75459,-0.12826
7287.68306,-0.11117
7289.61153,-0.10353
7291.54000,-0.15981
7293.46847,-0.18648
7295.39694,-0.12140
7297.32541,0.02669
7299.25387,0.17880
7301.18234,0.24412
7303.11081,0.26286
7305.03928,0.29723
7306.96775,0.29796
7308.89622,0.25962
7310.82469,0.17567
7312.75316,-0.01886
7314.68162,-0.15299
7316.61009,-0.06721
7318.53856,0.02644
7320.46703,0.07808
7322.39550,0.14557
7324.32397,0.10032
7326.25244,0.01170
7328.18090,-0.03168
7330.10937,-0.05228
7332.03784,-0.08482
7333.96631,-0.15950
7335.89478,-0.16681
7337.82325,-0.04887
7339.75172,0.15943
7341.68019,0.33051
7343.60865,0.40574
7345.53712,0.38998
7347.46559,0.24074
7349.39406,0.03229
7351.32253,-0.07878
7353.25100,0.01838
7355.17947,0.27310
7357.10793,0.43232
7359.03640,0.30750
7360.96487,0.06508
7362.89334,-0.11532
7364.82181,-0.10638
7366.75028,0.00259
7368.67875,0.03784
7370.60722,0.07349
7372.53568,0.15983
7374.46415,0.16874
7376.39262,-0.00165
7378.32109,-0.13270
7380.24956,-0.13017
7382.17803,-0.04551
7384.10650,0.02169
7386.03496,0.00471
7387.96343,0.01842
7389.89190,0.14456
7391.82037,0.26392
7393.74884,0.31675
7395.67731,0.28545
7397.60578,0.11683
7399.53425,-0.08070
7401.46271,-0.10817
7403.39118,0.03538
7405.31965,0.12697
7407.24812,0.07524
7409.17659,0.02005
7411.10506,-0.03324
7413.03353,-0.16292
7414.96199,-0.25544
7416.89046,-0.18981
7418.81893,0.02612
7420.74740,0.21808
7422.67587,0.16592
7424.60434,0.04618
7426.53281,0.09727
7428.46128,0.28600
7430.38974,0.35800
7432.31821,0.21703
7434.24668,0.08915
7436.17515,0.07352
7438.10362,0.09144
7440.03209,0.13844
7441.96056,0.24412
7443.88902,0.25434
7445.81749,0.19993
7447.74596,0.26629
7449.67443,0.44341
7451.60290,0.45286
7453.53137,0.16464
7455.45984,-0.03756
7457.38831,0.00048
7459.31677,0.14887
7461.24524,0.15449
7463.17371,-0.00338
7465.10218,-0.16610
7467.03065,-0.29666
7468.95912,-0.37993
7470.88759,-0.42154
7472.81605,-0.36966
7474.74452,-0.22787
7476.67299,-0.08302
7478.60146,0.06716
7480.52993,0.23366
7482.45840,0.33343
7484.38687,0.31324
7486.31533,0.21858
7488.24380,0.09983
7490.17227,0.07090
7492.10074,0.20471
7494.02921,0.28781
7495.95768,0.18279
7497.88615,0.05442
