399.19301,0.57803
401.12148,0.08102
403.04995,-0.10425
404.97842,-0.16540
406.90689,-0.15800
408.83536,-0.11102
410.76382,-0.05870
412.69229,-0.03210
414.62076,-0.06771
416.54923,-0.12966
418.47770,-0.11828
420.40617,-0.06115
422.33464,-0.05208
424.26311,-0.03976
426.19157,-0.00009
428.12004,0.05990
430.04851,0.12442
431.97698,0.12430
433.90545,0.06750
435.83392,0.05760
437.76239,0.10333
439.69085,0.14360
441.61932,0.12136
443.54779,0.04504
445.47626,-0.02541
447.40473,-0.07917
449.33320,-0.07610
451.26167,-0.01079
453.19013,0.04671
455.11860,0.09238
457.04707,0.10949
458.97554,0.05664
460.90401,0.00784
462.83248,0.00539
464.76095,0.01118
466.68942,0.01773
468.61788,0.06112
470.54635,0.13331
472.47482,0.20143
474.40329,0.21688
476.33176,0.14691
478.26023,0.07151
480.18870,0.03362
482.11716,0.05310
484.04563,0.12159
485.97410,0.17914
487.90257,0.18207
489.83104,0.14220
491.75951,0.09907
493.68798,0.08508
495.61645,0.09596
497.54491,0.10696
499.47338,0.10713
501.40185,0.08675
503.33032,0.05407
505.25879,0.03278
507.18726,0.02636
509.11573,0.02933
511.04419,0.03604
512.97266,0.05078
514.90113,0.06102
516.82960,0.05631
518.75807,0.05395
520.68654,0.05937
522.61501,0.07220
524.54348,0.09262
526.47194,0.10161
528.40041,0.08715
530.32888,0.07023
532.25735,0.07231
534.18582,0.08954
536.11429,0.10790
538.04276,0.11971
539.97122,0.11767
541.89969,0.09857
543.82816,0.07626
545.75663,0.06206
547.68510,0.05095
549.61357,0.04702
551.54204,0.07932
553.47051,0.13140
555.39897,0.13852
557.32744,0.10775
559.25591,0.09375
561.18438,0.10125
563.11285,0.11259
565.04132,0.11223
566.96979,0.09105
568.89825,0.06844
570.82672,0.06389
572.75519,0.05987
574.68366,0.04744
576.61213,0.04647
578.54060,0.05299
580.46907,0.05089
582.39754,0.05395
584.32600,0.06596
586.25447,0.06133
588.18294,0.04971
590.11141,0.06156
592.03988,0.09222
593.96835,0.12025
595.89682,0.12525
597.82528,0.09947
599.75375,0.06829
601.68222,0.06003
603.61069,0.07027
605.53916,0.08216
607.46763,0.08495
609.39610,0.07892
611.32456,0.07764
613.25303,0.08387
615.18150,0.08882
617.10997,0.09037
619.03844,0.09165
620.96691,0.09214
622.89538,0.08972
624.82385,0.08878
626.75231,0.09184
628.68078,0.09172
630.60925,0.07772
632.53772,0.05948
634.46619,0.06069
636.39466,0.07031
638.32313,0.07108
640.25159,0.06736
642.18006,0.05659
644.10853,0.04710
646.03700,0.05487
647.96547,0.06830
649.89394,0.07257
651.82241,0.07399
653.75088,0.08113
655.67934,0.08876
657.60781,0.08633
659.53628,0.07254
661.46475,0.05660
663.39322,0.05504
665.32169,0.07312
667.25016,0.09280
669.17862,0.07252
671.10709,0.04657
673.03556,0.05610
674.96403,0.07652
676.89250,0.07947
678.82097,0.07045
680.74944,0.06700
682.67791,0.07125
684.60637,0.07878
686.53484,0.09305
688.46331,0.10645
690.39178,0.10394
692.32025,0.09687
694.24872,0.10381
696.17719,0.11231
698.10565,0.10077
700.03412,0.08525
701.96259,0.08302
703.89106,0.08211
705.81953,0.08069
707.74800,0.08442
709.67647,0.08644
711.60494,0.08170
713.53340,0.07169
715.46187,0.06325
717.39034,0.06400
719.31881,0.07635
721.24728,0.09174
723.17575,0.09330
725.10422,0.08309
727.03268,0.07870
728.96115,0.08439
730.88962,0.08941
732.81809,0.08412
734.74656,0.07413
736.67503,0.07168
738.60350,0.07744
740.53197,0.08306
742.46043,0.08153
744.38890,0.07613
746.31737,0.07498
748.24584,0.07747
750.17431,0.07693
752.10278,0.07526
754.03125,0.07999
755.95971,0.08406
757.88818,0.07878
759.81665,0.07306
761.74512,0.07144
763.67359,0.07092
765.60206,0.07345
767.53053,0.07933
769.45900,0.08935
771.38746,0.09866
773.31593,0.10048
775.24440,0.09899
777.17287,0.09143
779.10134,0.07711
781.02981,0.07048
782.95828,0.07587
784.88674,0.08528
786.81521,0.08858
788.74368,0.08236
790.67215,0.07977
792.60062,0.08665
794.52909,0.09066
796.45756,0.08794
798.38602,0.08579
800.31449,0.08289
802.24296,0.07431
804.17143,0.06352
806.09990,0.06136
808.02837,0.07183
809.95684,0.08455
811.88531,0.08977
813.81377,0.08570
815.74224,0.07832
817.67071,0.07480
819.59918,0.07592
821.52765,0.07863
823.45612,0.07922
825.38459,0.08151
827.31305,0.08490
829.24152,0.08134
831.16999,0.07534
833.09846,0.07411
835.02693,0.08034
836.95540,0.09053
838.88387,0.09368
840.81234,0.08942
842.74080,0.08465
844.66927,0.08142
846.59774,0.08434
848.52621,0.09196
850.45468,0.09354
852.38315,0.09275
854.31162,0.09887
856.24008,0.10243
858.16855,0.09325
860.09702,0.08145
862.02549,0.08255
863.95396,0.09089
865.88243,0.10368
867.81090,0.13805
869.73937,0.16165
871.66783,0.12976
873.59630,0.08632
875.52477,0.07593
877.45324,0.07986
879.38171,0.08190
881.31018,0.08214
883.23865,0.08095
885.16711,0.07787
887.09558,0.07012
889.02405,0.06136
890.95252,0.06315
892.88099,0.07351
894.80946,0.07976
896.73793,0.08331
898.66640,0.08976
900.59486,0.09371
902.52333,0.09060
904.45180,0.08766
906.38027,0.09248
908.30874,0.10177
910.23721,0.10663
912.16568,0.10395
914.09414,0.10068
916.02261,0.10057
917.95108,0.09923
919.87955,0.09390
921.80802,0.08864
923.73649,0.08697
925.66496,0.08742
927.59343,0.08987
929.52189,0.09218
931.45036,0.09211
933.37883,0.09030
935.30730,0.08582
937.23577,0.08072
939.16424,0.07742
941.09271,0.07840
943.02117,0.08594
944.94964,0.09325
946.87811,0.09459
948.80658,0.09252
950.73505,0.09117
952.66352,0.09241
954.59199,0.09143
956.52045,0.08577
958.44892,0.08197
960.37739,0.08415
962.30586,0.09036
964.23433,0.09623
966.16280,0.10011
968.09127,0.10248
970.01974,0.10085
971.94820,0.09714
973.87667,0.09785
975.80514,0.10133
977.73361,0.10288
979.66208,0.10129
981.59055,0.09561
983.51902,0.08950
985.44748,0.08734
987.37595,0.08757
989.30442,0.08789
991.23289,0.08803
993.16136,0.08764
995.08983,0.08900
997.01830,0.09444
998.94677,0.09777
1000.87523,0.09664
1002.80370,0.09800
1004.73217,0.09958
1006.66064,0.09753
1008.58911,0.09746
1010.51758,0.09801
1012.44605,0.09551
1014.37451,0.09414
1016.30298,0.09422
1018.23145,0.09250
1020.15992,0.09137
1022.08839,0.09310
1024.01686,0.09463
1025.94533,0.09843
1027.87380,0.10293
1029.80226,0.10045
1031.73073,0.09767
1033.65920,0.09715
1035.58767,0.09553
1037.51614,0.09858
1039.44461,0.10498
1041.37308,0.10832
1043.30154,0.10902
1045.23001,0.10961
1047.15848,0.10769
1049.08695,0.10285
1051.01542,0.10021
1052.94389,0.09814
1054.87236,0.09319
1056.80083,0.09213
1058.72929,0.09949
1060.65776,0.10806
1062.58623,0.11348
1064.51470,0.11589
1066.44317,0.11127
1068.37164,0.10025
1070.30011,0.09482
1072.22857,0.09921
1074.15704,0.10160
1076.08551,0.09923
1078.01398,0.09711
1079.94245,0.09441
1081.87092,0.09471
1083.79939,0.09816
1085.72786,0.09773
1087.65632,0.09751
1089.58479,0.10337
1091.51326,0.10760
1093.44173,0.10402
1095.37020,0.09665
1097.29867,0.09125
1099.22714,0.08949
1101.15560,0.09106
1103.08407,0.09551
1105.01254,0.10005
1106.94101,0.10228
1108.86948,0.10325
1110.79795,0.10651
1112.72642,0.11377
1114.65489,0.12093
1116.58335,0.12090
1118.51182,0.11251
1120.44029,0.10473
1122.36876,0.10364
1124.29723,0.10253
1126.22570,0.09667
1128.15417,0.09176
1130.08263,0.09116
1132.01110,0.09222
1133.93957,0.09264
1135.86804,0.09428
1137.79651,0.09676
1139.72498,0.09272
1141.65345,0.08497
1143.58191,0.08418
1145.51038,0.08900
1147.43885,0.09325
1149.36732,0.09596
1151.29579,0.09847
1153.22426,0.10089
1155.15273,0.10352
1157.08120,0.10948
1159.00966,0.11561
1160.93813,0.11463
1162.86660,0.10971
1164.79507,0.10741
1166.72354,0.10751
1168.65201,0.10663
1170.58048,0.10324
1172.50894,0.10157
1174.43741,0.10436
1176.36588,0.10521
1178.29435,0.10085
1180.22282,0.09713
1182.15129,0.09854
1184.07976,0.10478
1186.00823,0.11021
1187.93669,0.10906
1189.86516,0.10624
1191.79363,0.10712
1193.72210,0.10774
1195.65057,0.10600
1197.57904,0.10496
1199.50751,0.10511
1201.43597,0.10451
1203.36444,0.10386
1205.29291,0.10347
1207.22138,0.10271
1209.14985,0.10334
1211.07832,0.10510
1213.00679,0.10495
1214.93526,0.10237
1216.86372,0.10073
1218.79219,0.10276
1220.72066,0.10640
1222.64913,0.10849
1224.57760,0.10849
1226.50607,0.10735
1228.43454,0.10619
1230.36300,0.10647
1232.29147,0.10785
1234.21994,0.10742
1236.14841,0.10517
1238.07688,0.10419
1240.00535,0.10403
1241.93382,0.10393
1243.86229,0.10615
1245.79075,0.10869
1247.71922,0.10738
1249.64769,0.10433
1251.57616,0.10390
1253.50463,0.10592
1255.43310,0.10753
1257.36157,0.10734
1259.29003,0.10645
1261.21850,0.10548
1263.14697,0.10485
1265.07544,0.10700
1267.00391,0.11009
1268.93238,0.11056
1270.86085,0.11098
1272.78932,0.11153
1274.71778,0.11038
1276.64625,0.10938
1278.57472,0.10832
1280.50319,0.10595
1282.43166,0.10340
1284.36013,0.10166
1286.28860,0.10125
1288.21706,0.10201
1290.14553,0.10270
1292.07400,0.10298
1294.00247,0.10346
1295.93094,0.10395
1297.85941,0.10477
1299.78788,0.10633
1301.71634,0.10745
1303.64481,0.10707
1305.57328,0.10679
1307.50175,0.10846
1309.43022,0.11072
1311.35869,0.11172
1313.28716,0.11018
1315.21563,0.10715
1317.14409,0.10674
1319.07256,0.10941
1321.00103,0.11233
1322.92950,0.11457
1324.85797,0.11611
1326.78644,0.11545
1328.71491,0.11165
1330.64337,0.10828
1332.57184,0.10823
1334.50031,0.10999
1336.42878,0.11123
1338.35725,0.11021
1340.28572,0.10900
1342.21419,0.11034
1344.14266,0.11252
1346.07112,0.11398
1347.99959,0.11452
1349.92806,0.11380
1351.85653,0.11190
1353.78500,0.11038
1355.71347,0.10993
1357.64194,0.10981
1359.57040,0.11119
1361.49887,0.11479
1363.42734,0.11704
1365.35581,0.11511
1367.28428,0.11140
1369.21275,0.10943
1371.14122,0.11180
1373.06969,0.11682
1374.99815,0.11897
1376.92662,0.11755
1378.85509,0.11553
1380.78356,0.11264
1382.71203,0.11100
1384.64050,0.11240
1386.56897,0.11422
1388.49743,0.11482
1390.42590,0.11584
1392.35437,0.11918
1394.28284,0.12390
1396.21131,0.12479
1398.13978,0.12047
1400.06825,0.11548
1401.99672,0.11392
1403.92518,0.11566
1405.85365,0.11771
1407.78212,0.11749
1409.71059,0.11623
1411.63906,0.11532
1413.56753,0.11478
1415.49600,0.11504
1417.42446,0.11637
1419.35293,0.11948
1421.28140,0.12298
1423.20987,0.12343
1425.13834,0.11987
1427.06681,0.11711
1428.99528,0.11731
1430.92375,0.11683
1432.85221,0.11686
1434.78068,0.12012
1436.70915,0.12290
1438.63762,0.12103
1440.56609,0.11838
1442.49456,0.11641
1444.42303,0.11477
1446.35149,0.11427
1448.27996,0.11521
1450.20843,0.11765
1452.13690,0.12129
1454.06537,0.12563
1455.99384,0.13073
1457.92231,0.13105
1459.85077,0.12351
1461.77924,0.11800
1463.70771,0.11873
1465.63618,0.12150
1467.56465,0.11876
1469.49312,0.11613
1471.42159,0.12060
1473.35006,0.12962
1475.27852,0.13075
1477.20699,0.12450
1479.13546,0.11891
1481.06393,0.11758
1482.99240,0.11706
1484.92087,0.11563
1486.84934,0.11749
1488.77780,0.12444
1490.70627,0.12767
1492.63474,0.12482
1494.56321,0.12256
1496.49168,0.12263
1498.42015,0.12264
1500.34862,0.12218
1502.27709,0.12515
1504.20555,0.13227
1506.13402,0.14239
1508.06249,0.14303
1509.99096,0.13405
1511.91943,0.12699
1513.84790,0.12422
1515.77637,0.12785
1517.70483,0.13295
1519.63330,0.13395
1521.56177,0.13330
1523.49024,0.12638
1525.41871,0.11786
1527.34718,0.11678
1529.27565,0.12083
1531.20412,0.12491
1533.13258,0.12739
1535.06105,0.12716
1536.98952,0.12800
1538.91799,0.13317
1540.84646,0.14205
1542.77493,0.14216
1544.70340,0.13391
1546.63186,0.12666
1548.56033,0.12301
1550.48880,0.12159
1552.41727,0.12366
1554.34574,0.12964
1556.27421,0.13805
1558.20268,0.14528
1560.13115,0.13600
1562.05961,0.12727
1563.98808,0.12518
1565.91655,0.12412
1567.84502,0.12390
1569.77349,0.12305
1571.70196,0.12062
1573.63043,0.12350
1575.55889,0.13153
1577.48736,0.13218
1579.41583,0.12678
1581.34430,0.12342
1583.27277,0.12098
1585.20124,0.11848
1587.12971,0.11664
1589.05818,0.11608
1590.98664,0.11680
1592.91511,0.11829
1594.84358,0.11908
1596.77205,0.11832
1598.70052,0.11783
1600.62899,0.11904
1602.55746,0.12087
1604.48592,0.12097
1606.41439,0.11974
1608.34286,0.11914
1610.27133,0.11830
1612.19980,0.11763
1614.12827,0.11908
1616.05674,0.12233
1617.98521,0.12474
1619.91367,0.12506
1621.84214,0.12431
1623.77061,0.12264
1625.69908,0.12287
1627.62755,0.12587
1629.55602,0.12746
1631.48449,0.12704
1633.41295,0.12828
1635.34142,0.13228
1637.26989,0.13183
1639.19836,0.12720
1641.12683,0.12460
1643.05530,0.12521
1644.98377,0.13047
1646.91223,0.13760
1648.84070,0.13618
1650.76917,0.13210
1652.69764,0.12806
1654.62611,0.12311
1656.55458,0.12231
1658.48305,0.12405
1660.41152,0.12685
1662.33998,0.12887
1664.26845,0.12870
1666.19692,0.12777
1668.12539,0.12978
1670.05386,0.13513
1671.98233,0.13620
1673.91080,0.13326
1675.83926,0.12778
1677.76773,0.12330
1679.69620,0.12418
1681.62467,0.12915
1683.55314,0.13733
1685.48161,0.14206
1687.41008,0.13815
1689.33855,0.13170
1691.26701,0.12606
1693.19548,0.12443
1695.12395,0.12779
1697.05242,0.13482
1698.98089,0.14140
1700.90936,0.14030
1702.83783,0.13377
1704.76629,0.13067
1706.69476,0.12857
1708.62323,0.12370
1710.55170,0.12046
1712.48017,0.12254
1714.40864,0.12856
1716.33711,0.13542
1718.26558,0.13394
1720.19404,0.12686
1722.12251,0.12424
1724.05098,0.12320
1725.97945,0.12089
1727.90792,0.12005
1729.83639,0.12072
1731.76486,0.12200
1733.69332,0.12463
1735.62179,0.12395
1737.55026,0.12147
1739.47873,0.12140
1741.40720,0.12176
1743.33567,0.12110
1745.26414,0.12230
1747.19261,0.12509
1749.12107,0.12653
1751.04954,0.12496
1752.97801,0.12224
1754.90648,0.12130
1756.83495,0.12239
1758.76342,0.12434
1760.69189,0.12548
1762.62035,0.12241
1764.54882,0.11653
1766.47729,0.11389
1768.40576,0.11693
1770.33423,0.12435
1772.26270,0.13187
1774.19117,0.13227
1776.11964,0.12790
1778.04810,0.12502
1779.97657,0.12408
1781.90504,0.12282
1783.83351,0.12119
1785.76198,0.11950
1787.69045,0.11904
1789.61892,0.12134
1791.54738,0.12485
1793.47585,0.12625
1795.40432,0.12498
1797.33279,0.12330
1799.26126,0.12261
1801.18973,0.12126
1803.11820,0.11831
1805.04666,0.11696
1806.97513,0.11934
1808.90360,0.12264
1810.83207,0.12188
1812.76054,0.11757
1814.68901,0.11546
1816.61748,0.11636
1818.54595,0.11635
1820.47441,0.11642
1822.40288,0.11956
1824.33135,0.12296
1826.25982,0.12364
1828.18829,0.12334
1830.11676,0.12306
1832.04523,0.12211
1833.97369,0.12162
1835.90216,0.12186
1837.83063,0.12052
1839.75910,0.11892
1841.68757,0.12090
1843.61604,0.12433
1845.54451,0.12377
1847.47298,0.12071
1849.40144,0.11864
1851.32991,0.11863
1853.25838,0.11928
1855.18685,0.11900
1857.11532,0.11907
1859.04379,0.11961
1860.97226,0.12024
1862.90072,0.12158
1864.82919,0.12273
1866.75766,0.12476
1868.68613,0.12725
1870.61460,0.12495
1872.54307,0.11982
1874.47154,0.11628
1876.40001,0.11585
1878.32847,0.11757
1880.25694,0.11907
1882.18541,0.12080
1884.11388,0.12258
1886.04235,0.12187
1887.97082,0.11975
1889.89929,0.11930
1891.82775,0.12049
1893.75622,0.12150
1895.68469,0.12128
1897.61316,0.11979
1899.54163,0.11757
1901.47010,0.11598
1903.39857,0.11685
1905.32704,0.11932
1907.25550,0.12120
1909.18397,0.12188
1911.11244,0.12144
1913.04091,0.12174
1914.96938,0.12340
1916.89785,0.12269
1918.82632,0.11956
1920.75478,0.11929
1922.68325,0.12103
1924.61172,0.12092
1926.54019,0.11942
1928.46866,0.11840
1930.39713,0.11849
1932.32560,0.11943
1934.25407,0.11933
1936.18253,0.11763
1938.11100,0.11760
1940.03947,0.12097
1941.96794,0.12385
1943.89641,0.12260
1945.82488,0.11985
1947.75335,0.11791
1949.68181,0.11728
1951.61028,0.11912
1953.53875,0.12211
1955.46722,0.12424
1957.39569,0.12483
1959.32416,0.12343
1961.25263,0.12226
1963.18110,0.12387
1965.10956,0.12591
1967.03803,0.12548
1968.96650,0.12318
1970.89497,0.12035
1972.82344,0.11926
1974.75191,0.12115
1976.68038,0.12279
1978.60884,0.12154
1980.53731,0.11895
1982.46578,0.11693
1984.39425,0.11581
1986.32272,0.11599
1988.25119,0.11806
1990.17966,0.12098
1992.10812,0.12162
1994.03659,0.11970
1995.96506,0.11920
1997.89353,0.12012
1999.82200,0.11910
2001.75047,0.11666
2003.67894,0.11626
2005.60741,0.11830
2007.53587,0.12017
2009.46434,0.12131
2011.39281,0.12160
2013.32128,0.12090
2015.24975,0.12171
2017.17822,0.12390
2019.10669,0.12414
2021.03515,0.12201
2022.96362,0.11960
2024.89209,0.11809
2026.82056,0.11697
2028.74903,0.11684
2030.67750,0.11846
2032.60597,0.11910
2034.53444,0.11795
2036.46290,0.11765
2038.39137,0.11822
2040.31984,0.11880
2042.24831,0.11984
2044.17678,0.12124
2046.10525,0.12239
2048.03372,0.12312
2049.96218,0.12345
2051.89065,0.12227
2053.81912,0.11879
2055.74759,0.11547
2057.67606,0.11466
2059.60453,0.11539
2061.53300,0.11651
2063.46147,0.11740
2065.38993,0.11747
2067.31840,0.11786
2069.24687,0.11935
2071.17534,0.12043
2073.10381,0.12008
2075.03228,0.11953
2076.96075,0.11937
2078.88921,0.11933
2080.81768,0.12014
2082.74615,0.12120
2084.67462,0.12114
2086.60309,0.12051
2088.53156,0.12071
2090.46003,0.12175
2092.38850,0.12245
2094.31696,0.12209
2096.24543,0.12151
2098.17390,0.12222
2100.10237,0.12282
2102.03084,0.12165
2103.95931,0.12048
2105.88778,0.12138
2107.81624,0.12401
2109.74471,0.12498
2111.67318,0.12261
2113.60165,0.12055
2115.53012,0.12125
2117.45859,0.12230
2119.38706,0.12202
2121.31553,0.12159
2123.24399,0.12132
2125.17246,0.12069
2127.10093,0.12043
2129.02940,0.12043
2130.95787,0.12033
2132.88634,0.12109
2134.81481,0.12179
2136.74327,0.12105
2138.67174,0.11990
2140.60021,0.11946
2142.52868,0.11977
2144.45715,0.12000
2146.38562,0.12003
2148.31409,0.12073
2150.24255,0.12140
2152.17102,0.12098
2154.09949,0.11995
2156.02796,0.11973
2157.95643,0.12107
2159.88490,0.12220
2161.81337,0.12141
2163.74184,0.12055
2165.67030,0.12225
2167.59877,0.12584
2169.52724,0.12851
2171.45571,0.12795
2173.38418,0.12403
2175.31265,0.11953
2177.24112,0.11746
2179.16958,0.11857
2181.09805,0.12063
2183.02652,0.12111
2184.95499,0.12025
2186.88346,0.11953
2188.81193,0.12030
2190.74040,0.12178
2192.66887,0.12138
2194.59733,0.11919
2196.52580,0.11791
2198.45427,0.11847
2200.38274,0.11853
2202.31121,0.11781
2204.23968,0.11852
2206.16815,0.11939
2208.09661,0.11905
2210.02508,0.11821
2211.95355,0.11764
2213.88202,0.11885
2215.81049,0.12085
2217.73896,0.12123
2219.66743,0.12049
2221.59590,0.12074
2223.52436,0.12192
2225.45283,0.12276
2227.38130,0.12391
2229.30977,0.12507
2231.23824,0.12530
2233.16671,0.12495
2235.09518,0.12346
2237.02364,0.12119
2238.95211,0.11969
2240.88058,0.11901
2242.80905,0.11924
2244.73752,0.12106
2246.66599,0.12316
2248.59446,0.12396
2250.52293,0.12388
2252.45139,0.12267
2254.37986,0.12022
2256.30833,0.11814
2258.23680,0.11686
2260.16527,0.11627
2262.09374,0.11694
2264.02221,0.11957
2265.95067,0.12383
2267.87914,0.12552
2269.80761,0.12266
2271.73608,0.11977
2273.66455,0.11947
2275.59302,0.12076
2277.52149,0.12162
2279.44996,0.12132
2281.37842,0.12090
2283.30689,0.12073
2285.23536,0.12181
2287.16383,0.12352
2289.09230,0.12292
2291.02077,0.11814
2292.94924,0.11179
2294.87770,0.11029
2296.80617,0.11334
2298.73464,0.11528
2300.66311,0.11615
2302.59158,0.11822
2304.52005,0.12105
2306.44852,0.12356
2308.37699,0.12409
2310.30545,0.12203
2312.23392,0.11936
2314.16239,0.11728
2316.09086,0.11537
2318.01933,0.11477
2319.94780,0.11732
2321.87627,0.12139
2323.80473,0.12344
2325.73320,0.12470
2327.66167,0.12473
2329.59014,0.11877
2331.51861,0.11138
2333.44708,0.10996
2335.37555,0.11333
2337.30401,0.12085
2339.23248,0.12952
2341.16095,0.13268
2343.08942,0.13474
2345.01789,0.13947
2346.94636,0.13697
2348.87483,0.12880
2350.80330,0.12275
2352.73176,0.12221
2354.66023,0.12549
2356.58870,0.12291
2358.51717,0.11126
2360.44564,0.10740
2362.37411,0.11774
2364.30258,0.12489
2366.23104,0.11820
2368.15951,0.10568
2370.08798,0.10410
2372.01645,0.11423
2373.94492,0.12134
2375.87339,0.12182
2377.80186,0.11934
2379.73033,0.11529
2381.65879,0.11390
2383.58726,0.11738
2385.51573,0.12087
2387.44420,0.12152
2389.37267,0.12240
2391.30114,0.12379
2393.22961,0.12352
2395.15807,0.12281
2397.08654,0.12220
2399.01501,0.11991
2400.94348,0.11752
2402.87195,0.11738
2404.80042,0.11823
2406.72889,0.11966
2408.65736,0.12216
2410.58582,0.12451
2412.51429,0.12476
2414.44276,0.12268
2416.37123,0.12110
2418.29970,0.12224
2420.22817,0.12450
2422.15664,0.12508
2424.08510,0.12394
2426.01357,0.12280
2427.94204,0.12249
2429.87051,0.12265
2431.79898,0.12237
2433.72745,0.12064
2435.65592,0.11742
2437.58439,0.11538
2439.51285,0.11668
2441.44132,0.11959
2443.36979,0.12088
2445.29826,0.12073
2447.22673,0.12139
2449.15520,0.12142
2451.08367,0.12006
2453.01213,0.11965
2454.94060,0.12015
2456.86907,0.11990
2458.79754,0.11924
2460.72601,0.11929
2462.65448,0.11953
2464.58295,0.11961
2466.51142,0.12066
2468.43988,0.12267
2470.36835,0.12384
2472.29682,0.12299
2474.22529,0.12138
2476.15376,0.12199
2478.08223,0.12491
2480.01070,0.12602
2481.93916,0.12337
2483.86763,0.11982
2485.79610,0.11895
2487.72457,0.12081
2489.65304,0.12270
2491.58151,0.12383
2493.50998,0.12426
2495.43844,0.12268
2497.36691,0.12105
2499.29538,0.12267
2501.22385,0.12511
2503.15232,0.12574
2505.08079,0.12677
2507.00926,0.12860
2508.93773,0.12851
2510.86619,0.12671
2512.79466,0.12505
2514.72313,0.12311
2516.65160,0.12161
2518.58007,0.12270
2520.50854,0.12442
2522.43701,0.12340
2524.36547,0.12157
2526.29394,0.12197
2528.22241,0.12412
2530.15088,0.12592
2532.07935,0.12570
2534.00782,0.12488
2535.93629,0.12535
2537.86476,0.12520
2539.79322,0.12364
2541.72169,0.12293
2543.65016,0.12333
2545.57863,0.12296
2547.50710,0.12206
2549.43557,0.12251
2551.36404,0.12346
2553.29250,0.12303
2555.22097,0.12245
2557.14944,0.12307
2559.07791,0.12368
2561.00638,0.12412
2562.93485,0.12549
2564.86332,0.12673
2566.79179,0.12599
2568.72025,0.12482
2570.64872,0.12528
2572.57719,0.12584
2574.50566,0.12592
2576.43413,0.12699
2578.36260,0.12821
2580.29107,0.12832
2582.21953,0.12846
2584.14800,0.12833
2586.07647,0.12633
2588.00494,0.12506
2589.93341,0.12606
2591.86188,0.12598
2593.79035,0.12518
2595.71882,0.12553
2597.64728,0.12549
2599.57575,0.12529
2601.50422,0.12551
2603.43269,0.12489
2605.36116,0.12322
2607.28963,0.12178
2609.21810,0.12258
2611.14656,0.12550
2613.07503,0.12722
2615.00350,0.12643
2616.93197,0.12642
2618.86044,0.12760
2620.78891,0.12631
2622.71738,0.12403
2624.64585,0.12485
2626.57431,0.12743
2628.50278,0.12817
2630.43125,0.12758
2632.35972,0.12792
2634.28819,0.12922
2636.21666,0.12996
2638.14513,0.12868
2640.07359,0.12779
2642.00206,0.12870
2643.93053,0.12767
2645.85900,0.12513
2647.78747,0.12404
2649.71594,0.12251
2651.64441,0.12011
2653.57288,0.12059
2655.50134,0.12372
2657.42981,0.12617
2659.35828,0.12802
2661.28675,0.12975
2663.21522,0.12946
2665.14369,0.12837
2667.07216,0.12955
2669.00062,0.13148
2670.92909,0.13222
2672.85756,0.13159
2674.78603,0.12963
2676.71450,0.12841
2678.64297,0.12809
2680.57144,0.12729
2682.49990,0.12673
2684.42837,0.12682
2686.35684,0.12796
2688.28531,0.13006
2690.21378,0.13074
2692.14225,0.12924
2694.07072,0.12725
2695.99919,0.12591
2697.92765,0.12624
2699.85612,0.12807
2701.78459,0.12913
2703.71306,0.12912
2705.64153,0.13020
2707.57000,0.13201
2709.49847,0.13218
2711.42693,0.13137
2713.35540,0.13165
2715.28387,0.13222
2717.21234,0.13102
2719.14081,0.12916
2721.06928,0.12818
2722.99775,0.12779
2724.92622,0.12876
2726.85468,0.12961
2728.78315,0.12920
2730.71162,0.12965
2732.64009,0.13051
2734.56856,0.13152
2736.49703,0.13338
2738.42550,0.13426
2740.35396,0.13337
2742.28243,0.13111
2744.21090,0.12753
2746.13937,0.12471
2748.06784,0.12548
2749.99631,0.12885
2751.92478,0.13160
2753.85325,0.13312
2755.78171,0.13305
2757.71018,0.13029
2759.63865,0.12753
2761.56712,0.12782
2763.49559,0.13038
2765.42406,0.13212
2767.35253,0.13178
2769.28099,0.13244
2771.20946,0.13434
2773.13793,0.13441
2775.06640,0.13233
2776.99487,0.12992
2778.92334,0.12961
2780.85181,0.13119
2782.78028,0.13176
2784.70874,0.13107
2786.63721,0.13147
2788.56568,0.13322
2790.49415,0.13440
2792.42262,0.13358
2794.35109,0.13182
2796.27956,0.13139
2798.20802,0.13125
2800.13649,0.13090
2802.06496,0.13264
2803.99343,0.13516
2805.92190,0.13549
2807.85037,0.13462
2809.77884,0.13543
2811.70731,0.13705
2813.63577,0.13641
2815.56424,0.13547
2817.49271,0.13672
2819.42118,0.13733
2821.34965,0.13517
2823.27812,0.13265
2825.20659,0.13195
2827.13505,0.13243
2829.06352,0.13284
2830.99199,0.13169
2832.92046,0.13022
2834.84893,0.13204
2836.77740,0.13704
2838.70587,0.14106
2840.63433,0.14120
2842.56280,0.13979
2844.49127,0.13796
2846.41974,0.13515
2848.34821,0.13422
2850.27668,0.13491
2852.20515,0.13470
2854.13362,0.13372
2856.06208,0.13247
2857.99055,0.13110
2859.91902,0.13074
2861.84749,0.13299
2863.77596,0.13566
2865.70443,0.13551
2867.63290,0.13388
2869.56136,0.13303
2871.48983,0.13147
2873.41830,0.12944
2875.34677,0.13070
2877.27524,0.13333
2879.20371,0.13283
2881.13218,0.13146
2883.06065,0.13358
2884.98911,0.13723
2886.91758,0.13766
2888.84605,0.13512
2890.77452,0.13282
2892.70299,0.13208
2894.63146,0.13196
2896.55993,0.13155
2898.48839,0.13218
2900.41686,0.13343
2902.34533,0.13232
2904.27380,0.13095
2906.20227,0.13338
2908.13074,0.13599
2910.05921,0.13499
2911.98768,0.13307
2913.91614,0.13272
2915.84461,0.13380
2917.77308,0.13477
2919.70155,0.13441
2921.63002,0.13258
2923.55849,0.12937
2925.48696,0.12607
2927.41542,0.12632
2929.34389,0.13163
2931.27236,0.13624
2933.20083,0.13717
2935.12930,0.13721
2937.05777,0.13589
2938.98624,0.13350
2940.91471,0.13258
2942.84317,0.13246
2944.77164,0.13130
2946.70011,0.13024
2948.62858,0.13136
2950.55705,0.13386
2952.48552,0.13577
2954.41399,0.13605
2956.34245,0.13480
2958.27092,0.13401
2960.19939,0.13397
2962.12786,0.13331
2964.05633,0.13324
2965.98480,0.13443
2967.91327,0.13512
2969.84174,0.13399
2971.77020,0.13146
2973.69867,0.13065
2975.62714,0.13417
2977.55561,0.13907
2979.48408,0.14001
2981.41255,0.13812
2983.34102,0.13852
2985.26948,0.14012
2987.19795,0.13954
2989.12642,0.13820
2991.05489,0.13685
2992.98336,0.13500
2994.91183,0.13437
2996.84030,0.13564
2998.76877,0.13734
3000.69723,0.13806
3002.62570,0.13920
3004.55417,0.14124
3006.48264,0.14105
3008.41111,0.13849
3010.33958,0.13693
3012.26805,0.13875
3014.19651,0.14253
3016.12498,0.14445
3018.05345,0.14393
3019.98192,0.14457
3021.91039,0.14754
3023.83886,0.14795
3025.76733,0.14308
3027.69579,0.13739
3029.62426,0.13546
3031.55273,0.13698
3033.48120,0.13873
3035.40967,0.13959
3037.33814,0.14156
3039.26661,0.14467
3041.19508,0.14543
3043.12354,0.14200
3045.05201,0.13781
3046.98048,0.13704
3048.90895,0.13893
3050.83742,0.14070
3052.76589,0.14019
3054.69436,0.13681
3056.62282,0.13413
3058.55129,0.13507
3060.47976,0.13710
3062.40823,0.13792
3064.33670,0.13873
3066.26517,0.13886
3068.19364,0.13764
3070.12211,0.13819
3072.05057,0.14089
3073.97904,0.14294
3075.90751,0.14221
3077.83598,0.13776
3079.76445,0.13407
3081.69292,0.13627
3083.62139,0.13919
3085.54985,0.13788
3087.47832,0.13589
3089.40679,0.13514
3091.33526,0.13455
3093.26373,0.13450
3095.19220,0.13502
3097.12067,0.13439
3099.04914,0.13404
3100.97760,0.13509
3102.90607,0.13370
3104.83454,0.13130
3106.76301,0.13200
3108.69148,0.13513
3110.61995,0.13944
3112.54842,0.14206
3114.47688,0.14020
3116.40535,0.13719
3118.33382,0.13740
3120.26229,0.13888
3122.19076,0.13968
3124.11923,0.14122
3126.04770,0.14292
3127.97617,0.14284
3129.90463,0.14077
3131.83310,0.13827
3133.76157,0.13768
3135.69004,0.14045
3137.61851,0.14444
3139.54698,0.14400
3141.47545,0.13891
3143.40391,0.13639
3145.33238,0.13779
3147.26085,0.13783
3149.18932,0.13641
3151.11779,0.13692
3153.04626,0.13772
3154.97473,0.13776
3156.90320,0.14057
3158.83166,0.14326
3160.76013,0.14139
3162.68860,0.13891
3164.61707,0.13977
3166.54554,0.14244
3168.47401,0.14447
3170.40248,0.14669
3172.33094,0.14777
3174.25941,0.14549
3176.18788,0.14296
3178.11635,0.14166
3180.04482,0.13973
3181.97329,0.13737
3183.90176,0.13711
3185.83022,0.14099
3187.75869,0.14525
3189.68716,0.14463
3191.61563,0.14106
3193.54410,0.13805
3195.47257,0.13696
3197.40104,0.13770
3199.32951,0.13849
3201.25797,0.14055
3203.18644,0.14325
3205.11491,0.14120
3207.04338,0.13609
3208.97185,0.13550
3210.90032,0.13895
3212.82879,0.14183
3214.75725,0.14274
3216.68572,0.14118
3218.61419,0.13820
3220.54266,0.13565
3222.47113,0.13618
3224.39960,0.13894
3226.32807,0.13900
3228.25654,0.13620
3230.18500,0.13449
3232.11347,0.13599
3234.04194,0.13831
3235.97041,0.13837
3237.89888,0.13710
3239.82735,0.13852
3241.75582,0.14274
3243.68428,0.14459
3245.61275,0.14209
3247.54122,0.13740
3249.46969,0.13353
3251.39816,0.13200
3253.32663,0.13332
3255.25510,0.13746
3257.18357,0.14133
3259.11203,0.14165
3261.04050,0.13902
3262.96897,0.13788
3264.89744,0.13926
3266.82591,0.14046
3268.75438,0.14112
3270.68285,0.14055
3272.61131,0.13987
3274.53978,0.14226
3276.46825,0.14372
3278.39672,0.14017
3280.32519,0.13621
3282.25366,0.13608
3284.18213,0.13926
3286.11060,0.14188
3288.03906,0.14188
3289.96753,0.14150
3291.89600,0.13929
3293.82447,0.13419
3295.75294,0.13343
3297.68141,0.14008
3299.60988,0.14575
3301.53834,0.14646
3303.46681,0.14569
3305.39528,0.14233
3307.32375,0.13756
3309.25222,0.13724
3311.18069,0.14024
3313.10916,0.14178
3315.03763,0.14105
3316.96609,0.13884
3318.89456,0.13687
3320.82303,0.13710
3322.75150,0.13829
3324.67997,0.13911
3326.60844,0.14118
3328.53691,0.14411
3330.46537,0.14548
3332.39384,0.14615
3334.32231,0.14794
3336.25078,0.14884
3338.17925,0.14670
3340.10772,0.14361
3342.03619,0.14345
3343.96466,0.14420
3345.89312,0.14185
3347.82159,0.14001
3349.75006,0.13986
3351.67853,0.13860
3353.60700,0.13848
3355.53547,0.13977
3357.46394,0.14111
3359.39240,0.14251
3361.32087,0.14129
3363.24934,0.13748
3365.17781,0.13579
3367.10628,0.13688
3369.03475,0.13697
3370.96322,0.13646
3372.89168,0.13716
3374.82015,0.13669
3376.74862,0.13558
3378.67709,0.13622
3380.60556,0.13576
3382.53403,0.13283
3384.46250,0.13089
3386.39097,0.13223
3388.31943,0.13586
3390.24790,0.14048
3392.17637,0.14470
3394.10484,0.14594
3396.03331,0.14402
3397.96178,0.14097
3399.89025,0.13815
3401.81871,0.13656
3403.74718,0.13769
3405.67565,0.14090
3407.60412,0.14155
3409.53259,0.13909
3411.46106,0.13875
3413.38953,0.14115
3415.31800,0.14148
3417.24646,0.13989
3419.17493,0.14087
3421.10340,0.14104
3423.03187,0.13571
3424.96034,0.13168
3426.88881,0.13506
3428.81728,0.13935
3430.74574,0.13704
3432.67421,0.13152
3434.60268,0.12846
3436.53115,0.12897
3438.45962,0.13142
3440.38809,0.13291
3442.31656,0.13294
3444.24503,0.13490
3446.17349,0.13927
3448.10196,0.14011
3450.03043,0.13677
3451.95890,0.13447
3453.88737,0.13308
3455.81584,0.13113
3457.74431,0.13170
3459.67277,0.13481
3461.60124,0.13483
3463.52971,0.13180
3465.45818,0.12851
3467.38665,0.12468
3469.31512,0.12283
3471.24359,0.12417
3473.17206,0.12596
3475.10052,0.12683
3477.02899,0.12681
3478.95746,0.12508
3480.88593,0.12248
3482.81440,0.12110
3484.74287,0.12093
3486.67134,0.12268
3488.59980,0.12588
3490.52827,0.12651
3492.45674,0.12391
3494.38521,0.12140
3496.31368,0.11949
3498.24215,0.11698
3500.17062,0.11513
3502.09909,0.11644
3504.02755,0.12002
3505.95602,0.12018
3507.88449,0.11634
3509.81296,0.11401
3511.74143,0.11623
3513.66990,0.11947
3515.59837,0.12077
3517.52683,0.12073
3519.45530,0.11987
3521.38377,0.12046
3523.31224,0.12257
3525.24071,0.12279
3527.16918,0.12167
3529.09765,0.12007
3531.02611,0.11881
3532.95458,0.11946
3534.88305,0.11947
3536.81152,0.11658
3538.73999,0.11311
3540.66846,0.11146
3542.59693,0.11226
3544.52540,0.11456
3546.45386,0.11491
3548.38233,0.11312
3550.31080,0.11280
3552.23927,0.11389
3554.16774,0.11403
3556.09621,0.11282
3558.02468,0.11226
3559.95314,0.11542
3561.88161,0.12066
3563.81008,0.12341
3565.73855,0.12259
3567.66702,0.11785
3569.59549,0.11089
3571.52396,0.10537
3573.45243,0.10379
3575.38089,0.10380
3577.30936,0.10146
3579.23783,0.09910
3581.16630,0.09742
3583.09477,0.09596
3585.02324,0.09896
3586.95171,0.10617
3588.88017,0.10756
3590.80864,0.10550
3592.73711,0.10559
3594.66558,0.10478
3596.59405,0.10515
3598.52252,0.10761
3600.45099,0.10709
3602.37946,0.10591
3604.30792,0.10810
3606.23639,0.11058
3608.16486,0.10662
3610.09333,0.09759
3612.02180,0.09377
3613.95027,0.09461
3615.87874,0.09525
3617.80720,0.10025
3619.73567,0.10902
3621.66414,0.10954
3623.59261,0.10417
3625.52108,0.10041
3627.44955,0.10124
3629.37802,0.10346
3631.30649,0.10077
3633.23495,0.09828
3635.16342,0.09724
3637.09189,0.09550
3639.02036,0.09318
3640.94883,0.09155
3642.87730,0.09266
3644.80577,0.09677
3646.73423,0.10351
3648.66270,0.11104
3650.59117,0.10728
3652.51964,0.09814
3654.44811,0.09391
3656.37658,0.09189
3658.30505,0.09003
3660.23352,0.09076
3662.16198,0.09267
3664.09045,0.09296
3666.01892,0.09430
3667.94739,0.10062
3669.87586,0.10642
3671.80433,0.10354
3673.73280,0.10216
3675.66126,0.10200
3677.58973,0.09713
3679.51820,0.09392
3681.44667,0.09033
3683.37514,0.08552
3685.30361,0.08369
3687.23208,0.08776
3689.16055,0.09731
3691.08901,0.10043
3693.01748,0.09487
3694.94595,0.09045
3696.87442,0.08768
3698.80289,0.08491
3700.73136,0.08604
3702.65983,0.09067
3704.58829,0.09190
3706.51676,0.09226
3708.44523,0.09655
3710.37370,0.09983
3712.30217,0.09333
3714.23064,0.08660
3716.15911,0.08649
3718.08757,0.09021
3720.01604,0.09421
3721.94451,0.09359
3723.87298,0.08877
3725.80145,0.08641
3727.72992,0.08671
3729.65839,0.08653
3731.58686,0.08623
3733.51532,0.08764
3735.44379,0.09147
3737.37226,0.09199
3739.30073,0.09132
3741.22920,0.09555
3743.15767,0.10009
3745.08614,0.09501
3747.01460,0.08880
3748.94307,0.09044
3750.87154,0.09591
3752.80001,0.09562
3754.72848,0.09164
3756.65695,0.09080
3758.58542,0.09154
3760.51389,0.08903
3762.44235,0.08639
3764.37082,0.08581
3766.29929,0.08517
3768.22776,0.08447
3770.15623,0.08336
3772.08470,0.08143
3774.01317,0.08040
3775.94163,0.08098
3777.87010,0.08379
3779.79857,0.08618
3781.72704,0.08607
3783.65551,0.08576
3785.58398,0.08358
3787.51245,0.08089
3789.44092,0.08137
3791.36938,0.08258
3793.29785,0.08208
3795.22632,0.08151
3797.15479,0.08269
3799.08326,0.08381
3801.01173,0.08188
3802.94020,0.07769
3804.86866,0.07734
3806.79713,0.08167
3808.72560,0.08375
3810.65407,0.08234
3812.58254,0.08285
3814.51101,0.08397
3816.43948,0.08236
3818.36795,0.08459
3820.29641,0.09192
3822.22488,0.09091
3824.15335,0.08320
3826.08182,0.07888
3828.01029,0.07873
3829.93876,0.08105
3831.86723,0.08319
3833.79569,0.08203
3835.72416,0.07707
3837.65263,0.07447
3839.58110,0.07951
3841.50957,0.08435
3843.43804,0.08559
3845.36651,0.08665
3847.29498,0.08712
3849.22344,0.08582
3851.15191,0.08700
3853.08038,0.09288
3855.00885,0.08960
3856.93732,0.08498
3858.86579,0.08575
3860.79426,0.08705
3862.72272,0.08723
3864.65119,0.08596
3866.57966,0.08229
3868.50813,0.07858
3870.43660,0.08009
3872.36507,0.08620
3874.29354,0.08660
3876.22200,0.08115
3878.15047,0.07835
3880.07894,0.07942
3882.00741,0.08005
3883.93588,0.07997
3885.86435,0.08036
3887.79282,0.07881
3889.72129,0.07452
3891.64975,0.06962
3893.57822,0.06990
3895.50669,0.07418
3897.43516,0.07658
3899.36363,0.07637
3901.29210,0.07712
3903.22057,0.07947
3905.14903,0.08103
3907.07750,0.07936
3909.00597,0.07619
3910.93444,0.07531
3912.86291,0.07590
3914.79138,0.07630
3916.71985,0.07708
3918.64832,0.07504
3920.57678,0.07156
3922.50525,0.07107
3924.43372,0.07218
3926.36219,0.07396
3928.29066,0.07578
3930.21913,0.07676
3932.14760,0.07644
3934.07606,0.07582
3936.00453,0.07757
3937.93300,0.07975
3939.86147,0.07898
3941.78994,0.07605
3943.71841,0.07292
3945.64688,0.06891
3947.57535,0.06553
3949.50381,0.06558
3951.43228,0.06648
3953.36075,0.06810
3955.28922,0.07271
3957.21769,0.07681
3959.14616,0.07552
3961.07463,0.06970
3963.00309,0.06632
3964.93156,0.06945
3966.86003,0.07418
3968.78850,0.07506
3970.71697,0.07171
3972.64544,0.06762
3974.57391,0.06850
3976.50238,0.07391
3978.43084,0.07809
3980.35931,0.07942
3982.28778,0.07719
3984.21625,0.07158
3986.14472,0.06569
3988.07319,0.06199
3990.00166,0.06105
3991.93012,0.06182
3993.85859,0.06284
3995.78706,0.06312
3997.71553,0.06352
3999.64400,0.06496
4001.57247,0.06506
4003.50094,0.06265
4005.42941,0.06151
4007.35787,0.06244
4009.28634,0.06190
4011.21481,0.06142
4013.14328,0.06472
4015.07175,0.07055
4017.00022,0.07349
4018.92869,0.07049
4020.85715,0.06459
4022.78562,0.05951
4024.71409,0.05819
4026.64256,0.06184
4028.57103,0.06649
4030.49950,0.06904
4032.42797,0.06859
4034.35644,0.06465
4036.28490,0.06165
4038.21337,0.06159
4040.14184,0.06150
4042.07031,0.06198
4043.99878,0.06227
4045.92725,0.06069
4047.85572,0.06039
4049.78418,0.06290
4051.71265,0.06488
4053.64112,0.06404
4055.56959,0.06203
4057.49806,0.06190
4059.42653,0.06297
4061.35500,0.06206
4063.28346,0.06062
4065.21193,0.06067
4067.14040,0.06122
4069.06887,0.06085
4070.99734,0.05917
4072.92581,0.05775
4074.85428,0.05748
4076.78275,0.06027
4078.71121,0.06651
4080.63968,0.06936
4082.56815,0.06420
4084.49662,0.05691
4086.42509,0.05370
4088.35356,0.05253
4090.28203,0.05066
4092.21049,0.04969
4094.13896,0.05170
4096.06743,0.05489
4097.99590,0.05600
4099.92437,0.05594
4101.85284,0.05734
4103.78131,0.06063
4105.70978,0.06315
4107.63824,0.06113
4109.56671,0.05692
4111.49518,0.05725
4113.42365,0.06203
4115.35212,0.06642
4117.28059,0.06830
4119.20906,0.06751
4121.13752,0.06431
4123.06599,0.06046
4124.99446,0.05906
4126.92293,0.05843
4128.85140,0.05516
4130.77987,0.05142
4132.70834,0.04936
4134.63681,0.04793
4136.56527,0.04895
4138.49374,0.05427
4140.42221,0.05935
4142.35068,0.06025
4144.27915,0.05870
4146.20762,0.05710
4148.13609,0.05535
4150.06455,0.05618
4151.99302,0.06122
4153.92149,0.06162
4155.84996,0.05483
4157.77843,0.05087
4159.70690,0.05337
4161.63537,0.05804
4163.56384,0.06044
4165.49230,0.05757
4167.42077,0.05105
4169.34924,0.04634
4171.27771,0.04571
4173.20618,0.04682
4175.13465,0.04790
4177.06312,0.04967
4178.99158,0.05323
4180.92005,0.05671
4182.84852,0.05572
4184.77699,0.04908
4186.70546,0.04078
4188.63393,0.03812
4190.56240,0.04224
4192.49087,0.04565
4194.41933,0.04765
4196.34780,0.05218
4198.27627,0.05758
4200.20474,0.05907
4202.13321,0.05512
4204.06168,0.05095
4205.99015,0.05032
4207.91861,0.04984
4209.84708,0.04773
4211.77555,0.04755
4213.70402,0.04865
4215.63249,0.04653
4217.56096,0.04150
4219.48943,0.03859
4221.41789,0.04077
4223.34636,0.04279
4225.27483,0.04078
4227.20330,0.04050
4229.13177,0.04406
4231.06024,0.04708
4232.98871,0.04839
4234.91718,0.04839
4236.84564,0.04806
4238.77411,0.04820
4240.70258,0.04823
4242.63105,0.04987
4244.55952,0.05182
4246.48799,0.05059
4248.41646,0.04753
4250.34492,0.04475
4252.27339,0.04330
4254.20186,0.04425
4256.13033,0.04359
4258.05880,0.03809
4259.98727,0.03498
4261.91574,0.03795
4263.84421,0.04090
4265.77267,0.04151
4267.70114,0.04250
4269.62961,0.04501
4271.55808,0.04645
4273.48655,0.04588
4275.41502,0.04621
4277.34349,0.04814
4279.27195,0.05012
4281.20042,0.05169
4283.12889,0.05113
4285.05736,0.04763
4286.98583,0.04461
4288.91430,0.04385
4290.84277,0.04332
4292.77124,0.04224
4294.69970,0.04244
4296.62817,0.04305
4298.55664,0.04189
4300.48511,0.04195
4302.41358,0.04340
4304.34205,0.04234
4306.27052,0.03948
4308.19898,0.03609
4310.12745,0.03288
4312.05592,0.03140
4313.98439,0.03045
4315.91286,0.02950
4317.84133,0.02931
4319.76980,0.02905
4321.69827,0.02837
4323.62673,0.02724
4325.55520,0.02615
4327.48367,0.02620
4329.41214,0.02807
4331.34061,0.03226
4333.26908,0.03669
4335.19755,0.03714
4337.12601,0.03320
4339.05448,0.02948
4340.98295,0.02810
4342.91142,0.02780
4344.83989,0.02782
4346.76836,0.02495
4348.69683,0.02080
4350.62530,0.02083
4352.55376,0.02328
4354.48223,0.02800
4356.41070,0.03133
4358.33917,0.02548
4360.26764,0.01887
4362.19611,0.01763
4364.12458,0.01559
4366.05304,0.01465
4367.98151,0.01604
4369.90998,0.01577
4371.83845,0.01749
4373.76692,0.02358
4375.69539,0.02857
4377.62386,0.02973
4379.55232,0.02870
4381.48079,0.02466
4383.40926,0.01739
4385.33773,0.01194
4387.26620,0.01242
4389.19467,0.01615
4391.12314,0.01844
4393.05161,0.01781
4394.98007,0.01688
4396.90854,0.02027
4398.83701,0.02609
4400.76548,0.02765
4402.69395,0.02457
4404.62242,0.02261
4406.55089,0.02446
4408.47935,0.02733
4410.40782,0.02691
4412.33629,0.02218
4414.26476,0.02054
4416.19323,0.02567
4418.12170,0.02808
4420.05017,0.02363
4421.97864,0.02095
4423.90710,0.02418
4425.83557,0.02778
4427.76404,0.02940
4429.69251,0.02948
4431.62098,0.02581
4433.54945,0.01973
4435.47792,0.01609
4437.40638,0.01613
4439.33485,0.01477
4441.26332,0.01062
4443.19179,0.00986
4445.12026,0.01138
4447.04873,0.00884
4448.97720,0.00663
4450.90567,0.01017
4452.83413,0.01433
4454.76260,0.01559
4456.69107,0.01621
4458.61954,0.01653
4460.54801,0.01508
4462.47648,0.01288
4464.40495,0.01184
4466.33341,0.01131
4468.26188,0.01026
4470.19035,0.00797
4472.11882,0.00611
4474.04729,0.00698
4475.97576,0.00942
4477.90423,0.01075
4479.83270,0.01069
4481.76116,0.01433
4483.68963,0.02041
4485.61810,0.01690
4487.54657,0.00345
4489.47504,-0.00442
4491.40351,0.00449
4493.33198,0.02023
4495.26044,0.02504
4497.18891,0.02065
4499.11738,0.01629
4501.04585,0.01518
4502.97432,0.01777
4504.90279,0.01843
4506.83126,0.01463
4508.75973,0.00960
4510.68819,0.00568
4512.61666,0.00627
4514.54513,0.01047
4516.47360,0.01398
4518.40207,0.01623
4520.33054,0.01702
4522.25901,0.01688
4524.18747,0.01572
4526.11594,0.01091
4528.04441,0.00599
4529.97288,0.00550
4531.90135,0.00467
4533.82982,0.00151
4535.75829,-0.00030
4537.68676,-0.00009
4539.61522,0.00132
4541.54369,0.00207
4543.47216,0.00265
4545.40063,0.00510
4547.32910,0.00665
4549.25757,0.00561
4551.18604,0.00456
4553.11450,0.00432
4555.04297,0.00480
4556.97144,0.00837
4558.89991,0.01356
4560.82838,0.01522
4562.75685,0.01515
4564.68532,0.01445
4566.61378,0.00905
4568.54225,0.00324
4570.47072,0.00418
4572.39919,0.01066
4574.32766,0.01715
4576.25613,0.01916
4578.18460,0.01732
4580.11307,0.01534
4582.04153,0.01277
4583.97000,0.00663
4585.89847,0.00039
4587.82694,0.00051
4589.75541,0.00317
4591.68388,0.00033
4593.61235,-0.00274
4595.54081,-0.00096
4597.46928,-0.00138
4599.39775,-0.00211
4601.32622,0.00256
4603.25469,0.00557
4605.18316,0.00314
4607.11163,0.00098
4609.04010,-0.00012
4610.96856,-0.00553
4612.89703,-0.01110
4614.82550,-0.00524
4616.75397,0.00717
4618.68244,0.01343
4620.61091,0.01255
4622.53938,0.00466
4624.46784,-0.00526
4626.39631,-0.00697
4628.32478,-0.00055
4630.25325,0.00828
4632.18172,0.01179
4634.11019,0.01099
4636.03866,0.01446
4637.96713,0.01586
4639.89559,0.00725
4641.82406,-0.00245
4643.75253,-0.00385
4645.68100,-0.00129
4647.60947,0.00471
4649.53794,0.01441
4651.46641,0.01538
4653.39487,0.00636
4655.32334,-0.00073
4657.25181,-0.00052
4659.18028,0.00402
4661.10875,0.00841
4663.03722,0.00655
4664.96569,-0.00437
4666.89416,-0.01028
4668.82262,-0.00359
4670.75109,0.00448
4672.67956,0.00939
4674.60803,0.00786
4676.53650,-0.00018
4678.46497,-0.00128
4680.39344,0.00538
4682.32190,0.00910
4684.25037,0.00858
4686.17884,0.00648
4688.10731,0.00696
4690.03578,0.01151
4691.96425,0.01540
4693.89272,0.01701
4695.82119,0.01751
4697.74965,0.01497
4699.67812,0.00649
4701.60659,-0.00473
4703.53506,-0.01279
4705.46353,-0.01709
4707.39200,-0.01641
4709.32047,-0.00815
4711.24893,0.00217
4713.17740,0.00424
4715.10587,-0.00201
4717.03434,-0.00331
4718.96281,0.00165
4720.89128,-0.00005
4722.81975,-0.00351
4724.74821,0.00065
4726.67668,0.00470
4728.60515,0.00500
4730.53362,0.00502
4732.46209,0.00389
4734.39056,0.00452
4736.31903,0.00868
4738.24750,0.00852
4740.17596,0.00376
4742.10443,0.00195
4744.03290,0.00207
4745.96137,0.00223
4747.88984,0.00363
4749.81831,0.00621
4751.74678,0.00888
4753.67524,0.00673
4755.60371,0.00080
4757.53218,-0.00244
4759.46065,-0.00645
4761.38912,-0.01095
4763.31759,-0.00524
4765.24606,0.00277
4767.17453,-0.00212
4769.10299,-0.00785
4771.03146,-0.00348
4772.95993,0.00069
4774.88840,0.00015
4776.81687,-0.00286
4778.74534,-0.00739
4780.67381,-0.00848
4782.60227,-0.00095
4784.53074,0.01352
4786.45921,0.02158
4788.38768,0.01679
4790.31615,0.01137
4792.24462,0.00998
4794.17309,0.00722
4796.10156,0.00318
4798.03002,0.00144
4799.95849,0.00550
4801.88696,0.01172
4803.81543,0.01381
4805.74390,0.01066
4807.67237,0.00560
4809.60084,-0.00024
4811.52930,-0.00695
4813.45777,-0.00612
4815.38624,0.00150
4817.31471,0.00151
4819.24318,-0.00606
4821.17165,-0.00975
4823.10012,-0.00842
4825.02859,-0.00790
4826.95705,-0.00610
4828.88552,-0.00098
4830.81399,0.00237
4832.74246,0.00492
4834.67093,0.00612
4836.59940,0.00064
4838.52787,-0.00391
4840.45633,0.00047
4842.38480,0.00635
4844.31327,0.00615
4846.24174,0.00116
4848.17021,-0.00137
4850.09868,0.00320
4852.02715,0.00989
4853.95562,0.01409
4855.88408,0.01552
4857.81255,0.01360
4859.74102,0.01143
4861.66949,0.01163
4863.59796,0.01136
4865.52643,0.00843
4867.45490,0.00558
4869.38336,0.00945
4871.31183,0.01883
4873.24030,0.02083
4875.16877,0.01238
4877.09724,0.00497
4879.02571,0.00149
4880.95418,-0.00313
4882.88265,-0.00695
4884.81111,-0.00560
4886.73958,-0.00314
4888.66805,-0.00341
4890.59652,-0.00139
4892.52499,0.00163
4894.45346,0.00438
4896.38193,0.01010
4898.31039,0.01208
4900.23886,0.01011
4902.16733,0.00493
4904.09580,-0.00655
4906.02427,-0.00716
4907.95274,0.00827
4909.88121,0.01772
4911.80967,0.01414
4913.73814,0.00653
4915.66661,0.00346
4917.59508,0.01066
4919.52355,0.02090
4921.45202,0.02019
4923.38049,0.00482
4925.30896,-0.00890
4927.23742,-0.00696
4929.16589,-0.00344
4931.09436,-0.00463
4933.02283,-0.00031
4934.95130,0.00747
4936.87977,0.00948
4938.80824,-0.00058
4940.73670,-0.01420
4942.66517,-0.01304
4944.59364,0.00672
4946.52211,0.03095
4948.45058,0.03871
4950.37905,0.02551
4952.30752,0.01196
4954.23599,0.01224
4956.16445,0.01262
4958.09292,0.00370
4960.02139,-0.00145
4961.94986,0.00296
4963.87833,0.00454
4965.80680,-0.00254
4967.73527,-0.00705
4969.66373,-0.00414
4971.59220,0.00030
4973.52067,0.00459
4975.44914,0.00343
4977.37761,-0.00169
4979.30608,0.00023
4981.23455,0.00617
4983.16302,0.01033
4985.09148,0.01438
4987.01995,0.01889
4988.94842,0.02348
4990.87689,0.02652
4992.80536,0.02842
4994.73383,0.03099
4996.66230,0.03188
4998.59076,0.02889
5000.51923,0.02202
5002.44770,0.01266
5004.37617,0.00634
5006.30464,0.00532
5008.23311,0.00648
5010.16158,0.01111
5012.09005,0.01563
5014.01851,0.00801
5015.94698,-0.00168
5017.87545,0.00150
5019.80392,0.00573
5021.73239,0.00701
5023.66086,0.01163
5025.58933,0.01596
5027.51779,0.01388
5029.44626,0.00323
5031.37473,-0.00274
5033.30320,0.00522
5035.23167,0.01274
5037.16014,0.01378
5039.08861,0.01689
5041.01708,0.01587
5042.94554,0.00673
5044.87401,0.00623
5046.80248,0.01461
5048.73095,0.01400
5050.65942,0.01047
5052.58789,0.01742
5054.51636,0.02515
5056.44482,0.02454
5058.37329,0.02057
5060.30176,0.01912
5062.23023,0.02035
5064.15870,0.01796
5066.08717,0.01205
5068.01564,0.01483
5069.94410,0.02574
5071.87257,0.03100
5073.80104,0.02768
5075.72951,0.02352
5077.65798,0.02720
5079.58645,0.03204
5081.51492,0.02622
5083.44339,0.01427
5085.37185,0.00454
5087.30032,0.00742
5089.22879,0.02086
5091.15726,0.02678
5093.08573,0.02069
5095.01420,0.01221
5096.94267,0.00735
5098.87113,0.00199
5100.79960,-0.00414
5102.72807,-0.00648
5104.65654,-0.00543
5106.58501,0.00167
5108.51348,0.01341
5110.44195,0.01833
5112.37042,0.01204
5114.29888,0.00604
5116.22735,0.00792
5118.15582,0.01066
5120.08429,0.01533
5122.01276,0.03013
5123.94123,0.04437
5125.86970,0.04636
5127.79816,0.04267
5129.72663,0.03590
5131.65510,0.02855
5133.58357,0.03347
5135.51204,0.04398
5137.44051,0.04121
5139.36898,0.02740
5141.29745,0.01490
5143.22591,0.01305
5145.15438,0.02010
5147.08285,0.02223
5149.01132,0.01753
5150.93979,0.01322
5152.86826,0.01435
5154.79673,0.02387
5156.72519,0.03345
5158.65366,0.03228
5160.58213,0.02283
5162.51060,0.01413
5164.43907,0.00943
5166.36754,0.01053
5168.29601,0.02269
5170.22448,0.03258
5172.15294,0.02356
5174.08141,0.00721
5176.00988,0.00085
5177.93835,0.00510
5179.86682,0.00514
5181.79529,0.00345
5183.72376,0.01471
5185.65222,0.02857
5187.58069,0.03303
5189.50916,0.02953
5191.43763,0.02284
5193.36610,0.02053
5195.29457,0.02142
5197.22304,0.01772
5199.15151,0.01133
5201.07997,0.01759
5203.00844,0.03535
5204.93691,0.04473
5206.86538,0.03958
5208.79385,0.02794
5210.72232,0.01551
5212.65079,0.01169
5214.57925,0.02053
5216.50772,0.02762
5218.43619,0.02479
5220.36466,0.02293
5222.29313,0.01942
5224.22160,0.01203
5226.15007,0.01861
5228.07854,0.02861
5230.00700,0.02836
5231.93547,0.03550
5233.86394,0.04342
5235.79241,0.03635
5237.72088,0.02549
5239.64935,0.02544
5241.57782,0.04595
5243.50628,0.07363
5245.43475,0.07402
5247.36322,0.05265
5249.29169,0.04094
5251.22016,0.04538
5253.14863,0.05738
5255.07710,0.06001
5257.00556,0.04660
5258.93403,0.03273
5260.86250,0.02494
5262.79097,0.02675
5264.71944,0.04089
5266.64791,0.05493
5268.57638,0.06346
5270.50485,0.06778
5272.43331,0.06278
5274.36178,0.04917
5276.29025,0.03959
5278.21872,0.04289
5280.14719,0.05156
5282.07566,0.05682
5284.00413,0.05414
5285.93259,0.03734
5287.86106,0.01811
5289.78953,0.01189
5291.71800,0.01615
5293.64647,0.02554
5295.57494,0.03282
5297.50341,0.03299
5299.43188,0.03445
5301.36034,0.03777
5303.28881,0.03414
5305.21728,0.03008
5307.14575,0.03687
5309.07422,0.04863
5311.00269,0.05007
5312.93116,0.03954
5314.85962,0.03210
5316.78809,0.03564
5318.71656,0.03308
5320.64503,0.01913
5322.57350,0.01477
5324.50197,0.02521
5326.43044,0.03780
5328.35891,0.04273
5330.28737,0.03510
5332.21584,0.02300
5334.14431,0.01721
5336.07278,0.02715
5338.00125,0.04705
5339.92972,0.05060
5341.85819,0.04671
5343.78665,0.05037
5345.71512,0.05166
5347.64359,0.05062
5349.57206,0.05217
5351.50053,0.05938
5353.42900,0.07072
5355.35747,0.07519
5357.28594,0.06874
5359.21440,0.05293
5361.14287,0.03750
5363.07134,0.03458
5364.99981,0.04209
5366.92828,0.04995
5368.85675,0.04747
5370.78522,0.03503
5372.71368,0.02037
5374.64215,0.00029
5376.57062,-0.01432
5378.49909,-0.00665
5380.42756,0.01063
5382.35603,0.02948
5384.28450,0.04553
5386.21297,0.04612
5388.14143,0.03283
5390.06990,0.02841
5391.99837,0.04404
5393.92684,0.05901
5395.85531,0.05871
5397.78378,0.05968
5399.71225,0.06471
5401.64071,0.06706
5403.56918,0.06804
5405.49765,0.06979
5407.42612,0.06208
5409.35459,0.04332
5411.28306,0.03575
5413.21153,0.03936
5415.13999,0.03681
5417.06846,0.03122
5418.99693,0.02558
5420.92540,0.02027
5422.85387,0.01664
5424.78234,0.01205
5426.71081,0.01007
5428.63928,0.01961
5430.56774,0.03269
5432.49621,0.03814
5434.42468,0.03695
5436.35315,0.03410
5438.28162,0.02999
5440.21009,0.02237
5442.13856,0.02366
5444.06702,0.03437
5445.99549,0.03936
5447.92396,0.04543
5449.85243,0.05599
5451.78090,0.05039
5453.70937,0.02966
5455.63784,0.02184
5457.56631,0.04657
5459.49477,0.08237
5461.42324,0.08757
5463.35171,0.06036
5465.28018,0.04049
5467.20865,0.04324
5469.13712,0.05251
5471.06559,0.05724
5472.99405,0.05609
5474.92252,0.05362
5476.85099,0.05734
5478.77946,0.05901
5480.70793,0.04949
5482.63640,0.03500
5484.56487,0.03181
5486.49334,0.04322
5488.42180,0.04575
5490.35027,0.03319
5492.27874,0.03260
5494.20721,0.04182
5496.13568,0.03512
5498.06415,0.02405
5499.99262,0.03199
5501.92108,0.04602
5503.84955,0.04421
5505.77802,0.03342
5507.70649,0.02688
5509.63496,0.02771
5511.56343,0.03017
5513.49190,0.03295
5515.42037,0.03939
5517.34883,0.04083
5519.27730,0.04218
5521.20577,0.05749
5523.13424,0.06958
5525.06271,0.06068
5526.99118,0.04095
5528.91965,0.02216
5530.84811,0.01809
5532.77658,0.02902
5534.70505,0.03462
5536.63352,0.03181
5538.56199,0.03311
5540.49046,0.04504
5542.41893,0.05650
5544.34740,0.05384
5546.27586,0.04046
5548.20433,0.02293
5550.13280,0.01549
5552.06127,0.02047
5553.98974,0.02309
5555.91821,0.02852
5557.84668,0.04123
5559.77514,0.04498
5561.70361,0.04389
5563.63208,0.05402
5565.56055,0.06229
5567.48902,0.04841
5569.41749,0.02640
5571.34596,0.02242
5573.27443,0.03179
5575.20289,0.03661
5577.13136,0.04121
5579.05983,0.05684
5580.98830,0.07639
5582.91677,0.08085
5584.84524,0.07117
5586.77371,0.06036
5588.70217,0.05032
5590.63064,0.03953
5592.55911,0.03745
5594.48758,0.04933
5596.41605,0.05861
5598.34452,0.05506
5600.27299,0.04942
5602.20145,0.04703
5604.12992,0.04831
5606.05839,0.05327
5607.98686,0.04950
5609.91533,0.04122
5611.84380,0.04382
5613.77227,0.04620
5615.70074,0.04768
5617.62920,0.05825
5619.55767,0.06707
5621.48614,0.06544
5623.41461,0.06057
5625.34308,0.06660
5627.27155,0.07840
5629.20002,0.07045
5631.12848,0.04732
5633.05695,0.02756
5634.98542,0.01932
5636.91389,0.03848
5638.84236,0.07312
5640.77083,0.08834
5642.69930,0.07356
5644.62777,0.03623
5646.55623,0.00937
5648.48470,0.01969
5650.41317,0.03828
5652.34164,0.03590
5654.27011,0.03133
5656.19858,0.04752
5658.12705,0.06895
5660.05551,0.07029
5661.98398,0.05190
5663.91245,0.03528
5665.84092,0.03645
5667.76939,0.04696
5669.69786,0.05155
5671.62633,0.04788
5673.55480,0.03315
5675.48326,0.01178
5677.41173,0.01457
5679.34020,0.05055
5681.26867,0.08230
5683.19714,0.08427
5685.12561,0.06230
5687.05408,0.03761
5688.98254,0.03643
5690.91101,0.04950
5692.83948,0.05505
5694.76795,0.06671
5696.69642,0.08164
5698.62489,0.06761
5700.55336,0.03217
5702.48183,0.01434
5704.41029,0.01962
5706.33876,0.02180
5708.26723,0.01440
5710.19570,0.01468
5712.12417,0.02479
5714.05264,0.03854
5715.98111,0.04901
5717.90957,0.05155
5719.83804,0.06419
5721.76651,0.08466
5723.69498,0.09563
5725.62345,0.10117
5727.55192,0.09086
5729.48039,0.06128
5731.40886,0.04799
5733.33732,0.06017
5735.26579,0.07036
5737.19426,0.07164
5739.12273,0.06990
5741.05120,0.05366
5742.97967,0.03786
5744.90814,0.04736
5746.83660,0.06908
5748.76507,0.07510
5750.69354,0.06470
5752.62201,0.06112
5754.55048,0.06722
5756.47895,0.06100
5758.40742,0.03953
5760.33588,0.01824
5762.26435,0.00442
5764.19282,0.00735
5766.12129,0.03321
5768.04976,0.05559
5769.97823,0.04966
5771.90670,0.03011
5773.83517,0.03242
5775.76363,0.05976
5777.69210,0.07481
5779.62057,0.06447
5781.54904,0.05400
5783.47751,0.06044
5785.40598,0.07181
5787.33445,0.05308
5789.26291,0.03005
5791.19138,0.05411
5793.11985,0.08634
5795.04832,0.09458
5796.97679,0.08846
5798.90526,0.06412
5800.83373,0.04097
5802.76220,0.02408
5804.69066,0.00020
5806.61913,-0.00098
5808.54760,0.03307
5810.47607,0.06620
5812.40454,0.07700
5814.33301,0.07250
5816.26148,0.05366
5818.18994,0.03459
5820.11841,0.04452
5822.04688,0.06840
5823.97535,0.07613
5825.90382,0.07100
5827.83229,0.07007
5829.76076,0.07417
5831.68923,0.07687
5833.61769,0.07936
5835.54616,0.07151
5837.47463,0.06287
5839.40310,0.06513
5841.33157,0.05858
5843.26004,0.04014
5845.18851,0.02625
5847.11697,0.01832
5849.04544,0.00940
5850.97391,0.00678
5852.90238,0.01764
5854.83085,0.03228
5856.75932,0.03601
5858.68779,0.03281
5860.61626,0.05248
5862.54472,0.08892
5864.47319,0.09775
5866.40166,0.07840
5868.33013,0.06144
5870.25860,0.05310
5872.18707,0.04387
5874.11554,0.03468
5876.04400,0.04014
5877.97247,0.06187
5879.90094,0.07947
5881.82941,0.08414
5883.75788,0.08109
5885.68635,0.06894
5887.61482,0.06041
5889.54329,0.07206
5891.47175,0.08432
5893.40022,0.07944
5895.32869,0.06469
5897.25716,0.04452
5899.18563,0.02696
5901.11410,0.02681
5903.04257,0.04342
5904.97103,0.05853
5906.89950,0.07168
5908.82797,0.09125
5910.75644,0.09394
5912.68491,0.07498
5914.61338,0.06296
5916.54185,0.05947
5918.47032,0.06061
5920.39878,0.06386
5922.32725,0.05521
5924.25572,0.04192
5926.18419,0.03392
5928.11266,0.03825
5930.04113,0.05567
5931.96960,0.05350
5933.89806,0.02660
5935.82653,0.02491
5937.75500,0.04261
5939.68347,0.03705
5941.61194,0.03648
5943.54041,0.06531
5945.46888,0.09160
5947.39734,0.09996
5949.32581,0.08885
5951.25428,0.07267
5953.18275,0.06333
5955.11122,0.04830
5957.03969,0.04032
5958.96816,0.03238
5960.89663,0.01450
5962.82509,0.01895
5964.75356,0.01383
5966.68203,-0.02251
5968.61050,-0.01929
5970.53897,0.03143
5972.46744,0.06411
5974.39591,0.05910
5976.32437,0.03969
5978.25284,0.03117
5980.18131,0.03425
5982.10978,0.03861
5984.03825,0.03762
5985.96672,0.02810
5987.89519,0.02441
5989.82366,0.03253
5991.75212,0.03878
5993.68059,0.04084
5995.60906,0.04297
5997.53753,0.04071
5999.46600,0.03366
6001.39447,0.03045
6003.32294,0.04021
6005.25140,0.07003
6007.17987,0.10557
6009.10834,0.11769
6011.03681,0.10139
6012.96528,0.07655
6014.89375,0.06602
6016.82222,0.06807
6018.75069,0.05203
6020.67915,0.01309
6022.60762,-0.01116
6024.53609,0.00999
6026.46456,0.06278
6028.39303,0.10195
6030.32150,0.12592
6032.24997,0.14836
6034.17843,0.13420
6036.10690,0.09414
6038.03537,0.06250
6039.96384,0.03087
6041.89231,0.01133
6043.82078,0.02053
6045.74925,0.04227
6047.67772,0.05623
6049.60618,0.05338
6051.53465,0.03888
6053.46312,0.03948
6055.39159,0.05454
6057.32006,0.05606
6059.24853,0.07499
6061.17700,0.11903
6063.10546,0.12065
6065.03393,0.06855
6066.96240,0.02138
6068.89087,0.00106
6070.81934,-0.00965
6072.74781,-0.01077
6074.67628,0.00756
6076.60475,0.02422
6078.53321,0.00738
6080.46168,-0.02165
6082.39015,-0.02099
6084.31862,-0.00489
6086.24709,0.01142
6088.17556,0.03737
6090.10403,0.06583
6092.03249,0.08565
6093.96096,0.09002
6095.88943,0.09272
6097.81790,0.10788
6099.74637,0.11550
6101.67484,0.09745
6103.60331,0.06597
6105.53177,0.04138
6107.46024,0.02377
6109.38871,0.02572
6111.31718,0.07662
6113.24565,0.12343
6115.17412,0.10860
6117.10259,0.07380
6119.03106,0.06252
6120.95952,0.06885
6122.88799,0.08038
6124.81646,0.07827
6126.74493,0.05318
6128.67340,0.02779
6130.60187,0.03086
6132.53034,0.06749
6134.45880,0.09495
6136.38727,0.08070
6138.31574,0.05056
6140.24421,0.02324
6142.17268,0.00690
6144.10115,0.00989
6146.02962,0.01994
6147.95809,0.03792
6149.88655,0.07114
6151.81502,0.11194
6153.74349,0.13507
6155.67196,0.12723
6157.60043,0.10592
6159.52890,0.08220
6161.45737,0.06687
6163.38583,0.08441
6165.31430,0.11246
6167.24277,0.10211
6169.17124,0.05202
6171.09971,-0.00828
6173.02818,-0.04127
6174.95665,-0.04511
6176.88512,-0.01250
6178.81358,0.05569
6180.74205,0.08516
6182.67052,0.06728
6184.59899,0.07531
6186.52746,0.10716
6188.45593,0.10686
6190.38440,0.10160
6192.31286,0.11420
6194.24133,0.09379
6196.16980,0.06183
6198.09827,0.05872
6200.02674,0.08009
6201.95521,0.11279
6203.88368,0.11243
6205.81215,0.07834
6207.74061,0.05742
6209.66908,0.05026
6211.59755,0.04840
6213.52602,0.06788
6215.45449,0.09257
6217.38296,0.08813
6219.31143,0.06552
6221.23989,0.04082
6223.16836,0.02581
6225.09683,0.04856
6227.02530,0.08156
6228.95377,0.07944
6230.88224,0.06901
6232.81071,0.05490
6234.73918,0.01283
6236.66764,-0.00724
6238.59611,0.00157
6240.52458,-0.01541
6242.45305,-0.03753
6244.38152,-0.03074
6246.30999,-0.02133
6248.23846,-0.01705
6250.16692,-0.01754
6252.09539,-0.01922
6254.02386,-0.00644
6255.95233,0.01422
6257.88080,0.04851
6259.80927,0.08605
6261.73774,0.09213
6263.66621,0.08930
6265.59467,0.11401
6267.52314,0.12725
6269.45161,0.10378
6271.38008,0.08200
6273.30855,0.06803
6275.23702,0.04537
6277.16549,0.03899
6279.09395,0.06875
6281.02242,0.10792
6282.95089,0.11768
6284.87936,0.11749
6286.80783,0.14113
6288.73630,0.14070
6290.66477,0.09705
6292.59323,0.06319
6294.52170,0.04900
6296.45017,0.03872
6298.37864,0.02739
6300.30711,0.01804
6302.23558,0.02974
6304.16405,0.05759
6306.09252,0.04883
6308.02098,-0.00482
6309.94945,-0.01892
6311.87792,0.04576
6313.80639,0.11989
6315.73486,0.13660
6317.66333,0.10509
6319.59180,0.07232
6321.52026,0.05698
6323.44873,0.05354
6325.37720,0.04104
6327.30567,0.01829
6329.23414,0.01805
6331.16261,0.05677
6333.09108,0.10374
6335.01955,0.10661
6336.94801,0.07453
6338.87648,0.06419
6340.80495,0.08634
6342.73342,0.11446
6344.66189,0.13658
6346.59036,0.13996
6348.51883,0.10967
6350.44729,0.05984
6352.37576,0.01833
6354.30423,0.00265
6356.23270,0.02028
6358.16117,0.06521
6360.08964,0.10185
6362.01811,0.10035
6363.94658,0.07476
6365.87504,0.03674
6367.80351,-0.00851
6369.73198,-0.02610
6371.66045,-0.00731
6373.58892,0.02484
6375.51739,0.05605
6377.44586,0.06787
6379.37432,0.05641
6381.30279,0.05669
6383.23126,0.08959
6385.15973,0.11769
6387.08820,0.11688
6389.01667,0.10039
6390.94514,0.07671
6392.87361,0.07626
6394.80207,0.12002
6396.73054,0.15045
6398.65901,0.12219
6400.58748,0.06655
6402.51595,0.04495
6404.44442,0.06330
6406.37289,0.08746
6408.30135,0.11573
6410.22982,0.16363
6412.15829,0.16583
6414.08676,0.08683
6416.01523,0.02228
6417.94370,0.03052
6419.87217,0.07007
6421.80064,0.09501
6423.72910,0.10039
6425.65757,0.09121
6427.58604,0.08100
6429.51451,0.07753
6431.44298,0.05784
6433.37145,0.04272
6435.29992,0.08137
6437.22838,0.12500
6439.15685,0.11448
6441.08532,0.07955
6443.01379,0.04679
6444.94226,0.03209
6446.87073,0.03464
6448.79920,0.03991
6450.72766,0.03114
6452.65613,0.01028
6454.58460,0.01790
6456.51307,0.04178
6458.44154,0.02949
6460.37001,-0.00437
6462.29848,-0.00445
6464.22695,0.04304
6466.15541,0.06856
6468.08388,0.03278
6470.01235,0.00787
6471.94082,0.00747
6473.86929,-0.02063
6475.79776,-0.03103
6477.72623,0.00912
6479.65469,0.03644
6481.58316,0.03604
6483.51163,0.03927
6485.44010,0.03660
6487.36857,0.03167
6489.29704,0.03911
6491.22551,0.04484
6493.15398,0.04133
6495.08244,0.03952
6497.01091,0.05277
6498.93938,0.06753
6500.86785,0.05587
6502.79632,0.03921
6504.72479,0.04198
6506.65326,0.04534
6508.58172,0.02870
6510.51019,-0.00891
6512.43866,-0.02300
6514.36713,0.01890
6516.29560,0.04680
6518.22407,0.03381
6520.15254,0.03611
6522.08101,0.06007
6524.00947,0.10371
6525.93794,0.12181
6527.86641,0.06215
6529.79488,0.01223
6531.72335,0.03367
6533.65182,0.07095
6535.58029,0.07172
6537.50875,0.04777
6539.43722,0.02513
6541.36569,0.00227
6543.29416,-0.00360
6545.22263,0.02095
6547.15110,0.03731
6549.07957,0.04361
6551.00804,0.07466
6552.93650,0.10542
6554.86497,0.09365
6556.79344,0.04947
6558.72191,-0.00636
6560.65038,-0.05769
6562.57885,-0.07505
6564.50732,-0.04815
6566.43578,-0.01636
6568.36425,0.00322
6570.29272,0.04286
6572.22119,0.08420
6574.14966,0.08348
6576.07813,0.06508
6578.00660,0.05064
6579.93507,0.03048
6581.86353,0.01085
6583.79200,0.01105
6585.72047,0.02575
6587.64894,0.04033
6589.57741,0.06857
6591.50588,0.12585
6593.43435,0.18814
6595.36281,0.19765
6597.29128,0.16495
6599.21975,0.14691
6601.14822,0.14462
6603.07669,0.12005
6605.00516,0.08394
6606.93363,0.04783
6608.86210,-0.00900
6610.79056,-0.04873
6612.71903,-0.01922
6614.64750,0.05619
6616.57597,0.11705
6618.50444,0.08224
6620.43291,-0.01311
6622.36138,-0.05099
6624.28984,-0.04166
6626.21831,-0.05812
6628.14678,-0.06436
6630.07525,-0.01660
6632.00372,0.05890
6633.93219,0.13047
6635.86066,0.13532
6637.78912,0.06203
6639.71759,-0.00196
6641.64606,-0.03476
6643.57453,-0.04330
6645.50300,-0.00043
6647.43147,0.06703
6649.35994,0.07025
6651.28841,0.02274
6653.21687,0.01667
6655.14534,0.04649
6657.07381,0.02206
6659.00228,-0.03294
6660.93075,-0.03803
6662.85922,0.00173
6664.78769,0.04802
6666.71615,0.06405
6668.64462,0.06129
6670.57309,0.08029
6672.50156,0.07886
6674.43003,0.02239
6676.35850,0.01505
6678.28697,0.09785
6680.21544,0.15820
6682.14390,0.13225
6684.07237,0.08440
6686.00084,0.06702
6687.92931,0.06351
6689.85778,0.07974
6691.78625,0.11175
6693.71472,0.12824
6695.64318,0.10937
6697.57165,0.07020
6699.50012,0.06306
6701.42859,0.07766
6703.35706,0.09533
6705.28553,0.13360
6707.21400,0.13820
6709.14247,0.09022
6711.07093,0.07023
6712.99940,0.07428
6714.92787,0.06457
6716.85634,0.06533
6718.78481,0.08370
6720.71328,0.08259
6722.64175,0.06114
6724.57021,0.04893
6726.49868,0.05189
6728.42715,0.06161
6730.35562,0.06827
6732.28409,0.08453
6734.21256,0.09934
6736.14103,0.06766
6738.06950,0.02095
6739.99796,0.00723
6741.92643,0.02697
6743.85490,0.05352
6745.78337,0.05736
6747.71184,0.03564
6749.64031,0.00971
6751.56878,0.01724
6753.49724,0.05074
6755.42571,0.05510
6757.35418,0.03585
6759.28265,0.03130
6761.21112,0.02837
6763.13959,0.01492
6765.06806,0.01363
6766.99653,0.01950
6768.92499,0.03365
6770.85346,0.06890
6772.78193,0.07153
6774.71040,0.02855
6776.63887,0.01729
6778.56734,0.03669
6780.49581,0.04319
6782.42427,0.03459
6784.35274,0.01807
6786.28121,0.00910
6788.20968,0.01752
6790.13815,0.05225
6792.06662,0.06429
6793.99509,0.03350
6795.92355,0.04504
6797.85202,0.07781
6799.78049,0.07935
6801.70896,0.07838
6803.63743,0.07183
6805.56590,0.06545
6807.49437,0.08309
6809.42284,0.09267
6811.35130,0.08526
6813.27977,0.08936
6815.20824,0.08120
6817.13671,0.03807
6819.06518,0.02038
6820.99365,0.04032
6822.92212,0.05423
6824.85058,0.04975
6826.77905,0.03280
6828.70752,0.00346
6830.63599,-0.01134
6832.56446,0.01917
6834.49293,0.06949
6836.42140,0.06117
6838.34987,-0.02567
6840.27833,-0.06806
6842.20680,-0.01715
6844.13527,0.02676
6846.06374,0.03557
6847.99221,0.06345
6849.92068,0.09696
6851.84915,0.10814
6853.77761,0.11368
6855.70608,0.09562
6857.63455,0.05466
6859.56302,0.03414
6861.49149,0.03099
6863.41996,0.02113
6865.34843,0.01536
6867.27690,0.05332
6869.20536,0.11014
6871.13383,0.13994
6873.06230,0.12600
6874.99077,0.08158
6876.91924,0.07560
6878.84771,0.06665
6880.77618,-0.00301
6882.70464,-0.01982
6884.63311,0.01496
6886.56158,0.02549
6888.49005,0.04601
6890.41852,0.09276
6892.34699,0.10812
6894.27546,0.09023
6896.20393,0.05731
6898.13239,0.00843
6900.06086,-0.01668
6901.98933,-0.01317
6903.91780,-0.00652
6905.84627,-0.00535
6907.77474,0.01984
6909.70321,0.09163
6911.63167,0.14387
6913.56014,0.10936
6915.48861,0.04838
6917.41708,0.03376
6919.34555,0.05288
6921.27402,0.08637
6923.20249,0.11831
6925.13096,0.10907
6927.05942,0.04952
6928.98789,0.02126
6930.91636,0.08638
6932.84483,0.09978
6934.77330,0.01289
6936.70177,-0.00924
6938.63024,0.05571
6940.55870,0.12363
6942.48717,0.19186
6944.41564,0.25565
6946.34411,0.23769
6948.27258,0.10378
6950.20105,-0.05908
6952.12952,-0.11100
6954.05799,-0.05491
6955.98645,-0.00661
6957.91492,0.01241
6959.84339,0.04194
6961.77186,0.10774
6963.70033,0.15566
6965.62880,0.13251
6967.55727,0.08986
6969.48573,0.06808
6971.41420,0.04100
6973.34267,-0.00251
6975.27114,-0.05238
6977.19961,-0.06371
6979.12808,-0.00109
6981.05655,0.08970
6982.98501,0.14172
6984.91348,0.16056
6986.84195,0.18085
6988.77042,0.17151
6990.69889,0.10263
6992.62736,0.04446
6994.55583,0.04463
6996.48430,0.07178
6998.41276,0.10782
7000.34123,0.11686
7002.26970,0.09784
7004.19817,0.08374
7006.12664,0.01368
7008.05511,-0.07333
7009.98358,-0.06364
7011.91204,0.00086
7013.84051,0.05121
7015.76898,0.09286
7017.69745,0.14613
7019.62592,0.17179
7021.55439,0.13152
7023.48286,0.06166
7025.41133,0.04899
7027.33979,0.06090
7029.26826,0.01819
7031.19673,-0.01300
7033.12520,-0.04687
7035.05367,-0.11791
7036.98214,-0.09803
7038.91061,0.01295
7040.83907,0.05363
7042.76754,-0.01322
7044.69601,-0.02487
7046.62448,0.01219
7048.55295,0.03737
7050.48142,0.09610
7052.40989,0.13746
7054.33836,0.10244
7056.26682,0.04889
7058.19529,0.06007
7060.12376,0.11574
7062.05223,0.14997
7063.98070,0.16272
7065.90917,0.19100
7067.83764,0.22239
7069.76610,0.20447
7071.69457,0.12147
7073.62304,0.00658
7075.55151,-0.10782
7077.47998,-0.14932
7079.40845,-0.06844
7081.33692,0.03186
7083.26539,0.01491
7085.19385,-0.06481
7087.12232,-0.12254
7089.05079,-0.10730
7090.97926,-0.02061
7092.90773,0.10346
7094.83620,0.14733
7096.76467,0.00888
7098.69313,-0.19572
7100.62160,-0.19504
7102.55007,-0.06603
7104.47854,-0.03239
7106.40701,-0.06968
7108.33548,-0.04792
7110.26395,-0.00983
7112.19242,-0.00335
7114.12088,-0.03807
7116.04935,-0.08074
7117.97782,-0.02628
7119.90629,0.06484
7121.83476,0.06529
7123.76323,0.04575
7125.69170,0.06354
7127.62016,0.08241
7129.54863,0.07516
7131.47710,0.05912
7133.40557,0.05035
7135.33404,0.05928
7137.26251,0.06856
7139.19098,0.06189
7141.11944,0.08888
7143.04791,0.12435
7144.97638,0.05639
7146.90485,-0.05664
7148.83332,-0.06605
7150.76179,-0.02948
7152.69026,-0.06729
7154.61873,-0.07782
7156.54719,0.04847
7158.47566,0.12184
7160.40413,0.06979
7162.33260,0.02326
7164.26107,0.01336
7166.18954,0.00904
7168.11801,0.06240
7170.04647,0.14475
7171.97494,0.20375
7173.90341,0.28105
7175.83188,0.30941
7177.76035,0.20305
7179.68882,0.08349
7181.61729,0.04424
7183.54576,0.03526
7185.47422,0.01565
7187.40269,0.01688
7189.33116,0.08535
7191.25963,0.20870
7193.18810,0.28814
7195.11657,0.32897
7197.04504,0.30276
7198.97350,0.15158
7200.90197,0.02769
7202.83044,0.05760
7204.75891,0.15189
7206.68738,0.10857
7208.61585,-0.00392
7210.54432,-0.06518
7212.47279,-0.07205
7214.40125,-0.07194
7216.32972,-0.10733
7218.25819,-0.15319
7220.18666,-0.13368
7222.11513,-0.08879
7224.04360,-0.03234
7225.97207,0.06112
7227.90053,0.18375
7229.82900,0.34368
7231.75747,0.40477
7233.68594,0.29087
7235.61441,0.18326
7237.54288,0.06034
7239.47135,-0.05545
7241.39982,0.01670
7243.32828,0.16978
7245.25675,0.16140
7247.18522,0.11527
7249.11369,0.10747
7251.04216,0.07638
7252.97063,-0.01498
7254.89910,-0.06030
7256.82756,0.01457
7258.75603,0.17166
7260.68450,0.30060
7262.61297,0.23619
7264.54144,0.04339
7266.46991,-0.05200
7268.39838,-0.01976
7270.32685,-0.01039
7272.25531,-0.06602
7274.18378,-0.08832
7276.11225,-0.08788
7278.04072,-0.04538
7279.96919,0.05043
7281.89766,0.07897
7283.82613,0.06770
7285.75459,0.09145
7287.68306,0.08890
7289.61153,0.03687
7291.54000,0.00881
7293.46847,0.00625
7295.39694,0.00865
7297.32541,-0.01937
7299.25387,-0.09442
7301.18234,-0.08226
7303.11081,0.04584
7305.03928,0.13423
7306.96775,0.21940
7308.89622,0.39360
7310.82469,0.44238
7312.75316,0.35564
7314.68162,0.26141
7316.61009,0.12688
7318.53856,0.05637
7320.46703,0.09433
7322.39550,0.08513
7324.32397,0.05085
7326.25244,0.13027
7328.18090,0.24039
7330.10937,0.20309
7332.03784,0.11094
7333.96631,0.05763
7335.89478,-0.00506
7337.82325,-0.08784
7339.75172,-0.09295
7341.68019,0.06592
7343.60865,0.17399
7345.53712,0.17634
7347.46559,0.09551
7349.39406,-0.05296
7351.32253,-0.16119
7353.25100,-0.11549
7355.17947,0.02221
7357.10793,0.05940
7359.03640,-0.04395
7360.96487,-0.06702
7362.89334,-0.01352
7364.82181,0.01200
7366.75028,0.02839
7368.67875,0.05706
7370.60722,0.10293
7372.53568,0.16843
7374.46415,0.17780
7376.39262,0.08632
7378.32109,0.06346
7380.24956,0.05635
7382.17803,-0.03649
7384.10650,-0.08733
7386.03496,-0.07243
7387.96343,-0.12642
7389.89190,-0.13729
7391.82037,-0.02290
7393.74884,0.07909
7395.67731,0.09339
7397.60578,0.05654
7399.53425,-0.02617
7401.46271,-0.05988
7403.39118,0.02071
7405.31965,0.04594
7407.24812,-0.03985
7409.17659,-0.11286
7411.10506,-0.13098
7413.03353,-0.08032
7414.96199,-0.02610
7416.89046,-0.03244
7418.81893,0.03421
7420.74740,0.20344
7422.67587,0.23814
7424.60434,0.23553
7426.53281,0.26148
7428.46128,0.22758
7430.38974,0.11177
7432.31821,0.01803
7434.24668,0.03807
7436.17515,0.13732
7438.10362,0.20853
7440.03209,0.24349
7441.96056,0.24186
7443.88902,0.16494
7445.81749,0.09795
7447.74596,0.08750
7449.67443,0.00452
7451.60290,-0.09432
7453.53137,-0.03475
7455.45984,0.04181
7457.38831,0.09454
7459.31677,0.19494
7461.24524,0.22771
7463.17371,0.10314
7465.10218,0.01195
7467.03065,0.07080
7468.95912,0.13628
7470.88759,0.12373
7472.81605,0.06191
7474.74452,0.03286
7476.67299,0.10004
7478.60146,0.19080
7480.52993,0.22498
7482.45840,0.24421
7484.38687,0.22456
7486.31533,0.11567
7488.24380,-0.04644
7490.17227,-0.13912
7492.10074,-0.11644
7494.02921,-0.05568
7495.95768,0.01231
7497.88615,0.11424
