399.19301,0.06858
401.12148,0.09254
403.04995,0.11613
404.97842,0.12042
406.90689,0.21055
408.83536,0.33841
410.76382,0.31015
412.69229,0.13381
414.62076,0.02252
416.54923,-0.02072
418.47770,-0.05959
420.40617,-0.05534
422.33464,-0.03800
424.26311,-0.02169
426.19157,-0.01036
428.12004,-0.02228
430.04851,-0.00239
431.97698,0.08138
433.90545,0.14045
435.83392,0.12771
437.76239,0.11283
439.69085,0.09066
441.61932,0.05107
443.54779,0.06590
445.47626,0.13091
447.40473,0.13716
449.33320,0.05783
451.26167,-0.01959
453.19013,-0.02372
455.11860,0.03666
457.04707,0.10690
458.97554,0.12049
460.90401,0.07153
462.83248,0.03048
464.76095,0.05574
466.68942,0.12524
468.61788,0.17968
470.54635,0.19163
472.47482,0.14862
474.40329,0.10555
476.33176,0.12225
478.26023,0.10311
480.18870,0.05123
482.11716,0.02898
484.04563,0.04959
485.97410,0.08847
487.90257,0.11875
489.83104,0.10752
491.75951,0.08292
493.68798,0.08836
495.61645,0.07577
497.54491,0.00033
499.47338,-0.05049
501.40185,-0.00388
503.33032,0.06704
505.25879,0.09223
507.18726,0.09566
509.11573,0.08679
511.04419,0.06965
512.97266,0.05581
514.90113,0.06275
516.82960,0.09290
518.75807,0.10371
520.68654,0.08736
522.61501,0.07836
524.54348,0.08425
526.47194,0.07857
528.40041,0.05802
530.32888,0.06180
532.25735,0.09249
534.18582,0.10086
536.11429,0.07225
538.04276,0.03981
539.97122,0.02330
541.89969,0.02412
543.82816,0.02874
545.75663,0.02888
547.68510,0.04256
549.61357,0.02455
551.54204,-0.13089
553.47051,-0.29587
555.39897,-0.22456
557.32744,-0.02277
559.25591,0.07992
561.18438,0.10374
563.11285,0.09602
565.04132,0.06597
566.96979,0.05132
568.89825,0.06335
570.82672,0.07859
572.75519,0.07486
574.68366,0.05924
576.61213,0.04761
578.54060,0.04515
580.46907,0.04837
582.39754,0.04653
584.32600,0.04154
586.25447,0.04659
588.18294,0.06074
590.11141,0.06788
592.03988,0.06614
593.96835,0.07533
595.89682,0.09688
597.82528,0.10641
599.75375,0.09291
601.68222,0.07872
603.61069,0.08507
605.53916,0.09363
607.46763,0.08542
609.39610,0.07272
611.32456,0.06482
613.25303,0.06126
615.18150,0.06780
617.10997,0.07448
619.03844,0.07060
620.96691,0.07349
622.89538,0.08602
624.82385,0.09185
626.75231,0.08745
628.68078,0.08261
630.60925,0.08452
632.53772,0.08289
634.46619,0.07479
636.39466,0.07302
638.32313,0.07550
640.25159,0.07758
642.18006,0.07963
644.10853,0.08084
646.03700,0.08780
647.96547,0.09186
649.89394,0.08406
651.82241,0.08016
653.75088,0.07496
655.67934,0.05898
657.60781,0.04634
659.53628,0.05073
661.46475,0.06921
663.39322,0.07743
665.32169,0.06367
667.25016,0.04917
669.17862,0.07561
671.10709,0.10161
673.03556,0.09724
674.96403,0.09070
676.89250,0.09307
678.82097,0.09539
680.74944,0.09578
682.67791,0.09392
684.60637,0.09349
686.53484,0.09605
688.46331,0.09719
690.39178,0.09715
692.32025,0.09457
694.24872,0.08925
696.17719,0.08129
698.10565,0.07226
700.03412,0.06958
701.96259,0.06945
703.89106,0.07090
705.81953,0.07894
707.74800,0.08813
709.67647,0.10687
711.60494,0.12676
713.53340,0.11629
715.46187,0.09328
717.39034,0.08338
719.31881,0.07444
721.24728,0.06860
723.17575,0.07498
725.10422,0.08153
727.03268,0.07860
728.96115,0.07186
730.88962,0.06969
732.81809,0.06852
734.74656,0.06607
736.67503,0.06824
738.60350,0.06912
740.53197,0.06748
742.46043,0.07360
744.38890,0.07911
746.31737,0.07444
748.24584,0.07173
750.17431,0.07826
752.10278,0.08523
754.03125,0.08641
755.95971,0.08464
757.88818,0.08431
759.81665,0.08609
761.74512,0.08393
763.67359,0.07615
765.60206,0.07716
767.53053,0.09227
769.45900,0.10223
771.38746,0.09580
773.31593,0.08477
775.24440,0.07970
777.17287,0.07914
779.10134,0.07857
781.02981,0.07572
782.95828,0.07426
784.88674,0.07984
786.81521,0.08862
788.74368,0.09599
790.67215,0.10220
792.60062,0.09917
794.52909,0.08612
796.45756,0.08117
798.38602,0.09011
800.31449,0.09997
802.24296,0.10010
804.17143,0.09646
806.09990,0.09907
808.02837,0.09956
809.95684,0.09241
811.88531,0.08777
813.81377,0.08823
815.74224,0.08703
817.67071,0.08169
819.59918,0.07866
821.52765,0.08157
823.45612,0.08537
825.38459,0.08584
827.31305,0.08508
829.24152,0.08546
831.16999,0.08348
833.09846,0.08223
835.02693,0.08671
836.95540,0.08944
838.88387,0.08470
840.81234,0.07620
842.74080,0.07303
844.66927,0.07899
846.59774,0.08405
848.52621,0.08216
850.45468,0.07866
852.38315,0.07806
854.31162,0.08096
856.24008,0.08288
858.16855,0.08122
860.09702,0.08328
862.02549,0.08822
863.95396,0.08676
865.88243,0.08119
867.81090,0.07699
869.73937,0.07346
871.66783,0.07443
873.59630,0.08389
875.52477,0.09141
877.45324,0.09041
879.38171,0.08867
881.31018,0.08916
883.23865,0.09248
885.16711,0.09844
887.09558,0.10197
889.02405,0.10223
890.95252,0.09879
892.88099,0.09210
894.80946,0.08802
896.73793,0.08397
898.66640,0.07837
900.59486,0.08057
902.52333,0.08640
904.45180,0.08612
906.38027,0.08372
908.30874,0.08582
910.23721,0.09250
912.16568,0.09503
914.09414,0.09398
916.02261,0.09704
917.95108,0.09806
919.87955,0.09360
921.80802,0.09015
923.73649,0.08958
925.66496,0.09029
927.59343,0.09157
929.52189,0.08924
931.45036,0.08246
933.37883,0.08038
935.30730,0.08518
937.23577,0.08665
939.16424,0.08289
941.09271,0.08147
943.02117,0.08179
944.94964,0.08094
946.87811,0.08305
948.80658,0.08787
950.73505,0.09027
952.66352,0.09145
954.59199,0.09244
956.52045,0.09039
958.44892,0.09099
960.37739,0.09603
962.30586,0.09534
964.23433,0.08915
966.16280,0.08807
968.09127,0.09375
970.01974,0.09957
971.94820,0.10142
973.87667,0.09893
975.80514,0.09348
977.73361,0.08860
979.66208,0.08893
981.59055,0.09200
983.51902,0.09190
985.44748,0.09170
987.37595,0.09373
989.30442,0.09379
991.23289,0.08975
993.16136,0.08564
995.08983,0.08681
997.01830,0.09310
998.94677,0.09975
1000.87523,0.10139
1002.80370,0.09735
1004.73217,0.09368
1006.66064,0.09423
1008.58911,0.09346
1010.51758,0.08713
1012.44605,0.08294
1014.37451,0.08889
1016.30298,0.09732
1018.23145,0.09530
1020.15992,0.08666
1022.08839,0.08309
1024.01686,0.08890
1025.94533,0.10361
1027.87380,0.11729
1029.80226,0.11592
1031.73073,0.10750
1033.65920,0.10731
1035.58767,0.11007
1037.51614,0.10821
1039.44461,0.10567
1041.37308,0.10476
1043.30154,0.10158
1045.23001,0.09892
1047.15848,0.10184
1049.08695,0.10503
1051.01542,0.10305
1052.94389,0.09670
1054.87236,0.09249
1056.80083,0.09406
1058.72929,0.09738
1060.65776,0.09905
1062.58623,0.09656
1064.51470,0.09143
1066.44317,0.08965
1068.37164,0.09181
1070.30011,0.09303
1072.22857,0.09242
1074.15704,0.09319
1076.08551,0.09613
1078.01398,0.09969
1079.94245,0.10282
1081.87092,0.10743
1083.79939,0.11036
1085.72786,0.10653
1087.65632,0.10305
1089.58479,0.10476
1091.51326,0.10597
1093.44173,0.10467
1095.37020,0.10233
1097.29867,0.09879
1099.22714,0.09580
1101.15560,0.09308
1103.08407,0.09037
1105.01254,0.09313
1106.94101,0.09652
1108.86948,0.09327
1110.79795,0.09404
1112.72642,0.10411
1114.65489,0.11267
1116.58335,0.11402
1118.51182,0.11086
1120.44029,0.10657
1122.36876,0.10357
1124.29723,0.10211
1126.22570,0.10276
1128.15417,0.10495
1130.08263,0.10273
1132.01110,0.09474
1133.93957,0.08573
1135.86804,0.08121
1137.79651,0.08744
1139.72498,0.09965
1141.65345,0.10374
1143.58191,0.09928
1145.51038,0.09724
1147.43885,0.09956
1149.36732,0.10177
1151.29579,0.10298
1153.22426,0.10373
1155.15273,0.10295
1157.08120,0.10197
1159.00966,0.10282
1160.93813,0.10206
1162.86660,0.10034
1164.79507,0.10260
1166.72354,0.10682
1168.65201,0.10895
1170.58048,0.10776
1172.50894,0.10452
1174.43741,0.10320
1176.36588,0.10550
1178.29435,0.10828
1180.22282,0.10854
1182.15129,0.10646
1184.07976,0.10405
1186.00823,0.10350
1187.93669,0.10426
1189.86516,0.10482
1191.79363,0.10684
1193.72210,0.10918
1195.65057,0.10791
1197.57904,0.10468
1199.50751,0.10203
1201.43597,0.10123
1203.36444,0.10341
1205.29291,0.10332
1207.22138,0.09798
1209.14985,0.09368
1211.07832,0.09351
1213.00679,0.09617
1214.93526,0.10058
1216.86372,0.10355
1218.79219,0.10359
1220.72066,0.10269
1222.64913,0.10247
1224.57760,0.10335
1226.50607,0.10399
1228.43454,0.10283
1230.36300,0.10167
1232.29147,0.10347
1234.21994,0.10566
1236.14841,0.10389
1238.07688,0.10111
1240.00535,0.10290
1241.93382,0.10833
1243.86229,0.11195
1245.79075,0.11118
1247.71922,0.10886
1249.64769,0.10820
1251.57616,0.10871
1253.50463,0.10896
1255.43310,0.10876
1257.36157,0.10804
1259.29003,0.10641
1261.21850,0.10468
1263.14697,0.10505
1265.07544,0.10652
1267.00391,0.10563
1268.93238,0.10283
1270.86085,0.10120
1272.78932,0.10157
1274.71778,0.10137
1276.64625,0.10012
1278.57472,0.10202
1280.50319,0.10616
1282.43166,0.10788
1284.36013,0.10836
1286.28860,0.10883
1288.21706,0.10887
1290.14553,0.10940
1292.07400,0.11074
1294.00247,0.11244
1295.93094,0.11211
1297.85941,0.10896
1299.78788,0.10508
1301.71634,0.10267
1303.64481,0.10396
1305.57328,0.10710
1307.50175,0.10792
1309.43022,0.10741
1311.35869,0.10920
1313.28716,0.11198
1315.21563,0.11198
1317.14409,0.11056
1319.07256,0.11093
1321.00103,0.11212
1322.92950,0.11211
1324.85797,0.11222
1326.78644,0.11238
1328.71491,0.11037
1330.64337,0.10869
1332.57184,0.10991
1334.50031,0.11100
1336.42878,0.11011
1338.35725,0.11005
1340.28572,0.11000
1342.21419,0.10730
1344.14266,0.10542
1346.07112,0.10570
1347.99959,0.10803
1349.92806,0.11134
1351.85653,0.11235
1353.78500,0.11141
1355.71347,0.11001
1357.64194,0.10960
1359.57040,0.11230
1361.49887,0.11781
1363.42734,0.12118
1365.35581,0.11814
1367.28428,0.11251
1369.21275,0.10998
1371.14122,0.11375
1373.06969,0.12010
1374.99815,0.12047
1376.92662,0.11419
1378.85509,0.10766
1380.78356,0.10443
1382.71203,0.10627
1384.64050,0.11103
1386.56897,0.11490
1388.49743,0.11518
1390.42590,0.11288
1392.35437,0.11278
1394.28284,0.11747
1396.21131,0.12281
1398.13978,0.12288
1400.06825,0.11854
1401.99672,0.11489
1403.92518,0.11365
1405.85365,0.11285
1407.78212,0.11201
1409.71059,0.11359
1411.63906,0.11686
1413.56753,0.11904
1415.49600,0.12199
1417.42446,0.12784
1419.35293,0.12993
1421.28140,0.12381
1423.20987,0.11764
1425.13834,0.11422
1427.06681,0.11432
1428.99528,0.11739
1430.92375,0.11944
1432.85221,0.11983
1434.78068,0.12006
1436.70915,0.11811
1438.63762,0.11462
1440.56609,0.11262
1442.49456,0.11271
1444.42303,0.11486
1446.35149,0.11775
1448.27996,0.11854
1450.20843,0.11593
1452.13690,0.11547
1454.06537,0.12163
1455.99384,0.12998
1457.92231,0.12646
1459.85077,0.11864
1461.77924,0.11878
1463.70771,0.12087
1465.63618,0.11832
1467.56465,0.11521
1469.49312,0.11652
1471.42159,0.11912
1473.35006,0.11964
1475.27852,0.12140
1477.20699,0.12282
1479.13546,0.12175
1481.06393,0.12044
1482.99240,0.11952
1484.92087,0.11971
1486.84934,0.12203
1488.77780,0.12414
1490.70627,0.12100
1492.63474,0.11675
1494.56321,0.11784
1496.49168,0.12297
1498.42015,0.12327
1500.34862,0.11706
1502.27709,0.11202
1504.20555,0.11494
1506.13402,0.13166
1508.06249,0.14071
1509.99096,0.13173
1511.91943,0.12608
1513.84790,0.12515
1515.77637,0.12691
1517.70483,0.12821
1519.63330,0.13081
1521.56177,0.13548
1523.49024,0.13307
1525.41871,0.12721
1527.34718,0.12375
1529.27565,0.12203
1531.20412,0.12251
1533.13258,0.12487
1535.06105,0.12571
1536.98952,0.12727
1538.91799,0.13332
1540.84646,0.14120
1542.77493,0.14156
1544.70340,0.13582
1546.63186,0.12989
1548.56033,0.12666
1550.48880,0.12399
1552.41727,0.12320
1554.34574,0.12747
1556.27421,0.13465
1558.20268,0.13805
1560.13115,0.12884
1562.05961,0.12419
1563.98808,0.12442
1565.91655,0.12397
1567.84502,0.12376
1569.77349,0.12487
1571.70196,0.12529
1573.63043,0.12634
1575.55889,0.12661
1577.48736,0.12289
1579.41583,0.12029
1581.34430,0.11996
1583.27277,0.11933
1585.20124,0.11799
1587.12971,0.11816
1589.05818,0.12081
1590.98664,0.12239
1592.91511,0.11999
1594.84358,0.11600
1596.77205,0.11359
1598.70052,0.11291
1600.62899,0.11334
1602.55746,0.11477
1604.48592,0.11571
1606.41439,0.11591
1608.34286,0.11680
1610.27133,0.11750
1612.19980,0.11818
1614.12827,0.12094
1616.05674,0.12459
1617.98521,0.12478
1619.91367,0.12460
1621.84214,0.12710
1623.77061,0.12987
1625.69908,0.13098
1627.62755,0.12970
1629.55602,0.12602
1631.48449,0.12438
1633.41295,0.12704
1635.34142,0.13151
1637.26989,0.12910
1639.19836,0.12336
1641.12683,0.12170
1643.05530,0.12464
1644.98377,0.13019
1646.91223,0.13444
1648.84070,0.13488
1650.76917,0.13823
1652.69764,0.14585
1654.62611,0.14005
1656.55458,0.12973
1658.48305,0.12504
1660.41152,0.12177
1662.33998,0.11827
1664.26845,0.11926
1666.19692,0.12537
1668.12539,0.13278
1670.05386,0.13566
1671.98233,0.13256
1673.91080,0.13051
1675.83926,0.12951
1677.76773,0.12797
1679.69620,0.12908
1681.62467,0.13362
1683.55314,0.13630
1685.48161,0.13064
1687.41008,0.12512
1689.33855,0.12424
1691.26701,0.12651
1693.19548,0.13002
1695.12395,0.13505
1697.05242,0.14068
1698.98089,0.14313
1700.90936,0.13921
1702.83783,0.13480
1704.76629,0.13295
1706.69476,0.12939
1708.62323,0.12460
1710.55170,0.12236
1712.48017,0.12474
1714.40864,0.13239
1716.33711,0.14072
1718.26558,0.13775
1720.19404,0.12961
1722.12251,0.12422
1724.05098,0.11888
1725.97945,0.11486
1727.90792,0.11482
1729.83639,0.11715
1731.76486,0.12027
1733.69332,0.12376
1735.62179,0.12337
1737.55026,0.12149
1739.47873,0.12135
1741.40720,0.12206
1743.33567,0.12266
1745.26414,0.12355
1747.19261,0.12418
1749.12107,0.12385
1751.04954,0.12468
1752.97801,0.12526
1754.90648,0.12392
1756.83495,0.12212
1758.76342,0.12069
1760.69189,0.12019
1762.62035,0.11931
1764.54882,0.11822
1766.47729,0.11929
1768.40576,0.12187
1770.33423,0.12560
1772.26270,0.12926
1774.19117,0.12715
1776.11964,0.12304
1778.04810,0.12111
1779.97657,0.12062
1781.90504,0.12167
1783.83351,0.12311
1785.76198,0.12166
1787.69045,0.11879
1789.61892,0.11856
1791.54738,0.12121
1793.47585,0.12416
1795.40432,0.12475
1797.33279,0.12266
1799.26126,0.12164
1801.18973,0.12298
1803.11820,0.12189
1805.04666,0.11931
1806.97513,0.11873
1808.90360,0.11985
1810.83207,0.12086
1812.76054,0.12015
1814.68901,0.11842
1816.61748,0.11719
1818.54595,0.11614
1820.47441,0.11440
1822.40288,0.11371
1824.33135,0.11613
1826.25982,0.11918
1828.18829,0.12087
1830.11676,0.12231
1832.04523,0.12260
1833.97369,0.12201
1835.90216,0.12033
1837.83063,0.11760
1839.75910,0.11756
1841.68757,0.12085
1843.61604,0.12347
1845.54451,0.12319
1847.47298,0.12205
1849.40144,0.12044
1851.32991,0.11892
1853.25838,0.11877
1855.18685,0.11892
1857.11532,0.11824
1859.04379,0.11823
1860.97226,0.12019
1862.90072,0.12175
1864.82919,0.12201
1866.75766,0.12303
1868.68613,0.12293
1870.61460,0.12037
1872.54307,0.11931
1874.47154,0.11974
1876.40001,0.11952
1878.32847,0.11853
1880.25694,0.11812
1882.18541,0.11953
1884.11388,0.12243
1886.04235,0.12466
1887.97082,0.12520
1889.89929,0.12487
1891.82775,0.12419
1893.75622,0.12271
1895.68469,0.11956
1897.61316,0.11642
1899.54163,0.11548
1901.47010,0.11597
1903.39857,0.11792
1905.32704,0.12095
1907.25550,0.12254
1909.18397,0.12185
1911.11244,0.11995
1913.04091,0.11863
1914.96938,0.11898
1916.89785,0.11982
1918.82632,0.12013
1920.75478,0.12095
1922.68325,0.12126
1924.61172,0.11918
1926.54019,0.11776
1928.46866,0.11874
1930.39713,0.11937
1932.32560,0.11929
1934.25407,0.11956
1936.18253,0.11979
1938.11100,0.12015
1940.03947,0.12033
1941.96794,0.12013
1943.89641,0.11994
1945.82488,0.12008
1947.75335,0.12099
1949.68181,0.12223
1951.61028,0.12288
1953.53875,0.12226
1955.46722,0.12103
1957.39569,0.12053
1959.32416,0.12052
1961.25263,0.11974
1963.18110,0.11887
1965.10956,0.11979
1967.03803,0.12120
1968.96650,0.12130
1970.89497,0.12100
1972.82344,0.12029
1974.75191,0.11924
1976.68038,0.11898
1978.60884,0.11863
1980.53731,0.11795
1982.46578,0.11822
1984.39425,0.11876
1986.32272,0.11848
1988.25119,0.11736
1990.17966,0.11722
1992.10812,0.12012
1994.03659,0.12332
1995.96506,0.12388
1997.89353,0.12326
1999.82200,0.12181
2001.75047,0.11905
2003.67894,0.11779
2005.60741,0.11895
2007.53587,0.11925
2009.46434,0.11826
2011.39281,0.11925
2013.32128,0.12178
2015.24975,0.12317
2017.17822,0.12395
2019.10669,0.12389
2021.03515,0.12162
2022.96362,0.11870
2024.89209,0.11842
2026.82056,0.12060
2028.74903,0.12117
2030.67750,0.11935
2032.60597,0.11904
2034.53444,0.12155
2036.46290,0.12340
2038.39137,0.12307
2040.31984,0.12158
2042.24831,0.11963
2044.17678,0.11901
2046.10525,0.12060
2048.03372,0.12254
2049.96218,0.12236
2051.89065,0.12061
2053.81912,0.12044
2055.74759,0.12228
2057.67606,0.12332
2059.60453,0.12282
2061.53300,0.12278
2063.46147,0.12351
2065.38993,0.12297
2067.31840,0.12099
2069.24687,0.12024
2071.17534,0.12208
2073.10381,0.12413
2075.03228,0.12364
2076.96075,0.12134
2078.88921,0.11988
2080.81768,0.12090
2082.74615,0.12344
2084.67462,0.12457
2086.60309,0.12390
2088.53156,0.12279
2090.46003,0.12081
2092.38850,0.11856
2094.31696,0.11789
2096.24543,0.11911
2098.17390,0.12155
2100.10237,0.12380
2102.03084,0.12404
2103.95931,0.12224
2105.88778,0.11963
2107.81624,0.11817
2109.74471,0.11856
2111.67318,0.11950
2113.60165,0.12042
2115.53012,0.12092
2117.45859,0.12147
2119.38706,0.12208
2121.31553,0.12087
2123.24399,0.11843
2125.17246,0.11711
2127.10093,0.11728
2129.02940,0.11744
2130.95787,0.11716
2132.88634,0.11745
2134.81481,0.11715
2136.74327,0.11622
2138.67174,0.11739
2140.60021,0.11958
2142.52868,0.12051
2144.45715,0.12107
2146.38562,0.12143
2148.31409,0.12112
2150.24255,0.12061
2152.17102,0.12035
2154.09949,0.12150
2156.02796,0.12357
2157.95643,0.12406
2159.88490,0.12344
2161.81337,0.12400
2163.74184,0.12515
2165.67030,0.12466
2167.59877,0.12254
2169.52724,0.12122
2171.45571,0.12195
2173.38418,0.12367
2175.31265,0.12447
2177.24112,0.12348
2179.16958,0.12207
2181.09805,0.12106
2183.02652,0.12011
2184.95499,0.11985
2186.88346,0.11998
2188.81193,0.12017
2190.74040,0.12097
2192.66887,0.12095
2194.59733,0.11946
2196.52580,0.11895
2198.45427,0.11921
2200.38274,0.11771
2202.31121,0.11667
2204.23968,0.11849
2206.16815,0.12039
2208.09661,0.12121
2210.02508,0.12286
2211.95355,0.12458
2213.88202,0.12388
2215.81049,0.12133
2217.73896,0.12044
2219.66743,0.12206
2221.59590,0.12325
2223.52436,0.12271
2225.45283,0.12193
2227.38130,0.12238
2229.30977,0.12321
2231.23824,0.12281
2233.16671,0.12220
2235.09518,0.12201
2237.02364,0.12127
2238.95211,0.12067
2240.88058,0.12125
2242.80905,0.12189
2244.73752,0.12097
2246.66599,0.11952
2248.59446,0.11919
2250.52293,0.11911
2252.45139,0.11967
2254.37986,0.12248
2256.30833,0.12535
2258.23680,0.12558
2260.16527,0.12421
2262.09374,0.12301
2264.02221,0.12309
2265.95067,0.12424
2267.87914,0.12349
2269.80761,0.12129
2271.73608,0.12129
2273.66455,0.12220
2275.59302,0.12194
2277.52149,0.12138
2279.44996,0.12105
2281.37842,0.12131
2283.30689,0.12225
2285.23536,0.12309
2287.16383,0.12359
2289.09230,0.12415
2291.02077,0.12405
2292.94924,0.12244
2294.87770,0.11956
2296.80617,0.11707
2298.73464,0.11760
2300.66311,0.11993
2302.59158,0.12041
2304.52005,0.12019
2306.44852,0.12219
2308.37699,0.12282
2310.30545,0.11885
2312.23392,0.11624
2314.16239,0.11869
2316.09086,0.12224
2318.01933,0.12561
2319.94780,0.12864
2321.87627,0.12654
2323.80473,0.12220
2325.73320,0.12486
2327.66167,0.12991
2329.59014,0.13151
2331.51861,0.13293
2333.44708,0.13044
2335.37555,0.12078
2337.30401,0.11187
2339.23248,0.11224
2341.16095,0.12152
2343.08942,0.12866
2345.01789,0.12626
2346.94636,0.12116
2348.87483,0.11827
2350.80330,0.11755
2352.73176,0.12222
2354.66023,0.13598
2356.58870,0.14659
2358.51717,0.13569
2360.44564,0.11805
2362.37411,0.11858
2364.30258,0.13001
2366.23104,0.13276
2368.15951,0.12420
2370.08798,0.11634
2372.01645,0.11545
2373.94492,0.11925
2375.87339,0.12296
2377.80186,0.12245
2379.73033,0.11944
2381.65879,0.11850
2383.58726,0.11972
2385.51573,0.12063
2387.44420,0.12169
2389.37267,0.12366
2391.30114,0.12430
2393.22961,0.12285
2395.15807,0.12142
2397.08654,0.12191
2399.01501,0.12345
2400.94348,0.12347
2402.87195,0.12291
2404.80042,0.12394
2406.72889,0.12528
2408.65736,0.12534
2410.58582,0.12436
2412.51429,0.12340
2414.44276,0.12308
2416.37123,0.12311
2418.29970,0.12335
2420.22817,0.12323
2422.15664,0.12202
2424.08510,0.12080
2426.01357,0.12108
2427.94204,0.12198
2429.87051,0.12239
2431.79898,0.12346
2433.72745,0.12408
2435.65592,0.12144
2437.58439,0.11774
2439.51285,0.11720
2441.44132,0.12026
2443.36979,0.12388
2445.29826,0.12420
2447.22673,0.12089
2449.15520,0.11832
2451.08367,0.12001
2453.01213,0.12382
2454.94060,0.12500
2456.86907,0.12314
2458.79754,0.12275
2460.72601,0.12500
2462.65448,0.12599
2464.58295,0.12444
2466.51142,0.12247
2468.43988,0.12144
2470.36835,0.12135
2472.29682,0.12193
2474.22529,0.12292
2476.15376,0.12377
2478.08223,0.12426
2480.01070,0.12531
2481.93916,0.12681
2483.86763,0.12637
2485.79610,0.12386
2487.72457,0.12235
2489.65304,0.12232
2491.58151,0.12162
2493.50998,0.12071
2495.43844,0.12163
2497.36691,0.12245
2499.29538,0.12161
2501.22385,0.12187
2503.15232,0.12414
2505.08079,0.12623
2507.00926,0.12632
2508.93773,0.12526
2510.86619,0.12515
2512.79466,0.12502
2514.72313,0.12448
2516.65160,0.12526
2518.58007,0.12577
2520.50854,0.12465
2522.43701,0.12431
2524.36547,0.12527
2526.29394,0.12572
2528.22241,0.12506
2530.15088,0.12327
2532.07935,0.12147
2534.00782,0.12168
2535.93629,0.12350
2537.86476,0.12426
2539.79322,0.12344
2541.72169,0.12271
2543.65016,0.12249
2545.57863,0.12273
2547.50710,0.12373
2549.43557,0.12494
2551.36404,0.12524
2553.29250,0.12477
2555.22097,0.12465
2557.14944,0.12498
2559.07791,0.12507
2561.00638,0.12366
2562.93485,0.12169
2564.86332,0.12163
2566.79179,0.12265
2568.72025,0.12292
2570.64872,0.12191
2572.57719,0.12072
2574.50566,0.12122
2576.43413,0.12270
2578.36260,0.12382
2580.29107,0.12551
2582.21953,0.12725
2584.14800,0.12687
2586.07647,0.12656
2588.00494,0.12815
2589.93341,0.12836
2591.86188,0.12585
2593.79035,0.12272
2595.71882,0.12063
2597.64728,0.12002
2599.57575,0.12096
2601.50422,0.12264
2603.43269,0.12370
2605.36116,0.12427
2607.28963,0.12505
2609.21810,0.12579
2611.14656,0.12667
2613.07503,0.12711
2615.00350,0.12568
2616.93197,0.12365
2618.86044,0.12226
2620.78891,0.12172
2622.71738,0.12291
2624.64585,0.12540
2626.57431,0.12774
2628.50278,0.12916
2630.43125,0.13033
2632.35972,0.13105
2634.28819,0.13004
2636.21666,0.12823
2638.14513,0.12731
2640.07359,0.12706
2642.00206,0.12631
2643.93053,0.12591
2645.85900,0.12662
2647.78747,0.12659
2649.71594,0.12584
2651.64441,0.12672
2653.57288,0.12854
2655.50134,0.12902
2657.42981,0.12873
2659.35828,0.12824
2661.28675,0.12725
2663.21522,0.12703
2665.14369,0.12752
2667.07216,0.12756
2669.00062,0.12766
2670.92909,0.12783
2672.85756,0.12758
2674.78603,0.12826
2676.71450,0.12925
2678.64297,0.12750
2680.57144,0.12437
2682.49990,0.12374
2684.42837,0.12512
2686.35684,0.12608
2688.28531,0.12627
2690.21378,0.12576
2692.14225,0.12489
2694.07072,0.12548
2695.99919,0.12841
2697.92765,0.13106
2699.85612,0.13019
2701.78459,0.12764
2703.71306,0.12728
2705.64153,0.12764
2707.57000,0.12672
2709.49847,0.12633
2711.42693,0.12747
2713.35540,0.12893
2715.28387,0.12929
2717.21234,0.12922
2719.14081,0.12986
2721.06928,0.12950
2722.99775,0.12807
2724.92622,0.12806
2726.85468,0.12902
2728.78315,0.12882
2730.71162,0.12786
2732.64009,0.12797
2734.56856,0.12864
2736.49703,0.12894
2738.42550,0.12924
2740.35396,0.12857
2742.28243,0.12812
2744.21090,0.12935
2746.13937,0.13002
2748.06784,0.12847
2749.99631,0.12541
2751.92478,0.12376
2753.85325,0.12554
2755.78171,0.12867
2757.71018,0.13014
2759.63865,0.12989
2761.56712,0.12934
2763.49559,0.12913
2765.42406,0.13045
2767.35253,0.13304
2769.28099,0.13441
2771.20946,0.13316
2773.13793,0.13060
2775.06640,0.12897
2776.99487,0.12920
2778.92334,0.13146
2780.85181,0.13295
2782.78028,0.13047
2784.70874,0.12732
2786.63721,0.12798
2788.56568,0.12978
2790.49415,0.12818
2792.42262,0.12418
2794.35109,0.12306
2796.27956,0.12768
2798.20802,0.13398
2800.13649,0.13704
2802.06496,0.13751
2803.99343,0.13645
2805.92190,0.13242
2807.85037,0.12833
2809.77884,0.12962
2811.70731,0.13448
2813.63577,0.13668
2815.56424,0.13505
2817.49271,0.13305
2819.42118,0.13182
2821.34965,0.13018
2823.27812,0.12891
2825.20659,0.12956
2827.13505,0.13197
2829.06352,0.13539
2830.99199,0.13847
2832.92046,0.13936
2834.84893,0.13895
2836.77740,0.13760
2838.70587,0.13353
2840.63433,0.12881
2842.56280,0.12811
2844.49127,0.13304
2846.41974,0.13859
2848.34821,0.13848
2850.27668,0.13449
2852.20515,0.13277
2854.13362,0.13362
2856.06208,0.13392
2857.99055,0.13425
2859.91902,0.13493
2861.84749,0.13540
2863.77596,0.13747
2865.70443,0.14026
2867.63290,0.13946
2869.56136,0.13570
2871.48983,0.13405
2873.41830,0.13404
2875.34677,0.13284
2877.27524,0.13322
2879.20371,0.13708
2881.13218,0.13979
2883.06065,0.13805
2884.98911,0.13403
2886.91758,0.13088
2888.84605,0.13073
2890.77452,0.13208
2892.70299,0.13163
2894.63146,0.13080
2896.55993,0.13265
2898.48839,0.13474
2900.41686,0.13271
2902.34533,0.12839
2904.27380,0.12719
2906.20227,0.13014
2908.13074,0.13272
2910.05921,0.13214
2911.98768,0.13111
2913.91614,0.13139
2915.84461,0.13299
2917.77308,0.13539
2919.70155,0.13560
2921.63002,0.13435
2923.55849,0.13460
2925.48696,0.13429
2927.41542,0.13239
2929.34389,0.13196
2931.27236,0.13425
2933.20083,0.13678
2935.12930,0.13752
2937.05777,0.13785
2938.98624,0.13816
2940.91471,0.13827
2942.84317,0.13879
2944.77164,0.13777
2946.70011,0.13462
2948.62858,0.13195
2950.55705,0.13195
2952.48552,0.13527
2954.41399,0.13930
2956.34245,0.14113
2958.27092,0.14115
2960.19939,0.13966
2962.12786,0.13709
2964.05633,0.13443
2965.98480,0.13230
2967.91327,0.13278
2969.84174,0.13622
2971.77020,0.13949
2973.69867,0.13994
2975.62714,0.13805
2977.55561,0.13711
2979.48408,0.13834
2981.41255,0.13880
2983.34102,0.13826
2985.26948,0.13959
2987.19795,0.14076
2989.12642,0.13889
2991.05489,0.13575
2992.98336,0.13420
2994.91183,0.13549
2996.84030,0.13760
2998.76877,0.13866
3000.69723,0.14053
3002.62570,0.14347
3004.55417,0.14442
3006.48264,0.14237
3008.41111,0.14002
3010.33958,0.13859
3012.26805,0.13737
3014.19651,0.13765
3016.12498,0.13836
3018.05345,0.13777
3019.98192,0.13857
3021.91039,0.14131
3023.83886,0.14252
3025.76733,0.14056
3027.69579,0.13789
3029.62426,0.13815
3031.55273,0.14101
3033.48120,0.14305
3035.40967,0.14373
3037.33814,0.14351
3039.26661,0.14071
3041.19508,0.13700
3043.12354,0.13621
3045.05201,0.13664
3046.98048,0.13553
3048.90895,0.13549
3050.83742,0.13681
3052.76589,0.13708
3054.69436,0.13826
3056.62282,0.14083
3058.55129,0.14243
3060.47976,0.14222
3062.40823,0.14005
3064.33670,0.13785
3066.26517,0.13660
3068.19364,0.13431
3070.12211,0.13233
3072.05057,0.13355
3073.97904,0.13579
3075.90751,0.13531
3077.83598,0.13305
3079.76445,0.13209
3081.69292,0.13307
3083.62139,0.13391
3085.54985,0.13338
3087.47832,0.13471
3089.40679,0.13998
3091.33526,0.14516
3093.26373,0.14482
3095.19220,0.13936
3097.12067,0.13528
3099.04914,0.13512
3100.97760,0.13561
3102.90607,0.13466
3104.83454,0.13394
3106.76301,0.13488
3108.69148,0.13566
3110.61995,0.13652
3112.54842,0.13769
3114.47688,0.13640
3116.40535,0.13377
3118.33382,0.13435
3120.26229,0.13898
3122.19076,0.14287
3124.11923,0.14289
3126.04770,0.14247
3127.97617,0.14237
3129.90463,0.14047
3131.83310,0.13902
3133.76157,0.13844
3135.69004,0.13875
3137.61851,0.14149
3139.54698,0.14248
3141.47545,0.14039
3143.40391,0.14035
3145.33238,0.14194
3147.26085,0.14154
3149.18932,0.14113
3151.11779,0.14284
3153.04626,0.14393
3154.97473,0.14244
3156.90320,0.13939
3158.83166,0.13718
3160.76013,0.13794
3162.68860,0.14013
3164.61707,0.14028
3166.54554,0.13868
3168.47401,0.13958
3170.40248,0.14444
3172.33094,0.14788
3174.25941,0.14724
3176.18788,0.14718
3178.11635,0.14811
3180.04482,0.14601
3181.97329,0.14183
3183.90176,0.13951
3185.83022,0.13820
3187.75869,0.13608
3189.68716,0.13620
3191.61563,0.13858
3193.54410,0.14022
3195.47257,0.14081
3197.40104,0.14037
3199.32951,0.13939
3201.25797,0.13959
3203.18644,0.14193
3205.11491,0.14432
3207.04338,0.14384
3208.97185,0.14059
3210.90032,0.13738
3212.82879,0.13658
3214.75725,0.13781
3216.68572,0.13882
3218.61419,0.13679
3220.54266,0.13427
3222.47113,0.13616
3224.39960,0.13889
3226.32807,0.13859
3228.25654,0.13752
3230.18500,0.13554
3232.11347,0.13316
3234.04194,0.13629
3235.97041,0.14481
3237.89888,0.14970
3239.82735,0.14709
3241.75582,0.14269
3243.68428,0.14288
3245.61275,0.14479
3247.54122,0.14286
3249.46969,0.14030
3251.39816,0.14089
3253.32663,0.14276
3255.25510,0.14269
3257.18357,0.13922
3259.11203,0.13410
3261.04050,0.13233
3262.96897,0.13577
3264.89744,0.13878
3266.82591,0.13790
3268.75438,0.13528
3270.68285,0.13405
3272.61131,0.13776
3274.53978,0.14485
3276.46825,0.14915
3278.39672,0.14939
3280.32519,0.14851
3282.25366,0.14857
3284.18213,0.14827
3286.11060,0.14418
3288.03906,0.13869
3289.96753,0.13618
3291.89600,0.13458
3293.82447,0.13285
3295.75294,0.13266
3297.68141,0.13258
3299.60988,0.13224
3301.53834,0.13275
3303.46681,0.13245
3305.39528,0.13102
3307.32375,0.13080
3309.25222,0.13257
3311.18069,0.13493
3313.10916,0.13684
3315.03763,0.13868
3316.96609,0.14000
3318.89456,0.14154
3320.82303,0.14363
3322.75150,0.14363
3324.67997,0.14195
3326.60844,0.13992
3328.53691,0.13818
3330.46537,0.13837
3332.39384,0.13780
3334.32231,0.13676
3336.25078,0.13909
3338.17925,0.14199
3340.10772,0.14311
3342.03619,0.14154
3343.96466,0.13591
3345.89312,0.13226
3347.82159,0.13500
3349.75006,0.13892
3351.67853,0.14035
3353.60700,0.14141
3355.53547,0.14290
3357.46394,0.14322
3359.39240,0.14270
3361.32087,0.14298
3363.24934,0.14377
3365.17781,0.14352
3367.10628,0.14117
3369.03475,0.13838
3370.96322,0.13769
3372.89168,0.13864
3374.82015,0.14039
3376.74862,0.14188
3378.67709,0.14220
3380.60556,0.14207
3382.53403,0.14121
3384.46250,0.14062
3386.39097,0.14143
3388.31943,0.14118
3390.24790,0.14113
3392.17637,0.14304
3394.10484,0.14105
3396.03331,0.13506
3397.96178,0.13165
3399.89025,0.13194
3401.81871,0.13417
3403.74718,0.13492
3405.67565,0.13290
3407.60412,0.13168
3409.53259,0.13254
3411.46106,0.13453
3413.38953,0.13839
3415.31800,0.14178
3417.24646,0.14086
3419.17493,0.13940
3421.10340,0.14011
3423.03187,0.13812
3424.96034,0.13258
3426.88881,0.12914
3428.81728,0.13116
3430.74574,0.13499
3432.67421,0.13660
3434.60268,0.13558
3436.53115,0.13178
3438.45962,0.12837
3440.38809,0.13031
3442.31656,0.13391
3444.24503,0.13316
3446.17349,0.13194
3448.10196,0.13411
3450.03043,0.13502
3451.95890,0.13216
3453.88737,0.13026
3455.81584,0.13166
3457.74431,0.13194
3459.67277,0.13081
3461.60124,0.13193
3463.52971,0.13373
3465.45818,0.13350
3467.38665,0.13087
3469.31512,0.12825
3471.24359,0.12803
3473.17206,0.12751
3475.10052,0.12657
3477.02899,0.12777
3478.95746,0.13054
3480.88593,0.13259
3482.81440,0.12973
3484.74287,0.12421
3486.67134,0.12311
3488.59980,0.12549
3490.52827,0.12496
3492.45674,0.12126
3494.38521,0.11992
3496.31368,0.12066
3498.24215,0.11984
3500.17062,0.11961
3502.09909,0.12192
3504.02755,0.12550
3505.95602,0.12778
3507.88449,0.12658
3509.81296,0.12256
3511.74143,0.11765
3513.66990,0.11250
3515.59837,0.10854
3517.52683,0.10870
3519.45530,0.11319
3521.38377,0.11770
3523.31224,0.11984
3525.24071,0.12050
3527.16918,0.11877
3529.09765,0.11410
3531.02611,0.10974
3532.95458,0.10938
3534.88305,0.11301
3536.81152,0.11617
3538.73999,0.11633
3540.66846,0.11531
3542.59693,0.11415
3544.52540,0.11304
3546.45386,0.11127
3548.38233,0.10986
3550.31080,0.11122
3552.23927,0.11166
3554.16774,0.10839
3556.09621,0.10713
3558.02468,0.11019
3559.95314,0.11355
3561.88161,0.11539
3563.81008,0.11701
3565.73855,0.11865
3567.66702,0.11804
3569.59549,0.11334
3571.52396,0.10808
3573.45243,0.10529
3575.38089,0.10340
3577.30936,0.10054
3579.23783,0.09877
3581.16630,0.09988
3583.09477,0.10272
3585.02324,0.10400
3586.95171,0.10110
3588.88017,0.09850
3590.80864,0.10193
3592.73711,0.10835
3594.66558,0.11227
3596.59405,0.11138
3598.52252,0.10736
3600.45099,0.10214
3602.37946,0.10059
3604.30792,0.10167
3606.23639,0.10011
3608.16486,0.09878
3610.09333,0.10112
3612.02180,0.10368
3613.95027,0.10504
3615.87874,0.10607
3617.80720,0.10642
3619.73567,0.10245
3621.66414,0.09688
3623.59261,0.09551
3625.52108,0.09873
3627.44955,0.10557
3629.37802,0.10760
3631.30649,0.10084
3633.23495,0.09484
3635.16342,0.09036
3637.09189,0.08774
3639.02036,0.08898
3640.94883,0.09363
3642.87730,0.09810
3644.80577,0.10150
3646.73423,0.10644
3648.66270,0.10942
3650.59117,0.10092
3652.51964,0.09276
3654.44811,0.09277
3656.37658,0.09681
3658.30505,0.09701
3660.23352,0.09288
3662.16198,0.08891
3664.09045,0.08758
3666.01892,0.08934
3667.94739,0.09475
3669.87586,0.10183
3671.80433,0.10434
3673.73280,0.10592
3675.66126,0.10634
3677.58973,0.09905
3679.51820,0.09183
3681.44667,0.08862
3683.37514,0.08824
3685.30361,0.09029
3687.23208,0.09287
3689.16055,0.09105
3691.08901,0.08624
3693.01748,0.08532
3694.94595,0.08797
3696.87442,0.09066
3698.80289,0.09206
3700.73136,0.09257
3702.65983,0.09034
3704.58829,0.08694
3706.51676,0.08551
3708.44523,0.08748
3710.37370,0.09247
3712.30217,0.09242
3714.23064,0.08753
3716.15911,0.08469
3718.08757,0.08441
3720.01604,0.08719
3721.94451,0.09027
3723.87298,0.08965
3725.80145,0.08846
3727.72992,0.08823
3729.65839,0.08737
3731.58686,0.08939
3733.51532,0.09871
3735.44379,0.10672
3737.37226,0.10156
3739.30073,0.09319
3741.22920,0.08880
3743.15767,0.08607
3745.08614,0.08566
3747.01460,0.09044
3748.94307,0.09325
3750.87154,0.08698
3752.80001,0.08031
3754.72848,0.08204
3756.65695,0.08526
3758.58542,0.08366
3760.51389,0.07811
3762.44235,0.07720
3764.37082,0.08355
3766.29929,0.09179
3768.22776,0.09643
3770.15623,0.09677
3772.08470,0.09309
3774.01317,0.08907
3775.94163,0.08808
3777.87010,0.09159
3779.79857,0.09415
3781.72704,0.08997
3783.65551,0.08584
3785.58398,0.08421
3787.51245,0.08152
3789.44092,0.07976
3791.36938,0.08268
3793.29785,0.08880
3795.22632,0.09220
3797.15479,0.08949
3799.08326,0.08761
3801.01173,0.09041
3802.94020,0.09080
3804.86866,0.08950
3806.79713,0.08870
3808.72560,0.08480
3810.65407,0.08077
3812.58254,0.08066
3814.51101,0.08522
3816.43948,0.08948
3818.36795,0.08708
3820.29641,0.08349
3822.22488,0.08348
3824.15335,0.08449
3826.08182,0.08481
3828.01029,0.08243
3829.93876,0.07804
3831.86723,0.07658
3833.79569,0.07856
3835.72416,0.08115
3837.65263,0.08480
3839.58110,0.08868
3841.50957,0.08871
3843.43804,0.08384
3845.36651,0.07889
3847.29498,0.07836
3849.22344,0.08120
3851.15191,0.08463
3853.08038,0.08658
3855.00885,0.08780
3856.93732,0.08682
3858.86579,0.08365
3860.79426,0.08251
3862.72272,0.08340
3864.65119,0.08174
3866.57966,0.08119
3868.50813,0.08252
3870.43660,0.08110
3872.36507,0.08057
3874.29354,0.08186
3876.22200,0.08091
3878.15047,0.08073
3880.07894,0.08505
3882.00741,0.08830
3883.93588,0.08579
3885.86435,0.08196
3887.79282,0.08089
3889.72129,0.08177
3891.64975,0.08208
3893.57822,0.08199
3895.50669,0.08205
3897.43516,0.08195
3899.36363,0.08406
3901.29210,0.08845
3903.22057,0.08982
3905.14903,0.08347
3907.07750,0.07553
3909.00597,0.07417
3910.93444,0.07654
3912.86291,0.07678
3914.79138,0.07732
3916.71985,0.08211
3918.64832,0.08576
3920.57678,0.08376
3922.50525,0.07999
3924.43372,0.07713
3926.36219,0.07487
3928.29066,0.07323
3930.21913,0.07321
3932.14760,0.07470
3934.07606,0.07448
3936.00453,0.07067
3937.93300,0.06657
3939.86147,0.06615
3941.78994,0.06975
3943.71841,0.07455
3945.64688,0.07648
3947.57535,0.07600
3949.50381,0.07651
3951.43228,0.07704
3953.36075,0.07553
3955.28922,0.07527
3957.21769,0.07579
3959.14616,0.07109
3961.07463,0.06537
3963.00309,0.06689
3964.93156,0.07211
3966.86003,0.07366
3968.78850,0.07085
3970.71697,0.06827
3972.64544,0.06890
3974.57391,0.07091
3976.50238,0.07222
3978.43084,0.07183
3980.35931,0.06974
3982.28778,0.06876
3984.21625,0.06979
3986.14472,0.06988
3988.07319,0.06927
3990.00166,0.06980
3991.93012,0.07031
3993.85859,0.07131
3995.78706,0.07359
3997.71553,0.07326
3999.64400,0.06949
4001.57247,0.06666
4003.50094,0.06722
4005.42941,0.07017
4007.35787,0.07235
4009.28634,0.07202
4011.21481,0.06943
4013.14328,0.06511
4015.07175,0.06296
4017.00022,0.06645
4018.92869,0.07033
4020.85715,0.06978
4022.78562,0.06901
4024.71409,0.06864
4026.64256,0.06708
4028.57103,0.06782
4030.49950,0.06869
4032.42797,0.06679
4034.35644,0.06530
4036.28490,0.06326
4038.21337,0.06088
4040.14184,0.06219
4042.07031,0.06372
4043.99878,0.06200
4045.92725,0.06015
4047.85572,0.06055
4049.78418,0.06243
4051.71265,0.06388
4053.64112,0.06454
4055.56959,0.06493
4057.49806,0.06594
4059.42653,0.06787
4061.35500,0.06904
4063.28346,0.06927
4065.21193,0.06881
4067.14040,0.06588
4069.06887,0.06149
4070.99734,0.05812
4072.92581,0.05528
4074.85428,0.05380
4076.78275,0.05537
4078.71121,0.05821
4080.63968,0.05946
4082.56815,0.05966
4084.49662,0.06137
4086.42509,0.06157
4088.35356,0.05879
4090.28203,0.05857
4092.21049,0.06029
4094.13896,0.06139
4096.06743,0.06248
4097.99590,0.06262
4099.92437,0.06462
4101.85284,0.06737
4103.78131,0.06543
4105.70978,0.06156
4107.63824,0.05956
4109.56671,0.06048
4111.49518,0.06246
4113.42365,0.06107
4115.35212,0.05774
4117.28059,0.05539
4119.20906,0.05495
4121.13752,0.05642
4123.06599,0.05748
4124.99446,0.05861
4126.92293,0.06182
4128.85140,0.06347
4130.77987,0.05847
4132.70834,0.05029
4134.63681,0.04672
4136.56527,0.04910
4138.49374,0.05302
4140.42221,0.05400
4142.35068,0.05308
4144.27915,0.05367
4146.20762,0.05474
4148.13609,0.05449
4150.06455,0.05316
4151.99302,0.05288
4153.92149,0.05467
4155.84996,0.05560
4157.77843,0.05414
4159.70690,0.05220
4161.63537,0.05163
4163.56384,0.05148
4165.49230,0.04964
4167.42077,0.04824
4169.34924,0.04890
4171.27771,0.04954
4173.20618,0.04920
4175.13465,0.04720
4177.06312,0.04527
4178.99158,0.04702
4180.92005,0.05051
4182.84852,0.05156
4184.77699,0.05187
4186.70546,0.05508
4188.63393,0.05797
4190.56240,0.05532
4192.49087,0.05045
4194.41933,0.05069
4196.34780,0.05493
4198.27627,0.05535
4200.20474,0.05138
4202.13321,0.04978
4204.06168,0.04958
4205.99015,0.04628
4207.91861,0.04359
4209.84708,0.04464
4211.77555,0.04673
4213.70402,0.04662
4215.63249,0.04533
4217.56096,0.04617
4219.48943,0.04582
4221.41789,0.04281
4223.34636,0.04403
4225.27483,0.04859
4227.20330,0.04955
4229.13177,0.04922
4231.06024,0.05019
4232.98871,0.04879
4234.91718,0.04492
4236.84564,0.04368
4238.77411,0.04715
4240.70258,0.04919
4242.63105,0.04677
4244.55952,0.04309
4246.48799,0.04098
4248.41646,0.04464
4250.34492,0.04999
4252.27339,0.04861
4254.20186,0.04334
4256.13033,0.04062
4258.05880,0.04076
4259.98727,0.04169
4261.91574,0.04215
4263.84421,0.03889
4265.77267,0.03330
4267.70114,0.03324
4269.62961,0.03839
4271.55808,0.04317
4273.48655,0.04688
4275.41502,0.04939
4277.34349,0.04910
4279.27195,0.04681
4281.20042,0.04507
4283.12889,0.04378
4285.05736,0.04156
4286.98583,0.03670
4288.91430,0.03213
4290.84277,0.03418
4292.77124,0.03817
4294.69970,0.03859
4296.62817,0.03798
4298.55664,0.03581
4300.48511,0.03289
4302.41358,0.03252
4304.34205,0.03405
4306.27052,0.03657
4308.19898,0.03792
4310.12745,0.03444
4312.05592,0.02928
4313.98439,0.02815
4315.91286,0.03157
4317.84133,0.03753
4319.76980,0.03985
4321.69827,0.03445
4323.62673,0.02899
4325.55520,0.02879
4327.48367,0.02986
4329.41214,0.03011
4331.34061,0.03068
4333.26908,0.03139
4335.19755,0.03144
4337.12601,0.03160
4339.05448,0.03355
4340.98295,0.03524
4342.91142,0.03182
4344.83989,0.02414
4346.76836,0.01863
4348.69683,0.01913
4350.62530,0.02304
4352.55376,0.02454
4354.48223,0.02454
4356.41070,0.02514
4358.33917,0.02368
4360.26764,0.02274
4362.19611,0.02317
4364.12458,0.02069
4366.05304,0.01705
4367.98151,0.01773
4369.90998,0.02119
4371.83845,0.02140
4373.76692,0.01963
4375.69539,0.01945
4377.62386,0.02038
4379.55232,0.02246
4381.48079,0.02652
4383.40926,0.03264
4385.33773,0.03779
4387.26620,0.03589
4389.19467,0.02717
4391.12314,0.02085
4393.05161,0.02151
4394.98007,0.02385
4396.90854,0.02218
4398.83701,0.01800
4400.76548,0.01693
4402.69395,0.01952
4404.62242,0.02400
4406.55089,0.02971
4408.47935,0.03251
4410.40782,0.03248
4412.33629,0.03200
4414.26476,0.02626
4416.19323,0.01799
4418.12170,0.01626
4420.05017,0.01813
4421.97864,0.01518
4423.90710,0.00848
4425.83557,0.00717
4427.76404,0.01407
4429.69251,0.02366
4431.62098,0.02918
4433.54945,0.02582
4435.47792,0.01987
4437.40638,0.01948
4439.33485,0.02014
4441.26332,0.01761
4443.19179,0.01653
4445.12026,0.02068
4447.04873,0.02528
4448.97720,0.02457
4450.90567,0.02201
4452.83413,0.02196
4454.76260,0.02187
4456.69107,0.01999
4458.61954,0.01737
4460.54801,0.01579
4462.47648,0.01802
4464.40495,0.02153
4466.33341,0.02214
4468.26188,0.01975
4470.19035,0.01223
4472.11882,0.00486
4474.04729,0.00853
4475.97576,0.01872
4477.90423,0.02370
4479.83270,0.02154
4481.76116,0.01712
4483.68963,0.01374
4485.61810,0.01107
4487.54657,0.00910
4489.47504,0.00864
4491.40351,0.01041
4493.33198,0.01367
4495.26044,0.01535
4497.18891,0.01299
4499.11738,0.00791
4501.04585,0.00337
4502.97432,0.00079
4504.90279,0.00016
4506.83126,0.00207
4508.75973,0.00817
4510.68819,0.01641
4512.61666,0.02019
4514.54513,0.01859
4516.47360,0.01908
4518.40207,0.02106
4520.33054,0.01531
4522.25901,0.00327
4524.18747,-0.00459
4526.11594,-0.00223
4528.04441,0.00460
4529.97288,0.00757
4531.90135,0.00895
4533.82982,0.01141
4535.75829,0.01274
4537.68676,0.01202
4539.61522,0.01087
4541.54369,0.00895
4543.47216,0.00559
4545.40063,0.00383
4547.32910,0.00146
4549.25757,-0.00384
4551.18604,-0.00637
4553.11450,-0.00358
4555.04297,0.00137
4556.97144,0.00674
4558.89991,0.01330
4560.82838,0.01922
4562.75685,0.01924
4564.68532,0.01300
4566.61378,0.00590
4568.54225,0.00010
4570.47072,-0.00344
4572.39919,-0.00171
4574.32766,0.00394
4576.25613,0.00688
4578.18460,0.00453
4580.11307,0.00251
4582.04153,0.00397
4583.97000,0.00574
4585.89847,0.00381
4587.82694,-0.00011
4589.75541,-0.00113
4591.68388,-0.00357
4593.61235,-0.00642
4595.54081,-0.00108
4597.46928,0.00620
4599.39775,0.00798
4601.32622,0.00696
4603.25469,0.00446
4605.18316,0.00055
4607.11163,-0.00297
4609.04010,-0.00328
4610.96856,0.00221
4612.89703,0.01036
4614.82550,0.01468
4616.75397,0.01623
4618.68244,0.01671
4620.61091,0.01419
4622.53938,0.01088
4624.46784,0.00740
4626.39631,0.00327
4628.32478,0.00108
4630.25325,0.00166
4632.18172,0.00274
4634.11019,0.00340
4636.03866,0.00416
4637.96713,0.00224
4639.89559,-0.00023
4641.82406,0.00170
4643.75253,0.00458
4645.68100,0.00296
4647.60947,-0.00253
4649.53794,-0.00462
4651.46641,-0.00331
4653.39487,-0.00352
4655.32334,-0.00209
4657.25181,0.00164
4659.18028,0.00473
4661.10875,0.00539
4663.03722,0.00420
4664.96569,0.00242
4666.89416,-0.00226
4668.82262,-0.00637
4670.75109,-0.00524
4672.67956,-0.00243
4674.60803,-0.00246
4676.53650,-0.00375
4678.46497,-0.00102
4680.39344,0.00451
4682.32190,0.00875
4684.25037,0.01075
4686.17884,0.01056
4688.10731,0.01236
4690.03578,0.01756
4691.96425,0.01858
4693.89272,0.01226
4695.82119,0.00646
4697.74965,0.00639
4699.67812,0.00854
4701.60659,0.01165
4703.53506,0.01567
4705.46353,0.01778
4707.39200,0.01544
4709.32047,0.01033
4711.24893,0.01059
4713.17740,0.01017
4715.10587,0.00044
4717.03434,-0.00239
4718.96281,0.00671
4720.89128,0.01348
4722.81975,0.01370
4724.74821,0.00919
4726.67668,0.00605
4728.60515,0.00850
4730.53362,0.00903
4732.46209,0.00299
4734.39056,-0.00227
4736.31903,-0.00283
4738.24750,-0.00475
4740.17596,-0.00537
4742.10443,0.00228
4744.03290,0.00983
4745.96137,0.00802
4747.88984,0.00036
4749.81831,-0.00587
4751.74678,-0.00589
4753.67524,0.00139
4755.60371,0.00967
4757.53218,0.01054
4759.46065,0.00875
4761.38912,0.01093
4763.31759,0.01023
4765.24606,0.00229
4767.17453,-0.00591
4769.10299,-0.00774
4771.03146,-0.00521
4772.95993,-0.00174
4774.88840,0.00216
4776.81687,0.00101
4778.74534,-0.00619
4780.67381,-0.01009
4782.60227,-0.00618
4784.53074,0.00086
4786.45921,0.00368
4788.38768,0.00090
4790.31615,0.00000
4792.24462,0.00374
4794.17309,0.00641
4796.10156,0.00714
4798.03002,0.00822
4799.95849,0.00890
4801.88696,0.00941
4803.81543,0.01107
4805.74390,0.01312
4807.67237,0.01151
4809.60084,0.00667
4811.52930,0.00532
4813.45777,0.00609
4815.38624,-0.00052
4817.31471,-0.00669
4819.24318,-0.00666
4821.17165,-0.00117
4823.10012,0.00486
4825.02859,0.00211
4826.95705,-0.00446
4828.88552,-0.00258
4830.81399,0.00634
4832.74246,0.01293
4834.67093,0.01089
4836.59940,0.00705
4838.52787,0.00740
4840.45633,0.00566
4842.38480,0.00231
4844.31327,0.00028
4846.24174,0.00297
4848.17021,0.00800
4850.09868,0.00860
4852.02715,0.00561
4853.95562,0.00400
4855.88408,0.00565
4857.81255,0.00413
4859.74102,-0.00322
4861.66949,-0.00700
4863.59796,-0.00666
4865.52643,-0.00572
4867.45490,-0.00418
4869.38336,-0.00582
4871.31183,-0.00736
4873.24030,-0.00233
4875.16877,0.00479
4877.09724,0.00750
4879.02571,0.00882
4880.95418,0.01171
4882.88265,0.01683
4884.81111,0.02216
4886.73958,0.02276
4888.66805,0.01525
4890.59652,0.00768
4892.52499,0.01134
4894.45346,0.02037
4896.38193,0.02088
4898.31039,0.01333
4900.23886,0.00868
4902.16733,0.01027
4904.09580,0.01044
4906.02427,0.00526
4907.95274,0.00526
4909.88121,0.00995
4911.80967,0.00588
4913.73814,-0.00217
4915.66661,-0.00420
4917.59508,-0.00328
4919.52355,0.00227
4921.45202,0.00957
4923.38049,0.00437
4925.30896,-0.00377
4927.23742,-0.00258
4929.16589,-0.00247
4931.09436,-0.00298
4933.02283,0.00076
4934.95130,0.00673
4936.87977,0.00666
4938.80824,-0.00049
4940.73670,0.00362
4942.66517,0.01757
4944.59364,0.02421
4946.52211,0.02268
4948.45058,0.01947
4950.37905,0.01371
4952.30752,0.00995
4954.23599,0.00852
4956.16445,0.00532
4958.09292,0.00357
4960.02139,0.00282
4961.94986,0.00291
4963.87833,0.00833
4965.80680,0.01431
4967.73527,0.01209
4969.66373,0.00608
4971.59220,-0.00264
4973.52067,-0.00967
4975.44914,-0.00021
4977.37761,0.01732
4979.30608,0.02756
4981.23455,0.02820
4983.16302,0.02151
4985.09148,0.01528
4987.01995,0.01326
4988.94842,0.00828
4990.87689,-0.00391
4992.80536,-0.01357
4994.73383,-0.01506
4996.66230,-0.01090
4998.59076,-0.00150
5000.51923,0.00891
5002.44770,0.01175
5004.37617,0.00216
5006.30464,-0.00943
5008.23311,-0.00820
5010.16158,0.00378
5012.09005,0.01521
5014.01851,0.02207
5015.94698,0.02431
5017.87545,0.01953
5019.80392,0.01329
5021.73239,0.01916
5023.66086,0.03264
5025.58933,0.03543
5027.51779,0.02989
5029.44626,0.02970
5031.37473,0.03043
5033.30320,0.02194
5035.23167,0.01371
5037.16014,0.01901
5039.08861,0.02628
5041.01708,0.02087
5042.94554,0.01120
5044.87401,0.00851
5046.80248,0.00896
5048.73095,0.00343
5050.65942,0.00012
5052.58789,0.00294
5054.51636,-0.00570
5056.44482,-0.02102
5058.37329,-0.02128
5060.30176,-0.00693
5062.23023,0.01043
5064.15870,0.02676
5066.08717,0.03094
5068.01564,0.01660
5069.94410,0.00556
5071.87257,0.00992
5073.80104,0.02053
5075.72951,0.02979
5077.65798,0.02904
5079.58645,0.01811
5081.51492,0.00998
5083.44339,0.00752
5085.37185,0.00539
5087.30032,0.00988
5089.22879,0.01980
5091.15726,0.02110
5093.08573,0.01516
5095.01420,0.01034
5096.94267,0.00477
5098.87113,-0.00546
5100.79960,-0.01494
5102.72807,-0.01538
5104.65654,-0.00895
5106.58501,-0.00097
5108.51348,0.01057
5110.44195,0.02617
5112.37042,0.03661
5114.29888,0.03671
5116.22735,0.03150
5118.15582,0.02328
5120.08429,0.01371
5122.01276,0.01124
5123.94123,0.01653
5125.86970,0.01652
5127.79816,0.01011
5129.72663,0.00790
5131.65510,0.01350
5133.58357,0.02622
5135.51204,0.03079
5137.44051,0.01373
5139.36898,-0.00259
5141.29745,0.00408
5143.22591,0.01810
5145.15438,0.02203
5147.08285,0.02112
5149.01132,0.02000
5150.93979,0.02262
5152.86826,0.03358
5154.79673,0.03981
5156.72519,0.03041
5158.65366,0.02132
5160.58213,0.02291
5162.51060,0.02078
5164.43907,0.00640
5166.36754,-0.00531
5168.29601,-0.00462
5170.22448,0.00105
5172.15294,0.00913
5174.08141,0.01157
5176.00988,0.00348
5177.93835,0.00766
5179.86682,0.02823
5181.79529,0.04246
5183.72376,0.04377
5185.65222,0.03873
5187.58069,0.03045
5189.50916,0.01605
5191.43763,0.00377
5193.36610,0.00519
5195.29457,0.01444
5197.22304,0.02546
5199.15151,0.03486
5201.07997,0.03611
5203.00844,0.03352
5204.93691,0.03596
5206.86538,0.04049
5208.79385,0.03500
5210.72232,0.02075
5212.65079,0.01373
5214.57925,0.01925
5216.50772,0.02628
5218.43619,0.03149
5220.36466,0.03695
5222.29313,0.03545
5224.22160,0.02323
5226.15007,0.01227
5228.07854,0.01540
5230.00700,0.02101
5231.93547,0.01565
5233.86394,0.00983
5235.79241,0.01331
5237.72088,0.01803
5239.64935,0.01910
5241.57782,0.01350
5243.50628,-0.00051
5245.43475,-0.01026
5247.36322,-0.00465
5249.29169,0.01043
5251.22016,0.02348
5253.14863,0.03191
5255.07710,0.02829
5257.00556,0.01453
5258.93403,0.01433
5260.86250,0.02578
5262.79097,0.02712
5264.71944,0.01770
5266.64791,0.01154
5268.57638,0.01416
5270.50485,0.01812
5272.43331,0.02151
5274.36178,0.03430
5276.29025,0.04913
5278.21872,0.04853
5280.14719,0.03723
5282.07566,0.03274
5284.00413,0.03979
5285.93259,0.04458
5287.86106,0.04067
5289.78953,0.03850
5291.71800,0.03349
5293.64647,0.02333
5295.57494,0.02464
5297.50341,0.03658
5299.43188,0.04404
5301.36034,0.04260
5303.28881,0.03416
5305.21728,0.02188
5307.14575,0.01252
5309.07422,0.00956
5311.00269,0.00914
5312.93116,0.01256
5314.85962,0.01815
5316.78809,0.01488
5318.71656,0.00600
5320.64503,0.00269
5322.57350,0.00893
5324.50197,0.02057
5326.43044,0.03016
5328.35891,0.03705
5330.28737,0.03293
5332.21584,0.01562
5334.14431,0.00285
5336.07278,0.00084
5338.00125,0.00686
5339.92972,0.01858
5341.85819,0.02461
5343.78665,0.02558
5345.71512,0.02654
5347.64359,0.02579
5349.57206,0.03221
5351.50053,0.04646
5353.42900,0.05683
5355.35747,0.06615
5357.28594,0.07190
5359.21440,0.06353
5361.14287,0.04939
5363.07134,0.04002
5364.99981,0.03725
5366.92828,0.03813
5368.85675,0.03652
5370.78522,0.03807
5372.71368,0.04102
5374.64215,0.03486
5376.57062,0.03000
5378.49909,0.03676
5380.42756,0.04039
5382.35603,0.03510
5384.28450,0.03309
5386.21297,0.04193
5388.14143,0.05581
5390.06990,0.05684
5391.99837,0.03756
5393.92684,0.02600
5395.85531,0.03728
5397.78378,0.04444
5399.71225,0.04506
5401.64071,0.05115
5403.56918,0.05348
5405.49765,0.04972
5407.42612,0.03927
5409.35459,0.02177
5411.28306,0.02348
5413.21153,0.05057
5415.13999,0.07126
5417.06846,0.06583
5418.99693,0.04804
5420.92540,0.04109
5422.85387,0.04259
5424.78234,0.03718
5426.71081,0.02088
5428.63928,0.01167
5430.56774,0.02380
5432.49621,0.04182
5434.42468,0.05664
5436.35315,0.06802
5438.28162,0.07078
5440.21009,0.05246
5442.13856,0.01965
5444.06702,0.00184
5445.99549,0.01178
5447.92396,0.03455
5449.85243,0.04564
5451.78090,0.04267
5453.70937,0.03839
5455.63784,0.04704
5457.56631,0.06348
5459.49477,0.06974
5461.42324,0.07787
5463.35171,0.08644
5465.28018,0.07992
5467.20865,0.07106
5469.13712,0.06629
5471.06559,0.05959
5472.99405,0.05654
5474.92252,0.05657
5476.85099,0.05270
5478.77946,0.05489
5480.70793,0.06383
5482.63640,0.06369
5484.56487,0.05208
5486.49334,0.03478
5488.42180,0.01336
5490.35027,-0.00064
5492.27874,0.01069
5494.20721,0.03658
5496.13568,0.05289
5498.06415,0.05552
5499.99262,0.03945
5501.92108,0.01722
5503.84955,0.01804
5505.77802,0.04037
5507.70649,0.05377
5509.63496,0.05447
5511.56343,0.06508
5513.49190,0.07081
5515.42037,0.05842
5517.34883,0.05892
5519.27730,0.07329
5521.20577,0.07537
5523.13424,0.06757
5525.06271,0.05589
5526.99118,0.04716
5528.91965,0.04755
5530.84811,0.04447
5532.77658,0.03719
5534.70505,0.03388
5536.63352,0.03325
5538.56199,0.03218
5540.49046,0.02521
5542.41893,0.01852
5544.34740,0.02990
5546.27586,0.04890
5548.20433,0.05391
5550.13280,0.05963
5552.06127,0.07303
5553.98974,0.07902
5555.91821,0.07748
5557.84668,0.06967
5559.77514,0.05895
5561.70361,0.05763
5563.63208,0.06277
5565.56055,0.06502
5567.48902,0.06262
5569.41749,0.05078
5571.34596,0.04293
5573.27443,0.04814
5575.20289,0.04444
5577.13136,0.03270
5579.05983,0.03507
5580.98830,0.06037
5582.91677,0.08243
5584.84524,0.07438
5586.77371,0.05375
5588.70217,0.04518
5590.63064,0.05762
5592.55911,0.06121
5594.48758,0.03740
5596.41605,0.02100
5598.34452,0.01930
5600.27299,0.01978
5602.20145,0.02670
5604.12992,0.03146
5606.05839,0.02567
5607.98686,0.01129
5609.91533,0.00144
5611.84380,0.00968
5613.77227,0.02478
5615.70074,0.03231
5617.62920,0.03777
5619.55767,0.04793
5621.48614,0.05896
5623.41461,0.05904
5625.34308,0.05217
5627.27155,0.05727
5629.20002,0.06564
5631.12848,0.06700
5633.05695,0.07215
5634.98542,0.07198
5636.91389,0.04962
5638.84236,0.01964
5640.77083,0.00757
5642.69930,0.01715
5644.62777,0.04192
5646.55623,0.06717
5648.48470,0.05790
5650.41317,0.02049
5652.34164,0.01519
5654.27011,0.04558
5656.19858,0.06277
5658.12705,0.06003
5660.05551,0.05453
5661.98398,0.05186
5663.91245,0.05727
5665.84092,0.07037
5667.76939,0.07878
5669.69786,0.07029
5671.62633,0.05479
5673.55480,0.05240
5675.48326,0.06296
5677.41173,0.08374
5679.34020,0.10031
5681.26867,0.08310
5683.19714,0.05374
5685.12561,0.04818
5687.05408,0.04708
5688.98254,0.04301
5690.91101,0.05856
5692.83948,0.08818
5694.76795,0.11340
5696.69642,0.11766
5698.62489,0.10114
5700.55336,0.08480
5702.48183,0.07594
5704.41029,0.07767
5706.33876,0.08495
5708.26723,0.08092
5710.19570,0.05951
5712.12417,0.03087
5714.05264,0.01695
5715.98111,0.02163
5717.90957,0.03880
5719.83804,0.06727
5721.76651,0.09057
5723.69498,0.09838
5725.62345,0.09032
5727.55192,0.07848
5729.48039,0.08249
5731.40886,0.08414
5733.33732,0.07089
5735.26579,0.07403
5737.19426,0.09802
5739.12273,0.09388
5741.05120,0.05003
5742.97967,0.01696
5744.90814,0.02254
5746.83660,0.03635
5748.76507,0.03041
5750.69354,0.01966
5752.62201,0.02373
5754.55048,0.03598
5756.47895,0.03609
5758.40742,0.02767
5760.33588,0.03369
5762.26435,0.04035
5764.19282,0.02725
5766.12129,0.02766
5768.04976,0.05729
5769.97823,0.06908
5771.90670,0.04743
5773.83517,0.02862
5775.76363,0.02496
5777.69210,0.03663
5779.62057,0.05434
5781.54904,0.05808
5783.47751,0.04389
5785.40598,0.02372
5787.33445,0.02367
5789.26291,0.04478
5791.19138,0.07022
5793.11985,0.08014
5795.04832,0.05221
5796.97679,0.01906
5798.90526,0.02503
5800.83373,0.04910
5802.76220,0.06071
5804.69066,0.06804
5806.61913,0.08179
5808.54760,0.08664
5810.47607,0.06970
5812.40454,0.04590
5814.33301,0.03399
5816.26148,0.03808
5818.18994,0.06134
5820.11841,0.08148
5822.04688,0.07945
5823.97535,0.07386
5825.90382,0.07264
5827.83229,0.05790
5829.76076,0.02102
5831.68923,-0.00927
5833.61769,-0.02101
5835.54616,-0.01760
5837.47463,0.00562
5839.40310,0.03264
5841.33157,0.05307
5843.26004,0.06501
5845.18851,0.06967
5847.11697,0.06985
5849.04544,0.05529
5850.97391,0.03980
5852.90238,0.03906
5854.83085,0.03913
5856.75932,0.04520
5858.68779,0.07044
5860.61626,0.08953
5862.54472,0.08506
5864.47319,0.08022
5866.40166,0.07982
5868.33013,0.06974
5870.25860,0.05748
5872.18707,0.04141
5874.11554,0.02247
5876.04400,0.03011
5877.97247,0.06130
5879.90094,0.08164
5881.82941,0.08036
5883.75788,0.07611
5885.68635,0.07865
5887.61482,0.06527
5889.54329,0.03255
5891.47175,0.00501
5893.40022,0.00110
5895.32869,0.02321
5897.25716,0.04676
5899.18563,0.04640
5901.11410,0.03055
5903.04257,0.02657
5904.97103,0.04568
5906.89950,0.06554
5908.82797,0.06924
5910.75644,0.07370
5912.68491,0.08108
5914.61338,0.07418
5916.54185,0.04885
5918.47032,0.01955
5920.39878,0.02365
5922.32725,0.06053
5924.25572,0.08372
5926.18419,0.08716
5928.11266,0.09630
5930.04113,0.09428
5931.96960,0.05246
5933.89806,0.00694
5935.82653,0.01961
5937.75500,0.05802
5939.68347,0.05785
5941.61194,0.03194
5943.54041,0.01513
5945.46888,0.01109
5947.39734,0.01886
5949.32581,0.03288
5951.25428,0.03831
5953.18275,0.04661
5955.11122,0.06571
5957.03969,0.06482
5958.96816,0.04020
5960.89663,0.03560
5962.82509,0.05850
5964.75356,0.06822
5966.68203,0.04367
5968.61050,0.00903
5970.53897,0.00239
5972.46744,0.02063
5974.39591,0.03138
5976.32437,0.02782
5978.25284,0.03546
5980.18131,0.06839
5982.10978,0.09190
5984.03825,0.08503
5985.96672,0.07403
5987.89519,0.06947
5989.82366,0.07279
5991.75212,0.07989
5993.68059,0.07340
5995.60906,0.06248
5997.53753,0.06848
5999.46600,0.07725
6001.39447,0.06924
6003.32294,0.04864
6005.25140,0.02934
6007.17987,0.02330
6009.10834,0.01614
6011.03681,-0.00192
6012.96528,0.00700
6014.89375,0.05214
6016.82222,0.09236
6018.75069,0.10449
6020.67915,0.08968
6022.60762,0.05653
6024.53609,0.03565
6026.46456,0.05221
6028.39303,0.07317
6030.32150,0.05726
6032.24997,0.03818
6034.17843,0.03461
6036.10690,0.01873
6038.03537,0.01401
6039.96384,0.04345
6041.89231,0.07157
6043.82078,0.07330
6045.74925,0.06547
6047.67772,0.06403
6049.60618,0.06390
6051.53465,0.06807
6053.46312,0.07256
6055.39159,0.06748
6057.32006,0.08173
6059.24853,0.10891
6061.17700,0.10207
6063.10546,0.07371
6065.03393,0.04829
6066.96240,0.02884
6068.89087,0.03346
6070.81934,0.05550
6072.74781,0.06890
6074.67628,0.08051
6076.60475,0.09928
6078.53321,0.10758
6080.46168,0.08494
6082.39015,0.03933
6084.31862,0.01373
6086.24709,0.03784
6088.17556,0.08596
6090.10403,0.09757
6092.03249,0.05772
6093.96096,0.02725
6095.88943,0.02672
6097.81790,0.01375
6099.74637,0.00385
6101.67484,0.02266
6103.60331,0.03436
6105.53177,0.03182
6107.46024,0.03440
6109.38871,0.04270
6111.31718,0.05432
6113.24565,0.05753
6115.17412,0.05668
6117.10259,0.05304
6119.03106,0.04154
6120.95952,0.04197
6122.88799,0.05358
6124.81646,0.05964
6126.74493,0.04142
6128.67340,0.00896
6130.60187,0.01263
6132.53034,0.05331
6134.45880,0.08057
6136.38727,0.07212
6138.31574,0.04418
6140.24421,0.00426
6142.17268,-0.03310
6144.10115,-0.02784
6146.02962,0.01574
6147.95809,0.03978
6149.88655,0.02133
6151.81502,0.00279
6153.74349,0.00800
6155.67196,0.01711
6157.60043,0.02161
6159.52890,0.03235
6161.45737,0.05448
6163.38583,0.04968
6165.31430,0.01388
6167.24277,0.01521
6169.17124,0.06945
6171.09971,0.12657
6173.02818,0.13583
6174.95665,0.09112
6176.88512,0.04205
6178.81358,0.02615
6180.74205,0.01851
6182.67052,0.03073
6184.59899,0.08044
6186.52746,0.10075
6188.45593,0.05663
6190.38440,0.02492
6192.31286,0.04925
6194.24133,0.07476
6196.16980,0.05581
6198.09827,0.02509
6200.02674,0.01298
6201.95521,0.01899
6203.88368,0.04588
6205.81215,0.07608
6207.74061,0.08521
6209.66908,0.06167
6211.59755,0.01432
6213.52602,-0.02606
6215.45449,-0.04261
6217.38296,-0.01571
6219.31143,0.04354
6221.23989,0.08131
6223.16836,0.09088
6225.09683,0.08562
6227.02530,0.04529
6228.95377,0.00226
6230.88224,0.00453
6232.81071,0.04882
6234.73918,0.09515
6236.66764,0.10187
6238.59611,0.06419
6240.52458,0.00903
6242.45305,-0.00859
6244.38152,0.02872
6246.30999,0.05197
6248.23846,0.04749
6250.16692,0.06958
6252.09539,0.09324
6254.02386,0.07809
6255.95233,0.04740
6257.88080,0.02848
6259.80927,0.02325
6261.73774,0.02295
6263.66621,0.04706
6265.59467,0.08243
6267.52314,0.05723
6269.45161,-0.00456
6271.38008,-0.01804
6273.30855,0.02530
6275.23702,0.07729
6277.16549,0.08775
6279.09395,0.04962
6281.02242,0.02905
6282.95089,0.07379
6284.87936,0.12794
6286.80783,0.12856
6288.73630,0.09889
6290.66477,0.07235
6292.59323,0.05073
6294.52170,0.03224
6296.45017,0.00696
6298.37864,-0.00298
6300.30711,0.02928
6302.23558,0.07062
6304.16405,0.07932
6306.09252,0.07451
6308.02098,0.09174
6309.94945,0.10777
6311.87792,0.08924
6313.80639,0.06968
6315.73486,0.07607
6317.66333,0.07829
6319.59180,0.05190
6321.52026,0.01479
6323.44873,0.00704
6325.37720,0.02336
6327.30567,0.02905
6329.23414,0.03793
6331.16261,0.04598
6333.09108,0.03077
6335.01955,0.02036
6336.94801,0.03097
6338.87648,0.05119
6340.80495,0.06174
6342.73342,0.06565
6344.66189,0.08554
6346.59036,0.12039
6348.51883,0.13921
6350.44729,0.10577
6352.37576,0.04230
6354.30423,0.00136
6356.23270,-0.01274
6358.16117,-0.00316
6360.08964,0.02204
6362.01811,0.04390
6363.94658,0.06310
6365.87504,0.08050
6367.80351,0.06346
6369.73198,0.00689
6371.66045,-0.02738
6373.58892,0.00096
6375.51739,0.04470
6377.44586,0.05463
6379.37432,0.05288
6381.30279,0.05844
6383.23126,0.04441
6385.15973,0.01012
6387.08820,-0.02224
6389.01667,-0.03486
6390.94514,-0.00967
6392.87361,0.05101
6394.80207,0.10836
6396.73054,0.10171
6398.65901,0.05464
6400.58748,0.03592
6402.51595,0.06595
6404.44442,0.11136
6406.37289,0.12368
6408.30135,0.08232
6410.22982,0.02611
6412.15829,0.00633
6414.08676,-0.00000
6416.01523,-0.02332
6417.94370,-0.00960
6419.87217,0.05036
6421.80064,0.07948
6423.72910,0.06713
6425.65757,0.04875
6427.58604,0.05486
6429.51451,0.07887
6431.44298,0.06276
6433.37145,0.01393
6435.29992,-0.00672
6437.22838,-0.00450
6439.15685,0.00461
6441.08532,0.00775
6443.01379,-0.01319
6444.94226,-0.01945
6446.87073,0.01378
6448.79920,0.04396
6450.72766,0.05244
6452.65613,0.04292
6454.58460,0.01453
6456.51307,-0.01265
6458.44154,-0.01752
6460.37001,0.00199
6462.29848,0.04431
6464.22695,0.07946
6466.15541,0.06969
6468.08388,0.03779
6470.01235,0.02598
6471.94082,0.03392
6473.86929,0.03750
6475.79776,0.01475
6477.72623,-0.02099
6479.65469,-0.03008
6481.58316,-0.00979
6483.51163,0.00801
6485.44010,0.02127
6487.36857,0.04241
6489.29704,0.06132
6491.22551,0.07298
6493.15398,0.07899
6495.08244,0.08017
6497.01091,0.07479
6498.93938,0.04954
6500.86785,0.01611
6502.79632,0.00786
6504.72479,0.01895
6506.65326,0.03773
6508.58172,0.05526
6510.51019,0.06596
6512.43866,0.07787
6514.36713,0.08360
6516.29560,0.08594
6518.22407,0.06337
6520.15254,0.01114
6522.08101,-0.00672
6524.00947,0.02884
6525.93794,0.05306
6527.86641,0.04424
6529.79488,0.05145
6531.72335,0.07603
6533.65182,0.06268
6535.58029,0.03285
6537.50875,0.05966
6539.43722,0.11183
6541.36569,0.13119
6543.29416,0.12058
6545.22263,0.09540
6547.15110,0.10268
6549.07957,0.13821
6551.00804,0.12345
6552.93650,0.06818
6554.86497,0.04968
6556.79344,0.05814
6558.72191,0.04667
6560.65038,0.03530
6562.57885,0.07532
6564.50732,0.15758
6566.43578,0.19108
6568.36425,0.14169
6570.29272,0.10681
6572.22119,0.12555
6574.14966,0.12625
6576.07813,0.08459
6578.00660,0.03368
6579.93507,0.01664
6581.86353,0.04647
6583.79200,0.08592
6585.72047,0.09214
6587.64894,0.07395
6589.57741,0.06767
6591.50588,0.05395
6593.43435,0.03723
6595.36281,0.05751
6597.29128,0.07421
6599.21975,0.09155
6601.14822,0.12409
6603.07669,0.11346
6605.00516,0.06789
6606.93363,0.04047
6608.86210,0.03815
6610.79056,0.05259
6612.71903,0.07498
6614.64750,0.04113
6616.57597,-0.03416
6618.50444,-0.04132
6620.43291,-0.00464
6622.36138,0.00987
6624.28984,0.00620
6626.21831,-0.00989
6628.14678,-0.03210
6630.07525,-0.02658
6632.00372,0.00886
6633.93219,0.01381
6635.86066,-0.03109
6637.78912,-0.05001
6639.71759,-0.02168
6641.64606,0.00234
6643.57453,0.02046
6645.50300,0.06419
6647.43147,0.08104
6649.35994,0.02496
6651.28841,-0.00237
6653.21687,0.05761
6655.14534,0.13989
6657.07381,0.16873
6659.00228,0.12583
6660.93075,0.06991
6662.85922,0.06027
6664.78769,0.07205
6666.71615,0.05923
6668.64462,0.05213
6670.57309,0.06075
6672.50156,0.04093
6674.43003,0.01994
6676.35850,0.03386
6678.28697,0.06376
6680.21544,0.06662
6682.14390,0.02279
6684.07237,-0.00099
6686.00084,0.04287
6687.92931,0.08267
6689.85778,0.09382
6691.78625,0.12564
6693.71472,0.16291
6695.64318,0.17752
6697.57165,0.12976
6699.50012,0.03191
6701.42859,-0.00854
6703.35706,0.04802
6705.28553,0.12688
6707.21400,0.17046
6709.14247,0.15770
6711.07093,0.08743
6712.99940,0.00410
6714.92787,-0.04160
6716.85634,-0.04370
6718.78481,-0.03179
6720.71328,-0.00862
6722.64175,0.03732
6724.57021,0.07778
6726.49868,0.09938
6728.42715,0.10191
6730.35562,0.06428
6732.28409,0.03368
6734.21256,0.04672
6736.14103,0.05432
6738.06950,0.07405
6739.99796,0.14606
6741.92643,0.18939
6743.85490,0.13685
6745.78337,0.06484
6747.71184,0.03693
6749.64031,0.04561
6751.56878,0.05479
6753.49724,0.06007
6755.42571,0.07280
6757.35418,0.06847
6759.28265,0.05155
6761.21112,0.04957
6763.13959,0.04558
6765.06806,0.04561
6766.99653,0.05377
6768.92499,0.04389
6770.85346,0.02172
6772.78193,0.00887
6774.71040,0.01119
6776.63887,0.01607
6778.56734,0.01966
6780.49581,0.05299
6782.42427,0.08771
6784.35274,0.06229
6786.28121,0.01796
6788.20968,0.00192
6790.13815,-0.00765
6792.06662,-0.00414
6793.99509,0.00154
6795.92355,-0.03123
6797.85202,-0.04620
6799.78049,0.00824
6801.70896,0.07446
6803.63743,0.07607
6805.56590,0.02489
6807.49437,0.00092
6809.42284,0.03475
6811.35130,0.09571
6813.27977,0.13017
6815.20824,0.10987
6817.13671,0.06181
6819.06518,0.01485
6820.99365,-0.02533
6822.92212,-0.03492
6824.85058,-0.00971
6826.77905,0.00503
6828.70752,-0.00378
6830.63599,0.02744
6832.56446,0.11712
6834.49293,0.15466
6836.42140,0.07552
6838.34987,-0.00318
6840.27833,0.00139
6842.20680,0.01490
6844.13527,-0.02840
6846.06374,-0.08748
6847.99221,-0.09990
6849.92068,-0.04866
6851.84915,0.00917
6853.77761,0.03785
6855.70608,0.07890
6857.63455,0.09820
6859.56302,0.05330
6861.49149,0.02041
6863.41996,0.04576
6865.34843,0.06076
6867.27690,-0.00009
6869.20536,-0.06661
6871.13383,-0.06497
6873.06230,-0.04191
6874.99077,-0.02168
6876.91924,0.03479
6878.84771,0.07904
6880.77618,0.04207
6882.70464,-0.01236
6884.63311,-0.03048
6886.56158,-0.02682
6888.49005,-0.01752
6890.41852,0.00866
6892.34699,0.06714
6894.27546,0.14230
6896.20393,0.18069
6898.13239,0.10723
6900.06086,-0.00968
6901.98933,-0.06022
6903.91780,-0.03258
6905.84627,0.03016
6907.77474,0.05530
6909.70321,0.02040
6911.63167,-0.03704
6913.56014,-0.04386
6915.48861,0.00135
6917.41708,0.06756
6919.34555,0.13955
6921.27402,0.12748
6923.20249,0.02709
6925.13096,-0.03950
6927.05942,-0.02446
6928.98789,-0.00945
6930.91636,-0.01895
6932.84483,0.00661
6934.77330,0.04454
6936.70177,0.06577
6938.63024,0.05103
6940.55870,-0.01077
6942.48717,-0.05754
6944.41564,-0.02825
6946.34411,0.06639
6948.27258,0.14320
6950.20105,0.15916
6952.12952,0.11866
6954.05799,0.04076
6955.98645,0.01379
6957.91492,0.07906
6959.84339,0.14441
6961.77186,0.14002
6963.70033,0.08540
6965.62880,0.04127
6967.55727,0.06356
6969.48573,0.12164
6971.41420,0.12561
6973.34267,0.07819
6975.27114,0.04005
6977.19961,0.03664
6979.12808,0.06391
6981.05655,0.10553
6982.98501,0.11949
6984.91348,0.09365
6986.84195,0.07954
6988.77042,0.11635
6990.69889,0.14593
6992.62736,0.11218
6994.55583,0.04201
6996.48430,-0.06548
6998.41276,-0.18942
7000.34123,-0.19211
7002.26970,-0.07439
7004.19817,0.01679
7006.12664,0.06943
7008.05511,0.08499
7009.98358,0.06293
7011.91204,0.08840
7013.84051,0.12175
7015.76898,0.06539
7017.69745,-0.00093
7019.62592,0.00744
7021.55439,0.05966
7023.48286,0.08993
7025.41133,0.10467
7027.33979,0.10392
7029.26826,0.04706
7031.19673,0.03880
7033.12520,0.13280
7035.05367,0.21863
7036.98214,0.23030
7038.91061,0.20851
7040.83907,0.17319
7042.76754,0.11680
7044.69601,0.07361
7046.62448,0.06782
7048.55295,0.03658
7050.48142,-0.03245
7052.40989,-0.05688
7054.33836,-0.03274
7056.26682,-0.05034
7058.19529,-0.08066
7060.12376,-0.05337
7062.05223,-0.00298
7063.98070,0.04607
7065.90917,0.08380
7067.83764,0.12778
7069.76610,0.19764
7071.69457,0.25146
7073.62304,0.20838
7075.55151,0.10445
7077.47998,0.04631
7079.40845,0.07916
7081.33692,0.14451
7083.26539,0.12974
7085.19385,0.08024
7087.12232,0.09255
7089.05079,0.14067
7090.97926,0.18050
7092.90773,0.24396
7094.83620,0.22821
7096.76467,0.07664
7098.69313,-0.04929
7100.62160,-0.05894
7102.55007,-0.00214
7104.47854,0.05035
7106.40701,0.03428
7108.33548,0.04046
7110.26395,0.09548
7112.19242,0.10582
7114.12088,0.05075
7116.04935,-0.02722
7117.97782,-0.01920
7119.90629,0.10760
7121.83476,0.17307
7123.76323,0.11811
7125.69170,0.08269
7127.62016,0.09979
7129.54863,0.03410
7131.47710,-0.05444
7133.40557,0.00402
7135.33404,0.13154
7137.26251,0.16549
7139.19098,0.10273
7141.11944,0.04643
7143.04791,0.05052
7144.97638,0.08470
7146.90485,0.09795
7148.83332,0.08878
7150.76179,0.07357
7152.69026,0.05273
7154.61873,0.06866
7156.54719,0.12866
7158.47566,0.14931
7160.40413,0.08799
7162.33260,0.03239
7164.26107,0.06782
7166.18954,0.11241
7168.11801,0.07743
7170.04647,0.03673
7171.97494,0.07913
7173.90341,0.15575
7175.83188,0.17479
7177.76035,0.13969
7179.68882,0.10735
7181.61729,0.06365
7183.54576,0.03148
7185.47422,0.07640
7187.40269,0.13302
7189.33116,0.14211
7191.25963,0.11529
7193.18810,0.09702
7195.11657,0.13586
7197.04504,0.17863
7198.97350,0.10874
7200.90197,0.00058
7202.83044,-0.03835
7204.75891,-0.04611
7206.68738,-0.04822
7208.61585,-0.01929
7210.54432,-0.00472
7212.47279,0.00137
7214.40125,0.04854
7216.32972,0.11043
7218.25819,0.07988
7220.18666,-0.01197
7222.11513,-0.04141
7224.04360,-0.02768
7225.97207,0.01609
7227.90053,0.08350
7229.82900,0.13694
7231.75747,0.18512
7233.68594,0.18086
7235.61441,0.13521
7237.54288,0.12295
7239.47135,0.11509
7241.39982,0.07570
7243.32828,0.02826
7245.25675,0.03411
7247.18522,0.06874
7249.11369,0.06876
7251.04216,0.07530
7252.97063,0.09146
7254.89910,0.01114
7256.82756,-0.09331
7258.75603,-0.11277
7260.68450,0.00165
7262.61297,0.11518
7264.54144,0.06234
7266.46991,-0.06560
7268.39838,-0.11540
7270.32685,-0.06994
7272.25531,-0.00544
7274.18378,-0.01516
7276.11225,-0.05139
7278.04072,-0.00405
7279.96919,0.12090
7281.89766,0.13817
7283.82613,0.08915
7285.75459,0.09124
7287.68306,0.09202
7289.61153,0.01969
7291.54000,-0.04273
7293.46847,0.04190
7295.39694,0.15650
7297.32541,0.15710
7299.25387,0.12708
7301.18234,0.10335
7303.11081,0.05683
7305.03928,0.08680
7306.96775,0.26668
7308.89622,0.44907
7310.82469,0.44967
7312.75316,0.36529
7314.68162,0.26203
7316.61009,0.13082
7318.53856,0.04923
7320.46703,0.01593
7322.39550,-0.00047
7324.32397,-0.00201
7326.25244,0.01008
7328.18090,0.01546
7330.10937,-0.05733
7332.03784,-0.09091
7333.96631,-0.04322
7335.89478,-0.06091
7337.82325,-0.06049
7339.75172,0.13380
7341.68019,0.23677
7343.60865,0.09999
7345.53712,-0.09804
7347.46559,-0.29850
7349.39406,-0.34272
7351.32253,-0.18171
7353.25100,0.00190
7355.17947,0.06268
7357.10793,0.01887
7359.03640,0.01763
7360.96487,0.14539
7362.89334,0.23075
7364.82181,0.14935
7366.75028,0.05888
7368.67875,0.10394
7370.60722,0.16834
7372.53568,0.17534
7374.46415,0.18940
7376.39262,0.12007
7378.32109,-0.05642
7380.24956,-0.13662
7382.17803,-0.00503
7384.10650,0.13789
7386.03496,0.13778
7387.96343,0.09006
7389.89190,0.04179
7391.82037,-0.05656
7393.74884,-0.14471
7395.67731,-0.13591
7397.60578,-0.05690
7399.53425,0.02852
7401.46271,0.06656
7403.39118,0.06891
7405.31965,0.09661
7407.24812,0.10065
7409.17659,0.05008
7411.10506,0.00141
7413.03353,0.01761
7414.96199,0.07763
7416.89046,0.15217
7418.81893,0.19808
7420.74740,0.12626
7422.67587,0.00373
7424.60434,-0.03358
7426.53281,0.00018
7428.46128,-0.00792
7430.38974,-0.07487
7432.31821,-0.08577
7434.24668,-0.01172
7436.17515,0.10694
7438.10362,0.18568
7440.03209,0.19592
7441.96056,0.21282
7443.88902,0.23970
7445.81749,0.19600
7447.74596,0.08590
7449.67443,-0.01651
7451.60290,0.00292
7453.53137,0.14569
7455.45984,0.23353
7457.38831,0.21879
7459.31677,0.17458
7461.24524,0.21088
7463.17371,0.26603
7465.10218,0.18247
7467.03065,0.05056
7468.95912,0.02718
7470.88759,0.05760
7472.81605,0.03620
7474.74452,-0.00734
7476.67299,0.04294
7478.60146,0.18753
7480.52993,0.22022
7482.45840,0.04233
7484.38687,-0.14578
7486.31533,-0.19086
7488.24380,-0.07744
7490.17227,0.07997
7492.10074,0.13525
7494.02921,0.11579
7495.95768,0.07122
7497.88615,-0.01696
