399.19301,-0.15266
401.12148,0.01595
403.04995,0.11158
404.97842,0.03172
406.90689,-0.02702
408.83536,0.05095
410.76382,0.11899
412.69229,0.12649
414.62076,0.14223
416.54923,0.09608
418.47770,0.01756
420.40617,0.07044
422.33464,0.09366
424.26311,0.00227
426.19157,-0.03672
428.12004,0.05101
430.04851,0.15402
431.97698,0.17982
433.90545,0.18975
435.83392,0.18266
437.76239,0.12358
439.69085,0.07113
441.61932,0.07212
443.54779,0.09745
445.47626,0.11171
447.40473,0.10501
449.33320,0.08173
451.26167,0.09548
453.19013,0.14491
455.11860,0.19372
457.04707,0.24985
458.97554,0.26447
460.90401,0.19165
462.83248,0.10328
464.76095,0.07882
466.68942,0.08561
468.61788,0.07872
470.54635,0.10490
472.47482,0.15751
474.40329,0.14052
476.33176,0.10828
478.26023,0.11793
480.18870,0.13055
482.11716,0.13079
484.04563,0.11227
485.97410,0.08461
487.90257,0.06962
489.83104,0.07874
491.75951,0.09774
493.68798,0.08615
495.61645,0.05055
497.54491,0.03390
499.47338,0.04438
501.40185,0.07601
503.33032,0.11681
505.25879,0.13632
507.18726,0.11518
509.11573,0.07853
511.04419,0.06572
512.97266,0.07551
514.90113,0.09287
516.82960,0.09974
518.75807,0.08652
520.68654,0.08198
522.61501,0.09301
524.54348,0.09397
526.47194,0.09935
528.40041,0.12025
530.32888,0.11609
532.25735,0.08485
534.18582,0.06652
536.11429,0.06130
538.04276,0.05176
539.97122,0.05161
541.89969,0.07320
543.82816,0.09704
545.75663,0.10477
547.68510,0.10506
549.61357,0.10405
551.54204,0.14065
553.47051,0.20114
555.39897,0.18603
557.32744,0.11981
559.25591,0.09986
561.18438,0.11745
563.11285,0.13124
565.04132,0.12853
566.96979,0.11943
568.89825,0.11811
570.82672,0.11967
572.75519,0.12132
574.68366,0.13136
576.61213,0.13473
578.54060,0.11842
580.46907,0.10822
582.39754,0.11254
584.32600,0.11192
586.25447,0.10326
588.18294,0.08808
590.11141,0.07109
592.03988,0.07669
593.96835,0.10305
595.89682,0.11660
597.82528,0.11972
599.75375,0.12967
601.68222,0.13308
603.61069,0.11703
605.53916,0.10731
607.46763,0.11980
609.39610,0.13427
611.32456,0.13974
613.25303,0.13232
615.18150,0.11535
617.10997,0.10330
619.03844,0.09075
620.96691,0.08118
622.89538,0.08892
624.82385,0.09778
626.75231,0.09706
628.68078,0.10084
630.60925,0.11217
632.53772,0.11963
634.46619,0.11422
636.39466,0.10173
638.32313,0.10207
640.25159,0.12099
642.18006,0.13539
644.10853,0.13103
646.03700,0.12697
647.96547,0.13561
649.89394,0.13739
651.82241,0.12900
653.75088,0.13256
655.67934,0.14082
657.60781,0.13506
659.53628,0.12552
661.46475,0.11830
663.39322,0.10844
665.32169,0.10089
667.25016,0.09478
669.17862,0.09589
671.10709,0.11244
673.03556,0.12974
674.96403,0.14414
676.89250,0.15514
678.82097,0.15672
680.74944,0.14703
682.67791,0.13646
684.60637,0.13536
686.53484,0.14043
688.46331,0.14062
690.39178,0.14059
692.32025,0.14355
694.24872,0.14005
696.17719,0.13410
698.10565,0.12709
700.03412,0.11535
701.96259,0.11144
703.89106,0.11823
705.81953,0.12604
707.74800,0.13352
709.67647,0.12973
711.60494,0.11210
713.53340,0.10855
715.46187,0.12472
717.39034,0.13540
719.31881,0.13438
721.24728,0.13161
723.17575,0.13324
725.10422,0.13740
727.03268,0.14001
728.96115,0.14218
730.88962,0.14170
732.81809,0.13695
734.74656,0.13449
736.67503,0.13615
738.60350,0.13709
740.53197,0.13388
742.46043,0.13160
744.38890,0.13410
746.31737,0.13594
748.24584,0.13767
750.17431,0.13894
752.10278,0.13605
754.03125,0.13532
755.95971,0.13895
757.88818,0.14099
759.81665,0.14261
761.74512,0.14499
763.67359,0.14165
765.60206,0.13446
767.53053,0.13068
769.45900,0.12950
771.38746,0.12901
773.31593,0.12756
775.24440,0.12838
777.17287,0.13472
779.10134,0.13931
781.02981,0.13967
782.95828,0.14047
784.88674,0.14430
786.81521,0.14871
788.74368,0.14889
790.67215,0.14710
792.60062,0.14609
794.52909,0.14328
796.45756,0.13828
798.38602,0.13353
800.31449,0.13047
802.24296,0.12842
804.17143,0.12581
806.09990,0.12619
808.02837,0.13298
809.95684,0.13999
811.88531,0.13643
813.81377,0.12389
815.74224,0.12113
817.67071,0.13360
819.59918,0.14717
821.52765,0.15229
823.45612,0.14891
825.38459,0.14362
827.31305,0.14128
829.24152,0.14372
831.16999,0.14978
833.09846,0.15543
835.02693,0.15995
836.95540,0.15740
838.88387,0.14623
840.81234,0.13969
842.74080,0.14052
844.66927,0.14197
846.59774,0.14637
848.52621,0.15157
850.45468,0.14787
852.38315,0.13575
854.31162,0.12552
856.24008,0.12357
858.16855,0.12891
860.09702,0.13469
862.02549,0.13312
863.95396,0.13071
865.88243,0.13485
867.81090,0.13776
869.73937,0.13506
871.66783,0.13500
873.59630,0.14305
875.52477,0.14983
877.45324,0.14689
879.38171,0.13681
881.31018,0.12863
883.23865,0.13182
885.16711,0.14308
887.09558,0.15087
889.02405,0.14689
890.95252,0.13678
892.88099,0.13343
894.80946,0.13569
896.73793,0.13656
898.66640,0.13567
900.59486,0.13914
902.52333,0.14931
904.45180,0.15523
906.38027,0.15555
908.30874,0.15943
910.23721,0.16113
912.16568,0.15761
914.09414,0.15686
916.02261,0.15538
917.95108,0.14941
919.87955,0.14709
921.80802,0.14979
923.73649,0.15109
925.66496,0.15210
927.59343,0.15532
929.52189,0.15771
931.45036,0.15834
933.37883,0.15682
935.30730,0.15105
937.23577,0.14601
939.16424,0.14704
941.09271,0.14727
943.02117,0.14482
944.94964,0.14860
946.87811,0.15509
948.80658,0.15517
950.73505,0.15277
952.66352,0.15155
954.59199,0.14775
956.52045,0.14091
958.44892,0.13586
960.37739,0.13825
962.30586,0.14684
964.23433,0.15277
966.16280,0.15368
968.09127,0.15422
970.01974,0.15150
971.94820,0.14409
973.87667,0.14232
975.80514,0.14754
977.73361,0.15234
979.66208,0.15407
981.59055,0.15266
983.51902,0.15499
985.44748,0.16172
987.37595,0.16197
989.30442,0.15652
991.23289,0.15230
993.16136,0.14857
995.08983,0.14700
997.01830,0.14947
998.94677,0.15282
1000.87523,0.15578
1002.80370,0.15631
1004.73217,0.15229
1006.66064,0.14979
1008.58911,0.15317
1010.51758,0.15530
1012.44605,0.15129
1014.37451,0.14535
1016.30298,0.14253
1018.23145,0.14542
1020.15992,0.15153
1022.08839,0.15630
1024.01686,0.15967
1025.94533,0.16308
1027.87380,0.16500
1029.80226,0.16507
1031.73073,0.16582
1033.65920,0.16825
1035.58767,0.16789
1037.51614,0.16279
1039.44461,0.15966
1041.37308,0.15589
1043.30154,0.14463
1045.23001,0.13430
1047.15848,0.13481
1049.08695,0.14555
1051.01542,0.15827
1052.94389,0.16493
1054.87236,0.16432
1056.80083,0.15984
1058.72929,0.15664
1060.65776,0.15799
1062.58623,0.16101
1064.51470,0.16009
1066.44317,0.15965
1068.37164,0.16693
1070.30011,0.17325
1072.22857,0.16976
1074.15704,0.16220
1076.08551,0.15792
1078.01398,0.15894
1079.94245,0.16050
1081.87092,0.15632
1083.79939,0.15280
1085.72786,0.15748
1087.65632,0.16094
1089.58479,0.15788
1091.51326,0.15882
1093.44173,0.16610
1095.37020,0.17090
1097.29867,0.17110
1099.22714,0.17053
1101.15560,0.17066
1103.08407,0.17350
1105.01254,0.17977
1106.94101,0.18413
1108.86948,0.18170
1110.79795,0.17763
1112.72642,0.17827
1114.65489,0.17909
1116.58335,0.17550
1118.51182,0.16797
1120.44029,0.15805
1122.36876,0.15289
1124.29723,0.15762
1126.22570,0.16473
1128.15417,0.16476
1130.08263,0.15974
1132.01110,0.15740
1133.93957,0.15786
1135.86804,0.15585
1137.79651,0.15445
1139.72498,0.15954
1141.65345,0.16563
1143.58191,0.16651
1145.51038,0.16596
1147.43885,0.16483
1149.36732,0.16111
1151.29579,0.16092
1153.22426,0.16556
1155.15273,0.16830
1157.08120,0.16742
1159.00966,0.16594
1160.93813,0.16768
1162.86660,0.17165
1164.79507,0.17328
1166.72354,0.17439
1168.65201,0.17554
1170.58048,0.17273
1172.50894,0.16802
1174.43741,0.16496
1176.36588,0.16295
1178.29435,0.16129
1180.22282,0.16017
1182.15129,0.16025
1184.07976,0.16724
1186.00823,0.18184
1187.93669,0.18732
1189.86516,0.17925
1191.79363,0.17301
1193.72210,0.17051
1195.65057,0.16729
1197.57904,0.16457
1199.50751,0.16156
1201.43597,0.16173
1203.36444,0.16807
1205.29291,0.17354
1207.22138,0.17292
1209.14985,0.17027
1211.07832,0.16957
1213.00679,0.17109
1214.93526,0.17519
1216.86372,0.17910
1218.79219,0.17679
1220.72066,0.17033
1222.64913,0.16779
1224.57760,0.16910
1226.50607,0.16924
1228.43454,0.16814
1230.36300,0.16906
1232.29147,0.17285
1234.21994,0.17606
1236.14841,0.17605
1238.07688,0.17480
1240.00535,0.17443
1241.93382,0.17398
1243.86229,0.17171
1245.79075,0.16895
1247.71922,0.16947
1249.64769,0.17246
1251.57616,0.17370
1253.50463,0.17367
1255.43310,0.17432
1257.36157,0.17387
1259.29003,0.17120
1261.21850,0.17017
1263.14697,0.17289
1265.07544,0.17525
1267.00391,0.17702
1268.93238,0.18040
1270.86085,0.18214
1272.78932,0.18145
1274.71778,0.18095
1276.64625,0.18020
1278.57472,0.17912
1280.50319,0.17940
1282.43166,0.18060
1284.36013,0.18166
1286.28860,0.18157
1288.21706,0.17998
1290.14553,0.17894
1292.07400,0.17948
1294.00247,0.18142
1295.93094,0.18476
1297.85941,0.18648
1299.78788,0.18426
1301.71634,0.18046
1303.64481,0.17902
1305.57328,0.18135
1307.50175,0.18319
1309.43022,0.18253
1311.35869,0.18243
1313.28716,0.18119
1315.21563,0.17861
1317.14409,0.18055
1319.07256,0.18455
1321.00103,0.18300
1322.92950,0.17948
1324.85797,0.17821
1326.78644,0.17645
1328.71491,0.17383
1330.64337,0.17283
1332.57184,0.17482
1334.50031,0.17818
1336.42878,0.18154
1338.35725,0.18418
1340.28572,0.18609
1342.21419,0.18703
1344.14266,0.18513
1346.07112,0.18392
1347.99959,0.18311
1349.92806,0.17829
1351.85653,0.17485
1353.78500,0.17727
1355.71347,0.18187
1357.64194,0.18490
1359.57040,0.18631
1361.49887,0.18619
1363.42734,0.18359
1365.35581,0.18151
1367.28428,0.18218
1369.21275,0.18383
1371.14122,0.18601
1373.06969,0.18961
1374.99815,0.19043
1376.92662,0.18742
1378.85509,0.18585
1380.78356,0.18512
1382.71203,0.18447
1384.64050,0.18753
1386.56897,0.19258
1388.49743,0.19239
1390.42590,0.18934
1392.35437,0.18940
1394.28284,0.19320
1396.21131,0.19836
1398.13978,0.19889
1400.06825,0.19343
1401.99672,0.18828
1403.92518,0.18547
1405.85365,0.18397
1407.78212,0.18511
1409.71059,0.18723
1411.63906,0.18696
1413.56753,0.18576
1415.49600,0.18870
1417.42446,0.19672
1419.35293,0.20170
1421.28140,0.19888
1423.20987,0.19385
1425.13834,0.18903
1427.06681,0.18825
1428.99528,0.19250
1430.92375,0.19643
1432.85221,0.19700
1434.78068,0.19925
1436.70915,0.20302
1438.63762,0.20092
1440.56609,0.19735
1442.49456,0.19453
1444.42303,0.19167
1446.35149,0.19196
1448.27996,0.19406
1450.20843,0.19497
1452.13690,0.19794
1454.06537,0.20507
1455.99384,0.21465
1457.92231,0.21241
1459.85077,0.20048
1461.77924,0.19800
1463.70771,0.20290
1465.63618,0.20505
1467.56465,0.20261
1469.49312,0.20498
1471.42159,0.21479
1473.35006,0.22148
1475.27852,0.21476
1477.20699,0.20586
1479.13546,0.20190
1481.06393,0.20072
1482.99240,0.19917
1484.92087,0.19958
1486.84934,0.20512
1488.77780,0.21198
1490.70627,0.20931
1492.63474,0.20214
1494.56321,0.20106
1496.49168,0.20631
1498.42015,0.20868
1500.34862,0.20456
1502.27709,0.20151
1504.20555,0.20396
1506.13402,0.21517
1508.06249,0.22144
1509.99096,0.21284
1511.91943,0.20487
1513.84790,0.20159
1515.77637,0.20332
1517.70483,0.20867
1519.63330,0.21814
1521.56177,0.22794
1523.49024,0.22651
1525.41871,0.21923
1527.34718,0.21016
1529.27565,0.20238
1531.20412,0.20135
1533.13258,0.20580
1535.06105,0.20943
1536.98952,0.21395
1538.91799,0.22607
1540.84646,0.24212
1542.77493,0.23886
1544.70340,0.22099
1546.63186,0.20667
1548.56033,0.20342
1550.48880,0.20546
1552.41727,0.20753
1554.34574,0.21267
1556.27421,0.22432
1558.20268,0.23270
1560.13115,0.21616
1562.05961,0.20713
1563.98808,0.20752
1565.91655,0.20788
1567.84502,0.20816
1569.77349,0.20699
1571.70196,0.20254
1573.63043,0.20154
1575.55889,0.20424
1577.48736,0.20354
1579.41583,0.20071
1581.34430,0.19943
1583.27277,0.19800
1585.20124,0.19672
1587.12971,0.19853
1589.05818,0.20072
1590.98664,0.19953
1592.91511,0.19776
1594.84358,0.19657
1596.77205,0.19413
1598.70052,0.19271
1600.62899,0.19389
1602.55746,0.19441
1604.48592,0.19276
1606.41439,0.19193
1608.34286,0.19381
1610.27133,0.19597
1612.19980,0.19685
1614.12827,0.20110
1616.05674,0.21035
1617.98521,0.21231
1619.91367,0.20826
1621.84214,0.20893
1623.77061,0.21135
1625.69908,0.21151
1627.62755,0.21056
1629.55602,0.20778
1631.48449,0.20762
1633.41295,0.21480
1635.34142,0.22577
1637.26989,0.22100
1639.19836,0.20765
1641.12683,0.20302
1643.05530,0.21006
1644.98377,0.22715
1646.91223,0.24419
1648.84070,0.24387
1650.76917,0.24507
1652.69764,0.25649
1654.62611,0.24162
1656.55458,0.21999
1658.48305,0.21365
1660.41152,0.21815
1662.33998,0.22400
1664.26845,0.21940
1666.19692,0.21403
1668.12539,0.21953
1670.05386,0.22827
1671.98233,0.22684
1673.91080,0.22264
1675.83926,0.21779
1677.76773,0.21351
1679.69620,0.21395
1681.62467,0.22058
1683.55314,0.23198
1685.48161,0.23086
1687.41008,0.22142
1689.33855,0.21484
1691.26701,0.20845
1693.19548,0.20578
1695.12395,0.21036
1697.05242,0.21805
1698.98089,0.22375
1700.90936,0.22344
1702.83783,0.21701
1704.76629,0.21088
1706.69476,0.20665
1708.62323,0.20618
1710.55170,0.20774
1712.48017,0.21024
1714.40864,0.21712
1716.33711,0.22559
1718.26558,0.21897
1720.19404,0.20667
1722.12251,0.20174
1724.05098,0.19974
1725.97945,0.19801
1727.90792,0.19832
1729.83639,0.20117
1731.76486,0.20628
1733.69332,0.21028
1735.62179,0.20629
1737.55026,0.20251
1739.47873,0.20396
1741.40720,0.20751
1743.33567,0.20959
1745.26414,0.21178
1747.19261,0.21561
1749.12107,0.21753
1751.04954,0.21303
1752.97801,0.20601
1754.90648,0.20155
1756.83495,0.19992
1758.76342,0.20059
1760.69189,0.20231
1762.62035,0.20070
1764.54882,0.19711
1766.47729,0.19820
1768.40576,0.20507
1770.33423,0.21512
1772.26270,0.22123
1774.19117,0.21532
1776.11964,0.20704
1778.04810,0.20476
1779.97657,0.20609
1781.90504,0.20544
1783.83351,0.20314
1785.76198,0.20090
1787.69045,0.20032
1789.61892,0.20407
1791.54738,0.20976
1793.47585,0.21051
1795.40432,0.20773
1797.33279,0.20572
1799.26126,0.20558
1801.18973,0.20629
1803.11820,0.20490
1805.04666,0.20313
1806.97513,0.20300
1808.90360,0.20325
1810.83207,0.20194
1812.76054,0.19901
1814.68901,0.19678
1816.61748,0.19780
1818.54595,0.20371
1820.47441,0.20724
1822.40288,0.20416
1824.33135,0.20219
1826.25982,0.20337
1828.18829,0.20528
1830.11676,0.20609
1832.04523,0.20343
1833.97369,0.20220
1835.90216,0.20318
1837.83063,0.20203
1839.75910,0.19955
1841.68757,0.20133
1843.61604,0.20669
1845.54451,0.20662
1847.47298,0.20188
1849.40144,0.19919
1851.32991,0.19952
1853.25838,0.20137
1855.18685,0.20258
1857.11532,0.20190
1859.04379,0.20138
1860.97226,0.20155
1862.90072,0.20087
1864.82919,0.20204
1866.75766,0.20696
1868.68613,0.21006
1870.61460,0.20561
1872.54307,0.19953
1874.47154,0.19684
1876.40001,0.19653
1878.32847,0.19670
1880.25694,0.19621
1882.18541,0.19553
1884.11388,0.19578
1886.04235,0.19769
1887.97082,0.20180
1889.89929,0.20420
1891.82775,0.20251
1893.75622,0.20085
1895.68469,0.19986
1897.61316,0.19900
1899.54163,0.19868
1901.47010,0.19856
1903.39857,0.19998
1905.32704,0.20182
1907.25550,0.20189
1909.18397,0.20177
1911.11244,0.20189
1913.04091,0.20178
1914.96938,0.20277
1916.89785,0.20373
1918.82632,0.20236
1920.75478,0.20105
1922.68325,0.20175
1924.61172,0.20230
1926.54019,0.20149
1928.46866,0.19997
1930.39713,0.19875
1932.32560,0.19808
1934.25407,0.19702
1936.18253,0.19596
1938.11100,0.19724
1940.03947,0.20195
1941.96794,0.20610
1943.89641,0.20464
1945.82488,0.20101
1947.75335,0.19906
1949.68181,0.19771
1951.61028,0.19748
1953.53875,0.19889
1955.46722,0.19916
1957.39569,0.19710
1959.32416,0.19551
1961.25263,0.19598
1963.18110,0.19751
1965.10956,0.20045
1967.03803,0.20391
1968.96650,0.20466
1970.89497,0.20401
1972.82344,0.20422
1974.75191,0.20079
1976.68038,0.19267
1978.60884,0.19071
1980.53731,0.19756
1982.46578,0.20115
1984.39425,0.19860
1986.32272,0.19744
1988.25119,0.19985
1990.17966,0.20334
1992.10812,0.20468
1994.03659,0.20320
1995.96506,0.20144
1997.89353,0.20014
1999.82200,0.19904
2001.75047,0.19885
2003.67894,0.20097
2005.60741,0.20395
2007.53587,0.20332
2009.46434,0.20030
2011.39281,0.19944
2013.32128,0.20011
2015.24975,0.20050
2017.17822,0.20183
2019.10669,0.20465
2021.03515,0.20701
2022.96362,0.20644
2024.89209,0.20287
2026.82056,0.19944
2028.74903,0.19867
2030.67750,0.19990
2032.60597,0.20119
2034.53444,0.20135
2036.46290,0.20098
2038.39137,0.20144
2040.31984,0.20249
2042.24831,0.20321
2044.17678,0.20340
2046.10525,0.20280
2048.03372,0.20213
2049.96218,0.20234
2051.89065,0.20301
2053.81912,0.20352
2055.74759,0.20302
2057.67606,0.20114
2059.60453,0.19974
2061.53300,0.20095
2063.46147,0.20407
2065.38993,0.20567
2067.31840,0.20394
2069.24687,0.20181
2071.17534,0.20228
2073.10381,0.20361
2075.03228,0.20343
2076.96075,0.20286
2078.88921,0.20342
2080.81768,0.20465
2082.74615,0.20442
2084.67462,0.20250
2086.60309,0.20244
2088.53156,0.20461
2090.46003,0.20588
2092.38850,0.20531
2094.31696,0.20361
2096.24543,0.20204
2098.17390,0.20160
2100.10237,0.20182
2102.03084,0.20262
2103.95931,0.20413
2105.88778,0.20473
2107.81624,0.20362
2109.74471,0.20261
2111.67318,0.20330
2113.60165,0.20422
2115.53012,0.20294
2117.45859,0.20115
2119.38706,0.20158
2121.31553,0.20232
2123.24399,0.20160
2125.17246,0.20177
2127.10093,0.20438
2129.02940,0.20682
2130.95787,0.20672
2132.88634,0.20557
2134.81481,0.20541
2136.74327,0.20657
2138.67174,0.20741
2140.60021,0.20599
2142.52868,0.20388
2144.45715,0.20350
2146.38562,0.20494
2148.31409,0.20661
2150.24255,0.20621
2152.17102,0.20438
2154.09949,0.20349
2156.02796,0.20282
2157.95643,0.20124
2159.88490,0.20153
2161.81337,0.20513
2163.74184,0.20730
2165.67030,0.20562
2167.59877,0.20410
2169.52724,0.20478
2171.45571,0.20530
2173.38418,0.20365
2175.31265,0.20117
2177.24112,0.19961
2179.16958,0.19928
2181.09805,0.20068
2183.02652,0.20298
2184.95499,0.20480
2186.88346,0.20600
2188.81193,0.20583
2190.74040,0.20423
2192.66887,0.20355
2194.59733,0.20413
2196.52580,0.20413
2198.45427,0.20392
2200.38274,0.20394
2202.31121,0.20322
2204.23968,0.20311
2206.16815,0.20457
2208.09661,0.20508
2210.02508,0.20341
2211.95355,0.20195
2213.88202,0.20235
2215.81049,0.20331
2217.73896,0.20354
2219.66743,0.20333
2221.59590,0.20281
2223.52436,0.20268
2225.45283,0.20344
2227.38130,0.20361
2229.30977,0.20327
2231.23824,0.20323
2233.16671,0.20244
2235.09518,0.20176
2237.02364,0.20213
2238.95211,0.20220
2240.88058,0.20262
2242.80905,0.20481
2244.73752,0.20688
2246.66599,0.20645
2248.59446,0.20438
2250.52293,0.20255
2252.45139,0.20211
2254.37986,0.20338
2256.30833,0.20540
2258.23680,0.20725
2260.16527,0.20777
2262.09374,0.20613
2264.02221,0.20426
2265.95067,0.20428
2267.87914,0.20504
2269.80761,0.20476
2271.73608,0.20470
2273.66455,0.20606
2275.59302,0.20691
2277.52149,0.20547
2279.44996,0.20402
2281.37842,0.20461
2283.30689,0.20500
2285.23536,0.20439
2287.16383,0.20389
2289.09230,0.20386
2291.02077,0.20495
2292.94924,0.20428
2294.87770,0.20080
2296.80617,0.19932
2298.73464,0.20041
2300.66311,0.20100
2302.59158,0.20047
2304.52005,0.20029
2306.44852,0.20275
2308.37699,0.20463
2310.30545,0.20123
2312.23392,0.19727
2314.16239,0.19695
2316.09086,0.19730
2318.01933,0.19826
2319.94780,0.20188
2321.87627,0.20638
2323.80473,0.20909
2325.73320,0.20870
2327.66167,0.20708
2329.59014,0.20907
2331.51861,0.21250
2333.44708,0.21189
2335.37555,0.21192
2337.30401,0.21404
2339.23248,0.20791
2341.16095,0.19111
2343.08942,0.17935
2345.01789,0.18572
2346.94636,0.19831
2348.87483,0.20350
2350.80330,0.20314
2352.73176,0.20364
2354.66023,0.20676
2356.58870,0.20464
2358.51717,0.20049
2360.44564,0.21008
2362.37411,0.22683
2364.30258,0.23040
2366.23104,0.22050
2368.15951,0.20864
2370.08798,0.20289
2372.01645,0.20495
2373.94492,0.20688
2375.87339,0.20512
2377.80186,0.20430
2379.73033,0.20351
2381.65879,0.20127
2383.58726,0.20193
2385.51573,0.20427
2387.44420,0.20329
2389.37267,0.20091
2391.30114,0.20075
2393.22961,0.20382
2395.15807,0.20883
2397.08654,0.21164
2399.01501,0.21052
2400.94348,0.20734
2402.87195,0.20479
2404.80042,0.20424
2406.72889,0.20436
2408.65736,0.20427
2410.58582,0.20532
2412.51429,0.20679
2414.44276,0.20609
2416.37123,0.20479
2418.29970,0.20535
2420.22817,0.20649
2422.15664,0.20761
2424.08510,0.20859
2426.01357,0.20708
2427.94204,0.20361
2429.87051,0.20250
2431.79898,0.20482
2433.72745,0.20737
2435.65592,0.20770
2437.58439,0.20629
2439.51285,0.20508
2441.44132,0.20505
2443.36979,0.20511
2445.29826,0.20511
2447.22673,0.20649
2449.15520,0.20777
2451.08367,0.20607
2453.01213,0.20382
2454.94060,0.20478
2456.86907,0.20601
2458.79754,0.20531
2460.72601,0.20583
2462.65448,0.20756
2464.58295,0.20793
2466.51142,0.20812
2468.43988,0.20909
2470.36835,0.20829
2472.29682,0.20571
2474.22529,0.20424
2476.15376,0.20472
2478.08223,0.20604
2480.01070,0.20641
2481.93916,0.20531
2483.86763,0.20410
2485.79610,0.20475
2487.72457,0.20686
2489.65304,0.20847
2491.58151,0.20859
2493.50998,0.20670
2495.43844,0.20477
2497.36691,0.20524
2499.29538,0.20645
2501.22385,0.20559
2503.15232,0.20374
2505.08079,0.20322
2507.00926,0.20343
2508.93773,0.20458
2510.86619,0.20701
2512.79466,0.20751
2514.72313,0.20522
2516.65160,0.20404
2518.58007,0.20553
2520.50854,0.20716
2522.43701,0.20698
2524.36547,0.20553
2526.29394,0.20435
2528.22241,0.20450
2530.15088,0.20545
2532.07935,0.20529
2534.00782,0.20383
2535.93629,0.20310
2537.86476,0.20387
2539.79322,0.20422
2541.72169,0.20353
2543.65016,0.20409
2545.57863,0.20628
2547.50710,0.20792
2549.43557,0.20732
2551.36404,0.20557
2553.29250,0.20577
2555.22097,0.20723
2557.14944,0.20658
2559.07791,0.20429
2561.00638,0.20361
2562.93485,0.20551
2564.86332,0.20771
2566.79179,0.20806
2568.72025,0.20690
2570.64872,0.20597
2572.57719,0.20548
2574.50566,0.20487
2576.43413,0.20597
2578.36260,0.20878
2580.29107,0.21005
2582.21953,0.20988
2584.14800,0.20919
2586.07647,0.20745
2588.00494,0.20667
2589.93341,0.20736
2591.86188,0.20748
2593.79035,0.20677
2595.71882,0.20569
2597.64728,0.20503
2599.57575,0.20626
2601.50422,0.20854
2603.43269,0.20899
2605.36116,0.20911
2607.28963,0.21135
2609.21810,0.21297
2611.14656,0.21202
2613.07503,0.20946
2615.00350,0.20795
2616.93197,0.20887
2618.86044,0.21018
2620.78891,0.21126
2622.71738,0.21151
2624.64585,0.21072
2626.57431,0.21035
2628.50278,0.20941
2630.43125,0.20781
2632.35972,0.20698
2634.28819,0.20745
2636.21666,0.20912
2638.14513,0.21149
2640.07359,0.21424
2642.00206,0.21657
2643.93053,0.21809
2645.85900,0.21838
2647.78747,0.21709
2649.71594,0.21565
2651.64441,0.21400
2653.57288,0.21141
2655.50134,0.20973
2657.42981,0.21055
2659.35828,0.21260
2661.28675,0.21388
2663.21522,0.21427
2665.14369,0.21535
2667.07216,0.21602
2669.00062,0.21357
2670.92909,0.21072
2672.85756,0.21056
2674.78603,0.21259
2676.71450,0.21640
2678.64297,0.21831
2680.57144,0.21563
2682.49990,0.21196
2684.42837,0.21068
2686.35684,0.21295
2688.28531,0.21699
2690.21378,0.21805
2692.14225,0.21548
2694.07072,0.21402
2695.99919,0.21538
2697.92765,0.21637
2699.85612,0.21612
2701.78459,0.21577
2703.71306,0.21438
2705.64153,0.21263
2707.57000,0.21398
2709.49847,0.21801
2711.42693,0.21923
2713.35540,0.21606
2715.28387,0.21369
2717.21234,0.21417
2719.14081,0.21332
2721.06928,0.21077
2722.99775,0.21094
2724.92622,0.21314
2726.85468,0.21434
2728.78315,0.21436
2730.71162,0.21305
2732.64009,0.21223
2734.56856,0.21471
2736.49703,0.21881
2738.42550,0.22136
2740.35396,0.22213
2742.28243,0.22208
2744.21090,0.22090
2746.13937,0.21813
2748.06784,0.21523
2749.99631,0.21456
2751.92478,0.21503
2753.85325,0.21419
2755.78171,0.21340
2757.71018,0.21451
2759.63865,0.21724
2761.56712,0.22112
2763.49559,0.22382
2765.42406,0.22326
2767.35253,0.22201
2769.28099,0.22223
2771.20946,0.22303
2773.13793,0.22363
2775.06640,0.22291
2776.99487,0.22107
2778.92334,0.22071
2780.85181,0.22212
2782.78028,0.22200
2784.70874,0.21987
2786.63721,0.21935
2788.56568,0.22122
2790.49415,0.22337
2792.42262,0.22407
2794.35109,0.22250
2796.27956,0.21991
2798.20802,0.21825
2800.13649,0.21842
2802.06496,0.22077
2803.99343,0.22402
2805.92190,0.22547
2807.85037,0.22417
2809.77884,0.22196
2811.70731,0.22139
2813.63577,0.22185
2815.56424,0.22276
2817.49271,0.22637
2819.42118,0.23001
2821.34965,0.22875
2823.27812,0.22631
2825.20659,0.22791
2827.13505,0.23005
2829.06352,0.22912
2830.99199,0.22775
2832.92046,0.22716
2834.84893,0.22561
2836.77740,0.22384
2838.70587,0.22251
2840.63433,0.22030
2842.56280,0.21947
2844.49127,0.22173
2846.41974,0.22376
2848.34821,0.22368
2850.27668,0.22260
2852.20515,0.22210
2854.13362,0.22355
2856.06208,0.22585
2857.99055,0.22631
2859.91902,0.22471
2861.84749,0.22311
2863.77596,0.22352
2865.70443,0.22478
2867.63290,0.22450
2869.56136,0.22281
2871.48983,0.22036
2873.41830,0.21974
2875.34677,0.22188
2877.27524,0.22258
2879.20371,0.22104
2881.13218,0.22118
2883.06065,0.22360
2884.98911,0.22529
2886.91758,0.22618
2888.84605,0.22731
2890.77452,0.22756
2892.70299,0.22787
2894.63146,0.22884
2896.55993,0.22817
2898.48839,0.22591
2900.41686,0.22453
2902.34533,0.22492
2904.27380,0.22619
2906.20227,0.22693
2908.13074,0.22561
2910.05921,0.22219
2911.98768,0.21967
2913.91614,0.22057
2915.84461,0.22329
2917.77308,0.22389
2919.70155,0.22151
2921.63002,0.22012
2923.55849,0.22230
2925.48696,0.22518
2927.41542,0.22522
2929.34389,0.22379
2931.27236,0.22324
2933.20083,0.22236
2935.12930,0.21928
2937.05777,0.21627
2938.98624,0.21656
2940.91471,0.21784
2942.84317,0.21833
2944.77164,0.21877
2946.70011,0.21833
2948.62858,0.21921
2950.55705,0.22339
2952.48552,0.22692
2954.41399,0.22623
2956.34245,0.22299
2958.27092,0.22038
2960.19939,0.22013
2962.12786,0.22311
2964.05633,0.22707
2965.98480,0.22898
2967.91327,0.22906
2969.84174,0.22748
2971.77020,0.22603
2973.69867,0.22729
2975.62714,0.22934
2977.55561,0.23075
2979.48408,0.23123
2981.41255,0.22991
2983.34102,0.22904
2985.26948,0.23019
2987.19795,0.23165
2989.12642,0.23295
2991.05489,0.23483
2992.98336,0.23547
2994.91183,0.23473
2996.84030,0.23489
2998.76877,0.23458
3000.69723,0.23250
3002.62570,0.23088
3004.55417,0.23102
3006.48264,0.23097
3008.41111,0.23042
3010.33958,0.23193
3012.26805,0.23445
3014.19651,0.23520
3016.12498,0.23513
3018.05345,0.23538
3019.98192,0.23553
3021.91039,0.23557
3023.83886,0.23440
3025.76733,0.23125
3027.69579,0.22873
3029.62426,0.22955
3031.55273,0.23226
3033.48120,0.23347
3035.40967,0.23154
3037.33814,0.22805
3039.26661,0.22729
3041.19508,0.23000
3043.12354,0.23244
3045.05201,0.23356
3046.98048,0.23351
3048.90895,0.23249
3050.83742,0.23223
3052.76589,0.23089
3054.69436,0.22769
3056.62282,0.22749
3058.55129,0.23045
3060.47976,0.23247
3062.40823,0.23287
3064.33670,0.23367
3066.26517,0.23666
3068.19364,0.23925
3070.12211,0.23832
3072.05057,0.23495
3073.97904,0.23120
3075.90751,0.22900
3077.83598,0.22930
3079.76445,0.23147
3081.69292,0.23323
3083.62139,0.23142
3085.54985,0.22655
3087.47832,0.22372
3089.40679,0.22541
3091.33526,0.22821
3093.26373,0.22950
3095.19220,0.23051
3097.12067,0.23221
3099.04914,0.23348
3100.97760,0.23353
3102.90607,0.23225
3104.83454,0.22996
3106.76301,0.22853
3108.69148,0.22872
3110.61995,0.23022
3112.54842,0.23195
3114.47688,0.23136
3116.40535,0.22939
3118.33382,0.22951
3120.26229,0.23141
3122.19076,0.23215
3124.11923,0.23146
3126.04770,0.23127
3127.97617,0.23034
3129.90463,0.22805
3131.83310,0.22833
3133.76157,0.23291
3135.69004,0.23777
3137.61851,0.23873
3139.54698,0.23719
3141.47545,0.23665
3143.40391,0.23598
3145.33238,0.23421
3147.26085,0.23415
3149.18932,0.23633
3151.11779,0.23862
3153.04626,0.23928
3154.97473,0.23643
3156.90320,0.23092
3158.83166,0.22791
3160.76013,0.23001
3162.68860,0.23508
3164.61707,0.23988
3166.54554,0.24116
3168.47401,0.24034
3170.40248,0.24105
3172.33094,0.24225
3174.25941,0.24125
3176.18788,0.23709
3178.11635,0.23322
3180.04482,0.23373
3181.97329,0.23674
3183.90176,0.23872
3185.83022,0.23834
3187.75869,0.23783
3189.68716,0.23835
3191.61563,0.23760
3193.54410,0.23812
3195.47257,0.24102
3197.40104,0.24086
3199.32951,0.23774
3201.25797,0.23684
3203.18644,0.23764
3205.11491,0.23609
3207.04338,0.23395
3208.97185,0.23482
3210.90032,0.23761
3212.82879,0.23944
3214.75725,0.23793
3216.68572,0.23326
3218.61419,0.22781
3220.54266,0.22616
3222.47113,0.22943
3224.39960,0.22932
3226.32807,0.22465
3228.25654,0.22451
3230.18500,0.22894
3232.11347,0.23151
3234.04194,0.23161
3235.97041,0.23159
3237.89888,0.23074
3239.82735,0.22928
3241.75582,0.22975
3243.68428,0.22969
3245.61275,0.22596
3247.54122,0.22182
3249.46969,0.22185
3251.39816,0.22529
3253.32663,0.22791
3255.25510,0.22860
3257.18357,0.22785
3259.11203,0.22641
3261.04050,0.22717
3262.96897,0.23119
3264.89744,0.23404
3266.82591,0.23211
3268.75438,0.22876
3270.68285,0.22741
3272.61131,0.22829
3274.53978,0.23041
3276.46825,0.23181
3278.39672,0.23163
3280.32519,0.22888
3282.25366,0.22567
3284.18213,0.22639
3286.11060,0.22867
3288.03906,0.22974
3289.96753,0.23059
3291.89600,0.22975
3293.82447,0.22800
3295.75294,0.22820
3297.68141,0.22849
3299.60988,0.22725
3301.53834,0.22536
3303.46681,0.22205
3305.39528,0.21983
3307.32375,0.22310
3309.25222,0.22840
3311.18069,0.22788
3313.10916,0.22197
3315.03763,0.22008
3316.96609,0.22487
3318.89456,0.22991
3320.82303,0.23287
3322.75150,0.23483
3324.67997,0.23642
3326.60844,0.23818
3328.53691,0.23747
3330.46537,0.23382
3332.39384,0.23218
3334.32231,0.23375
3336.25078,0.23527
3338.17925,0.23586
3340.10772,0.23655
3342.03619,0.23660
3343.96466,0.23580
3345.89312,0.23692
3347.82159,0.23989
3349.75006,0.23948
3351.67853,0.23500
3353.60700,0.23289
3355.53547,0.23342
3357.46394,0.23390
3359.39240,0.23739
3361.32087,0.24050
3363.24934,0.23783
3365.17781,0.23432
3367.10628,0.23449
3369.03475,0.23586
3370.96322,0.23596
3372.89168,0.23399
3374.82015,0.23097
3376.74862,0.23057
3378.67709,0.23153
3380.60556,0.23012
3382.53403,0.22938
3384.46250,0.23205
3386.39097,0.23322
3388.31943,0.23042
3390.24790,0.22774
3392.17637,0.22584
3394.10484,0.22466
3396.03331,0.22692
3397.96178,0.23199
3399.89025,0.23595
3401.81871,0.23615
3403.74718,0.23390
3405.67565,0.23158
3407.60412,0.22964
3409.53259,0.22789
3411.46106,0.22744
3413.38953,0.22935
3415.31800,0.23163
3417.24646,0.23176
3419.17493,0.22848
3421.10340,0.22272
3423.03187,0.21905
3424.96034,0.22062
3426.88881,0.22555
3428.81728,0.22925
3430.74574,0.23087
3432.67421,0.23107
3434.60268,0.22823
3436.53115,0.22558
3438.45962,0.22546
3440.38809,0.22468
3442.31656,0.22309
3444.24503,0.22410
3446.17349,0.22746
3448.10196,0.22576
3450.03043,0.21938
3451.95890,0.21756
3453.88737,0.21929
3455.81584,0.21923
3457.74431,0.21660
3459.67277,0.21214
3461.60124,0.20839
3463.52971,0.20717
3465.45818,0.20854
3467.38665,0.21087
3469.31512,0.20969
3471.24359,0.20482
3473.17206,0.20295
3475.10052,0.20609
3477.02899,0.20813
3478.95746,0.20651
3480.88593,0.20481
3482.81440,0.20442
3484.74287,0.20429
3486.67134,0.20506
3488.59980,0.20662
3490.52827,0.20584
3492.45674,0.20188
3494.38521,0.19884
3496.31368,0.19754
3498.24215,0.19621
3500.17062,0.19844
3502.09909,0.20231
3504.02755,0.20086
3505.95602,0.19813
3507.88449,0.19836
3509.81296,0.19931
3511.74143,0.19810
3513.66990,0.19306
3515.59837,0.18767
3517.52683,0.18745
3519.45530,0.19306
3521.38377,0.19881
3523.31224,0.19802
3525.24071,0.19161
3527.16918,0.18730
3529.09765,0.18814
3531.02611,0.18902
3532.95458,0.18741
3534.88305,0.18594
3536.81152,0.18465
3538.73999,0.18344
3540.66846,0.18439
3542.59693,0.18660
3544.52540,0.18724
3546.45386,0.18489
3548.38233,0.18261
3550.31080,0.18351
3552.23927,0.18529
3554.16774,0.18436
3556.09621,0.18049
3558.02468,0.17662
3559.95314,0.17663
3561.88161,0.18122
3563.81008,0.18697
3565.73855,0.19278
3567.66702,0.19443
3569.59549,0.18649
3571.52396,0.17717
3573.45243,0.17224
3575.38089,0.17067
3577.30936,0.16935
3579.23783,0.16803
3581.16630,0.16806
3583.09477,0.17020
3585.02324,0.17518
3586.95171,0.17853
3588.88017,0.17381
3590.80864,0.16842
3592.73711,0.16847
3594.66558,0.17096
3596.59405,0.17174
3598.52252,0.17233
3600.45099,0.17242
3602.37946,0.16912
3604.30792,0.16693
3606.23639,0.17018
3608.16486,0.17217
3610.09333,0.16874
3612.02180,0.16820
3613.95027,0.17075
3615.87874,0.17409
3617.80720,0.17954
3619.73567,0.17795
3621.66414,0.16738
3623.59261,0.16131
3625.52108,0.16183
3627.44955,0.16747
3629.37802,0.17400
3631.30649,0.17089
3633.23495,0.16293
3635.16342,0.15654
3637.09189,0.15499
3639.02036,0.15497
3640.94883,0.15200
3642.87730,0.14964
3644.80577,0.15385
3646.73423,0.16694
3648.66270,0.18342
3650.59117,0.17984
3652.51964,0.16445
3654.44811,0.15549
3656.37658,0.15179
3658.30505,0.14960
3660.23352,0.14638
3662.16198,0.14308
3664.09045,0.14289
3666.01892,0.14477
3667.94739,0.14731
3669.87586,0.15049
3671.80433,0.15274
3673.73280,0.15751
3675.66126,0.16376
3677.58973,0.16146
3679.51820,0.15588
3681.44667,0.15155
3683.37514,0.14815
3685.30361,0.14619
3687.23208,0.14885
3689.16055,0.15654
3691.08901,0.15482
3693.01748,0.14786
3694.94595,0.14559
3696.87442,0.14387
3698.80289,0.14405
3700.73136,0.14920
3702.65983,0.15167
3704.58829,0.14831
3706.51676,0.14685
3708.44523,0.15089
3710.37370,0.15937
3712.30217,0.16071
3714.23064,0.15037
3716.15911,0.14284
3718.08757,0.14442
3720.01604,0.15158
3721.94451,0.15492
3723.87298,0.15263
3725.80145,0.15209
3727.72992,0.15399
3729.65839,0.15584
3731.58686,0.15769
3733.51532,0.15957
3735.44379,0.15927
3737.37226,0.15349
3739.30073,0.14722
3741.22920,0.14337
3743.15767,0.14131
3745.08614,0.14195
3747.01460,0.14510
3748.94307,0.15227
3750.87154,0.16133
3752.80001,0.15815
3754.72848,0.15036
3756.65695,0.14748
3758.58542,0.14759
3760.51389,0.14554
3762.44235,0.14153
3764.37082,0.13972
3766.29929,0.14170
3768.22776,0.14462
3770.15623,0.14397
3772.08470,0.14012
3774.01317,0.13856
3775.94163,0.14105
3777.87010,0.14484
3779.79857,0.14438
3781.72704,0.14027
3783.65551,0.13950
3785.58398,0.14134
3787.51245,0.14009
3789.44092,0.13744
3791.36938,0.13975
3793.29785,0.14627
3795.22632,0.15053
3797.15479,0.15004
3799.08326,0.15043
3801.01173,0.15538
3802.94020,0.15634
3804.86866,0.15010
3806.79713,0.14146
3808.72560,0.13737
3810.65407,0.13899
3812.58254,0.13995
3814.51101,0.13999
3816.43948,0.14171
3818.36795,0.14605
3820.29641,0.15014
3822.22488,0.14640
3824.15335,0.14052
3826.08182,0.13687
3828.01029,0.13309
3829.93876,0.13163
3831.86723,0.13420
3833.79569,0.13904
3835.72416,0.14457
3837.65263,0.14804
3839.58110,0.14639
3841.50957,0.14493
3843.43804,0.14344
3845.36651,0.13827
3847.29498,0.13362
3849.22344,0.13341
3851.15191,0.13850
3853.08038,0.14690
3855.00885,0.14073
3856.93732,0.12854
3858.86579,0.12503
3860.79426,0.12990
3862.72272,0.13812
3864.65119,0.14165
3866.57966,0.14011
3868.50813,0.14066
3870.43660,0.14468
3872.36507,0.14611
3874.29354,0.14059
3876.22200,0.13169
3878.15047,0.12657
3880.07894,0.12853
3882.00741,0.13170
3883.93588,0.12915
3885.86435,0.12649
3887.79282,0.12938
3889.72129,0.13587
3891.64975,0.14096
3893.57822,0.14003
3895.50669,0.13710
3897.43516,0.13555
3899.36363,0.13651
3901.29210,0.13904
3903.22057,0.13971
3905.14903,0.13519
3907.07750,0.12738
3909.00597,0.12312
3910.93444,0.12389
3912.86291,0.12509
3914.79138,0.12514
3916.71985,0.12596
3918.64832,0.12476
3920.57678,0.12196
3922.50525,0.12432
3924.43372,0.13055
3926.36219,0.13192
3928.29066,0.12800
3930.21913,0.12510
3932.14760,0.12392
3934.07606,0.12256
3936.00453,0.12311
3937.93300,0.12357
3939.86147,0.12029
3941.78994,0.11682
3943.71841,0.11695
3945.64688,0.11842
3947.57535,0.12008
3949.50381,0.12208
3951.43228,0.12275
3953.36075,0.12139
3955.28922,0.11932
3957.21769,0.11764
3959.14616,0.11581
3961.07463,0.11461
3963.00309,0.11488
3964.93156,0.11543
3966.86003,0.11648
3968.78850,0.11771
3970.71697,0.11804
3972.64544,0.11824
3974.57391,0.11918
3976.50238,0.11954
3978.43084,0.11924
3980.35931,0.12130
3982.28778,0.12278
3984.21625,0.11893
3986.14472,0.11372
3988.07319,0.11090
3990.00166,0.10943
3991.93012,0.10851
3993.85859,0.11055
3995.78706,0.11408
3997.71553,0.11184
3999.64400,0.10616
4001.57247,0.10446
4003.50094,0.10733
4005.42941,0.11139
4007.35787,0.11151
4009.28634,0.10678
4011.21481,0.10144
4013.14328,0.10007
4015.07175,0.10470
4017.00022,0.11168
4018.92869,0.11568
4020.85715,0.11464
4022.78562,0.11093
4024.71409,0.10869
4026.64256,0.10862
4028.57103,0.10885
4030.49950,0.10760
4032.42797,0.10453
4034.35644,0.10356
4036.28490,0.10707
4038.21337,0.10972
4040.14184,0.10574
4042.07031,0.09764
4043.99878,0.09380
4045.92725,0.09776
4047.85572,0.10437
4049.78418,0.10597
4051.71265,0.10040
4053.64112,0.09447
4055.56959,0.09590
4057.49806,0.10316
4059.42653,0.10918
4061.35500,0.11142
4063.28346,0.11176
4065.21193,0.11023
4067.14040,0.10446
4069.06887,0.09845
4070.99734,0.09953
4072.92581,0.10494
4074.85428,0.10849
4076.78275,0.10815
4078.71121,0.10484
4080.63968,0.10232
4082.56815,0.10097
4084.49662,0.09936
4086.42509,0.09919
4088.35356,0.10043
4090.28203,0.10054
4092.21049,0.09963
4094.13896,0.09997
4096.06743,0.10135
4097.99590,0.10112
4099.92437,0.09938
4101.85284,0.09993
4103.78131,0.10199
4105.70978,0.09976
4107.63824,0.09371
4109.56671,0.09018
4111.49518,0.09188
4113.42365,0.09455
4115.35212,0.09271
4117.28059,0.08933
4119.20906,0.09224
4121.13752,0.09795
4123.06599,0.09704
4124.99446,0.09312
4126.92293,0.09303
4128.85140,0.09527
4130.77987,0.09635
4132.70834,0.09456
4134.63681,0.09117
4136.56527,0.08997
4138.49374,0.09368
4140.42221,0.09924
4142.35068,0.10224
4144.27915,0.10359
4146.20762,0.10277
4148.13609,0.09659
4150.06455,0.08892
4151.99302,0.08704
4153.92149,0.09045
4155.84996,0.09315
4157.77843,0.09124
4159.70690,0.08678
4161.63537,0.08490
4163.56384,0.08575
4165.49230,0.08774
4167.42077,0.08929
4169.34924,0.08718
4171.27771,0.08417
4173.20618,0.08619
4175.13465,0.09021
4177.06312,0.09082
4178.99158,0.08771
4180.92005,0.08266
4182.84852,0.07961
4184.77699,0.08187
4186.70546,0.08625
4188.63393,0.08424
4190.56240,0.07826
4192.49087,0.07836
4194.41933,0.08107
4196.34780,0.07972
4198.27627,0.07681
4200.20474,0.07763
4202.13321,0.08091
4204.06168,0.08098
4205.99015,0.07793
4207.91861,0.07441
4209.84708,0.07215
4211.77555,0.07163
4213.70402,0.07112
4215.63249,0.07074
4217.56096,0.07175
4219.48943,0.07393
4221.41789,0.07743
4223.34636,0.07972
4225.27483,0.07783
4227.20330,0.07352
4229.13177,0.07031
4231.06024,0.07196
4232.98871,0.07540
4234.91718,0.07425
4236.84564,0.07219
4238.77411,0.07270
4240.70258,0.07230
4242.63105,0.07170
4244.55952,0.07351
4246.48799,0.07491
4248.41646,0.07381
4250.34492,0.07290
4252.27339,0.07394
4254.20186,0.07363
4256.13033,0.06983
4258.05880,0.06767
4259.98727,0.07003
4261.91574,0.07309
4263.84421,0.07471
4265.77267,0.07404
4267.70114,0.07040
4269.62961,0.06669
4271.55808,0.06507
4273.48655,0.06477
4275.41502,0.06548
4277.34349,0.06739
4279.27195,0.06892
4281.20042,0.06683
4283.12889,0.06224
4285.05736,0.06107
4286.98583,0.06337
4288.91430,0.06289
4290.84277,0.05885
4292.77124,0.05861
4294.69970,0.06432
4296.62817,0.06486
4298.55664,0.05737
4300.48511,0.05468
4302.41358,0.05828
4304.34205,0.05987
4306.27052,0.05835
4308.19898,0.05695
4310.12745,0.05760
4312.05592,0.05771
4313.98439,0.05554
4315.91286,0.05345
4317.84133,0.05325
4319.76980,0.05424
4321.69827,0.05327
4323.62673,0.05171
4325.55520,0.05177
4327.48367,0.05024
4329.41214,0.04903
4331.34061,0.05179
4333.26908,0.05456
4335.19755,0.05639
4337.12601,0.06025
4339.05448,0.06364
4340.98295,0.06401
4342.91142,0.06236
4344.83989,0.05753
4346.76836,0.05006
4348.69683,0.04566
4350.62530,0.04577
4352.55376,0.04680
4354.48223,0.04715
4356.41070,0.04798
4358.33917,0.05072
4360.26764,0.05346
4362.19611,0.05523
4364.12458,0.05439
4366.05304,0.04887
4367.98151,0.04460
4369.90998,0.04361
4371.83845,0.04407
4373.76692,0.04523
4375.69539,0.04145
4377.62386,0.03766
4379.55232,0.04143
4381.48079,0.04350
4383.40926,0.03898
4385.33773,0.03667
4387.26620,0.03982
4389.19467,0.04277
4391.12314,0.04276
4393.05161,0.04058
4394.98007,0.03725
4396.90854,0.03524
4398.83701,0.03493
4400.76548,0.03716
4402.69395,0.04195
4404.62242,0.04246
4406.55089,0.03775
4408.47935,0.03358
4410.40782,0.03068
4412.33629,0.03028
4414.26476,0.03366
4416.19323,0.03562
4418.12170,0.03410
4420.05017,0.03390
4421.97864,0.03418
4423.90710,0.03377
4425.83557,0.03565
4427.76404,0.03265
4429.69251,0.02262
4431.62098,0.01940
4433.54945,0.02575
4435.47792,0.03126
4437.40638,0.03119
4439.33485,0.02867
4441.26332,0.02661
4443.19179,0.02249
4445.12026,0.01949
4447.04873,0.02339
4448.97720,0.02831
4450.90567,0.02977
4452.83413,0.03084
4454.76260,0.03236
4456.69107,0.03295
4458.61954,0.03147
4460.54801,0.02952
4462.47648,0.02910
4464.40495,0.02839
4466.33341,0.02697
4468.26188,0.02508
4470.19035,0.02282
4472.11882,0.02340
4474.04729,0.02627
4475.97576,0.02777
4477.90423,0.02820
4479.83270,0.02768
4481.76116,0.02457
4483.68963,0.02099
4485.61810,0.02054
4487.54657,0.02050
4489.47504,0.01774
4491.40351,0.01644
4493.33198,0.01842
4495.26044,0.01885
4497.18891,0.01760
4499.11738,0.01701
4501.04585,0.01706
4502.97432,0.01916
4504.90279,0.02180
4506.83126,0.02307
4508.75973,0.02375
4510.68819,0.02240
4512.61666,0.01784
4514.54513,0.01220
4516.47360,0.01079
4518.40207,0.01343
4520.33054,0.01264
4522.25901,0.01085
4524.18747,0.01531
4526.11594,0.01892
4528.04441,0.01549
4529.97288,0.01143
4531.90135,0.01273
4533.82982,0.01760
4535.75829,0.01741
4537.68676,0.01141
4539.61522,0.01277
4541.54369,0.02119
4543.47216,0.02172
4545.40063,0.01640
4547.32910,0.01566
4549.25757,0.01831
4551.18604,0.02090
4553.11450,0.02231
4555.04297,0.02250
4556.97144,0.02192
4558.89991,0.01935
4560.82838,0.01315
4562.75685,0.00553
4564.68532,0.00227
4566.61378,0.00316
4568.54225,0.00440
4570.47072,0.00574
4572.39919,0.00664
4574.32766,0.00687
4576.25613,0.00730
4578.18460,0.00642
4580.11307,0.00351
4582.04153,0.00230
4583.97000,0.00747
4585.89847,0.01521
4587.82694,0.01501
4589.75541,0.00647
4591.68388,-0.00110
4593.61235,-0.00019
4595.54081,0.00917
4597.46928,0.01898
4599.39775,0.02232
4601.32622,0.01865
4603.25469,0.01106
4605.18316,0.00449
4607.11163,0.00405
4609.04010,0.00912
4610.96856,0.01362
4612.89703,0.01615
4614.82550,0.01693
4616.75397,0.01364
4618.68244,0.00991
4620.61091,0.00862
4622.53938,0.00811
4624.46784,0.01037
4626.39631,0.01531
4628.32478,0.01762
4630.25325,0.01388
4632.18172,0.00820
4634.11019,0.00731
4636.03866,0.00978
4637.96713,0.01192
4639.89559,0.01373
4641.82406,0.01139
4643.75253,0.00242
4645.68100,-0.00464
4647.60947,-0.00439
4649.53794,0.00019
4651.46641,0.00613
4653.39487,0.00960
4655.32334,0.00729
4657.25181,0.00052
4659.18028,-0.00383
4661.10875,-0.00434
4663.03722,-0.00402
4664.96569,-0.00343
4666.89416,-0.00697
4668.82262,-0.01018
4670.75109,-0.00411
4672.67956,0.00158
4674.60803,0.00200
4676.53650,0.00686
4678.46497,0.00996
4680.39344,0.00461
4682.32190,0.00227
4684.25037,0.00621
4686.17884,0.00816
4688.10731,0.00314
4690.03578,-0.00238
4691.96425,0.00189
4693.89272,0.00907
4695.82119,0.01040
4697.74965,0.01115
4699.67812,0.01041
4701.60659,0.00592
4703.53506,0.00378
4705.46353,0.00218
4707.39200,-0.00098
4709.32047,-0.00041
4711.24893,0.00256
4713.17740,0.00237
4715.10587,0.00117
4717.03434,0.00259
4718.96281,0.00444
4720.89128,0.00547
4722.81975,0.00657
4724.74821,0.00692
4726.67668,0.00335
4728.60515,-0.00286
4730.53362,-0.00507
4732.46209,-0.00399
4734.39056,-0.00154
4736.31903,0.00248
4738.24750,0.00291
4740.17596,0.00052
4742.10443,0.00037
4744.03290,0.00067
4745.96137,0.00319
4747.88984,0.01128
4749.81831,0.01729
4751.74678,0.01839
4753.67524,0.01841
4755.60371,0.01048
4757.53218,-0.00074
4759.46065,0.00050
4761.38912,0.00575
4763.31759,0.00353
4765.24606,0.00262
4767.17453,0.00524
4769.10299,0.00757
4771.03146,0.01304
4772.95993,0.01869
4774.88840,0.01520
4776.81687,0.00433
4778.74534,-0.00347
4780.67381,-0.00370
4782.60227,-0.00032
4784.53074,0.00024
4786.45921,-0.00280
4788.38768,-0.00237
4790.31615,0.00114
4792.24462,-0.00103
4794.17309,-0.00488
4796.10156,-0.00300
4798.03002,0.00100
4799.95849,0.00351
4801.88696,0.00479
4803.81543,0.00832
4805.74390,0.01767
4807.67237,0.02547
4809.60084,0.01763
4811.52930,-0.00057
4813.45777,-0.00732
4815.38624,-0.00064
4817.31471,0.00319
4819.24318,-0.00020
4821.17165,-0.00156
4823.10012,0.00499
4825.02859,0.01496
4826.95705,0.02014
4828.88552,0.01421
4830.81399,0.00238
4832.74246,-0.00136
4834.67093,0.00424
4836.59940,0.00999
4838.52787,0.00869
4840.45633,-0.00144
4842.38480,-0.01162
4844.31327,-0.00974
4846.24174,0.00298
4848.17021,0.01048
4850.09868,0.00938
4852.02715,0.01229
4853.95562,0.01962
4855.88408,0.02320
4857.81255,0.01656
4859.74102,0.00034
4861.66949,-0.01138
4863.59796,-0.01110
4865.52643,-0.00704
4867.45490,-0.00328
4869.38336,0.00015
4871.31183,-0.00029
4873.24030,-0.00336
4875.16877,-0.00114
4877.09724,0.01123
4879.02571,0.02131
4880.95418,0.01499
4882.88265,0.00774
4884.81111,0.01211
4886.73958,0.01528
4888.66805,0.00978
4890.59652,-0.00136
4892.52499,-0.01211
4894.45346,-0.01279
4896.38193,-0.00068
4898.31039,0.01395
4900.23886,0.01925
4902.16733,0.01323
4904.09580,0.00185
4906.02427,-0.00547
4907.95274,-0.00335
4909.88121,0.00603
4911.80967,0.01670
4913.73814,0.02464
4915.66661,0.02144
4917.59508,0.00823
4919.52355,0.00147
4921.45202,0.00629
4923.38049,0.01282
4925.30896,0.01274
4927.23742,0.00917
4929.16589,0.00664
4931.09436,0.00201
4933.02283,0.00011
4934.95130,0.00508
4936.87977,0.00543
4938.80824,-0.00095
4940.73670,-0.00274
4942.66517,-0.00375
4944.59364,-0.00963
4946.52211,-0.00982
4948.45058,-0.00260
4950.37905,0.00132
4952.30752,0.00166
4954.23599,0.00452
4956.16445,0.01035
4958.09292,0.01236
4960.02139,0.00676
4961.94986,0.00392
4963.87833,0.00763
4965.80680,0.01109
4967.73527,0.01502
4969.66373,0.01657
4971.59220,0.01467
4973.52067,0.01645
4975.44914,0.01685
4977.37761,0.01333
4979.30608,0.01214
4981.23455,0.00478
4983.16302,-0.00841
4985.09148,-0.00814
4987.01995,0.00701
4988.94842,0.01618
4990.87689,0.00629
4992.80536,-0.00622
4994.73383,0.00055
4996.66230,0.01545
4998.59076,0.01836
5000.51923,0.01243
5002.44770,0.00284
5004.37617,-0.00410
5006.30464,0.00095
5008.23311,0.01270
5010.16158,0.01957
5012.09005,0.01544
5014.01851,0.00519
5015.94698,0.00039
5017.87545,0.00281
5019.80392,0.00562
5021.73239,0.01055
5023.66086,0.01575
5025.58933,0.01019
5027.51779,0.00228
5029.44626,0.00737
5031.37473,0.01697
5033.30320,0.01247
5035.23167,0.00029
5037.16014,0.00053
5039.08861,0.00739
5041.01708,0.00882
5042.94554,0.00978
5044.87401,0.01013
5046.80248,0.00844
5048.73095,0.01149
5050.65942,0.01692
5052.58789,0.01873
5054.51636,0.01520
5056.44482,0.00997
5058.37329,0.01353
5060.30176,0.01976
5062.23023,0.01785
5064.15870,0.01828
5066.08717,0.02467
5068.01564,0.02440
5069.94410,0.02053
5071.87257,0.02354
5073.80104,0.02834
5075.72951,0.03218
5077.65798,0.03248
5079.58645,0.02475
5081.51492,0.01898
5083.44339,0.01848
5085.37185,0.01396
5087.30032,0.00158
5089.22879,-0.01134
5091.15726,-0.01730
5093.08573,-0.01844
5095.01420,-0.01218
5096.94267,0.00582
5098.87113,0.02613
5100.79960,0.03600
5102.72807,0.03503
5104.65654,0.03217
5106.58501,0.02974
5108.51348,0.02692
5110.44195,0.02626
5112.37042,0.02627
5114.29888,0.02443
5116.22735,0.01700
5118.15582,0.00635
5120.08429,0.00581
5122.01276,0.01663
5123.94123,0.02301
5125.86970,0.01905
5127.79816,0.01830
5129.72663,0.02411
5131.65510,0.02739
5133.58357,0.02590
5135.51204,0.02079
5137.44051,0.02346
5139.36898,0.03806
5141.29745,0.04689
5143.22591,0.04502
5145.15438,0.04560
5147.08285,0.04661
5149.01132,0.03696
5150.93979,0.02639
5152.86826,0.02999
5154.79673,0.03879
5156.72519,0.03244
5158.65366,0.02298
5160.58213,0.03615
5162.51060,0.05504
5164.43907,0.05389
5166.36754,0.05107
5168.29601,0.06311
5170.22448,0.06431
5172.15294,0.04963
5174.08141,0.04542
5176.00988,0.04576
5177.93835,0.04146
5179.86682,0.04061
5181.79529,0.03783
5183.72376,0.02803
5185.65222,0.01740
5187.58069,0.00867
5189.50916,0.00252
5191.43763,0.00144
5193.36610,0.00725
5195.29457,0.01686
5197.22304,0.02891
5199.15151,0.04662
5201.07997,0.05872
5203.00844,0.05847
5204.93691,0.04994
5206.86538,0.03428
5208.79385,0.02393
5210.72232,0.02420
5212.65079,0.03207
5214.57925,0.04168
5216.50772,0.04080
5218.43619,0.03016
5220.36466,0.02306
5222.29313,0.02738
5224.22160,0.03873
5226.15007,0.04788
5228.07854,0.04769
5230.00700,0.03711
5231.93547,0.02482
5233.86394,0.02596
5235.79241,0.03511
5237.72088,0.03798
5239.64935,0.04409
5241.57782,0.05721
5243.50628,0.06612
5245.43475,0.06817
5247.36322,0.06505
5249.29169,0.06050
5251.22016,0.05736
5253.14863,0.05204
5255.07710,0.04762
5257.00556,0.05414
5258.93403,0.06370
5260.86250,0.06378
5262.79097,0.06520
5264.71944,0.07017
5266.64791,0.06509
5268.57638,0.05575
5270.50485,0.04281
5272.43331,0.03000
5274.36178,0.03445
5276.29025,0.04586
5278.21872,0.04557
5280.14719,0.04066
5282.07566,0.03973
5284.00413,0.04253
5285.93259,0.04946
5287.86106,0.05624
5289.78953,0.05971
5291.71800,0.06431
5293.64647,0.06630
5295.57494,0.05699
5297.50341,0.04155
5299.43188,0.03210
5301.36034,0.03031
5303.28881,0.03357
5305.21728,0.04352
5307.14575,0.05616
5309.07422,0.06276
5311.00269,0.05827
5312.93116,0.04625
5314.85962,0.04021
5316.78809,0.05033
5318.71656,0.06877
5320.64503,0.07635
5322.57350,0.07036
5324.50197,0.06746
5326.43044,0.06860
5328.35891,0.06297
5330.28737,0.06266
5332.21584,0.06837
5334.14431,0.05581
5336.07278,0.03494
5338.00125,0.03507
5339.92972,0.04353
5341.85819,0.03706
5343.78665,0.02657
5345.71512,0.02821
5347.64359,0.03818
5349.57206,0.05069
5351.50053,0.06374
5353.42900,0.06991
5355.35747,0.06487
5357.28594,0.05356
5359.21440,0.04632
5361.14287,0.05836
5363.07134,0.08116
5364.99981,0.08667
5366.92828,0.08229
5368.85675,0.08674
5370.78522,0.09384
5372.71368,0.09699
5374.64215,0.09809
5376.57062,0.09488
5378.49909,0.07757
5380.42756,0.06049
5382.35603,0.06461
5384.28450,0.07575
5386.21297,0.06895
5388.14143,0.05322
5390.06990,0.04242
5391.99837,0.03744
5393.92684,0.04063
5395.85531,0.04682
5397.78378,0.04797
5399.71225,0.05114
5401.64071,0.06548
5403.56918,0.08122
5405.49765,0.08143
5407.42612,0.06776
5409.35459,0.05264
5411.28306,0.04641
5413.21153,0.04864
5415.13999,0.04832
5417.06846,0.04946
5418.99693,0.05586
5420.92540,0.05665
5422.85387,0.05102
5424.78234,0.05654
5426.71081,0.07380
5428.63928,0.07821
5430.56774,0.07126
5432.49621,0.07402
5434.42468,0.08102
5436.35315,0.08147
5438.28162,0.07027
5440.21009,0.04829
5442.13856,0.03643
5444.06702,0.04354
5445.99549,0.05113
5447.92396,0.05330
5449.85243,0.05581
5451.78090,0.05734
5453.70937,0.06220
5455.63784,0.07263
5457.56631,0.07504
5459.49477,0.07419
5461.42324,0.08332
5463.35171,0.08211
5465.28018,0.07039
5467.20865,0.07392
5469.13712,0.08300
5471.06559,0.07836
5472.99405,0.06894
5474.92252,0.06069
5476.85099,0.05512
5478.77946,0.05771
5480.70793,0.05447
5482.63640,0.03703
5484.56487,0.03354
5486.49334,0.05617
5488.42180,0.07706
5490.35027,0.07983
5492.27874,0.06894
5494.20721,0.05685
5496.13568,0.05385
5498.06415,0.05440
5499.99262,0.05629
5501.92108,0.06260
5503.84955,0.07367
5505.77802,0.08464
5507.70649,0.08573
5509.63496,0.07964
5511.56343,0.07670
5513.49190,0.08169
5515.42037,0.09565
5517.34883,0.10182
5519.27730,0.08577
5521.20577,0.07151
5523.13424,0.07575
5525.06271,0.07902
5526.99118,0.07672
5528.91965,0.08228
5530.84811,0.09114
5532.77658,0.09515
5534.70505,0.09464
5536.63352,0.08938
5538.56199,0.08381
5540.49046,0.08267
5542.41893,0.09242
5544.34740,0.10792
5546.27586,0.10809
5548.20433,0.09709
5550.13280,0.09096
5552.06127,0.08247
5553.98974,0.05809
5555.91821,0.03474
5557.84668,0.04551
5559.77514,0.07354
5561.70361,0.08961
5563.63208,0.09743
5565.56055,0.09467
5567.48902,0.07555
5569.41749,0.05508
5571.34596,0.04655
5573.27443,0.04563
5575.20289,0.06010
5577.13136,0.09010
5579.05983,0.09494
5580.98830,0.06736
5582.91677,0.04939
5584.84524,0.04640
5586.77371,0.05115
5588.70217,0.07297
5590.63064,0.09067
5592.55911,0.08331
5594.48758,0.07094
5596.41605,0.06514
5598.34452,0.06329
5600.27299,0.07205
5602.20145,0.08647
5604.12992,0.09855
5606.05839,0.10416
5607.98686,0.10472
5609.91533,0.10371
5611.84380,0.09115
5613.77227,0.07279
5615.70074,0.07137
5617.62920,0.08103
5619.55767,0.07982
5621.48614,0.07186
5623.41461,0.06769
5625.34308,0.07014
5627.27155,0.08137
5629.20002,0.08522
5631.12848,0.07614
5633.05695,0.06853
5634.98542,0.06701
5636.91389,0.06921
5638.84236,0.07374
5640.77083,0.07499
5642.69930,0.08020
5644.62777,0.10225
5646.55623,0.11969
5648.48470,0.10744
5650.41317,0.07845
5652.34164,0.05653
5654.27011,0.05183
5656.19858,0.06529
5658.12705,0.08789
5660.05551,0.09665
5661.98398,0.09018
5663.91245,0.09254
5665.84092,0.10271
5667.76939,0.10321
5669.69786,0.09140
5671.62633,0.06757
5673.55480,0.04584
5675.48326,0.05239
5677.41173,0.07501
5679.34020,0.08268
5681.26867,0.07904
5683.19714,0.08069
5685.12561,0.08148
5687.05408,0.07376
5688.98254,0.07539
5690.91101,0.08119
5692.83948,0.07000
5694.76795,0.06162
5696.69642,0.07508
5698.62489,0.10095
5700.55336,0.12416
5702.48183,0.12565
5704.41029,0.10043
5706.33876,0.06598
5708.26723,0.04716
5710.19570,0.05585
5712.12417,0.07253
5714.05264,0.08454
5715.98111,0.09364
5717.90957,0.08479
5719.83804,0.06928
5721.76651,0.07092
5723.69498,0.07890
5725.62345,0.08838
5727.55192,0.09427
5729.48039,0.08397
5731.40886,0.07550
5733.33732,0.08055
5735.26579,0.09215
5737.19426,0.10106
5739.12273,0.09652
5741.05120,0.08853
5742.97967,0.09929
5744.90814,0.13364
5746.83660,0.15478
5748.76507,0.11642
5750.69354,0.05512
5752.62201,0.04148
5754.55048,0.05139
5756.47895,0.05434
5758.40742,0.07619
5760.33588,0.10756
5762.26435,0.11025
5764.19282,0.09353
5766.12129,0.09922
5768.04976,0.12748
5769.97823,0.14003
5771.90670,0.12052
5773.83517,0.08671
5775.76363,0.06011
5777.69210,0.04941
5779.62057,0.05171
5781.54904,0.06337
5783.47751,0.07804
5785.40598,0.07795
5787.33445,0.06907
5789.26291,0.07848
5791.19138,0.08969
5793.11985,0.08476
5795.04832,0.08255
5796.97679,0.08935
5798.90526,0.10911
5800.83373,0.13320
5802.76220,0.12554
5804.69066,0.09899
5806.61913,0.09142
5808.54760,0.09353
5810.47607,0.09322
5812.40454,0.08345
5814.33301,0.07148
5816.26148,0.07718
5818.18994,0.08415
5820.11841,0.07752
5822.04688,0.07986
5823.97535,0.10339
5825.90382,0.12760
5827.83229,0.13172
5829.76076,0.11753
5831.68923,0.09109
5833.61769,0.06180
5835.54616,0.05552
5837.47463,0.06818
5839.40310,0.07280
5841.33157,0.07494
5843.26004,0.07288
5845.18851,0.04817
5847.11697,0.03845
5849.04544,0.07439
5850.97391,0.11101
5852.90238,0.12852
5854.83085,0.13498
5856.75932,0.11789
5858.68779,0.09859
5860.61626,0.10316
5862.54472,0.10963
5864.47319,0.09762
5866.40166,0.07593
5868.33013,0.05555
5870.25860,0.04994
5872.18707,0.06141
5874.11554,0.07073
5876.04400,0.07297
5877.97247,0.08737
5879.90094,0.11216
5881.82941,0.11758
5883.75788,0.10048
5885.68635,0.09067
5887.61482,0.09470
5889.54329,0.08870
5891.47175,0.08139
5893.40022,0.09094
5895.32869,0.09019
5897.25716,0.07217
5899.18563,0.07167
5901.11410,0.08892
5903.04257,0.09585
5904.97103,0.09810
5906.89950,0.10685
5908.82797,0.09838
5910.75644,0.06497
5912.68491,0.04429
5914.61338,0.06066
5916.54185,0.08514
5918.47032,0.09660
5920.39878,0.10476
5922.32725,0.09802
5924.25572,0.07132
5926.18419,0.05264
5928.11266,0.05811
5930.04113,0.07236
5931.96960,0.07331
5933.89806,0.05671
5935.82653,0.03760
5937.75500,0.03103
5939.68347,0.03440
5941.61194,0.04021
5943.54041,0.04763
5945.46888,0.05737
5947.39734,0.08305
5949.32581,0.12398
5951.25428,0.14590
5953.18275,0.14627
5955.11122,0.14196
5957.03969,0.12580
5958.96816,0.08688
5960.89663,0.04887
5962.82509,0.05687
5964.75356,0.09289
5966.68203,0.10185
5968.61050,0.08246
5970.53897,0.07652
5972.46744,0.07219
5974.39591,0.04098
5976.32437,0.02634
5978.25284,0.05055
5980.18131,0.07168
5982.10978,0.06025
5984.03825,0.03490
5985.96672,0.03333
5987.89519,0.05930
5989.82366,0.07928
5991.75212,0.07091
5993.68059,0.06855
5995.60906,0.09812
5997.53753,0.11610
5999.46600,0.10962
6001.39447,0.11503
6003.32294,0.13444
6005.25140,0.13415
6007.17987,0.11872
6009.10834,0.10908
6011.03681,0.10090
6012.96528,0.10105
6014.89375,0.10532
6016.82222,0.09337
6018.75069,0.07480
6020.67915,0.08529
6022.60762,0.12084
6024.53609,0.14096
6026.46456,0.13396
6028.39303,0.11069
6030.32150,0.08727
6032.24997,0.08244
6034.17843,0.10082
6036.10690,0.11616
6038.03537,0.09839
6039.96384,0.07694
6041.89231,0.08501
6043.82078,0.10137
6045.74925,0.10747
6047.67772,0.10916
6049.60618,0.10507
6051.53465,0.10091
6053.46312,0.09480
6055.39159,0.08133
6057.32006,0.07359
6059.24853,0.05864
6061.17700,0.03709
6063.10546,0.05373
6065.03393,0.09706
6066.96240,0.10447
6068.89087,0.07239
6070.81934,0.05376
6072.74781,0.06380
6074.67628,0.07143
6076.60475,0.06972
6078.53321,0.07533
6080.46168,0.07829
6082.39015,0.06209
6084.31862,0.05487
6086.24709,0.07998
6088.17556,0.10321
6090.10403,0.09943
6092.03249,0.09654
6093.96096,0.11990
6095.88943,0.12900
6097.81790,0.09585
6099.74637,0.08245
6101.67484,0.10848
6103.60331,0.11893
6105.53177,0.11230
6107.46024,0.10953
6109.38871,0.08942
6111.31718,0.04546
6113.24565,0.02089
6115.17412,0.04266
6117.10259,0.08859
6119.03106,0.11179
6120.95952,0.10617
6122.88799,0.10834
6124.81646,0.10787
6126.74493,0.08109
6128.67340,0.04581
6130.60187,0.02772
6132.53034,0.03477
6134.45880,0.06708
6136.38727,0.10127
6138.31574,0.09613
6140.24421,0.05513
6142.17268,0.02461
6144.10115,0.03270
6146.02962,0.07188
6147.95809,0.11718
6149.88655,0.14071
6151.81502,0.12434
6153.74349,0.08590
6155.67196,0.07495
6157.60043,0.09608
6159.52890,0.09088
6161.45737,0.04903
6163.38583,0.02553
6165.31430,0.03951
6167.24277,0.07134
6169.17124,0.09195
6171.09971,0.09667
6173.02818,0.11011
6174.95665,0.11972
6176.88512,0.09736
6178.81358,0.05474
6180.74205,0.02385
6182.67052,0.02533
6184.59899,0.04500
6186.52746,0.05210
6188.45593,0.04092
6190.38440,0.02956
6192.31286,0.02940
6194.24133,0.04586
6196.16980,0.07418
6198.09827,0.09503
6200.02674,0.10943
6201.95521,0.12467
6203.88368,0.12724
6205.81215,0.12461
6207.74061,0.12144
6209.66908,0.09180
6211.59755,0.04263
6213.52602,0.01958
6215.45449,0.04166
6217.38296,0.06527
6219.31143,0.05763
6221.23989,0.06598
6223.16836,0.11198
6225.09683,0.14291
6227.02530,0.11335
6228.95377,0.06114
6230.88224,0.04636
6232.81071,0.06583
6234.73918,0.08737
6236.66764,0.07682
6238.59611,0.04476
6240.52458,0.05327
6242.45305,0.09149
6244.38152,0.10173
6246.30999,0.08131
6248.23846,0.06180
6250.16692,0.06311
6252.09539,0.06116
6254.02386,0.04032
6255.95233,0.01463
6257.88080,-0.00485
6259.80927,0.01127
6261.73774,0.06904
6263.66621,0.12705
6265.59467,0.18125
6267.52314,0.22541
6269.45161,0.19112
6271.38008,0.10815
6273.30855,0.06438
6275.23702,0.05499
6277.16549,0.04144
6279.09395,0.03439
6281.02242,0.03830
6282.95089,0.04305
6284.87936,0.03548
6286.80783,0.03425
6288.73630,0.07609
6290.66477,0.12491
6292.59323,0.10834
6294.52170,0.05178
6296.45017,0.03550
6298.37864,0.07726
6300.30711,0.11208
6302.23558,0.08330
6304.16405,0.04361
6306.09252,0.05477
6308.02098,0.08634
6309.94945,0.07336
6311.87792,0.02842
6313.80639,0.02908
6315.73486,0.05419
6317.66333,0.05267
6319.59180,0.06547
6321.52026,0.08891
6323.44873,0.06699
6325.37720,0.03276
6327.30567,0.04056
6329.23414,0.08416
6331.16261,0.12311
6333.09108,0.13059
6335.01955,0.10204
6336.94801,0.06429
6338.87648,0.04876
6340.80495,0.05242
6342.73342,0.06926
6344.66189,0.08024
6346.59036,0.05824
6348.51883,0.04616
6350.44729,0.08675
6352.37576,0.11397
6354.30423,0.08710
6356.23270,0.06254
6358.16117,0.06014
6360.08964,0.06949
6362.01811,0.08686
6363.94658,0.08983
6365.87504,0.08080
6367.80351,0.05872
6369.73198,0.02255
6371.66045,0.02774
6373.58892,0.08295
6375.51739,0.12875
6377.44586,0.13840
6379.37432,0.12061
6381.30279,0.10454
6383.23126,0.12077
6385.15973,0.15261
6387.08820,0.16439
6389.01667,0.13905
6390.94514,0.07242
6392.87361,0.01908
6394.80207,0.01879
6396.73054,0.02501
6398.65901,0.02480
6400.58748,0.02844
6402.51595,0.01788
6404.44442,-0.00552
6406.37289,-0.01432
6408.30135,-0.00325
6410.22982,0.02755
6412.15829,0.05837
6414.08676,0.05362
6416.01523,0.05831
6417.94370,0.10845
6419.87217,0.15355
6421.80064,0.15499
6423.72910,0.11324
6425.65757,0.06169
6427.58604,0.02721
6429.51451,0.00024
6431.44298,0.00925
6433.37145,0.04364
6435.29992,0.05726
6437.22838,0.07019
6439.15685,0.08580
6441.08532,0.08240
6443.01379,0.07333
6444.94226,0.07430
6446.87073,0.08370
6448.79920,0.08972
6450.72766,0.06877
6452.65613,0.02451
6454.58460,0.00445
6456.51307,0.01744
6458.44154,0.03764
6460.37001,0.07217
6462.29848,0.09867
6464.22695,0.08901
6466.15541,0.07519
6468.08388,0.06597
6470.01235,0.06911
6471.94082,0.11156
6473.86929,0.14955
6475.79776,0.13350
6477.72623,0.07024
6479.65469,-0.00467
6481.58316,-0.03066
6483.51163,0.01541
6485.44010,0.05793
6487.36857,0.03573
6489.29704,-0.01494
6491.22551,-0.01390
6493.15398,0.02802
6495.08244,0.03954
6497.01091,0.04436
6498.93938,0.07727
6500.86785,0.08456
6502.79632,0.03162
6504.72479,-0.00656
6506.65326,0.02675
6508.58172,0.09557
6510.51019,0.13984
6512.43866,0.14523
6514.36713,0.10411
6516.29560,0.02913
6518.22407,-0.01057
6520.15254,0.01107
6522.08101,0.05770
6524.00947,0.10232
6525.93794,0.13133
6527.86641,0.15358
6529.79488,0.17970
6531.72335,0.16843
6533.65182,0.11650
6535.58029,0.09898
6537.50875,0.10625
6539.43722,0.07583
6541.36569,0.02898
6543.29416,0.00374
6545.22263,0.00170
6547.15110,0.00383
6549.07957,-0.00079
6551.00804,0.00515
6552.93650,0.03298
6554.86497,0.05646
6556.79344,0.04820
6558.72191,0.03459
6560.65038,0.05436
6562.57885,0.07773
6564.50732,0.08799
6566.43578,0.10908
6568.36425,0.12412
6570.29272,0.12778
6572.22119,0.13147
6574.14966,0.13576
6576.07813,0.15313
6578.00660,0.17050
6579.93507,0.16077
6581.86353,0.13627
6583.79200,0.11166
6585.72047,0.09775
6587.64894,0.10721
6589.57741,0.11884
6591.50588,0.12438
6593.43435,0.13968
6595.36281,0.15424
6597.29128,0.14219
6599.21975,0.09082
6601.14822,0.03405
6603.07669,0.02613
6605.00516,0.02903
6606.93363,-0.00729
6608.86210,-0.02910
6610.79056,0.01477
6612.71903,0.06783
6614.64750,0.08121
6616.57597,0.07127
6618.50444,0.07013
6620.43291,0.09027
6622.36138,0.09019
6624.28984,0.05376
6626.21831,0.03970
6628.14678,0.04974
6630.07525,0.04399
6632.00372,0.04492
6633.93219,0.04989
6635.86066,0.05357
6637.78912,0.09342
6639.71759,0.13760
6641.64606,0.13294
6643.57453,0.08843
6645.50300,0.05576
6647.43147,0.06164
6649.35994,0.06886
6651.28841,0.05091
6653.21687,0.03100
6655.14534,0.01946
6657.07381,0.01471
6659.00228,0.02705
6660.93075,0.02715
6662.85922,0.00771
6664.78769,0.02886
6666.71615,0.11701
6668.64462,0.20665
6670.57309,0.20820
6672.50156,0.16025
6674.43003,0.16101
6676.35850,0.15773
6678.28697,0.10128
6680.21544,0.04750
6682.14390,0.02540
6684.07237,0.02462
6686.00084,0.02384
6687.92931,0.01484
6689.85778,0.01987
6691.78625,0.05965
6693.71472,0.08208
6695.64318,0.02341
6697.57165,-0.03860
6699.50012,0.00536
6701.42859,0.08992
6703.35706,0.09722
6705.28553,0.01341
6707.21400,-0.05660
6709.14247,-0.05033
6711.07093,-0.02067
6712.99940,0.00462
6714.92787,0.03989
6716.85634,0.06485
6718.78481,0.05489
6720.71328,0.04060
6722.64175,0.04338
6724.57021,0.04525
6726.49868,0.04777
6728.42715,0.06658
6730.35562,0.09024
6732.28409,0.08585
6734.21256,0.06239
6736.14103,0.05395
6738.06950,0.05413
6739.99796,0.03634
6741.92643,0.00019
6743.85490,-0.03269
6745.78337,-0.03862
6747.71184,-0.01607
6749.64031,-0.00388
6751.56878,-0.02217
6753.49724,-0.03705
6755.42571,-0.00713
6757.35418,0.04183
6759.28265,0.06275
6761.21112,0.07130
6763.13959,0.09153
6765.06806,0.10883
6766.99653,0.10565
6768.92499,0.08370
6770.85346,0.07754
6772.78193,0.10041
6774.71040,0.10489
6776.63887,0.05989
6778.56734,0.00541
6780.49581,-0.01564
6782.42427,0.02699
6784.35274,0.11645
6786.28121,0.17757
6788.20968,0.17967
6790.13815,0.16666
6792.06662,0.14107
6793.99509,0.10412
6795.92355,0.11580
6797.85202,0.13632
6799.78049,0.11538
6801.70896,0.10573
6803.63743,0.10154
6805.56590,0.03238
6807.49437,-0.03585
6809.42284,-0.00909
6811.35130,0.05595
6813.27977,0.02386
6815.20824,-0.08434
6817.13671,-0.12179
6819.06518,-0.05904
6820.99365,0.01690
6822.92212,0.04660
6824.85058,0.01664
6826.77905,0.00133
6828.70752,0.03099
6830.63599,0.01514
6832.56446,-0.03798
6834.49293,-0.02341
6836.42140,0.03204
6838.34987,0.04485
6840.27833,0.03490
6842.20680,0.03313
6844.13527,0.06553
6846.06374,0.17379
6847.99221,0.30396
6849.92068,0.27467
6851.84915,0.12862
6853.77761,0.04222
6855.70608,0.04881
6857.63455,0.07570
6859.56302,0.04262
6861.49149,-0.00472
6863.41996,0.00964
6865.34843,0.05747
6867.27690,0.06714
6869.20536,0.01168
6871.13383,-0.04823
6873.06230,-0.04429
6874.99077,0.00638
6876.91924,0.07312
6878.84771,0.15520
6880.77618,0.15519
6882.70464,0.04770
6884.63311,-0.03861
6886.56158,-0.04730
6888.49005,-0.01226
6890.41852,0.02490
6892.34699,0.07051
6894.27546,0.07311
6896.20393,0.00575
6898.13239,-0.01970
6900.06086,-0.00189
6901.98933,-0.01451
6903.91780,-0.01753
6905.84627,0.00666
6907.77474,0.03071
6909.70321,0.04382
6911.63167,0.03763
6913.56014,0.01909
6915.48861,-0.01572
6917.41708,-0.05467
6919.34555,-0.02752
6921.27402,0.04607
6923.20249,0.05856
6925.13096,0.02105
6927.05942,-0.02011
6928.98789,-0.05841
6930.91636,-0.04191
6932.84483,0.04945
6934.77330,0.10433
6936.70177,0.09132
6938.63024,0.06079
6940.55870,0.05480
6942.48717,0.04984
6944.41564,0.02508
6946.34411,0.03781
6948.27258,0.06966
6950.20105,0.07284
6952.12952,0.06576
6954.05799,0.06913
6955.98645,0.07566
6957.91492,0.05784
6959.84339,0.01377
6961.77186,-0.00689
6963.70033,0.02302
6965.62880,0.02396
6967.55727,-0.04134
6969.48573,-0.03047
6971.41420,0.12628
6973.34267,0.22071
6975.27114,0.13035
6977.19961,0.04086
6979.12808,0.00771
6981.05655,-0.05214
6982.98501,-0.07434
6984.91348,-0.00611
6986.84195,0.01785
6988.77042,-0.02764
6990.69889,-0.05458
6992.62736,-0.06117
6994.55583,-0.04941
6996.48430,-0.03158
6998.41276,-0.03826
7000.34123,-0.05336
7002.26970,-0.04156
7004.19817,-0.02219
7006.12664,-0.03007
7008.05511,0.00819
7009.98358,0.11366
7011.91204,0.19250
7013.84051,0.16411
7015.76898,0.05979
7017.69745,-0.03556
7019.62592,-0.07686
7021.55439,-0.04244
7023.48286,0.01299
7025.41133,0.01106
7027.33979,-0.11358
7029.26826,-0.24863
7031.19673,-0.15634
7033.12520,0.01195
7035.05367,0.03337
7036.98214,-0.03963
7038.91061,-0.05096
7040.83907,0.02091
7042.76754,0.06985
7044.69601,0.04051
7046.62448,0.03097
7048.55295,0.09504
7050.48142,0.19812
7052.40989,0.27212
7054.33836,0.26296
7056.26682,0.23311
7058.19529,0.27227
7060.12376,0.27911
7062.05223,0.17904
7063.98070,0.09778
7065.90917,0.09670
7067.83764,0.07757
7069.76610,0.06583
7071.69457,0.10494
7073.62304,0.10361
7075.55151,0.07884
7077.47998,0.08330
7079.40845,0.11119
7081.33692,0.14019
7083.26539,0.15171
7085.19385,0.13332
7087.12232,0.09656
7089.05079,0.09288
7090.97926,0.10297
7092.90773,0.08860
7094.83620,0.08866
7096.76467,0.13112
7098.69313,0.13468
7100.62160,0.05012
7102.55007,-0.03659
7104.47854,-0.07971
7106.40701,-0.03591
7108.33548,0.07626
7110.26395,0.14976
7112.19242,0.14526
7114.12088,0.09925
7116.04935,0.05912
7117.97782,0.01799
7119.90629,-0.02359
7121.83476,-0.02832
7123.76323,0.00618
7125.69170,0.04730
7127.62016,0.07812
7129.54863,0.11192
7131.47710,0.14671
7133.40557,0.16948
7135.33404,0.20057
7137.26251,0.24411
7139.19098,0.21058
7141.11944,0.10474
7143.04791,0.10870
7144.97638,0.22864
7146.90485,0.24653
7148.83332,0.11237
7150.76179,-0.01628
7152.69026,-0.02043
7154.61873,0.04492
7156.54719,0.03755
7158.47566,-0.02529
7160.40413,-0.06454
7162.33260,-0.03966
7164.26107,0.01086
7166.18954,0.02363
7168.11801,0.04882
7170.04647,0.17119
7171.97494,0.28598
7173.90341,0.25675
7175.83188,0.15190
7177.76035,0.08594
7179.68882,0.06049
7181.61729,-0.02272
7183.54576,-0.16638
7185.47422,-0.17325
7187.40269,-0.04086
7189.33116,0.11230
7191.25963,0.21723
7193.18810,0.23629
7195.11657,0.20168
7197.04504,0.16955
7198.97350,0.14759
7200.90197,0.13542
7202.83044,0.18057
7204.75891,0.26270
7206.68738,0.25976
7208.61585,0.17908
7210.54432,0.08990
7212.47279,0.05478
7214.40125,0.05873
7216.32972,0.05468
7218.25819,0.08767
7220.18666,0.11039
7222.11513,0.05243
7224.04360,0.01563
7225.97207,0.00335
7227.90053,-0.06591
7229.82900,-0.09937
7231.75747,-0.04503
7233.68594,-0.02349
7235.61441,-0.07097
7237.54288,-0.09347
7239.47135,-0.00356
7241.39982,0.12476
7243.32828,0.11365
7245.25675,-0.01791
7247.18522,-0.07675
7249.11369,-0.05248
7251.04216,-0.01826
7252.97063,-0.05147
7254.89910,-0.13503
7256.82756,-0.14705
7258.75603,-0.06254
7260.68450,0.07538
7262.61297,0.13931
7264.54144,0.10335
7266.46991,0.11332
7268.39838,0.14875
7270.32685,0.07253
7272.25531,-0.03410
7274.18378,-0.03796
7276.11225,-0.06594
7278.04072,-0.14518
7279.96919,-0.15440
7281.89766,-0.02170
7283.82613,0.12406
7285.75459,0.18555
7287.68306,0.14124
7289.61153,0.05581
7291.54000,0.00288
7293.46847,0.00442
7295.39694,0.04633
7297.32541,0.06805
7299.25387,0.05430
7301.18234,0.06480
7303.11081,0.09821
7305.03928,0.09463
7306.96775,0.11386
7308.89622,0.14757
7310.82469,0.05934
7312.75316,-0.06784
7314.68162,-0.13303
7316.61009,-0.01934
7318.53856,0.22694
7320.46703,0.35913
7322.39550,0.34281
7324.32397,0.29015
7326.25244,0.31014
7328.18090,0.41492
7330.10937,0.49568
7332.03784,0.44188
7333.96631,0.27371
7335.89478,0.07407
7337.82325,-0.05836
7339.75172,-0.05245
7341.68019,-0.00971
7343.60865,-0.08122
7345.53712,-0.18644
7347.46559,-0.23227
7349.39406,-0.22790
7351.32253,-0.17710
7353.25100,-0.11293
7355.17947,-0.07358
7357.10793,-0.00797
7359.03640,0.06193
7360.96487,0.07055
7362.89334,0.04949
7364.82181,0.03223
7366.75028,0.03627
7368.67875,0.07869
7370.60722,0.13042
7372.53568,0.13764
7374.46415,0.09401
7376.39262,0.11853
7378.32109,0.22551
7380.24956,0.20800
7382.17803,0.02892
7384.10650,-0.10928
7386.03496,-0.14576
7387.96343,-0.15446
7389.89190,-0.10421
7391.82037,-0.01337
7393.74884,0.02302
7395.67731,0.00238
7397.60578,-0.02961
7399.53425,-0.00543
7401.46271,0.09928
7403.39118,0.17078
7405.31965,0.11432
7407.24812,0.00979
7409.17659,-0.03309
7411.10506,0.00152
7413.03353,0.05266
7414.96199,0.10095
7416.89046,0.07809
7418.81893,-0.04449
7420.74740,0.00944
7422.67587,0.12234
7424.60434,0.05512
7426.53281,-0.03414
7428.46128,-0.01447
7430.38974,0.03609
7432.31821,0.02468
7434.24668,-0.00413
7436.17515,-0.02458
7438.10362,0.01087
7440.03209,0.09615
7441.96056,0.08984
7443.88902,0.04608
7445.81749,0.07660
7447.74596,0.08861
7449.67443,0.02634
7451.60290,-0.02268
7453.53137,0.02593
7455.45984,0.14084
7457.38831,0.24378
7459.31677,0.22345
7461.24524,0.09261
7463.17371,0.05725
7465.10218,0.05661
7467.03065,-0.00173
7468.95912,-0.00838
7470.88759,0.00862
7472.81605,-0.04566
7474.74452,-0.07969
7476.67299,0.01024
7478.60146,0.14188
7480.52993,0.14218
7482.45840,0.02851
7484.38687,-0.04904
7486.31533,-0.01632
7488.24380,0.08907
7490.17227,0.17140
7492.10074,0.19052
7494.02921,0.18215
7495.95768,0.16262
7497.88615,0.06971
