399.19301,-0.21298
401.12148,-0.11640
403.04995,-0.02060
404.97842,-0.05267
406.90689,-0.08614
408.83536,-0.03341
410.76382,0.03830
412.69229,0.04519
414.62076,0.01821
416.54923,-0.00420
418.47770,-0.01424
420.40617,0.05298
422.33464,0.18158
424.26311,0.25413
426.19157,0.20373
428.12004,0.10403
430.04851,0.05154
431.97698,0.09100
433.90545,0.13802
435.83392,0.12249
437.76239,0.04426
439.69085,-0.04009
441.61932,-0.05974
443.54779,-0.00076
445.47626,0.06959
447.40473,0.06902
449.33320,0.02497
451.26167,0.02304
453.19013,0.02924
455.11860,0.00515
457.04707,-0.02668
458.97554,-0.05230
460.90401,-0.05212
462.83248,-0.04750
464.76095,-0.06073
466.68942,-0.04027
468.61788,0.02610
470.54635,0.08802
472.47482,0.10920
474.40329,0.05606
476.33176,0.01772
478.26023,0.04111
480.18870,0.05687
482.11716,0.05174
484.04563,0.06621
485.97410,0.08206
487.90257,0.07537
489.83104,0.04997
491.75951,0.01681
493.68798,0.02051
495.61645,0.04596
497.54491,0.05321
499.47338,0.05834
501.40185,0.04923
503.33032,0.01486
505.25879,0.00947
507.18726,0.03934
509.11573,0.04605
511.04419,0.03264
512.97266,0.03309
514.90113,0.04017
516.82960,0.04634
518.75807,0.06366
520.68654,0.08161
522.61501,0.07548
524.54348,0.05799
526.47194,0.06244
528.40041,0.06829
530.32888,0.05138
532.25735,0.04025
534.18582,0.05303
536.11429,0.06866
538.04276,0.06367
539.97122,0.04352
541.89969,0.04083
543.82816,0.05814
545.75663,0.06363
547.68510,0.05971
549.61357,0.06673
551.54204,0.06596
553.47051,0.05182
555.39897,0.06321
557.32744,0.08986
559.25591,0.09471
561.18438,0.08586
563.11285,0.07626
565.04132,0.06592
566.96979,0.05016
568.89825,0.03558
570.82672,0.03616
572.75519,0.04526
574.68366,0.04811
576.61213,0.04267
578.54060,0.03499
580.46907,0.03690
582.39754,0.05580
584.32600,0.07810
586.25447,0.09193
588.18294,0.09644
590.11141,0.08871
592.03988,0.06314
593.96835,0.03516
595.89682,0.02974
597.82528,0.04308
599.75375,0.05641
601.68222,0.06076
603.61069,0.06769
605.53916,0.08402
607.46763,0.08684
609.39610,0.06532
611.32456,0.04555
613.25303,0.04705
615.18150,0.05690
617.10997,0.06840
619.03844,0.07958
620.96691,0.07684
622.89538,0.06685
624.82385,0.05983
626.75231,0.05741
628.68078,0.06977
630.60925,0.08917
632.53772,0.08803
634.46619,0.06918
636.39466,0.06206
638.32313,0.07111
640.25159,0.08334
642.18006,0.09003
644.10853,0.09287
646.03700,0.09317
647.96547,0.08232
649.89394,0.06981
651.82241,0.07168
653.75088,0.07556
655.67934,0.07509
657.60781,0.07990
659.53628,0.08557
661.46475,0.08434
663.39322,0.08194
665.32169,0.08068
667.25016,0.07567
669.17862,0.07395
671.10709,0.07525
673.03556,0.06388
674.96403,0.05186
676.89250,0.05849
678.82097,0.07913
680.74944,0.10005
682.67791,0.10860
684.60637,0.10136
686.53484,0.08950
688.46331,0.08092
690.39178,0.07545
692.32025,0.07397
694.24872,0.07661
696.17719,0.07913
698.10565,0.07372
700.03412,0.06129
701.96259,0.05912
703.89106,0.07208
705.81953,0.07585
707.74800,0.06100
709.67647,0.05202
711.60494,0.06036
713.53340,0.07300
715.46187,0.08539
717.39034,0.10129
719.31881,0.11335
721.24728,0.11384
723.17575,0.10833
725.10422,0.09938
727.03268,0.08383
728.96115,0.06778
730.88962,0.05995
732.81809,0.06149
734.74656,0.06909
736.67503,0.07749
738.60350,0.07895
740.53197,0.07288
742.46043,0.07166
744.38890,0.08013
746.31737,0.08747
748.24584,0.08451
750.17431,0.07639
752.10278,0.07707
754.03125,0.08609
755.95971,0.09004
757.88818,0.08757
759.81665,0.08328
761.74512,0.07582
763.67359,0.06751
765.60206,0.06649
767.53053,0.07116
769.45900,0.07388
771.38746,0.07800
773.31593,0.08459
775.24440,0.08789
777.17287,0.08748
779.10134,0.08226
781.02981,0.07358
782.95828,0.06985
784.88674,0.07363
786.81521,0.08037
788.74368,0.08702
790.67215,0.09113
792.60062,0.09171
794.52909,0.09373
796.45756,0.10003
798.38602,0.10116
800.31449,0.09129
802.24296,0.08136
804.17143,0.08183
806.09990,0.08904
808.02837,0.09427
809.95684,0.09544
811.88531,0.09503
813.81377,0.09399
815.74224,0.09262
817.67071,0.09031
819.59918,0.08817
821.52765,0.08466
823.45612,0.07766
825.38459,0.07149
827.31305,0.07206
829.24152,0.08178
831.16999,0.09113
833.09846,0.09080
835.02693,0.08980
836.95540,0.09431
838.88387,0.09306
840.81234,0.08270
842.74080,0.07538
844.66927,0.07772
846.59774,0.08499
848.52621,0.09244
850.45468,0.09727
852.38315,0.09385
854.31162,0.08257
856.24008,0.07434
858.16855,0.07415
860.09702,0.07690
862.02549,0.08015
863.95396,0.08676
865.88243,0.10196
867.81090,0.13686
869.73937,0.16646
871.66783,0.14428
873.59630,0.10289
875.52477,0.09498
877.45324,0.10499
879.38171,0.10697
881.31018,0.10161
883.23865,0.09767
885.16711,0.09302
887.09558,0.08410
889.02405,0.08062
890.95252,0.08443
892.88099,0.08792
894.80946,0.09334
896.73793,0.10068
898.66640,0.10057
900.59486,0.09491
902.52333,0.09251
904.45180,0.09353
906.38027,0.09389
908.30874,0.09128
910.23721,0.08905
912.16568,0.09221
914.09414,0.09788
916.02261,0.10008
917.95108,0.09810
919.87955,0.09438
921.80802,0.09078
923.73649,0.08855
925.66496,0.08808
927.59343,0.08779
929.52189,0.08784
931.45036,0.08840
933.37883,0.08939
935.30730,0.09347
937.23577,0.09604
939.16424,0.09329
941.09271,0.09067
943.02117,0.09054
944.94964,0.09231
946.87811,0.09456
948.80658,0.09465
950.73505,0.09319
952.66352,0.09072
954.59199,0.08754
956.52045,0.08803
958.44892,0.09476
960.37739,0.10139
962.30586,0.10046
964.23433,0.09346
966.16280,0.08729
968.09127,0.08738
970.01974,0.09154
971.94820,0.09336
973.87667,0.09293
975.80514,0.09227
977.73361,0.09057
979.66208,0.08626
981.59055,0.08264
983.51902,0.08601
985.44748,0.09131
987.37595,0.09167
989.30442,0.09101
991.23289,0.09337
993.16136,0.09668
995.08983,0.09679
997.01830,0.09213
998.94677,0.08781
1000.87523,0.09180
1002.80370,0.10252
1004.73217,0.10954
1006.66064,0.10795
1008.58911,0.10235
1010.51758,0.09799
1012.44605,0.09748
1014.37451,0.09940
1016.30298,0.09714
1018.23145,0.09151
1020.15992,0.08940
1022.08839,0.08889
1024.01686,0.08755
1025.94533,0.09269
1027.87380,0.10121
1029.80226,0.09889
1031.73073,0.09187
1033.65920,0.09233
1035.58767,0.09577
1037.51614,0.09880
1039.44461,0.10316
1041.37308,0.10642
1043.30154,0.10617
1045.23001,0.10523
1047.15848,0.10568
1049.08695,0.10549
1051.01542,0.10268
1052.94389,0.10064
1054.87236,0.10293
1056.80083,0.10386
1058.72929,0.10108
1060.65776,0.09956
1062.58623,0.10157
1064.51470,0.10604
1066.44317,0.10614
1068.37164,0.09984
1070.30011,0.09752
1072.22857,0.10327
1074.15704,0.10778
1076.08551,0.10660
1078.01398,0.10492
1079.94245,0.10433
1081.87092,0.10284
1083.79939,0.09894
1085.72786,0.09098
1087.65632,0.08240
1089.58479,0.07869
1091.51326,0.08322
1093.44173,0.09364
1095.37020,0.09875
1097.29867,0.09539
1099.22714,0.09254
1101.15560,0.09363
1103.08407,0.09855
1105.01254,0.10389
1106.94101,0.10189
1108.86948,0.09710
1110.79795,0.09911
1112.72642,0.10555
1114.65489,0.11022
1116.58335,0.11281
1118.51182,0.11323
1120.44029,0.10622
1122.36876,0.09553
1124.29723,0.09085
1126.22570,0.09081
1128.15417,0.09171
1130.08263,0.09289
1132.01110,0.09257
1133.93957,0.09077
1135.86804,0.09034
1137.79651,0.09092
1139.72498,0.09077
1141.65345,0.09213
1143.58191,0.09459
1145.51038,0.09662
1147.43885,0.09974
1149.36732,0.10184
1151.29579,0.10111
1153.22426,0.10164
1155.15273,0.10352
1157.08120,0.10279
1159.00966,0.10206
1160.93813,0.10412
1162.86660,0.10632
1164.79507,0.10720
1166.72354,0.10857
1168.65201,0.10982
1170.58048,0.10760
1172.50894,0.10399
1174.43741,0.10253
1176.36588,0.10193
1178.29435,0.10202
1180.22282,0.10417
1182.15129,0.10719
1184.07976,0.10979
1186.00823,0.11089
1187.93669,0.10847
1189.86516,0.10391
1191.79363,0.10205
1193.72210,0.10313
1195.65057,0.10275
1197.57904,0.10160
1199.50751,0.10334
1201.43597,0.10641
1203.36444,0.10658
1205.29291,0.10231
1207.22138,0.09548
1209.14985,0.09048
1211.07832,0.09244
1213.00679,0.09973
1214.93526,0.10382
1216.86372,0.10267
1218.79219,0.10249
1220.72066,0.10616
1222.64913,0.11038
1224.57760,0.11093
1226.50607,0.10690
1228.43454,0.10198
1230.36300,0.10078
1232.29147,0.10374
1234.21994,0.10604
1236.14841,0.10537
1238.07688,0.10505
1240.00535,0.10509
1241.93382,0.10329
1243.86229,0.10172
1245.79075,0.10265
1247.71922,0.10371
1249.64769,0.10339
1251.57616,0.10361
1253.50463,0.10418
1255.43310,0.10404
1257.36157,0.10198
1259.29003,0.09754
1261.21850,0.09489
1263.14697,0.09671
1265.07544,0.09985
1267.00391,0.10155
1268.93238,0.10317
1270.86085,0.10537
1272.78932,0.10527
1274.71778,0.10302
1276.64625,0.10310
1278.57472,0.10481
1280.50319,0.10384
1282.43166,0.10234
1284.36013,0.10300
1286.28860,0.10322
1288.21706,0.10368
1290.14553,0.10589
1292.07400,0.10701
1294.00247,0.10653
1295.93094,0.10478
1297.85941,0.10028
1299.78788,0.09247
1301.71634,0.08103
1303.64481,0.07020
1305.57328,0.07262
1307.50175,0.09042
1309.43022,0.10569
1311.35869,0.11092
1313.28716,0.11381
1315.21563,0.11466
1317.14409,0.11278
1319.07256,0.11068
1321.00103,0.10680
1322.92950,0.10154
1324.85797,0.09750
1326.78644,0.09538
1328.71491,0.09527
1330.64337,0.09613
1332.57184,0.09857
1334.50031,0.10134
1336.42878,0.10126
1338.35725,0.10071
1340.28572,0.10091
1342.21419,0.10097
1344.14266,0.10109
1346.07112,0.10196
1347.99959,0.10557
1349.92806,0.10791
1351.85653,0.10533
1353.78500,0.10212
1355.71347,0.10237
1357.64194,0.10599
1359.57040,0.11079
1361.49887,0.11460
1363.42734,0.11463
1365.35581,0.11144
1367.28428,0.11038
1369.21275,0.11329
1371.14122,0.11612
1373.06969,0.11708
1374.99815,0.11768
1376.92662,0.11789
1378.85509,0.11656
1380.78356,0.11308
1382.71203,0.11063
1384.64050,0.11100
1386.56897,0.11155
1388.49743,0.11270
1390.42590,0.11670
1392.35437,0.12201
1394.28284,0.12564
1396.21131,0.12597
1398.13978,0.12468
1400.06825,0.12125
1401.99672,0.11698
1403.92518,0.11675
1405.85365,0.11986
1407.78212,0.12018
1409.71059,0.11780
1411.63906,0.11532
1413.56753,0.11476
1415.49600,0.11810
1417.42446,0.12253
1419.35293,0.12213
1421.28140,0.11915
1423.20987,0.11769
1425.13834,0.11728
1427.06681,0.11775
1428.99528,0.11826
1430.92375,0.11841
1432.85221,0.11973
1434.78068,0.12236
1436.70915,0.12357
1438.63762,0.12136
1440.56609,0.11808
1442.49456,0.11474
1444.42303,0.11299
1446.35149,0.11486
1448.27996,0.11741
1450.20843,0.11740
1452.13690,0.11838
1454.06537,0.12212
1455.99384,0.12793
1457.92231,0.12937
1459.85077,0.12292
1461.77924,0.11950
1463.70771,0.12104
1465.63618,0.12295
1467.56465,0.12144
1469.49312,0.12020
1471.42159,0.12222
1473.35006,0.12607
1475.27852,0.12738
1477.20699,0.12642
1479.13546,0.12467
1481.06393,0.12174
1482.99240,0.11713
1484.92087,0.11471
1486.84934,0.11922
1488.77780,0.12843
1490.70627,0.13095
1492.63474,0.12675
1494.56321,0.12344
1496.49168,0.12343
1498.42015,0.12597
1500.34862,0.12855
1502.27709,0.13211
1504.20555,0.13705
1506.13402,0.14216
1508.06249,0.14036
1509.99096,0.13283
1511.91943,0.12726
1513.84790,0.12748
1515.77637,0.13273
1517.70483,0.13417
1519.63330,0.13127
1521.56177,0.13391
1523.49024,0.13567
1525.41871,0.12899
1527.34718,0.12082
1529.27565,0.11858
1531.20412,0.12089
1533.13258,0.12351
1535.06105,0.12642
1536.98952,0.13413
1538.91799,0.15041
1540.84646,0.16362
1542.77493,0.15427
1544.70340,0.13997
1546.63186,0.12927
1548.56033,0.12347
1550.48880,0.12136
1552.41727,0.12244
1554.34574,0.12633
1556.27421,0.13253
1558.20268,0.14247
1560.13115,0.14220
1562.05961,0.13241
1563.98808,0.12594
1565.91655,0.12366
1567.84502,0.12621
1569.77349,0.13009
1571.70196,0.12900
1573.63043,0.12716
1575.55889,0.12653
1577.48736,0.12266
1579.41583,0.12000
1581.34430,0.12134
1583.27277,0.12272
1585.20124,0.12146
1587.12971,0.11967
1589.05818,0.11983
1590.98664,0.12140
1592.91511,0.12357
1594.84358,0.12414
1596.77205,0.12155
1598.70052,0.11909
1600.62899,0.11924
1602.55746,0.12207
1604.48592,0.12495
1606.41439,0.12445
1608.34286,0.12170
1610.27133,0.11875
1612.19980,0.11803
1614.12827,0.12310
1616.05674,0.13293
1617.98521,0.13590
1619.91367,0.13176
1621.84214,0.12970
1623.77061,0.12962
1625.69908,0.12893
1627.62755,0.12695
1629.55602,0.12389
1631.48449,0.12378
1633.41295,0.12964
1635.34142,0.13725
1637.26989,0.13472
1639.19836,0.12840
1641.12683,0.12417
1643.05530,0.12227
1644.98377,0.12396
1646.91223,0.12895
1648.84070,0.13262
1650.76917,0.13510
1652.69764,0.13873
1654.62611,0.13508
1656.55458,0.12758
1658.48305,0.12348
1660.41152,0.12392
1662.33998,0.12731
1664.26845,0.12855
1666.19692,0.12852
1668.12539,0.13098
1670.05386,0.13419
1671.98233,0.13402
1673.91080,0.13146
1675.83926,0.12763
1677.76773,0.12731
1679.69620,0.13189
1681.62467,0.13921
1683.55314,0.14662
1685.48161,0.14372
1687.41008,0.13514
1689.33855,0.12917
1691.26701,0.12705
1693.19548,0.12890
1695.12395,0.13244
1697.05242,0.13528
1698.98089,0.13583
1700.90936,0.13266
1702.83783,0.12994
1704.76629,0.12831
1706.69476,0.12443
1708.62323,0.12155
1710.55170,0.12258
1712.48017,0.12625
1714.40864,0.13237
1716.33711,0.13727
1718.26558,0.13200
1720.19404,0.12546
1722.12251,0.12411
1724.05098,0.12454
1725.97945,0.12514
1727.90792,0.12629
1729.83639,0.12836
1731.76486,0.13169
1733.69332,0.13175
1735.62179,0.12617
1737.55026,0.12463
1739.47873,0.12686
1741.40720,0.12757
1743.33567,0.12593
1745.26414,0.12536
1747.19261,0.12719
1749.12107,0.12884
1751.04954,0.12615
1752.97801,0.12312
1754.90648,0.12398
1756.83495,0.12469
1758.76342,0.12335
1760.69189,0.12402
1762.62035,0.12532
1764.54882,0.12462
1766.47729,0.12420
1768.40576,0.12498
1770.33423,0.12680
1772.26270,0.12708
1774.19117,0.12419
1776.11964,0.12264
1778.04810,0.12368
1779.97657,0.12585
1781.90504,0.12639
1783.83351,0.12534
1785.76198,0.12344
1787.69045,0.12117
1789.61892,0.12218
1791.54738,0.12651
1793.47585,0.12797
1795.40432,0.12628
1797.33279,0.12555
1799.26126,0.12598
1801.18973,0.12474
1803.11820,0.12168
1805.04666,0.12051
1806.97513,0.12074
1808.90360,0.12033
1810.83207,0.12080
1812.76054,0.12089
1814.68901,0.11948
1816.61748,0.11881
1818.54595,0.11787
1820.47441,0.11722
1822.40288,0.11957
1824.33135,0.12293
1826.25982,0.12513
1828.18829,0.12813
1830.11676,0.13063
1832.04523,0.12867
1833.97369,0.12497
1835.90216,0.12313
1837.83063,0.12298
1839.75910,0.12364
1841.68757,0.12710
1843.61604,0.13140
1845.54451,0.12889
1847.47298,0.12306
1849.40144,0.12026
1851.32991,0.11997
1853.25838,0.12091
1855.18685,0.12313
1857.11532,0.12485
1859.04379,0.12351
1860.97226,0.12004
1862.90072,0.11751
1864.82919,0.11818
1866.75766,0.12117
1868.68613,0.12325
1870.61460,0.12398
1872.54307,0.12381
1874.47154,0.12169
1876.40001,0.11990
1878.32847,0.12043
1880.25694,0.12121
1882.18541,0.12115
1884.11388,0.12133
1886.04235,0.12214
1887.97082,0.12279
1889.89929,0.12332
1891.82775,0.12393
1893.75622,0.12311
1895.68469,0.12150
1897.61316,0.12212
1899.54163,0.12435
1901.47010,0.12532
1903.39857,0.12489
1905.32704,0.12471
1907.25550,0.12512
1909.18397,0.12510
1911.11244,0.12348
1913.04091,0.12088
1914.96938,0.12016
1916.89785,0.12282
1918.82632,0.12552
1920.75478,0.12517
1922.68325,0.12336
1924.61172,0.12242
1926.54019,0.12274
1928.46866,0.12246
1930.39713,0.12209
1932.32560,0.12339
1934.25407,0.12439
1936.18253,0.12423
1938.11100,0.12414
1940.03947,0.12420
1941.96794,0.12500
1943.89641,0.12548
1945.82488,0.12429
1947.75335,0.12364
1949.68181,0.12406
1951.61028,0.12331
1953.53875,0.12164
1955.46722,0.12154
1957.39569,0.12292
1959.32416,0.12401
1961.25263,0.12457
1963.18110,0.12457
1965.10956,0.12409
1967.03803,0.12350
1968.96650,0.12271
1970.89497,0.12179
1972.82344,0.12107
1974.75191,0.12036
1976.68038,0.11980
1978.60884,0.11977
1980.53731,0.11929
1982.46578,0.11868
1984.39425,0.11879
1986.32272,0.11862
1988.25119,0.11865
1990.17966,0.11895
1992.10812,0.11796
1994.03659,0.11630
1995.96506,0.11634
1997.89353,0.11891
1999.82200,0.12140
2001.75047,0.12198
2003.67894,0.12231
2005.60741,0.12293
2007.53587,0.12311
2009.46434,0.12264
2011.39281,0.12229
2013.32128,0.12345
2015.24975,0.12520
2017.17822,0.12554
2019.10669,0.12407
2021.03515,0.12204
2022.96362,0.12115
2024.89209,0.12078
2026.82056,0.11957
2028.74903,0.11855
2030.67750,0.11901
2032.60597,0.12083
2034.53444,0.12283
2036.46290,0.12350
2038.39137,0.12334
2040.31984,0.12350
2042.24831,0.12358
2044.17678,0.12328
2046.10525,0.12271
2048.03372,0.12238
2049.96218,0.12276
2051.89065,0.12279
2053.81912,0.12236
2055.74759,0.12250
2057.67606,0.12274
2059.60453,0.12286
2061.53300,0.12386
2063.46147,0.12538
2065.38993,0.12611
2067.31840,0.12611
2069.24687,0.12512
2071.17534,0.12326
2073.10381,0.12224
2075.03228,0.12217
2076.96075,0.12251
2078.88921,0.12342
2080.81768,0.12423
2082.74615,0.12501
2084.67462,0.12630
2086.60309,0.12665
2088.53156,0.12501
2090.46003,0.12297
2092.38850,0.12258
2094.31696,0.12322
2096.24543,0.12307
2098.17390,0.12303
2100.10237,0.12421
2102.03084,0.12552
2103.95931,0.12594
2105.88778,0.12552
2107.81624,0.12477
2109.74471,0.12401
2111.67318,0.12403
2113.60165,0.12533
2115.53012,0.12631
2117.45859,0.12564
2119.38706,0.12373
2121.31553,0.12179
2123.24399,0.12147
2125.17246,0.12270
2127.10093,0.12351
2129.02940,0.12342
2130.95787,0.12336
2132.88634,0.12345
2134.81481,0.12321
2136.74327,0.12217
2138.67174,0.11991
2140.60021,0.11795
2142.52868,0.11868
2144.45715,0.12093
2146.38562,0.12211
2148.31409,0.12181
2150.24255,0.12088
2152.17102,0.12119
2154.09949,0.12211
2156.02796,0.12185
2157.95643,0.12211
2159.88490,0.12330
2161.81337,0.12439
2163.74184,0.12586
2165.67030,0.12803
2167.59877,0.12976
2169.52724,0.12913
2171.45571,0.12686
2173.38418,0.12538
2175.31265,0.12463
2177.24112,0.12360
2179.16958,0.12330
2181.09805,0.12366
2183.02652,0.12279
2184.95499,0.12131
2186.88346,0.12006
2188.81193,0.11961
2190.74040,0.12075
2192.66887,0.12081
2194.59733,0.11835
2196.52580,0.11782
2198.45427,0.12078
2200.38274,0.12255
2202.31121,0.12220
2204.23968,0.12175
2206.16815,0.12142
2208.09661,0.12255
2210.02508,0.12509
2211.95355,0.12706
2213.88202,0.12798
2215.81049,0.12789
2217.73896,0.12710
2219.66743,0.12650
2221.59590,0.12682
2223.52436,0.12723
2225.45283,0.12586
2227.38130,0.12384
2229.30977,0.12388
2231.23824,0.12544
2233.16671,0.12584
2235.09518,0.12408
2237.02364,0.12240
2238.95211,0.12223
2240.88058,0.12272
2242.80905,0.12462
2244.73752,0.12735
2246.66599,0.12740
2248.59446,0.12495
2250.52293,0.12379
2252.45139,0.12504
2254.37986,0.12671
2256.30833,0.12716
2258.23680,0.12665
2260.16527,0.12626
2262.09374,0.12598
2264.02221,0.12483
2265.95067,0.12303
2267.87914,0.12159
2269.80761,0.12072
2271.73608,0.12083
2273.66455,0.12218
2275.59302,0.12286
2277.52149,0.12220
2279.44996,0.12277
2281.37842,0.12451
2283.30689,0.12444
2285.23536,0.12312
2287.16383,0.12335
2289.09230,0.12468
2291.02077,0.12438
2292.94924,0.12240
2294.87770,0.12139
2296.80617,0.12158
2298.73464,0.12185
2300.66311,0.12276
2302.59158,0.12409
2304.52005,0.12456
2306.44852,0.12252
2308.37699,0.11758
2310.30545,0.11447
2312.23392,0.11772
2314.16239,0.12238
2316.09086,0.12291
2318.01933,0.12302
2319.94780,0.12394
2321.87627,0.12136
2323.80473,0.11704
2325.73320,0.11474
2327.66167,0.11547
2329.59014,0.12198
2331.51861,0.12966
2333.44708,0.12927
2335.37555,0.12612
2337.30401,0.12533
2339.23248,0.12362
2341.16095,0.12413
2343.08942,0.12598
2345.01789,0.12415
2346.94636,0.12226
2348.87483,0.12381
2350.80330,0.12783
2352.73176,0.12878
2354.66023,0.12281
2356.58870,0.11429
2358.51717,0.10568
2360.44564,0.10306
2362.37411,0.10629
2364.30258,0.10844
2366.23104,0.11219
2368.15951,0.11912
2370.08798,0.12117
2372.01645,0.11954
2373.94492,0.12045
2375.87339,0.12160
2377.80186,0.12281
2379.73033,0.12345
2381.65879,0.12130
2383.58726,0.11908
2385.51573,0.11918
2387.44420,0.12084
2389.37267,0.12231
2391.30114,0.12307
2393.22961,0.12411
2395.15807,0.12378
2397.08654,0.12098
2399.01501,0.11988
2400.94348,0.12164
2402.87195,0.12227
2404.80042,0.12147
2406.72889,0.12122
2408.65736,0.12172
2410.58582,0.12330
2412.51429,0.12555
2414.44276,0.12709
2416.37123,0.12736
2418.29970,0.12604
2420.22817,0.12380
2422.15664,0.12299
2424.08510,0.12351
2426.01357,0.12217
2427.94204,0.11966
2429.87051,0.11978
2431.79898,0.12190
2433.72745,0.12336
2435.65592,0.12347
2437.58439,0.12318
2439.51285,0.12393
2441.44132,0.12420
2443.36979,0.12267
2445.29826,0.12161
2447.22673,0.12173
2449.15520,0.12181
2451.08367,0.12113
2453.01213,0.11994
2454.94060,0.12085
2456.86907,0.12441
2458.79754,0.12625
2460.72601,0.12449
2462.65448,0.12300
2464.58295,0.12388
2466.51142,0.12501
2468.43988,0.12474
2470.36835,0.12421
2472.29682,0.12561
2474.22529,0.12687
2476.15376,0.12578
2478.08223,0.12624
2480.01070,0.12939
2481.93916,0.13038
2483.86763,0.12854
2485.79610,0.12712
2487.72457,0.12638
2489.65304,0.12554
2491.58151,0.12483
2493.50998,0.12427
2495.43844,0.12447
2497.36691,0.12625
2499.29538,0.12810
2501.22385,0.12786
2503.15232,0.12645
2505.08079,0.12551
2507.00926,0.12515
2508.93773,0.12485
2510.86619,0.12513
2512.79466,0.12671
2514.72313,0.12735
2516.65160,0.12525
2518.58007,0.12360
2520.50854,0.12419
2522.43701,0.12454
2524.36547,0.12552
2526.29394,0.12715
2528.22241,0.12651
2530.15088,0.12597
2532.07935,0.12711
2534.00782,0.12718
2535.93629,0.12640
2537.86476,0.12700
2539.79322,0.12838
2541.72169,0.12856
2543.65016,0.12745
2545.57863,0.12686
2547.50710,0.12747
2549.43557,0.12692
2551.36404,0.12611
2553.29250,0.12820
2555.22097,0.13063
2557.14944,0.12985
2559.07791,0.12792
2561.00638,0.12842
2562.93485,0.13012
2564.86332,0.12980
2566.79179,0.12774
2568.72025,0.12657
2570.64872,0.12694
2572.57719,0.12687
2574.50566,0.12625
2576.43413,0.12700
2578.36260,0.12956
2580.29107,0.13221
2582.21953,0.13228
2584.14800,0.13030
2586.07647,0.12964
2588.00494,0.12994
2589.93341,0.12796
2591.86188,0.12537
2593.79035,0.12623
2595.71882,0.12835
2597.64728,0.12876
2599.57575,0.12917
2601.50422,0.13006
2603.43269,0.13046
2605.36116,0.13039
2607.28963,0.12922
2609.21810,0.12694
2611.14656,0.12492
2613.07503,0.12472
2615.00350,0.12649
2616.93197,0.12809
2618.86044,0.12806
2620.78891,0.12748
2622.71738,0.12808
2624.64585,0.13013
2626.57431,0.13168
2628.50278,0.13026
2630.43125,0.12760
2632.35972,0.12861
2634.28819,0.13173
2636.21666,0.13142
2638.14513,0.12849
2640.07359,0.12608
2642.00206,0.12474
2643.93053,0.12446
2645.85900,0.12514
2647.78747,0.12655
2649.71594,0.12792
2651.64441,0.12877
2653.57288,0.13053
2655.50134,0.13309
2657.42981,0.13349
2659.35828,0.13258
2661.28675,0.13329
2663.21522,0.13441
2665.14369,0.13438
2667.07216,0.13420
2669.00062,0.13442
2670.92909,0.13330
2672.85756,0.12999
2674.78603,0.12728
2676.71450,0.12760
2678.64297,0.12957
2680.57144,0.13075
2682.49990,0.13041
2684.42837,0.12967
2686.35684,0.13001
2688.28531,0.13090
2690.21378,0.13130
2692.14225,0.13108
2694.07072,0.13044
2695.99919,0.13040
2697.92765,0.13088
2699.85612,0.13138
2701.78459,0.13242
2703.71306,0.13330
2705.64153,0.13275
2707.57000,0.13158
2709.49847,0.13162
2711.42693,0.13258
2713.35540,0.13284
2715.28387,0.13200
2717.21234,0.13148
2719.14081,0.13252
2721.06928,0.13363
2722.99775,0.13338
2724.92622,0.13245
2726.85468,0.13162
2728.78315,0.13187
2730.71162,0.13284
2732.64009,0.13275
2734.56856,0.13229
2736.49703,0.13286
2738.42550,0.13367
2740.35396,0.13350
2742.28243,0.13216
2744.21090,0.13059
2746.13937,0.13073
2748.06784,0.13259
2749.99631,0.13353
2751.92478,0.13354
2753.85325,0.13440
2755.78171,0.13515
2757.71018,0.13450
2759.63865,0.13308
2761.56712,0.13242
2763.49559,0.13349
2765.42406,0.13547
2767.35253,0.13733
2769.28099,0.13781
2771.20946,0.13599
2773.13793,0.13479
2775.06640,0.13575
2776.99487,0.13595
2778.92334,0.13454
2780.85181,0.13360
2782.78028,0.13414
2784.70874,0.13439
2786.63721,0.13322
2788.56568,0.13257
2790.49415,0.13378
2792.42262,0.13515
2794.35109,0.13471
2796.27956,0.13295
2798.20802,0.13172
2800.13649,0.13215
2802.06496,0.13291
2803.99343,0.13354
2805.92190,0.13559
2807.85037,0.13747
2809.77884,0.13732
2811.70731,0.13593
2813.63577,0.13448
2815.56424,0.13433
2817.49271,0.13532
2819.42118,0.13584
2821.34965,0.13529
2823.27812,0.13440
2825.20659,0.13467
2827.13505,0.13534
2829.06352,0.13532
2830.99199,0.13703
2832.92046,0.14029
2834.84893,0.14173
2836.77740,0.14171
2838.70587,0.14116
2840.63433,0.13889
2842.56280,0.13634
2844.49127,0.13528
2846.41974,0.13530
2848.34821,0.13581
2850.27668,0.13566
2852.20515,0.13654
2854.13362,0.13954
2856.06208,0.13977
2857.99055,0.13671
2859.91902,0.13562
2861.84749,0.13689
2863.77596,0.13643
2865.70443,0.13407
2867.63290,0.13262
2869.56136,0.13231
2871.48983,0.13257
2873.41830,0.13302
2875.34677,0.13411
2877.27524,0.13694
2879.20371,0.13890
2881.13218,0.13652
2883.06065,0.13338
2884.98911,0.13528
2886.91758,0.13844
2888.84605,0.13795
2890.77452,0.13695
2892.70299,0.13627
2894.63146,0.13411
2896.55993,0.13290
2898.48839,0.13365
2900.41686,0.13306
2902.34533,0.13005
2904.27380,0.12753
2906.20227,0.12745
2908.13074,0.12930
2910.05921,0.13086
2911.98768,0.13040
2913.91614,0.12799
2915.84461,0.12466
2917.77308,0.12420
2919.70155,0.12869
2921.63002,0.13454
2923.55849,0.13709
2925.48696,0.13312
2927.41542,0.12699
2929.34389,0.12653
2931.27236,0.12975
2933.20083,0.13082
2935.12930,0.12710
2937.05777,0.12153
2938.98624,0.12276
2940.91471,0.12988
2942.84317,0.13426
2944.77164,0.13115
2946.70011,0.12270
2948.62858,0.12049
2950.55705,0.12677
2952.48552,0.13232
2954.41399,0.13328
2956.34245,0.12657
2958.27092,0.12077
2960.19939,0.12875
2962.12786,0.13887
2964.05633,0.13843
2965.98480,0.13318
2967.91327,0.13089
2969.84174,0.13474
2971.77020,0.14010
2973.69867,0.14158
2975.62714,0.13668
2977.55561,0.12622
2979.48408,0.12218
2981.41255,0.12976
2983.34102,0.13880
2985.26948,0.14047
2987.19795,0.13362
2989.12642,0.12790
2991.05489,0.13166
2992.98336,0.13764
2994.91183,0.13977
2996.84030,0.14003
2998.76877,0.13832
3000.69723,0.13716
3002.62570,0.13942
3004.55417,0.14111
3006.48264,0.13901
3008.41111,0.13418
3010.33958,0.12504
3012.26805,0.10641
3014.19651,0.07812
3016.12498,0.05759
3018.05345,0.06925
3019.98192,0.10415
3021.91039,0.12899
3023.83886,0.13492
3025.76733,0.13263
3027.69579,0.13080
3029.62426,0.13453
3031.55273,0.14179
3033.48120,0.14492
3035.40967,0.14017
3037.33814,0.13308
3039.26661,0.13183
3041.19508,0.13678
3043.12354,0.14143
3045.05201,0.14007
3046.98048,0.13408
3048.90895,0.13165
3050.83742,0.13573
3052.76589,0.13987
3054.69436,0.13748
3056.62282,0.13029
3058.55129,0.12844
3060.47976,0.13352
3062.40823,0.13623
3064.33670,0.13242
3066.26517,0.12686
3068.19364,0.12829
3070.12211,0.13558
3072.05057,0.13801
3073.97904,0.13286
3075.90751,0.12777
3077.83598,0.13018
3079.76445,0.13591
3081.69292,0.13577
3083.62139,0.12763
3085.54985,0.11991
3087.47832,0.12386
3089.40679,0.13426
3091.33526,0.13697
3093.26373,0.12773
3095.19220,0.11890
3097.12067,0.12402
3099.04914,0.13537
3100.97760,0.13884
3102.90607,0.13246
3104.83454,0.12764
3106.76301,0.13181
3108.69148,0.13672
3110.61995,0.13435
3112.54842,0.12866
3114.47688,0.13024
3116.40535,0.13817
3118.33382,0.14185
3120.26229,0.13666
3122.19076,0.12970
3124.11923,0.13118
3126.04770,0.13522
3127.97617,0.13409
3129.90463,0.13384
3131.83310,0.13843
3133.76157,0.14304
3135.69004,0.14392
3137.61851,0.14255
3139.54698,0.14069
3141.47545,0.13900
3143.40391,0.13921
3145.33238,0.14013
3147.26085,0.13745
3149.18932,0.13563
3151.11779,0.14039
3153.04626,0.14475
3154.97473,0.14337
3156.90320,0.14088
3158.83166,0.14152
3160.76013,0.14356
3162.68860,0.14345
3164.61707,0.14253
3166.54554,0.14518
3168.47401,0.14874
3170.40248,0.14886
3172.33094,0.14911
3174.25941,0.14997
3176.18788,0.14760
3178.11635,0.14433
3180.04482,0.14454
3181.97329,0.14594
3183.90176,0.14592
3185.83022,0.14812
3187.75869,0.15320
3189.68716,0.15522
3191.61563,0.15150
3193.54410,0.14697
3195.47257,0.14407
3197.40104,0.14011
3199.32951,0.13774
3201.25797,0.13898
3203.18644,0.14069
3205.11491,0.14125
3207.04338,0.13913
3208.97185,0.13700
3210.90032,0.14058
3212.82879,0.14770
3214.75725,0.15270
3216.68572,0.15324
3218.61419,0.15023
3220.54266,0.14598
3222.47113,0.14285
3224.39960,0.14237
3226.32807,0.14279
3228.25654,0.14224
3230.18500,0.14184
3232.11347,0.14216
3234.04194,0.14244
3235.97041,0.14262
3237.89888,0.14214
3239.82735,0.14118
3241.75582,0.14343
3243.68428,0.14734
3245.61275,0.14639
3247.54122,0.14257
3249.46969,0.14073
3251.39816,0.13927
3253.32663,0.13772
3255.25510,0.13856
3257.18357,0.14137
3259.11203,0.14307
3261.04050,0.14003
3262.96897,0.13416
3264.89744,0.13216
3266.82591,0.13499
3268.75438,0.14057
3270.68285,0.14809
3272.61131,0.15231
3274.53978,0.15022
3276.46825,0.14700
3278.39672,0.14427
3280.32519,0.14070
3282.25366,0.13978
3284.18213,0.14220
3286.11060,0.14411
3288.03906,0.14417
3289.96753,0.14490
3291.89600,0.14774
3293.82447,0.14970
3295.75294,0.14900
3297.68141,0.14649
3299.60988,0.14363
3301.53834,0.14324
3303.46681,0.14490
3305.39528,0.14441
3307.32375,0.14001
3309.25222,0.13671
3311.18069,0.14011
3313.10916,0.14528
3315.03763,0.14709
3316.96609,0.14826
3318.89456,0.14938
3320.82303,0.14735
3322.75150,0.14090
3324.67997,0.13382
3326.60844,0.13130
3328.53691,0.13308
3330.46537,0.13485
3332.39384,0.13589
3334.32231,0.13841
3336.25078,0.14169
3338.17925,0.14303
3340.10772,0.14214
3342.03619,0.14351
3343.96466,0.14808
3345.89312,0.14988
3347.82159,0.14590
3349.75006,0.13900
3351.67853,0.13545
3353.60700,0.13845
3355.53547,0.14251
3357.46394,0.14294
3359.39240,0.14364
3361.32087,0.14598
3363.24934,0.14607
3365.17781,0.14392
3367.10628,0.14289
3369.03475,0.14485
3370.96322,0.14614
3372.89168,0.14528
3374.82015,0.14476
3376.74862,0.14312
3378.67709,0.14169
3380.60556,0.14181
3382.53403,0.14079
3384.46250,0.14008
3386.39097,0.14246
3388.31943,0.14618
3390.24790,0.14790
3392.17637,0.14850
3394.10484,0.15139
3396.03331,0.15482
3397.96178,0.15450
3399.89025,0.15122
3401.81871,0.14641
3403.74718,0.14196
3405.67565,0.14100
3407.60412,0.14047
3409.53259,0.13803
3411.46106,0.13612
3413.38953,0.13581
3415.31800,0.13625
3417.24646,0.13394
3419.17493,0.12950
3421.10340,0.13004
3423.03187,0.13494
3424.96034,0.13779
3426.88881,0.13851
3428.81728,0.13958
3430.74574,0.14035
3432.67421,0.13804
3434.60268,0.13371
3436.53115,0.13255
3438.45962,0.13525
3440.38809,0.13797
3442.31656,0.13883
3444.24503,0.13958
3446.17349,0.14102
3448.10196,0.14104
3450.03043,0.13980
3451.95890,0.13817
3453.88737,0.13380
3455.81584,0.12832
3457.74431,0.12901
3459.67277,0.13591
3461.60124,0.13982
3463.52971,0.13625
3465.45818,0.13114
3467.38665,0.12980
3469.31512,0.12998
3471.24359,0.13005
3473.17206,0.13071
3475.10052,0.12933
3477.02899,0.12736
3478.95746,0.12956
3480.88593,0.13270
3482.81440,0.13172
3484.74287,0.12904
3486.67134,0.12790
3488.59980,0.12687
3490.52827,0.12395
3492.45674,0.12264
3494.38521,0.12602
3496.31368,0.12874
3498.24215,0.12682
3500.17062,0.12365
3502.09909,0.12187
3504.02755,0.12103
3505.95602,0.11960
3507.88449,0.11904
3509.81296,0.12124
3511.74143,0.12326
3513.66990,0.12318
3515.59837,0.12121
3517.52683,0.11768
3519.45530,0.11557
3521.38377,0.11627
3523.31224,0.11776
3525.24071,0.11887
3527.16918,0.11969
3529.09765,0.12005
3531.02611,0.11937
3532.95458,0.11748
3534.88305,0.11779
3536.81152,0.12133
3538.73999,0.12160
3540.66846,0.11768
3542.59693,0.11489
3544.52540,0.11564
3546.45386,0.11725
3548.38233,0.11539
3550.31080,0.11217
3552.23927,0.10935
3554.16774,0.10659
3556.09621,0.10641
3558.02468,0.10726
3559.95314,0.10673
3561.88161,0.10850
3563.81008,0.11393
3565.73855,0.11780
3567.66702,0.11599
3569.59549,0.11408
3571.52396,0.11409
3573.45243,0.11152
3575.38089,0.10862
3577.30936,0.10871
3579.23783,0.10754
3581.16630,0.10473
3583.09477,0.10357
3585.02324,0.10498
3586.95171,0.10924
3588.88017,0.10874
3590.80864,0.10327
3592.73711,0.10240
3594.66558,0.10357
3596.59405,0.10105
3598.52252,0.09905
3600.45099,0.10077
3602.37946,0.10372
3604.30792,0.10486
3606.23639,0.10495
3608.16486,0.10558
3610.09333,0.10731
3612.02180,0.10951
3613.95027,0.11011
3615.87874,0.11059
3617.80720,0.11266
3619.73567,0.11240
3621.66414,0.10848
3623.59261,0.10541
3625.52108,0.10464
3627.44955,0.10532
3629.37802,0.10415
3631.30649,0.09999
3633.23495,0.09691
3635.16342,0.09557
3637.09189,0.09491
3639.02036,0.09465
3640.94883,0.09411
3642.87730,0.09246
3644.80577,0.09149
3646.73423,0.09331
3648.66270,0.09586
3650.59117,0.09296
3652.51964,0.09174
3654.44811,0.09524
3656.37658,0.09655
3658.30505,0.09241
3660.23352,0.08978
3662.16198,0.09120
3664.09045,0.09313
3666.01892,0.09309
3667.94739,0.09383
3669.87586,0.09799
3671.80433,0.10059
3673.73280,0.09888
3675.66126,0.09389
3677.58973,0.08946
3679.51820,0.08879
3681.44667,0.09099
3683.37514,0.09559
3685.30361,0.10020
3687.23208,0.10098
3689.16055,0.09878
3691.08901,0.09784
3693.01748,0.09423
3694.94595,0.08879
3696.87442,0.08701
3698.80289,0.08954
3700.73136,0.09395
3702.65983,0.09671
3704.58829,0.09404
3706.51676,0.09067
3708.44523,0.09247
3710.37370,0.09907
3712.30217,0.10055
3714.23064,0.09288
3716.15911,0.08620
3718.08757,0.08469
3720.01604,0.08647
3721.94451,0.08830
3723.87298,0.08803
3725.80145,0.08690
3727.72992,0.08744
3729.65839,0.08840
3731.58686,0.09144
3733.51532,0.09991
3735.44379,0.10333
3737.37226,0.09632
3739.30073,0.09131
3741.22920,0.08899
3743.15767,0.08949
3745.08614,0.09620
3747.01460,0.10309
3748.94307,0.10856
3750.87154,0.10832
3752.80001,0.09659
3754.72848,0.08713
3756.65695,0.08467
3758.58542,0.08637
3760.51389,0.08659
3762.44235,0.08506
3764.37082,0.08462
3766.29929,0.08525
3768.22776,0.08500
3770.15623,0.08226
3772.08470,0.08065
3774.01317,0.08197
3775.94163,0.08411
3777.87010,0.08587
3779.79857,0.08586
3781.72704,0.08450
3783.65551,0.08339
3785.58398,0.08140
3787.51245,0.08072
3789.44092,0.08512
3791.36938,0.08939
3793.29785,0.08933
3795.22632,0.09023
3797.15479,0.09355
3799.08326,0.09506
3801.01173,0.09509
3802.94020,0.09222
3804.86866,0.08722
3806.79713,0.08427
3808.72560,0.08284
3810.65407,0.08111
3812.58254,0.08165
3814.51101,0.08294
3816.43948,0.08072
3818.36795,0.07993
3820.29641,0.08377
3822.22488,0.08790
3824.15335,0.09085
3826.08182,0.09239
3828.01029,0.08937
3829.93876,0.08548
3831.86723,0.08598
3833.79569,0.08660
3835.72416,0.08414
3837.65263,0.08456
3839.58110,0.08732
3841.50957,0.08580
3843.43804,0.08276
3845.36651,0.08181
3847.29498,0.08278
3849.22344,0.08503
3851.15191,0.09123
3853.08038,0.10427
3855.00885,0.10633
3856.93732,0.09438
3858.86579,0.08306
3860.79426,0.07929
3862.72272,0.08402
3864.65119,0.08722
3866.57966,0.08450
3868.50813,0.08185
3870.43660,0.07857
3872.36507,0.07468
3874.29354,0.07433
3876.22200,0.07799
3878.15047,0.08326
3880.07894,0.08564
3882.00741,0.08087
3883.93588,0.07715
3885.86435,0.07856
3887.79282,0.07864
3889.72129,0.07943
3891.64975,0.08511
3893.57822,0.08817
3895.50669,0.08603
3897.43516,0.08550
3899.36363,0.08781
3901.29210,0.08666
3903.22057,0.08300
3905.14903,0.08102
3907.07750,0.07873
3909.00597,0.07790
3910.93444,0.08017
3912.86291,0.08259
3914.79138,0.08227
3916.71985,0.08195
3918.64832,0.08414
3920.57678,0.08459
3922.50525,0.08291
3924.43372,0.08128
3926.36219,0.08008
3928.29066,0.08021
3930.21913,0.07964
3932.14760,0.07660
3934.07606,0.07321
3936.00453,0.07005
3937.93300,0.06795
3939.86147,0.06920
3941.78994,0.07358
3943.71841,0.07654
3945.64688,0.07433
3947.57535,0.07082
3949.50381,0.07049
3951.43228,0.07137
3953.36075,0.07073
3955.28922,0.06914
3957.21769,0.06809
3959.14616,0.07045
3961.07463,0.07542
3963.00309,0.07688
3964.93156,0.07420
3966.86003,0.07122
3968.78850,0.06857
3970.71697,0.06781
3972.64544,0.07024
3974.57391,0.07318
3976.50238,0.07408
3978.43084,0.07242
3980.35931,0.06992
3982.28778,0.06966
3984.21625,0.07125
3986.14472,0.07200
3988.07319,0.07218
3990.00166,0.07322
3991.93012,0.07421
3993.85859,0.07214
3995.78706,0.06731
3997.71553,0.06606
3999.64400,0.07015
4001.57247,0.07282
4003.50094,0.06978
4005.42941,0.06596
4007.35787,0.06782
4009.28634,0.07172
4011.21481,0.07101
4013.14328,0.06737
4015.07175,0.06439
4017.00022,0.06330
4018.92869,0.06400
4020.85715,0.06540
4022.78562,0.06605
4024.71409,0.06500
4026.64256,0.06359
4028.57103,0.06375
4030.49950,0.06680
4032.42797,0.07159
4034.35644,0.07311
4036.28490,0.07066
4038.21337,0.06787
4040.14184,0.06558
4042.07031,0.06301
4043.99878,0.06066
4045.92725,0.06197
4047.85572,0.06635
4049.78418,0.06705
4051.71265,0.06332
4053.64112,0.05920
4055.56959,0.05639
4057.49806,0.05725
4059.42653,0.06266
4061.35500,0.06770
4063.28346,0.06804
4065.21193,0.06452
4067.14040,0.06159
4069.06887,0.06285
4070.99734,0.06485
4072.92581,0.06402
4074.85428,0.06347
4076.78275,0.06552
4078.71121,0.06861
4080.63968,0.07001
4082.56815,0.06796
4084.49662,0.06433
4086.42509,0.06223
4088.35356,0.06111
4090.28203,0.05965
4092.21049,0.06111
4094.13896,0.06629
4096.06743,0.06737
4097.99590,0.06274
4099.92437,0.06090
4101.85284,0.06177
4103.78131,0.06035
4105.70978,0.06038
4107.63824,0.06346
4109.56671,0.06400
4111.49518,0.06114
4113.42365,0.05663
4115.35212,0.05158
4117.28059,0.05044
4119.20906,0.05431
4121.13752,0.05944
4123.06599,0.06191
4124.99446,0.06046
4126.92293,0.06027
4128.85140,0.06285
4130.77987,0.06047
4132.70834,0.05353
4134.63681,0.05156
4136.56527,0.05382
4138.49374,0.05456
4140.42221,0.05596
4142.35068,0.05819
4144.27915,0.05786
4146.20762,0.05834
4148.13609,0.06199
4150.06455,0.06203
4151.99302,0.05679
4153.92149,0.05427
4155.84996,0.05666
4157.77843,0.05921
4159.70690,0.05911
4161.63537,0.05493
4163.56384,0.04872
4165.49230,0.04763
4167.42077,0.05310
4169.34924,0.05654
4171.27771,0.05210
4173.20618,0.04406
4175.13465,0.04123
4177.06312,0.04614
4178.99158,0.04950
4180.92005,0.04633
4182.84852,0.04358
4184.77699,0.04509
4186.70546,0.05032
4188.63393,0.05575
4190.56240,0.05451
4192.49087,0.04783
4194.41933,0.04316
4196.34780,0.04406
4198.27627,0.04889
4200.20474,0.05222
4202.13321,0.05185
4204.06168,0.05003
4205.99015,0.04937
4207.91861,0.05188
4209.84708,0.05299
4211.77555,0.04784
4213.70402,0.04194
4215.63249,0.03937
4217.56096,0.03948
4219.48943,0.04282
4221.41789,0.04628
4223.34636,0.04734
4225.27483,0.04930
4227.20330,0.05111
4229.13177,0.04760
4231.06024,0.04473
4232.98871,0.04995
4234.91718,0.05559
4236.84564,0.05420
4238.77411,0.04985
4240.70258,0.04735
4242.63105,0.04576
4244.55952,0.04395
4246.48799,0.04231
4248.41646,0.04122
4250.34492,0.04265
4252.27339,0.04532
4254.20186,0.04575
4256.13033,0.04460
4258.05880,0.04380
4259.98727,0.04280
4261.91574,0.04173
4263.84421,0.04295
4265.77267,0.04444
4267.70114,0.04211
4269.62961,0.04087
4271.55808,0.04643
4273.48655,0.05097
4275.41502,0.04766
4277.34349,0.04333
4279.27195,0.04348
4281.20042,0.04462
4283.12889,0.04230
4285.05736,0.03842
4286.98583,0.03750
4288.91430,0.03998
4290.84277,0.04271
4292.77124,0.04146
4294.69970,0.03691
4296.62817,0.03461
4298.55664,0.03701
4300.48511,0.04020
4302.41358,0.03859
4304.34205,0.03381
4306.27052,0.03227
4308.19898,0.03331
4310.12745,0.03357
4312.05592,0.03395
4313.98439,0.03351
4315.91286,0.03368
4317.84133,0.03532
4319.76980,0.03235
4321.69827,0.02612
4323.62673,0.02222
4325.55520,0.02158
4327.48367,0.02448
4329.41214,0.02953
4331.34061,0.03479
4333.26908,0.03599
4335.19755,0.03385
4337.12601,0.03607
4339.05448,0.03912
4340.98295,0.03495
4342.91142,0.03035
4344.83989,0.03356
4346.76836,0.03818
4348.69683,0.03841
4350.62530,0.03738
4352.55376,0.03877
4354.48223,0.04161
4356.41070,0.03977
4358.33917,0.03336
4360.26764,0.02896
4362.19611,0.02749
4364.12458,0.02703
4366.05304,0.02835
4367.98151,0.02867
4369.90998,0.02559
4371.83845,0.02473
4373.76692,0.02753
4375.69539,0.02973
4377.62386,0.03016
4379.55232,0.03051
4381.48079,0.03108
4383.40926,0.02945
4385.33773,0.02722
4387.26620,0.02671
4389.19467,0.02582
4391.12314,0.02520
4393.05161,0.02679
4394.98007,0.02675
4396.90854,0.02519
4398.83701,0.02533
4400.76548,0.02218
4402.69395,0.01678
4404.62242,0.01896
4406.55089,0.02532
4408.47935,0.02451
4410.40782,0.01770
4412.33629,0.01385
4414.26476,0.01655
4416.19323,0.02261
4418.12170,0.02827
4420.05017,0.03302
4421.97864,0.03548
4423.90710,0.03549
4425.83557,0.03306
4427.76404,0.02658
4429.69251,0.01947
4431.62098,0.01702
4433.54945,0.01732
4435.47792,0.01621
4437.40638,0.01653
4439.33485,0.01701
4441.26332,0.01329
4443.19179,0.01185
4445.12026,0.01691
4447.04873,0.02216
4448.97720,0.02152
4450.90567,0.01512
4452.83413,0.01009
4454.76260,0.01229
4456.69107,0.01771
4458.61954,0.01944
4460.54801,0.01645
4462.47648,0.01132
4464.40495,0.00667
4466.33341,0.00509
4468.26188,0.00688
4470.19035,0.00904
4472.11882,0.00996
4474.04729,0.00928
4475.97576,0.00545
4477.90423,0.00057
4479.83270,0.00035
4481.76116,0.00586
4483.68963,0.01072
4485.61810,0.01211
4487.54657,0.01371
4489.47504,0.01487
4491.40351,0.01470
4493.33198,0.01557
4495.26044,0.01500
4497.18891,0.01157
4499.11738,0.00931
4501.04585,0.00975
4502.97432,0.00886
4504.90279,0.00240
4506.83126,-0.00465
4508.75973,-0.00396
4510.68819,0.00180
4512.61666,0.00564
4514.54513,0.00548
4516.47360,0.00255
4518.40207,0.00096
4520.33054,0.00357
4522.25901,0.00688
4524.18747,0.00580
4526.11594,-0.00002
4528.04441,-0.00579
4529.97288,-0.00441
4531.90135,0.00282
4533.82982,0.00670
4535.75829,0.00696
4537.68676,0.00899
4539.61522,0.01027
4541.54369,0.00746
4543.47216,0.00373
4545.40063,0.00238
4547.32910,0.00542
4549.25757,0.01143
4551.18604,0.01351
4553.11450,0.01122
4555.04297,0.00985
4556.97144,0.00946
4558.89991,0.00933
4560.82838,0.00981
4562.75685,0.01132
4564.68532,0.01358
4566.61378,0.01238
4568.54225,0.00789
4570.47072,0.00669
4572.39919,0.01002
4574.32766,0.01339
4576.25613,0.01278
4578.18460,0.00785
4580.11307,0.00478
4582.04153,0.00728
4583.97000,0.01212
4585.89847,0.01632
4587.82694,0.01571
4589.75541,0.01095
4591.68388,0.01004
4593.61235,0.01261
4595.54081,0.01202
4597.46928,0.00433
4599.39775,-0.00426
4601.32622,-0.00115
4603.25469,0.00802
4605.18316,0.01207
4607.11163,0.01251
4609.04010,0.01026
4610.96856,0.00510
4612.89703,-0.00011
4614.82550,-0.00173
4616.75397,0.00197
4618.68244,0.00646
4620.61091,0.00425
4622.53938,-0.00187
4624.46784,-0.00291
4626.39631,-0.00059
4628.32478,0.00107
4630.25325,0.00393
4632.18172,0.00808
4634.11019,0.01199
4636.03866,0.01263
4637.96713,0.00919
4639.89559,0.00562
4641.82406,0.00317
4643.75253,0.00157
4645.68100,0.00437
4647.60947,0.01112
4649.53794,0.01403
4651.46641,0.01355
4653.39487,0.01594
4655.32334,0.01799
4657.25181,0.01839
4659.18028,0.01836
4661.10875,0.01551
4663.03722,0.01202
4664.96569,0.00788
4666.89416,-0.00094
4668.82262,-0.01219
4670.75109,-0.01768
4672.67956,-0.01591
4674.60803,-0.01362
4676.53650,-0.01099
4678.46497,-0.00590
4680.39344,-0.00349
4682.32190,-0.00288
4684.25037,0.00261
4686.17884,0.00788
4688.10731,0.00667
4690.03578,0.00564
4691.96425,0.00538
4693.89272,0.00159
4695.82119,0.00202
4697.74965,0.00948
4699.67812,0.01701
4701.60659,0.02117
4703.53506,0.01737
4705.46353,0.00754
4707.39200,0.00420
4709.32047,0.00668
4711.24893,0.00368
4713.17740,-0.00175
4715.10587,-0.00079
4717.03434,0.00304
4718.96281,0.00424
4720.89128,0.00366
4722.81975,0.00109
4724.74821,-0.00122
4726.67668,0.00322
4728.60515,0.01262
4730.53362,0.01610
4732.46209,0.00669
4734.39056,-0.00337
4736.31903,0.00343
4738.24750,0.01884
4740.17596,0.02137
4742.10443,0.00811
4744.03290,-0.00364
4745.96137,-0.00635
4747.88984,-0.00953
4749.81831,-0.01434
4751.74678,-0.01445
4753.67524,-0.00870
4755.60371,-0.00183
4757.53218,0.00066
4759.46065,0.00200
4761.38912,0.00456
4763.31759,0.00706
4765.24606,0.00958
4767.17453,0.00848
4769.10299,0.00641
4771.03146,0.00849
4772.95993,0.00819
4774.88840,0.00308
4776.81687,0.00272
4778.74534,0.00825
4780.67381,0.00874
4782.60227,0.00558
4784.53074,0.00750
4786.45921,0.00850
4788.38768,0.00283
4790.31615,-0.00436
4792.24462,-0.00921
4794.17309,-0.01041
4796.10156,-0.00955
4798.03002,-0.00201
4799.95849,0.01432
4801.88696,0.02151
4803.81543,0.01651
4805.74390,0.01451
4807.67237,0.01436
4809.60084,0.01518
4811.52930,0.02063
4813.45777,0.02005
4815.38624,0.00757
4817.31471,-0.00332
4819.24318,-0.00540
4821.17165,-0.00345
4823.10012,0.00251
4825.02859,0.01344
4826.95705,0.02029
4828.88552,0.01781
4830.81399,0.01659
4832.74246,0.01669
4834.67093,0.01169
4836.59940,0.00896
4838.52787,0.00960
4840.45633,0.00893
4842.38480,0.00788
4844.31327,0.00702
4846.24174,0.00871
4848.17021,0.01091
4850.09868,0.00703
4852.02715,0.00207
4853.95562,0.00238
4855.88408,0.00253
4857.81255,0.00191
4859.74102,0.00336
4861.66949,0.00153
4863.59796,-0.00513
4865.52643,-0.01084
4867.45490,-0.01270
4869.38336,-0.01094
4871.31183,-0.00637
4873.24030,0.00047
4875.16877,0.00597
4877.09724,0.00518
4879.02571,0.00005
4880.95418,-0.00112
4882.88265,0.00598
4884.81111,0.01419
4886.73958,0.01768
4888.66805,0.01767
4890.59652,0.01094
4892.52499,0.00270
4894.45346,0.00390
4896.38193,0.00460
4898.31039,-0.00090
4900.23886,-0.00085
4902.16733,0.00128
4904.09580,-0.00622
4906.02427,-0.01719
4907.95274,-0.01532
4909.88121,-0.00445
4911.80967,0.00152
4913.73814,0.00466
4915.66661,0.00815
4917.59508,0.01224
4919.52355,0.01861
4921.45202,0.02348
4923.38049,0.02084
4925.30896,0.01372
4927.23742,0.01093
4929.16589,0.01125
4931.09436,0.01031
4933.02283,0.00652
4934.95130,0.00199
4936.87977,0.00404
4938.80824,0.01179
4940.73670,0.01311
4942.66517,0.00253
4944.59364,-0.00685
4946.52211,-0.00390
4948.45058,0.00066
4950.37905,-0.00082
4952.30752,0.00319
4954.23599,0.01212
4956.16445,0.01388
4958.09292,0.01218
4960.02139,0.01086
4961.94986,0.00703
4963.87833,0.00217
4965.80680,0.00042
4967.73527,0.00261
4969.66373,0.00433
4971.59220,0.00659
4973.52067,0.01269
4975.44914,0.01240
4977.37761,0.00059
4979.30608,-0.00809
4981.23455,-0.00761
4983.16302,-0.00292
4985.09148,0.00194
4987.01995,0.00260
4988.94842,0.00658
4990.87689,0.01642
4992.80536,0.01948
4994.73383,0.01886
4996.66230,0.02280
4998.59076,0.02244
5000.51923,0.01523
5002.44770,0.00939
5004.37617,0.00682
5006.30464,0.00584
5008.23311,0.00677
5010.16158,0.00875
5012.09005,0.01042
5014.01851,0.01010
5015.94698,0.00683
5017.87545,0.00393
5019.80392,0.00443
5021.73239,0.00389
5023.66086,-0.00543
5025.58933,-0.01341
5027.51779,-0.00341
5029.44626,0.01288
5031.37473,0.02053
5033.30320,0.01977
5035.23167,0.01157
5037.16014,0.00163
5039.08861,-0.00654
5041.01708,-0.01342
5042.94554,-0.01543
5044.87401,-0.00957
5046.80248,0.00526
5048.73095,0.02221
5050.65942,0.02820
5052.58789,0.02425
5054.51636,0.02147
5056.44482,0.02179
5058.37329,0.02287
5060.30176,0.01983
5062.23023,0.01076
5064.15870,0.00684
5066.08717,0.00933
5068.01564,0.00872
5069.94410,0.00941
5071.87257,0.01341
5073.80104,0.01046
5075.72951,0.00133
5077.65798,-0.00160
5079.58645,0.00335
5081.51492,0.00968
5083.44339,0.01702
5085.37185,0.02408
5087.30032,0.02606
5089.22879,0.02080
5091.15726,0.01204
5093.08573,0.00819
5095.01420,0.01303
5096.94267,0.02510
5098.87113,0.03508
5100.79960,0.03349
5102.72807,0.02656
5104.65654,0.02134
5106.58501,0.01732
5108.51348,0.01955
5110.44195,0.03169
5112.37042,0.03711
5114.29888,0.02796
5116.22735,0.02584
5118.15582,0.03211
5120.08429,0.02956
5122.01276,0.02240
5123.94123,0.01932
5125.86970,0.01812
5127.79816,0.01995
5129.72663,0.02494
5131.65510,0.02531
5133.58357,0.02057
5135.51204,0.01522
5137.44051,0.01361
5139.36898,0.02471
5141.29745,0.04196
5143.22591,0.04240
5145.15438,0.02678
5147.08285,0.01364
5149.01132,0.00595
5150.93979,0.01202
5152.86826,0.03344
5154.79673,0.04600
5156.72519,0.04001
5158.65366,0.02804
5160.58213,0.02481
5162.51060,0.02957
5164.43907,0.02693
5166.36754,0.01855
5168.29601,0.01415
5170.22448,0.01553
5172.15294,0.02228
5174.08141,0.02871
5176.00988,0.03482
5177.93835,0.03599
5179.86682,0.02454
5181.79529,0.02004
5183.72376,0.03450
5185.65222,0.04517
5187.58069,0.04194
5189.50916,0.03955
5191.43763,0.03978
5193.36610,0.02941
5195.29457,0.01271
5197.22304,0.01165
5199.15151,0.02132
5201.07997,0.02229
5203.00844,0.02268
5204.93691,0.02808
5206.86538,0.02960
5208.79385,0.02581
5210.72232,0.02325
5212.65079,0.03071
5214.57925,0.04653
5216.50772,0.05349
5218.43619,0.04261
5220.36466,0.03258
5222.29313,0.03439
5224.22160,0.03423
5226.15007,0.02857
5228.07854,0.01823
5230.00700,0.00454
5231.93547,0.00693
5233.86394,0.02842
5235.79241,0.04063
5237.72088,0.03464
5239.64935,0.02581
5241.57782,0.01994
5243.50628,0.01548
5245.43475,0.01450
5247.36322,0.02095
5249.29169,0.02828
5251.22016,0.02538
5253.14863,0.01894
5255.07710,0.01879
5257.00556,0.02716
5258.93403,0.03857
5260.86250,0.04664
5262.79097,0.05232
5264.71944,0.05276
5266.64791,0.04899
5268.57638,0.04821
5270.50485,0.04177
5272.43331,0.03128
5274.36178,0.02804
5276.29025,0.02239
5278.21872,0.01067
5280.14719,0.00373
5282.07566,0.00520
5284.00413,0.01100
5285.93259,0.01839
5287.86106,0.02729
5289.78953,0.03782
5291.71800,0.05384
5293.64647,0.06939
5295.57494,0.07348
5297.50341,0.06148
5299.43188,0.03364
5301.36034,0.01057
5303.28881,0.02011
5305.21728,0.04636
5307.14575,0.05212
5309.07422,0.04078
5311.00269,0.03646
5312.93116,0.04330
5314.85962,0.04812
5316.78809,0.04563
5318.71656,0.04607
5320.64503,0.04045
5322.57350,0.02980
5324.50197,0.03505
5326.43044,0.05240
5328.35891,0.06534
5330.28737,0.07127
5332.21584,0.07289
5334.14431,0.07071
5336.07278,0.07511
5338.00125,0.08631
5339.92972,0.08482
5341.85819,0.07126
5343.78665,0.05060
5345.71512,0.02610
5347.64359,0.01537
5349.57206,0.01743
5351.50053,0.02103
5353.42900,0.02609
5355.35747,0.03457
5357.28594,0.04127
5359.21440,0.04087
5361.14287,0.03862
5363.07134,0.03790
5364.99981,0.02812
5366.92828,0.01848
5368.85675,0.02161
5370.78522,0.02538
5372.71368,0.02393
5374.64215,0.02742
5376.57062,0.03895
5378.49909,0.04661
5380.42756,0.04846
5382.35603,0.05057
5384.28450,0.05350
5386.21297,0.05288
5388.14143,0.04633
5390.06990,0.04192
5391.99837,0.04090
5393.92684,0.03968
5395.85531,0.04791
5397.78378,0.06136
5399.71225,0.06357
5401.64071,0.05853
5403.56918,0.05166
5405.49765,0.03744
5407.42612,0.02723
5409.35459,0.03687
5411.28306,0.05510
5413.21153,0.06625
5415.13999,0.06614
5417.06846,0.05893
5418.99693,0.05476
5420.92540,0.05686
5422.85387,0.06413
5424.78234,0.07580
5426.71081,0.08967
5428.63928,0.09106
5430.56774,0.06418
5432.49621,0.02898
5434.42468,0.01541
5436.35315,0.02883
5438.28162,0.04152
5440.21009,0.03845
5442.13856,0.03939
5444.06702,0.06156
5445.99549,0.08124
5447.92396,0.07102
5449.85243,0.05766
5451.78090,0.07047
5453.70937,0.09204
5455.63784,0.09550
5457.56631,0.07517
5459.49477,0.05516
5461.42324,0.04537
5463.35171,0.03582
5465.28018,0.02656
5467.20865,0.01959
5469.13712,0.02458
5471.06559,0.04709
5472.99405,0.06609
5474.92252,0.06647
5476.85099,0.05552
5478.77946,0.04654
5480.70793,0.04308
5482.63640,0.04048
5484.56487,0.03480
5486.49334,0.03078
5488.42180,0.03806
5490.35027,0.05020
5492.27874,0.03734
5494.20721,0.00901
5496.13568,0.01209
5498.06415,0.03865
5499.99262,0.05160
5501.92108,0.04740
5503.84955,0.04880
5505.77802,0.05561
5507.70649,0.04810
5509.63496,0.03260
5511.56343,0.02689
5513.49190,0.02880
5515.42037,0.03516
5517.34883,0.04788
5519.27730,0.05912
5521.20577,0.06639
5523.13424,0.07364
5525.06271,0.07275
5526.99118,0.06730
5528.91965,0.06721
5530.84811,0.06461
5532.77658,0.05558
5534.70505,0.04504
5536.63352,0.03512
5538.56199,0.02989
5540.49046,0.03747
5542.41893,0.05743
5544.34740,0.07372
5546.27586,0.07040
5548.20433,0.05013
5550.13280,0.03191
5552.06127,0.02990
5553.98974,0.04247
5555.91821,0.05164
5557.84668,0.04743
5559.77514,0.03641
5561.70361,0.03034
5563.63208,0.03914
5565.56055,0.04338
5567.48902,0.03020
5569.41749,0.02589
5571.34596,0.03770
5573.27443,0.04387
5575.20289,0.03998
5577.13136,0.04275
5579.05983,0.05149
5580.98830,0.05201
5582.91677,0.03951
5584.84524,0.02811
5586.77371,0.03881
5588.70217,0.05633
5590.63064,0.04805
5592.55911,0.02847
5594.48758,0.02650
5596.41605,0.04058
5598.34452,0.05605
5600.27299,0.06302
5602.20145,0.05648
5604.12992,0.04188
5606.05839,0.04000
5607.98686,0.04974
5609.91533,0.04198
5611.84380,0.03688
5613.77227,0.07365
5615.70074,0.10875
5617.62920,0.08436
5619.55767,0.03030
5621.48614,0.01506
5623.41461,0.04025
5625.34308,0.06839
5627.27155,0.08626
5629.20002,0.09115
5631.12848,0.08108
5633.05695,0.06334
5634.98542,0.05263
5636.91389,0.05270
5638.84236,0.05582
5640.77083,0.05406
5642.69930,0.05109
5644.62777,0.06111
5646.55623,0.07733
5648.48470,0.08351
5650.41317,0.07190
5652.34164,0.05144
5654.27011,0.04333
5656.19858,0.03754
5658.12705,0.02961
5660.05551,0.03644
5661.98398,0.04973
5663.91245,0.05831
5665.84092,0.06889
5667.76939,0.07939
5669.69786,0.07538
5671.62633,0.05863
5673.55480,0.04314
5675.48326,0.02898
5677.41173,0.02217
5679.34020,0.03065
5681.26867,0.04575
5683.19714,0.05534
5685.12561,0.05113
5687.05408,0.04074
5688.98254,0.03786
5690.91101,0.04505
5692.83948,0.05503
5694.76795,0.05521
5696.69642,0.05375
5698.62489,0.06746
5700.55336,0.07440
5702.48183,0.05655
5704.41029,0.03918
5706.33876,0.04872
5708.26723,0.08005
5710.19570,0.09956
5712.12417,0.08957
5714.05264,0.06823
5715.98111,0.05555
5717.90957,0.04620
5719.83804,0.02189
5721.76651,-0.00418
5723.69498,-0.00555
5725.62345,0.01594
5727.55192,0.04568
5729.48039,0.06361
5731.40886,0.05878
5733.33732,0.05113
5735.26579,0.06067
5737.19426,0.05844
5739.12273,0.02046
5741.05120,-0.00403
5742.97967,0.02466
5744.90814,0.06939
5746.83660,0.08284
5748.76507,0.07395
5750.69354,0.07494
5752.62201,0.08316
5754.55048,0.07739
5756.47895,0.06518
5758.40742,0.06023
5760.33588,0.05450
5762.26435,0.04838
5764.19282,0.04949
5766.12129,0.05710
5768.04976,0.06975
5769.97823,0.07367
5771.90670,0.05380
5773.83517,0.03915
5775.76363,0.05241
5777.69210,0.05383
5779.62057,0.03120
5781.54904,0.02694
5783.47751,0.04933
5785.40598,0.06258
5787.33445,0.05093
5789.26291,0.03711
5791.19138,0.03519
5793.11985,0.04412
5795.04832,0.05948
5796.97679,0.07292
5798.90526,0.06726
5800.83373,0.03967
5802.76220,0.02583
5804.69066,0.04205
5806.61913,0.05487
5808.54760,0.04514
5810.47607,0.03358
5812.40454,0.03894
5814.33301,0.05259
5816.26148,0.05718
5818.18994,0.05077
5820.11841,0.04378
5822.04688,0.04083
5823.97535,0.04334
5825.90382,0.05088
5827.83229,0.06407
5829.76076,0.07876
5831.68923,0.07774
5833.61769,0.06204
5835.54616,0.04470
5837.47463,0.03000
5839.40310,0.02065
5841.33157,0.01474
5843.26004,0.02119
5845.18851,0.04224
5847.11697,0.05319
5849.04544,0.05175
5850.97391,0.05424
5852.90238,0.06747
5854.83085,0.09271
5856.75932,0.10084
5858.68779,0.07412
5860.61626,0.04449
5862.54472,0.03647
5864.47319,0.03878
5866.40166,0.03439
5868.33013,0.03199
5870.25860,0.03904
5872.18707,0.05271
5874.11554,0.07878
5876.04400,0.09998
5877.97247,0.09571
5879.90094,0.07278
5881.82941,0.04730
5883.75788,0.04115
5885.68635,0.04887
5887.61482,0.05252
5889.54329,0.05832
5891.47175,0.06130
5893.40022,0.04921
5895.32869,0.04214
5897.25716,0.05510
5899.18563,0.06577
5901.11410,0.06733
5903.04257,0.06898
5904.97103,0.06391
5906.89950,0.05674
5908.82797,0.05943
5910.75644,0.06479
5912.68491,0.04897
5914.61338,0.02763
5916.54185,0.03497
5918.47032,0.04135
5920.39878,0.02851
5922.32725,0.02351
5924.25572,0.03734
5926.18419,0.06429
5928.11266,0.07845
5930.04113,0.07219
5931.96960,0.06362
5933.89806,0.05142
5935.82653,0.04023
5937.75500,0.03516
5939.68347,0.03056
5941.61194,0.04377
5943.54041,0.06981
5945.46888,0.07689
5947.39734,0.08168
5949.32581,0.10403
5951.25428,0.11258
5953.18275,0.09028
5955.11122,0.05642
5957.03969,0.03327
5958.96816,0.03852
5960.89663,0.05771
5962.82509,0.06334
5964.75356,0.06159
5966.68203,0.06318
5968.61050,0.05595
5970.53897,0.04693
5972.46744,0.07941
5974.39591,0.13397
5976.32437,0.14825
5978.25284,0.13312
5980.18131,0.11809
5982.10978,0.09841
5984.03825,0.07623
5985.96672,0.07813
5987.89519,0.09787
5989.82366,0.09612
5991.75212,0.09112
5993.68059,0.10870
5995.60906,0.11274
5997.53753,0.08558
5999.46600,0.04983
6001.39447,0.02877
6003.32294,0.03540
6005.25140,0.04941
6007.17987,0.05930
6009.10834,0.06655
6011.03681,0.06881
6012.96528,0.08385
6014.89375,0.10139
6016.82222,0.09248
6018.75069,0.06495
6020.67915,0.04026
6022.60762,0.02783
6024.53609,0.04114
6026.46456,0.07680
6028.39303,0.10241
6030.32150,0.10260
6032.24997,0.08613
6034.17843,0.06076
6036.10690,0.04888
6038.03537,0.05278
6039.96384,0.04708
6041.89231,0.03929
6043.82078,0.06036
6045.74925,0.09467
6047.67772,0.10433
6049.60618,0.10080
6051.53465,0.10352
6053.46312,0.09502
6055.39159,0.06983
6057.32006,0.04654
6059.24853,0.03347
6061.17700,0.01874
6063.10546,0.00632
6065.03393,0.01948
6066.96240,0.05244
6068.89087,0.07246
6070.81934,0.06790
6072.74781,0.05473
6074.67628,0.03871
6076.60475,0.03474
6078.53321,0.05100
6080.46168,0.06348
6082.39015,0.06568
6084.31862,0.04413
6086.24709,-0.01274
6088.17556,-0.03819
6090.10403,0.00526
6092.03249,0.05766
6093.96096,0.07982
6095.88943,0.07636
6097.81790,0.05864
6099.74637,0.04211
6101.67484,0.01734
6103.60331,-0.02510
6105.53177,-0.04920
6107.46024,-0.00602
6109.38871,0.08152
6111.31718,0.10740
6113.24565,0.04999
6115.17412,0.00563
6117.10259,0.02216
6119.03106,0.06637
6120.95952,0.09977
6122.88799,0.11093
6124.81646,0.11743
6126.74493,0.12430
6128.67340,0.10227
6130.60187,0.06535
6132.53034,0.04440
6134.45880,0.02784
6136.38727,0.01360
6138.31574,0.00632
6140.24421,0.01411
6142.17268,0.05053
6144.10115,0.07102
6146.02962,0.05182
6147.95809,0.04416
6149.88655,0.05462
6151.81502,0.05201
6153.74349,0.03103
6155.67196,0.00668
6157.60043,0.01743
6159.52890,0.06733
6161.45737,0.10178
6163.38583,0.10694
6165.31430,0.08866
6167.24277,0.04855
6169.17124,0.02860
6171.09971,0.04727
6173.02818,0.06171
6174.95665,0.04680
6176.88512,0.03322
6178.81358,0.03920
6180.74205,0.03850
6182.67052,0.01802
6184.59899,0.00851
6186.52746,0.01969
6188.45593,0.00574
6190.38440,-0.01563
6192.31286,0.02555
6194.24133,0.08859
6196.16980,0.08116
6198.09827,0.00692
6200.02674,-0.04153
6201.95521,-0.03022
6203.88368,-0.02082
6205.81215,-0.01841
6207.74061,0.02656
6209.66908,0.05988
6211.59755,0.03963
6213.52602,0.03997
6215.45449,0.07519
6217.38296,0.10070
6219.31143,0.09842
6221.23989,0.07586
6223.16836,0.05850
6225.09683,0.05511
6227.02530,0.04525
6228.95377,0.03771
6230.88224,0.04145
6232.81071,0.05480
6234.73918,0.07983
6236.66764,0.08378
6238.59611,0.06195
6240.52458,0.05061
6242.45305,0.06276
6244.38152,0.06606
6246.30999,0.03378
6248.23846,0.02060
6250.16692,0.05902
6252.09539,0.08802
6254.02386,0.07815
6255.95233,0.04716
6257.88080,0.01199
6259.80927,0.00907
6261.73774,0.04895
6263.66621,0.08156
6265.59467,0.07750
6267.52314,0.05456
6269.45161,0.02174
6271.38008,0.00296
6273.30855,0.02900
6275.23702,0.08389
6277.16549,0.11469
6279.09395,0.11066
6281.02242,0.07947
6282.95089,0.02348
6284.87936,-0.00240
6286.80783,0.03621
6288.73630,0.08818
6290.66477,0.08475
6292.59323,0.02736
6294.52170,-0.01108
6296.45017,-0.00198
6298.37864,0.02238
6300.30711,0.05173
6302.23558,0.07732
6304.16405,0.07332
6306.09252,0.06541
6308.02098,0.06626
6309.94945,0.05806
6311.87792,0.05353
6313.80639,0.05602
6315.73486,0.05652
6317.66333,0.03680
6319.59180,-0.00046
6321.52026,-0.01375
6323.44873,-0.00504
6325.37720,0.00367
6327.30567,0.02952
6329.23414,0.08130
6331.16261,0.11799
6333.09108,0.10131
6335.01955,0.07000
6336.94801,0.07343
6338.87648,0.08327
6340.80495,0.07411
6342.73342,0.06321
6344.66189,0.04999
6346.59036,0.02764
6348.51883,0.01510
6350.44729,0.05010
6352.37576,0.09225
6354.30423,0.06541
6356.23270,0.00800
6358.16117,-0.02011
6360.08964,-0.01423
6362.01811,0.01354
6363.94658,0.04873
6365.87504,0.06867
6367.80351,0.07806
6369.73198,0.08869
6371.66045,0.08468
6373.58892,0.06313
6375.51739,0.05842
6377.44586,0.07209
6379.37432,0.06621
6381.30279,0.05927
6383.23126,0.06744
6385.15973,0.05750
6387.08820,0.03564
6389.01667,0.01495
6390.94514,0.02950
6392.87361,0.09490
6394.80207,0.11606
6396.73054,0.06482
6398.65901,0.01434
6400.58748,-0.00569
6402.51595,-0.00127
6404.44442,0.02285
6406.37289,0.06035
6408.30135,0.07585
6410.22982,0.04867
6412.15829,0.02414
6414.08676,0.04354
6416.01523,0.08766
6417.94370,0.11713
6419.87217,0.11268
6421.80064,0.06805
6423.72910,0.01839
6425.65757,0.03798
6427.58604,0.08419
6429.51451,0.07204
6431.44298,0.04063
6433.37145,0.05923
6435.29992,0.11672
6437.22838,0.16095
6439.15685,0.16386
6441.08532,0.13911
6443.01379,0.10647
6444.94226,0.09180
6446.87073,0.08345
6448.79920,0.06062
6450.72766,0.03482
6452.65613,0.01012
6454.58460,0.00427
6456.51307,0.02140
6458.44154,0.02014
6460.37001,0.01373
6462.29848,0.01951
6464.22695,0.00089
6466.15541,-0.02642
6468.08388,-0.02218
6470.01235,0.00579
6471.94082,0.04377
6473.86929,0.09298
6475.79776,0.13421
6477.72623,0.13537
6479.65469,0.10966
6481.58316,0.08184
6483.51163,0.05836
6485.44010,0.05167
6487.36857,0.05857
6489.29704,0.06032
6491.22551,0.05630
6493.15398,0.06431
6495.08244,0.07705
6497.01091,0.07898
6498.93938,0.07804
6500.86785,0.06137
6502.79632,0.03153
6504.72479,0.02988
6506.65326,0.04419
6508.58172,0.05350
6510.51019,0.06694
6512.43866,0.06370
6514.36713,0.03586
6516.29560,0.00581
6518.22407,-0.02474
6520.15254,-0.02662
6522.08101,0.03047
6524.00947,0.09090
6525.93794,0.09390
6527.86641,0.07899
6529.79488,0.05622
6531.72335,0.01176
6533.65182,-0.00210
6535.58029,0.03281
6537.50875,0.06403
6539.43722,0.06512
6541.36569,0.07061
6543.29416,0.10945
6545.22263,0.14488
6547.15110,0.13424
6549.07957,0.09430
6551.00804,0.07104
6552.93650,0.08317
6554.86497,0.10293
6556.79344,0.08983
6558.72191,0.05121
6560.65038,0.03714
6562.57885,0.05740
6564.50732,0.08989
6566.43578,0.11527
6568.36425,0.10815
6570.29272,0.07506
6572.22119,0.05950
6574.14966,0.06244
6576.07813,0.06883
6578.00660,0.08384
6579.93507,0.07556
6581.86353,0.03111
6583.79200,-0.01726
6585.72047,-0.04375
6587.64894,-0.03403
6589.57741,-0.01752
6591.50588,-0.02517
6593.43435,-0.02818
6595.36281,-0.00054
6597.29128,0.04450
6599.21975,0.09184
6601.14822,0.11699
6603.07669,0.09453
6605.00516,0.04519
6606.93363,0.01889
6608.86210,0.02441
6610.79056,0.04033
6612.71903,0.05890
6614.64750,0.05775
6616.57597,0.05214
6618.50444,0.06425
6620.43291,0.06235
6622.36138,0.04319
6624.28984,0.03115
6626.21831,0.02736
6628.14678,0.02375
6630.07525,0.01777
6632.00372,-0.01269
6633.93219,-0.04584
6635.86066,-0.02992
6637.78912,-0.00354
6639.71759,-0.00528
6641.64606,-0.01093
6643.57453,-0.00738
6645.50300,0.00610
6647.43147,0.02765
6649.35994,0.05803
6651.28841,0.06850
6653.21687,0.02303
6655.14534,-0.05176
6657.07381,-0.08594
6659.00228,-0.05433
6660.93075,-0.00967
6662.85922,-0.01805
6664.78769,-0.06802
6666.71615,-0.10512
6668.64462,-0.08729
6670.57309,0.00054
6672.50156,0.06141
6674.43003,0.02892
6676.35850,0.00286
6678.28697,0.02349
6680.21544,0.04042
6682.14390,0.04367
6684.07237,0.06439
6686.00084,0.08252
6687.92931,0.05923
6689.85778,0.00304
6691.78625,-0.02523
6693.71472,0.01079
6695.64318,0.04912
6697.57165,0.02422
6699.50012,-0.00426
6701.42859,0.02465
6703.35706,0.07923
6705.28553,0.12541
6707.21400,0.14506
6709.14247,0.12275
6711.07093,0.10048
6712.99940,0.09691
6714.92787,0.07822
6716.85634,0.03561
6718.78481,-0.00084
6720.71328,-0.01343
6722.64175,-0.02356
6724.57021,-0.03102
6726.49868,-0.00881
6728.42715,0.04107
6730.35562,0.08889
6732.28409,0.09042
6734.21256,0.04283
6736.14103,0.00482
6738.06950,-0.00498
6739.99796,-0.02282
6741.92643,-0.00672
6743.85490,0.06854
6745.78337,0.12001
6747.71184,0.11093
6749.64031,0.07994
6751.56878,0.08184
6753.49724,0.10060
6755.42571,0.07431
6757.35418,0.01526
6759.28265,-0.02680
6761.21112,-0.03484
6763.13959,-0.01544
6765.06806,0.01302
6766.99653,0.01808
6768.92499,0.01346
6770.85346,0.00968
6772.78193,-0.01140
6774.71040,0.00880
6776.63887,0.08956
6778.56734,0.12754
6780.49581,0.09584
6782.42427,0.05774
6784.35274,0.03732
6786.28121,-0.00935
6788.20968,-0.08406
6790.13815,-0.11348
6792.06662,-0.03715
6793.99509,0.06603
6795.92355,0.11177
6797.85202,0.10310
6799.78049,0.04982
6801.70896,-0.03044
6803.63743,-0.06000
6805.56590,0.01370
6807.49437,0.07849
6809.42284,0.06366
6811.35130,0.06785
6813.27977,0.12086
6815.20824,0.10346
6817.13671,0.00635
6819.06518,-0.04761
6820.99365,-0.01459
6822.92212,0.07766
6824.85058,0.17891
6826.77905,0.24251
6828.70752,0.20476
6830.63599,0.10101
6832.56446,0.10027
6834.49293,0.17625
6836.42140,0.18566
6838.34987,0.12933
6840.27833,0.06885
6842.20680,0.02051
6844.13527,0.01544
6846.06374,0.06584
6847.99221,0.11621
6849.92068,0.08912
6851.84915,0.02631
6853.77761,-0.00110
6855.70608,-0.00661
6857.63455,-0.03804
6859.56302,-0.06041
6861.49149,0.00149
6863.41996,0.07097
6865.34843,0.02825
6867.27690,-0.05133
6869.20536,-0.05897
6871.13383,-0.01602
6873.06230,0.02713
6874.99077,0.03448
6876.91924,0.02956
6878.84771,0.07818
6880.77618,0.12819
6882.70464,0.07460
6884.63311,0.00278
6886.56158,-0.01589
6888.49005,-0.02642
6890.41852,-0.03992
6892.34699,0.00362
6894.27546,0.08450
6896.20393,0.11761
6898.13239,0.10681
6900.06086,0.10625
6901.98933,0.09915
6903.91780,0.06751
6905.84627,0.06240
6907.77474,0.10368
6909.70321,0.10807
6911.63167,0.03108
6913.56014,-0.02888
6915.48861,0.01933
6917.41708,0.06719
6919.34555,-0.00082
6921.27402,-0.04470
6923.20249,0.03341
6925.13096,0.10770
6927.05942,0.13764
6928.98789,0.15279
6930.91636,0.14755
6932.84483,0.11270
6934.77330,0.05895
6936.70177,0.02840
6938.63024,0.01919
6940.55870,0.00978
6942.48717,0.03928
6944.41564,0.10656
6946.34411,0.13961
6948.27258,0.10955
6950.20105,0.05950
6952.12952,0.03419
6954.05799,0.04528
6955.98645,0.00960
6957.91492,-0.09314
6959.84339,-0.12711
6961.77186,-0.03459
6963.70033,0.07525
6965.62880,0.11261
6967.55727,0.12777
6969.48573,0.15328
6971.41420,0.11112
6973.34267,0.02421
6975.27114,-0.00001
6977.19961,0.01981
6979.12808,0.01596
6981.05655,-0.00432
6982.98501,0.01075
6984.91348,0.07700
6986.84195,0.16109
6988.77042,0.19853
6990.69889,0.12781
6992.62736,0.02502
6994.55583,-0.02403
6996.48430,-0.02792
6998.41276,-0.00740
7000.34123,0.01724
7002.26970,0.03523
7004.19817,0.04545
7006.12664,0.03188
7008.05511,0.00392
7009.98358,-0.01418
7011.91204,-0.01700
7013.84051,0.00444
7015.76898,0.01385
7017.69745,0.01197
7019.62592,0.06295
7021.55439,0.14260
7023.48286,0.19033
7025.41133,0.19915
7027.33979,0.16423
7029.26826,0.08308
7031.19673,0.05051
7033.12520,0.11734
7035.05367,0.16628
7036.98214,0.10005
7038.91061,0.04518
7040.83907,0.05967
7042.76754,0.03834
7044.69601,0.01355
7046.62448,0.07468
7048.55295,0.11696
7050.48142,0.11083
7052.40989,0.08451
7054.33836,0.06500
7056.26682,0.11565
7058.19529,0.14126
7060.12376,0.06300
7062.05223,0.00299
7063.98070,-0.00862
7065.90917,0.00571
7067.83764,0.05273
7069.76610,0.10123
7071.69457,0.11232
7073.62304,0.09757
7075.55151,0.09928
7077.47998,0.13650
7079.40845,0.16230
7081.33692,0.10528
7083.26539,0.06156
7085.19385,0.11744
7087.12232,0.13654
7089.05079,0.01729
7090.97926,-0.09001
7092.90773,-0.06553
7094.83620,0.03127
7096.76467,0.11269
7098.69313,0.13992
7100.62160,0.11233
7102.55007,0.09062
7104.47854,0.12348
7106.40701,0.18613
7108.33548,0.20678
7110.26395,0.17608
7112.19242,0.12399
7114.12088,0.03519
7116.04935,-0.08847
7117.97782,-0.09910
7119.90629,0.02411
7121.83476,0.10523
7123.76323,0.07709
7125.69170,-0.04687
7127.62016,-0.12514
7129.54863,-0.11961
7131.47710,-0.09491
7133.40557,-0.02263
7135.33404,0.03987
7137.26251,0.04317
7139.19098,0.02969
7141.11944,0.03095
7143.04791,0.05760
7144.97638,0.08558
7146.90485,0.09543
7148.83332,0.10308
7150.76179,0.07225
7152.69026,0.01633
7154.61873,0.02874
7156.54719,0.09732
7158.47566,0.10882
7160.40413,0.01616
7162.33260,-0.05863
7164.26107,-0.00406
7166.18954,0.06530
7168.11801,0.00759
7170.04647,-0.04249
7171.97494,0.05608
7173.90341,0.14059
7175.83188,0.12632
7177.76035,0.11713
7179.68882,0.14230
7181.61729,0.13335
7183.54576,0.10664
7185.47422,0.16316
7187.40269,0.24058
7189.33116,0.23434
7191.25963,0.16667
7193.18810,0.10178
7195.11657,0.06179
7197.04504,0.05080
7198.97350,0.02019
7200.90197,-0.04726
7202.83044,-0.08093
7204.75891,-0.00616
7206.68738,0.07872
7208.61585,0.07724
7210.54432,0.08634
7212.47279,0.10927
7214.40125,0.08272
7216.32972,0.05286
7218.25819,0.06141
7220.18666,0.06031
7222.11513,0.03326
7224.04360,-0.01715
7225.97207,-0.04012
7227.90053,0.01372
7229.82900,0.13839
7231.75747,0.23812
7233.68594,0.18442
7235.61441,0.07611
7237.54288,0.03812
7239.47135,0.06319
7241.39982,0.03028
7243.32828,-0.06005
7245.25675,-0.00328
7247.18522,0.14329
7249.11369,0.20265
7251.04216,0.16846
7252.97063,0.16347
7254.89910,0.14978
7256.82756,0.04811
7258.75603,-0.06734
7260.68450,-0.10758
7262.61297,-0.04880
7264.54144,0.00032
7266.46991,-0.01150
7268.39838,-0.02353
7270.32685,0.03408
7272.25531,0.15038
7274.18378,0.15098
7276.11225,0.06580
7278.04072,0.02328
7279.96919,0.10079
7281.89766,0.18877
7283.82613,0.08853
7285.75459,-0.05362
7287.68306,-0.06631
7289.61153,-0.04378
7291.54000,-0.03749
7293.46847,0.03065
7295.39694,0.07288
7297.32541,-0.00658
7299.25387,-0.06282
7301.18234,0.00552
7303.11081,0.09051
7305.03928,0.05765
7306.96775,-0.02659
7308.89622,0.05207
7310.82469,0.18683
7312.75316,0.21163
7314.68162,0.24484
7316.61009,0.22758
7318.53856,0.08296
7320.46703,0.00624
7322.39550,0.07611
7324.32397,0.10334
7326.25244,-0.01883
7328.18090,-0.09944
7330.10937,-0.03726
7332.03784,-0.02018
7333.96631,-0.05740
7335.89478,-0.05310
7337.82325,-0.01657
7339.75172,0.02336
7341.68019,0.07258
7343.60865,0.12031
7345.53712,0.10535
7347.46559,0.03991
7349.39406,0.01665
7351.32253,0.02657
7353.25100,-0.00714
7355.17947,-0.02603
7357.10793,0.08448
7359.03640,0.25288
7360.96487,0.31118
7362.89334,0.28453
7364.82181,0.17286
7366.75028,0.03369
7368.67875,0.03841
7370.60722,0.11160
7372.53568,0.07505
7374.46415,-0.03215
7376.39262,-0.04085
7378.32109,-0.01603
7380.24956,-0.08044
7382.17803,-0.17389
7384.10650,-0.11174
7386.03496,0.07668
7387.96343,0.13635
7389.89190,0.04930
7391.82037,-0.01788
7393.74884,-0.00102
7395.67731,0.07076
7397.60578,0.11380
7399.53425,0.09928
7401.46271,0.09579
7403.39118,0.18138
7405.31965,0.24997
7407.24812,0.19569
7409.17659,0.13457
7411.10506,0.09559
7413.03353,0.01697
7414.96199,-0.10876
7416.89046,-0.17718
7418.81893,-0.01283
7420.74740,0.26422
7422.67587,0.40408
7424.60434,0.42093
7426.53281,0.33168
7428.46128,0.15735
7430.38974,0.00759
7432.31821,0.01308
7434.24668,0.07835
7436.17515,0.08009
7438.10362,0.05047
7440.03209,0.04638
7441.96056,0.03483
7443.88902,0.01793
7445.81749,-0.01195
7447.74596,-0.07662
7449.67443,-0.07240
7451.60290,0.09498
7453.53137,0.23707
7455.45984,0.18036
7457.38831,0.00993
7459.31677,-0.13809
7461.24524,-0.11284
7463.17371,0.03637
7465.10218,0.10390
7467.03065,0.03345
7468.95912,0.02416
7470.88759,0.10596
7472.81605,0.11783
7474.74452,0.06698
7476.67299,0.05845
7478.60146,0.09371
7480.52993,0.09610
7482.45840,0.04196
7484.38687,0.05451
7486.31533,0.08003
7488.24380,0.04013
7490.17227,0.07338
7492.10074,0.14279
7494.02921,0.07853
7495.95768,-0.05647
7497.88615,-0.16315
