399.19301,-0.11118
401.12148,0.00084
403.04995,0.34294
404.97842,0.36098
406.90689,0.22500
408.83536,0.11128
410.76382,0.03847
412.69229,0.02682
414.62076,0.04285
416.54923,0.01622
418.47770,-0.02250
420.40617,-0.01745
422.33464,0.01146
424.26311,0.00074
426.19157,-0.06727
428.12004,-0.09554
430.04851,-0.01885
431.97698,0.09854
433.90545,0.16790
435.83392,0.17726
437.76239,0.16669
439.69085,0.14813
441.61932,0.08312
443.54779,0.01144
445.47626,-0.01170
447.40473,0.01505
449.33320,0.05823
451.26167,0.06551
453.19013,0.04029
455.11860,0.02945
457.04707,0.03920
458.97554,0.03934
460.90401,0.05059
462.83248,0.06321
464.76095,0.05466
466.68942,0.05374
468.61788,0.08030
470.54635,0.11244
472.47482,0.12093
474.40329,0.11802
476.33176,0.12164
478.26023,0.09581
480.18870,0.04304
482.11716,0.01031
484.04563,0.03549
485.97410,0.07061
487.90257,0.06929
489.83104,0.05723
491.75951,0.06044
493.68798,0.08531
495.61645,0.11053
497.54491,0.11032
499.47338,0.10649
501.40185,0.10746
503.33032,0.10081
505.25879,0.09497
507.18726,0.08342
509.11573,0.06845
511.04419,0.07033
512.97266,0.06619
514.90113,0.04137
516.82960,0.03125
518.75807,0.04358
520.68654,0.06004
522.61501,0.07749
524.54348,0.07983
526.47194,0.06378
528.40041,0.04936
530.32888,0.04802
532.25735,0.06839
534.18582,0.10017
536.11429,0.10947
538.04276,0.09047
539.97122,0.06789
541.89969,0.04941
543.82816,0.03552
545.75663,0.03328
547.68510,0.04920
549.61357,0.08749
551.54204,0.14618
553.47051,0.18910
555.39897,0.17680
557.32744,0.12805
559.25591,0.08319
561.18438,0.06697
563.11285,0.08321
565.04132,0.09985
566.96979,0.09386
568.89825,0.07759
570.82672,0.06992
572.75519,0.07128
574.68366,0.07968
576.61213,0.09472
578.54060,0.10010
580.46907,0.09034
582.39754,0.07785
584.32600,0.06916
586.25447,0.06403
588.18294,0.06188
590.11141,0.06307
592.03988,0.06374
593.96835,0.06071
595.89682,0.06801
597.82528,0.07789
599.75375,0.07072
601.68222,0.06595
603.61069,0.07315
605.53916,0.07454
607.46763,0.07181
609.39610,0.07290
611.32456,0.07258
613.25303,0.06981
615.18150,0.07805
617.10997,0.09313
619.03844,0.09131
620.96691,0.07750
622.89538,0.06897
624.82385,0.06344
626.75231,0.06283
628.68078,0.06599
630.60925,0.06360
632.53772,0.06848
634.46619,0.08690
636.39466,0.10048
638.32313,0.10601
640.25159,0.11152
642.18006,0.11729
644.10853,0.11751
646.03700,0.11026
647.96547,0.10061
649.89394,0.09046
651.82241,0.08199
653.75088,0.07600
655.67934,0.06645
657.60781,0.05531
659.53628,0.05119
661.46475,0.06134
663.39322,0.08322
665.32169,0.10199
667.25016,0.10481
669.17862,0.08929
671.10709,0.07951
673.03556,0.08035
674.96403,0.08602
676.89250,0.08443
678.82097,0.06971
680.74944,0.05248
682.67791,0.04473
684.60637,0.05028
686.53484,0.06130
688.46331,0.07420
690.39178,0.08451
692.32025,0.08067
694.24872,0.06736
696.17719,0.05964
698.10565,0.06877
700.03412,0.08788
701.96259,0.09520
703.89106,0.08793
705.81953,0.08278
707.74800,0.08107
709.67647,0.07334
711.60494,0.06784
713.53340,0.07569
715.46187,0.08675
717.39034,0.08548
719.31881,0.07801
721.24728,0.07598
723.17575,0.07554
725.10422,0.07626
727.03268,0.08236
728.96115,0.09129
730.88962,0.09614
732.81809,0.09086
734.74656,0.08076
736.67503,0.07848
738.60350,0.08218
740.53197,0.08133
742.46043,0.07806
744.38890,0.07633
746.31737,0.07310
748.24584,0.06766
750.17431,0.06741
752.10278,0.07832
754.03125,0.08824
755.95971,0.08490
757.88818,0.07764
759.81665,0.07899
761.74512,0.08629
763.67359,0.09143
765.60206,0.08995
767.53053,0.08458
769.45900,0.08262
771.38746,0.08691
773.31593,0.09434
775.24440,0.09348
777.17287,0.08171
779.10134,0.07513
781.02981,0.07999
782.95828,0.08708
784.88674,0.08941
786.81521,0.08735
788.74368,0.08390
790.67215,0.08039
792.60062,0.07552
794.52909,0.07152
796.45756,0.07771
798.38602,0.09105
800.31449,0.09676
802.24296,0.08953
804.17143,0.07182
806.09990,0.05191
808.02837,0.04173
809.95684,0.04820
811.88531,0.06908
813.81377,0.08609
815.74224,0.08610
817.67071,0.07907
819.59918,0.07612
821.52765,0.07980
823.45612,0.08311
825.38459,0.07907
827.31305,0.07556
829.24152,0.07959
831.16999,0.08810
833.09846,0.09267
835.02693,0.08730
836.95540,0.07952
838.88387,0.07635
840.81234,0.07893
842.74080,0.08763
844.66927,0.09544
846.59774,0.09694
848.52621,0.09676
850.45468,0.09749
852.38315,0.09342
854.31162,0.08453
856.24008,0.08047
858.16855,0.08338
860.09702,0.08607
862.02549,0.08504
863.95396,0.08517
865.88243,0.10146
867.81090,0.13239
869.73937,0.13971
871.66783,0.11614
873.59630,0.10371
875.52477,0.10760
877.45324,0.10231
879.38171,0.09078
881.31018,0.08289
883.23865,0.07690
885.16711,0.07580
887.09558,0.08273
889.02405,0.09015
890.95252,0.09038
892.88099,0.08685
894.80946,0.08161
896.73793,0.07612
898.66640,0.07960
900.59486,0.08687
902.52333,0.08477
904.45180,0.07713
906.38027,0.07273
908.30874,0.07436
910.23721,0.08127
912.16568,0.08900
914.09414,0.09296
916.02261,0.09448
917.95108,0.09584
919.87955,0.09204
921.80802,0.08309
923.73649,0.07950
925.66496,0.08335
927.59343,0.08826
929.52189,0.09119
931.45036,0.09185
933.37883,0.09104
935.30730,0.08890
937.23577,0.08846
939.16424,0.09344
941.09271,0.09984
943.02117,0.10238
944.94964,0.10059
946.87811,0.09670
948.80658,0.09491
950.73505,0.09651
952.66352,0.09837
954.59199,0.09786
956.52045,0.09583
958.44892,0.09649
960.37739,0.09881
962.30586,0.09708
964.23433,0.09332
966.16280,0.09157
968.09127,0.09118
970.01974,0.09010
971.94820,0.08497
973.87667,0.07945
975.80514,0.08197
977.73361,0.09035
979.66208,0.09580
981.59055,0.09472
983.51902,0.09148
985.44748,0.09287
987.37595,0.09581
989.30442,0.09303
991.23289,0.08754
993.16136,0.08569
995.08983,0.08581
997.01830,0.08551
998.94677,0.08969
1000.87523,0.09620
1002.80370,0.09662
1004.73217,0.09547
1006.66064,0.09655
1008.58911,0.09254
1010.51758,0.08771
1012.44605,0.08905
1014.37451,0.09027
1016.30298,0.09221
1018.23145,0.09784
1020.15992,0.10133
1022.08839,0.09840
1024.01686,0.09785
1025.94533,0.11230
1027.87380,0.12369
1029.80226,0.11173
1031.73073,0.09463
1033.65920,0.09025
1035.58767,0.09105
1037.51614,0.08954
1039.44461,0.09168
1041.37308,0.09690
1043.30154,0.09505
1045.23001,0.08782
1047.15848,0.08524
1049.08695,0.09068
1051.01542,0.09836
1052.94389,0.09903
1054.87236,0.09250
1056.80083,0.09067
1058.72929,0.09971
1060.65776,0.10793
1062.58623,0.10175
1064.51470,0.08813
1066.44317,0.08254
1068.37164,0.08591
1070.30011,0.09423
1072.22857,0.10362
1074.15704,0.10554
1076.08551,0.09904
1078.01398,0.09423
1079.94245,0.09641
1081.87092,0.10253
1083.79939,0.10762
1085.72786,0.10703
1087.65632,0.10271
1089.58479,0.09884
1091.51326,0.09710
1093.44173,0.09769
1095.37020,0.09709
1097.29867,0.09694
1099.22714,0.10212
1101.15560,0.10626
1103.08407,0.10362
1105.01254,0.10181
1106.94101,0.10352
1108.86948,0.10258
1110.79795,0.09987
1112.72642,0.09890
1114.65489,0.09783
1116.58335,0.09545
1118.51182,0.09643
1120.44029,0.10132
1122.36876,0.10360
1124.29723,0.10288
1126.22570,0.10174
1128.15417,0.10056
1130.08263,0.09806
1132.01110,0.09369
1133.93957,0.08930
1135.86804,0.08533
1137.79651,0.08576
1139.72498,0.09286
1141.65345,0.10036
1143.58191,0.10189
1145.51038,0.10014
1147.43885,0.10191
1149.36732,0.10407
1151.29579,0.10359
1153.22426,0.10253
1155.15273,0.10058
1157.08120,0.10006
1159.00966,0.10084
1160.93813,0.10108
1162.86660,0.10387
1164.79507,0.10737
1166.72354,0.10555
1168.65201,0.10017
1170.58048,0.09778
1172.50894,0.09971
1174.43741,0.10367
1176.36588,0.10663
1178.29435,0.10654
1180.22282,0.10555
1182.15129,0.10683
1184.07976,0.10952
1186.00823,0.10812
1187.93669,0.10183
1189.86516,0.09797
1191.79363,0.09974
1193.72210,0.10345
1195.65057,0.10525
1197.57904,0.10549
1199.50751,0.10543
1201.43597,0.10371
1203.36444,0.10202
1205.29291,0.10220
1207.22138,0.10244
1209.14985,0.10199
1211.07832,0.10182
1213.00679,0.10235
1214.93526,0.10229
1216.86372,0.10078
1218.79219,0.09989
1220.72066,0.10151
1222.64913,0.10448
1224.57760,0.10618
1226.50607,0.10532
1228.43454,0.10410
1230.36300,0.10499
1232.29147,0.10698
1234.21994,0.10813
1236.14841,0.10758
1238.07688,0.10600
1240.00535,0.10520
1241.93382,0.10564
1243.86229,0.10555
1245.79075,0.10414
1247.71922,0.10317
1249.64769,0.10388
1251.57616,0.10535
1253.50463,0.10592
1255.43310,0.10564
1257.36157,0.10618
1259.29003,0.10725
1261.21850,0.10638
1263.14697,0.10541
1265.07544,0.10763
1267.00391,0.10926
1268.93238,0.10800
1270.86085,0.10677
1272.78932,0.10684
1274.71778,0.10765
1276.64625,0.10891
1278.57472,0.11057
1280.50319,0.11114
1282.43166,0.11107
1284.36013,0.11205
1286.28860,0.11138
1288.21706,0.10784
1290.14553,0.10562
1292.07400,0.10576
1294.00247,0.10699
1295.93094,0.10925
1297.85941,0.10965
1299.78788,0.10734
1301.71634,0.10526
1303.64481,0.10430
1305.57328,0.10443
1307.50175,0.10546
1309.43022,0.10684
1311.35869,0.10854
1313.28716,0.10983
1315.21563,0.11071
1317.14409,0.11190
1319.07256,0.11173
1321.00103,0.11044
1322.92950,0.10974
1324.85797,0.10806
1326.78644,0.10615
1328.71491,0.10599
1330.64337,0.10590
1332.57184,0.10513
1334.50031,0.10505
1336.42878,0.10639
1338.35725,0.10823
1340.28572,0.10251
1342.21419,0.09040
1344.14266,0.08985
1346.07112,0.10132
1347.99959,0.10942
1349.92806,0.11035
1351.85653,0.10904
1353.78500,0.10935
1355.71347,0.11099
1357.64194,0.11084
1359.57040,0.10987
1361.49887,0.10923
1363.42734,0.10932
1365.35581,0.11180
1367.28428,0.11460
1369.21275,0.11477
1371.14122,0.11346
1373.06969,0.11293
1374.99815,0.11351
1376.92662,0.11503
1378.85509,0.11652
1380.78356,0.11624
1382.71203,0.11600
1384.64050,0.11927
1386.56897,0.12266
1388.49743,0.12022
1390.42590,0.11601
1392.35437,0.11504
1394.28284,0.11627
1396.21131,0.11607
1398.13978,0.11420
1400.06825,0.11468
1401.99672,0.11822
1403.92518,0.12102
1405.85365,0.11982
1407.78212,0.11719
1409.71059,0.11648
1411.63906,0.11634
1413.56753,0.11609
1415.49600,0.11794
1417.42446,0.12264
1419.35293,0.12450
1421.28140,0.12180
1423.20987,0.12051
1425.13834,0.12001
1427.06681,0.11911
1428.99528,0.11810
1430.92375,0.11673
1432.85221,0.11644
1434.78068,0.11918
1436.70915,0.12362
1438.63762,0.12354
1440.56609,0.12134
1442.49456,0.12055
1444.42303,0.12003
1446.35149,0.11948
1448.27996,0.12065
1450.20843,0.12241
1452.13690,0.12055
1454.06537,0.11800
1455.99384,0.12251
1457.92231,0.12914
1459.85077,0.12626
1461.77924,0.12414
1463.70771,0.12445
1465.63618,0.12172
1467.56465,0.11829
1469.49312,0.12020
1471.42159,0.12664
1473.35006,0.13072
1475.27852,0.12733
1477.20699,0.12165
1479.13546,0.11725
1481.06393,0.11472
1482.99240,0.11432
1484.92087,0.11683
1486.84934,0.12109
1488.77780,0.12375
1490.70627,0.12046
1492.63474,0.11603
1494.56321,0.11627
1496.49168,0.11895
1498.42015,0.12437
1500.34862,0.13275
1502.27709,0.13604
1504.20555,0.13360
1506.13402,0.12903
1508.06249,0.12436
1509.99096,0.12225
1511.91943,0.12204
1513.84790,0.12442
1515.77637,0.12959
1517.70483,0.13301
1519.63330,0.13356
1521.56177,0.13490
1523.49024,0.13147
1525.41871,0.12306
1527.34718,0.11538
1529.27565,0.11210
1531.20412,0.11351
1533.13258,0.11787
1535.06105,0.12017
1536.98952,0.12195
1538.91799,0.12967
1540.84646,0.13697
1542.77493,0.13271
1544.70340,0.12868
1546.63186,0.12567
1548.56033,0.12343
1550.48880,0.12301
1552.41727,0.12592
1554.34574,0.13265
1556.27421,0.14097
1558.20268,0.14730
1560.13115,0.13975
1562.05961,0.13082
1563.98808,0.12566
1565.91655,0.12100
1567.84502,0.11992
1569.77349,0.12287
1571.70196,0.12250
1573.63043,0.12143
1575.55889,0.12472
1577.48736,0.12472
1579.41583,0.11945
1581.34430,0.11715
1583.27277,0.11733
1585.20124,0.11648
1587.12971,0.11557
1589.05818,0.11702
1590.98664,0.11924
1592.91511,0.11887
1594.84358,0.11647
1596.77205,0.11543
1598.70052,0.11677
1600.62899,0.11897
1602.55746,0.12082
1604.48592,0.12119
1606.41439,0.11971
1608.34286,0.11800
1610.27133,0.11675
1612.19980,0.11700
1614.12827,0.12140
1616.05674,0.12753
1617.98521,0.12562
1619.91367,0.12200
1621.84214,0.12401
1623.77061,0.12558
1625.69908,0.12530
1627.62755,0.12718
1629.55602,0.12702
1631.48449,0.12526
1633.41295,0.12709
1635.34142,0.13187
1637.26989,0.13048
1639.19836,0.12580
1641.12683,0.12312
1643.05530,0.12367
1644.98377,0.13003
1646.91223,0.13907
1648.84070,0.14027
1650.76917,0.14139
1652.69764,0.14711
1654.62611,0.13967
1656.55458,0.12888
1658.48305,0.12587
1660.41152,0.12747
1662.33998,0.12815
1664.26845,0.12532
1666.19692,0.12493
1668.12539,0.13044
1670.05386,0.13647
1671.98233,0.13565
1673.91080,0.13318
1675.83926,0.13052
1677.76773,0.12747
1679.69620,0.12753
1681.62467,0.13325
1683.55314,0.14144
1685.48161,0.13875
1687.41008,0.13266
1689.33855,0.13079
1691.26701,0.12953
1693.19548,0.12818
1695.12395,0.12856
1697.05242,0.13220
1698.98089,0.13781
1700.90936,0.13800
1702.83783,0.13452
1704.76629,0.13252
1706.69476,0.12692
1708.62323,0.12129
1710.55170,0.12176
1712.48017,0.12654
1714.40864,0.13188
1716.33711,0.13195
1718.26558,0.12391
1720.19404,0.11761
1722.12251,0.11587
1724.05098,0.11696
1725.97945,0.11970
1727.90792,0.12311
1729.83639,0.12659
1731.76486,0.13042
1733.69332,0.13263
1735.62179,0.12811
1737.55026,0.12408
1739.47873,0.12413
1741.40720,0.12467
1743.33567,0.12394
1745.26414,0.12437
1747.19261,0.12675
1749.12107,0.12971
1751.04954,0.12919
1752.97801,0.12396
1754.90648,0.11896
1756.83495,0.11700
1758.76342,0.11795
1760.69189,0.12105
1762.62035,0.12376
1764.54882,0.12359
1766.47729,0.12293
1768.40576,0.12427
1770.33423,0.12795
1772.26270,0.13014
1774.19117,0.12776
1776.11964,0.12506
1778.04810,0.12399
1779.97657,0.12244
1781.90504,0.11915
1783.83351,0.11754
1785.76198,0.11898
1787.69045,0.12176
1789.61892,0.12580
1791.54738,0.12938
1793.47585,0.12773
1795.40432,0.12360
1797.33279,0.12076
1799.26126,0.11924
1801.18973,0.11925
1803.11820,0.11958
1805.04666,0.11951
1806.97513,0.11937
1808.90360,0.11916
1810.83207,0.11890
1812.76054,0.11784
1814.68901,0.11534
1816.61748,0.11216
1818.54595,0.11212
1820.47441,0.11673
1822.40288,0.12149
1824.33135,0.12287
1826.25982,0.12175
1828.18829,0.12137
1830.11676,0.12203
1832.04523,0.12245
1833.97369,0.12324
1835.90216,0.12345
1837.83063,0.12030
1839.75910,0.11640
1841.68757,0.11725
1843.61604,0.12212
1845.54451,0.12474
1847.47298,0.12327
1849.40144,0.12068
1851.32991,0.11907
1853.25838,0.11841
1855.18685,0.11727
1857.11532,0.11607
1859.04379,0.11548
1860.97226,0.11457
1862.90072,0.11435
1864.82919,0.11692
1866.75766,0.12200
1868.68613,0.12517
1870.61460,0.12260
1872.54307,0.11972
1874.47154,0.11911
1876.40001,0.11897
1878.32847,0.12025
1880.25694,0.12316
1882.18541,0.12378
1884.11388,0.12165
1886.04235,0.12129
1887.97082,0.12310
1889.89929,0.12381
1891.82775,0.12342
1893.75622,0.12308
1895.68469,0.12173
1897.61316,0.12041
1899.54163,0.12129
1901.47010,0.12238
1903.39857,0.12156
1905.32704,0.12009
1907.25550,0.11939
1909.18397,0.11972
1911.11244,0.12059
1913.04091,0.12098
1914.96938,0.12113
1916.89785,0.12149
1918.82632,0.12088
1920.75478,0.12026
1922.68325,0.12068
1924.61172,0.12012
1926.54019,0.11881
1928.46866,0.11829
1930.39713,0.11750
1932.32560,0.11638
1934.25407,0.11753
1936.18253,0.12012
1938.11100,0.12143
1940.03947,0.12269
1941.96794,0.12389
1943.89641,0.12271
1945.82488,0.12064
1947.75335,0.11958
1949.68181,0.12013
1951.61028,0.12253
1953.53875,0.12426
1955.46722,0.12308
1957.39569,0.12046
1959.32416,0.11858
1961.25263,0.11899
1963.18110,0.12146
1965.10956,0.12289
1967.03803,0.12179
1968.96650,0.12068
1970.89497,0.12055
1972.82344,0.11942
1974.75191,0.11753
1976.68038,0.11655
1978.60884,0.11639
1980.53731,0.11646
1982.46578,0.11624
1984.39425,0.11613
1986.32272,0.11729
1988.25119,0.11889
1990.17966,0.11969
1992.10812,0.11941
1994.03659,0.11764
1995.96506,0.11599
1997.89353,0.11707
1999.82200,0.11900
2001.75047,0.11903
2003.67894,0.11952
2005.60741,0.12137
2007.53587,0.12303
2009.46434,0.12432
2011.39281,0.12404
2013.32128,0.12219
2015.24975,0.12140
2017.17822,0.12202
2019.10669,0.12241
2021.03515,0.12280
2022.96362,0.12261
2024.89209,0.12134
2026.82056,0.12034
2028.74903,0.11952
2030.67750,0.11910
2032.60597,0.11999
2034.53444,0.12180
2036.46290,0.12283
2038.39137,0.12186
2040.31984,0.12047
2042.24831,0.12027
2044.17678,0.12118
2046.10525,0.12270
2048.03372,0.12329
2049.96218,0.12110
2051.89065,0.11722
2053.81912,0.11645
2055.74759,0.12044
2057.67606,0.12332
2059.60453,0.12138
2061.53300,0.11944
2063.46147,0.12133
2065.38993,0.12398
2067.31840,0.12427
2069.24687,0.12383
2071.17534,0.12427
2073.10381,0.12427
2075.03228,0.12266
2076.96075,0.12117
2078.88921,0.12204
2080.81768,0.12320
2082.74615,0.12219
2084.67462,0.12121
2086.60309,0.12156
2088.53156,0.12131
2090.46003,0.12034
2092.38850,0.12051
2094.31696,0.12213
2096.24543,0.12317
2098.17390,0.12271
2100.10237,0.12168
2102.03084,0.12107
2103.95931,0.12168
2105.88778,0.12253
2107.81624,0.12234
2109.74471,0.12239
2111.67318,0.12279
2113.60165,0.12211
2115.53012,0.12046
2117.45859,0.11932
2119.38706,0.12045
2121.31553,0.12284
2123.24399,0.12283
2125.17246,0.12071
2127.10093,0.12022
2129.02940,0.12117
2130.95787,0.12080
2132.88634,0.12012
2134.81481,0.12034
2136.74327,0.12045
2138.67174,0.12080
2140.60021,0.12106
2142.52868,0.12016
2144.45715,0.11958
2146.38562,0.12074
2148.31409,0.12196
2150.24255,0.12196
2152.17102,0.12243
2154.09949,0.12302
2156.02796,0.12191
2157.95643,0.12166
2159.88490,0.12391
2161.81337,0.12599
2163.74184,0.12622
2165.67030,0.12523
2167.59877,0.12542
2169.52724,0.12640
2171.45571,0.12458
2173.38418,0.12092
2175.31265,0.11963
2177.24112,0.12060
2179.16958,0.12025
2181.09805,0.11861
2183.02652,0.11836
2184.95499,0.11905
2186.88346,0.11844
2188.81193,0.11616
2190.74040,0.11317
2192.66887,0.11161
2194.59733,0.11365
2196.52580,0.11724
2198.45427,0.11959
2200.38274,0.12072
2202.31121,0.12084
2204.23968,0.12057
2206.16815,0.12027
2208.09661,0.12064
2210.02508,0.12291
2211.95355,0.12536
2213.88202,0.12548
2215.81049,0.12422
2217.73896,0.12398
2219.66743,0.12497
2221.59590,0.12560
2223.52436,0.12536
2225.45283,0.12492
2227.38130,0.12398
2229.30977,0.12270
2231.23824,0.12214
2233.16671,0.12212
2235.09518,0.12205
2237.02364,0.12214
2238.95211,0.12269
2240.88058,0.12371
2242.80905,0.12442
2244.73752,0.12357
2246.66599,0.12156
2248.59446,0.11975
2250.52293,0.11931
2252.45139,0.12137
2254.37986,0.12477
2256.30833,0.12612
2258.23680,0.12392
2260.16527,0.12106
2262.09374,0.12045
2264.02221,0.12078
2265.95067,0.11993
2267.87914,0.11934
2269.80761,0.12066
2271.73608,0.12249
2273.66455,0.12313
2275.59302,0.12146
2277.52149,0.11902
2279.44996,0.11930
2281.37842,0.12098
2283.30689,0.12102
2285.23536,0.12028
2287.16383,0.11908
2289.09230,0.11748
2291.02077,0.11870
2292.94924,0.12230
2294.87770,0.12424
2296.80617,0.12407
2298.73464,0.12346
2300.66311,0.12220
2302.59158,0.11947
2304.52005,0.11834
2306.44852,0.12003
2308.37699,0.11985
2310.30545,0.11706
2312.23392,0.11551
2314.16239,0.11513
2316.09086,0.11345
2318.01933,0.11154
2319.94780,0.11266
2321.87627,0.11610
2323.80473,0.11754
2325.73320,0.11559
2327.66167,0.11234
2329.59014,0.11097
2331.51861,0.11261
2333.44708,0.11401
2335.37555,0.11565
2337.30401,0.11926
2339.23248,0.12117
2341.16095,0.11943
2343.08942,0.11610
2345.01789,0.11556
2346.94636,0.11786
2348.87483,0.11931
2350.80330,0.12034
2352.73176,0.12015
2354.66023,0.11587
2356.58870,0.11695
2358.51717,0.13351
2360.44564,0.14575
2362.37411,0.13827
2364.30258,0.12879
2366.23104,0.12706
2368.15951,0.12392
2370.08798,0.11779
2372.01645,0.11493
2373.94492,0.11568
2375.87339,0.11867
2377.80186,0.12351
2379.73033,0.12581
2381.65879,0.12442
2383.58726,0.12281
2385.51573,0.12254
2387.44420,0.12247
2389.37267,0.12081
2391.30114,0.11843
2393.22961,0.11750
2395.15807,0.11826
2397.08654,0.12030
2399.01501,0.12303
2400.94348,0.12486
2402.87195,0.12458
2404.80042,0.12344
2406.72889,0.12225
2408.65736,0.12062
2410.58582,0.12084
2412.51429,0.12316
2414.44276,0.12356
2416.37123,0.12202
2418.29970,0.12153
2420.22817,0.12182
2422.15664,0.12121
2424.08510,0.12027
2426.01357,0.12021
2427.94204,0.12000
2429.87051,0.11971
2431.79898,0.12144
2433.72745,0.12441
2435.65592,0.12578
2437.58439,0.12461
2439.51285,0.12239
2441.44132,0.12146
2443.36979,0.12202
2445.29826,0.12214
2447.22673,0.12120
2449.15520,0.12083
2451.08367,0.12182
2453.01213,0.12230
2454.94060,0.12167
2456.86907,0.12112
2458.79754,0.12072
2460.72601,0.12042
2462.65448,0.12028
2464.58295,0.12117
2466.51142,0.12338
2468.43988,0.12501
2470.36835,0.12487
2472.29682,0.12483
2474.22529,0.12620
2476.15376,0.12645
2478.08223,0.12486
2480.01070,0.12368
2481.93916,0.12352
2483.86763,0.12362
2485.79610,0.12315
2487.72457,0.12328
2489.65304,0.12562
2491.58151,0.12762
2493.50998,0.12710
2495.43844,0.12587
2497.36691,0.12450
2499.29538,0.12273
2501.22385,0.12158
2503.15232,0.12103
2505.08079,0.12057
2507.00926,0.12043
2508.93773,0.12055
2510.86619,0.12021
2512.79466,0.12017
2514.72313,0.12136
2516.65160,0.12264
2518.58007,0.12325
2520.50854,0.12418
2522.43701,0.12530
2524.36547,0.12450
2526.29394,0.12289
2528.22241,0.12410
2530.15088,0.12680
2532.07935,0.12697
2534.00782,0.12536
2535.93629,0.12457
2537.86476,0.12447
2539.79322,0.12488
2541.72169,0.12532
2543.65016,0.12521
2545.57863,0.12531
2547.50710,0.12536
2549.43557,0.12519
2551.36404,0.12548
2553.29250,0.12555
2555.22097,0.12427
2557.14944,0.12303
2559.07791,0.12430
2561.00638,0.12564
2562.93485,0.12409
2564.86332,0.12338
2566.79179,0.12546
2568.72025,0.12720
2570.64872,0.12755
2572.57719,0.12683
2574.50566,0.12555
2576.43413,0.12395
2578.36260,0.12308
2580.29107,0.12486
2582.21953,0.12693
2584.14800,0.12598
2586.07647,0.12436
2588.00494,0.12561
2589.93341,0.12809
2591.86188,0.12844
2593.79035,0.12707
2595.71882,0.12582
2597.64728,0.12481
2599.57575,0.12370
2601.50422,0.12354
2603.43269,0.12372
2605.36116,0.12212
2607.28963,0.12136
2609.21810,0.12366
2611.14656,0.12542
2613.07503,0.12643
2615.00350,0.12829
2616.93197,0.12824
2618.86044,0.12560
2620.78891,0.12353
2622.71738,0.12440
2624.64585,0.12678
2626.57431,0.12713
2628.50278,0.12524
2630.43125,0.12447
2632.35972,0.12600
2634.28819,0.12761
2636.21666,0.12872
2638.14513,0.13000
2640.07359,0.13019
2642.00206,0.12825
2643.93053,0.12668
2645.85900,0.12818
2647.78747,0.13050
2649.71594,0.13048
2651.64441,0.12913
2653.57288,0.12843
2655.50134,0.12782
2657.42981,0.12713
2659.35828,0.12706
2661.28675,0.12618
2663.21522,0.12412
2665.14369,0.12352
2667.07216,0.12466
2669.00062,0.12459
2670.92909,0.12275
2672.85756,0.12219
2674.78603,0.12373
2676.71450,0.12592
2678.64297,0.12927
2680.57144,0.13287
2682.49990,0.13349
2684.42837,0.13100
2686.35684,0.12960
2688.28531,0.13122
2690.21378,0.13247
2692.14225,0.13172
2694.07072,0.13082
2695.99919,0.13054
2697.92765,0.13086
2699.85612,0.13192
2701.78459,0.13205
2703.71306,0.13121
2705.64153,0.13185
2707.57000,0.13256
2709.49847,0.13180
2711.42693,0.13064
2713.35540,0.12928
2715.28387,0.12820
2717.21234,0.12764
2719.14081,0.12754
2721.06928,0.12827
2722.99775,0.12830
2724.92622,0.12706
2726.85468,0.12782
2728.78315,0.13137
2730.71162,0.13437
2732.64009,0.13449
2734.56856,0.13278
2736.49703,0.13150
2738.42550,0.12956
2740.35396,0.12727
2742.28243,0.12778
2744.21090,0.13027
2746.13937,0.13166
2748.06784,0.13078
2749.99631,0.12961
2751.92478,0.13094
2753.85325,0.13323
2755.78171,0.13391
2757.71018,0.13296
2759.63865,0.13127
2761.56712,0.13143
2763.49559,0.13332
2765.42406,0.13306
2767.35253,0.13071
2769.28099,0.13002
2771.20946,0.13112
2773.13793,0.13188
2775.06640,0.13218
2776.99487,0.13212
2778.92334,0.13385
2780.85181,0.13743
2782.78028,0.13830
2784.70874,0.13544
2786.63721,0.13114
2788.56568,0.12855
2790.49415,0.12932
2792.42262,0.13178
2794.35109,0.13438
2796.27956,0.13673
2798.20802,0.13643
2800.13649,0.13309
2802.06496,0.13225
2803.99343,0.13448
2805.92190,0.13641
2807.85037,0.13774
2809.77884,0.13648
2811.70731,0.13271
2813.63577,0.13134
2815.56424,0.13329
2817.49271,0.13422
2819.42118,0.13284
2821.34965,0.13182
2823.27812,0.13278
2825.20659,0.13472
2827.13505,0.13500
2829.06352,0.13384
2830.99199,0.13339
2832.92046,0.13389
2834.84893,0.13561
2836.77740,0.13797
2838.70587,0.13935
2840.63433,0.13837
2842.56280,0.13478
2844.49127,0.13198
2846.41974,0.13168
2848.34821,0.13127
2850.27668,0.13015
2852.20515,0.13030
2854.13362,0.13308
2856.06208,0.13639
2857.99055,0.13694
2859.91902,0.13564
2861.84749,0.13414
2863.77596,0.13225
2865.70443,0.13136
2867.63290,0.13219
2869.56136,0.13392
2871.48983,0.13755
2873.41830,0.14138
2875.34677,0.14213
2877.27524,0.14111
2879.20371,0.13974
2881.13218,0.13818
2883.06065,0.13691
2884.98911,0.13565
2886.91758,0.13430
2888.84605,0.13253
2890.77452,0.13174
2892.70299,0.13314
2894.63146,0.13334
2896.55993,0.13199
2898.48839,0.13223
2900.41686,0.13242
2902.34533,0.13140
2904.27380,0.13169
2906.20227,0.13237
2908.13074,0.13163
2910.05921,0.13140
2911.98768,0.13258
2913.91614,0.13409
2915.84461,0.13443
2917.77308,0.13318
2919.70155,0.13320
2921.63002,0.13502
2923.55849,0.13574
2925.48696,0.13519
2927.41542,0.13522
2929.34389,0.13534
2931.27236,0.13432
2933.20083,0.13299
2935.12930,0.13173
2937.05777,0.13072
2938.98624,0.13112
2940.91471,0.13323
2942.84317,0.13592
2944.77164,0.13634
2946.70011,0.13424
2948.62858,0.13421
2950.55705,0.13637
2952.48552,0.13710
2954.41399,0.13591
2956.34245,0.13247
2958.27092,0.12930
2960.19939,0.13138
2962.12786,0.13630
2964.05633,0.13799
2965.98480,0.13728
2967.91327,0.13747
2969.84174,0.13712
2971.77020,0.13566
2973.69867,0.13572
2975.62714,0.13614
2977.55561,0.13457
2979.48408,0.13269
2981.41255,0.13264
2983.34102,0.13496
2985.26948,0.13685
2987.19795,0.13583
2989.12642,0.13448
2991.05489,0.13434
2992.98336,0.13592
2994.91183,0.13794
2996.84030,0.13689
2998.76877,0.13476
3000.69723,0.13416
3002.62570,0.13518
3004.55417,0.13804
3006.48264,0.13955
3008.41111,0.13816
3010.33958,0.13713
3012.26805,0.13504
3014.19651,0.12762
3016.12498,0.11938
3018.05345,0.11843
3019.98192,0.12475
3021.91039,0.13297
3023.83886,0.13836
3025.76733,0.13867
3027.69579,0.13716
3029.62426,0.13787
3031.55273,0.13951
3033.48120,0.14172
3035.40967,0.14471
3037.33814,0.14393
3039.26661,0.13897
3041.19508,0.13565
3043.12354,0.13600
3045.05201,0.13736
3046.98048,0.13868
3048.90895,0.13982
3050.83742,0.13909
3052.76589,0.13807
3054.69436,0.13983
3056.62282,0.14120
3058.55129,0.13981
3060.47976,0.14062
3062.40823,0.14476
3064.33670,0.14715
3066.26517,0.14630
3068.19364,0.14457
3070.12211,0.14329
3072.05057,0.14251
3073.97904,0.14182
3075.90751,0.14034
3077.83598,0.13867
3079.76445,0.13786
3081.69292,0.13781
3083.62139,0.13752
3085.54985,0.13668
3087.47832,0.13790
3089.40679,0.14054
3091.33526,0.13986
3093.26373,0.13608
3095.19220,0.13475
3097.12067,0.13718
3099.04914,0.13979
3100.97760,0.14049
3102.90607,0.13935
3104.83454,0.13847
3106.76301,0.13812
3108.69148,0.13720
3110.61995,0.13673
3112.54842,0.13740
3114.47688,0.13987
3116.40535,0.14192
3118.33382,0.13976
3120.26229,0.13591
3122.19076,0.13458
3124.11923,0.13533
3126.04770,0.13701
3127.97617,0.13895
3129.90463,0.14000
3131.83310,0.14038
3133.76157,0.14130
3135.69004,0.14312
3137.61851,0.14406
3139.54698,0.14269
3141.47545,0.14077
3143.40391,0.14028
3145.33238,0.13888
3147.26085,0.13574
3149.18932,0.13615
3151.11779,0.13912
3153.04626,0.13830
3154.97473,0.13494
3156.90320,0.13454
3158.83166,0.13733
3160.76013,0.13782
3162.68860,0.13595
3164.61707,0.13731
3166.54554,0.14051
3168.47401,0.14153
3170.40248,0.14112
3172.33094,0.14164
3174.25941,0.14608
3176.18788,0.15194
3178.11635,0.15247
3180.04482,0.14945
3181.97329,0.14868
3183.90176,0.14893
3185.83022,0.14819
3187.75869,0.14698
3189.68716,0.14381
3191.61563,0.13934
3193.54410,0.13646
3195.47257,0.13655
3197.40104,0.14005
3199.32951,0.14305
3201.25797,0.14329
3203.18644,0.14393
3205.11491,0.14400
3207.04338,0.14099
3208.97185,0.13773
3210.90032,0.13723
3212.82879,0.13718
3214.75725,0.13617
3216.68572,0.13785
3218.61419,0.14109
3220.54266,0.14178
3222.47113,0.14226
3224.39960,0.14317
3226.32807,0.14201
3228.25654,0.14073
3230.18500,0.13961
3232.11347,0.13786
3234.04194,0.13869
3235.97041,0.14048
3237.89888,0.13901
3239.82735,0.13676
3241.75582,0.13690
3243.68428,0.13829
3245.61275,0.13835
3247.54122,0.13639
3249.46969,0.13360
3251.39816,0.13201
3253.32663,0.13353
3255.25510,0.13748
3257.18357,0.14070
3259.11203,0.13977
3261.04050,0.13666
3262.96897,0.13641
3264.89744,0.13764
3266.82591,0.13767
3268.75438,0.13708
3270.68285,0.13627
3272.61131,0.13636
3274.53978,0.13887
3276.46825,0.14130
3278.39672,0.13920
3280.32519,0.13459
3282.25366,0.13347
3284.18213,0.13566
3286.11060,0.13521
3288.03906,0.13229
3289.96753,0.13270
3291.89600,0.13582
3293.82447,0.13778
3295.75294,0.13858
3297.68141,0.13938
3299.60988,0.13943
3301.53834,0.13856
3303.46681,0.13825
3305.39528,0.13801
3307.32375,0.13762
3309.25222,0.13768
3311.18069,0.13709
3313.10916,0.13805
3315.03763,0.14305
3316.96609,0.14885
3318.89456,0.15088
3320.82303,0.14776
3322.75150,0.14311
3324.67997,0.14017
3326.60844,0.13729
3328.53691,0.13470
3330.46537,0.13400
3332.39384,0.13407
3334.32231,0.13614
3336.25078,0.14135
3338.17925,0.14466
3340.10772,0.14246
3342.03619,0.14005
3343.96466,0.14227
3345.89312,0.14324
3347.82159,0.13971
3349.75006,0.13937
3351.67853,0.14221
3353.60700,0.14281
3355.53547,0.14389
3357.46394,0.14498
3359.39240,0.14242
3361.32087,0.14024
3363.24934,0.14318
3365.17781,0.14691
3367.10628,0.14622
3369.03475,0.14420
3370.96322,0.14368
3372.89168,0.14337
3374.82015,0.14368
3376.74862,0.14418
3378.67709,0.14298
3380.60556,0.14082
3382.53403,0.13833
3384.46250,0.13518
3386.39097,0.13318
3388.31943,0.13535
3390.24790,0.14300
3392.17637,0.15058
3394.10484,0.14951
3396.03331,0.14195
3397.96178,0.13795
3399.89025,0.14009
3401.81871,0.14188
3403.74718,0.13982
3405.67565,0.13844
3407.60412,0.14189
3409.53259,0.14520
3411.46106,0.14193
3413.38953,0.13568
3415.31800,0.13420
3417.24646,0.13732
3419.17493,0.13935
3421.10340,0.14010
3423.03187,0.14016
3424.96034,0.13859
3426.88881,0.13800
3428.81728,0.13826
3430.74574,0.13767
3432.67421,0.13561
3434.60268,0.13322
3436.53115,0.13445
3438.45962,0.13762
3440.38809,0.13907
3442.31656,0.13911
3444.24503,0.13575
3446.17349,0.12875
3448.10196,0.12515
3450.03043,0.12759
3451.95890,0.12835
3453.88737,0.12368
3455.81584,0.12042
3457.74431,0.12315
3459.67277,0.12746
3461.60124,0.12789
3463.52971,0.12490
3465.45818,0.12460
3467.38665,0.12795
3469.31512,0.13082
3471.24359,0.13287
3473.17206,0.13323
3475.10052,0.13072
3477.02899,0.12792
3478.95746,0.12786
3480.88593,0.12919
3482.81440,0.12810
3484.74287,0.12825
3486.67134,0.13258
3488.59980,0.13310
3490.52827,0.12563
3492.45674,0.11875
3494.38521,0.11736
3496.31368,0.11822
3498.24215,0.12039
3500.17062,0.12230
3502.09909,0.12142
3504.02755,0.12039
3505.95602,0.12202
3507.88449,0.12439
3509.81296,0.12429
3511.74143,0.12150
3513.66990,0.11790
3515.59837,0.11481
3517.52683,0.11507
3519.45530,0.11967
3521.38377,0.12236
3523.31224,0.11963
3525.24071,0.11913
3527.16918,0.12199
3529.09765,0.11998
3531.02611,0.11611
3532.95458,0.11595
3534.88305,0.11698
3536.81152,0.11865
3538.73999,0.12033
3540.66846,0.11940
3542.59693,0.11873
3544.52540,0.11991
3546.45386,0.11749
3548.38233,0.11083
3550.31080,0.10722
3552.23927,0.10908
3554.16774,0.11151
3556.09621,0.11106
3558.02468,0.11017
3559.95314,0.11128
3561.88161,0.11208
3563.81008,0.11005
3565.73855,0.10753
3567.66702,0.10821
3569.59549,0.11046
3571.52396,0.11013
3573.45243,0.10638
3575.38089,0.10210
3577.30936,0.10167
3579.23783,0.10503
3581.16630,0.10657
3583.09477,0.10529
3585.02324,0.10843
3586.95171,0.11399
3588.88017,0.11084
3590.80864,0.10641
3592.73711,0.10469
3594.66558,0.10081
3596.59405,0.09919
3598.52252,0.10310
3600.45099,0.10551
3602.37946,0.10454
3604.30792,0.10477
3606.23639,0.10499
3608.16486,0.10204
3610.09333,0.10083
3612.02180,0.10520
3613.95027,0.10845
3615.87874,0.10750
3617.80720,0.10710
3619.73567,0.10390
3621.66414,0.09753
3623.59261,0.09571
3625.52108,0.09768
3627.44955,0.10089
3629.37802,0.10151
3631.30649,0.09605
3633.23495,0.09063
3635.16342,0.08928
3637.09189,0.09206
3639.02036,0.09425
3640.94883,0.09188
3642.87730,0.08788
3644.80577,0.08762
3646.73423,0.09294
3648.66270,0.10153
3650.59117,0.10137
3652.51964,0.09356
3654.44811,0.08788
3656.37658,0.08477
3658.30505,0.08471
3660.23352,0.08879
3662.16198,0.09330
3664.09045,0.09379
3666.01892,0.09154
3667.94739,0.08991
3669.87586,0.08930
3671.80433,0.08930
3673.73280,0.08820
3675.66126,0.08394
3677.58973,0.08403
3679.51820,0.08885
3681.44667,0.09132
3683.37514,0.09144
3685.30361,0.09213
3687.23208,0.09303
3689.16055,0.09346
3691.08901,0.09195
3693.01748,0.08767
3694.94595,0.08362
3696.87442,0.08236
3698.80289,0.08530
3700.73136,0.08955
3702.65983,0.08986
3704.58829,0.08686
3706.51676,0.08396
3708.44523,0.08356
3710.37370,0.08543
3712.30217,0.08427
3714.23064,0.08164
3716.15911,0.08263
3718.08757,0.08707
3720.01604,0.09108
3721.94451,0.09307
3723.87298,0.09352
3725.80145,0.09085
3727.72992,0.08936
3729.65839,0.09261
3731.58686,0.09824
3733.51532,0.10317
3735.44379,0.10223
3737.37226,0.09523
3739.30073,0.09032
3741.22920,0.09012
3743.15767,0.09254
3745.08614,0.09175
3747.01460,0.08836
3748.94307,0.08982
3750.87154,0.09270
3752.80001,0.09007
3754.72848,0.08645
3756.65695,0.08310
3758.58542,0.08131
3760.51389,0.08151
3762.44235,0.08007
3764.37082,0.07886
3766.29929,0.08031
3768.22776,0.08075
3770.15623,0.07892
3772.08470,0.07929
3774.01317,0.08218
3775.94163,0.08460
3777.87010,0.08490
3779.79857,0.08396
3781.72704,0.08476
3783.65551,0.08750
3785.58398,0.08854
3787.51245,0.08591
3789.44092,0.08352
3791.36938,0.08343
3793.29785,0.08425
3795.22632,0.08642
3797.15479,0.08845
3799.08326,0.08593
3801.01173,0.08078
3802.94020,0.08125
3804.86866,0.08745
3806.79713,0.09102
3808.72560,0.08676
3810.65407,0.08199
3812.58254,0.08204
3814.51101,0.08506
3816.43948,0.08708
3818.36795,0.08944
3820.29641,0.09255
3822.22488,0.08815
3824.15335,0.08240
3826.08182,0.08233
3828.01029,0.08475
3829.93876,0.08655
3831.86723,0.08696
3833.79569,0.08536
3835.72416,0.08271
3837.65263,0.08431
3839.58110,0.09075
3841.50957,0.09119
3843.43804,0.08593
3845.36651,0.08229
3847.29498,0.08171
3849.22344,0.08209
3851.15191,0.08425
3853.08038,0.09160
3855.00885,0.09160
3856.93732,0.08258
3858.86579,0.07704
3860.79426,0.07688
3862.72272,0.08067
3864.65119,0.08611
3866.57966,0.09028
3868.50813,0.09457
3870.43660,0.09703
3872.36507,0.09329
3874.29354,0.08988
3876.22200,0.08865
3878.15047,0.08535
3880.07894,0.07927
3882.00741,0.07294
3883.93588,0.06960
3885.86435,0.07267
3887.79282,0.07862
3889.72129,0.08146
3891.64975,0.08180
3893.57822,0.07831
3895.50669,0.07347
3897.43516,0.07293
3899.36363,0.07903
3901.29210,0.08756
3903.22057,0.09049
3905.14903,0.08520
3907.07750,0.07735
3909.00597,0.07308
3910.93444,0.07363
3912.86291,0.07596
3914.79138,0.07721
3916.71985,0.07731
3918.64832,0.07683
3920.57678,0.07528
3922.50525,0.07254
3924.43372,0.06930
3926.36219,0.06766
3928.29066,0.07032
3930.21913,0.07424
3932.14760,0.07515
3934.07606,0.07632
3936.00453,0.07855
3937.93300,0.07803
3939.86147,0.07581
3941.78994,0.07391
3943.71841,0.07291
3945.64688,0.07517
3947.57535,0.07857
3949.50381,0.07826
3951.43228,0.07526
3953.36075,0.07413
3955.28922,0.07558
3957.21769,0.07573
3959.14616,0.07369
3961.07463,0.07293
3963.00309,0.07269
3964.93156,0.07107
3966.86003,0.06946
3968.78850,0.06826
3970.71697,0.06810
3972.64544,0.06985
3974.57391,0.07071
3976.50238,0.06908
3978.43084,0.06813
3980.35931,0.07023
3982.28778,0.07215
3984.21625,0.06859
3986.14472,0.06317
3988.07319,0.06310
3990.00166,0.06611
3991.93012,0.06847
3993.85859,0.07197
3995.78706,0.07588
3997.71553,0.07725
3999.64400,0.07561
4001.57247,0.07336
4003.50094,0.07240
4005.42941,0.06963
4007.35787,0.06560
4009.28634,0.06470
4011.21481,0.06589
4013.14328,0.06707
4015.07175,0.06678
4017.00022,0.06602
4018.92869,0.06746
4020.85715,0.06924
4022.78562,0.06985
4024.71409,0.06948
4026.64256,0.06831
4028.57103,0.06679
4030.49950,0.06416
4032.42797,0.06155
4034.35644,0.06151
4036.28490,0.06535
4038.21337,0.07184
4040.14184,0.07514
4042.07031,0.07174
4043.99878,0.06629
4045.92725,0.06424
4047.85572,0.06425
4049.78418,0.06333
4051.71265,0.06290
4053.64112,0.06436
4055.56959,0.06548
4057.49806,0.06414
4059.42653,0.06330
4061.35500,0.06648
4063.28346,0.06928
4065.21193,0.06803
4067.14040,0.06734
4069.06887,0.06898
4070.99734,0.06890
4072.92581,0.06663
4074.85428,0.06565
4076.78275,0.06556
4078.71121,0.06422
4080.63968,0.06299
4082.56815,0.06172
4084.49662,0.05955
4086.42509,0.05817
4088.35356,0.05824
4090.28203,0.05826
4092.21049,0.05884
4094.13896,0.06203
4096.06743,0.06489
4097.99590,0.06561
4099.92437,0.06463
4101.85284,0.05813
4103.78131,0.04931
4105.70978,0.04690
4107.63824,0.05031
4109.56671,0.05425
4111.49518,0.05788
4113.42365,0.06132
4115.35212,0.06369
4117.28059,0.06391
4119.20906,0.05988
4121.13752,0.05381
4123.06599,0.04999
4124.99446,0.04931
4126.92293,0.05180
4128.85140,0.05454
4130.77987,0.05412
4132.70834,0.05173
4134.63681,0.05066
4136.56527,0.05183
4138.49374,0.05356
4140.42221,0.05512
4142.35068,0.05460
4144.27915,0.05148
4146.20762,0.05042
4148.13609,0.05195
4150.06455,0.05253
4151.99302,0.05157
4153.92149,0.04968
4155.84996,0.04931
4157.77843,0.05260
4159.70690,0.05672
4161.63537,0.05769
4163.56384,0.05556
4165.49230,0.05261
4167.42077,0.05003
4169.34924,0.04863
4171.27771,0.04888
4173.20618,0.04928
4175.13465,0.05000
4177.06312,0.05423
4178.99158,0.05852
4180.92005,0.05732
4182.84852,0.05433
4184.77699,0.05321
4186.70546,0.05255
4188.63393,0.05048
4190.56240,0.04736
4192.49087,0.04650
4194.41933,0.04888
4196.34780,0.05262
4198.27627,0.05533
4200.20474,0.05428
4202.13321,0.05054
4204.06168,0.04742
4205.99015,0.04638
4207.91861,0.04816
4209.84708,0.05023
4211.77555,0.05001
4213.70402,0.05019
4215.63249,0.04985
4217.56096,0.04590
4219.48943,0.04381
4221.41789,0.04695
4223.34636,0.05056
4225.27483,0.05319
4227.20330,0.05391
4229.13177,0.04988
4231.06024,0.04453
4232.98871,0.04243
4234.91718,0.04371
4236.84564,0.04705
4238.77411,0.05020
4240.70258,0.04969
4242.63105,0.04480
4244.55952,0.04048
4246.48799,0.04169
4248.41646,0.04662
4250.34492,0.04818
4252.27339,0.04402
4254.20186,0.03927
4256.13033,0.03720
4258.05880,0.03811
4259.98727,0.04262
4261.91574,0.04627
4263.84421,0.04643
4265.77267,0.04802
4267.70114,0.04861
4269.62961,0.04510
4271.55808,0.04365
4273.48655,0.04234
4275.41502,0.03677
4277.34349,0.03569
4279.27195,0.04257
4281.20042,0.04588
4283.12889,0.04213
4285.05736,0.03836
4286.98583,0.03622
4288.91430,0.03639
4290.84277,0.03796
4292.77124,0.03701
4294.69970,0.03406
4296.62817,0.03041
4298.55664,0.02721
4300.48511,0.02795
4302.41358,0.03344
4304.34205,0.03873
4306.27052,0.03899
4308.19898,0.03619
4310.12745,0.03552
4312.05592,0.03718
4313.98439,0.03910
4315.91286,0.04258
4317.84133,0.04490
4319.76980,0.04111
4321.69827,0.03463
4323.62673,0.03092
4325.55520,0.03060
4327.48367,0.03108
4329.41214,0.03166
4331.34061,0.03478
4333.26908,0.03880
4335.19755,0.03857
4337.12601,0.03397
4339.05448,0.02989
4340.98295,0.02892
4342.91142,0.02925
4344.83989,0.02871
4346.76836,0.02806
4348.69683,0.02815
4350.62530,0.02792
4352.55376,0.02910
4354.48223,0.03065
4356.41070,0.02656
4358.33917,0.01976
4360.26764,0.01646
4362.19611,0.01587
4364.12458,0.01721
4366.05304,0.02119
4367.98151,0.02816
4369.90998,0.03499
4371.83845,0.03582
4373.76692,0.03272
4375.69539,0.03293
4377.62386,0.03412
4379.55232,0.03248
4381.48079,0.03365
4383.40926,0.03586
4385.33773,0.03222
4387.26620,0.02777
4389.19467,0.02772
4391.12314,0.02801
4393.05161,0.02575
4394.98007,0.02591
4396.90854,0.02972
4398.83701,0.03148
4400.76548,0.03065
4402.69395,0.02913
4404.62242,0.02592
4406.55089,0.02280
4408.47935,0.02556
4410.40782,0.03242
4412.33629,0.03370
4414.26476,0.02986
4416.19323,0.02683
4418.12170,0.02343
4420.05017,0.01973
4421.97864,0.01933
4423.90710,0.02067
4425.83557,0.02076
4427.76404,0.02114
4429.69251,0.02273
4431.62098,0.02464
4433.54945,0.02535
4435.47792,0.02544
4437.40638,0.02898
4439.33485,0.03231
4441.26332,0.02904
4443.19179,0.02314
4445.12026,0.01971
4447.04873,0.01976
4448.97720,0.02123
4450.90567,0.01957
4452.83413,0.01599
4454.76260,0.01374
4456.69107,0.01132
4458.61954,0.00829
4460.54801,0.00773
4462.47648,0.01005
4464.40495,0.00998
4466.33341,0.00931
4468.26188,0.01242
4470.19035,0.01220
4472.11882,0.00994
4474.04729,0.01337
4475.97576,0.01496
4477.90423,0.01041
4479.83270,0.00866
4481.76116,0.01223
4483.68963,0.01455
4485.61810,0.01492
4487.54657,0.01626
4489.47504,0.01674
4491.40351,0.01400
4493.33198,0.00947
4495.26044,0.00775
4497.18891,0.00809
4499.11738,0.00793
4501.04585,0.00933
4502.97432,0.01181
4504.90279,0.01241
4506.83126,0.01085
4508.75973,0.01047
4510.68819,0.01239
4512.61666,0.01411
4514.54513,0.01505
4516.47360,0.01536
4518.40207,0.01415
4520.33054,0.01209
4522.25901,0.01333
4524.18747,0.01713
4526.11594,0.01673
4528.04441,0.01337
4529.97288,0.01242
4531.90135,0.01597
4533.82982,0.02211
4535.75829,0.02171
4537.68676,0.01420
4539.61522,0.01081
4541.54369,0.01192
4543.47216,0.01120
4545.40063,0.00955
4547.32910,0.00939
4549.25757,0.01141
4551.18604,0.01503
4553.11450,0.01387
4555.04297,0.00500
4556.97144,-0.00257
4558.89991,-0.00257
4560.82838,-0.00094
4562.75685,-0.00383
4564.68532,-0.00495
4566.61378,0.00106
4568.54225,0.00642
4570.47072,0.00535
4572.39919,0.00104
4574.32766,0.00021
4576.25613,0.00510
4578.18460,0.01139
4580.11307,0.01456
4582.04153,0.01312
4583.97000,0.01119
4585.89847,0.01108
4587.82694,0.00838
4589.75541,0.00553
4591.68388,0.00642
4593.61235,0.00693
4595.54081,0.00882
4597.46928,0.01502
4599.39775,0.01837
4601.32622,0.01284
4603.25469,0.00486
4605.18316,0.00452
4607.11163,0.00779
4609.04010,0.00848
4610.96856,0.00992
4612.89703,0.01111
4614.82550,0.00762
4616.75397,0.00364
4618.68244,0.00352
4620.61091,0.00149
4622.53938,-0.00316
4624.46784,-0.00362
4626.39631,-0.00026
4628.32478,0.00213
4630.25325,0.00156
4632.18172,0.00005
4634.11019,0.00077
4636.03866,0.00171
4637.96713,0.00037
4639.89559,0.00107
4641.82406,0.00544
4643.75253,0.00606
4645.68100,0.00119
4647.60947,-0.00184
4649.53794,-0.00095
4651.46641,-0.00247
4653.39487,-0.00677
4655.32334,-0.00479
4657.25181,0.00181
4659.18028,0.00572
4661.10875,0.00924
4663.03722,0.01439
4664.96569,0.01848
4666.89416,0.01730
4668.82262,0.01273
4670.75109,0.00891
4672.67956,0.00165
4674.60803,-0.00574
4676.53650,-0.00384
4678.46497,0.00416
4680.39344,0.00971
4682.32190,0.01057
4684.25037,0.01237
4686.17884,0.01612
4688.10731,0.01242
4690.03578,0.00096
4691.96425,-0.00999
4693.89272,-0.01522
4695.82119,-0.01143
4697.74965,-0.00365
4699.67812,0.00325
4701.60659,0.00672
4703.53506,0.00283
4705.46353,-0.00657
4707.39200,-0.01481
4709.32047,-0.01284
4711.24893,-0.00301
4713.17740,-0.00141
4715.10587,-0.00553
4717.03434,-0.00138
4718.96281,0.00830
4720.89128,0.01215
4722.81975,0.00577
4724.74821,-0.00152
4726.67668,-0.00039
4728.60515,0.00340
4730.53362,0.00211
4732.46209,-0.00152
4734.39056,-0.00170
4736.31903,0.00284
4738.24750,0.00577
4740.17596,0.00428
4742.10443,0.00423
4744.03290,0.00657
4745.96137,0.00649
4747.88984,0.00319
4749.81831,0.00176
4751.74678,0.00135
4753.67524,-0.00242
4755.60371,-0.00585
4757.53218,-0.00635
4759.46065,-0.00546
4761.38912,-0.00121
4763.31759,0.00458
4765.24606,0.00870
4767.17453,0.01402
4769.10299,0.01491
4771.03146,0.00928
4772.95993,0.01073
4774.88840,0.01875
4776.81687,0.02004
4778.74534,0.01001
4780.67381,-0.00277
4782.60227,-0.00439
4784.53074,0.00339
4786.45921,0.00923
4788.38768,0.01265
4790.31615,0.01869
4792.24462,0.02135
4794.17309,0.01202
4796.10156,-0.00222
4798.03002,-0.00944
4799.95849,-0.00730
4801.88696,-0.00229
4803.81543,-0.00232
4805.74390,-0.00601
4807.67237,-0.00678
4809.60084,-0.00139
4811.52930,0.00614
4813.45777,0.00879
4815.38624,0.00720
4817.31471,0.00577
4819.24318,0.00572
4821.17165,0.00258
4823.10012,-0.00692
4825.02859,-0.01500
4826.95705,-0.01478
4828.88552,-0.00743
4830.81399,0.00100
4832.74246,0.00042
4834.67093,-0.00573
4836.59940,-0.00284
4838.52787,0.00283
4840.45633,-0.00032
4842.38480,-0.00159
4844.31327,0.00253
4846.24174,0.00107
4848.17021,-0.00223
4850.09868,-0.00072
4852.02715,0.00136
4853.95562,0.00260
4855.88408,0.00008
4857.81255,-0.00762
4859.74102,-0.01049
4861.66949,-0.00469
4863.59796,0.00422
4865.52643,0.00927
4867.45490,0.00421
4869.38336,-0.00054
4871.31183,0.00675
4873.24030,0.01175
4875.16877,0.00357
4877.09724,-0.00327
4879.02571,-0.00125
4880.95418,0.00288
4882.88265,0.00392
4884.81111,0.00394
4886.73958,0.00699
4888.66805,0.00746
4890.59652,0.00501
4892.52499,0.00568
4894.45346,0.00267
4896.38193,-0.00212
4898.31039,0.00196
4900.23886,0.00661
4902.16733,0.00220
4904.09580,-0.00849
4906.02427,-0.01939
4907.95274,-0.01974
4909.88121,-0.00629
4911.80967,0.00874
4913.73814,0.01299
4915.66661,0.00835
4917.59508,0.00697
4919.52355,0.01109
4921.45202,0.01478
4923.38049,0.01877
4925.30896,0.02360
4927.23742,0.02312
4929.16589,0.01514
4931.09436,0.00868
4933.02283,0.00935
4934.95130,0.01112
4936.87977,0.01015
4938.80824,0.01225
4940.73670,0.01756
4942.66517,0.01540
4944.59364,0.01074
4946.52211,0.01273
4948.45058,0.01184
4950.37905,0.00808
4952.30752,0.00863
4954.23599,0.01106
4956.16445,0.01336
4958.09292,0.01364
4960.02139,0.01174
4961.94986,0.00862
4963.87833,0.00662
4965.80680,0.00694
4967.73527,0.00644
4969.66373,0.00473
4971.59220,-0.00194
4973.52067,-0.01025
4975.44914,-0.00726
4977.37761,0.00188
4979.30608,0.00521
4981.23455,0.00961
4983.16302,0.01858
4985.09148,0.02057
4987.01995,0.01450
4988.94842,0.00588
4990.87689,0.00306
4992.80536,0.01527
4994.73383,0.03137
4996.66230,0.03518
4998.59076,0.02863
5000.51923,0.02101
5002.44770,0.01363
5004.37617,0.00936
5006.30464,0.01045
5008.23311,0.00575
5010.16158,-0.00187
5012.09005,0.00028
5014.01851,0.00722
5015.94698,0.01393
5017.87545,0.01797
5019.80392,0.01182
5021.73239,-0.00103
5023.66086,-0.00318
5025.58933,0.00915
5027.51779,0.01709
5029.44626,0.01388
5031.37473,0.00611
5033.30320,-0.00289
5035.23167,-0.00508
5037.16014,-0.00160
5039.08861,0.00156
5041.01708,0.00901
5042.94554,0.01912
5044.87401,0.02180
5046.80248,0.01384
5048.73095,0.00485
5050.65942,-0.00224
5052.58789,-0.01218
5054.51636,-0.01541
5056.44482,-0.00710
5058.37329,0.00472
5060.30176,0.01345
5062.23023,0.01634
5064.15870,0.01638
5066.08717,0.01129
5068.01564,0.00614
5069.94410,0.01279
5071.87257,0.02150
5073.80104,0.02861
5075.72951,0.04072
5077.65798,0.04289
5079.58645,0.02826
5081.51492,0.01748
5083.44339,0.02267
5085.37185,0.02905
5087.30032,0.02397
5089.22879,0.01512
5091.15726,0.00699
5093.08573,0.00058
5095.01420,0.00311
5096.94267,0.01075
5098.87113,0.00915
5100.79960,-0.00235
5102.72807,-0.00972
5104.65654,-0.01058
5106.58501,-0.01152
5108.51348,-0.01600
5110.44195,-0.02496
5112.37042,-0.02477
5114.29888,-0.00415
5116.22735,0.01703
5118.15582,0.02015
5120.08429,0.01915
5122.01276,0.02692
5123.94123,0.03470
5125.86970,0.03184
5127.79816,0.02119
5129.72663,0.02105
5131.65510,0.03217
5133.58357,0.03223
5135.51204,0.01748
5137.44051,0.00543
5139.36898,0.00598
5141.29745,0.01576
5143.22591,0.03005
5145.15438,0.04271
5147.08285,0.04349
5149.01132,0.03418
5150.93979,0.03108
5152.86826,0.03520
5154.79673,0.03101
5156.72519,0.01868
5158.65366,0.01420
5160.58213,0.02288
5162.51060,0.02913
5164.43907,0.02092
5166.36754,0.01321
5168.29601,0.01469
5170.22448,0.01239
5172.15294,0.00755
5174.08141,0.01421
5176.00988,0.02490
5177.93835,0.02611
5179.86682,0.02211
5181.79529,0.01848
5183.72376,0.01391
5185.65222,0.01174
5187.58069,0.01246
5189.50916,0.00965
5191.43763,0.01007
5193.36610,0.01890
5195.29457,0.02172
5197.22304,0.01640
5199.15151,0.01894
5201.07997,0.03094
5203.00844,0.03388
5204.93691,0.01401
5206.86538,-0.00871
5208.79385,-0.00668
5210.72232,0.00785
5212.65079,0.02063
5214.57925,0.03119
5216.50772,0.03818
5218.43619,0.03707
5220.36466,0.03058
5222.29313,0.02910
5224.22160,0.03284
5226.15007,0.03182
5228.07854,0.02785
5230.00700,0.03212
5231.93547,0.04177
5233.86394,0.05290
5235.79241,0.05934
5237.72088,0.05009
5239.64935,0.03849
5241.57782,0.04864
5243.50628,0.07514
5245.43475,0.07916
5247.36322,0.04486
5249.29169,0.00681
5251.22016,-0.00458
5253.14863,0.00183
5255.07710,0.01291
5257.00556,0.02867
5258.93403,0.04555
5260.86250,0.05554
5262.79097,0.06020
5264.71944,0.06356
5266.64791,0.06013
5268.57638,0.04961
5270.50485,0.03846
5272.43331,0.03494
5274.36178,0.03969
5276.29025,0.03595
5278.21872,0.02410
5280.14719,0.02254
5282.07566,0.03126
5284.00413,0.03848
5285.93259,0.03452
5287.86106,0.03417
5289.78953,0.05232
5291.71800,0.06422
5293.64647,0.05404
5295.57494,0.03600
5297.50341,0.02101
5299.43188,0.01898
5301.36034,0.02712
5303.28881,0.03114
5305.21728,0.03517
5307.14575,0.04119
5309.07422,0.04012
5311.00269,0.04285
5312.93116,0.05319
5314.85962,0.05752
5316.78809,0.05259
5318.71656,0.04795
5320.64503,0.05289
5322.57350,0.05622
5324.50197,0.04082
5326.43044,0.01876
5328.35891,0.01454
5330.28737,0.02861
5332.21584,0.04244
5334.14431,0.04273
5336.07278,0.03505
5338.00125,0.03120
5339.92972,0.02888
5341.85819,0.02089
5343.78665,0.01558
5345.71512,0.01618
5347.64359,0.01710
5349.57206,0.02485
5351.50053,0.03381
5353.42900,0.03700
5355.35747,0.03845
5357.28594,0.03643
5359.21440,0.03912
5361.14287,0.05210
5363.07134,0.06762
5364.99981,0.07603
5366.92828,0.06424
5368.85675,0.03979
5370.78522,0.02559
5372.71368,0.02425
5374.64215,0.02590
5376.57062,0.02174
5378.49909,0.01600
5380.42756,0.02325
5382.35603,0.03768
5384.28450,0.04325
5386.21297,0.03109
5388.14143,0.01178
5390.06990,0.00874
5391.99837,0.03003
5393.92684,0.05712
5395.85531,0.05701
5397.78378,0.03423
5399.71225,0.02374
5401.64071,0.04217
5403.56918,0.06813
5405.49765,0.07001
5407.42612,0.05514
5409.35459,0.04384
5411.28306,0.03856
5413.21153,0.04158
5415.13999,0.04509
5417.06846,0.04270
5418.99693,0.04675
5420.92540,0.05686
5422.85387,0.05556
5424.78234,0.04992
5426.71081,0.05798
5428.63928,0.06800
5430.56774,0.06151
5432.49621,0.04697
5434.42468,0.04264
5436.35315,0.04391
5438.28162,0.03358
5440.21009,0.02319
5442.13856,0.02981
5444.06702,0.04851
5445.99549,0.06602
5447.92396,0.06977
5449.85243,0.06504
5451.78090,0.06594
5453.70937,0.06922
5455.63784,0.06739
5457.56631,0.05695
5459.49477,0.04564
5461.42324,0.04754
5463.35171,0.05422
5465.28018,0.05288
5467.20865,0.05508
5469.13712,0.06889
5471.06559,0.07428
5472.99405,0.06668
5474.92252,0.06936
5476.85099,0.07252
5478.77946,0.05339
5480.70793,0.02878
5482.63640,0.01897
5484.56487,0.03699
5486.49334,0.07330
5488.42180,0.08663
5490.35027,0.06906
5492.27874,0.04813
5494.20721,0.03494
5496.13568,0.03767
5498.06415,0.04596
5499.99262,0.04392
5501.92108,0.05290
5503.84955,0.07729
5505.77802,0.08629
5507.70649,0.07496
5509.63496,0.06366
5511.56343,0.05997
5513.49190,0.05567
5515.42037,0.04198
5517.34883,0.02946
5519.27730,0.03205
5521.20577,0.04101
5523.13424,0.04105
5525.06271,0.03364
5526.99118,0.03908
5528.91965,0.05495
5530.84811,0.04566
5532.77658,0.01265
5534.70505,-0.00073
5536.63352,0.01639
5538.56199,0.03324
5540.49046,0.03452
5542.41893,0.02880
5544.34740,0.02032
5546.27586,0.01809
5548.20433,0.03318
5550.13280,0.04822
5552.06127,0.04768
5553.98974,0.04725
5555.91821,0.04956
5557.84668,0.04086
5559.77514,0.03053
5561.70361,0.03000
5563.63208,0.03891
5565.56055,0.04901
5567.48902,0.04382
5569.41749,0.02969
5571.34596,0.03131
5573.27443,0.04494
5575.20289,0.04498
5577.13136,0.03642
5579.05983,0.04176
5580.98830,0.05419
5582.91677,0.05288
5584.84524,0.03685
5586.77371,0.01920
5588.70217,0.01260
5590.63064,0.01272
5592.55911,0.01270
5594.48758,0.01924
5596.41605,0.02629
5598.34452,0.02528
5600.27299,0.02802
5602.20145,0.03616
5604.12992,0.03638
5606.05839,0.03246
5607.98686,0.03389
5609.91533,0.04007
5611.84380,0.05036
5613.77227,0.05624
5615.70074,0.04976
5617.62920,0.03813
5619.55767,0.02402
5621.48614,0.01765
5623.41461,0.03519
5625.34308,0.05896
5627.27155,0.06980
5629.20002,0.07624
5631.12848,0.07732
5633.05695,0.06925
5634.98542,0.06757
5636.91389,0.08800
5638.84236,0.10990
5640.77083,0.10199
5642.69930,0.07172
5644.62777,0.04072
5646.55623,0.02556
5648.48470,0.03023
5650.41317,0.03634
5652.34164,0.04233
5654.27011,0.05468
5656.19858,0.06000
5658.12705,0.05910
5660.05551,0.05554
5661.98398,0.04183
5663.91245,0.03202
5665.84092,0.03464
5667.76939,0.03964
5669.69786,0.05121
5671.62633,0.06884
5673.55480,0.07382
5675.48326,0.05750
5677.41173,0.03482
5679.34020,0.03544
5681.26867,0.06269
5683.19714,0.07761
5685.12561,0.06602
5687.05408,0.04584
5688.98254,0.02132
5690.91101,0.00723
5692.83948,0.01729
5694.76795,0.03879
5696.69642,0.05775
5698.62489,0.06644
5700.55336,0.06243
5702.48183,0.05477
5704.41029,0.05072
5706.33876,0.04280
5708.26723,0.04096
5710.19570,0.06361
5712.12417,0.08502
5714.05264,0.06928
5715.98111,0.03546
5717.90957,0.03309
5719.83804,0.05954
5721.76651,0.06266
5723.69498,0.04256
5725.62345,0.04232
5727.55192,0.05962
5729.48039,0.06192
5731.40886,0.05222
5733.33732,0.05636
5735.26579,0.07415
5737.19426,0.08036
5739.12273,0.07953
5741.05120,0.08254
5742.97967,0.07472
5744.90814,0.05517
5746.83660,0.02958
5748.76507,0.00882
5750.69354,0.00770
5752.62201,0.03203
5754.55048,0.06975
5756.47895,0.08081
5758.40742,0.06330
5760.33588,0.05416
5762.26435,0.05771
5764.19282,0.06858
5766.12129,0.08835
5768.04976,0.09110
5769.97823,0.07589
5771.90670,0.07110
5773.83517,0.06815
5775.76363,0.06224
5777.69210,0.06159
5779.62057,0.06589
5781.54904,0.08946
5783.47751,0.11478
5785.40598,0.09935
5787.33445,0.05233
5789.26291,0.02266
5791.19138,0.02786
5793.11985,0.05970
5795.04832,0.09786
5796.97679,0.10265
5798.90526,0.07471
5800.83373,0.05448
5802.76220,0.05657
5804.69066,0.06208
5806.61913,0.06019
5808.54760,0.06489
5810.47607,0.07295
5812.40454,0.06711
5814.33301,0.05577
5816.26148,0.06633
5818.18994,0.09578
5820.11841,0.10711
5822.04688,0.09376
5823.97535,0.08182
5825.90382,0.07845
5827.83229,0.06518
5829.76076,0.03138
5831.68923,0.00681
5833.61769,0.01455
5835.54616,0.03674
5837.47463,0.05143
5839.40310,0.05230
5841.33157,0.04870
5843.26004,0.04877
5845.18851,0.04133
5847.11697,0.02815
5849.04544,0.02267
5850.97391,0.03511
5852.90238,0.06358
5854.83085,0.07379
5856.75932,0.05394
5858.68779,0.04303
5860.61626,0.05664
5862.54472,0.07055
5864.47319,0.07443
5866.40166,0.08121
5868.33013,0.08176
5870.25860,0.07015
5872.18707,0.07514
5874.11554,0.09322
5876.04400,0.08930
5877.97247,0.07195
5879.90094,0.06566
5881.82941,0.07678
5883.75788,0.09398
5885.68635,0.07956
5887.61482,0.05421
5889.54329,0.06393
5891.47175,0.08243
5893.40022,0.09309
5895.32869,0.10240
5897.25716,0.09166
5899.18563,0.05950
5901.11410,0.04016
5903.04257,0.04638
5904.97103,0.05582
5906.89950,0.06684
5908.82797,0.08439
5910.75644,0.09239
5912.68491,0.08108
5914.61338,0.06386
5916.54185,0.06128
5918.47032,0.07139
5920.39878,0.08257
5922.32725,0.08515
5924.25572,0.07263
5926.18419,0.05824
5928.11266,0.04984
5930.04113,0.04677
5931.96960,0.05786
5933.89806,0.07563
5935.82653,0.08774
5937.75500,0.09342
5939.68347,0.09312
5941.61194,0.09088
5943.54041,0.09099
5945.46888,0.09447
5947.39734,0.08732
5949.32581,0.06426
5951.25428,0.04578
5953.18275,0.03525
5955.11122,0.03784
5957.03969,0.05818
5958.96816,0.06612
5960.89663,0.05236
5962.82509,0.04355
5964.75356,0.05004
5966.68203,0.06492
5968.61050,0.06752
5970.53897,0.05982
5972.46744,0.06916
5974.39591,0.07007
5976.32437,0.04518
5978.25284,0.04644
5980.18131,0.06955
5982.10978,0.05799
5984.03825,0.02382
5985.96672,0.00746
5987.89519,0.00548
5989.82366,0.01778
5991.75212,0.04989
5993.68059,0.08092
5995.60906,0.08299
5997.53753,0.06002
5999.46600,0.05190
6001.39447,0.06983
6003.32294,0.08255
6005.25140,0.05846
6007.17987,0.02339
6009.10834,0.03129
6011.03681,0.06182
6012.96528,0.05646
6014.89375,0.01794
6016.82222,0.00157
6018.75069,0.02063
6020.67915,0.03500
6022.60762,0.05486
6024.53609,0.08529
6026.46456,0.09837
6028.39303,0.09933
6030.32150,0.09752
6032.24997,0.09921
6034.17843,0.11363
6036.10690,0.12368
6038.03537,0.10847
6039.96384,0.06592
6041.89231,0.02218
6043.82078,0.02153
6045.74925,0.05056
6047.67772,0.05429
6049.60618,0.02643
6051.53465,0.01359
6053.46312,0.02461
6055.39159,0.02992
6057.32006,0.03459
6059.24853,0.04661
6061.17700,0.03350
6063.10546,-0.00486
6065.03393,-0.00772
6066.96240,0.03019
6068.89087,0.04692
6070.81934,0.02276
6072.74781,-0.00433
6074.67628,-0.00853
6076.60475,-0.00313
6078.53321,0.01026
6080.46168,0.04336
6082.39015,0.05875
6084.31862,0.03490
6086.24709,0.01349
6088.17556,0.02388
6090.10403,0.06453
6092.03249,0.11087
6093.96096,0.11415
6095.88943,0.07226
6097.81790,0.04155
6099.74637,0.05542
6101.67484,0.07673
6103.60331,0.06469
6105.53177,0.03072
6107.46024,0.00503
6109.38871,0.01989
6111.31718,0.06857
6113.24565,0.10138
6115.17412,0.08976
6117.10259,0.05049
6119.03106,0.03796
6120.95952,0.05972
6122.88799,0.05156
6124.81646,0.01183
6126.74493,0.00805
6128.67340,0.06417
6130.60187,0.12001
6132.53034,0.11673
6134.45880,0.05868
6136.38727,-0.00977
6138.31574,-0.03966
6140.24421,-0.02658
6142.17268,-0.00665
6144.10115,0.01134
6146.02962,0.03337
6147.95809,0.06643
6149.88655,0.11186
6151.81502,0.12560
6153.74349,0.09326
6155.67196,0.07388
6157.60043,0.08165
6159.52890,0.06289
6161.45737,0.01539
6163.38583,0.02158
6165.31430,0.08374
6167.24277,0.11755
6169.17124,0.10804
6171.09971,0.08337
6173.02818,0.07316
6174.95665,0.07513
6176.88512,0.06699
6178.81358,0.07678
6180.74205,0.11099
6182.67052,0.12310
6184.59899,0.10129
6186.52746,0.07647
6188.45593,0.07619
6190.38440,0.06328
6192.31286,0.00244
6194.24133,-0.04621
6196.16980,-0.02758
6198.09827,0.02394
6200.02674,0.05797
6201.95521,0.07189
6203.88368,0.07577
6205.81215,0.06122
6207.74061,0.04167
6209.66908,0.06181
6211.59755,0.11119
6213.52602,0.11361
6215.45449,0.07329
6217.38296,0.05266
6219.31143,0.04837
6221.23989,0.04216
6223.16836,0.05237
6225.09683,0.06950
6227.02530,0.07195
6228.95377,0.06096
6230.88224,0.05429
6232.81071,0.06480
6234.73918,0.07039
6236.66764,0.05496
6238.59611,0.03358
6240.52458,0.01703
6242.45305,-0.00221
6244.38152,0.00250
6246.30999,0.05132
6248.23846,0.08806
6250.16692,0.08014
6252.09539,0.04614
6254.02386,0.00349
6255.95233,-0.02058
6257.88080,-0.00960
6259.80927,0.02493
6261.73774,0.05666
6263.66621,0.06565
6265.59467,0.05917
6267.52314,0.04948
6269.45161,0.04584
6271.38008,0.04324
6273.30855,0.03653
6275.23702,0.03304
6277.16549,0.02210
6279.09395,0.01076
6281.02242,0.00515
6282.95089,0.00493
6284.87936,0.02507
6286.80783,0.03580
6288.73630,0.01845
6290.66477,0.02100
6292.59323,0.05931
6294.52170,0.07869
6296.45017,0.06899
6298.37864,0.05179
6300.30711,0.01831
6302.23558,0.00285
6304.16405,0.03171
6306.09252,0.06528
6308.02098,0.10375
6309.94945,0.13788
6311.87792,0.11563
6313.80639,0.05568
6315.73486,0.01236
6317.66333,-0.00943
6319.59180,-0.00178
6321.52026,0.04512
6323.44873,0.09034
6325.37720,0.08927
6327.30567,0.05946
6329.23414,0.04948
6331.16261,0.06443
6333.09108,0.06198
6335.01955,0.01810
6336.94801,-0.02918
6338.87648,-0.02278
6340.80495,0.02162
6342.73342,0.06447
6344.66189,0.10822
6346.59036,0.12848
6348.51883,0.09273
6350.44729,0.03307
6352.37576,0.01333
6354.30423,0.04265
6356.23270,0.08510
6358.16117,0.10821
6360.08964,0.08488
6362.01811,0.04172
6363.94658,0.02417
6365.87504,0.00760
6367.80351,-0.02908
6369.73198,-0.02925
6371.66045,0.01731
6373.58892,0.04294
6375.51739,0.03062
6377.44586,0.00242
6379.37432,-0.03012
6381.30279,-0.02022
6383.23126,0.05329
6385.15973,0.09605
6387.08820,0.07120
6389.01667,0.05041
6390.94514,0.04491
6392.87361,0.04244
6394.80207,0.06578
6396.73054,0.10709
6398.65901,0.14600
6400.58748,0.15220
6402.51595,0.08910
6404.44442,0.00848
6406.37289,0.01383
6408.30135,0.09307
6410.22982,0.14592
6412.15829,0.14108
6414.08676,0.11362
6416.01523,0.09124
6417.94370,0.03860
6419.87217,-0.03899
6421.80064,-0.06651
6423.72910,-0.04312
6425.65757,-0.00026
6427.58604,0.03560
6429.51451,0.04130
6431.44298,0.02509
6433.37145,0.01018
6435.29992,0.01719
6437.22838,0.05154
6439.15685,0.08354
6441.08532,0.08562
6443.01379,0.06392
6444.94226,0.04426
6446.87073,0.01312
6448.79920,-0.03276
6450.72766,-0.03667
6452.65613,-0.00455
6454.58460,0.02584
6456.51307,0.06451
6458.44154,0.08254
6460.37001,0.06667
6462.29848,0.05178
6464.22695,0.04929
6466.15541,0.06603
6468.08388,0.05878
6470.01235,-0.00620
6471.94082,-0.03826
6473.86929,-0.00559
6475.79776,0.04318
6477.72623,0.05801
6479.65469,0.01681
6481.58316,-0.01258
6483.51163,0.01460
6485.44010,0.03832
6487.36857,0.01336
6489.29704,-0.01269
6491.22551,0.00947
6493.15398,0.04479
6495.08244,0.06829
6497.01091,0.08462
6498.93938,0.06587
6500.86785,0.01481
6502.79632,-0.00215
6504.72479,0.00974
6506.65326,0.00697
6508.58172,0.01176
6510.51019,0.04418
6512.43866,0.08407
6514.36713,0.09264
6516.29560,0.08064
6518.22407,0.07792
6520.15254,0.08236
6522.08101,0.10897
6524.00947,0.13450
6525.93794,0.10012
6527.86641,0.04907
6529.79488,0.01678
6531.72335,0.00227
6533.65182,0.02244
6535.58029,0.03386
6537.50875,0.01694
6539.43722,0.00060
6541.36569,-0.01460
6543.29416,-0.01530
6545.22263,-0.00095
6547.15110,-0.00400
6549.07957,-0.00773
6551.00804,0.00626
6552.93650,0.01066
6554.86497,0.01887
6556.79344,0.02299
6558.72191,-0.01184
6560.65038,-0.02223
6562.57885,0.01394
6564.50732,0.02932
6566.43578,0.03628
6568.36425,0.06120
6570.29272,0.07490
6572.22119,0.07002
6574.14966,0.04896
6576.07813,0.01510
6578.00660,-0.01796
6579.93507,-0.03839
6581.86353,-0.04062
6583.79200,-0.03264
6585.72047,-0.00503
6587.64894,0.07822
6589.57741,0.15961
6591.50588,0.14640
6593.43435,0.06836
6595.36281,0.02534
6597.29128,0.05912
6599.21975,0.10827
6601.14822,0.10528
6603.07669,0.08706
6605.00516,0.08383
6606.93363,0.08497
6608.86210,0.09384
6610.79056,0.10265
6612.71903,0.08982
6614.64750,0.05581
6616.57597,0.06076
6618.50444,0.09537
6620.43291,0.06543
6622.36138,-0.01469
6624.28984,-0.05075
6626.21831,-0.00949
6628.14678,0.05035
6630.07525,0.06483
6632.00372,0.07086
6633.93219,0.11330
6635.86066,0.16481
6637.78912,0.17054
6639.71759,0.11650
6641.64606,0.03647
6643.57453,-0.04457
6645.50300,-0.10005
6647.43147,-0.07836
6649.35994,-0.00325
6651.28841,0.05796
6653.21687,0.10394
6655.14534,0.12511
6657.07381,0.07878
6659.00228,0.00290
6660.93075,-0.01681
6662.85922,0.02414
6664.78769,0.03908
6666.71615,-0.01704
6668.64462,-0.07043
6670.57309,-0.05343
6672.50156,-0.00404
6674.43003,0.04939
6676.35850,0.12350
6678.28697,0.16414
6680.21544,0.13626
6682.14390,0.09043
6684.07237,0.08535
6686.00084,0.12350
6687.92931,0.12421
6689.85778,0.04383
6691.78625,-0.01586
6693.71472,0.01246
6695.64318,0.05633
6697.57165,0.06184
6699.50012,0.09691
6701.42859,0.15574
6703.35706,0.15529
6705.28553,0.10743
6707.21400,0.06257
6709.14247,0.03220
6711.07093,0.04894
6712.99940,0.09379
6714.92787,0.11365
6716.85634,0.15177
6718.78481,0.20996
6720.71328,0.17651
6722.64175,0.06629
6724.57021,-0.00731
6726.49868,-0.01402
6728.42715,0.04066
6730.35562,0.10238
6732.28409,0.09970
6734.21256,0.06997
6736.14103,0.07050
6738.06950,0.08479
6739.99796,0.07453
6741.92643,0.05581
6743.85490,0.04294
6745.78337,0.01035
6747.71184,-0.01809
6749.64031,0.00764
6751.56878,0.03801
6753.49724,-0.03261
6755.42571,-0.11771
6757.35418,-0.05383
6759.28265,0.07238
6761.21112,0.07532
6763.13959,0.02115
6765.06806,0.02601
6766.99653,0.04597
6768.92499,0.02326
6770.85346,-0.01791
6772.78193,-0.02628
6774.71040,-0.00935
6776.63887,0.00792
6778.56734,-0.00235
6780.49581,-0.03362
6782.42427,-0.02522
6784.35274,0.00283
6786.28121,-0.02204
6788.20968,-0.08582
6790.13815,-0.09438
6792.06662,0.00216
6793.99509,0.08514
6795.92355,0.09295
6797.85202,0.08546
6799.78049,0.07570
6801.70896,0.06647
6803.63743,0.05949
6805.56590,0.01982
6807.49437,-0.01737
6809.42284,0.01121
6811.35130,0.12088
6813.27977,0.20882
6815.20824,0.16424
6817.13671,0.05766
6819.06518,0.02350
6820.99365,0.07871
6822.92212,0.13738
6824.85058,0.11745
6826.77905,0.06839
6828.70752,0.03407
6830.63599,0.01596
6832.56446,0.00613
6834.49293,0.01151
6836.42140,0.05216
6838.34987,0.12017
6840.27833,0.17783
6842.20680,0.18557
6844.13527,0.17056
6846.06374,0.15887
6847.99221,0.09332
6849.92068,0.02707
6851.84915,0.05230
6853.77761,0.07906
6855.70608,0.08023
6857.63455,0.10297
6859.56302,0.12571
6861.49149,0.13771
6863.41996,0.14499
6865.34843,0.10954
6867.27690,0.02015
6869.20536,-0.03416
6871.13383,-0.03421
6873.06230,-0.04827
6874.99077,-0.07285
6876.91924,-0.07000
6878.84771,-0.02988
6880.77618,0.04819
6882.70464,0.12437
6884.63311,0.15987
6886.56158,0.14627
6888.49005,0.09272
6890.41852,0.02377
6892.34699,-0.02804
6894.27546,-0.03361
6896.20393,0.02352
6898.13239,0.09660
6900.06086,0.09275
6901.98933,0.02952
6903.91780,-0.03509
6905.84627,-0.05355
6907.77474,-0.01090
6909.70321,0.02189
6911.63167,0.02891
6913.56014,0.06070
6915.48861,0.08710
6917.41708,0.05426
6919.34555,-0.03816
6921.27402,-0.07774
6923.20249,0.01967
6925.13096,0.13423
6927.05942,0.14146
6928.98789,0.08607
6930.91636,0.08781
6932.84483,0.14284
6934.77330,0.17602
6936.70177,0.16959
6938.63024,0.16316
6940.55870,0.19371
6942.48717,0.17249
6944.41564,0.10294
6946.34411,0.07957
6948.27258,0.08616
6950.20105,0.05855
6952.12952,-0.00953
6954.05799,-0.08015
6955.98645,-0.10531
6957.91492,-0.08595
6959.84339,-0.06641
6961.77186,-0.02860
6963.70033,0.02889
6965.62880,0.03782
6967.55727,0.02156
6969.48573,0.07100
6971.41420,0.14355
6973.34267,0.12300
6975.27114,0.02226
6977.19961,-0.03688
6979.12808,-0.01472
6981.05655,0.01985
6982.98501,0.01309
6984.91348,0.03015
6986.84195,0.08965
6988.77042,0.07494
6990.69889,-0.00985
6992.62736,-0.01921
6994.55583,0.07251
6996.48430,0.15594
6998.41276,0.12423
7000.34123,0.02104
7002.26970,0.00452
7004.19817,0.07376
7006.12664,0.11875
7008.05511,0.13355
7009.98358,0.15088
7011.91204,0.16263
7013.84051,0.15098
7015.76898,0.08401
7017.69745,-0.02263
7019.62592,-0.06792
7021.55439,-0.03238
7023.48286,-0.04615
7025.41133,-0.09526
7027.33979,-0.08731
7029.26826,-0.05366
7031.19673,0.02981
7033.12520,0.12170
7035.05367,0.11621
7036.98214,0.07771
7038.91061,0.05986
7040.83907,0.01667
7042.76754,-0.06768
7044.69601,-0.12105
7046.62448,-0.08837
7048.55295,0.00429
7050.48142,0.07631
7052.40989,0.04269
7054.33836,-0.01958
7056.26682,0.02654
7058.19529,0.11199
7060.12376,0.12158
7062.05223,0.09098
7063.98070,0.04699
7065.90917,0.00333
7067.83764,0.02005
7069.76610,0.11578
7071.69457,0.15824
7073.62304,0.06041
7075.55151,-0.02061
7077.47998,-0.01334
7079.40845,0.00135
7081.33692,0.00474
7083.26539,0.03065
7085.19385,0.02742
7087.12232,-0.02832
7089.05079,-0.08379
7090.97926,-0.09230
7092.90773,-0.05042
7094.83620,0.01784
7096.76467,0.06848
7098.69313,0.07375
7100.62160,0.01912
7102.55007,-0.05892
7104.47854,-0.10264
7106.40701,-0.06394
7108.33548,0.01344
7110.26395,0.01055
7112.19242,-0.03525
7114.12088,-0.01389
7116.04935,0.03265
7117.97782,0.02968
7119.90629,0.01630
7121.83476,0.02380
7123.76323,0.01798
7125.69170,-0.00643
7127.62016,-0.06524
7129.54863,-0.12919
7131.47710,-0.09952
7133.40557,-0.01662
7135.33404,0.00387
7137.26251,-0.03659
7139.19098,-0.06105
7141.11944,-0.03712
7143.04791,-0.03474
7144.97638,-0.06836
7146.90485,-0.04823
7148.83332,0.05324
7150.76179,0.17534
7152.69026,0.21726
7154.61873,0.10605
7156.54719,-0.03113
7158.47566,-0.06449
7160.40413,-0.02702
7162.33260,0.03971
7164.26107,0.12971
7166.18954,0.15504
7168.11801,0.09881
7170.04647,0.13912
7171.97494,0.21046
7173.90341,0.15065
7175.83188,0.11278
7177.76035,0.15877
7179.68882,0.16886
7181.61729,0.15763
7183.54576,0.12770
7185.47422,0.06006
7187.40269,0.02214
7189.33116,0.01109
7191.25963,-0.01042
7193.18810,-0.03510
7195.11657,-0.01109
7197.04504,0.10027
7198.97350,0.22939
7200.90197,0.30337
7202.83044,0.30768
7204.75891,0.20298
7206.68738,0.06807
7208.61585,0.02924
7210.54432,0.06171
7212.47279,0.07010
7214.40125,-0.02847
7216.32972,-0.13445
7218.25819,-0.08023
7220.18666,-0.02927
7222.11513,-0.05147
7224.04360,-0.02053
7225.97207,0.09690
7227.90053,0.18570
7229.82900,0.12793
7231.75747,0.02031
7233.68594,0.02001
7235.61441,0.04745
7237.54288,0.04393
7239.47135,0.02047
7241.39982,-0.01455
7243.32828,-0.02970
7245.25675,-0.01236
7247.18522,0.01903
7249.11369,0.05842
7251.04216,0.07352
7252.97063,0.01244
7254.89910,-0.03519
7256.82756,0.03124
7258.75603,0.13497
7260.68450,0.21154
7262.61297,0.17484
7264.54144,-0.01634
7266.46991,-0.07294
7268.39838,0.11855
7270.32685,0.29382
7272.25531,0.24817
7274.18378,0.13002
7276.11225,0.03823
7278.04072,-0.06505
7279.96919,-0.08079
7281.89766,0.04175
7283.82613,0.11245
7285.75459,0.06848
7287.68306,-0.08938
7289.61153,-0.26415
7291.54000,-0.27399
7293.46847,-0.05584
7295.39694,0.21998
7297.32541,0.27031
7299.25387,0.07201
7301.18234,-0.10994
7303.11081,-0.07862
7305.03928,0.02207
7306.96775,-0.04458
7308.89622,-0.13973
7310.82469,-0.04705
7312.75316,0.08499
7314.68162,0.11299
7316.61009,0.06359
7318.53856,0.06065
7320.46703,0.10237
7322.39550,0.13481
7324.32397,0.15864
7326.25244,0.20211
7328.18090,0.19362
7330.10937,0.06522
7332.03784,-0.01022
7333.96631,0.02131
7335.89478,0.04396
7337.82325,0.00476
7339.75172,-0.05764
7341.68019,-0.02659
7343.60865,0.11593
7345.53712,0.21703
7347.46559,0.15631
7349.39406,0.09101
7351.32253,0.08060
7353.25100,0.08639
7355.17947,0.12628
7357.10793,0.09827
7359.03640,-0.00739
7360.96487,0.04295
7362.89334,0.21270
7364.82181,0.29602
7366.75028,0.31226
7368.67875,0.25802
7370.60722,0.09683
7372.53568,0.03758
7374.46415,0.18290
7376.39262,0.20047
7378.32109,0.02624
7380.24956,-0.06928
7382.17803,-0.10306
7384.10650,-0.12647
7386.03496,-0.02960
7387.96343,0.13283
7389.89190,0.14037
7391.82037,0.02694
7393.74884,-0.08129
7395.67731,-0.13610
7397.60578,-0.15309
7399.53425,-0.14567
7401.46271,-0.09109
7403.39118,-0.00933
7405.31965,0.07078
7407.24812,0.14795
7409.17659,0.18156
7411.10506,0.21490
7413.03353,0.22427
7414.96199,0.09774
7416.89046,-0.09714
7418.81893,-0.12783
7420.74740,0.03235
7422.67587,0.09436
7424.60434,0.01203
7426.53281,-0.06042
7428.46128,-0.01613
7430.38974,0.08917
7432.31821,0.12183
7434.24668,0.10805
7436.17515,0.04605
7438.10362,-0.08894
7440.03209,-0.15183
7441.96056,-0.02839
7443.88902,0.14464
7445.81749,0.18528
7447.74596,0.10022
7449.67443,0.00941
7451.60290,0.06196
7453.53137,0.13276
7455.45984,0.06576
7457.38831,0.03018
7459.31677,0.12082
7461.24524,0.10741
7463.17371,-0.05421
7465.10218,-0.10849
7467.03065,-0.05191
7468.95912,-0.02365
7470.88759,-0.02162
7472.81605,-0.04204
7474.74452,-0.06816
7476.67299,-0.03082
7478.60146,0.06600
7480.52993,0.10575
7482.45840,0.04311
7484.38687,-0.02034
7486.31533,-0.04316
7488.24380,-0.04202
7490.17227,-0.02893
7492.10074,-0.01326
7494.02921,-0.02752
7495.95768,-0.06744
7497.88615,-0.04581
