399.19301,-0.11694
401.12148,0.11094
403.04995,0.25715
404.97842,0.14600
406.90689,-0.01339
408.83536,-0.05714
410.76382,0.00610
412.69229,0.06088
414.62076,0.04801
416.54923,0.01988
418.47770,0.01852
420.40617,-0.00621
422.33464,-0.02367
424.26311,0.03037
426.19157,0.13296
428.12004,0.21634
430.04851,0.20415
431.97698,0.07219
433.90545,-0.02676
435.83392,-0.04355
437.76239,-0.07263
439.69085,-0.10704
441.61932,-0.03625
443.54779,0.09858
445.47626,0.11006
447.40473,0.01726
449.33320,-0.04123
451.26167,-0.03605
453.19013,0.01019
455.11860,0.06078
457.04707,0.05494
458.97554,0.00847
460.90401,-0.00776
462.83248,0.01039
464.76095,0.02867
466.68942,0.03694
468.61788,0.03919
470.54635,0.03067
472.47482,0.00295
474.40329,-0.08378
476.33176,-0.11509
478.26023,-0.04793
480.18870,0.02037
482.11716,0.02834
484.04563,-0.02147
485.97410,-0.06475
487.90257,-0.04213
489.83104,0.01511
491.75951,0.06904
493.68798,0.13515
495.61645,0.17980
497.54491,0.14812
499.47338,0.07886
501.40185,0.05207
503.33032,0.07428
505.25879,0.09291
507.18726,0.08038
509.11573,0.05725
511.04419,0.05944
512.97266,0.06986
514.90113,0.06162
516.82960,0.06089
518.75807,0.08050
520.68654,0.07142
522.61501,0.04641
524.54348,0.05385
526.47194,0.06918
528.40041,0.05715
530.32888,0.03618
532.25735,0.03001
534.18582,0.04117
536.11429,0.05083
538.04276,0.04758
539.97122,0.05128
541.89969,0.06860
543.82816,0.08757
545.75663,0.09905
547.68510,0.09339
549.61357,0.08542
551.54204,0.09409
553.47051,0.10171
555.39897,0.08191
557.32744,0.05440
559.25591,0.04849
561.18438,0.04848
563.11285,0.05319
565.04132,0.07042
566.96979,0.07187
568.89825,0.05417
570.82672,0.05579
572.75519,0.07804
574.68366,0.08784
576.61213,0.07630
578.54060,0.06820
580.46907,0.07510
582.39754,0.07886
584.32600,0.07152
586.25447,0.06397
588.18294,0.06582
590.11141,0.08026
592.03988,0.08917
593.96835,0.07910
595.89682,0.07969
597.82528,0.09251
599.75375,0.09017
601.68222,0.08327
603.61069,0.07463
605.53916,0.06336
607.46763,0.07114
609.39610,0.08625
611.32456,0.08667
613.25303,0.07622
615.18150,0.06883
617.10997,0.06966
619.03844,0.07097
620.96691,0.06539
622.89538,0.05470
624.82385,0.04874
626.75231,0.04831
628.68078,0.05120
630.60925,0.06495
632.53772,0.08189
634.46619,0.08175
636.39466,0.07113
638.32313,0.07203
640.25159,0.08218
642.18006,0.09276
644.10853,0.10561
646.03700,0.10538
647.96547,0.08734
649.89394,0.08214
651.82241,0.09776
653.75088,0.10216
655.67934,0.08814
657.60781,0.08062
659.53628,0.08356
661.46475,0.08940
663.39322,0.09987
665.32169,0.10565
667.25016,0.09646
669.17862,0.08484
671.10709,0.08777
673.03556,0.08768
674.96403,0.07835
676.89250,0.07543
678.82097,0.08205
680.74944,0.07891
682.67791,0.07051
684.60637,0.07241
686.53484,0.07324
688.46331,0.05872
690.39178,0.04853
692.32025,0.05929
694.24872,0.07167
696.17719,0.07517
698.10565,0.08220
700.03412,0.09138
701.96259,0.09386
703.89106,0.09031
705.81953,0.08029
707.74800,0.06612
709.67647,0.05767
711.60494,0.06381
713.53340,0.08310
715.46187,0.09565
717.39034,0.08935
719.31881,0.07778
721.24728,0.07688
723.17575,0.08739
725.10422,0.09862
727.03268,0.10124
728.96115,0.09946
730.88962,0.10283
732.81809,0.10565
734.74656,0.10256
736.67503,0.09944
738.60350,0.09337
740.53197,0.08363
742.46043,0.07823
744.38890,0.07919
746.31737,0.07774
748.24584,0.06793
750.17431,0.06342
752.10278,0.07277
754.03125,0.08458
755.95971,0.09005
757.88818,0.09254
759.81665,0.09368
761.74512,0.08661
763.67359,0.07580
765.60206,0.07345
767.53053,0.07936
769.45900,0.08390
771.38746,0.08021
773.31593,0.07286
775.24440,0.07093
777.17287,0.07876
779.10134,0.09100
781.02981,0.09450
782.95828,0.08870
784.88674,0.08718
786.81521,0.09066
788.74368,0.08954
790.67215,0.08446
792.60062,0.08102
794.52909,0.08186
796.45756,0.08524
798.38602,0.08465
800.31449,0.07870
802.24296,0.07476
804.17143,0.07899
806.09990,0.09114
808.02837,0.09972
809.95684,0.09559
811.88531,0.08944
813.81377,0.08866
815.74224,0.08422
817.67071,0.07609
819.59918,0.07525
821.52765,0.07579
823.45612,0.06969
825.38459,0.06671
827.31305,0.07059
829.24152,0.07189
831.16999,0.07204
833.09846,0.07945
835.02693,0.08701
836.95540,0.08779
838.88387,0.08915
840.81234,0.08978
842.74080,0.08443
844.66927,0.07900
846.59774,0.07788
848.52621,0.07972
850.45468,0.08188
852.38315,0.08507
854.31162,0.09129
856.24008,0.09183
858.16855,0.08281
860.09702,0.07835
862.02549,0.08314
863.95396,0.08466
865.88243,0.08088
867.81090,0.06994
869.73937,0.05713
871.66783,0.06485
873.59630,0.08305
875.52477,0.09113
877.45324,0.09325
879.38171,0.09219
881.31018,0.08997
883.23865,0.08913
885.16711,0.08626
887.09558,0.08201
889.02405,0.07962
890.95252,0.07762
892.88099,0.07807
894.80946,0.08054
896.73793,0.08059
898.66640,0.08390
900.59486,0.09174
902.52333,0.09754
904.45180,0.10228
906.38027,0.10608
908.30874,0.10364
910.23721,0.09591
912.16568,0.09142
914.09414,0.09766
916.02261,0.10499
917.95108,0.09931
919.87955,0.09074
921.80802,0.09075
923.73649,0.09147
925.66496,0.08738
927.59343,0.08811
929.52189,0.09539
931.45036,0.09665
933.37883,0.09433
935.30730,0.09807
937.23577,0.10328
939.16424,0.10294
941.09271,0.09679
943.02117,0.08851
944.94964,0.08410
946.87811,0.08553
948.80658,0.08969
950.73505,0.09270
952.66352,0.09052
954.59199,0.08841
956.52045,0.09096
958.44892,0.09169
960.37739,0.09261
962.30586,0.09748
964.23433,0.09915
966.16280,0.09364
968.09127,0.08680
970.01974,0.08470
971.94820,0.08729
973.87667,0.09178
975.80514,0.09463
977.73361,0.09259
979.66208,0.08913
981.59055,0.09191
983.51902,0.09992
985.44748,0.10465
987.37595,0.10372
989.30442,0.10371
991.23289,0.10444
993.16136,0.09909
995.08983,0.09398
997.01830,0.09425
998.94677,0.09409
1000.87523,0.09425
1002.80370,0.09517
1004.73217,0.09485
1006.66064,0.09617
1008.58911,0.09595
1010.51758,0.09141
1012.44605,0.09071
1014.37451,0.09473
1016.30298,0.09468
1018.23145,0.08917
1020.15992,0.08609
1022.08839,0.08941
1024.01686,0.09285
1025.94533,0.09486
1027.87380,0.09661
1029.80226,0.09513
1031.73073,0.09522
1033.65920,0.09776
1035.58767,0.09634
1037.51614,0.09596
1039.44461,0.10137
1041.37308,0.10539
1043.30154,0.10333
1045.23001,0.09836
1047.15848,0.09771
1049.08695,0.10580
1051.01542,0.11530
1052.94389,0.11552
1054.87236,0.10746
1056.80083,0.10183
1058.72929,0.10296
1060.65776,0.10288
1062.58623,0.09833
1064.51470,0.09537
1066.44317,0.09475
1068.37164,0.09547
1070.30011,0.09885
1072.22857,0.10222
1074.15704,0.10201
1076.08551,0.09807
1078.01398,0.09331
1079.94245,0.08918
1081.87092,0.08691
1083.79939,0.08986
1085.72786,0.09435
1087.65632,0.09643
1089.58479,0.10230
1091.51326,0.10900
1093.44173,0.10495
1095.37020,0.09558
1097.29867,0.09515
1099.22714,0.10375
1101.15560,0.11132
1103.08407,0.11218
1105.01254,0.10940
1106.94101,0.10811
1108.86948,0.10844
1110.79795,0.11191
1112.72642,0.11733
1114.65489,0.11511
1116.58335,0.10586
1118.51182,0.10075
1120.44029,0.10208
1122.36876,0.10406
1124.29723,0.10407
1126.22570,0.10076
1128.15417,0.09410
1130.08263,0.09163
1132.01110,0.09577
1133.93957,0.09580
1135.86804,0.09072
1137.79651,0.09338
1139.72498,0.10171
1141.65345,0.10470
1143.58191,0.10249
1145.51038,0.09960
1147.43885,0.09992
1149.36732,0.10496
1151.29579,0.11146
1153.22426,0.11431
1155.15273,0.11307
1157.08120,0.11143
1159.00966,0.11014
1160.93813,0.10777
1162.86660,0.10430
1164.79507,0.10115
1166.72354,0.09910
1168.65201,0.09694
1170.58048,0.09554
1172.50894,0.09930
1174.43741,0.10584
1176.36588,0.10817
1178.29435,0.10734
1180.22282,0.10643
1182.15129,0.10421
1184.07976,0.10099
1186.00823,0.10195
1187.93669,0.10761
1189.86516,0.11053
1191.79363,0.10859
1193.72210,0.10649
1195.65057,0.10527
1197.57904,0.10231
1199.50751,0.09913
1201.43597,0.09900
1203.36444,0.10031
1205.29291,0.10048
1207.22138,0.09992
1209.14985,0.09954
1211.07832,0.10003
1213.00679,0.10147
1214.93526,0.10242
1216.86372,0.10304
1218.79219,0.10504
1220.72066,0.10796
1222.64913,0.11096
1224.57760,0.11387
1226.50607,0.11483
1228.43454,0.11227
1230.36300,0.10844
1232.29147,0.10698
1234.21994,0.10818
1236.14841,0.10995
1238.07688,0.11074
1240.00535,0.10987
1241.93382,0.10946
1243.86229,0.10988
1245.79075,0.10799
1247.71922,0.10608
1249.64769,0.10932
1251.57616,0.11462
1253.50463,0.11462
1255.43310,0.11053
1257.36157,0.10865
1259.29003,0.10874
1261.21850,0.10755
1263.14697,0.10560
1265.07544,0.10462
1267.00391,0.10447
1268.93238,0.10473
1270.86085,0.10600
1272.78932,0.10718
1274.71778,0.10689
1276.64625,0.10560
1278.57472,0.10564
1280.50319,0.10905
1282.43166,0.11177
1284.36013,0.10999
1286.28860,0.10751
1288.21706,0.10763
1290.14553,0.10787
1292.07400,0.10664
1294.00247,0.10605
1295.93094,0.10597
1297.85941,0.10539
1299.78788,0.10387
1301.71634,0.09886
1303.64481,0.09446
1305.57328,0.09808
1307.50175,0.10579
1309.43022,0.10951
1311.35869,0.10971
1313.28716,0.11049
1315.21563,0.11124
1317.14409,0.11013
1319.07256,0.10854
1321.00103,0.10747
1322.92950,0.10676
1324.85797,0.10589
1326.78644,0.10574
1328.71491,0.10812
1330.64337,0.11037
1332.57184,0.10964
1334.50031,0.10779
1336.42878,0.10767
1338.35725,0.10939
1340.28572,0.10856
1342.21419,0.10311
1344.14266,0.09886
1346.07112,0.10172
1347.99959,0.10794
1349.92806,0.11028
1351.85653,0.11051
1353.78500,0.11075
1355.71347,0.11044
1357.64194,0.11172
1359.57040,0.11479
1361.49887,0.11786
1363.42734,0.11871
1365.35581,0.11630
1367.28428,0.11296
1369.21275,0.11133
1371.14122,0.11329
1373.06969,0.11786
1374.99815,0.12086
1376.92662,0.12027
1378.85509,0.11763
1380.78356,0.11412
1382.71203,0.11278
1384.64050,0.11541
1386.56897,0.11768
1388.49743,0.11482
1390.42590,0.11317
1392.35437,0.11726
1394.28284,0.12104
1396.21131,0.11938
1398.13978,0.11623
1400.06825,0.11413
1401.99672,0.11518
1403.92518,0.11834
1405.85365,0.11686
1407.78212,0.11201
1409.71059,0.11083
1411.63906,0.11328
1413.56753,0.11615
1415.49600,0.11931
1417.42446,0.12331
1419.35293,0.12287
1421.28140,0.11865
1423.20987,0.11722
1425.13834,0.11604
1427.06681,0.11405
1428.99528,0.11439
1430.92375,0.11707
1432.85221,0.11947
1434.78068,0.12044
1436.70915,0.11937
1438.63762,0.11939
1440.56609,0.12036
1442.49456,0.12035
1444.42303,0.12176
1446.35149,0.12326
1448.27996,0.12128
1450.20843,0.11855
1452.13690,0.11690
1454.06537,0.11524
1455.99384,0.11572
1457.92231,0.12056
1459.85077,0.12169
1461.77924,0.12084
1463.70771,0.12168
1465.63618,0.12144
1467.56465,0.11952
1469.49312,0.12184
1471.42159,0.13121
1473.35006,0.13773
1475.27852,0.13076
1477.20699,0.12340
1479.13546,0.12239
1481.06393,0.12333
1482.99240,0.12316
1484.92087,0.12489
1486.84934,0.12924
1488.77780,0.13046
1490.70627,0.12630
1492.63474,0.12457
1494.56321,0.12692
1496.49168,0.12916
1498.42015,0.12601
1500.34862,0.12408
1502.27709,0.12602
1504.20555,0.12703
1506.13402,0.12970
1508.06249,0.13378
1509.99096,0.12926
1511.91943,0.12429
1513.84790,0.12481
1515.77637,0.12800
1517.70483,0.12602
1519.63330,0.12416
1521.56177,0.12631
1523.49024,0.12402
1525.41871,0.12220
1527.34718,0.12523
1529.27565,0.12910
1531.20412,0.13177
1533.13258,0.13246
1535.06105,0.13014
1536.98952,0.13070
1538.91799,0.13861
1540.84646,0.14363
1542.77493,0.13347
1544.70340,0.12639
1546.63186,0.12709
1548.56033,0.13099
1550.48880,0.13224
1552.41727,0.13011
1554.34574,0.12951
1556.27421,0.13203
1558.20268,0.13962
1560.13115,0.13868
1562.05961,0.12831
1563.98808,0.12323
1565.91655,0.12339
1567.84502,0.12777
1569.77349,0.13335
1571.70196,0.13306
1573.63043,0.12993
1575.55889,0.12751
1577.48736,0.12369
1579.41583,0.11853
1581.34430,0.11550
1583.27277,0.11560
1585.20124,0.11651
1587.12971,0.11753
1589.05818,0.11804
1590.98664,0.11687
1592.91511,0.11733
1594.84358,0.12081
1596.77205,0.12323
1598.70052,0.12242
1600.62899,0.11955
1602.55746,0.11668
1604.48592,0.11572
1606.41439,0.11791
1608.34286,0.12170
1610.27133,0.12306
1612.19980,0.12259
1614.12827,0.12402
1616.05674,0.12744
1617.98521,0.12810
1619.91367,0.12736
1621.84214,0.12889
1623.77061,0.13024
1625.69908,0.12949
1627.62755,0.12783
1629.55602,0.12541
1631.48449,0.12422
1633.41295,0.12544
1635.34142,0.12823
1637.26989,0.12756
1639.19836,0.12465
1641.12683,0.12515
1643.05530,0.13038
1644.98377,0.13973
1646.91223,0.14746
1648.84070,0.14522
1650.76917,0.14321
1652.69764,0.14545
1654.62611,0.14035
1656.55458,0.13074
1658.48305,0.12317
1660.41152,0.11974
1662.33998,0.12238
1664.26845,0.12697
1666.19692,0.13074
1668.12539,0.13605
1670.05386,0.14050
1671.98233,0.13872
1673.91080,0.13358
1675.83926,0.12907
1677.76773,0.12803
1679.69620,0.12946
1681.62467,0.13390
1683.55314,0.14076
1685.48161,0.13819
1687.41008,0.13107
1689.33855,0.12736
1691.26701,0.12528
1693.19548,0.12562
1695.12395,0.13039
1697.05242,0.13584
1698.98089,0.13546
1700.90936,0.13153
1702.83783,0.12883
1704.76629,0.12764
1706.69476,0.12649
1708.62323,0.12530
1710.55170,0.12576
1712.48017,0.12851
1714.40864,0.13342
1716.33711,0.13840
1718.26558,0.13519
1720.19404,0.12783
1722.12251,0.12337
1724.05098,0.12025
1725.97945,0.11874
1727.90792,0.11954
1729.83639,0.12027
1731.76486,0.12072
1733.69332,0.12301
1735.62179,0.12483
1737.55026,0.12575
1739.47873,0.12647
1741.40720,0.12548
1743.33567,0.12520
1745.26414,0.12626
1747.19261,0.12504
1749.12107,0.12196
1751.04954,0.11937
1752.97801,0.11766
1754.90648,0.11866
1756.83495,0.12201
1758.76342,0.12396
1760.69189,0.12358
1762.62035,0.12152
1764.54882,0.11953
1766.47729,0.11996
1768.40576,0.12243
1770.33423,0.12679
1772.26270,0.13032
1774.19117,0.12766
1776.11964,0.12465
1778.04810,0.12478
1779.97657,0.12561
1781.90504,0.12540
1783.83351,0.12467
1785.76198,0.12341
1787.69045,0.12275
1789.61892,0.12479
1791.54738,0.12786
1793.47585,0.12761
1795.40432,0.12459
1797.33279,0.12269
1799.26126,0.12370
1801.18973,0.12380
1803.11820,0.12014
1805.04666,0.11769
1806.97513,0.11872
1808.90360,0.11932
1810.83207,0.11694
1812.76054,0.11462
1814.68901,0.11417
1816.61748,0.11485
1818.54595,0.11616
1820.47441,0.11718
1822.40288,0.11853
1824.33135,0.12075
1826.25982,0.12282
1828.18829,0.12507
1830.11676,0.12572
1832.04523,0.12301
1833.97369,0.12025
1835.90216,0.11840
1837.83063,0.11723
1839.75910,0.11816
1841.68757,0.12189
1843.61604,0.12603
1845.54451,0.12613
1847.47298,0.12318
1849.40144,0.11983
1851.32991,0.11803
1853.25838,0.11860
1855.18685,0.11924
1857.11532,0.11928
1859.04379,0.11909
1860.97226,0.11832
1862.90072,0.11843
1864.82919,0.12027
1866.75766,0.12225
1868.68613,0.12236
1870.61460,0.12127
1872.54307,0.12087
1874.47154,0.12095
1876.40001,0.12098
1878.32847,0.12065
1880.25694,0.11984
1882.18541,0.11923
1884.11388,0.11980
1886.04235,0.12206
1887.97082,0.12469
1889.89929,0.12443
1891.82775,0.12201
1893.75622,0.12218
1895.68469,0.12494
1897.61316,0.12747
1899.54163,0.12896
1901.47010,0.12803
1903.39857,0.12494
1905.32704,0.12323
1907.25550,0.12328
1909.18397,0.12285
1911.11244,0.12171
1913.04091,0.12105
1914.96938,0.12113
1916.89785,0.12067
1918.82632,0.11894
1920.75478,0.11719
1922.68325,0.11657
1924.61172,0.11710
1926.54019,0.11782
1928.46866,0.11772
1930.39713,0.11785
1932.32560,0.11989
1934.25407,0.12168
1936.18253,0.12084
1938.11100,0.11939
1940.03947,0.12011
1941.96794,0.12345
1943.89641,0.12648
1945.82488,0.12523
1947.75335,0.12084
1949.68181,0.11789
1951.61028,0.11851
1953.53875,0.12108
1955.46722,0.12248
1957.39569,0.12204
1959.32416,0.12188
1961.25263,0.12181
1963.18110,0.12144
1965.10956,0.12223
1967.03803,0.12322
1968.96650,0.12226
1970.89497,0.12050
1972.82344,0.11982
1974.75191,0.11941
1976.68038,0.11849
1978.60884,0.11896
1980.53731,0.12125
1982.46578,0.12214
1984.39425,0.12121
1986.32272,0.12083
1988.25119,0.12130
1990.17966,0.12190
1992.10812,0.12130
1994.03659,0.11997
1995.96506,0.11964
1997.89353,0.11981
1999.82200,0.12006
2001.75047,0.12015
2003.67894,0.12045
2005.60741,0.12152
2007.53587,0.12266
2009.46434,0.12354
2011.39281,0.12278
2013.32128,0.12050
2015.24975,0.11980
2017.17822,0.12083
2019.10669,0.12175
2021.03515,0.12241
2022.96362,0.12246
2024.89209,0.12174
2026.82056,0.12139
2028.74903,0.12079
2030.67750,0.11937
2032.60597,0.11952
2034.53444,0.12175
2036.46290,0.12285
2038.39137,0.12165
2040.31984,0.12146
2042.24831,0.12330
2044.17678,0.12298
2046.10525,0.12056
2048.03372,0.12079
2049.96218,0.12267
2051.89065,0.12254
2053.81912,0.12233
2055.74759,0.12330
2057.67606,0.12344
2059.60453,0.12261
2061.53300,0.12149
2063.46147,0.12124
2065.38993,0.12228
2067.31840,0.12267
2069.24687,0.12195
2071.17534,0.12166
2073.10381,0.12242
2075.03228,0.12392
2076.96075,0.12559
2078.88921,0.12614
2080.81768,0.12528
2082.74615,0.12381
2084.67462,0.12205
2086.60309,0.12124
2088.53156,0.12229
2090.46003,0.12406
2092.38850,0.12503
2094.31696,0.12388
2096.24543,0.12169
2098.17390,0.12174
2100.10237,0.12286
2102.03084,0.12236
2103.95931,0.12185
2105.88778,0.12155
2107.81624,0.12087
2109.74471,0.12109
2111.67318,0.12208
2113.60165,0.12297
2115.53012,0.12357
2117.45859,0.12403
2119.38706,0.12433
2121.31553,0.12317
2123.24399,0.12086
2125.17246,0.12041
2127.10093,0.12197
2129.02940,0.12264
2130.95787,0.12147
2132.88634,0.11969
2134.81481,0.11912
2136.74327,0.12021
2138.67174,0.12204
2140.60021,0.12327
2142.52868,0.12252
2144.45715,0.12116
2146.38562,0.12160
2148.31409,0.12188
2150.24255,0.12082
2152.17102,0.12131
2154.09949,0.12315
2156.02796,0.12339
2157.95643,0.12206
2159.88490,0.12231
2161.81337,0.12498
2163.74184,0.12647
2165.67030,0.12567
2167.59877,0.12511
2169.52724,0.12499
2171.45571,0.12467
2173.38418,0.12405
2175.31265,0.12310
2177.24112,0.12360
2179.16958,0.12462
2181.09805,0.12392
2183.02652,0.12320
2184.95499,0.12214
2186.88346,0.11961
2188.81193,0.11849
2190.74040,0.11936
2192.66887,0.12044
2194.59733,0.12113
2196.52580,0.12032
2198.45427,0.11891
2200.38274,0.11975
2202.31121,0.12226
2204.23968,0.12338
2206.16815,0.12274
2208.09661,0.12260
2210.02508,0.12350
2211.95355,0.12442
2213.88202,0.12534
2215.81049,0.12652
2217.73896,0.12694
2219.66743,0.12577
2221.59590,0.12375
2223.52436,0.12225
2225.45283,0.12310
2227.38130,0.12604
2229.30977,0.12779
2231.23824,0.12632
2233.16671,0.12265
2235.09518,0.11991
2237.02364,0.12035
2238.95211,0.12283
2240.88058,0.12367
2242.80905,0.12204
2244.73752,0.12118
2246.66599,0.12215
2248.59446,0.12391
2250.52293,0.12556
2252.45139,0.12581
2254.37986,0.12516
2256.30833,0.12427
2258.23680,0.12299
2260.16527,0.12180
2262.09374,0.12088
2264.02221,0.12119
2265.95067,0.12266
2267.87914,0.12335
2269.80761,0.12299
2271.73608,0.12256
2273.66455,0.12247
2275.59302,0.12262
2277.52149,0.12292
2279.44996,0.12297
2281.37842,0.12244
2283.30689,0.12221
2285.23536,0.12207
2287.16383,0.12124
2289.09230,0.11950
2291.02077,0.11543
2292.94924,0.11221
2294.87770,0.11554
2296.80617,0.12003
2298.73464,0.11879
2300.66311,0.11715
2302.59158,0.11862
2304.52005,0.11839
2306.44852,0.11593
2308.37699,0.11448
2310.30545,0.11439
2312.23392,0.11571
2314.16239,0.11774
2316.09086,0.11885
2318.01933,0.11932
2319.94780,0.12000
2321.87627,0.12095
2323.80473,0.12074
2325.73320,0.11788
2327.66167,0.11606
2329.59014,0.11988
2331.51861,0.12300
2333.44708,0.11953
2335.37555,0.11702
2337.30401,0.11768
2339.23248,0.11743
2341.16095,0.11913
2343.08942,0.12108
2345.01789,0.11944
2346.94636,0.11777
2348.87483,0.11591
2350.80330,0.11343
2352.73176,0.11246
2354.66023,0.11473
2356.58870,0.11759
2358.51717,0.11579
2360.44564,0.11331
2362.37411,0.11018
2364.30258,0.10633
2366.23104,0.11211
2368.15951,0.12126
2370.08798,0.12340
2372.01645,0.12032
2373.94492,0.11864
2375.87339,0.12216
2377.80186,0.12530
2379.73033,0.12347
2381.65879,0.12163
2383.58726,0.12270
2385.51573,0.12269
2387.44420,0.12110
2389.37267,0.12139
2391.30114,0.12274
2393.22961,0.12273
2395.15807,0.12177
2397.08654,0.12130
2399.01501,0.12200
2400.94348,0.12335
2402.87195,0.12335
2404.80042,0.12136
2406.72889,0.12029
2408.65736,0.12159
2410.58582,0.12271
2412.51429,0.12184
2414.44276,0.12080
2416.37123,0.12155
2418.29970,0.12283
2420.22817,0.12323
2422.15664,0.12439
2424.08510,0.12704
2426.01357,0.12779
2427.94204,0.12592
2429.87051,0.12500
2431.79898,0.12464
2433.72745,0.12210
2435.65592,0.11971
2437.58439,0.12059
2439.51285,0.12267
2441.44132,0.12366
2443.36979,0.12398
2445.29826,0.12459
2447.22673,0.12540
2449.15520,0.12588
2451.08367,0.12670
2453.01213,0.12714
2454.94060,0.12618
2456.86907,0.12509
2458.79754,0.12519
2460.72601,0.12653
2462.65448,0.12709
2464.58295,0.12554
2466.51142,0.12413
2468.43988,0.12477
2470.36835,0.12530
2472.29682,0.12355
2474.22529,0.12128
2476.15376,0.12092
2478.08223,0.12265
2480.01070,0.12536
2481.93916,0.12693
2483.86763,0.12629
2485.79610,0.12544
2487.72457,0.12568
2489.65304,0.12595
2491.58151,0.12581
2493.50998,0.12601
2495.43844,0.12622
2497.36691,0.12540
2499.29538,0.12566
2501.22385,0.12812
2503.15232,0.12888
2505.08079,0.12679
2507.00926,0.12496
2508.93773,0.12489
2510.86619,0.12571
2512.79466,0.12677
2514.72313,0.12780
2516.65160,0.12806
2518.58007,0.12753
2520.50854,0.12639
2522.43701,0.12531
2524.36547,0.12569
2526.29394,0.12661
2528.22241,0.12666
2530.15088,0.12726
2532.07935,0.12818
2534.00782,0.12728
2535.93629,0.12550
2537.86476,0.12478
2539.79322,0.12555
2541.72169,0.12700
2543.65016,0.12759
2545.57863,0.12659
2547.50710,0.12528
2549.43557,0.12512
2551.36404,0.12528
2553.29250,0.12526
2555.22097,0.12569
2557.14944,0.12652
2559.07791,0.12737
2561.00638,0.12758
2562.93485,0.12685
2564.86332,0.12570
2566.79179,0.12453
2568.72025,0.12365
2570.64872,0.12363
2572.57719,0.12426
2574.50566,0.12527
2576.43413,0.12705
2578.36260,0.12826
2580.29107,0.12778
2582.21953,0.12666
2584.14800,0.12596
2586.07647,0.12558
2588.00494,0.12511
2589.93341,0.12594
2591.86188,0.12789
2593.79035,0.12778
2595.71882,0.12539
2597.64728,0.12349
2599.57575,0.12301
2601.50422,0.12339
2603.43269,0.12384
2605.36116,0.12398
2607.28963,0.12543
2609.21810,0.12790
2611.14656,0.12904
2613.07503,0.12943
2615.00350,0.12928
2616.93197,0.12861
2618.86044,0.12955
2620.78891,0.13183
2622.71738,0.13240
2624.64585,0.13047
2626.57431,0.12842
2628.50278,0.12745
2630.43125,0.12737
2632.35972,0.12822
2634.28819,0.12939
2636.21666,0.13052
2638.14513,0.13108
2640.07359,0.13054
2642.00206,0.12986
2643.93053,0.12959
2645.85900,0.12876
2647.78747,0.12732
2649.71594,0.12735
2651.64441,0.12906
2653.57288,0.12895
2655.50134,0.12667
2657.42981,0.12680
2659.35828,0.12991
2661.28675,0.13192
2663.21522,0.13184
2665.14369,0.13070
2667.07216,0.12858
2669.00062,0.12592
2670.92909,0.12410
2672.85756,0.12534
2674.78603,0.12950
2676.71450,0.13266
2678.64297,0.13185
2680.57144,0.12908
2682.49990,0.12835
2684.42837,0.12925
2686.35684,0.12883
2688.28531,0.12787
2690.21378,0.12788
2692.14225,0.12881
2694.07072,0.13096
2695.99919,0.13312
2697.92765,0.13333
2699.85612,0.13174
2701.78459,0.13074
2703.71306,0.13084
2705.64153,0.13054
2707.57000,0.13077
2709.49847,0.13178
2711.42693,0.13201
2713.35540,0.13107
2715.28387,0.13014
2717.21234,0.13091
2719.14081,0.13236
2721.06928,0.13273
2722.99775,0.13195
2724.92622,0.13055
2726.85468,0.12945
2728.78315,0.12945
2730.71162,0.13087
2732.64009,0.13224
2734.56856,0.13163
2736.49703,0.13106
2738.42550,0.13260
2740.35396,0.13293
2742.28243,0.13115
2744.21090,0.13066
2746.13937,0.13077
2748.06784,0.12955
2749.99631,0.12884
2751.92478,0.13046
2753.85325,0.13259
2755.78171,0.13297
2757.71018,0.13343
2759.63865,0.13518
2761.56712,0.13635
2763.49559,0.13678
2765.42406,0.13706
2767.35253,0.13715
2769.28099,0.13754
2771.20946,0.13737
2773.13793,0.13541
2775.06640,0.13340
2776.99487,0.13273
2778.92334,0.13183
2780.85181,0.13096
2782.78028,0.13087
2784.70874,0.12981
2786.63721,0.12874
2788.56568,0.13004
2790.49415,0.13218
2792.42262,0.13312
2794.35109,0.13369
2796.27956,0.13508
2798.20802,0.13656
2800.13649,0.13609
2802.06496,0.13442
2803.99343,0.13455
2805.92190,0.13595
2807.85037,0.13656
2809.77884,0.13604
2811.70731,0.13524
2813.63577,0.13527
2815.56424,0.13594
2817.49271,0.13665
2819.42118,0.13650
2821.34965,0.13566
2823.27812,0.13568
2825.20659,0.13598
2827.13505,0.13586
2829.06352,0.13495
2830.99199,0.13226
2832.92046,0.12969
2834.84893,0.13065
2836.77740,0.13449
2838.70587,0.13787
2840.63433,0.13913
2842.56280,0.13867
2844.49127,0.13862
2846.41974,0.13966
2848.34821,0.13971
2850.27668,0.13860
2852.20515,0.13742
2854.13362,0.13622
2856.06208,0.13496
2857.99055,0.13469
2859.91902,0.13616
2861.84749,0.13724
2863.77596,0.13735
2865.70443,0.13811
2867.63290,0.13841
2869.56136,0.13731
2871.48983,0.13604
2873.41830,0.13588
2875.34677,0.13728
2877.27524,0.13812
2879.20371,0.13677
2881.13218,0.13488
2883.06065,0.13390
2884.98911,0.13486
2886.91758,0.13738
2888.84605,0.13897
2890.77452,0.13945
2892.70299,0.13971
2894.63146,0.13869
2896.55993,0.13582
2898.48839,0.13308
2900.41686,0.13333
2902.34533,0.13584
2904.27380,0.13667
2906.20227,0.13591
2908.13074,0.13571
2910.05921,0.13491
2911.98768,0.13373
2913.91614,0.13254
2915.84461,0.13039
2917.77308,0.12952
2919.70155,0.13122
2921.63002,0.13374
2923.55849,0.13582
2925.48696,0.13636
2927.41542,0.13588
2929.34389,0.13695
2931.27236,0.13710
2933.20083,0.13288
2935.12930,0.12737
2937.05777,0.12459
2938.98624,0.12619
2940.91471,0.13020
2942.84317,0.13405
2944.77164,0.13663
2946.70011,0.13632
2948.62858,0.13516
2950.55705,0.13448
2952.48552,0.13408
2954.41399,0.13496
2956.34245,0.13366
2958.27092,0.13058
2960.19939,0.13199
2962.12786,0.13676
2964.05633,0.13936
2965.98480,0.13794
2967.91327,0.13530
2969.84174,0.13633
2971.77020,0.14094
2973.69867,0.14413
2975.62714,0.14250
2977.55561,0.13692
2979.48408,0.13236
2981.41255,0.13265
2983.34102,0.13573
2985.26948,0.13778
2987.19795,0.13743
2989.12642,0.13633
2991.05489,0.13745
2992.98336,0.13886
2994.91183,0.13738
2996.84030,0.13660
2998.76877,0.13939
3000.69723,0.14289
3002.62570,0.14421
3004.55417,0.14214
3006.48264,0.13807
3008.41111,0.13569
3010.33958,0.13451
3012.26805,0.12910
3014.19651,0.11766
3016.12498,0.10830
3018.05345,0.11197
3019.98192,0.12680
3021.91039,0.13911
3023.83886,0.14181
3025.76733,0.13899
3027.69579,0.13709
3029.62426,0.13876
3031.55273,0.14053
3033.48120,0.14055
3035.40967,0.14198
3037.33814,0.14380
3039.26661,0.14363
3041.19508,0.14204
3043.12354,0.14051
3045.05201,0.14020
3046.98048,0.14118
3048.90895,0.14436
3050.83742,0.14832
3052.76589,0.14782
3054.69436,0.14067
3056.62282,0.13300
3058.55129,0.13173
3060.47976,0.13392
3062.40823,0.13553
3064.33670,0.13696
3066.26517,0.13649
3068.19364,0.13458
3070.12211,0.13545
3072.05057,0.13808
3073.97904,0.13772
3075.90751,0.13608
3077.83598,0.13793
3079.76445,0.14166
3081.69292,0.14166
3083.62139,0.13533
3085.54985,0.13089
3087.47832,0.13551
3089.40679,0.14010
3091.33526,0.13813
3093.26373,0.13415
3095.19220,0.13347
3097.12067,0.13865
3099.04914,0.14577
3100.97760,0.14762
3102.90607,0.14246
3104.83454,0.13903
3106.76301,0.14231
3108.69148,0.14534
3110.61995,0.14413
3112.54842,0.14140
3114.47688,0.14037
3116.40535,0.14008
3118.33382,0.13819
3120.26229,0.13714
3122.19076,0.13845
3124.11923,0.13942
3126.04770,0.13973
3127.97617,0.14156
3129.90463,0.14227
3131.83310,0.14018
3133.76157,0.14051
3135.69004,0.14399
3137.61851,0.14470
3139.54698,0.14206
3141.47545,0.14048
3143.40391,0.14045
3145.33238,0.14089
3147.26085,0.14253
3149.18932,0.14411
3151.11779,0.14347
3153.04626,0.14206
3154.97473,0.14132
3156.90320,0.13956
3158.83166,0.13780
3160.76013,0.13964
3162.68860,0.14435
3164.61707,0.14893
3166.54554,0.15224
3168.47401,0.15253
3170.40248,0.14972
3172.33094,0.14698
3174.25941,0.14496
3176.18788,0.14281
3178.11635,0.14252
3180.04482,0.14580
3181.97329,0.15040
3183.90176,0.15286
3185.83022,0.15200
3187.75869,0.14791
3189.68716,0.14170
3191.61563,0.13782
3193.54410,0.13881
3195.47257,0.14190
3197.40104,0.14454
3199.32951,0.14428
3201.25797,0.14064
3203.18644,0.13790
3205.11491,0.13825
3207.04338,0.14009
3208.97185,0.14243
3210.90032,0.14557
3212.82879,0.14843
3214.75725,0.14803
3216.68572,0.14473
3218.61419,0.14213
3220.54266,0.14147
3222.47113,0.14297
3224.39960,0.14461
3226.32807,0.14338
3228.25654,0.14206
3230.18500,0.14175
3232.11347,0.14036
3234.04194,0.14003
3235.97041,0.14115
3237.89888,0.14134
3239.82735,0.14138
3241.75582,0.14326
3243.68428,0.14526
3245.61275,0.14510
3247.54122,0.14528
3249.46969,0.14692
3251.39816,0.14667
3253.32663,0.14399
3255.25510,0.14243
3257.18357,0.14325
3259.11203,0.14320
3261.04050,0.14028
3262.96897,0.13705
3264.89744,0.13687
3266.82591,0.13923
3268.75438,0.14084
3270.68285,0.14123
3272.61131,0.14301
3274.53978,0.14691
3276.46825,0.14969
3278.39672,0.14999
3280.32519,0.14974
3282.25366,0.14771
3284.18213,0.14410
3286.11060,0.14200
3288.03906,0.14182
3289.96753,0.14297
3291.89600,0.14413
3293.82447,0.14462
3295.75294,0.14370
3297.68141,0.14128
3299.60988,0.14048
3301.53834,0.14300
3303.46681,0.14729
3305.39528,0.14884
3307.32375,0.14503
3309.25222,0.13947
3311.18069,0.13625
3313.10916,0.13480
3315.03763,0.13453
3316.96609,0.13743
3318.89456,0.14117
3320.82303,0.14205
3322.75150,0.14216
3324.67997,0.14441
3326.60844,0.14815
3328.53691,0.15010
3330.46537,0.14846
3332.39384,0.14742
3334.32231,0.15002
3336.25078,0.15184
3338.17925,0.15051
3340.10772,0.14975
3342.03619,0.14941
3343.96466,0.14601
3345.89312,0.14211
3347.82159,0.14139
3349.75006,0.14176
3351.67853,0.14170
3353.60700,0.14359
3355.53547,0.14725
3357.46394,0.14909
3359.39240,0.14888
3361.32087,0.14720
3363.24934,0.14609
3365.17781,0.14737
3367.10628,0.14630
3369.03475,0.14415
3370.96322,0.14524
3372.89168,0.14564
3374.82015,0.14421
3376.74862,0.14344
3378.67709,0.14206
3380.60556,0.13940
3382.53403,0.13702
3384.46250,0.13676
3386.39097,0.13944
3388.31943,0.14203
3390.24790,0.14266
3392.17637,0.14317
3394.10484,0.14420
3396.03331,0.14565
3397.96178,0.14844
3399.89025,0.14991
3401.81871,0.14618
3403.74718,0.14139
3405.67565,0.14077
3407.60412,0.14183
3409.53259,0.14131
3411.46106,0.14089
3413.38953,0.14223
3415.31800,0.14328
3417.24646,0.14365
3419.17493,0.14176
3421.10340,0.13485
3423.03187,0.12906
3424.96034,0.13046
3426.88881,0.13468
3428.81728,0.13511
3430.74574,0.13284
3432.67421,0.13344
3434.60268,0.13675
3436.53115,0.13937
3438.45962,0.13876
3440.38809,0.13401
3442.31656,0.12963
3444.24503,0.12900
3446.17349,0.12955
3448.10196,0.13111
3450.03043,0.13586
3451.95890,0.13919
3453.88737,0.13650
3455.81584,0.13246
3457.74431,0.13035
3459.67277,0.12809
3461.60124,0.12746
3463.52971,0.13078
3465.45818,0.13439
3467.38665,0.13618
3469.31512,0.13740
3471.24359,0.13711
3473.17206,0.13555
3475.10052,0.13257
3477.02899,0.12847
3478.95746,0.12602
3480.88593,0.12489
3482.81440,0.12463
3484.74287,0.12669
3486.67134,0.12774
3488.59980,0.12295
3490.52827,0.11879
3492.45674,0.12184
3494.38521,0.12403
3496.31368,0.12003
3498.24215,0.11828
3500.17062,0.12378
3502.09909,0.13035
3504.02755,0.13040
3505.95602,0.12450
3507.88449,0.11857
3509.81296,0.11500
3511.74143,0.11366
3513.66990,0.11371
3515.59837,0.11419
3517.52683,0.11532
3519.45530,0.11609
3521.38377,0.11590
3523.31224,0.11630
3525.24071,0.11689
3527.16918,0.11589
3529.09765,0.11503
3531.02611,0.11631
3532.95458,0.11718
3534.88305,0.11594
3536.81152,0.11405
3538.73999,0.11338
3540.66846,0.11394
3542.59693,0.11577
3544.52540,0.11876
3546.45386,0.11872
3548.38233,0.11416
3550.31080,0.11259
3552.23927,0.11755
3554.16774,0.12038
3556.09621,0.11565
3558.02468,0.10888
3559.95314,0.10599
3561.88161,0.10930
3563.81008,0.11608
3565.73855,0.12173
3567.66702,0.12213
3569.59549,0.11524
3571.52396,0.10825
3573.45243,0.10784
3575.38089,0.10831
3577.30936,0.10440
3579.23783,0.10234
3581.16630,0.10276
3583.09477,0.10354
3585.02324,0.10844
3586.95171,0.11688
3588.88017,0.11755
3590.80864,0.11213
3592.73711,0.10931
3594.66558,0.10746
3596.59405,0.10532
3598.52252,0.10442
3600.45099,0.10232
3602.37946,0.09933
3604.30792,0.10086
3606.23639,0.10537
3608.16486,0.10531
3610.09333,0.10274
3612.02180,0.10526
3613.95027,0.10955
3615.87874,0.10942
3617.80720,0.10768
3619.73567,0.10631
3621.66414,0.10139
3623.59261,0.09617
3625.52108,0.09543
3627.44955,0.09851
3629.37802,0.10044
3631.30649,0.09984
3633.23495,0.09937
3635.16342,0.09743
3637.09189,0.09425
3639.02036,0.09160
3640.94883,0.08984
3642.87730,0.09040
3644.80577,0.09382
3646.73423,0.09942
3648.66270,0.10656
3650.59117,0.10574
3652.51964,0.09725
3654.44811,0.09136
3656.37658,0.09019
3658.30505,0.09149
3660.23352,0.09276
3662.16198,0.09193
3664.09045,0.08902
3666.01892,0.08758
3667.94739,0.08701
3669.87586,0.08718
3671.80433,0.09288
3673.73280,0.10056
3675.66126,0.10253
3677.58973,0.09615
3679.51820,0.09136
3681.44667,0.09106
3683.37514,0.09305
3685.30361,0.09517
3687.23208,0.09755
3689.16055,0.09701
3691.08901,0.09191
3693.01748,0.08956
3694.94595,0.08832
3696.87442,0.08422
3698.80289,0.08102
3700.73136,0.08471
3702.65983,0.09127
3704.58829,0.09268
3706.51676,0.09180
3708.44523,0.09343
3710.37370,0.09575
3712.30217,0.09040
3714.23064,0.08344
3716.15911,0.08291
3718.08757,0.08566
3720.01604,0.08654
3721.94451,0.08531
3723.87298,0.08561
3725.80145,0.08654
3727.72992,0.08649
3729.65839,0.08796
3731.58686,0.09310
3733.51532,0.09890
3735.44379,0.09761
3737.37226,0.09181
3739.30073,0.09102
3741.22920,0.09518
3743.15767,0.10055
3745.08614,0.10457
3747.01460,0.10696
3748.94307,0.10785
3750.87154,0.10506
3752.80001,0.09830
3754.72848,0.09222
3756.65695,0.08867
3758.58542,0.08618
3760.51389,0.08327
3762.44235,0.08282
3764.37082,0.08479
3766.29929,0.08664
3768.22776,0.08943
3770.15623,0.09132
3772.08470,0.08687
3774.01317,0.08057
3775.94163,0.07851
3777.87010,0.08227
3779.79857,0.08782
3781.72704,0.08900
3783.65551,0.08859
3785.58398,0.08913
3787.51245,0.08791
3789.44092,0.08540
3791.36938,0.08411
3793.29785,0.08384
3795.22632,0.08500
3797.15479,0.08824
3799.08326,0.09196
3801.01173,0.09547
3802.94020,0.09577
3804.86866,0.09478
3806.79713,0.09430
3808.72560,0.09126
3810.65407,0.08839
3812.58254,0.08786
3814.51101,0.08960
3816.43948,0.09475
3818.36795,0.10130
3820.29641,0.10279
3822.22488,0.09218
3824.15335,0.08011
3826.08182,0.07443
3828.01029,0.07554
3829.93876,0.08149
3831.86723,0.08627
3833.79569,0.08752
3835.72416,0.08970
3837.65263,0.09410
3839.58110,0.09369
3841.50957,0.08487
3843.43804,0.07647
3845.36651,0.07528
3847.29498,0.07692
3849.22344,0.07798
3851.15191,0.08147
3853.08038,0.09140
3855.00885,0.09749
3856.93732,0.09420
3858.86579,0.08983
3860.79426,0.08878
3862.72272,0.09132
3864.65119,0.09112
3866.57966,0.08883
3868.50813,0.08947
3870.43660,0.08972
3872.36507,0.08479
3874.29354,0.07799
3876.22200,0.07474
3878.15047,0.07440
3880.07894,0.07424
3882.00741,0.07475
3883.93588,0.07539
3885.86435,0.07458
3887.79282,0.07513
3889.72129,0.08143
3891.64975,0.09078
3893.57822,0.09082
3895.50669,0.08553
3897.43516,0.08495
3899.36363,0.08774
3901.29210,0.09129
3903.22057,0.09257
3905.14903,0.08581
3907.07750,0.07810
3909.00597,0.07575
3910.93444,0.07565
3912.86291,0.07508
3914.79138,0.07631
3916.71985,0.08029
3918.64832,0.08195
3920.57678,0.07905
3922.50525,0.07628
3924.43372,0.07697
3926.36219,0.07962
3928.29066,0.08125
3930.21913,0.08129
3932.14760,0.08101
3934.07606,0.07923
3936.00453,0.07472
3937.93300,0.07138
3939.86147,0.07238
3941.78994,0.07505
3943.71841,0.07767
3945.64688,0.08151
3947.57535,0.08326
3949.50381,0.07995
3951.43228,0.07529
3953.36075,0.07270
3955.28922,0.07183
3957.21769,0.07175
3959.14616,0.07158
3961.07463,0.07053
3963.00309,0.06865
3964.93156,0.06797
3966.86003,0.07084
3968.78850,0.07471
3970.71697,0.07473
3972.64544,0.07259
3974.57391,0.07301
3976.50238,0.07419
3978.43084,0.07422
3980.35931,0.07421
3982.28778,0.07423
3984.21625,0.07597
3986.14472,0.07697
3988.07319,0.07475
3990.00166,0.07389
3991.93012,0.07355
3993.85859,0.07153
3995.78706,0.07328
3997.71553,0.07775
3999.64400,0.07804
4001.57247,0.07332
4003.50094,0.06584
4005.42941,0.06016
4007.35787,0.05931
4009.28634,0.05965
4011.21481,0.05950
4013.14328,0.06133
4015.07175,0.06550
4017.00022,0.06914
4018.92869,0.06951
4020.85715,0.06776
4022.78562,0.06698
4024.71409,0.06709
4026.64256,0.06626
4028.57103,0.06431
4030.49950,0.06291
4032.42797,0.06497
4034.35644,0.06888
4036.28490,0.06997
4038.21337,0.06963
4040.14184,0.06905
4042.07031,0.06678
4043.99878,0.06653
4045.92725,0.06913
4047.85572,0.06954
4049.78418,0.06786
4051.71265,0.06522
4053.64112,0.06116
4055.56959,0.05948
4057.49806,0.06012
4059.42653,0.05945
4061.35500,0.05975
4063.28346,0.06207
4065.21193,0.06413
4067.14040,0.06552
4069.06887,0.06573
4070.99734,0.06492
4072.92581,0.06474
4074.85428,0.06544
4076.78275,0.06444
4078.71121,0.06194
4080.63968,0.06201
4082.56815,0.06419
4084.49662,0.06470
4086.42509,0.06308
4088.35356,0.06247
4090.28203,0.06379
4092.21049,0.06426
4094.13896,0.06352
4096.06743,0.06202
4097.99590,0.06069
4099.92437,0.06303
4101.85284,0.06624
4103.78131,0.06552
4105.70978,0.06356
4107.63824,0.06186
4109.56671,0.06023
4111.49518,0.06221
4113.42365,0.06575
4115.35212,0.06382
4117.28059,0.05912
4119.20906,0.05750
4121.13752,0.05798
4123.06599,0.05952
4124.99446,0.05919
4126.92293,0.05340
4128.85140,0.04645
4130.77987,0.04577
4132.70834,0.05099
4134.63681,0.05455
4136.56527,0.05607
4138.49374,0.05896
4140.42221,0.05918
4142.35068,0.05661
4144.27915,0.05687
4146.20762,0.05925
4148.13609,0.05856
4150.06455,0.05498
4151.99302,0.05271
4153.92149,0.05178
4155.84996,0.05092
4157.77843,0.05111
4159.70690,0.05214
4161.63537,0.05426
4163.56384,0.05642
4165.49230,0.05612
4167.42077,0.05565
4169.34924,0.05652
4171.27771,0.05538
4173.20618,0.05165
4175.13465,0.04821
4177.06312,0.04704
4178.99158,0.04758
4180.92005,0.04859
4182.84852,0.05193
4184.77699,0.05771
4186.70546,0.05991
4188.63393,0.05651
4190.56240,0.05319
4192.49087,0.05139
4194.41933,0.04934
4196.34780,0.04859
4198.27627,0.04802
4200.20474,0.04485
4202.13321,0.04318
4204.06168,0.04540
4205.99015,0.04615
4207.91861,0.04519
4209.84708,0.04651
4211.77555,0.04953
4213.70402,0.05127
4215.63249,0.04878
4217.56096,0.04441
4219.48943,0.04325
4221.41789,0.04385
4223.34636,0.04276
4225.27483,0.04114
4227.20330,0.04142
4229.13177,0.04311
4231.06024,0.04469
4232.98871,0.04807
4234.91718,0.05409
4236.84564,0.05694
4238.77411,0.05176
4240.70258,0.04464
4242.63105,0.04437
4244.55952,0.04735
4246.48799,0.04899
4248.41646,0.05110
4250.34492,0.05173
4252.27339,0.05135
4254.20186,0.05242
4256.13033,0.05202
4258.05880,0.04719
4259.98727,0.04043
4261.91574,0.03837
4263.84421,0.04149
4265.77267,0.04315
4267.70114,0.04163
4269.62961,0.03954
4271.55808,0.03747
4273.48655,0.03803
4275.41502,0.04344
4277.34349,0.04798
4279.27195,0.04591
4281.20042,0.04157
4283.12889,0.04124
4285.05736,0.04221
4286.98583,0.04065
4288.91430,0.03970
4290.84277,0.04176
4292.77124,0.04327
4294.69970,0.04126
4296.62817,0.03801
4298.55664,0.03882
4300.48511,0.04423
4302.41358,0.04817
4304.34205,0.04811
4306.27052,0.04588
4308.19898,0.04259
4310.12745,0.03716
4312.05592,0.03204
4313.98439,0.03405
4315.91286,0.03777
4317.84133,0.03409
4319.76980,0.02729
4321.69827,0.02493
4323.62673,0.02794
4325.55520,0.03129
4327.48367,0.03227
4329.41214,0.03193
4331.34061,0.02965
4333.26908,0.02816
4335.19755,0.03076
4337.12601,0.03234
4339.05448,0.02901
4340.98295,0.02588
4342.91142,0.02771
4344.83989,0.03345
4346.76836,0.03787
4348.69683,0.03728
4350.62530,0.03421
4352.55376,0.02901
4354.48223,0.02197
4356.41070,0.02060
4358.33917,0.02228
4360.26764,0.01988
4362.19611,0.02007
4364.12458,0.02515
4366.05304,0.02840
4367.98151,0.02829
4369.90998,0.02733
4371.83845,0.02697
4373.76692,0.02694
4375.69539,0.02692
4377.62386,0.02780
4379.55232,0.02929
4381.48079,0.02809
4383.40926,0.02552
4385.33773,0.02572
4387.26620,0.02640
4389.19467,0.02568
4391.12314,0.02410
4393.05161,0.02091
4394.98007,0.01754
4396.90854,0.01716
4398.83701,0.02084
4400.76548,0.02514
4402.69395,0.02564
4404.62242,0.02347
4406.55089,0.02325
4408.47935,0.02340
4410.40782,0.02016
4412.33629,0.01883
4414.26476,0.02001
4416.19323,0.01805
4418.12170,0.01738
4420.05017,0.01856
4421.97864,0.01680
4423.90710,0.01530
4425.83557,0.01497
4427.76404,0.01545
4429.69251,0.01874
4431.62098,0.01967
4433.54945,0.01382
4435.47792,0.00988
4437.40638,0.01373
4439.33485,0.01688
4441.26332,0.01558
4443.19179,0.01554
4445.12026,0.01593
4447.04873,0.01260
4448.97720,0.00872
4450.90567,0.00779
4452.83413,0.00761
4454.76260,0.00597
4456.69107,0.00594
4458.61954,0.01142
4460.54801,0.01575
4462.47648,0.01342
4464.40495,0.01141
4466.33341,0.00994
4468.26188,0.00546
4470.19035,0.00278
4472.11882,0.00485
4474.04729,0.00979
4475.97576,0.01419
4477.90423,0.01413
4479.83270,0.01105
4481.76116,0.01051
4483.68963,0.01310
4485.61810,0.01540
4487.54657,0.01825
4489.47504,0.02439
4491.40351,0.02911
4493.33198,0.02676
4495.26044,0.02107
4497.18891,0.01740
4499.11738,0.01763
4501.04585,0.01881
4502.97432,0.01477
4504.90279,0.00877
4506.83126,0.00890
4508.75973,0.01054
4510.68819,0.01003
4512.61666,0.01109
4514.54513,0.00752
4516.47360,0.00028
4518.40207,0.00027
4520.33054,0.00603
4522.25901,0.01130
4524.18747,0.01303
4526.11594,0.01320
4528.04441,0.01518
4529.97288,0.01307
4531.90135,0.00511
4533.82982,0.00136
4535.75829,0.00439
4537.68676,0.00700
4539.61522,0.00514
4541.54369,0.00310
4543.47216,0.00644
4545.40063,0.00824
4547.32910,0.00288
4549.25757,0.00215
4551.18604,0.00902
4553.11450,0.01068
4555.04297,0.00619
4556.97144,0.00392
4558.89991,0.00808
4560.82838,0.01275
4562.75685,0.00544
4564.68532,-0.00439
4566.61378,0.00222
4568.54225,0.01424
4570.47072,0.01331
4572.39919,0.00359
4574.32766,-0.00188
4576.25613,0.00254
4578.18460,0.01135
4580.11307,0.01267
4582.04153,0.00742
4583.97000,0.00679
4585.89847,0.00643
4587.82694,0.00089
4589.75541,-0.00051
4591.68388,0.00411
4593.61235,0.01124
4595.54081,0.01875
4597.46928,0.01787
4599.39775,0.01038
4601.32622,0.00749
4603.25469,0.01020
4605.18316,0.01436
4607.11163,0.01705
4609.04010,0.01662
4610.96856,0.01439
4612.89703,0.01205
4614.82550,0.00944
4616.75397,0.00581
4618.68244,0.00024
4620.61091,-0.00753
4622.53938,-0.01204
4624.46784,-0.00852
4626.39631,-0.00234
4628.32478,0.00141
4630.25325,0.00309
4632.18172,0.00189
4634.11019,-0.00183
4636.03866,-0.00271
4637.96713,0.00404
4639.89559,0.01046
4641.82406,0.00802
4643.75253,0.00329
4645.68100,0.00313
4647.60947,0.00435
4649.53794,0.00246
4651.46641,0.00048
4653.39487,0.00277
4655.32334,0.00575
4657.25181,0.00946
4659.18028,0.01660
4661.10875,0.01942
4663.03722,0.01126
4664.96569,-0.00158
4666.89416,-0.00567
4668.82262,0.00129
4670.75109,0.00920
4672.67956,0.01206
4674.60803,0.00915
4676.53650,0.00270
4678.46497,-0.00074
4680.39344,0.00538
4682.32190,0.01497
4684.25037,0.01383
4686.17884,0.00395
4688.10731,0.00010
4690.03578,0.00318
4691.96425,0.00292
4693.89272,-0.00017
4695.82119,-0.00062
4697.74965,-0.00163
4699.67812,-0.00607
4701.60659,-0.00621
4703.53506,0.00098
4705.46353,0.00710
4707.39200,0.00868
4709.32047,0.00856
4711.24893,0.00754
4713.17740,0.00337
4715.10587,-0.00279
4717.03434,-0.00536
4718.96281,-0.00423
4720.89128,-0.00300
4722.81975,0.00056
4724.74821,0.00537
4726.67668,0.00284
4728.60515,-0.00480
4730.53362,-0.00645
4732.46209,-0.00116
4734.39056,0.00004
4736.31903,-0.00561
4738.24750,-0.00760
4740.17596,-0.00318
4742.10443,0.00109
4744.03290,0.00586
4745.96137,0.01599
4747.88984,0.02448
4749.81831,0.02211
4751.74678,0.01633
4753.67524,0.01678
4755.60371,0.01985
4757.53218,0.01850
4759.46065,0.01074
4761.38912,0.00165
4763.31759,0.00082
4765.24606,0.00745
4767.17453,0.01037
4769.10299,0.00847
4771.03146,0.00865
4772.95993,0.00867
4774.88840,0.00575
4776.81687,0.00028
4778.74534,-0.00823
4780.67381,-0.01012
4782.60227,0.00152
4784.53074,0.01605
4786.45921,0.02248
4788.38768,0.02065
4790.31615,0.01270
4792.24462,0.00163
4794.17309,-0.00458
4796.10156,-0.00351
4798.03002,0.00018
4799.95849,0.00337
4801.88696,0.00006
4803.81543,-0.00892
4805.74390,-0.00863
4807.67237,0.00008
4809.60084,0.00298
4811.52930,0.00387
4813.45777,0.00748
4815.38624,0.00866
4817.31471,0.00415
4819.24318,-0.00233
4821.17165,-0.00232
4823.10012,0.00017
4825.02859,-0.00097
4826.95705,0.00084
4828.88552,0.00775
4830.81399,0.01349
4832.74246,0.01472
4834.67093,0.01142
4836.59940,0.00507
4838.52787,-0.00055
4840.45633,-0.00439
4842.38480,-0.00532
4844.31327,-0.00167
4846.24174,0.00282
4848.17021,0.00395
4850.09868,0.00015
4852.02715,-0.00257
4853.95562,0.00089
4855.88408,0.00068
4857.81255,-0.00587
4859.74102,-0.00582
4861.66949,0.00473
4863.59796,0.01353
4865.52643,0.01156
4867.45490,0.00409
4869.38336,-0.00123
4871.31183,-0.00352
4873.24030,-0.00363
4875.16877,-0.00361
4877.09724,-0.00107
4879.02571,0.00930
4880.95418,0.01501
4882.88265,0.00432
4884.81111,-0.00935
4886.73958,-0.01322
4888.66805,-0.01226
4890.59652,-0.00922
4892.52499,-0.00241
4894.45346,0.00133
4896.38193,-0.00073
4898.31039,-0.00166
4900.23886,-0.00055
4902.16733,-0.00134
4904.09580,0.00347
4906.02427,0.01767
4907.95274,0.02494
4909.88121,0.01683
4911.80967,0.00501
4913.73814,-0.00034
4915.66661,-0.00236
4917.59508,-0.00412
4919.52355,-0.00248
4921.45202,-0.00064
4923.38049,-0.00445
4925.30896,-0.00775
4927.23742,-0.00218
4929.16589,0.00580
4931.09436,0.00657
4933.02283,0.00275
4934.95130,0.00406
4936.87977,0.01113
4938.80824,0.01500
4940.73670,0.01315
4942.66517,0.00743
4944.59364,0.00122
4946.52211,0.00080
4948.45058,0.00312
4950.37905,0.00629
4952.30752,0.01402
4954.23599,0.01764
4956.16445,0.01090
4958.09292,0.00778
4960.02139,0.01728
4961.94986,0.02557
4963.87833,0.01840
4965.80680,-0.00014
4967.73527,-0.01459
4969.66373,-0.01774
4971.59220,-0.01347
4973.52067,-0.00483
4975.44914,0.00107
4977.37761,0.00137
4979.30608,0.00308
4981.23455,0.01015
4983.16302,0.02120
4985.09148,0.02423
4987.01995,0.01902
4988.94842,0.02289
4990.87689,0.03296
4992.80536,0.03563
4994.73383,0.02917
4996.66230,0.01931
4998.59076,0.01506
5000.51923,0.01777
5002.44770,0.02255
5004.37617,0.02534
5006.30464,0.02580
5008.23311,0.02612
5010.16158,0.02287
5012.09005,0.01169
5014.01851,0.00126
5015.94698,0.00551
5017.87545,0.01720
5019.80392,0.02281
5021.73239,0.02656
5023.66086,0.03012
5025.58933,0.02975
5027.51779,0.02064
5029.44626,0.00199
5031.37473,-0.00774
5033.30320,0.00135
5035.23167,0.00853
5037.16014,0.00179
5039.08861,-0.00185
5041.01708,0.00266
5042.94554,0.00025
5044.87401,-0.00970
5046.80248,-0.01278
5048.73095,-0.00142
5050.65942,0.00906
5052.58789,0.00680
5054.51636,0.00142
5056.44482,0.00151
5058.37329,0.00657
5060.30176,0.00963
5062.23023,0.00871
5064.15870,0.00506
5066.08717,-0.00195
5068.01564,0.00238
5069.94410,0.02544
5071.87257,0.04291
5073.80104,0.03652
5075.72951,0.01579
5077.65798,-0.00075
5079.58645,0.00140
5081.51492,0.01894
5083.44339,0.03641
5085.37185,0.04281
5087.30032,0.04049
5089.22879,0.03794
5091.15726,0.03313
5093.08573,0.03023
5095.01420,0.03367
5096.94267,0.03554
5098.87113,0.03245
5100.79960,0.02477
5102.72807,0.01417
5104.65654,0.00727
5106.58501,0.01062
5108.51348,0.02363
5110.44195,0.03711
5112.37042,0.03944
5114.29888,0.03156
5116.22735,0.02818
5118.15582,0.03431
5120.08429,0.03569
5122.01276,0.02478
5123.94123,0.01820
5125.86970,0.02121
5127.79816,0.01558
5129.72663,0.00327
5131.65510,0.00841
5133.58357,0.03117
5135.51204,0.04466
5137.44051,0.03711
5139.36898,0.02222
5141.29745,0.01208
5143.22591,0.01022
5145.15438,0.02035
5147.08285,0.02900
5149.01132,0.02110
5150.93979,0.01123
5152.86826,0.01116
5154.79673,0.01600
5156.72519,0.02332
5158.65366,0.02966
5160.58213,0.02878
5162.51060,0.01622
5164.43907,0.00001
5166.36754,-0.00600
5168.29601,-0.00096
5170.22448,0.01727
5172.15294,0.04046
5174.08141,0.04203
5176.00988,0.02215
5177.93835,0.00583
5179.86682,0.00526
5181.79529,0.01250
5183.72376,0.02169
5185.65222,0.03532
5187.58069,0.04343
5189.50916,0.04348
5191.43763,0.04381
5193.36610,0.03892
5195.29457,0.02748
5197.22304,0.01841
5199.15151,0.01429
5201.07997,0.01790
5203.00844,0.03318
5204.93691,0.04711
5206.86538,0.04288
5208.79385,0.03105
5210.72232,0.02387
5212.65079,0.01783
5214.57925,0.01488
5216.50772,0.02312
5218.43619,0.03570
5220.36466,0.03052
5222.29313,0.01540
5224.22160,0.01117
5226.15007,0.01128
5228.07854,0.00902
5230.00700,0.01227
5231.93547,0.02443
5233.86394,0.03867
5235.79241,0.04623
5237.72088,0.04672
5239.64935,0.04194
5241.57782,0.03569
5243.50628,0.03082
5245.43475,0.02400
5247.36322,0.01744
5249.29169,0.02115
5251.22016,0.03708
5253.14863,0.05062
5255.07710,0.04300
5257.00556,0.01969
5258.93403,0.00625
5260.86250,0.00551
5262.79097,0.00142
5264.71944,-0.00718
5266.64791,-0.00965
5268.57638,-0.00208
5270.50485,0.01308
5272.43331,0.02510
5274.36178,0.03352
5276.29025,0.04611
5278.21872,0.05680
5280.14719,0.05712
5282.07566,0.04582
5284.00413,0.03432
5285.93259,0.03492
5287.86106,0.04009
5289.78953,0.04562
5291.71800,0.04576
5293.64647,0.03413
5295.57494,0.02161
5297.50341,0.01774
5299.43188,0.02427
5301.36034,0.03043
5303.28881,0.03241
5305.21728,0.04205
5307.14575,0.05179
5309.07422,0.04704
5311.00269,0.04446
5312.93116,0.05413
5314.85962,0.05682
5316.78809,0.04912
5318.71656,0.04191
5320.64503,0.03275
5322.57350,0.02143
5324.50197,0.00912
5326.43044,-0.00191
5328.35891,-0.00110
5330.28737,0.00797
5332.21584,0.01311
5334.14431,0.02144
5336.07278,0.04194
5338.00125,0.05924
5339.92972,0.06131
5341.85819,0.06341
5343.78665,0.06679
5345.71512,0.06124
5347.64359,0.05087
5349.57206,0.04101
5351.50053,0.03801
5353.42900,0.03503
5355.35747,0.02249
5357.28594,0.01946
5359.21440,0.03202
5361.14287,0.04820
5363.07134,0.05998
5364.99981,0.05963
5366.92828,0.04476
5368.85675,0.02120
5370.78522,0.00447
5372.71368,0.01266
5374.64215,0.03865
5376.57062,0.05828
5378.49909,0.06324
5380.42756,0.05805
5382.35603,0.04142
5384.28450,0.02010
5386.21297,0.01761
5388.14143,0.03121
5390.06990,0.03872
5391.99837,0.03914
5393.92684,0.03699
5395.85531,0.04034
5397.78378,0.04987
5399.71225,0.05097
5401.64071,0.04361
5403.56918,0.04270
5405.49765,0.04989
5407.42612,0.05434
5409.35459,0.05526
5411.28306,0.05941
5413.21153,0.06005
5415.13999,0.05184
5417.06846,0.04681
5418.99693,0.04401
5420.92540,0.03672
5422.85387,0.03694
5424.78234,0.04640
5426.71081,0.04856
5428.63928,0.05272
5430.56774,0.06891
5432.49621,0.07539
5434.42468,0.06558
5436.35315,0.04927
5438.28162,0.03415
5440.21009,0.03206
5442.13856,0.05413
5444.06702,0.07788
5445.99549,0.07116
5447.92396,0.05029
5449.85243,0.04374
5451.78090,0.04395
5453.70937,0.04405
5455.63784,0.04158
5457.56631,0.03716
5459.49477,0.04535
5461.42324,0.06057
5463.35171,0.05910
5465.28018,0.04581
5467.20865,0.04408
5469.13712,0.04941
5471.06559,0.04546
5472.99405,0.04235
5474.92252,0.04286
5476.85099,0.03650
5478.77946,0.03032
5480.70793,0.03080
5482.63640,0.04143
5484.56487,0.05234
5486.49334,0.04931
5488.42180,0.04920
5490.35027,0.05824
5492.27874,0.05612
5494.20721,0.04292
5496.13568,0.02831
5498.06415,0.01560
5499.99262,0.01077
5501.92108,0.01726
5503.84955,0.03384
5505.77802,0.04747
5507.70649,0.04410
5509.63496,0.03743
5511.56343,0.03708
5513.49190,0.03199
5515.42037,0.02274
5517.34883,0.02109
5519.27730,0.03871
5521.20577,0.06401
5523.13424,0.07530
5525.06271,0.07246
5526.99118,0.05550
5528.91965,0.03675
5530.84811,0.03831
5532.77658,0.04562
5534.70505,0.04580
5536.63352,0.05063
5538.56199,0.05869
5540.49046,0.06582
5542.41893,0.07304
5544.34740,0.07251
5546.27586,0.06891
5548.20433,0.06256
5550.13280,0.04420
5552.06127,0.02685
5553.98974,0.02452
5555.91821,0.03476
5557.84668,0.05399
5559.77514,0.07857
5561.70361,0.09052
5563.63208,0.07394
5565.56055,0.04513
5567.48902,0.03179
5569.41749,0.04173
5571.34596,0.05911
5573.27443,0.06558
5575.20289,0.05695
5577.13136,0.04439
5579.05983,0.04315
5580.98830,0.04883
5582.91677,0.04692
5584.84524,0.04742
5586.77371,0.05979
5588.70217,0.07339
5590.63064,0.07697
5592.55911,0.07190
5594.48758,0.06593
5596.41605,0.06218
5598.34452,0.06161
5600.27299,0.06626
5602.20145,0.07458
5604.12992,0.07324
5606.05839,0.05218
5607.98686,0.03347
5609.91533,0.04122
5611.84380,0.05812
5613.77227,0.05977
5615.70074,0.04703
5617.62920,0.02991
5619.55767,0.02706
5621.48614,0.03840
5623.41461,0.04940
5625.34308,0.05604
5627.27155,0.04975
5629.20002,0.04448
5631.12848,0.05923
5633.05695,0.08042
5634.98542,0.08780
5636.91389,0.07287
5638.84236,0.04759
5640.77083,0.03623
5642.69930,0.03793
5644.62777,0.03606
5646.55623,0.04471
5648.48470,0.07534
5650.41317,0.09708
5652.34164,0.08602
5654.27011,0.06552
5656.19858,0.05454
5658.12705,0.04503
5660.05551,0.04424
5661.98398,0.04269
5663.91245,0.03419
5665.84092,0.04542
5667.76939,0.06238
5669.69786,0.05378
5671.62633,0.02985
5673.55480,0.02080
5675.48326,0.02618
5677.41173,0.02345
5679.34020,0.01809
5681.26867,0.01589
5683.19714,0.01672
5685.12561,0.03318
5687.05408,0.04483
5688.98254,0.03685
5690.91101,0.04968
5692.83948,0.08747
5694.76795,0.10399
5696.69642,0.09568
5698.62489,0.08743
5700.55336,0.08165
5702.48183,0.08134
5704.41029,0.08094
5706.33876,0.06550
5708.26723,0.04498
5710.19570,0.04253
5712.12417,0.05952
5714.05264,0.06668
5715.98111,0.05411
5717.90957,0.04994
5719.83804,0.06369
5721.76651,0.07118
5723.69498,0.06250
5725.62345,0.05674
5727.55192,0.06282
5729.48039,0.06737
5731.40886,0.06360
5733.33732,0.05906
5735.26579,0.05528
5737.19426,0.05115
5739.12273,0.04689
5741.05120,0.03311
5742.97967,0.01447
5744.90814,0.00501
5746.83660,0.00449
5748.76507,0.01504
5750.69354,0.03140
5752.62201,0.04054
5754.55048,0.05533
5756.47895,0.07046
5758.40742,0.06295
5760.33588,0.04312
5762.26435,0.04031
5764.19282,0.06859
5766.12129,0.09494
5768.04976,0.08549
5769.97823,0.06398
5771.90670,0.06677
5773.83517,0.08110
5775.76363,0.07378
5777.69210,0.05266
5779.62057,0.03306
5781.54904,0.01981
5783.47751,0.02639
5785.40598,0.04911
5787.33445,0.07295
5789.26291,0.08262
5791.19138,0.07403
5793.11985,0.07685
5795.04832,0.09861
5796.97679,0.10656
5798.90526,0.08982
5800.83373,0.06792
5802.76220,0.06438
5804.69066,0.07265
5806.61913,0.05736
5808.54760,0.02491
5810.47607,0.01316
5812.40454,0.01839
5814.33301,0.02045
5816.26148,0.04233
5818.18994,0.08263
5820.11841,0.09647
5822.04688,0.08370
5823.97535,0.06974
5825.90382,0.05594
5827.83229,0.04302
5829.76076,0.04538
5831.68923,0.06083
5833.61769,0.06304
5835.54616,0.04767
5837.47463,0.02606
5839.40310,0.00662
5841.33157,0.01755
5843.26004,0.06270
5845.18851,0.10205
5847.11697,0.11409
5849.04544,0.10691
5850.97391,0.09734
5852.90238,0.08548
5854.83085,0.07181
5856.75932,0.07895
5858.68779,0.09418
5860.61626,0.08019
5862.54472,0.05751
5864.47319,0.06150
5866.40166,0.06216
5868.33013,0.04842
5870.25860,0.05450
5872.18707,0.06690
5874.11554,0.07163
5876.04400,0.08169
5877.97247,0.09603
5879.90094,0.11293
5881.82941,0.10461
5883.75788,0.05965
5885.68635,0.03922
5887.61482,0.06353
5889.54329,0.08829
5891.47175,0.11336
5893.40022,0.14549
5895.32869,0.13964
5897.25716,0.08367
5899.18563,0.03414
5901.11410,0.02334
5903.04257,0.02831
5904.97103,0.02836
5906.89950,0.03166
5908.82797,0.04330
5910.75644,0.05883
5912.68491,0.07421
5914.61338,0.07517
5916.54185,0.06771
5918.47032,0.05561
5920.39878,0.02440
5922.32725,-0.00648
5924.25572,-0.00637
5926.18419,0.02328
5928.11266,0.04525
5930.04113,0.04493
5931.96960,0.04641
5933.89806,0.05639
5935.82653,0.06346
5937.75500,0.06205
5939.68347,0.06204
5941.61194,0.06204
5943.54041,0.04845
5945.46888,0.03511
5947.39734,0.04306
5949.32581,0.06379
5951.25428,0.07266
5953.18275,0.07241
5955.11122,0.07367
5957.03969,0.06946
5958.96816,0.05981
5960.89663,0.04899
5962.82509,0.03818
5964.75356,0.03916
5966.68203,0.05325
5968.61050,0.06011
5970.53897,0.05356
5972.46744,0.04228
5974.39591,0.03952
5976.32437,0.05237
5978.25284,0.05511
5980.18131,0.03899
5982.10978,0.03581
5984.03825,0.05305
5985.96672,0.06719
5987.89519,0.06604
5989.82366,0.04852
5991.75212,0.02874
5993.68059,0.02519
5995.60906,0.03600
5997.53753,0.04872
5999.46600,0.06133
6001.39447,0.07566
6003.32294,0.08210
6005.25140,0.08774
6007.17987,0.10690
6009.10834,0.11511
6011.03681,0.09579
6012.96528,0.07015
6014.89375,0.05767
6016.82222,0.05540
6018.75069,0.05930
6020.67915,0.08143
6022.60762,0.10504
6024.53609,0.08771
6026.46456,0.03565
6028.39303,-0.00538
6030.32150,-0.01331
6032.24997,0.00082
6034.17843,0.02123
6036.10690,0.03312
6038.03537,0.02704
6039.96384,0.02526
6041.89231,0.05707
6043.82078,0.08251
6045.74925,0.06002
6047.67772,0.03510
6049.60618,0.04389
6051.53465,0.04375
6053.46312,0.01088
6055.39159,-0.01183
6057.32006,-0.00111
6059.24853,0.02422
6061.17700,0.05287
6063.10546,0.06169
6065.03393,0.03465
6066.96240,0.00293
6068.89087,-0.00097
6070.81934,0.02412
6072.74781,0.05608
6074.67628,0.07758
6076.60475,0.09624
6078.53321,0.10816
6080.46168,0.10590
6082.39015,0.10242
6084.31862,0.09353
6086.24709,0.07786
6088.17556,0.06297
6090.10403,0.05498
6092.03249,0.04442
6093.96096,0.01290
6095.88943,-0.00658
6097.81790,0.00512
6099.74637,0.02017
6101.67484,0.04076
6103.60331,0.07770
6105.53177,0.09783
6107.46024,0.08083
6109.38871,0.07635
6111.31718,0.11255
6113.24565,0.14106
6115.17412,0.14097
6117.10259,0.12812
6119.03106,0.08814
6120.95952,0.03150
6122.88799,0.01359
6124.81646,0.03868
6126.74493,0.06219
6128.67340,0.04346
6130.60187,0.00952
6132.53034,0.02582
6134.45880,0.06765
6136.38727,0.07244
6138.31574,0.06069
6140.24421,0.06729
6142.17268,0.08187
6144.10115,0.10277
6146.02962,0.10694
6147.95809,0.08099
6149.88655,0.06179
6151.81502,0.06636
6153.74349,0.07935
6155.67196,0.08526
6157.60043,0.06981
6159.52890,0.04293
6161.45737,0.04339
6163.38583,0.04987
6165.31430,0.00978
6167.24277,-0.02899
6169.17124,-0.01183
6171.09971,0.03472
6173.02818,0.05287
6174.95665,0.03458
6176.88512,0.03262
6178.81358,0.05195
6180.74205,0.04894
6182.67052,0.03822
6184.59899,0.03636
6186.52746,0.02795
6188.45593,0.02956
6190.38440,0.04263
6192.31286,0.04033
6194.24133,0.03226
6196.16980,0.03594
6198.09827,0.04104
6200.02674,0.03220
6201.95521,0.02545
6203.88368,0.03824
6205.81215,0.06137
6207.74061,0.08519
6209.66908,0.09699
6211.59755,0.09449
6213.52602,0.10231
6215.45449,0.11802
6217.38296,0.11477
6219.31143,0.09666
6221.23989,0.08350
6223.16836,0.06518
6225.09683,0.04460
6227.02530,0.05105
6228.95377,0.05837
6230.88224,0.03964
6232.81071,0.03024
6234.73918,0.03018
6236.66764,0.02845
6238.59611,0.06060
6240.52458,0.11234
6242.45305,0.12853
6244.38152,0.11125
6246.30999,0.08740
6248.23846,0.06367
6250.16692,0.05174
6252.09539,0.05043
6254.02386,0.04561
6255.95233,0.04133
6257.88080,0.03606
6259.80927,0.01627
6261.73774,-0.00545
6263.66621,0.00074
6265.59467,0.03092
6267.52314,0.06069
6269.45161,0.07486
6271.38008,0.06723
6273.30855,0.05810
6275.23702,0.05126
6277.16549,0.00973
6279.09395,-0.03940
6281.02242,-0.03175
6282.95089,0.02293
6284.87936,0.05696
6286.80783,0.03221
6288.73630,-0.01459
6290.66477,-0.02499
6292.59323,-0.01116
6294.52170,-0.01538
6296.45017,-0.00776
6298.37864,0.02983
6300.30711,0.04450
6302.23558,0.04114
6304.16405,0.08038
6306.09252,0.12919
6308.02098,0.12227
6309.94945,0.08034
6311.87792,0.04718
6313.80639,0.02104
6315.73486,0.02084
6317.66333,0.05861
6319.59180,0.09847
6321.52026,0.10332
6323.44873,0.07626
6325.37720,0.05540
6327.30567,0.04405
6329.23414,0.02281
6331.16261,0.00756
6333.09108,0.02798
6335.01955,0.07412
6336.94801,0.10274
6338.87648,0.08035
6340.80495,0.05104
6342.73342,0.07619
6344.66189,0.11274
6346.59036,0.11261
6348.51883,0.10854
6350.44729,0.11541
6352.37576,0.08728
6354.30423,0.02816
6356.23270,-0.00505
6358.16117,-0.00281
6360.08964,0.00882
6362.01811,0.01914
6363.94658,0.03377
6365.87504,0.05607
6367.80351,0.06882
6369.73198,0.06749
6371.66045,0.07413
6373.58892,0.07816
6375.51739,0.05520
6377.44586,0.02070
6379.37432,-0.00216
6381.30279,-0.00519
6383.23126,0.01180
6385.15973,0.03885
6387.08820,0.05975
6389.01667,0.06871
6390.94514,0.05877
6392.87361,0.04251
6394.80207,0.04646
6396.73054,0.04833
6398.65901,0.04951
6400.58748,0.06121
6402.51595,0.05345
6404.44442,0.05591
6406.37289,0.10967
6408.30135,0.15108
6410.22982,0.13056
6412.15829,0.07644
6414.08676,0.02085
6416.01523,0.00003
6417.94370,0.02409
6419.87217,0.05071
6421.80064,0.05699
6423.72910,0.05761
6425.65757,0.07542
6427.58604,0.11114
6429.51451,0.12837
6431.44298,0.11398
6433.37145,0.10518
6435.29992,0.11667
6437.22838,0.11875
6439.15685,0.10871
6441.08532,0.11437
6443.01379,0.10624
6444.94226,0.07142
6446.87073,0.07418
6448.79920,0.09468
6450.72766,0.06873
6452.65613,0.02873
6454.58460,0.00276
6456.51307,-0.02052
6458.44154,-0.00530
6460.37001,0.04079
6462.29848,0.03603
6464.22695,-0.01153
6466.15541,-0.02881
6468.08388,-0.02701
6470.01235,-0.01425
6471.94082,0.03304
6473.86929,0.07331
6475.79776,0.08100
6477.72623,0.07106
6479.65469,0.04074
6481.58316,0.01274
6483.51163,0.02662
6485.44010,0.05523
6487.36857,0.06008
6489.29704,0.04874
6491.22551,0.05926
6493.15398,0.08290
6495.08244,0.06218
6497.01091,0.02285
6498.93938,0.03233
6500.86785,0.08516
6502.79632,0.10241
6504.72479,0.06472
6506.65326,0.03478
6508.58172,0.04551
6510.51019,0.06812
6512.43866,0.05787
6514.36713,0.02529
6516.29560,0.00711
6518.22407,0.01560
6520.15254,0.04391
6522.08101,0.07356
6524.00947,0.08289
6525.93794,0.04338
6527.86641,-0.02184
6529.79488,-0.05544
6531.72335,-0.05869
6533.65182,-0.04739
6535.58029,-0.02441
6537.50875,0.00075
6539.43722,0.04303
6541.36569,0.08264
6543.29416,0.05716
6545.22263,-0.00237
6547.15110,-0.02144
6549.07957,-0.00529
6551.00804,0.00573
6552.93650,0.02046
6554.86497,0.06495
6556.79344,0.10255
6558.72191,0.08807
6560.65038,0.06430
6562.57885,0.09785
6564.50732,0.15598
6566.43578,0.19106
6568.36425,0.21457
6570.29272,0.18989
6572.22119,0.09536
6574.14966,0.03472
6576.07813,0.01476
6578.00660,-0.06339
6579.93507,-0.12322
6581.86353,-0.07504
6583.79200,-0.00267
6585.72047,0.03749
6587.64894,0.07006
6589.57741,0.08284
6591.50588,0.05753
6593.43435,0.04875
6595.36281,0.08310
6597.29128,0.07412
6599.21975,0.01298
6601.14822,-0.01951
6603.07669,-0.00737
6605.00516,-0.00744
6606.93363,-0.01482
6608.86210,0.04401
6610.79056,0.15254
6612.71903,0.17228
6614.64750,0.08659
6616.57597,0.00467
6618.50444,-0.02146
6620.43291,0.01721
6622.36138,0.08417
6624.28984,0.08938
6626.21831,0.02062
6628.14678,-0.04673
6630.07525,-0.05398
6632.00372,-0.01431
6633.93219,0.02232
6635.86066,0.02482
6637.78912,0.00217
6639.71759,0.00336
6641.64606,0.06093
6643.57453,0.13135
6645.50300,0.15301
6647.43147,0.14262
6649.35994,0.11286
6651.28841,0.07421
6653.21687,0.05750
6655.14534,0.05636
6657.07381,0.07229
6659.00228,0.11266
6660.93075,0.14540
6662.85922,0.13103
6664.78769,0.07638
6666.71615,0.03461
6668.64462,0.03866
6670.57309,0.07165
6672.50156,0.07395
6674.43003,0.04599
6676.35850,0.05838
6678.28697,0.09758
6680.21544,0.11173
6682.14390,0.08082
6684.07237,0.02735
6686.00084,-0.00431
6687.92931,-0.01880
6689.85778,-0.00464
6691.78625,0.06026
6693.71472,0.13042
6695.64318,0.15535
6697.57165,0.12765
6699.50012,0.08000
6701.42859,0.02533
6703.35706,-0.00837
6705.28553,-0.00310
6707.21400,-0.00077
6709.14247,0.00620
6711.07093,0.02736
6712.99940,0.01753
6714.92787,-0.03023
6716.85634,-0.08300
6718.78481,-0.10063
6720.71328,-0.06727
6722.64175,-0.00272
6724.57021,0.07535
6726.49868,0.13593
6728.42715,0.15869
6730.35562,0.15510
6732.28409,0.13481
6734.21256,0.10489
6736.14103,0.10169
6738.06950,0.14463
6739.99796,0.18803
6741.92643,0.17572
6743.85490,0.11940
6745.78337,0.07638
6747.71184,0.06646
6749.64031,0.08060
6751.56878,0.11725
6753.49724,0.14349
6755.42571,0.11641
6757.35418,0.09449
6759.28265,0.13617
6761.21112,0.15811
6763.13959,0.08823
6765.06806,0.00577
6766.99653,-0.03243
6768.92499,-0.03264
6770.85346,0.00555
6772.78193,0.04837
6774.71040,0.04855
6776.63887,0.01999
6778.56734,0.00963
6780.49581,0.02521
6782.42427,0.02085
6784.35274,-0.00504
6786.28121,0.00651
6788.20968,0.04766
6790.13815,0.08314
6792.06662,0.09951
6793.99509,0.06361
6795.92355,-0.00218
6797.85202,-0.00392
6799.78049,0.06938
6801.70896,0.11614
6803.63743,0.08924
6805.56590,0.07382
6807.49437,0.11601
6809.42284,0.17079
6811.35130,0.17724
6813.27977,0.10778
6815.20824,0.04655
6817.13671,0.04398
6819.06518,0.01416
6820.99365,-0.02349
6822.92212,-0.00116
6824.85058,0.01478
6826.77905,0.00557
6828.70752,0.01718
6830.63599,0.06672
6832.56446,0.12666
6834.49293,0.13062
6836.42140,0.06533
6838.34987,0.00184
6840.27833,-0.01871
6842.20680,-0.02288
6844.13527,-0.01681
6846.06374,0.03033
6847.99221,0.06912
6849.92068,0.05692
6851.84915,0.08716
6853.77761,0.16251
6855.70608,0.19594
6857.63455,0.16949
6859.56302,0.12429
6861.49149,0.06823
6863.41996,0.02603
6865.34843,0.01065
6867.27690,0.00304
6869.20536,-0.01373
6871.13383,-0.08483
6873.06230,-0.18438
6874.99077,-0.16326
6876.91924,0.01102
6878.84771,0.22642
6880.77618,0.29188
6882.70464,0.17454
6884.63311,0.05542
6886.56158,0.03184
6888.49005,0.06189
6890.41852,0.08405
6892.34699,0.06441
6894.27546,0.04207
6896.20393,0.06376
6898.13239,0.05600
6900.06086,-0.02500
6901.98933,-0.09403
6903.91780,-0.07273
6905.84627,0.02854
6907.77474,0.09017
6909.70321,0.07485
6911.63167,0.03224
6913.56014,-0.00047
6915.48861,0.02188
6917.41708,0.11354
6919.34555,0.20130
6921.27402,0.16428
6923.20249,0.04920
6925.13096,0.00176
6927.05942,0.03755
6928.98789,0.10051
6930.91636,0.13932
6932.84483,0.09552
6934.77330,0.02308
6936.70177,0.00117
6938.63024,0.02165
6940.55870,0.06056
6942.48717,0.09397
6944.41564,0.07664
6946.34411,0.00750
6948.27258,-0.03337
6950.20105,-0.03794
6952.12952,-0.07422
6954.05799,-0.11833
6955.98645,-0.07715
6957.91492,-0.01019
6959.84339,-0.02408
6961.77186,-0.04376
6963.70033,0.01510
6965.62880,0.09842
6967.55727,0.14243
6969.48573,0.15849
6971.41420,0.13913
6973.34267,0.01855
6975.27114,-0.12407
6977.19961,-0.12327
6979.12808,-0.01503
6981.05655,0.06706
6982.98501,0.07435
6984.91348,0.05675
6986.84195,0.05671
6988.77042,0.07264
6990.69889,0.08608
6992.62736,0.08478
6994.55583,0.05282
6996.48430,0.01204
6998.41276,0.01693
7000.34123,0.03486
7002.26970,0.03482
7004.19817,0.03559
7006.12664,0.04317
7008.05511,0.06599
7009.98358,0.07801
7011.91204,0.06231
7013.84051,0.03262
7015.76898,0.03689
7017.69745,0.11512
7019.62592,0.16421
7021.55439,0.09158
7023.48286,0.00037
7025.41133,0.00758
7027.33979,0.08122
7029.26826,0.07738
7031.19673,-0.00619
7033.12520,-0.05442
7035.05367,-0.06670
7036.98214,-0.01796
7038.91061,0.08253
7040.83907,0.15255
7042.76754,0.17543
7044.69601,0.19555
7046.62448,0.19235
7048.55295,0.13081
7050.48142,0.04551
7052.40989,-0.01477
7054.33836,-0.06175
7056.26682,-0.10937
7058.19529,-0.08530
7060.12376,-0.00462
7062.05223,0.04863
7063.98070,0.03468
7065.90917,-0.00501
7067.83764,0.01673
7069.76610,0.06006
7071.69457,0.05967
7073.62304,0.07143
7075.55151,0.10040
7077.47998,0.11308
7079.40845,0.13132
7081.33692,0.15705
7083.26539,0.15020
7085.19385,0.17135
7087.12232,0.19506
7089.05079,0.12029
7090.97926,0.06728
7092.90773,0.08850
7094.83620,0.05514
7096.76467,-0.00015
7098.69313,0.01470
7100.62160,0.01849
7102.55007,-0.01509
7104.47854,0.01685
7106.40701,0.10952
7108.33548,0.16183
7110.26395,0.14106
7112.19242,0.02444
7114.12088,-0.08065
7116.04935,-0.04494
7117.97782,0.04991
7119.90629,0.11442
7121.83476,0.14534
7123.76323,0.10220
7125.69170,0.04271
7127.62016,0.00974
7129.54863,-0.03378
7131.47710,-0.07188
7133.40557,-0.09239
7135.33404,-0.11144
7137.26251,-0.05945
7139.19098,0.03467
7141.11944,-0.00042
7143.04791,-0.11709
7144.97638,-0.14271
7146.90485,-0.07797
7148.83332,-0.02272
7150.76179,0.00716
7152.69026,0.04760
7154.61873,0.11970
7156.54719,0.15040
7158.47566,0.10942
7160.40413,0.07923
7162.33260,0.06500
7164.26107,0.02279
7166.18954,0.02693
7168.11801,0.14870
7170.04647,0.24889
7171.97494,0.15262
7173.90341,-0.01027
7175.83188,-0.03590
7177.76035,0.05503
7179.68882,0.09670
7181.61729,0.09035
7183.54576,0.04637
7185.47422,-0.03813
7187.40269,-0.00891
7189.33116,0.06093
7191.25963,0.00950
7193.18810,-0.08508
7195.11657,-0.10291
7197.04504,-0.06718
7198.97350,0.02746
7200.90197,0.12659
7202.83044,0.14832
7204.75891,0.08613
7206.68738,0.00037
7208.61585,-0.04206
7210.54432,-0.00549
7212.47279,0.07746
7214.40125,0.16494
7216.32972,0.23813
7218.25819,0.22119
7220.18666,0.13420
7222.11513,0.06936
7224.04360,0.01232
7225.97207,0.01095
7227.90053,0.12067
7229.82900,0.18650
7231.75747,0.09275
7233.68594,-0.00033
7235.61441,-0.00480
7237.54288,0.00543
7239.47135,-0.03302
7241.39982,-0.07106
7243.32828,-0.08211
7245.25675,-0.13089
7247.18522,-0.16015
7249.11369,-0.13921
7251.04216,-0.09284
7252.97063,0.02575
7254.89910,0.15163
7256.82756,0.20241
7258.75603,0.23934
7260.68450,0.23504
7262.61297,0.09187
7264.54144,-0.06314
7266.46991,-0.04091
7268.39838,0.04833
7270.32685,0.04888
7272.25531,-0.02328
7274.18378,-0.05496
7276.11225,-0.06473
7278.04072,-0.10071
7279.96919,-0.07508
7281.89766,0.06431
7283.82613,0.11891
7285.75459,0.09433
7287.68306,0.06418
7289.61153,-0.00551
7291.54000,-0.07269
7293.46847,-0.11452
7295.39694,-0.12257
7297.32541,-0.00537
7299.25387,0.18596
7301.18234,0.31465
7303.11081,0.32514
7305.03928,0.25010
7306.96775,0.16638
7308.89622,0.19293
7310.82469,0.23912
7312.75316,0.15611
7314.68162,0.10745
7316.61009,0.18023
7318.53856,0.19123
7320.46703,0.10961
7322.39550,0.05478
7324.32397,0.07886
7326.25244,0.09559
7328.18090,0.00186
7330.10937,-0.09276
7332.03784,-0.02842
7333.96631,0.06906
7335.89478,0.09810
7337.82325,0.10222
7339.75172,0.06695
7341.68019,0.00872
7343.60865,0.01588
7345.53712,0.05145
7347.46559,0.09035
7349.39406,0.09816
7351.32253,0.14528
7353.25100,0.25220
7355.17947,0.25097
7357.10793,0.10093
7359.03640,0.01348
7360.96487,0.09975
7362.89334,0.18461
7364.82181,0.14933
7366.75028,0.05876
7368.67875,0.05555
7370.60722,0.10408
7372.53568,0.09410
7374.46415,0.06195
7376.39262,0.08202
7378.32109,0.11170
7380.24956,0.14676
7382.17803,0.15707
7384.10650,0.05667
7386.03496,-0.03962
7387.96343,-0.00212
7389.89190,0.02013
7391.82037,0.02155
7393.74884,0.10780
7395.67731,0.17149
7397.60578,0.11700
7399.53425,-0.01550
7401.46271,-0.13704
7403.39118,-0.11288
7405.31965,0.04549
7407.24812,0.16986
7409.17659,0.20570
7411.10506,0.14433
7413.03353,0.00790
7414.96199,-0.09552
7416.89046,-0.05373
7418.81893,-0.02763
7420.74740,-0.20065
7422.67587,-0.26757
7424.60434,-0.17623
7426.53281,-0.08203
7428.46128,0.02137
7430.38974,0.19601
7432.31821,0.30225
7434.24668,0.24526
7436.17515,0.10586
7438.10362,0.07321
7440.03209,0.17255
7441.96056,0.19760
7443.88902,0.10899
7445.81749,0.08528
7447.74596,0.20628
7449.67443,0.34638
7451.60290,0.32703
7453.53137,0.12939
7455.45984,-0.04230
7457.38831,-0.04243
7459.31677,0.08303
7461.24524,0.11145
7463.17371,0.01293
7465.10218,-0.03521
7467.03065,0.00587
7468.95912,0.08104
7470.88759,0.14651
7472.81605,0.13812
7474.74452,0.08910
7476.67299,0.06647
7478.60146,0.08422
7480.52993,0.09035
7482.45840,0.05632
7484.38687,0.10375
7486.31533,0.18984
7488.24380,0.23495
7490.17227,0.28271
7492.10074,0.27867
7494.02921,0.22375
7495.95768,0.18429
7497.88615,0.15034
