399.19301,0.20504
401.12148,0.32602
403.04995,0.40642
404.97842,0.44670
406.90689,0.38907
408.83536,0.22748
410.76382,0.02579
412.69229,-0.04733
414.62076,0.03162
416.54923,0.12156
418.47770,0.12305
420.40617,0.04683
422.33464,0.00509
424.26311,0.01521
426.19157,0.03200
428.12004,0.00720
430.04851,-0.02547
431.97698,0.00673
433.90545,0.03090
435.83392,-0.00637
437.76239,-0.02641
439.69085,-0.01122
441.61932,-0.00691
443.54779,-0.00047
445.47626,0.03058
447.40473,0.04591
449.33320,0.04222
451.26167,0.05330
453.19013,0.06296
455.11860,0.02554
457.04707,-0.01782
458.97554,-0.03037
460.90401,-0.05448
462.83248,-0.04856
464.76095,-0.00436
466.68942,0.01803
468.61788,0.03637
470.54635,0.06940
472.47482,0.06347
474.40329,-0.01228
476.33176,-0.02216
478.26023,0.02692
480.18870,0.06572
482.11716,0.07834
484.04563,0.07693
485.97410,0.06768
487.90257,0.05769
489.83104,0.04441
491.75951,0.00783
493.68798,-0.02316
495.61645,-0.00889
497.54491,0.03612
499.47338,0.06315
501.40185,0.05403
503.33032,0.03992
505.25879,0.04700
507.18726,0.06071
509.11573,0.06450
511.04419,0.06329
512.97266,0.06581
514.90113,0.05435
516.82960,0.00951
518.75807,-0.02629
520.68654,-0.02189
522.61501,0.00471
524.54348,0.04952
526.47194,0.09647
528.40041,0.11062
530.32888,0.10606
532.25735,0.11968
534.18582,0.13689
536.11429,0.13995
538.04276,0.15097
539.97122,0.15756
541.89969,0.12812
543.82816,0.08563
545.75663,0.05768
547.68510,0.03105
549.61357,0.01469
551.54204,0.02227
553.47051,0.03527
555.39897,0.03206
557.32744,0.01523
559.25591,0.01774
561.18438,0.04692
563.11285,0.07893
565.04132,0.09567
566.96979,0.08679
568.89825,0.07602
570.82672,0.07566
572.75519,0.06669
574.68366,0.06028
576.61213,0.05668
578.54060,0.05426
580.46907,0.07342
582.39754,0.08849
584.32600,0.06397
586.25447,0.02360
588.18294,0.01619
590.11141,0.04432
592.03988,0.06605
593.96835,0.06021
595.89682,0.04235
597.82528,0.03525
599.75375,0.04602
601.68222,0.05899
603.61069,0.06062
605.53916,0.05414
607.46763,0.05408
609.39610,0.06463
611.32456,0.07610
613.25303,0.08598
615.18150,0.09360
617.10997,0.10046
619.03844,0.10347
620.96691,0.09360
622.89538,0.08411
624.82385,0.08692
626.75231,0.09215
628.68078,0.09425
630.60925,0.09703
632.53772,0.09875
634.46619,0.09363
636.39466,0.08400
638.32313,0.07432
640.25159,0.06622
642.18006,0.06833
644.10853,0.08261
646.03700,0.09839
647.96547,0.10493
649.89394,0.09206
651.82241,0.06836
653.75088,0.05703
655.67934,0.07118
657.60781,0.09657
659.53628,0.10248
661.46475,0.08727
663.39322,0.07330
665.32169,0.07011
667.25016,0.07320
669.17862,0.07642
671.10709,0.08318
673.03556,0.09329
674.96403,0.10094
676.89250,0.10237
678.82097,0.09623
680.74944,0.08562
682.67791,0.07994
684.60637,0.08559
686.53484,0.09602
688.46331,0.09725
690.39178,0.09037
692.32025,0.08483
694.24872,0.08146
696.17719,0.07438
698.10565,0.06448
700.03412,0.06384
701.96259,0.07230
703.89106,0.07714
705.81953,0.07753
707.74800,0.07962
709.67647,0.07552
711.60494,0.06690
713.53340,0.06843
715.46187,0.07008
717.39034,0.06173
719.31881,0.05504
721.24728,0.05787
723.17575,0.06541
725.10422,0.06785
727.03268,0.06763
728.96115,0.07786
730.88962,0.09202
732.81809,0.09317
734.74656,0.08727
736.67503,0.08367
738.60350,0.07920
740.53197,0.07835
742.46043,0.08470
744.38890,0.08864
746.31737,0.08441
748.24584,0.08132
750.17431,0.08434
752.10278,0.08435
754.03125,0.08228
755.95971,0.08708
757.88818,0.09264
759.81665,0.09290
761.74512,0.08973
763.67359,0.08259
765.60206,0.07867
767.53053,0.08717
769.45900,0.09756
771.38746,0.09371
773.31593,0.08493
775.24440,0.08806
777.17287,0.09333
779.10134,0.08767
781.02981,0.08021
782.95828,0.08115
784.88674,0.08838
786.81521,0.09186
788.74368,0.08536
790.67215,0.07575
792.60062,0.07376
794.52909,0.08231
796.45756,0.09301
798.38602,0.09561
800.31449,0.09172
802.24296,0.09287
804.17143,0.09621
806.09990,0.08897
808.02837,0.07790
809.95684,0.07524
811.88531,0.07662
813.81377,0.07928
815.74224,0.09092
817.67071,0.10482
819.59918,0.10289
821.52765,0.08930
823.45612,0.08439
825.38459,0.09168
827.31305,0.09882
829.24152,0.09948
831.16999,0.09670
833.09846,0.09465
835.02693,0.09558
836.95540,0.09663
838.88387,0.09057
840.81234,0.08387
842.74080,0.08671
844.66927,0.09185
846.59774,0.09467
848.52621,0.09649
850.45468,0.09134
852.38315,0.08223
854.31162,0.08438
856.24008,0.09603
858.16855,0.10184
860.09702,0.09801
862.02549,0.08935
863.95396,0.08105
865.88243,0.09764
867.81090,0.17349
869.73937,0.24200
871.66783,0.19970
873.59630,0.10954
875.52477,0.07494
877.45324,0.07843
879.38171,0.08139
881.31018,0.08362
883.23865,0.08914
885.16711,0.09390
887.09558,0.09443
889.02405,0.09178
890.95252,0.08846
892.88099,0.08869
894.80946,0.09103
896.73793,0.08944
898.66640,0.08616
900.59486,0.08757
902.52333,0.09174
904.45180,0.09295
906.38027,0.09414
908.30874,0.09867
910.23721,0.09986
912.16568,0.09781
914.09414,0.10066
916.02261,0.10574
917.95108,0.10634
919.87955,0.10203
921.80802,0.09508
923.73649,0.09014
925.66496,0.09135
927.59343,0.09396
929.52189,0.09085
931.45036,0.08664
933.37883,0.08869
935.30730,0.09191
937.23577,0.08859
939.16424,0.08349
941.09271,0.08412
943.02117,0.08790
944.94964,0.08933
946.87811,0.08788
948.80658,0.08391
950.73505,0.07920
952.66352,0.07987
954.59199,0.08813
956.52045,0.09527
958.44892,0.09292
960.37739,0.08522
962.30586,0.08319
964.23433,0.08962
966.16280,0.09319
968.09127,0.08847
970.01974,0.08760
971.94820,0.09330
973.87667,0.09452
975.80514,0.09142
977.73361,0.08948
979.66208,0.08940
981.59055,0.09084
983.51902,0.09034
985.44748,0.08706
987.37595,0.08558
989.30442,0.08859
991.23289,0.09193
993.16136,0.09041
995.08983,0.08702
997.01830,0.08590
998.94677,0.08972
1000.87523,0.09937
1002.80370,0.10749
1004.73217,0.10648
1006.66064,0.10093
1008.58911,0.10055
1010.51758,0.10310
1012.44605,0.10216
1014.37451,0.10004
1016.30298,0.09574
1018.23145,0.08650
1020.15992,0.08241
1022.08839,0.08805
1024.01686,0.09379
1025.94533,0.09957
1027.87380,0.10695
1029.80226,0.10667
1031.73073,0.09807
1033.65920,0.09217
1035.58767,0.09220
1037.51614,0.09279
1039.44461,0.09301
1041.37308,0.09493
1043.30154,0.09805
1045.23001,0.10224
1047.15848,0.10738
1049.08695,0.11023
1051.01542,0.10920
1052.94389,0.10474
1054.87236,0.09956
1056.80083,0.09910
1058.72929,0.10265
1060.65776,0.10455
1062.58623,0.10077
1064.51470,0.09195
1066.44317,0.08531
1068.37164,0.08674
1070.30011,0.09351
1072.22857,0.09896
1074.15704,0.10097
1076.08551,0.10307
1078.01398,0.10582
1079.94245,0.10633
1081.87092,0.10496
1083.79939,0.10383
1085.72786,0.10454
1087.65632,0.10441
1089.58479,0.10211
1091.51326,0.10113
1093.44173,0.09902
1095.37020,0.09450
1097.29867,0.09482
1099.22714,0.10059
1101.15560,0.10054
1103.08407,0.09071
1105.01254,0.08227
1106.94101,0.08449
1108.86948,0.09389
1110.79795,0.10289
1112.72642,0.10654
1114.65489,0.10565
1116.58335,0.10752
1118.51182,0.11054
1120.44029,0.10868
1122.36876,0.10444
1124.29723,0.10080
1126.22570,0.09789
1128.15417,0.09581
1130.08263,0.09396
1132.01110,0.09204
1133.93957,0.09243
1135.86804,0.09415
1137.79651,0.09453
1139.72498,0.09635
1141.65345,0.10154
1143.58191,0.10715
1145.51038,0.10947
1147.43885,0.10783
1149.36732,0.10594
1151.29579,0.10659
1153.22426,0.10724
1155.15273,0.10802
1157.08120,0.11026
1159.00966,0.11074
1160.93813,0.10769
1162.86660,0.10208
1164.79507,0.09731
1166.72354,0.09749
1168.65201,0.10256
1170.58048,0.10795
1172.50894,0.10936
1174.43741,0.10677
1176.36588,0.10485
1178.29435,0.10692
1180.22282,0.10902
1182.15129,0.10856
1184.07976,0.10758
1186.00823,0.10692
1187.93669,0.10811
1189.86516,0.11038
1191.79363,0.11044
1193.72210,0.10920
1195.65057,0.10788
1197.57904,0.10497
1199.50751,0.10090
1201.43597,0.09701
1203.36444,0.09474
1205.29291,0.09571
1207.22138,0.09903
1209.14985,0.10081
1211.07832,0.10010
1213.00679,0.10066
1214.93526,0.10384
1216.86372,0.10855
1218.79219,0.11240
1220.72066,0.11277
1222.64913,0.11095
1224.57760,0.10889
1226.50607,0.10699
1228.43454,0.10495
1230.36300,0.10403
1232.29147,0.10541
1234.21994,0.10582
1236.14841,0.10372
1238.07688,0.10106
1240.00535,0.09983
1241.93382,0.10145
1243.86229,0.10423
1245.79075,0.10472
1247.71922,0.10303
1249.64769,0.10290
1251.57616,0.10425
1253.50463,0.10498
1255.43310,0.10607
1257.36157,0.10613
1259.29003,0.10305
1261.21850,0.10041
1263.14697,0.10313
1265.07544,0.10829
1267.00391,0.10943
1268.93238,0.10720
1270.86085,0.10621
1272.78932,0.10674
1274.71778,0.10572
1276.64625,0.10396
1278.57472,0.10423
1280.50319,0.10511
1282.43166,0.10632
1284.36013,0.10872
1286.28860,0.11034
1288.21706,0.11015
1290.14553,0.10850
1292.07400,0.10715
1294.00247,0.10785
1295.93094,0.10814
1297.85941,0.10543
1299.78788,0.10152
1301.71634,0.09784
1303.64481,0.09470
1305.57328,0.09629
1307.50175,0.10296
1309.43022,0.10787
1311.35869,0.10831
1313.28716,0.10714
1315.21563,0.10677
1317.14409,0.10664
1319.07256,0.10579
1321.00103,0.10525
1322.92950,0.10609
1324.85797,0.10752
1326.78644,0.10816
1328.71491,0.10896
1330.64337,0.10993
1332.57184,0.11085
1334.50031,0.11083
1336.42878,0.10763
1338.35725,0.10480
1340.28572,0.10397
1342.21419,0.10198
1344.14266,0.10118
1346.07112,0.10276
1347.99959,0.10550
1349.92806,0.10816
1351.85653,0.10841
1353.78500,0.10836
1355.71347,0.11153
1357.64194,0.11454
1359.57040,0.11530
1361.49887,0.11592
1363.42734,0.11570
1365.35581,0.11386
1367.28428,0.11092
1369.21275,0.10851
1371.14122,0.10989
1373.06969,0.11470
1374.99815,0.11795
1376.92662,0.11775
1378.85509,0.11713
1380.78356,0.11454
1382.71203,0.11011
1384.64050,0.10978
1386.56897,0.11498
1388.49743,0.11881
1390.42590,0.11849
1392.35437,0.11813
1394.28284,0.11944
1396.21131,0.12199
1398.13978,0.12052
1400.06825,0.11334
1401.99672,0.10900
1403.92518,0.10921
1405.85365,0.10990
1407.78212,0.11149
1409.71059,0.11423
1411.63906,0.11626
1413.56753,0.11797
1415.49600,0.12039
1417.42446,0.12274
1419.35293,0.12262
1421.28140,0.12105
1423.20987,0.12014
1425.13834,0.11940
1427.06681,0.12015
1428.99528,0.12226
1430.92375,0.12285
1432.85221,0.12197
1434.78068,0.12085
1436.70915,0.11965
1438.63762,0.11992
1440.56609,0.12011
1442.49456,0.11887
1444.42303,0.11706
1446.35149,0.11545
1448.27996,0.11601
1450.20843,0.11824
1452.13690,0.11896
1454.06537,0.11990
1455.99384,0.12530
1457.92231,0.12974
1459.85077,0.12496
1461.77924,0.12176
1463.70771,0.12289
1465.63618,0.12234
1467.56465,0.11900
1469.49312,0.12101
1471.42159,0.12865
1473.35006,0.12829
1475.27852,0.11851
1477.20699,0.11532
1479.13546,0.11860
1481.06393,0.12194
1482.99240,0.12265
1484.92087,0.12295
1486.84934,0.12452
1488.77780,0.12619
1490.70627,0.12527
1492.63474,0.12294
1494.56321,0.12305
1496.49168,0.12562
1498.42015,0.12531
1500.34862,0.12294
1502.27709,0.12343
1504.20555,0.12739
1506.13402,0.13753
1508.06249,0.14327
1509.99096,0.13316
1511.91943,0.12399
1513.84790,0.12314
1515.77637,0.12896
1517.70483,0.13263
1519.63330,0.13367
1521.56177,0.13801
1523.49024,0.13868
1525.41871,0.13622
1527.34718,0.13167
1529.27565,0.12494
1531.20412,0.12342
1533.13258,0.12726
1535.06105,0.12937
1536.98952,0.13218
1538.91799,0.13997
1540.84646,0.14752
1542.77493,0.14645
1544.70340,0.13874
1546.63186,0.13043
1548.56033,0.12866
1550.48880,0.13080
1552.41727,0.13124
1554.34574,0.13161
1556.27421,0.13510
1558.20268,0.14175
1560.13115,0.13683
1562.05961,0.12803
1563.98808,0.12609
1565.91655,0.12767
1567.84502,0.12955
1569.77349,0.12943
1571.70196,0.12733
1573.63043,0.12698
1575.55889,0.12752
1577.48736,0.12534
1579.41583,0.12204
1581.34430,0.12047
1583.27277,0.12130
1585.20124,0.12295
1587.12971,0.12373
1589.05818,0.12284
1590.98664,0.12109
1592.91511,0.12015
1594.84358,0.12066
1596.77205,0.12185
1598.70052,0.12163
1600.62899,0.11971
1602.55746,0.11796
1604.48592,0.11807
1606.41439,0.11968
1608.34286,0.12121
1610.27133,0.12127
1612.19980,0.11987
1614.12827,0.12069
1616.05674,0.12733
1617.98521,0.13231
1619.91367,0.13089
1621.84214,0.13075
1623.77061,0.13092
1625.69908,0.12833
1627.62755,0.12794
1629.55602,0.12949
1631.48449,0.13005
1633.41295,0.13221
1635.34142,0.13543
1637.26989,0.13138
1639.19836,0.12596
1641.12683,0.12396
1643.05530,0.12434
1644.98377,0.12804
1646.91223,0.13265
1648.84070,0.13097
1650.76917,0.12977
1652.69764,0.13433
1654.62611,0.13492
1656.55458,0.13105
1658.48305,0.13070
1660.41152,0.13447
1662.33998,0.13679
1664.26845,0.13132
1666.19692,0.12688
1668.12539,0.13022
1670.05386,0.13649
1671.98233,0.13511
1673.91080,0.12964
1675.83926,0.12614
1677.76773,0.12633
1679.69620,0.12956
1681.62467,0.13456
1683.55314,0.13753
1685.48161,0.13250
1687.41008,0.12681
1689.33855,0.12451
1691.26701,0.12469
1693.19548,0.12793
1695.12395,0.13504
1697.05242,0.14292
1698.98089,0.14604
1700.90936,0.14062
1702.83783,0.13342
1704.76629,0.13052
1706.69476,0.12853
1708.62323,0.12694
1710.55170,0.12648
1712.48017,0.12583
1714.40864,0.12750
1716.33711,0.13424
1718.26558,0.13498
1720.19404,0.12746
1722.12251,0.12170
1724.05098,0.11888
1725.97945,0.11888
1727.90792,0.12096
1729.83639,0.12374
1731.76486,0.12644
1733.69332,0.12681
1735.62179,0.12361
1737.55026,0.12187
1739.47873,0.12232
1741.40720,0.12382
1743.33567,0.12488
1745.26414,0.12579
1747.19261,0.12936
1749.12107,0.13271
1751.04954,0.12864
1752.97801,0.12259
1754.90648,0.12050
1756.83495,0.12126
1758.76342,0.12283
1760.69189,0.12406
1762.62035,0.12432
1764.54882,0.12271
1766.47729,0.12056
1768.40576,0.12056
1770.33423,0.12348
1772.26270,0.12529
1774.19117,0.12364
1776.11964,0.12278
1778.04810,0.12353
1779.97657,0.12406
1781.90504,0.12346
1783.83351,0.12268
1785.76198,0.12244
1787.69045,0.12310
1789.61892,0.12606
1791.54738,0.13068
1793.47585,0.13177
1795.40432,0.12811
1797.33279,0.12422
1799.26126,0.12311
1801.18973,0.12214
1803.11820,0.11916
1805.04666,0.11762
1806.97513,0.11847
1808.90360,0.12037
1810.83207,0.12141
1812.76054,0.12054
1814.68901,0.11891
1816.61748,0.11788
1818.54595,0.11830
1820.47441,0.11959
1822.40288,0.12151
1824.33135,0.12305
1826.25982,0.12182
1828.18829,0.11997
1830.11676,0.12121
1832.04523,0.12332
1833.97369,0.12290
1835.90216,0.12113
1837.83063,0.11955
1839.75910,0.11883
1841.68757,0.12041
1843.61604,0.12328
1845.54451,0.12298
1847.47298,0.12164
1849.40144,0.12183
1851.32991,0.12168
1853.25838,0.12097
1855.18685,0.12038
1857.11532,0.11961
1859.04379,0.11927
1860.97226,0.12042
1862.90072,0.12233
1864.82919,0.12511
1866.75766,0.12887
1868.68613,0.12929
1870.61460,0.12507
1872.54307,0.12139
1874.47154,0.11943
1876.40001,0.11905
1878.32847,0.12079
1880.25694,0.12335
1882.18541,0.12428
1884.11388,0.12277
1886.04235,0.12087
1887.97082,0.12093
1889.89929,0.12217
1891.82775,0.12293
1893.75622,0.12341
1895.68469,0.12371
1897.61316,0.12313
1899.54163,0.12173
1901.47010,0.12137
1903.39857,0.12267
1905.32704,0.12342
1907.25550,0.12342
1909.18397,0.12367
1911.11244,0.12218
1913.04091,0.11962
1914.96938,0.11908
1916.89785,0.11977
1918.82632,0.12005
1920.75478,0.12038
1922.68325,0.11972
1924.61172,0.11828
1926.54019,0.11873
1928.46866,0.11963
1930.39713,0.11857
1932.32560,0.11779
1934.25407,0.11864
1936.18253,0.11890
1938.11100,0.11859
1940.03947,0.11995
1941.96794,0.12254
1943.89641,0.12436
1945.82488,0.12432
1947.75335,0.12274
1949.68181,0.12151
1951.61028,0.12138
1953.53875,0.12111
1955.46722,0.12007
1957.39569,0.11896
1959.32416,0.11879
1961.25263,0.11950
1963.18110,0.12089
1965.10956,0.12297
1967.03803,0.12407
1968.96650,0.12290
1970.89497,0.12122
1972.82344,0.12035
1974.75191,0.11966
1976.68038,0.11882
1978.60884,0.11918
1980.53731,0.12092
1982.46578,0.12045
1984.39425,0.11708
1986.32272,0.11515
1988.25119,0.11595
1990.17966,0.11757
1992.10812,0.11961
1994.03659,0.12206
1995.96506,0.12323
1997.89353,0.12247
1999.82200,0.12198
2001.75047,0.12289
2003.67894,0.12331
2005.60741,0.12259
2007.53587,0.12222
2009.46434,0.12247
2011.39281,0.12263
2013.32128,0.12276
2015.24975,0.12253
2017.17822,0.12236
2019.10669,0.12291
2021.03515,0.12258
2022.96362,0.12120
2024.89209,0.12107
2026.82056,0.12200
2028.74903,0.12216
2030.67750,0.12187
2032.60597,0.12213
2034.53444,0.12290
2036.46290,0.12374
2038.39137,0.12420
2040.31984,0.12396
2042.24831,0.12345
2044.17678,0.12356
2046.10525,0.12351
2048.03372,0.12269
2049.96218,0.12276
2051.89065,0.12413
2053.81912,0.12466
2055.74759,0.12364
2057.67606,0.12328
2059.60453,0.12402
2061.53300,0.12413
2063.46147,0.12418
2065.38993,0.12490
2067.31840,0.12564
2069.24687,0.12614
2071.17534,0.12576
2073.10381,0.12537
2075.03228,0.12628
2076.96075,0.12628
2078.88921,0.12426
2080.81768,0.12362
2082.74615,0.12438
2084.67462,0.12293
2086.60309,0.11993
2088.53156,0.11762
2090.46003,0.11735
2092.38850,0.12022
2094.31696,0.12342
2096.24543,0.12415
2098.17390,0.12342
2100.10237,0.12193
2102.03084,0.12091
2103.95931,0.12219
2105.88778,0.12440
2107.81624,0.12521
2109.74471,0.12438
2111.67318,0.12375
2113.60165,0.12427
2115.53012,0.12433
2117.45859,0.12385
2119.38706,0.12376
2121.31553,0.12297
2123.24399,0.12135
2125.17246,0.12122
2127.10093,0.12289
2129.02940,0.12372
2130.95787,0.12317
2132.88634,0.12364
2134.81481,0.12573
2136.74327,0.12593
2138.67174,0.12256
2140.60021,0.11914
2142.52868,0.11815
2144.45715,0.11786
2146.38562,0.11686
2148.31409,0.11655
2150.24255,0.11814
2152.17102,0.12048
2154.09949,0.12134
2156.02796,0.12078
2157.95643,0.12088
2159.88490,0.12240
2161.81337,0.12497
2163.74184,0.12751
2165.67030,0.12829
2167.59877,0.12746
2169.52724,0.12720
2171.45571,0.12743
2173.38418,0.12588
2175.31265,0.12316
2177.24112,0.12177
2179.16958,0.12192
2181.09805,0.12257
2183.02652,0.12300
2184.95499,0.12215
2186.88346,0.12048
2188.81193,0.11948
2190.74040,0.11923
2192.66887,0.11896
2194.59733,0.11902
2196.52580,0.12068
2198.45427,0.12236
2200.38274,0.12133
2202.31121,0.12036
2204.23968,0.12275
2206.16815,0.12511
2208.09661,0.12513
2210.02508,0.12565
2211.95355,0.12719
2213.88202,0.12786
2215.81049,0.12772
2217.73896,0.12786
2219.66743,0.12797
2221.59590,0.12700
2223.52436,0.12440
2225.45283,0.12208
2227.38130,0.12312
2229.30977,0.12491
2231.23824,0.12431
2233.16671,0.12327
2235.09518,0.12231
2237.02364,0.12079
2238.95211,0.11975
2240.88058,0.12029
2242.80905,0.12205
2244.73752,0.12287
2246.66599,0.12157
2248.59446,0.12041
2250.52293,0.12121
2252.45139,0.12236
2254.37986,0.12312
2256.30833,0.12383
2258.23680,0.12360
2260.16527,0.12314
2262.09374,0.12370
2264.02221,0.12411
2265.95067,0.12370
2267.87914,0.12259
2269.80761,0.12007
2271.73608,0.11671
2273.66455,0.11563
2275.59302,0.11801
2277.52149,0.11974
2279.44996,0.11916
2281.37842,0.12082
2283.30689,0.12481
2285.23536,0.12583
2287.16383,0.12340
2289.09230,0.12111
2291.02077,0.12100
2292.94924,0.12317
2294.87770,0.12538
2296.80617,0.12522
2298.73464,0.12310
2300.66311,0.12147
2302.59158,0.12188
2304.52005,0.12326
2306.44852,0.12347
2308.37699,0.12173
2310.30545,0.11900
2312.23392,0.11576
2314.16239,0.11313
2316.09086,0.11477
2318.01933,0.12039
2319.94780,0.12366
2321.87627,0.12144
2323.80473,0.11722
2325.73320,0.11330
2327.66167,0.11119
2329.59014,0.11524
2331.51861,0.12256
2333.44708,0.12539
2335.37555,0.12817
2337.30401,0.13316
2339.23248,0.12918
2341.16095,0.11846
2343.08942,0.11790
2345.01789,0.12441
2346.94636,0.12673
2348.87483,0.12924
2350.80330,0.13388
2352.73176,0.13501
2354.66023,0.13407
2356.58870,0.14116
2358.51717,0.14282
2360.44564,0.12664
2362.37411,0.10905
2364.30258,0.10105
2366.23104,0.09969
2368.15951,0.10129
2370.08798,0.10895
2372.01645,0.12009
2373.94492,0.12487
2375.87339,0.12550
2377.80186,0.12824
2379.73033,0.12980
2381.65879,0.12797
2383.58726,0.12624
2385.51573,0.12626
2387.44420,0.12666
2389.37267,0.12633
2391.30114,0.12519
2393.22961,0.12423
2395.15807,0.12451
2397.08654,0.12466
2399.01501,0.12289
2400.94348,0.12128
2402.87195,0.12253
2404.80042,0.12514
2406.72889,0.12567
2408.65736,0.12391
2410.58582,0.12281
2412.51429,0.12408
2414.44276,0.12643
2416.37123,0.12788
2418.29970,0.12805
2420.22817,0.12775
2422.15664,0.12739
2424.08510,0.12700
2426.01357,0.12647
2427.94204,0.12511
2429.87051,0.12274
2431.79898,0.12095
2433.72745,0.12101
2435.65592,0.12251
2437.58439,0.12456
2439.51285,0.12508
2441.44132,0.12319
2443.36979,0.12180
2445.29826,0.12281
2447.22673,0.12473
2449.15520,0.12580
2451.08367,0.12642
2453.01213,0.12771
2454.94060,0.12805
2456.86907,0.12683
2458.79754,0.12700
2460.72601,0.12785
2462.65448,0.12676
2464.58295,0.12622
2466.51142,0.12752
2468.43988,0.12740
2470.36835,0.12533
2472.29682,0.12419
2474.22529,0.12527
2476.15376,0.12677
2478.08223,0.12652
2480.01070,0.12518
2481.93916,0.12421
2483.86763,0.12254
2485.79610,0.12077
2487.72457,0.12124
2489.65304,0.12256
2491.58151,0.12276
2493.50998,0.12233
2495.43844,0.12208
2497.36691,0.12352
2499.29538,0.12624
2501.22385,0.12729
2503.15232,0.12656
2505.08079,0.12584
2507.00926,0.12503
2508.93773,0.12399
2510.86619,0.12407
2512.79466,0.12506
2514.72313,0.12465
2516.65160,0.12368
2518.58007,0.12492
2520.50854,0.12742
2522.43701,0.12905
2524.36547,0.12899
2526.29394,0.12782
2528.22241,0.12694
2530.15088,0.12584
2532.07935,0.12404
2534.00782,0.12276
2535.93629,0.12229
2537.86476,0.12216
2539.79322,0.12239
2541.72169,0.12296
2543.65016,0.12362
2545.57863,0.12458
2547.50710,0.12534
2549.43557,0.12479
2551.36404,0.12442
2553.29250,0.12632
2555.22097,0.12851
2557.14944,0.12875
2559.07791,0.12816
2561.00638,0.12733
2562.93485,0.12672
2564.86332,0.12725
2566.79179,0.12806
2568.72025,0.12816
2570.64872,0.12741
2572.57719,0.12700
2574.50566,0.12808
2576.43413,0.12934
2578.36260,0.12925
2580.29107,0.12822
2582.21953,0.12784
2584.14800,0.12844
2586.07647,0.12895
2588.00494,0.12907
2589.93341,0.12850
2591.86188,0.12641
2593.79035,0.12440
2595.71882,0.12488
2597.64728,0.12691
2599.57575,0.12767
2601.50422,0.12651
2603.43269,0.12582
2605.36116,0.12717
2607.28963,0.12888
2609.21810,0.12925
2611.14656,0.12912
2613.07503,0.12931
2615.00350,0.12851
2616.93197,0.12653
2618.86044,0.12583
2620.78891,0.12782
2622.71738,0.12996
2624.64585,0.12961
2626.57431,0.12803
2628.50278,0.12669
2630.43125,0.12542
2632.35972,0.12553
2634.28819,0.12717
2636.21666,0.12878
2638.14513,0.12986
2640.07359,0.12873
2642.00206,0.12590
2643.93053,0.12548
2645.85900,0.12796
2647.78747,0.13034
2649.71594,0.13073
2651.64441,0.12967
2653.57288,0.12848
2655.50134,0.12771
2657.42981,0.12854
2659.35828,0.13093
2661.28675,0.13157
2663.21522,0.12935
2665.14369,0.12793
2667.07216,0.12902
2669.00062,0.12919
2670.92909,0.12698
2672.85756,0.12621
2674.78603,0.12816
2676.71450,0.13000
2678.64297,0.13012
2680.57144,0.12927
2682.49990,0.12851
2684.42837,0.12800
2686.35684,0.12822
2688.28531,0.12863
2690.21378,0.12826
2692.14225,0.12832
2694.07072,0.12978
2695.99919,0.13129
2697.92765,0.13196
2699.85612,0.13310
2701.78459,0.13404
2703.71306,0.13368
2705.64153,0.13361
2707.57000,0.13335
2709.49847,0.13151
2711.42693,0.12972
2713.35540,0.12979
2715.28387,0.13081
2717.21234,0.13107
2719.14081,0.13116
2721.06928,0.13156
2722.99775,0.13103
2724.92622,0.13005
2726.85468,0.13077
2728.78315,0.13332
2730.71162,0.13479
2732.64009,0.13351
2734.56856,0.13137
2736.49703,0.12961
2738.42550,0.12814
2740.35396,0.12839
2742.28243,0.12996
2744.21090,0.13047
2746.13937,0.13015
2748.06784,0.12934
2749.99631,0.12856
2751.92478,0.12996
2753.85325,0.13284
2755.78171,0.13487
2757.71018,0.13520
2759.63865,0.13449
2761.56712,0.13464
2763.49559,0.13620
2765.42406,0.13741
2767.35253,0.13700
2769.28099,0.13578
2771.20946,0.13547
2773.13793,0.13596
2775.06640,0.13521
2776.99487,0.13395
2778.92334,0.13425
2780.85181,0.13547
2782.78028,0.13586
2784.70874,0.13468
2786.63721,0.13299
2788.56568,0.13245
2790.49415,0.13278
2792.42262,0.13205
2794.35109,0.13107
2796.27956,0.13224
2798.20802,0.13489
2800.13649,0.13601
2802.06496,0.13434
2803.99343,0.13331
2805.92190,0.13592
2807.85037,0.13850
2809.77884,0.13640
2811.70731,0.13270
2813.63577,0.13245
2815.56424,0.13436
2817.49271,0.13648
2819.42118,0.13869
2821.34965,0.13852
2823.27812,0.13631
2825.20659,0.13598
2827.13505,0.13568
2829.06352,0.13310
2830.99199,0.13261
2832.92046,0.13483
2834.84893,0.13621
2836.77740,0.13730
2838.70587,0.13846
2840.63433,0.13724
2842.56280,0.13451
2844.49127,0.13279
2846.41974,0.13322
2848.34821,0.13546
2850.27668,0.13773
2852.20515,0.13925
2854.13362,0.13804
2856.06208,0.13603
2857.99055,0.13757
2859.91902,0.13910
2861.84749,0.13814
2863.77596,0.13733
2865.70443,0.13769
2867.63290,0.13881
2869.56136,0.13912
2871.48983,0.13767
2873.41830,0.13714
2875.34677,0.13748
2877.27524,0.13421
2879.20371,0.12999
2881.13218,0.13111
2883.06065,0.13446
2884.98911,0.13509
2886.91758,0.13455
2888.84605,0.13414
2890.77452,0.13439
2892.70299,0.13569
2894.63146,0.13605
2896.55993,0.13529
2898.48839,0.13402
2900.41686,0.13185
2902.34533,0.13056
2904.27380,0.13143
2906.20227,0.13180
2908.13074,0.13083
2910.05921,0.13121
2911.98768,0.13265
2913.91614,0.13183
2915.84461,0.12877
2917.77308,0.12752
2919.70155,0.12816
2921.63002,0.12872
2923.55849,0.12768
2925.48696,0.12403
2927.41542,0.12487
2929.34389,0.13233
2931.27236,0.13704
2933.20083,0.13575
2935.12930,0.13170
2937.05777,0.12837
2938.98624,0.12986
2940.91471,0.13472
2942.84317,0.13725
2944.77164,0.13585
2946.70011,0.13276
2948.62858,0.13165
2950.55705,0.13363
2952.48552,0.13588
2954.41399,0.13505
2956.34245,0.12986
2958.27092,0.12651
2960.19939,0.12939
2962.12786,0.13264
2964.05633,0.13431
2965.98480,0.13678
2967.91327,0.13832
2969.84174,0.13953
2971.77020,0.14143
2973.69867,0.14180
2975.62714,0.13994
2977.55561,0.13686
2979.48408,0.13549
2981.41255,0.13766
2983.34102,0.14032
2985.26948,0.13907
2987.19795,0.13630
2989.12642,0.13845
2991.05489,0.14314
2992.98336,0.14514
2994.91183,0.14473
2996.84030,0.14298
2998.76877,0.14151
3000.69723,0.14118
3002.62570,0.14167
3004.55417,0.14303
3006.48264,0.14361
3008.41111,0.14166
3010.33958,0.13626
3012.26805,0.12793
3014.19651,0.11901
3016.12498,0.11317
3018.05345,0.11843
3019.98192,0.13319
3021.91039,0.14219
3023.83886,0.14310
3025.76733,0.14363
3027.69579,0.14432
3029.62426,0.14488
3031.55273,0.14605
3033.48120,0.14585
3035.40967,0.14251
3037.33814,0.13869
3039.26661,0.13829
3041.19508,0.13922
3043.12354,0.13781
3045.05201,0.13526
3046.98048,0.13382
3048.90895,0.13444
3050.83742,0.13663
3052.76589,0.13829
3054.69436,0.13776
3056.62282,0.13536
3058.55129,0.13479
3060.47976,0.13713
3062.40823,0.13813
3064.33670,0.13642
3066.26517,0.13613
3068.19364,0.13896
3070.12211,0.14012
3072.05057,0.13817
3073.97904,0.13616
3075.90751,0.13445
3077.83598,0.13427
3079.76445,0.13667
3081.69292,0.13686
3083.62139,0.13111
3085.54985,0.12647
3087.47832,0.13071
3089.40679,0.13826
3091.33526,0.13884
3093.26373,0.13324
3095.19220,0.13217
3097.12067,0.13809
3099.04914,0.14351
3100.97760,0.14559
3102.90607,0.14436
3104.83454,0.14245
3106.76301,0.14268
3108.69148,0.14198
3110.61995,0.13849
3112.54842,0.13369
3114.47688,0.13154
3116.40535,0.13298
3118.33382,0.13402
3120.26229,0.13491
3122.19076,0.13700
3124.11923,0.13911
3126.04770,0.14102
3127.97617,0.14154
3129.90463,0.13882
3131.83310,0.13724
3133.76157,0.14211
3135.69004,0.14665
3137.61851,0.14350
3139.54698,0.13888
3141.47545,0.14031
3143.40391,0.14498
3145.33238,0.14665
3147.26085,0.14413
3149.18932,0.14024
3151.11779,0.13847
3153.04626,0.14079
3154.97473,0.14272
3156.90320,0.14013
3158.83166,0.13832
3160.76013,0.14038
3162.68860,0.14192
3164.61707,0.14186
3166.54554,0.14253
3168.47401,0.14425
3170.40248,0.14677
3172.33094,0.14845
3174.25941,0.14822
3176.18788,0.14839
3178.11635,0.14940
3180.04482,0.15092
3181.97329,0.15253
3183.90176,0.15314
3185.83022,0.15236
3187.75869,0.14910
3189.68716,0.14538
3191.61563,0.14381
3193.54410,0.14430
3195.47257,0.14570
3197.40104,0.14517
3199.32951,0.14281
3201.25797,0.14196
3203.18644,0.14310
3205.11491,0.14418
3207.04338,0.14418
3208.97185,0.14371
3210.90032,0.14482
3212.82879,0.14691
3214.75725,0.14592
3216.68572,0.14207
3218.61419,0.13877
3220.54266,0.13770
3222.47113,0.14004
3224.39960,0.14354
3226.32807,0.14428
3228.25654,0.14341
3230.18500,0.14275
3232.11347,0.14187
3234.04194,0.14097
3235.97041,0.14055
3237.89888,0.14213
3239.82735,0.14582
3241.75582,0.14892
3243.68428,0.14886
3245.61275,0.14547
3247.54122,0.14197
3249.46969,0.13965
3251.39816,0.13751
3253.32663,0.13568
3255.25510,0.13362
3257.18357,0.13289
3259.11203,0.13585
3261.04050,0.13923
3262.96897,0.14138
3264.89744,0.14468
3266.82591,0.14658
3268.75438,0.14343
3270.68285,0.13737
3272.61131,0.13419
3274.53978,0.13712
3276.46825,0.14295
3278.39672,0.14710
3280.32519,0.14886
3282.25366,0.14891
3284.18213,0.14711
3286.11060,0.14453
3288.03906,0.14240
3289.96753,0.14172
3291.89600,0.14339
3293.82447,0.14463
3295.75294,0.14372
3297.68141,0.14343
3299.60988,0.14411
3301.53834,0.14416
3303.46681,0.14397
3305.39528,0.14307
3307.32375,0.14120
3309.25222,0.14034
3311.18069,0.14104
3313.10916,0.14239
3315.03763,0.14323
3316.96609,0.14229
3318.89456,0.14163
3320.82303,0.14332
3322.75150,0.14459
3324.67997,0.14444
3326.60844,0.14523
3328.53691,0.14597
3330.46537,0.14510
3332.39384,0.14457
3334.32231,0.14527
3336.25078,0.14560
3338.17925,0.14538
3340.10772,0.14491
3342.03619,0.14418
3343.96466,0.14334
3345.89312,0.14071
3347.82159,0.13582
3349.75006,0.13283
3351.67853,0.13673
3353.60700,0.14481
3355.53547,0.14906
3357.46394,0.14735
3359.39240,0.14426
3361.32087,0.14487
3363.24934,0.14807
3365.17781,0.14792
3367.10628,0.14506
3369.03475,0.14470
3370.96322,0.14618
3372.89168,0.14605
3374.82015,0.14468
3376.74862,0.14332
3378.67709,0.14411
3380.60556,0.14789
3382.53403,0.15138
3384.46250,0.15306
3386.39097,0.15186
3388.31943,0.14781
3390.24790,0.14330
3392.17637,0.13861
3394.10484,0.13515
3396.03331,0.13459
3397.96178,0.13515
3399.89025,0.13611
3401.81871,0.13934
3403.74718,0.14191
3405.67565,0.13967
3407.60412,0.13816
3409.53259,0.14112
3411.46106,0.14215
3413.38953,0.13948
3415.31800,0.13803
3417.24646,0.13909
3419.17493,0.14179
3421.10340,0.14476
3423.03187,0.14428
3424.96034,0.14134
3426.88881,0.14076
3428.81728,0.14240
3430.74574,0.14305
3432.67421,0.14222
3434.60268,0.14190
3436.53115,0.14144
3438.45962,0.13797
3440.38809,0.13402
3442.31656,0.13486
3444.24503,0.13784
3446.17349,0.13722
3448.10196,0.13382
3450.03043,0.13031
3451.95890,0.12878
3453.88737,0.13147
3455.81584,0.13594
3457.74431,0.13779
3459.67277,0.13720
3461.60124,0.13619
3463.52971,0.13374
3465.45818,0.13065
3467.38665,0.13037
3469.31512,0.13216
3471.24359,0.13424
3473.17206,0.13534
3475.10052,0.13373
3477.02899,0.13094
3478.95746,0.12878
3480.88593,0.12687
3482.81440,0.12623
3484.74287,0.12839
3486.67134,0.13164
3488.59980,0.13159
3490.52827,0.12772
3492.45674,0.12553
3494.38521,0.12666
3496.31368,0.12613
3498.24215,0.12304
3500.17062,0.12081
3502.09909,0.11983
3504.02755,0.11993
3505.95602,0.12194
3507.88449,0.12381
3509.81296,0.12289
3511.74143,0.12061
3513.66990,0.11953
3515.59837,0.11959
3517.52683,0.12038
3519.45530,0.12420
3521.38377,0.13018
3523.31224,0.12939
3525.24071,0.12211
3527.16918,0.11729
3529.09765,0.11395
3531.02611,0.11124
3532.95458,0.11113
3534.88305,0.11163
3536.81152,0.11268
3538.73999,0.11526
3540.66846,0.11710
3542.59693,0.11802
3544.52540,0.12008
3546.45386,0.12189
3548.38233,0.12114
3550.31080,0.11824
3552.23927,0.11497
3554.16774,0.11328
3556.09621,0.11211
3558.02468,0.10971
3559.95314,0.10822
3561.88161,0.11054
3563.81008,0.11403
3565.73855,0.11476
3567.66702,0.11215
3569.59549,0.10983
3571.52396,0.11025
3573.45243,0.11075
3575.38089,0.11009
3577.30936,0.11058
3579.23783,0.11089
3581.16630,0.10918
3583.09477,0.10660
3585.02324,0.10486
3586.95171,0.10607
3588.88017,0.10638
3590.80864,0.10433
3592.73711,0.10403
3594.66558,0.10297
3596.59405,0.10069
3598.52252,0.10112
3600.45099,0.10260
3602.37946,0.10153
3604.30792,0.09852
3606.23639,0.09846
3608.16486,0.10446
3610.09333,0.11090
3612.02180,0.11172
3613.95027,0.10655
3615.87874,0.10061
3617.80720,0.09797
3619.73567,0.09599
3621.66414,0.09551
3623.59261,0.09791
3625.52108,0.10098
3627.44955,0.10536
3629.37802,0.10814
3631.30649,0.10377
3633.23495,0.09871
3635.16342,0.09628
3637.09189,0.09581
3639.02036,0.09577
3640.94883,0.09560
3642.87730,0.09689
3644.80577,0.10135
3646.73423,0.10771
3648.66270,0.11289
3650.59117,0.11086
3652.51964,0.10317
3654.44811,0.09570
3656.37658,0.08977
3658.30505,0.08838
3660.23352,0.09050
3662.16198,0.09247
3664.09045,0.09333
3666.01892,0.09403
3667.94739,0.09673
3669.87586,0.10015
3671.80433,0.10022
3673.73280,0.09939
3675.66126,0.09635
3677.58973,0.09305
3679.51820,0.09317
3681.44667,0.09407
3683.37514,0.09517
3685.30361,0.09686
3687.23208,0.09935
3689.16055,0.10166
3691.08901,0.09960
3693.01748,0.09391
3694.94595,0.08867
3696.87442,0.08609
3698.80289,0.08718
3700.73136,0.08941
3702.65983,0.08871
3704.58829,0.08727
3706.51676,0.08826
3708.44523,0.09160
3710.37370,0.09677
3712.30217,0.09824
3714.23064,0.09241
3716.15911,0.08668
3718.08757,0.08683
3720.01604,0.09028
3721.94451,0.09058
3723.87298,0.09021
3725.80145,0.09225
3727.72992,0.09404
3729.65839,0.09565
3731.58686,0.09612
3733.51532,0.09482
3735.44379,0.09689
3737.37226,0.09883
3739.30073,0.09660
3741.22920,0.09327
3743.15767,0.09106
3745.08614,0.09099
3747.01460,0.09000
3748.94307,0.09188
3750.87154,0.10069
3752.80001,0.10205
3754.72848,0.09630
3756.65695,0.09366
3758.58542,0.09237
3760.51389,0.08977
3762.44235,0.08992
3764.37082,0.09223
3766.29929,0.09253
3768.22776,0.09081
3770.15623,0.08921
3772.08470,0.08833
3774.01317,0.08775
3775.94163,0.08752
3777.87010,0.08880
3779.79857,0.08807
3781.72704,0.08381
3783.65551,0.08324
3785.58398,0.08660
3787.51245,0.08814
3789.44092,0.08623
3791.36938,0.08383
3793.29785,0.08401
3795.22632,0.08690
3797.15479,0.09143
3799.08326,0.09635
3801.01173,0.10112
3802.94020,0.09949
3804.86866,0.09279
3806.79713,0.08715
3808.72560,0.08183
3810.65407,0.07709
3812.58254,0.07605
3814.51101,0.08033
3816.43948,0.08662
3818.36795,0.09011
3820.29641,0.08994
3822.22488,0.08485
3824.15335,0.08214
3826.08182,0.08267
3828.01029,0.08356
3829.93876,0.08532
3831.86723,0.08858
3833.79569,0.09456
3835.72416,0.09985
3837.65263,0.09618
3839.58110,0.08802
3841.50957,0.08575
3843.43804,0.08641
3845.36651,0.08669
3847.29498,0.08520
3849.22344,0.08424
3851.15191,0.08883
3853.08038,0.09778
3855.00885,0.09586
3856.93732,0.08883
3858.86579,0.08569
3860.79426,0.08754
3862.72272,0.09159
3864.65119,0.09059
3866.57966,0.08572
3868.50813,0.08271
3870.43660,0.08270
3872.36507,0.08514
3874.29354,0.08543
3876.22200,0.08144
3878.15047,0.07942
3880.07894,0.08296
3882.00741,0.08637
3883.93588,0.08780
3885.86435,0.08839
3887.79282,0.08591
3889.72129,0.08438
3891.64975,0.08568
3893.57822,0.08564
3895.50669,0.08606
3897.43516,0.09046
3899.36363,0.09217
3901.29210,0.08573
3903.22057,0.08220
3905.14903,0.08358
3907.07750,0.08051
3909.00597,0.07556
3910.93444,0.07531
3912.86291,0.07915
3914.79138,0.07988
3916.71985,0.07410
3918.64832,0.06948
3920.57678,0.07107
3922.50525,0.07460
3924.43372,0.07791
3926.36219,0.07821
3928.29066,0.07446
3930.21913,0.07087
3932.14760,0.07063
3934.07606,0.07302
3936.00453,0.07616
3937.93300,0.07817
3939.86147,0.07853
3941.78994,0.07750
3943.71841,0.07644
3945.64688,0.07677
3947.57535,0.07554
3949.50381,0.07395
3951.43228,0.07477
3953.36075,0.07449
3955.28922,0.07244
3957.21769,0.07049
3959.14616,0.07037
3961.07463,0.07318
3963.00309,0.07584
3964.93156,0.07450
3966.86003,0.07117
3968.78850,0.07042
3970.71697,0.07334
3972.64544,0.07745
3974.57391,0.07779
3976.50238,0.07215
3978.43084,0.06530
3980.35931,0.06231
3982.28778,0.06413
3984.21625,0.06846
3986.14472,0.07123
3988.07319,0.07041
3990.00166,0.06732
3991.93012,0.06608
3993.85859,0.06894
3995.78706,0.07144
3997.71553,0.07073
3999.64400,0.06864
4001.57247,0.06683
4003.50094,0.06737
4005.42941,0.06943
4007.35787,0.06903
4009.28634,0.06688
4011.21481,0.06739
4013.14328,0.07042
4015.07175,0.07207
4017.00022,0.07137
4018.92869,0.07194
4020.85715,0.07469
4022.78562,0.07553
4024.71409,0.07344
4026.64256,0.06998
4028.57103,0.06641
4030.49950,0.06403
4032.42797,0.06363
4034.35644,0.06669
4036.28490,0.07106
4038.21337,0.06929
4040.14184,0.06262
4042.07031,0.06050
4043.99878,0.06203
4045.92725,0.06079
4047.85572,0.05904
4049.78418,0.06112
4051.71265,0.06466
4053.64112,0.06603
4055.56959,0.06555
4057.49806,0.06494
4059.42653,0.06541
4061.35500,0.06615
4063.28346,0.06665
4065.21193,0.06698
4067.14040,0.06547
4069.06887,0.06484
4070.99734,0.06666
4072.92581,0.06647
4074.85428,0.06391
4076.78275,0.06124
4078.71121,0.05920
4080.63968,0.05856
4082.56815,0.05803
4084.49662,0.05822
4086.42509,0.06123
4088.35356,0.06457
4090.28203,0.06534
4092.21049,0.06393
4094.13896,0.06159
4096.06743,0.05918
4097.99590,0.05763
4099.92437,0.05773
4101.85284,0.05941
4103.78131,0.06159
4105.70978,0.06271
4107.63824,0.06312
4109.56671,0.06363
4111.49518,0.06259
4113.42365,0.06060
4115.35212,0.06132
4117.28059,0.06449
4119.20906,0.06748
4121.13752,0.06854
4123.06599,0.06517
4124.99446,0.05947
4126.92293,0.05582
4128.85140,0.05556
4130.77987,0.05791
4132.70834,0.05960
4134.63681,0.06065
4136.56527,0.06139
4138.49374,0.05952
4140.42221,0.05850
4142.35068,0.06109
4144.27915,0.06340
4146.20762,0.06157
4148.13609,0.05784
4150.06455,0.05681
4151.99302,0.05678
4153.92149,0.05576
4155.84996,0.05593
4157.77843,0.05559
4159.70690,0.05193
4161.63537,0.04877
4163.56384,0.05114
4165.49230,0.05637
4167.42077,0.05733
4169.34924,0.05342
4171.27771,0.05209
4173.20618,0.05523
4175.13465,0.05662
4177.06312,0.05442
4178.99158,0.05138
4180.92005,0.04943
4182.84852,0.04862
4184.77699,0.04872
4186.70546,0.05129
4188.63393,0.05496
4190.56240,0.05613
4192.49087,0.05319
4194.41933,0.04740
4196.34780,0.04521
4198.27627,0.04937
4200.20474,0.05239
4202.13321,0.04873
4204.06168,0.04347
4205.99015,0.04306
4207.91861,0.04677
4209.84708,0.05213
4211.77555,0.05529
4213.70402,0.05361
4215.63249,0.05042
4217.56096,0.04854
4219.48943,0.04791
4221.41789,0.04612
4223.34636,0.04235
4225.27483,0.04072
4227.20330,0.04447
4229.13177,0.04968
4231.06024,0.04968
4232.98871,0.04683
4234.91718,0.04550
4236.84564,0.04423
4238.77411,0.04272
4240.70258,0.04176
4242.63105,0.04302
4244.55952,0.04678
4246.48799,0.04889
4248.41646,0.04733
4250.34492,0.04389
4252.27339,0.04097
4254.20186,0.04152
4256.13033,0.04566
4258.05880,0.04904
4259.98727,0.04775
4261.91574,0.04376
4263.84421,0.04152
4265.77267,0.04019
4267.70114,0.03999
4269.62961,0.04217
4271.55808,0.04391
4273.48655,0.04499
4275.41502,0.04348
4277.34349,0.03838
4279.27195,0.03843
4281.20042,0.04511
4283.12889,0.04687
4285.05736,0.04063
4286.98583,0.03625
4288.91430,0.03830
4290.84277,0.03962
4292.77124,0.03726
4294.69970,0.03604
4296.62817,0.03688
4298.55664,0.03714
4300.48511,0.03498
4302.41358,0.03324
4304.34205,0.03403
4306.27052,0.03200
4308.19898,0.02769
4310.12745,0.02639
4312.05592,0.02835
4313.98439,0.03492
4315.91286,0.04240
4317.84133,0.04067
4319.76980,0.03270
4321.69827,0.03105
4323.62673,0.03559
4325.55520,0.03733
4327.48367,0.03278
4329.41214,0.02791
4331.34061,0.02739
4333.26908,0.02647
4335.19755,0.02442
4337.12601,0.02542
4339.05448,0.02968
4340.98295,0.03414
4342.91142,0.03556
4344.83989,0.03443
4346.76836,0.03092
4348.69683,0.02611
4350.62530,0.02269
4352.55376,0.02279
4354.48223,0.02873
4356.41070,0.03502
4358.33917,0.03724
4360.26764,0.03803
4362.19611,0.03590
4364.12458,0.03196
4366.05304,0.03219
4367.98151,0.03533
4369.90998,0.03743
4371.83845,0.03831
4373.76692,0.03619
4375.69539,0.03180
4377.62386,0.02790
4379.55232,0.02427
4381.48079,0.02050
4383.40926,0.01649
4385.33773,0.01596
4387.26620,0.01969
4389.19467,0.02289
4391.12314,0.02402
4393.05161,0.02431
4394.98007,0.02599
4396.90854,0.02699
4398.83701,0.02519
4400.76548,0.02419
4402.69395,0.02504
4404.62242,0.02496
4406.55089,0.02147
4408.47935,0.01907
4410.40782,0.02353
4412.33629,0.02837
4414.26476,0.02762
4416.19323,0.02485
4418.12170,0.02228
4420.05017,0.01920
4421.97864,0.01545
4423.90710,0.01194
4425.83557,0.01130
4427.76404,0.01489
4429.69251,0.02002
4431.62098,0.02421
4433.54945,0.02699
4435.47792,0.02771
4437.40638,0.02624
4439.33485,0.02251
4441.26332,0.01816
4443.19179,0.01367
4445.12026,0.00737
4447.04873,0.00339
4448.97720,0.00564
4450.90567,0.01172
4452.83413,0.01737
4454.76260,0.02049
4456.69107,0.02166
4458.61954,0.02147
4460.54801,0.02021
4462.47648,0.01846
4464.40495,0.01735
4466.33341,0.01510
4468.26188,0.01188
4470.19035,0.01358
4472.11882,0.01836
4474.04729,0.01716
4475.97576,0.01276
4477.90423,0.01517
4479.83270,0.01874
4481.76116,0.01469
4483.68963,0.00928
4485.61810,0.01161
4487.54657,0.01933
4489.47504,0.01965
4491.40351,0.01242
4493.33198,0.01290
4495.26044,0.02123
4497.18891,0.02236
4499.11738,0.01241
4501.04585,0.00235
4502.97432,0.00010
4504.90279,0.00302
4506.83126,0.00617
4508.75973,0.00966
4510.68819,0.01226
4512.61666,0.01401
4514.54513,0.01946
4516.47360,0.02190
4518.40207,0.01704
4520.33054,0.01321
4522.25901,0.01061
4524.18747,0.00622
4526.11594,0.00399
4528.04441,0.00713
4529.97288,0.01341
4531.90135,0.01657
4533.82982,0.01625
4535.75829,0.01700
4537.68676,0.01608
4539.61522,0.01145
4541.54369,0.00913
4543.47216,0.00886
4545.40063,0.00893
4547.32910,0.01140
4549.25757,0.01168
4551.18604,0.00991
4553.11450,0.00989
4555.04297,0.00842
4556.97144,0.00832
4558.89991,0.01186
4560.82838,0.01321
4562.75685,0.01157
4564.68532,0.00743
4566.61378,0.00131
4568.54225,-0.00292
4570.47072,-0.00439
4572.39919,-0.00516
4574.32766,-0.00566
4576.25613,-0.00281
4578.18460,0.00066
4580.11307,0.00000
4582.04153,0.00210
4583.97000,0.00689
4585.89847,0.00547
4587.82694,0.00164
4589.75541,-0.00016
4591.68388,-0.00038
4593.61235,0.00379
4595.54081,0.00707
4597.46928,0.00331
4599.39775,-0.00104
4601.32622,0.00007
4603.25469,0.00157
4605.18316,-0.00105
4607.11163,-0.00400
4609.04010,-0.00568
4610.96856,-0.00406
4612.89703,0.00418
4614.82550,0.01244
4616.75397,0.01212
4618.68244,0.00862
4620.61091,0.01218
4622.53938,0.01554
4624.46784,0.01059
4626.39631,0.00691
4628.32478,0.00906
4630.25325,0.01146
4632.18172,0.01163
4634.11019,0.00697
4636.03866,0.00287
4637.96713,0.00641
4639.89559,0.00587
4641.82406,-0.00429
4643.75253,-0.00874
4645.68100,-0.00450
4647.60947,-0.00064
4649.53794,0.00678
4651.46641,0.01808
4653.39487,0.02105
4655.32334,0.01521
4657.25181,0.00882
4659.18028,0.00606
4661.10875,0.00575
4663.03722,0.00234
4664.96569,-0.00445
4666.89416,-0.00937
4668.82262,-0.01055
4670.75109,-0.00847
4672.67956,-0.00219
4674.60803,0.00552
4676.53650,0.00822
4678.46497,0.00749
4680.39344,0.00962
4682.32190,0.00904
4684.25037,0.00260
4686.17884,0.00124
4688.10731,0.00482
4690.03578,0.00525
4691.96425,0.00417
4693.89272,0.00539
4695.82119,0.00958
4697.74965,0.01159
4699.67812,0.00535
4701.60659,-0.00447
4703.53506,-0.00695
4705.46353,-0.00167
4707.39200,0.00237
4709.32047,0.00667
4711.24893,0.01516
4713.17740,0.01788
4715.10587,0.01063
4717.03434,0.00277
4718.96281,-0.00084
4720.89128,-0.00197
4722.81975,-0.00243
4724.74821,-0.00268
4726.67668,-0.00289
4728.60515,-0.00370
4730.53362,-0.00281
4732.46209,0.00182
4734.39056,0.00580
4736.31903,0.00333
4738.24750,-0.00491
4740.17596,-0.00999
4742.10443,-0.00758
4744.03290,-0.00230
4745.96137,0.00602
4747.88984,0.01197
4749.81831,0.00560
4751.74678,-0.00339
4753.67524,-0.00250
4755.60371,0.00410
4757.53218,0.00801
4759.46065,0.00883
4761.38912,0.00704
4763.31759,0.00166
4765.24606,0.00063
4767.17453,0.00804
4769.10299,0.01103
4771.03146,0.00606
4772.95993,0.00620
4774.88840,0.00936
4776.81687,0.00776
4778.74534,0.00908
4780.67381,0.01274
4782.60227,0.01084
4784.53074,0.00958
4786.45921,0.01241
4788.38768,0.01401
4790.31615,0.01518
4792.24462,0.01581
4794.17309,0.01140
4796.10156,0.00583
4798.03002,0.00401
4799.95849,0.00073
4801.88696,-0.00461
4803.81543,-0.00608
4805.74390,-0.00488
4807.67237,-0.00272
4809.60084,0.00498
4811.52930,0.01378
4813.45777,0.01359
4815.38624,0.00904
4817.31471,0.00511
4819.24318,0.00031
4821.17165,-0.00083
4823.10012,-0.00137
4825.02859,-0.00207
4826.95705,0.00485
4828.88552,0.01211
4830.81399,0.01017
4832.74246,0.00549
4834.67093,0.00052
4836.59940,-0.00598
4838.52787,-0.00627
4840.45633,0.00004
4842.38480,0.00542
4844.31327,0.00778
4846.24174,0.00675
4848.17021,0.00454
4850.09868,0.00647
4852.02715,0.00716
4853.95562,0.00165
4855.88408,-0.00311
4857.81255,-0.00563
4859.74102,-0.00805
4861.66949,-0.00883
4863.59796,-0.00467
4865.52643,0.00728
4867.45490,0.02016
4869.38336,0.02257
4871.31183,0.01544
4873.24030,0.00953
4875.16877,0.00693
4877.09724,0.00353
4879.02571,0.00588
4880.95418,0.01594
4882.88265,0.02040
4884.81111,0.01656
4886.73958,0.01073
4888.66805,0.00198
4890.59652,-0.00537
4892.52499,-0.00676
4894.45346,-0.00691
4896.38193,-0.00540
4898.31039,0.00311
4900.23886,0.01458
4902.16733,0.01947
4904.09580,0.02013
4906.02427,0.02059
4907.95274,0.01451
4909.88121,0.00558
4911.80967,0.00256
4913.73814,0.00225
4915.66661,0.00074
4917.59508,-0.00114
4919.52355,0.00021
4921.45202,0.01120
4923.38049,0.02709
4925.30896,0.03360
4927.23742,0.02791
4929.16589,0.01570
4931.09436,0.00824
4933.02283,0.01442
4934.95130,0.01893
4936.87977,0.01002
4938.80824,0.00040
4940.73670,0.00050
4942.66517,0.00794
4944.59364,0.01447
4946.52211,0.01313
4948.45058,0.00718
4950.37905,0.00141
4952.30752,-0.00273
4954.23599,-0.00222
4956.16445,0.00007
4958.09292,-0.00275
4960.02139,-0.01174
4961.94986,-0.01654
4963.87833,-0.01135
4965.80680,-0.00853
4967.73527,-0.01056
4969.66373,-0.00524
4971.59220,0.00483
4973.52067,0.00515
4975.44914,-0.00043
4977.37761,0.00124
4979.30608,0.00555
4981.23455,0.00280
4983.16302,-0.00290
4985.09148,-0.00145
4987.01995,0.00697
4988.94842,0.01605
4990.87689,0.01829
4992.80536,0.00987
4994.73383,0.00074
4996.66230,-0.00017
4998.59076,0.00525
5000.51923,0.01040
5002.44770,0.01032
5004.37617,0.00744
5006.30464,0.00889
5008.23311,0.01670
5010.16158,0.02082
5012.09005,0.01619
5014.01851,0.01504
5015.94698,0.01871
5017.87545,0.01586
5019.80392,0.00796
5021.73239,0.00174
5023.66086,-0.00118
5025.58933,-0.00178
5027.51779,-0.00396
5029.44626,-0.00774
5031.37473,-0.00280
5033.30320,0.01408
5035.23167,0.02293
5037.16014,0.01442
5039.08861,0.00661
5041.01708,0.01199
5042.94554,0.02188
5044.87401,0.02201
5046.80248,0.01579
5048.73095,0.01679
5050.65942,0.01610
5052.58789,0.00493
5054.51636,-0.00346
5056.44482,-0.00316
5058.37329,0.00016
5060.30176,0.00149
5062.23023,-0.00170
5064.15870,-0.00297
5066.08717,0.00063
5068.01564,0.00007
5069.94410,-0.00317
5071.87257,-0.00215
5073.80104,0.00058
5075.72951,0.00661
5077.65798,0.01822
5079.58645,0.02900
5081.51492,0.03176
5083.44339,0.03161
5085.37185,0.03380
5087.30032,0.02635
5089.22879,0.00968
5091.15726,0.00204
5093.08573,0.00361
5095.01420,0.00245
5096.94267,0.00263
5098.87113,0.01377
5100.79960,0.02412
5102.72807,0.02394
5104.65654,0.02214
5106.58501,0.01459
5108.51348,0.00151
5110.44195,0.00567
5112.37042,0.02408
5114.29888,0.03186
5116.22735,0.02543
5118.15582,0.01255
5120.08429,0.00102
5122.01276,-0.00300
5123.94123,0.00337
5125.86970,0.01483
5127.79816,0.01527
5129.72663,0.00913
5131.65510,0.01526
5133.58357,0.02760
5135.51204,0.03274
5137.44051,0.03243
5139.36898,0.03197
5141.29745,0.03085
5143.22591,0.02471
5145.15438,0.01395
5147.08285,0.00488
5149.01132,0.00562
5150.93979,0.01711
5152.86826,0.02801
5154.79673,0.03489
5156.72519,0.04127
5158.65366,0.03496
5160.58213,0.01544
5162.51060,0.00781
5164.43907,0.01567
5166.36754,0.01913
5168.29601,0.02063
5170.22448,0.03076
5172.15294,0.04030
5174.08141,0.04008
5176.00988,0.03685
5177.93835,0.03398
5179.86682,0.02727
5181.79529,0.02428
5183.72376,0.02850
5185.65222,0.02765
5187.58069,0.02412
5189.50916,0.02473
5191.43763,0.02299
5193.36610,0.01877
5195.29457,0.01961
5197.22304,0.02571
5199.15151,0.02607
5201.07997,0.02047
5203.00844,0.01723
5204.93691,0.01253
5206.86538,0.00715
5208.79385,0.00786
5210.72232,0.00875
5212.65079,0.01068
5214.57925,0.01938
5216.50772,0.02401
5218.43619,0.01583
5220.36466,0.00917
5222.29313,0.01279
5224.22160,0.01799
5226.15007,0.02332
5228.07854,0.03169
5230.00700,0.03814
5231.93547,0.03973
5233.86394,0.03844
5235.79241,0.03952
5237.72088,0.04820
5239.64935,0.05587
5241.57782,0.04639
5243.50628,0.02482
5245.43475,0.00950
5247.36322,0.00956
5249.29169,0.02769
5251.22016,0.04460
5253.14863,0.04144
5255.07710,0.02939
5257.00556,0.02404
5258.93403,0.02349
5260.86250,0.02103
5262.79097,0.01920
5264.71944,0.02130
5266.64791,0.02354
5268.57638,0.02544
5270.50485,0.02865
5272.43331,0.02578
5274.36178,0.01579
5276.29025,0.01716
5278.21872,0.03352
5280.14719,0.04113
5282.07566,0.03311
5284.00413,0.02828
5285.93259,0.03355
5287.86106,0.03991
5289.78953,0.04104
5291.71800,0.03640
5293.64647,0.03561
5295.57494,0.04302
5297.50341,0.04624
5299.43188,0.03995
5301.36034,0.03839
5303.28881,0.04456
5305.21728,0.04594
5307.14575,0.03915
5309.07422,0.03207
5311.00269,0.03660
5312.93116,0.04775
5314.85962,0.04677
5316.78809,0.03232
5318.71656,0.02677
5320.64503,0.03428
5322.57350,0.03313
5324.50197,0.02576
5326.43044,0.02956
5328.35891,0.04105
5330.28737,0.05290
5332.21584,0.05755
5334.14431,0.05051
5336.07278,0.04191
5338.00125,0.03400
5339.92972,0.02204
5341.85819,0.01396
5343.78665,0.02049
5345.71512,0.03867
5347.64359,0.05240
5349.57206,0.05740
5351.50053,0.05477
5353.42900,0.04945
5355.35747,0.04776
5357.28594,0.05088
5359.21440,0.06139
5361.14287,0.07236
5363.07134,0.07539
5364.99981,0.07065
5366.92828,0.05837
5368.85675,0.04894
5370.78522,0.04656
5372.71368,0.04142
5374.64215,0.03471
5376.57062,0.03708
5378.49909,0.04972
5380.42756,0.05890
5382.35603,0.05126
5384.28450,0.02639
5386.21297,0.00521
5388.14143,0.00494
5390.06990,0.01402
5391.99837,0.02453
5393.92684,0.03382
5395.85531,0.03847
5397.78378,0.04661
5399.71225,0.05747
5401.64071,0.05975
5403.56918,0.05102
5405.49765,0.04380
5407.42612,0.04906
5409.35459,0.05261
5411.28306,0.04381
5413.21153,0.03561
5415.13999,0.03069
5417.06846,0.02682
5418.99693,0.02768
5420.92540,0.02618
5422.85387,0.02153
5424.78234,0.03255
5426.71081,0.05520
5428.63928,0.05277
5430.56774,0.03058
5432.49621,0.02541
5434.42468,0.03026
5436.35315,0.03040
5438.28162,0.03072
5440.21009,0.03190
5442.13856,0.03340
5444.06702,0.03716
5445.99549,0.03991
5447.92396,0.03836
5449.85243,0.03201
5451.78090,0.02639
5453.70937,0.02720
5455.63784,0.02670
5457.56631,0.01353
5459.49477,-0.00753
5461.42324,-0.01435
5463.35171,0.00263
5465.28018,0.02362
5467.20865,0.02908
5469.13712,0.02272
5471.06559,0.03034
5472.99405,0.04832
5474.92252,0.04861
5476.85099,0.04407
5478.77946,0.05686
5480.70793,0.06921
5482.63640,0.06298
5484.56487,0.04879
5486.49334,0.04771
5488.42180,0.05934
5490.35027,0.06354
5492.27874,0.04904
5494.20721,0.03665
5496.13568,0.05182
5498.06415,0.08105
5499.99262,0.08615
5501.92108,0.06295
5503.84955,0.04811
5505.77802,0.05549
5507.70649,0.06450
5509.63496,0.05584
5511.56343,0.03233
5513.49190,0.01078
5515.42037,0.01621
5517.34883,0.04312
5519.27730,0.05227
5521.20577,0.04021
5523.13424,0.03909
5525.06271,0.04973
5526.99118,0.04926
5528.91965,0.04066
5530.84811,0.03399
5532.77658,0.02451
5534.70505,0.01199
5536.63352,0.01045
5538.56199,0.02557
5540.49046,0.05142
5542.41893,0.07762
5544.34740,0.08298
5546.27586,0.07109
5548.20433,0.06525
5550.13280,0.06808
5552.06127,0.07209
5553.98974,0.07818
5555.91821,0.08294
5557.84668,0.07837
5559.77514,0.07911
5561.70361,0.09094
5563.63208,0.08908
5565.56055,0.06820
5567.48902,0.05636
5569.41749,0.06259
5571.34596,0.06752
5573.27443,0.06983
5575.20289,0.07453
5577.13136,0.07004
5579.05983,0.05755
5580.98830,0.05182
5582.91677,0.04736
5584.84524,0.04307
5586.77371,0.05449
5588.70217,0.06816
5590.63064,0.06676
5592.55911,0.05530
5594.48758,0.04552
5596.41605,0.04751
5598.34452,0.05173
5600.27299,0.05115
5602.20145,0.05271
5604.12992,0.05181
5606.05839,0.04776
5607.98686,0.04516
5609.91533,0.04052
5611.84380,0.04694
5613.77227,0.06513
5615.70074,0.06127
5617.62920,0.03946
5619.55767,0.03763
5621.48614,0.04734
5623.41461,0.03392
5625.34308,0.01306
5627.27155,0.01529
5629.20002,0.02833
5631.12848,0.03419
5633.05695,0.03863
5634.98542,0.05355
5636.91389,0.06763
5638.84236,0.06611
5640.77083,0.06705
5642.69930,0.08013
5644.62777,0.08865
5646.55623,0.07955
5648.48470,0.05693
5650.41317,0.04149
5652.34164,0.04135
5654.27011,0.03573
5656.19858,0.01601
5658.12705,0.01056
5660.05551,0.04013
5661.98398,0.07487
5663.91245,0.07981
5665.84092,0.05901
5667.76939,0.03538
5669.69786,0.03351
5671.62633,0.05422
5673.55480,0.07040
5675.48326,0.06719
5677.41173,0.05059
5679.34020,0.02371
5681.26867,-0.00126
5683.19714,0.00251
5685.12561,0.02660
5687.05408,0.04173
5688.98254,0.04984
5690.91101,0.05780
5692.83948,0.04854
5694.76795,0.02766
5696.69642,0.03024
5698.62489,0.05452
5700.55336,0.07112
5702.48183,0.08040
5704.41029,0.08111
5706.33876,0.06108
5708.26723,0.04005
5710.19570,0.04196
5712.12417,0.04923
5714.05264,0.04507
5715.98111,0.04899
5717.90957,0.06163
5719.83804,0.06602
5721.76651,0.05992
5723.69498,0.04034
5725.62345,0.02851
5727.55192,0.03690
5729.48039,0.04124
5731.40886,0.04894
5733.33732,0.07458
5735.26579,0.09268
5737.19426,0.08575
5739.12273,0.07210
5741.05120,0.05617
5742.97967,0.03928
5744.90814,0.03624
5746.83660,0.05011
5748.76507,0.07383
5750.69354,0.08300
5752.62201,0.06119
5754.55048,0.02710
5756.47895,0.01015
5758.40742,0.02419
5760.33588,0.04949
5762.26435,0.05969
5764.19282,0.05379
5766.12129,0.04992
5768.04976,0.05927
5769.97823,0.07744
5771.90670,0.09006
5773.83517,0.09268
5775.76363,0.09012
5777.69210,0.07554
5779.62057,0.05052
5781.54904,0.02888
5783.47751,0.01833
5785.40598,0.01114
5787.33445,0.00940
5789.26291,0.02991
5791.19138,0.05456
5793.11985,0.05522
5795.04832,0.03281
5796.97679,0.01296
5798.90526,0.02293
5800.83373,0.05374
5802.76220,0.08106
5804.69066,0.10502
5806.61913,0.11903
5808.54760,0.09676
5810.47607,0.05088
5812.40454,0.02890
5814.33301,0.04702
5816.26148,0.06620
5818.18994,0.06755
5820.11841,0.07593
5822.04688,0.08745
5823.97535,0.08723
5825.90382,0.08764
5827.83229,0.08068
5829.76076,0.04762
5831.68923,0.02001
5833.61769,0.02755
5835.54616,0.03340
5837.47463,0.01504
5839.40310,0.01242
5841.33157,0.03327
5843.26004,0.03220
5845.18851,0.00697
5847.11697,-0.00299
5849.04544,0.01762
5850.97391,0.04377
5852.90238,0.05781
5854.83085,0.07519
5856.75932,0.09215
5858.68779,0.08367
5860.61626,0.05800
5862.54472,0.04707
5864.47319,0.05092
5866.40166,0.04920
5868.33013,0.04108
5870.25860,0.04239
5872.18707,0.05441
5874.11554,0.06565
5876.04400,0.07511
5877.97247,0.07870
5879.90094,0.08016
5881.82941,0.09376
5883.75788,0.11482
5885.68635,0.12563
5887.61482,0.10274
5889.54329,0.06426
5891.47175,0.06705
5893.40022,0.09555
5895.32869,0.09029
5897.25716,0.06393
5899.18563,0.06030
5901.11410,0.06406
5903.04257,0.04684
5904.97103,0.03005
5906.89950,0.04558
5908.82797,0.08376
5910.75644,0.10181
5912.68491,0.08945
5914.61338,0.07447
5916.54185,0.06406
5918.47032,0.05685
5920.39878,0.06520
5922.32725,0.08218
5924.25572,0.08269
5926.18419,0.05436
5928.11266,0.03000
5930.04113,0.04971
5931.96960,0.07266
5933.89806,0.04006
5935.82653,-0.00415
5937.75500,0.00059
5939.68347,0.02975
5941.61194,0.04578
5943.54041,0.04026
5945.46888,0.03660
5947.39734,0.05253
5949.32581,0.06593
5951.25428,0.06358
5953.18275,0.05629
5955.11122,0.05100
5957.03969,0.05805
5958.96816,0.07386
5960.89663,0.07650
5962.82509,0.06573
5964.75356,0.07245
5966.68203,0.09713
5968.61050,0.08937
5970.53897,0.04225
5972.46744,0.00437
5974.39591,-0.00207
5976.32437,0.00510
5978.25284,0.01524
5980.18131,0.03413
5982.10978,0.04820
5984.03825,0.05074
5985.96672,0.06314
5987.89519,0.07919
5989.82366,0.06816
5991.75212,0.04112
5993.68059,0.02501
5995.60906,0.01411
5997.53753,0.01874
5999.46600,0.05300
6001.39447,0.08640
6003.32294,0.09392
6005.25140,0.07462
6007.17987,0.03239
6009.10834,0.00395
6011.03681,0.03431
6012.96528,0.08996
6014.89375,0.10717
6016.82222,0.10184
6018.75069,0.11705
6020.67915,0.13252
6022.60762,0.11977
6024.53609,0.08659
6026.46456,0.06011
6028.39303,0.06705
6030.32150,0.08792
6032.24997,0.07541
6034.17843,0.04891
6036.10690,0.07077
6038.03537,0.11938
6039.96384,0.13245
6041.89231,0.10271
6043.82078,0.06176
6045.74925,0.04870
6047.67772,0.04572
6049.60618,0.02763
6051.53465,0.03297
6053.46312,0.06506
6055.39159,0.07516
6057.32006,0.05821
6059.24853,0.04222
6061.17700,0.04245
6063.10546,0.05286
6065.03393,0.06078
6066.96240,0.07336
6068.89087,0.07807
6070.81934,0.07038
6072.74781,0.07632
6074.67628,0.09421
6076.60475,0.09787
6078.53321,0.08015
6080.46168,0.05370
6082.39015,0.02581
6084.31862,0.01549
6086.24709,0.03001
6088.17556,0.03731
6090.10403,0.03512
6092.03249,0.03207
6093.96096,0.02290
6095.88943,0.03052
6097.81790,0.06714
6099.74637,0.08959
6101.67484,0.07607
6103.60331,0.06901
6105.53177,0.07809
6107.46024,0.07902
6109.38871,0.07539
6111.31718,0.07019
6113.24565,0.05669
6115.17412,0.03621
6117.10259,0.01540
6119.03106,0.01760
6120.95952,0.03611
6122.88799,0.04058
6124.81646,0.04237
6126.74493,0.04933
6128.67340,0.04831
6130.60187,0.02966
6132.53034,-0.00441
6134.45880,-0.01839
6136.38727,0.00480
6138.31574,0.02997
6140.24421,0.04451
6142.17268,0.05842
6144.10115,0.04560
6146.02962,0.01103
6147.95809,0.00022
6149.88655,0.02722
6151.81502,0.07053
6153.74349,0.09132
6155.67196,0.09305
6157.60043,0.10901
6159.52890,0.11713
6161.45737,0.07624
6163.38583,0.01283
6165.31430,-0.01168
6167.24277,-0.00754
6169.17124,-0.01093
6171.09971,-0.00198
6173.02818,0.02322
6174.95665,0.04621
6176.88512,0.06788
6178.81358,0.07798
6180.74205,0.07529
6182.67052,0.06942
6184.59899,0.07053
6186.52746,0.08427
6188.45593,0.07650
6190.38440,0.03240
6192.31286,0.00301
6194.24133,0.01717
6196.16980,0.06035
6198.09827,0.08730
6200.02674,0.07506
6201.95521,0.05763
6203.88368,0.04680
6205.81215,0.04899
6207.74061,0.07466
6209.66908,0.09002
6211.59755,0.08106
6213.52602,0.07627
6215.45449,0.08759
6217.38296,0.09636
6219.31143,0.08633
6221.23989,0.07522
6223.16836,0.06214
6225.09683,0.02773
6227.02530,-0.00048
6228.95377,0.01090
6230.88224,0.04102
6232.81071,0.03983
6234.73918,0.00164
6236.66764,-0.02121
6238.59611,-0.00960
6240.52458,0.00822
6242.45305,0.01961
6244.38152,0.03265
6246.30999,0.03925
6248.23846,0.02452
6250.16692,-0.01425
6252.09539,-0.05121
6254.02386,-0.04221
6255.95233,0.00065
6257.88080,0.02815
6259.80927,0.03289
6261.73774,0.02134
6263.66621,0.00788
6265.59467,0.02603
6267.52314,0.05179
6269.45161,0.05101
6271.38008,0.04471
6273.30855,0.04965
6275.23702,0.06261
6277.16549,0.06467
6279.09395,0.04888
6281.02242,0.03953
6282.95089,0.05333
6284.87936,0.07586
6286.80783,0.08562
6288.73630,0.09105
6290.66477,0.10026
6292.59323,0.09058
6294.52170,0.06881
6296.45017,0.05353
6298.37864,0.04513
6300.30711,0.06062
6302.23558,0.06582
6304.16405,0.01713
6306.09252,-0.02848
6308.02098,-0.02961
6309.94945,-0.00840
6311.87792,0.00750
6313.80639,0.03306
6315.73486,0.07867
6317.66333,0.10349
6319.59180,0.10256
6321.52026,0.09762
6323.44873,0.07495
6325.37720,0.03947
6327.30567,0.03578
6329.23414,0.06799
6331.16261,0.07959
6333.09108,0.06541
6335.01955,0.05571
6336.94801,0.05649
6338.87648,0.07986
6340.80495,0.10930
6342.73342,0.12009
6344.66189,0.12527
6346.59036,0.10409
6348.51883,0.03401
6350.44729,-0.02455
6352.37576,-0.01227
6354.30423,0.03788
6356.23270,0.07787
6358.16117,0.09051
6360.08964,0.06273
6362.01811,0.02099
6363.94658,0.00560
6365.87504,-0.00041
6367.80351,-0.00035
6369.73198,0.03544
6371.66045,0.10704
6373.58892,0.16349
6375.51739,0.14101
6377.44586,0.07903
6379.37432,0.04474
6381.30279,0.04589
6383.23126,0.06887
6385.15973,0.07597
6387.08820,0.04779
6389.01667,0.01835
6390.94514,0.01247
6392.87361,0.02222
6394.80207,0.03120
6396.73054,0.04338
6398.65901,0.06121
6400.58748,0.06147
6402.51595,0.03677
6404.44442,0.01119
6406.37289,-0.00309
6408.30135,-0.00484
6410.22982,0.01596
6412.15829,0.04765
6414.08676,0.04679
6416.01523,0.03002
6417.94370,0.05139
6419.87217,0.08232
6421.80064,0.07809
6423.72910,0.06179
6425.65757,0.06838
6427.58604,0.11417
6429.51451,0.16405
6431.44298,0.16519
6433.37145,0.13917
6435.29992,0.13588
6437.22838,0.13626
6439.15685,0.11552
6441.08532,0.09556
6443.01379,0.07409
6444.94226,0.03806
6446.87073,0.00408
6448.79920,-0.00353
6450.72766,0.01888
6452.65613,0.05186
6454.58460,0.08909
6456.51307,0.13074
6458.44154,0.15502
6460.37001,0.13831
6462.29848,0.08213
6464.22695,0.02106
6466.15541,-0.00626
6468.08388,-0.00773
6470.01235,-0.01684
6471.94082,-0.01641
6473.86929,0.01931
6475.79776,0.06708
6477.72623,0.08987
6479.65469,0.10534
6481.58316,0.11305
6483.51163,0.07515
6485.44010,0.03889
6487.36857,0.04502
6489.29704,0.06945
6491.22551,0.07926
6493.15398,0.05984
6495.08244,0.02814
6497.01091,0.01044
6498.93938,0.03372
6500.86785,0.08121
6502.79632,0.09337
6504.72479,0.06545
6506.65326,0.00435
6508.58172,-0.05677
6510.51019,-0.03836
6512.43866,0.03023
6514.36713,0.04598
6516.29560,0.02661
6518.22407,0.03858
6520.15254,0.05041
6522.08101,0.02102
6524.00947,0.00553
6525.93794,0.04391
6527.86641,0.07958
6529.79488,0.08810
6531.72335,0.10255
6533.65182,0.13033
6535.58029,0.12942
6537.50875,0.10279
6539.43722,0.09493
6541.36569,0.07961
6543.29416,0.05542
6545.22263,0.09113
6547.15110,0.14678
6549.07957,0.12880
6551.00804,0.05268
6552.93650,0.01965
6554.86497,0.03784
6556.79344,0.04562
6558.72191,0.02474
6560.65038,0.01354
6562.57885,0.03222
6564.50732,0.05253
6566.43578,0.04842
6568.36425,0.02285
6570.29272,0.00183
6572.22119,-0.00345
6574.14966,0.01517
6576.07813,0.04983
6578.00660,0.04020
6579.93507,0.00141
6581.86353,0.01758
6583.79200,0.06698
6585.72047,0.06361
6587.64894,0.01691
6589.57741,-0.00561
6591.50588,0.02982
6593.43435,0.10206
6595.36281,0.13140
6597.29128,0.11954
6599.21975,0.11823
6601.14822,0.08041
6603.07669,0.00923
6605.00516,-0.01661
6606.93363,-0.00197
6608.86210,0.02249
6610.79056,0.05186
6612.71903,0.07675
6614.64750,0.07638
6616.57597,0.04569
6618.50444,0.02958
6620.43291,0.04961
6622.36138,0.05805
6624.28984,0.04851
6626.21831,0.08894
6628.14678,0.14056
6630.07525,0.08964
6632.00372,0.03053
6633.93219,0.06993
6635.86066,0.11767
6637.78912,0.07572
6639.71759,0.02143
6641.64606,0.02987
6643.57453,0.05355
6645.50300,0.04550
6647.43147,0.03452
6649.35994,0.06351
6651.28841,0.09907
6653.21687,0.07976
6655.14534,0.04697
6657.07381,0.06557
6659.00228,0.07819
6660.93075,0.03970
6662.85922,0.00072
6664.78769,0.00064
6666.71615,0.02932
6668.64462,0.05212
6670.57309,0.08317
6672.50156,0.13902
6674.43003,0.16949
6676.35850,0.15493
6678.28697,0.11921
6680.21544,0.10101
6682.14390,0.08586
6684.07237,0.04470
6686.00084,0.01673
6687.92931,0.02317
6689.85778,0.03352
6691.78625,0.02737
6693.71472,0.02843
6695.64318,0.03235
6697.57165,-0.00078
6699.50012,-0.03263
6701.42859,-0.02202
6703.35706,-0.00608
6705.28553,0.01287
6707.21400,0.04224
6709.14247,0.04542
6711.07093,0.02259
6712.99940,0.01153
6714.92787,0.03901
6716.85634,0.08135
6718.78481,0.10252
6720.71328,0.11032
6722.64175,0.11031
6724.57021,0.09960
6726.49868,0.08895
6728.42715,0.07756
6730.35562,0.06187
6732.28409,0.04069
6734.21256,-0.00296
6736.14103,-0.04944
6738.06950,-0.04793
6739.99796,0.00457
6741.92643,0.06016
6743.85490,0.06009
6745.78337,0.01115
6747.71184,-0.03897
6749.64031,-0.04026
6751.56878,-0.00364
6753.49724,0.02573
6755.42571,0.03682
6757.35418,0.02382
6759.28265,0.01939
6761.21112,0.07943
6763.13959,0.13796
6765.06806,0.12529
6766.99653,0.08714
6768.92499,0.08839
6770.85346,0.11523
6772.78193,0.13444
6774.71040,0.10656
6776.63887,0.03734
6778.56734,0.05379
6780.49581,0.13074
6782.42427,0.14875
6784.35274,0.11202
6786.28121,0.03835
6788.20968,-0.03711
6790.13815,-0.06246
6792.06662,-0.08161
6793.99509,-0.11759
6795.92355,-0.09804
6797.85202,-0.02762
6799.78049,0.02453
6801.70896,0.04265
6803.63743,0.06852
6805.56590,0.11426
6807.49437,0.13424
6809.42284,0.11357
6811.35130,0.07026
6813.27977,0.03501
6815.20824,0.02572
6817.13671,0.04848
6819.06518,0.07014
6820.99365,0.06638
6822.92212,0.09567
6824.85058,0.13931
6826.77905,0.10436
6828.70752,0.01377
6830.63599,-0.04095
6832.56446,-0.00618
6834.49293,0.08277
6836.42140,0.14525
6838.34987,0.10506
6840.27833,-0.00529
6842.20680,-0.05958
6844.13527,-0.01402
6846.06374,0.04605
6847.99221,0.07838
6849.92068,0.07082
6851.84915,0.00475
6853.77761,-0.07679
6855.70608,-0.08353
6857.63455,0.01035
6859.56302,0.07050
6861.49149,0.05257
6863.41996,0.02825
6865.34843,0.01143
6867.27690,0.00148
6869.20536,0.00849
6871.13383,0.00071
6873.06230,-0.04341
6874.99077,-0.08253
6876.91924,-0.06949
6878.84771,-0.00204
6880.77618,0.05192
6882.70464,0.03726
6884.63311,0.02717
6886.56158,0.08681
6888.49005,0.15844
6890.41852,0.19819
6892.34699,0.22339
6894.27546,0.18357
6896.20393,0.09043
6898.13239,0.02690
6900.06086,-0.00420
6901.98933,-0.03703
6903.91780,-0.06523
6905.84627,-0.06796
6907.77474,-0.07402
6909.70321,-0.07676
6911.63167,-0.03565
6913.56014,0.04006
6915.48861,0.06774
6917.41708,0.03044
6919.34555,0.02142
6921.27402,0.02531
6923.20249,-0.01277
6925.13096,-0.02064
6927.05942,0.00656
6928.98789,0.03074
6930.91636,0.03602
6932.84483,-0.00441
6934.77330,-0.07309
6936.70177,-0.11812
6938.63024,-0.11858
6940.55870,-0.08222
6942.48717,-0.05240
6944.41564,-0.03012
6946.34411,0.01438
6948.27258,0.06038
6950.20105,0.06667
6952.12952,0.06047
6954.05799,0.06667
6955.98645,0.04601
6957.91492,0.05562
6959.84339,0.15295
6961.77186,0.20709
6963.70033,0.15242
6965.62880,0.09101
6967.55727,0.07545
6969.48573,0.07954
6971.41420,0.05797
6973.34267,-0.00280
6975.27114,-0.04346
6977.19961,-0.02326
6979.12808,0.00054
6981.05655,-0.03289
6982.98501,-0.09590
6984.91348,-0.06272
6986.84195,0.04901
6988.77042,0.08697
6990.69889,0.03929
6992.62736,0.00133
6994.55583,0.03093
6996.48430,0.08206
6998.41276,0.04667
7000.34123,-0.01027
7002.26970,0.02351
7004.19817,0.08753
7006.12664,0.09406
7008.05511,0.03989
7009.98358,0.00355
7011.91204,-0.02837
7013.84051,-0.09783
7015.76898,-0.12980
7017.69745,-0.09161
7019.62592,-0.06147
7021.55439,-0.05715
7023.48286,-0.02854
7025.41133,0.02631
7027.33979,0.04037
7029.26826,-0.05901
7031.19673,-0.16127
7033.12520,-0.10238
7035.05367,0.08122
7036.98214,0.17276
7038.91061,0.14611
7040.83907,0.07823
7042.76754,0.04905
7044.69601,0.12425
7046.62448,0.19425
7048.55295,0.15277
7050.48142,0.08278
7052.40989,0.06319
7054.33836,0.05660
7056.26682,0.00808
7058.19529,-0.07209
7060.12376,-0.13382
7062.05223,-0.12734
7063.98070,-0.02614
7065.90917,0.07667
7067.83764,0.15098
7069.76610,0.26372
7071.69457,0.29913
7073.62304,0.16823
7075.55151,0.05764
7077.47998,0.04283
7079.40845,0.06391
7081.33692,0.08317
7083.26539,0.10322
7085.19385,0.11890
7087.12232,0.12827
7089.05079,0.14347
7090.97926,0.16491
7092.90773,0.16206
7094.83620,0.08134
7096.76467,-0.01741
7098.69313,-0.01314
7100.62160,0.04776
7102.55007,0.09512
7104.47854,0.09771
7106.40701,0.02004
7108.33548,-0.01578
7110.26395,0.01390
7112.19242,0.01634
7114.12088,0.02221
7116.04935,0.05531
7117.97782,0.07484
7119.90629,0.09498
7121.83476,0.12326
7123.76323,0.10255
7125.69170,0.03086
7127.62016,-0.00919
7129.54863,-0.02110
7131.47710,-0.03811
7133.40557,-0.01630
7135.33404,0.01627
7137.26251,0.02899
7139.19098,0.04280
7141.11944,0.04403
7143.04791,0.05164
7144.97638,0.08333
7146.90485,0.13033
7148.83332,0.12241
7150.76179,-0.00943
7152.69026,-0.15694
7154.61873,-0.18852
7156.54719,-0.15085
7158.47566,-0.07652
7160.40413,0.02922
7162.33260,0.10594
7164.26107,0.11875
7166.18954,0.10475
7168.11801,0.13476
7170.04647,0.20373
7171.97494,0.20708
7173.90341,0.18588
7175.83188,0.23259
7177.76035,0.22852
7179.68882,0.15571
7181.61729,0.14296
7183.54576,0.09894
7185.47422,-0.01154
7187.40269,-0.01659
7189.33116,0.05813
7191.25963,0.07496
7193.18810,0.03542
7195.11657,0.02503
7197.04504,0.01481
7198.97350,-0.03073
7200.90197,-0.06330
7202.83044,-0.04108
7204.75891,0.02810
7206.68738,0.04533
7208.61585,0.02008
7210.54432,0.05217
7212.47279,0.14653
7214.40125,0.26139
7216.32972,0.33808
7218.25819,0.30963
7220.18666,0.23083
7222.11513,0.14190
7224.04360,0.06046
7225.97207,0.05392
7227.90053,0.10729
7229.82900,0.16043
7231.75747,0.16759
7233.68594,0.14524
7235.61441,0.17913
7237.54288,0.20014
7239.47135,0.14535
7241.39982,0.13483
7243.32828,0.20977
7245.25675,0.24111
7247.18522,0.18058
7249.11369,0.09880
7251.04216,0.07769
7252.97063,0.13728
7254.89910,0.19120
7256.82756,0.17192
7258.75603,0.14251
7260.68450,0.10881
7262.61297,-0.04864
7264.54144,-0.23300
7266.46991,-0.21264
7268.39838,-0.06333
7270.32685,0.03478
7272.25531,0.02266
7274.18378,-0.00641
7276.11225,-0.01841
7278.04072,-0.07152
7279.96919,-0.14890
7281.89766,-0.05210
7283.82613,0.15161
7285.75459,0.20251
7287.68306,0.12750
7289.61153,0.12374
7291.54000,0.17144
7293.46847,0.18512
7295.39694,0.20538
7297.32541,0.21642
7299.25387,0.15365
7301.18234,0.05510
7303.11081,0.03585
7305.03928,0.11846
7306.96775,0.20948
7308.89622,0.16401
7310.82469,0.02739
7312.75316,0.02231
7314.68162,0.12555
7316.61009,0.20614
7318.53856,0.11667
7320.46703,-0.08559
7322.39550,-0.20634
7324.32397,-0.15244
7326.25244,-0.00828
7328.18090,0.08037
7330.10937,0.02656
7332.03784,0.01635
7333.96631,0.08219
7335.89478,0.09960
7337.82325,0.09010
7339.75172,0.08844
7341.68019,0.09367
7343.60865,0.06418
7345.53712,-0.00843
7347.46559,-0.04474
7349.39406,-0.03339
7351.32253,-0.01245
7353.25100,0.05123
7355.17947,0.13844
7357.10793,0.24326
7359.03640,0.33201
7360.96487,0.28999
7362.89334,0.15083
7364.82181,0.06440
7366.75028,0.12852
7368.67875,0.25617
7370.60722,0.30467
7372.53568,0.31600
7374.46415,0.28349
7376.39262,0.17742
7378.32109,0.17512
7380.24956,0.20001
7382.17803,0.17120
7384.10650,0.13567
7386.03496,0.09133
7387.96343,0.05783
7389.89190,0.10156
7391.82037,0.20559
7393.74884,0.28292
7395.67731,0.26875
7397.60578,0.12184
7399.53425,-0.08317
7401.46271,-0.17501
7403.39118,-0.17958
7405.31965,-0.18134
7407.24812,-0.14015
7409.17659,-0.12728
7411.10506,-0.14107
7413.03353,-0.07891
7414.96199,-0.01602
7416.89046,-0.04779
7418.81893,-0.11794
7420.74740,-0.08412
7422.67587,0.02968
7424.60434,0.06424
7426.53281,-0.04277
7428.46128,-0.19962
7430.38974,-0.22715
7432.31821,-0.11279
7434.24668,-0.03122
7436.17515,-0.00389
7438.10362,-0.00132
7440.03209,-0.03978
7441.96056,-0.06611
7443.88902,-0.02349
7445.81749,0.04620
7447.74596,0.06885
7449.67443,0.02389
7451.60290,-0.06741
7453.53137,-0.14885
7455.45984,-0.11828
7457.38831,0.04770
7459.31677,0.23462
7461.24524,0.25188
7463.17371,0.17194
7465.10218,0.08199
7467.03065,0.00943
7468.95912,0.02203
7470.88759,0.11580
7472.81605,0.22613
7474.74452,0.26589
7476.67299,0.29313
7478.60146,0.39571
7480.52993,0.51020
7482.45840,0.50080
7484.38687,0.31580
7486.31533,0.09933
7488.24380,0.02028
7490.17227,0.05533
7492.10074,0.04527
7494.02921,0.01176
7495.95768,0.08451
7497.88615,0.26334
