399.19301,0.47582
401.12148,0.16565
403.04995,0.02651
404.97842,-0.00505
406.90689,0.00838
408.83536,0.04683
410.76382,0.08645
412.69229,0.08754
414.62076,0.07150
416.54923,0.04862
418.47770,-0.02287
420.40617,-0.08336
422.33464,-0.03573
424.26311,0.05036
426.19157,0.09656
428.12004,0.09759
430.04851,0.08685
431.97698,0.08794
433.90545,0.07376
435.83392,0.00848
437.76239,-0.04561
439.69085,-0.01297
441.61932,0.09686
443.54779,0.17530
445.47626,0.13363
447.40473,0.03354
449.33320,-0.02036
451.26167,-0.01213
453.19013,-0.00800
455.11860,-0.03637
457.04707,-0.05065
458.97554,-0.04649
460.90401,-0.06286
462.83248,-0.07511
464.76095,-0.05628
466.68942,-0.03646
468.61788,-0.04337
470.54635,-0.03389
472.47482,0.02711
474.40329,0.03499
476.33176,-0.03694
478.26023,-0.02742
480.18870,0.04139
482.11716,0.08482
484.04563,0.07895
485.97410,0.04553
487.90257,0.01132
489.83104,0.01916
491.75951,0.05124
493.68798,0.06567
495.61645,0.07099
497.54491,0.06263
499.47338,0.03309
501.40185,0.01263
503.33032,0.01550
505.25879,0.02417
507.18726,0.03604
509.11573,0.06147
511.04419,0.09179
512.97266,0.10398
514.90113,0.11191
516.82960,0.13728
518.75807,0.14793
520.68654,0.12985
522.61501,0.09896
524.54348,0.06814
526.47194,0.05575
528.40041,0.05990
530.32888,0.06683
532.25735,0.07180
534.18582,0.07205
536.11429,0.06981
538.04276,0.07914
539.97122,0.09509
541.89969,0.09625
543.82816,0.08743
545.75663,0.07837
547.68510,0.07178
549.61357,0.07292
551.54204,0.05344
553.47051,0.02339
555.39897,0.03361
557.32744,0.06513
559.25591,0.07709
561.18438,0.06928
563.11285,0.05893
565.04132,0.05932
566.96979,0.06381
568.89825,0.06575
570.82672,0.06906
572.75519,0.07203
574.68366,0.06841
576.61213,0.07387
578.54060,0.09580
580.46907,0.09702
582.39754,0.06427
584.32600,0.05075
586.25447,0.07499
588.18294,0.08626
590.11141,0.07937
592.03988,0.09170
593.96835,0.10094
595.89682,0.07445
597.82528,0.04697
599.75375,0.05870
601.68222,0.08430
603.61069,0.08303
605.53916,0.06819
607.46763,0.06095
609.39610,0.05682
611.32456,0.05807
613.25303,0.06693
615.18150,0.07244
617.10997,0.06903
619.03844,0.06550
620.96691,0.07527
622.89538,0.09183
624.82385,0.09309
626.75231,0.08414
628.68078,0.08545
630.60925,0.08616
632.53772,0.07676
634.46619,0.07152
636.39466,0.07310
638.32313,0.07918
640.25159,0.08623
642.18006,0.08914
644.10853,0.08907
646.03700,0.08247
647.96547,0.07478
649.89394,0.07690
651.82241,0.08356
653.75088,0.09024
655.67934,0.09560
657.60781,0.08970
659.53628,0.07312
661.46475,0.06591
663.39322,0.07330
665.32169,0.08493
667.25016,0.10206
669.17862,0.10618
671.10709,0.08013
673.03556,0.05618
674.96403,0.04667
676.89250,0.05593
678.82097,0.07948
680.74944,0.09258
682.67791,0.08295
684.60637,0.07233
686.53484,0.07533
688.46331,0.08334
690.39178,0.08858
692.32025,0.08598
694.24872,0.07408
696.17719,0.06677
698.10565,0.06785
700.03412,0.06518
701.96259,0.06560
703.89106,0.07765
705.81953,0.08814
707.74800,0.08797
709.67647,0.08179
711.60494,0.07715
713.53340,0.07738
715.46187,0.07712
717.39034,0.07642
719.31881,0.08227
721.24728,0.09150
723.17575,0.09368
725.10422,0.08671
727.03268,0.08088
728.96115,0.08430
730.88962,0.09122
732.81809,0.09182
734.74656,0.08562
736.67503,0.08001
738.60350,0.07758
740.53197,0.07956
742.46043,0.08680
744.38890,0.09093
746.31737,0.08806
748.24584,0.08632
750.17431,0.08803
752.10278,0.08773
754.03125,0.08259
755.95971,0.07660
757.88818,0.07745
759.81665,0.08378
761.74512,0.08658
763.67359,0.08381
765.60206,0.07972
767.53053,0.07673
769.45900,0.07808
771.38746,0.08795
773.31593,0.10025
775.24440,0.10275
777.17287,0.09558
779.10134,0.08842
781.02981,0.08779
782.95828,0.09562
784.88674,0.10425
786.81521,0.10162
788.74368,0.09221
790.67215,0.08814
792.60062,0.08686
794.52909,0.08502
796.45756,0.08422
798.38602,0.08362
800.31449,0.08461
802.24296,0.08853
804.17143,0.09395
806.09990,0.09740
808.02837,0.09665
809.95684,0.09437
811.88531,0.09120
813.81377,0.08511
815.74224,0.08149
817.67071,0.08058
819.59918,0.07421
821.52765,0.07064
823.45612,0.07797
825.38459,0.08678
827.31305,0.09159
829.24152,0.09621
831.16999,0.10061
833.09846,0.09995
835.02693,0.09587
836.95540,0.09154
838.88387,0.08350
840.81234,0.07445
842.74080,0.07329
844.66927,0.08181
846.59774,0.09259
848.52621,0.09761
850.45468,0.09717
852.38315,0.09197
854.31162,0.08152
856.24008,0.07661
858.16855,0.08066
860.09702,0.08254
862.02549,0.08216
863.95396,0.08617
865.88243,0.08701
867.81090,0.07643
869.73937,0.06736
871.66783,0.07663
873.59630,0.09531
875.52477,0.10151
877.45324,0.09198
879.38171,0.08145
881.31018,0.08145
883.23865,0.08745
885.16711,0.08990
887.09558,0.08744
889.02405,0.08258
890.95252,0.07919
892.88099,0.08092
894.80946,0.08592
896.73793,0.08736
898.66640,0.08672
900.59486,0.09027
902.52333,0.09225
904.45180,0.08797
906.38027,0.08494
908.30874,0.08600
910.23721,0.08572
912.16568,0.08475
914.09414,0.08612
916.02261,0.08726
917.95108,0.08704
919.87955,0.08493
921.80802,0.08080
923.73649,0.07809
925.66496,0.07838
927.59343,0.08001
929.52189,0.08130
931.45036,0.08476
933.37883,0.09252
935.30730,0.09905
937.23577,0.10127
939.16424,0.09896
941.09271,0.09414
943.02117,0.09427
944.94964,0.09820
946.87811,0.09985
948.80658,0.09773
950.73505,0.09533
952.66352,0.09852
954.59199,0.10379
956.52045,0.10191
958.44892,0.09416
960.37739,0.09011
962.30586,0.09217
964.23433,0.09590
966.16280,0.09834
968.09127,0.09945
970.01974,0.10006
971.94820,0.10063
973.87667,0.10073
975.80514,0.10034
977.73361,0.10164
979.66208,0.10151
981.59055,0.09526
983.51902,0.08752
985.44748,0.08695
987.37595,0.09401
989.30442,0.09801
991.23289,0.09552
993.16136,0.09316
995.08983,0.09210
997.01830,0.09166
998.94677,0.09456
1000.87523,0.10016
1002.80370,0.10302
1004.73217,0.10231
1006.66064,0.10105
1008.58911,0.09764
1010.51758,0.09365
1012.44605,0.09638
1014.37451,0.10238
1016.30298,0.10085
1018.23145,0.09242
1020.15992,0.08772
1022.08839,0.09161
1024.01686,0.09507
1025.94533,0.08951
1027.87380,0.08196
1029.80226,0.08230
1031.73073,0.08748
1033.65920,0.09123
1035.58767,0.09390
1037.51614,0.09641
1039.44461,0.10056
1041.37308,0.10880
1043.30154,0.11511
1045.23001,0.11138
1047.15848,0.10204
1049.08695,0.09772
1051.01542,0.09823
1052.94389,0.09623
1054.87236,0.09493
1056.80083,0.10005
1058.72929,0.10576
1060.65776,0.10475
1062.58623,0.09934
1064.51470,0.09884
1066.44317,0.10368
1068.37164,0.10527
1070.30011,0.10335
1072.22857,0.10247
1074.15704,0.10296
1076.08551,0.10607
1078.01398,0.11205
1079.94245,0.11282
1081.87092,0.10669
1083.79939,0.10167
1085.72786,0.09998
1087.65632,0.10007
1089.58479,0.09955
1091.51326,0.09526
1093.44173,0.09009
1095.37020,0.09177
1097.29867,0.09708
1099.22714,0.09708
1101.15560,0.09848
1103.08407,0.10302
1105.01254,0.10186
1106.94101,0.10031
1108.86948,0.10364
1110.79795,0.10507
1112.72642,0.10120
1114.65489,0.09677
1116.58335,0.09433
1118.51182,0.09325
1120.44029,0.09385
1122.36876,0.09300
1124.29723,0.09098
1126.22570,0.09231
1128.15417,0.09517
1130.08263,0.09738
1132.01110,0.10128
1133.93957,0.10388
1135.86804,0.10161
1137.79651,0.09980
1139.72498,0.10048
1141.65345,0.10173
1143.58191,0.10457
1145.51038,0.10626
1147.43885,0.10504
1149.36732,0.10494
1151.29579,0.10711
1153.22426,0.10673
1155.15273,0.10446
1157.08120,0.10638
1159.00966,0.11011
1160.93813,0.10961
1162.86660,0.10566
1164.79507,0.10275
1166.72354,0.10309
1168.65201,0.10503
1170.58048,0.10524
1172.50894,0.10373
1174.43741,0.10412
1176.36588,0.10494
1178.29435,0.10339
1180.22282,0.10440
1182.15129,0.10890
1184.07976,0.10971
1186.00823,0.10713
1187.93669,0.10772
1189.86516,0.10965
1191.79363,0.10731
1193.72210,0.10426
1195.65057,0.10567
1197.57904,0.10796
1199.50751,0.10691
1201.43597,0.10344
1203.36444,0.09926
1205.29291,0.09619
1207.22138,0.09582
1209.14985,0.09836
1211.07832,0.10235
1213.00679,0.10555
1214.93526,0.10784
1216.86372,0.10881
1218.79219,0.10814
1220.72066,0.10718
1222.64913,0.10539
1224.57760,0.10408
1226.50607,0.10654
1228.43454,0.11019
1230.36300,0.10967
1232.29147,0.10633
1234.21994,0.10527
1236.14841,0.10686
1238.07688,0.10896
1240.00535,0.11013
1241.93382,0.10961
1243.86229,0.10625
1245.79075,0.10098
1247.71922,0.09956
1249.64769,0.10201
1251.57616,0.10234
1253.50463,0.10115
1255.43310,0.10084
1257.36157,0.10035
1259.29003,0.10058
1261.21850,0.10248
1263.14697,0.10495
1265.07544,0.10707
1267.00391,0.10720
1268.93238,0.10509
1270.86085,0.10377
1272.78932,0.10452
1274.71778,0.10612
1276.64625,0.10776
1278.57472,0.10768
1280.50319,0.10555
1282.43166,0.10555
1284.36013,0.10842
1286.28860,0.10902
1288.21706,0.10892
1290.14553,0.11230
1292.07400,0.11373
1294.00247,0.10970
1295.93094,0.10569
1297.85941,0.10515
1299.78788,0.10471
1301.71634,0.10114
1303.64481,0.09605
1305.57328,0.09451
1307.50175,0.09904
1309.43022,0.10476
1311.35869,0.10815
1313.28716,0.11014
1315.21563,0.11071
1317.14409,0.11114
1319.07256,0.11163
1321.00103,0.11184
1322.92950,0.11198
1324.85797,0.10886
1326.78644,0.10434
1328.71491,0.10416
1330.64337,0.10659
1332.57184,0.10845
1334.50031,0.10949
1336.42878,0.10846
1338.35725,0.10477
1340.28572,0.09842
1342.21419,0.09130
1344.14266,0.09018
1346.07112,0.09763
1347.99959,0.10612
1349.92806,0.11007
1351.85653,0.11173
1353.78500,0.11189
1355.71347,0.10958
1357.64194,0.10781
1359.57040,0.10952
1361.49887,0.11235
1363.42734,0.11283
1365.35581,0.11140
1367.28428,0.11124
1369.21275,0.11397
1371.14122,0.11741
1373.06969,0.11883
1374.99815,0.11593
1376.92662,0.11059
1378.85509,0.10860
1380.78356,0.11009
1382.71203,0.11190
1384.64050,0.11371
1386.56897,0.11629
1388.49743,0.11883
1390.42590,0.12056
1392.35437,0.12301
1394.28284,0.12603
1396.21131,0.12511
1398.13978,0.11980
1400.06825,0.11650
1401.99672,0.11819
1403.92518,0.12014
1405.85365,0.11731
1407.78212,0.11265
1409.71059,0.11166
1411.63906,0.11294
1413.56753,0.11327
1415.49600,0.11551
1417.42446,0.12074
1419.35293,0.12212
1421.28140,0.12076
1423.20987,0.12314
1425.13834,0.12545
1427.06681,0.12531
1428.99528,0.12507
1430.92375,0.12307
1432.85221,0.12003
1434.78068,0.12031
1436.70915,0.12255
1438.63762,0.12172
1440.56609,0.11790
1442.49456,0.11421
1444.42303,0.11452
1446.35149,0.11825
1448.27996,0.12209
1450.20843,0.12396
1452.13690,0.12434
1454.06537,0.12697
1455.99384,0.13426
1457.92231,0.13567
1459.85077,0.12645
1461.77924,0.12127
1463.70771,0.12093
1465.63618,0.12081
1467.56465,0.12004
1469.49312,0.12276
1471.42159,0.13105
1473.35006,0.13649
1475.27852,0.13119
1477.20699,0.12502
1479.13546,0.12198
1481.06393,0.11998
1482.99240,0.11766
1484.92087,0.11846
1486.84934,0.12494
1488.77780,0.13158
1490.70627,0.12789
1492.63474,0.12078
1494.56321,0.12015
1496.49168,0.12327
1498.42015,0.12124
1500.34862,0.11502
1502.27709,0.11320
1504.20555,0.12028
1506.13402,0.13654
1508.06249,0.14090
1509.99096,0.13259
1511.91943,0.12995
1513.84790,0.13215
1515.77637,0.13571
1517.70483,0.13659
1519.63330,0.13757
1521.56177,0.14084
1523.49024,0.13620
1525.41871,0.12847
1527.34718,0.12404
1529.27565,0.12192
1531.20412,0.12367
1533.13258,0.12840
1535.06105,0.12971
1536.98952,0.12998
1538.91799,0.13701
1540.84646,0.14867
1542.77493,0.14699
1544.70340,0.13778
1546.63186,0.12966
1548.56033,0.12667
1550.48880,0.12591
1552.41727,0.12318
1554.34574,0.12049
1556.27421,0.11949
1558.20268,0.12051
1560.13115,0.12440
1562.05961,0.12621
1563.98808,0.12692
1565.91655,0.12729
1567.84502,0.12864
1569.77349,0.12901
1571.70196,0.12557
1573.63043,0.12418
1575.55889,0.12721
1577.48736,0.12747
1579.41583,0.12278
1581.34430,0.11972
1583.27277,0.11828
1585.20124,0.11683
1587.12971,0.11812
1589.05818,0.12147
1590.98664,0.12284
1592.91511,0.12239
1594.84358,0.12085
1596.77205,0.11771
1598.70052,0.11485
1600.62899,0.11399
1602.55746,0.11540
1604.48592,0.11879
1606.41439,0.12128
1608.34286,0.12089
1610.27133,0.12019
1612.19980,0.12057
1614.12827,0.12233
1616.05674,0.12756
1617.98521,0.13128
1619.91367,0.13029
1621.84214,0.13029
1623.77061,0.13026
1625.69908,0.12855
1627.62755,0.12659
1629.55602,0.12339
1631.48449,0.12208
1633.41295,0.12714
1635.34142,0.13774
1637.26989,0.13799
1639.19836,0.13048
1641.12683,0.12690
1643.05530,0.12710
1644.98377,0.13100
1646.91223,0.13597
1648.84070,0.13523
1650.76917,0.13711
1652.69764,0.14540
1654.62611,0.14101
1656.55458,0.13032
1658.48305,0.12523
1660.41152,0.12472
1662.33998,0.12753
1664.26845,0.12995
1666.19692,0.13039
1668.12539,0.13175
1670.05386,0.13380
1671.98233,0.13264
1673.91080,0.13006
1675.83926,0.12818
1677.76773,0.12871
1679.69620,0.13192
1681.62467,0.13626
1683.55314,0.13875
1685.48161,0.13473
1687.41008,0.13096
1689.33855,0.13058
1691.26701,0.13075
1693.19548,0.13148
1695.12395,0.13435
1697.05242,0.13865
1698.98089,0.14362
1700.90936,0.14376
1702.83783,0.13910
1704.76629,0.13747
1706.69476,0.13637
1708.62323,0.13220
1710.55170,0.12839
1712.48017,0.12855
1714.40864,0.13321
1716.33711,0.13763
1718.26558,0.13377
1720.19404,0.12726
1722.12251,0.12345
1724.05098,0.12072
1725.97945,0.11859
1727.90792,0.11853
1729.83639,0.12066
1731.76486,0.12341
1733.69332,0.12625
1735.62179,0.12691
1737.55026,0.12686
1739.47873,0.12751
1741.40720,0.12670
1743.33567,0.12485
1745.26414,0.12341
1747.19261,0.12196
1749.12107,0.12170
1751.04954,0.12454
1752.97801,0.12752
1754.90648,0.12847
1756.83495,0.12763
1758.76342,0.12681
1760.69189,0.12681
1762.62035,0.12380
1764.54882,0.11929
1766.47729,0.11841
1768.40576,0.12149
1770.33423,0.12607
1772.26270,0.12866
1774.19117,0.12649
1776.11964,0.12338
1778.04810,0.12384
1779.97657,0.12657
1781.90504,0.12661
1783.83351,0.12433
1785.76198,0.12206
1787.69045,0.12086
1789.61892,0.12196
1791.54738,0.12343
1793.47585,0.12226
1795.40432,0.12184
1797.33279,0.12431
1799.26126,0.12717
1801.18973,0.12656
1803.11820,0.12344
1805.04666,0.12221
1806.97513,0.12332
1808.90360,0.12633
1810.83207,0.12922
1812.76054,0.12740
1814.68901,0.12223
1816.61748,0.11792
1818.54595,0.11678
1820.47441,0.11918
1822.40288,0.12269
1824.33135,0.12415
1826.25982,0.12313
1828.18829,0.12232
1830.11676,0.12065
1832.04523,0.11756
1833.97369,0.11730
1835.90216,0.12019
1837.83063,0.12271
1839.75910,0.12439
1841.68757,0.12839
1843.61604,0.13317
1845.54451,0.13215
1847.47298,0.12770
1849.40144,0.12489
1851.32991,0.12310
1853.25838,0.12108
1855.18685,0.11949
1857.11532,0.11928
1859.04379,0.12009
1860.97226,0.12029
1862.90072,0.11912
1864.82919,0.11898
1866.75766,0.12240
1868.68613,0.12547
1870.61460,0.12292
1872.54307,0.12057
1874.47154,0.12129
1876.40001,0.12126
1878.32847,0.12035
1880.25694,0.12171
1882.18541,0.12384
1884.11388,0.12441
1886.04235,0.12467
1887.97082,0.12522
1889.89929,0.12441
1891.82775,0.12182
1893.75622,0.12016
1895.68469,0.12095
1897.61316,0.12198
1899.54163,0.12186
1901.47010,0.12168
1903.39857,0.12208
1905.32704,0.12213
1907.25550,0.12186
1909.18397,0.12180
1911.11244,0.12075
1913.04091,0.11924
1914.96938,0.11923
1916.89785,0.12021
1918.82632,0.12034
1920.75478,0.11999
1922.68325,0.11958
1924.61172,0.11871
1926.54019,0.11924
1928.46866,0.12100
1930.39713,0.12118
1932.32560,0.11954
1934.25407,0.11845
1936.18253,0.11910
1938.11100,0.12049
1940.03947,0.12250
1941.96794,0.12521
1943.89641,0.12563
1945.82488,0.12365
1947.75335,0.12302
1949.68181,0.12477
1951.61028,0.12687
1953.53875,0.12692
1955.46722,0.12434
1957.39569,0.12110
1959.32416,0.11914
1961.25263,0.11924
1963.18110,0.12115
1965.10956,0.12253
1967.03803,0.12157
1968.96650,0.12023
1970.89497,0.11993
1972.82344,0.11999
1974.75191,0.12045
1976.68038,0.12077
1978.60884,0.12058
1980.53731,0.12026
1982.46578,0.11997
1984.39425,0.12050
1986.32272,0.12134
1988.25119,0.12135
1990.17966,0.12144
1992.10812,0.12109
1994.03659,0.12003
1995.96506,0.12102
1997.89353,0.12305
1999.82200,0.12243
2001.75047,0.12051
2003.67894,0.12027
2005.60741,0.12053
2007.53587,0.12027
2009.46434,0.12133
2011.39281,0.12351
2013.32128,0.12449
2015.24975,0.12493
2017.17822,0.12541
2019.10669,0.12495
2021.03515,0.12419
2022.96362,0.12342
2024.89209,0.12283
2026.82056,0.12304
2028.74903,0.12358
2030.67750,0.12336
2032.60597,0.12219
2034.53444,0.12129
2036.46290,0.12182
2038.39137,0.12346
2040.31984,0.12492
2042.24831,0.12560
2044.17678,0.12450
2046.10525,0.12067
2048.03372,0.11736
2049.96218,0.11772
2051.89065,0.11905
2053.81912,0.11880
2055.74759,0.11926
2057.67606,0.12156
2059.60453,0.12359
2061.53300,0.12412
2063.46147,0.12400
2065.38993,0.12508
2067.31840,0.12689
2069.24687,0.12688
2071.17534,0.12474
2073.10381,0.12203
2075.03228,0.12079
2076.96075,0.12137
2078.88921,0.12194
2080.81768,0.12286
2082.74615,0.12446
2084.67462,0.12490
2086.60309,0.12477
2088.53156,0.12519
2090.46003,0.12516
2092.38850,0.12465
2094.31696,0.12466
2096.24543,0.12514
2098.17390,0.12568
2100.10237,0.12644
2102.03084,0.12784
2103.95931,0.12835
2105.88778,0.12661
2107.81624,0.12461
2109.74471,0.12383
2111.67318,0.12322
2113.60165,0.12229
2115.53012,0.12178
2117.45859,0.12171
2119.38706,0.12231
2121.31553,0.12333
2123.24399,0.12300
2125.17246,0.12184
2127.10093,0.12187
2129.02940,0.12302
2130.95787,0.12310
2132.88634,0.12142
2134.81481,0.12069
2136.74327,0.12139
2138.67174,0.12074
2140.60021,0.11858
2142.52868,0.11692
2144.45715,0.11713
2146.38562,0.11937
2148.31409,0.12162
2150.24255,0.12265
2152.17102,0.12377
2154.09949,0.12510
2156.02796,0.12597
2157.95643,0.12630
2159.88490,0.12594
2161.81337,0.12541
2163.74184,0.12510
2165.67030,0.12449
2167.59877,0.12329
2169.52724,0.12210
2171.45571,0.12194
2173.38418,0.12295
2175.31265,0.12408
2177.24112,0.12446
2179.16958,0.12405
2181.09805,0.12327
2183.02652,0.12250
2184.95499,0.12254
2186.88346,0.12404
2188.81193,0.12498
2190.74040,0.12345
2192.66887,0.12198
2194.59733,0.12226
2196.52580,0.12229
2198.45427,0.12148
2200.38274,0.12126
2202.31121,0.12193
2204.23968,0.12240
2206.16815,0.12276
2208.09661,0.12366
2210.02508,0.12492
2211.95355,0.12569
2213.88202,0.12483
2215.81049,0.12407
2217.73896,0.12461
2219.66743,0.12381
2221.59590,0.12144
2223.52436,0.11994
2225.45283,0.12020
2227.38130,0.12118
2229.30977,0.12208
2231.23824,0.12326
2233.16671,0.12346
2235.09518,0.12183
2237.02364,0.12076
2238.95211,0.12128
2240.88058,0.12088
2242.80905,0.11904
2244.73752,0.11892
2246.66599,0.12075
2248.59446,0.12253
2250.52293,0.12465
2252.45139,0.12597
2254.37986,0.12487
2256.30833,0.12412
2258.23680,0.12508
2260.16527,0.12584
2262.09374,0.12615
2264.02221,0.12543
2265.95067,0.12292
2267.87914,0.12112
2269.80761,0.12203
2271.73608,0.12331
2273.66455,0.12245
2275.59302,0.12151
2277.52149,0.12232
2279.44996,0.12259
2281.37842,0.12159
2283.30689,0.12051
2285.23536,0.11956
2287.16383,0.11934
2289.09230,0.11968
2291.02077,0.12009
2292.94924,0.12118
2294.87770,0.12143
2296.80617,0.11931
2298.73464,0.11756
2300.66311,0.11855
2302.59158,0.12105
2304.52005,0.12312
2306.44852,0.12440
2308.37699,0.12511
2310.30545,0.12561
2312.23392,0.12675
2314.16239,0.12699
2316.09086,0.12466
2318.01933,0.12226
2319.94780,0.12176
2321.87627,0.12055
2323.80473,0.11682
2325.73320,0.11483
2327.66167,0.11589
2329.59014,0.11427
2331.51861,0.11138
2333.44708,0.11617
2335.37555,0.12633
2337.30401,0.12867
2339.23248,0.12249
2341.16095,0.12070
2343.08942,0.12019
2345.01789,0.11634
2346.94636,0.11761
2348.87483,0.12335
2350.80330,0.13150
2352.73176,0.13791
2354.66023,0.12855
2356.58870,0.11146
2358.51717,0.11686
2360.44564,0.13266
2362.37411,0.13483
2364.30258,0.12639
2366.23104,0.12027
2368.15951,0.12518
2370.08798,0.12961
2372.01645,0.12780
2373.94492,0.12470
2375.87339,0.12251
2377.80186,0.12125
2379.73033,0.12041
2381.65879,0.12154
2383.58726,0.12384
2385.51573,0.12423
2387.44420,0.12307
2389.37267,0.12218
2391.30114,0.12067
2393.22961,0.11900
2395.15807,0.12000
2397.08654,0.12227
2399.01501,0.12368
2400.94348,0.12476
2402.87195,0.12445
2404.80042,0.12302
2406.72889,0.12300
2408.65736,0.12357
2410.58582,0.12256
2412.51429,0.12197
2414.44276,0.12406
2416.37123,0.12657
2418.29970,0.12640
2420.22817,0.12336
2422.15664,0.12036
2424.08510,0.12083
2426.01357,0.12340
2427.94204,0.12456
2429.87051,0.12511
2431.79898,0.12573
2433.72745,0.12472
2435.65592,0.12325
2437.58439,0.12346
2439.51285,0.12398
2441.44132,0.12390
2443.36979,0.12429
2445.29826,0.12462
2447.22673,0.12369
2449.15520,0.12059
2451.08367,0.11787
2453.01213,0.11980
2454.94060,0.12347
2456.86907,0.12449
2458.79754,0.12449
2460.72601,0.12485
2462.65448,0.12497
2464.58295,0.12474
2466.51142,0.12355
2468.43988,0.12215
2470.36835,0.12250
2472.29682,0.12445
2474.22529,0.12624
2476.15376,0.12661
2478.08223,0.12658
2480.01070,0.12808
2481.93916,0.13078
2483.86763,0.13212
2485.79610,0.13133
2487.72457,0.13005
2489.65304,0.12947
2491.58151,0.12964
2493.50998,0.12830
2495.43844,0.12469
2497.36691,0.12260
2499.29538,0.12355
2501.22385,0.12517
2503.15232,0.12618
2505.08079,0.12627
2507.00926,0.12606
2508.93773,0.12736
2510.86619,0.12893
2512.79466,0.12779
2514.72313,0.12527
2516.65160,0.12450
2518.58007,0.12552
2520.50854,0.12618
2522.43701,0.12567
2524.36547,0.12487
2526.29394,0.12438
2528.22241,0.12476
2530.15088,0.12598
2532.07935,0.12755
2534.00782,0.12919
2535.93629,0.13044
2537.86476,0.13131
2539.79322,0.13053
2541.72169,0.12738
2543.65016,0.12469
2545.57863,0.12424
2547.50710,0.12448
2549.43557,0.12391
2551.36404,0.12384
2553.29250,0.12614
2555.22097,0.12802
2557.14944,0.12707
2559.07791,0.12603
2561.00638,0.12650
2562.93485,0.12668
2564.86332,0.12534
2566.79179,0.12338
2568.72025,0.12253
2570.64872,0.12371
2572.57719,0.12601
2574.50566,0.12778
2576.43413,0.12884
2578.36260,0.12925
2580.29107,0.12875
2582.21953,0.12770
2584.14800,0.12656
2586.07647,0.12650
2588.00494,0.12820
2589.93341,0.12985
2591.86188,0.12889
2593.79035,0.12565
2595.71882,0.12371
2597.64728,0.12471
2599.57575,0.12632
2601.50422,0.12674
2603.43269,0.12662
2605.36116,0.12673
2607.28963,0.12652
2609.21810,0.12626
2611.14656,0.12710
2613.07503,0.12808
2615.00350,0.12785
2616.93197,0.12719
2618.86044,0.12740
2620.78891,0.12879
2622.71738,0.12980
2624.64585,0.12893
2626.57431,0.12803
2628.50278,0.12968
2630.43125,0.13222
2632.35972,0.13237
2634.28819,0.13044
2636.21666,0.12831
2638.14513,0.12668
2640.07359,0.12605
2642.00206,0.12663
2643.93053,0.12737
2645.85900,0.12667
2647.78747,0.12570
2649.71594,0.12698
2651.64441,0.12985
2653.57288,0.13186
2655.50134,0.13165
2657.42981,0.12997
2659.35828,0.12886
2661.28675,0.12889
2663.21522,0.12893
2665.14369,0.12939
2667.07216,0.13083
2669.00062,0.13026
2670.92909,0.12746
2672.85756,0.12785
2674.78603,0.13208
2676.71450,0.13486
2678.64297,0.13382
2680.57144,0.13127
2682.49990,0.12914
2684.42837,0.12738
2686.35684,0.12822
2688.28531,0.13206
2690.21378,0.13351
2692.14225,0.13070
2694.07072,0.12785
2695.99919,0.12809
2697.92765,0.13068
2699.85612,0.13302
2701.78459,0.13396
2703.71306,0.13333
2705.64153,0.13112
2707.57000,0.12926
2709.49847,0.13025
2711.42693,0.13332
2713.35540,0.13537
2715.28387,0.13530
2717.21234,0.13455
2719.14081,0.13309
2721.06928,0.13099
2722.99775,0.13030
2724.92622,0.13095
2726.85468,0.13225
2728.78315,0.13348
2730.71162,0.13254
2732.64009,0.13047
2734.56856,0.13009
2736.49703,0.13048
2738.42550,0.12941
2740.35396,0.12772
2742.28243,0.12693
2744.21090,0.12702
2746.13937,0.12791
2748.06784,0.12969
2749.99631,0.13216
2751.92478,0.13370
2753.85325,0.13208
2755.78171,0.12978
2757.71018,0.13276
2759.63865,0.13862
2761.56712,0.13952
2763.49559,0.13718
2765.42406,0.13711
2767.35253,0.13745
2769.28099,0.13643
2771.20946,0.13625
2773.13793,0.13686
2775.06640,0.13619
2776.99487,0.13435
2778.92334,0.13330
2780.85181,0.13317
2782.78028,0.13321
2784.70874,0.13426
2786.63721,0.13553
2788.56568,0.13584
2790.49415,0.13621
2792.42262,0.13611
2794.35109,0.13519
2796.27956,0.13507
2798.20802,0.13528
2800.13649,0.13586
2802.06496,0.13857
2803.99343,0.14067
2805.92190,0.14016
2807.85037,0.13952
2809.77884,0.13782
2811.70731,0.13481
2813.63577,0.13406
2815.56424,0.13578
2817.49271,0.13770
2819.42118,0.13851
2821.34965,0.13759
2823.27812,0.13535
2825.20659,0.13347
2827.13505,0.13350
2829.06352,0.13567
2830.99199,0.13819
2832.92046,0.13805
2834.84893,0.13560
2836.77740,0.13522
2838.70587,0.13829
2840.63433,0.14159
2842.56280,0.14335
2844.49127,0.14289
2846.41974,0.13893
2848.34821,0.13379
2850.27668,0.13241
2852.20515,0.13456
2854.13362,0.13475
2856.06208,0.13336
2857.99055,0.13591
2859.91902,0.14085
2861.84749,0.14191
2863.77596,0.13834
2865.70443,0.13470
2867.63290,0.13380
2869.56136,0.13461
2871.48983,0.13611
2873.41830,0.13664
2875.34677,0.13486
2877.27524,0.13358
2879.20371,0.13541
2881.13218,0.14014
2883.06065,0.14444
2884.98911,0.14461
2886.91758,0.14119
2888.84605,0.13709
2890.77452,0.13537
2892.70299,0.13499
2894.63146,0.13347
2896.55993,0.13287
2898.48839,0.13424
2900.41686,0.13523
2902.34533,0.13418
2904.27380,0.13229
2906.20227,0.13218
2908.13074,0.13458
2910.05921,0.13662
2911.98768,0.13674
2913.91614,0.13609
2915.84461,0.13467
2917.77308,0.13514
2919.70155,0.13813
2921.63002,0.13913
2923.55849,0.13758
2925.48696,0.13476
2927.41542,0.13228
2929.34389,0.13300
2931.27236,0.13465
2933.20083,0.13404
2935.12930,0.13171
2937.05777,0.12935
2938.98624,0.12990
2940.91471,0.13254
2942.84317,0.13408
2944.77164,0.13438
2946.70011,0.13381
2948.62858,0.13409
2950.55705,0.13550
2952.48552,0.13633
2954.41399,0.13559
2956.34245,0.13211
2958.27092,0.13031
2960.19939,0.13325
2962.12786,0.13502
2964.05633,0.13372
2965.98480,0.13148
2967.91327,0.13053
2969.84174,0.13437
2971.77020,0.14001
2973.69867,0.14262
2975.62714,0.14058
2977.55561,0.13603
2979.48408,0.13621
2981.41255,0.14145
2983.34102,0.14448
2985.26948,0.14277
2987.19795,0.13934
2989.12642,0.13777
2991.05489,0.13933
2992.98336,0.14203
2994.91183,0.14302
2996.84030,0.14137
2998.76877,0.14027
3000.69723,0.14288
3002.62570,0.14616
3004.55417,0.14752
3006.48264,0.14728
3008.41111,0.14455
3010.33958,0.13822
3012.26805,0.12777
3014.19651,0.11359
3016.12498,0.10180
3018.05345,0.10503
3019.98192,0.12205
3021.91039,0.13629
3023.83886,0.14254
3025.76733,0.14480
3027.69579,0.14383
3029.62426,0.14186
3031.55273,0.14114
3033.48120,0.13948
3035.40967,0.13702
3037.33814,0.13787
3039.26661,0.14161
3041.19508,0.14314
3043.12354,0.14178
3045.05201,0.14057
3046.98048,0.13984
3048.90895,0.13840
3050.83742,0.13570
3052.76589,0.13418
3054.69436,0.13410
3056.62282,0.13269
3058.55129,0.13474
3060.47976,0.14165
3062.40823,0.14452
3064.33670,0.14064
3066.26517,0.13630
3068.19364,0.13709
3070.12211,0.14060
3072.05057,0.14131
3073.97904,0.13828
3075.90751,0.13428
3077.83598,0.13472
3079.76445,0.13896
3081.69292,0.13936
3083.62139,0.13525
3085.54985,0.13352
3087.47832,0.13539
3089.40679,0.13674
3091.33526,0.13710
3093.26373,0.13532
3095.19220,0.13297
3097.12067,0.13514
3099.04914,0.13967
3100.97760,0.14170
3102.90607,0.13864
3104.83454,0.13554
3106.76301,0.13897
3108.69148,0.14371
3110.61995,0.14223
3112.54842,0.13760
3114.47688,0.13835
3116.40535,0.14246
3118.33382,0.14251
3120.26229,0.13906
3122.19076,0.13680
3124.11923,0.13780
3126.04770,0.13900
3127.97617,0.13756
3129.90463,0.13461
3131.83310,0.13439
3133.76157,0.13871
3135.69004,0.14268
3137.61851,0.14255
3139.54698,0.14073
3141.47545,0.14034
3143.40391,0.13947
3145.33238,0.13761
3147.26085,0.13754
3149.18932,0.13949
3151.11779,0.14335
3153.04626,0.14644
3154.97473,0.14534
3156.90320,0.14414
3158.83166,0.14606
3160.76013,0.14780
3162.68860,0.14762
3164.61707,0.14582
3166.54554,0.14369
3168.47401,0.14300
3170.40248,0.14253
3172.33094,0.14170
3174.25941,0.14312
3176.18788,0.14738
3178.11635,0.15007
3180.04482,0.14856
3181.97329,0.14611
3183.90176,0.14524
3185.83022,0.14426
3187.75869,0.14082
3189.68716,0.13792
3191.61563,0.14030
3193.54410,0.14588
3195.47257,0.14897
3197.40104,0.14870
3199.32951,0.14868
3201.25797,0.14995
3203.18644,0.14911
3205.11491,0.14431
3207.04338,0.13927
3208.97185,0.13783
3210.90032,0.13984
3212.82879,0.14326
3214.75725,0.14509
3216.68572,0.14509
3218.61419,0.14559
3220.54266,0.14457
3222.47113,0.14286
3224.39960,0.14519
3226.32807,0.14739
3228.25654,0.14612
3230.18500,0.14500
3232.11347,0.14376
3234.04194,0.14072
3235.97041,0.13812
3237.89888,0.13890
3239.82735,0.14148
3241.75582,0.14326
3243.68428,0.14386
3245.61275,0.14266
3247.54122,0.14226
3249.46969,0.14354
3251.39816,0.14244
3253.32663,0.14040
3255.25510,0.14248
3257.18357,0.14639
3259.11203,0.14622
3261.04050,0.14113
3262.96897,0.13632
3264.89744,0.13730
3266.82591,0.14158
3268.75438,0.14253
3270.68285,0.13912
3272.61131,0.13607
3274.53978,0.13690
3276.46825,0.13885
3278.39672,0.13917
3280.32519,0.13942
3282.25366,0.13987
3284.18213,0.14023
3286.11060,0.14145
3288.03906,0.14029
3289.96753,0.13588
3291.89600,0.13431
3293.82447,0.13565
3295.75294,0.13681
3297.68141,0.13928
3299.60988,0.14266
3301.53834,0.14574
3303.46681,0.14698
3305.39528,0.14475
3307.32375,0.14322
3309.25222,0.14385
3311.18069,0.14183
3313.10916,0.13894
3315.03763,0.14027
3316.96609,0.14323
3318.89456,0.14329
3320.82303,0.14211
3322.75150,0.14208
3324.67997,0.14219
3326.60844,0.14347
3328.53691,0.14585
3330.46537,0.14594
3332.39384,0.14242
3334.32231,0.13829
3336.25078,0.13774
3338.17925,0.13911
3340.10772,0.13825
3342.03619,0.13613
3343.96466,0.13749
3345.89312,0.14302
3347.82159,0.14644
3349.75006,0.14527
3351.67853,0.14328
3353.60700,0.14228
3355.53547,0.14054
3357.46394,0.13741
3359.39240,0.13659
3361.32087,0.14027
3363.24934,0.14341
3365.17781,0.14242
3367.10628,0.14118
3369.03475,0.14110
3370.96322,0.14110
3372.89168,0.14228
3374.82015,0.14254
3376.74862,0.14052
3378.67709,0.13804
3380.60556,0.13569
3382.53403,0.13516
3384.46250,0.13831
3386.39097,0.14322
3388.31943,0.14768
3390.24790,0.15128
3392.17637,0.15232
3394.10484,0.14889
3396.03331,0.14209
3397.96178,0.13598
3399.89025,0.13431
3401.81871,0.13818
3403.74718,0.14540
3405.67565,0.15012
3407.60412,0.15018
3409.53259,0.14816
3411.46106,0.14451
3413.38953,0.14009
3415.31800,0.13748
3417.24646,0.13750
3419.17493,0.13875
3421.10340,0.13852
3423.03187,0.13664
3424.96034,0.13477
3426.88881,0.13322
3428.81728,0.13356
3430.74574,0.13590
3432.67421,0.13858
3434.60268,0.14114
3436.53115,0.14155
3438.45962,0.13918
3440.38809,0.13566
3442.31656,0.13240
3444.24503,0.13051
3446.17349,0.12974
3448.10196,0.12964
3450.03043,0.12948
3451.95890,0.12897
3453.88737,0.12759
3455.81584,0.12594
3457.74431,0.12793
3459.67277,0.13163
3461.60124,0.13121
3463.52971,0.12867
3465.45818,0.12822
3467.38665,0.12861
3469.31512,0.12790
3471.24359,0.12717
3473.17206,0.12631
3475.10052,0.12602
3477.02899,0.12864
3478.95746,0.13072
3480.88593,0.13006
3482.81440,0.13008
3484.74287,0.12964
3486.67134,0.12554
3488.59980,0.12050
3490.52827,0.12000
3492.45674,0.12486
3494.38521,0.12920
3496.31368,0.12792
3498.24215,0.12502
3500.17062,0.12539
3502.09909,0.12821
3504.02755,0.13054
3505.95602,0.13010
3507.88449,0.12740
3509.81296,0.12223
3511.74143,0.11661
3513.66990,0.11456
3515.59837,0.11530
3517.52683,0.11577
3519.45530,0.11393
3521.38377,0.11218
3523.31224,0.11411
3525.24071,0.11807
3527.16918,0.12130
3529.09765,0.12217
3531.02611,0.12102
3532.95458,0.12090
3534.88305,0.12172
3536.81152,0.12057
3538.73999,0.11864
3540.66846,0.11897
3542.59693,0.12100
3544.52540,0.12257
3546.45386,0.12170
3548.38233,0.11975
3550.31080,0.11947
3552.23927,0.11852
3554.16774,0.11440
3556.09621,0.11017
3558.02468,0.10950
3559.95314,0.11179
3561.88161,0.11271
3563.81008,0.11045
3565.73855,0.10853
3567.66702,0.11010
3569.59549,0.11082
3571.52396,0.10908
3573.45243,0.10760
3575.38089,0.10793
3577.30936,0.11047
3579.23783,0.11207
3581.16630,0.10931
3583.09477,0.10443
3585.02324,0.10257
3586.95171,0.10649
3588.88017,0.11015
3590.80864,0.10834
3592.73711,0.10553
3594.66558,0.10352
3596.59405,0.10139
3598.52252,0.10153
3600.45099,0.10409
3602.37946,0.10361
3604.30792,0.09941
3606.23639,0.09650
3608.16486,0.09796
3610.09333,0.10275
3612.02180,0.10863
3613.95027,0.11196
3615.87874,0.10998
3617.80720,0.10473
3619.73567,0.09876
3621.66414,0.09596
3623.59261,0.09712
3625.52108,0.09950
3627.44955,0.10175
3629.37802,0.10458
3631.30649,0.10319
3633.23495,0.09679
3635.16342,0.09048
3637.09189,0.08860
3639.02036,0.09094
3640.94883,0.09253
3642.87730,0.09029
3644.80577,0.08950
3646.73423,0.09359
3648.66270,0.09543
3650.59117,0.09187
3652.51964,0.09129
3654.44811,0.09235
3656.37658,0.09293
3658.30505,0.09197
3660.23352,0.09013
3662.16198,0.09024
3664.09045,0.09317
3666.01892,0.09567
3667.94739,0.09652
3669.87586,0.09357
3671.80433,0.08691
3673.73280,0.08408
3675.66126,0.08593
3677.58973,0.08843
3679.51820,0.09027
3681.44667,0.09258
3683.37514,0.09449
3685.30361,0.09613
3687.23208,0.09824
3689.16055,0.09869
3691.08901,0.09650
3693.01748,0.09415
3694.94595,0.09139
3696.87442,0.08775
3698.80289,0.08481
3700.73136,0.08334
3702.65983,0.08423
3704.58829,0.08783
3706.51676,0.09124
3708.44523,0.09449
3710.37370,0.09707
3712.30217,0.09422
3714.23064,0.09105
3716.15911,0.09080
3718.08757,0.09076
3720.01604,0.09212
3721.94451,0.09380
3723.87298,0.09203
3725.80145,0.08996
3727.72992,0.08984
3729.65839,0.09166
3731.58686,0.09452
3733.51532,0.09657
3735.44379,0.09725
3737.37226,0.09293
3739.30073,0.08931
3741.22920,0.09043
3743.15767,0.09201
3745.08614,0.09243
3747.01460,0.09547
3748.94307,0.09842
3750.87154,0.09386
3752.80001,0.08363
3754.72848,0.07961
3756.65695,0.08295
3758.58542,0.08921
3760.51389,0.09027
3762.44235,0.08648
3764.37082,0.08504
3766.29929,0.08866
3768.22776,0.09490
3770.15623,0.09864
3772.08470,0.09477
3774.01317,0.08880
3775.94163,0.08750
3777.87010,0.09035
3779.79857,0.09095
3781.72704,0.08664
3783.65551,0.08396
3785.58398,0.08340
3787.51245,0.08070
3789.44092,0.07844
3791.36938,0.07985
3793.29785,0.08339
3795.22632,0.08639
3797.15479,0.08784
3799.08326,0.08907
3801.01173,0.08798
3802.94020,0.08385
3804.86866,0.08553
3806.79713,0.09050
3808.72560,0.08848
3810.65407,0.08194
3812.58254,0.07750
3814.51101,0.07701
3816.43948,0.07973
3818.36795,0.08266
3820.29641,0.08713
3822.22488,0.09285
3824.15335,0.09604
3826.08182,0.09637
3828.01029,0.09193
3829.93876,0.08567
3831.86723,0.08038
3833.79569,0.07749
3835.72416,0.08043
3837.65263,0.08569
3839.58110,0.08619
3841.50957,0.08268
3843.43804,0.07857
3845.36651,0.07740
3847.29498,0.07881
3849.22344,0.08040
3851.15191,0.08270
3853.08038,0.08925
3855.00885,0.09324
3856.93732,0.08937
3858.86579,0.08652
3860.79426,0.08739
3862.72272,0.08763
3864.65119,0.08151
3866.57966,0.07688
3868.50813,0.08108
3870.43660,0.08796
3872.36507,0.08833
3874.29354,0.08397
3876.22200,0.08067
3878.15047,0.08168
3880.07894,0.08774
3882.00741,0.09379
3883.93588,0.09079
3885.86435,0.08067
3887.79282,0.07479
3889.72129,0.07408
3891.64975,0.07413
3893.57822,0.07498
3895.50669,0.07648
3897.43516,0.07834
3899.36363,0.08106
3901.29210,0.08467
3903.22057,0.08778
3905.14903,0.08547
3907.07750,0.07824
3909.00597,0.07377
3910.93444,0.07493
3912.86291,0.07887
3914.79138,0.08195
3916.71985,0.08121
3918.64832,0.07700
3920.57678,0.07571
3922.50525,0.07939
3924.43372,0.08338
3926.36219,0.08345
3928.29066,0.07824
3930.21913,0.07207
3932.14760,0.07290
3934.07606,0.07747
3936.00453,0.08033
3937.93300,0.08350
3939.86147,0.08481
3941.78994,0.08203
3943.71841,0.07793
3945.64688,0.07563
3947.57535,0.07531
3949.50381,0.07567
3951.43228,0.07676
3953.36075,0.07854
3955.28922,0.07878
3957.21769,0.07754
3959.14616,0.07638
3961.07463,0.07360
3963.00309,0.07030
3964.93156,0.07145
3966.86003,0.07413
3968.78850,0.07344
3970.71697,0.07290
3972.64544,0.07326
3974.57391,0.07175
3976.50238,0.07158
3978.43084,0.07446
3980.35931,0.07562
3982.28778,0.07206
3984.21625,0.06891
3986.14472,0.07036
3988.07319,0.07329
3990.00166,0.07495
3991.93012,0.07424
3993.85859,0.07254
3995.78706,0.07259
3997.71553,0.07089
3999.64400,0.06599
4001.57247,0.06263
4003.50094,0.06237
4005.42941,0.06570
4007.35787,0.07200
4009.28634,0.07689
4011.21481,0.07819
4013.14328,0.07528
4015.07175,0.07111
4017.00022,0.07008
4018.92869,0.06979
4020.85715,0.06852
4022.78562,0.06803
4024.71409,0.06769
4026.64256,0.06756
4028.57103,0.06911
4030.49950,0.07086
4032.42797,0.06970
4034.35644,0.06636
4036.28490,0.06411
4038.21337,0.06402
4040.14184,0.06469
4042.07031,0.06405
4043.99878,0.06348
4045.92725,0.06550
4047.85572,0.06942
4049.78418,0.07204
4051.71265,0.06953
4053.64112,0.06361
4055.56959,0.06018
4057.49806,0.06081
4059.42653,0.06400
4061.35500,0.06764
4063.28346,0.07025
4065.21193,0.07360
4067.14040,0.07708
4069.06887,0.07563
4070.99734,0.06944
4072.92581,0.06364
4074.85428,0.05780
4076.78275,0.05008
4078.71121,0.04712
4080.63968,0.05211
4082.56815,0.05770
4084.49662,0.05971
4086.42509,0.06026
4088.35356,0.06169
4090.28203,0.06223
4092.21049,0.05978
4094.13896,0.05737
4096.06743,0.05762
4097.99590,0.05937
4099.92437,0.06136
4101.85284,0.06262
4103.78131,0.05863
4105.70978,0.05133
4107.63824,0.05153
4109.56671,0.05785
4111.49518,0.06161
4113.42365,0.06273
4115.35212,0.06328
4117.28059,0.06118
4119.20906,0.05685
4121.13752,0.05740
4123.06599,0.06310
4124.99446,0.06710
4126.92293,0.06813
4128.85140,0.06645
4130.77987,0.06205
4132.70834,0.05777
4134.63681,0.05672
4136.56527,0.05908
4138.49374,0.06037
4140.42221,0.05716
4142.35068,0.05273
4144.27915,0.05084
4146.20762,0.05142
4148.13609,0.05288
4150.06455,0.05203
4151.99302,0.04852
4153.92149,0.04726
4155.84996,0.05179
4157.77843,0.05943
4159.70690,0.06374
4161.63537,0.06262
4163.56384,0.06008
4165.49230,0.05972
4167.42077,0.05956
4169.34924,0.05724
4171.27771,0.05422
4173.20618,0.05107
4175.13465,0.04797
4177.06312,0.04509
4178.99158,0.04164
4180.92005,0.03959
4182.84852,0.04179
4184.77699,0.04575
4186.70546,0.04796
4188.63393,0.04940
4190.56240,0.05160
4192.49087,0.05420
4194.41933,0.05499
4196.34780,0.05365
4198.27627,0.05177
4200.20474,0.04963
4202.13321,0.04947
4204.06168,0.05256
4205.99015,0.05624
4207.91861,0.05628
4209.84708,0.05118
4211.77555,0.04645
4213.70402,0.04659
4215.63249,0.04757
4217.56096,0.04586
4219.48943,0.04354
4221.41789,0.04356
4223.34636,0.04769
4225.27483,0.05154
4227.20330,0.04911
4229.13177,0.04522
4231.06024,0.04614
4232.98871,0.04849
4234.91718,0.04986
4236.84564,0.05016
4238.77411,0.04540
4240.70258,0.03721
4242.63105,0.03238
4244.55952,0.03304
4246.48799,0.03688
4248.41646,0.04017
4250.34492,0.04220
4252.27339,0.04513
4254.20186,0.04905
4256.13033,0.04911
4258.05880,0.04220
4259.98727,0.03597
4261.91574,0.03718
4263.84421,0.04071
4265.77267,0.04038
4267.70114,0.03695
4269.62961,0.03406
4271.55808,0.03297
4273.48655,0.03202
4275.41502,0.02807
4277.34349,0.02361
4279.27195,0.02774
4281.20042,0.03929
4283.12889,0.04656
4285.05736,0.04442
4286.98583,0.03840
4288.91430,0.03531
4290.84277,0.03452
4292.77124,0.03470
4294.69970,0.03633
4296.62817,0.03560
4298.55664,0.03438
4300.48511,0.03830
4302.41358,0.04224
4304.34205,0.04146
4306.27052,0.03765
4308.19898,0.03227
4310.12745,0.02959
4312.05592,0.03046
4313.98439,0.03237
4315.91286,0.03477
4317.84133,0.03581
4319.76980,0.03535
4321.69827,0.03413
4323.62673,0.03360
4325.55520,0.03580
4327.48367,0.03689
4329.41214,0.03360
4331.34061,0.02968
4333.26908,0.02917
4335.19755,0.03187
4337.12601,0.03565
4339.05448,0.03688
4340.98295,0.03347
4342.91142,0.03010
4344.83989,0.03135
4346.76836,0.03344
4348.69683,0.03317
4350.62530,0.03516
4352.55376,0.03933
4354.48223,0.03814
4356.41070,0.03368
4358.33917,0.03365
4360.26764,0.03417
4362.19611,0.02981
4364.12458,0.02605
4366.05304,0.02700
4367.98151,0.02793
4369.90998,0.02683
4371.83845,0.02700
4373.76692,0.02896
4375.69539,0.02978
4377.62386,0.02807
4379.55232,0.02547
4381.48079,0.02407
4383.40926,0.02580
4385.33773,0.03051
4387.26620,0.03432
4389.19467,0.03510
4391.12314,0.03401
4393.05161,0.03118
4394.98007,0.02742
4396.90854,0.02462
4398.83701,0.02270
4400.76548,0.02051
4402.69395,0.01912
4404.62242,0.02184
4406.55089,0.02576
4408.47935,0.02514
4410.40782,0.02278
4412.33629,0.01986
4414.26476,0.01385
4416.19323,0.01037
4418.12170,0.01103
4420.05017,0.00994
4421.97864,0.01083
4423.90710,0.01726
4425.83557,0.02027
4427.76404,0.01789
4429.69251,0.01819
4431.62098,0.01889
4433.54945,0.01524
4435.47792,0.01404
4437.40638,0.01705
4439.33485,0.01565
4441.26332,0.00952
4443.19179,0.00492
4445.12026,0.00344
4447.04873,0.00408
4448.97720,0.00443
4450.90567,0.00519
4452.83413,0.00905
4454.76260,0.01376
4456.69107,0.01778
4458.61954,0.01976
4460.54801,0.01626
4462.47648,0.01232
4464.40495,0.01432
4466.33341,0.01831
4468.26188,0.01912
4470.19035,0.01668
4472.11882,0.01594
4474.04729,0.01983
4475.97576,0.02366
4477.90423,0.02287
4479.83270,0.01809
4481.76116,0.01465
4483.68963,0.01474
4485.61810,0.01446
4487.54657,0.01303
4489.47504,0.01232
4491.40351,0.01281
4493.33198,0.01264
4495.26044,0.00864
4497.18891,0.00410
4499.11738,0.00673
4501.04585,0.01409
4502.97432,0.01845
4504.90279,0.01764
4506.83126,0.01136
4508.75973,0.00633
4510.68819,0.00972
4512.61666,0.01468
4514.54513,0.01464
4516.47360,0.01338
4518.40207,0.01315
4520.33054,0.00986
4522.25901,0.00495
4524.18747,0.00422
4526.11594,0.00498
4528.04441,0.00709
4529.97288,0.01175
4531.90135,0.01156
4533.82982,0.00833
4535.75829,0.00985
4537.68676,0.01328
4539.61522,0.01177
4541.54369,0.00621
4543.47216,0.00381
4545.40063,0.00454
4547.32910,0.00332
4549.25757,0.00227
4551.18604,0.00610
4553.11450,0.01045
4555.04297,0.00928
4556.97144,0.00433
4558.89991,-0.00110
4560.82838,-0.00241
4562.75685,0.00185
4564.68532,0.00744
4566.61378,0.00845
4568.54225,0.00319
4570.47072,-0.00219
4572.39919,-0.00308
4574.32766,0.00374
4576.25613,0.01394
4578.18460,0.01532
4580.11307,0.00857
4582.04153,0.00351
4583.97000,0.00265
4585.89847,0.00263
4587.82694,0.00357
4589.75541,0.00842
4591.68388,0.01401
4593.61235,0.01537
4595.54081,0.01604
4597.46928,0.01730
4599.39775,0.01382
4601.32622,0.00880
4603.25469,0.00870
4605.18316,0.00932
4607.11163,0.00516
4609.04010,0.00144
4610.96856,0.00198
4612.89703,0.00502
4614.82550,0.01033
4616.75397,0.01166
4618.68244,0.00523
4620.61091,0.00103
4622.53938,0.00543
4624.46784,0.01300
4626.39631,0.01411
4628.32478,0.00552
4630.25325,-0.00375
4632.18172,-0.00606
4634.11019,-0.00223
4636.03866,0.00143
4637.96713,-0.00219
4639.89559,-0.00634
4641.82406,-0.00230
4643.75253,0.00145
4645.68100,-0.00154
4647.60947,-0.00421
4649.53794,-0.00058
4651.46641,0.00241
4653.39487,-0.00350
4655.32334,-0.00894
4657.25181,-0.00863
4659.18028,-0.00945
4661.10875,-0.00501
4663.03722,0.00604
4664.96569,0.01160
4666.89416,0.01058
4668.82262,0.00765
4670.75109,0.00515
4672.67956,0.00354
4674.60803,0.00421
4676.53650,0.00949
4678.46497,0.01488
4680.39344,0.01168
4682.32190,-0.00086
4684.25037,-0.01104
4686.17884,-0.00884
4688.10731,0.00028
4690.03578,0.00644
4691.96425,0.00672
4693.89272,0.00224
4695.82119,-0.00084
4697.74965,0.00203
4699.67812,0.00562
4701.60659,0.00409
4703.53506,-0.00067
4705.46353,-0.00224
4707.39200,-0.00031
4709.32047,-0.00105
4711.24893,-0.00137
4713.17740,0.00570
4715.10587,0.01292
4717.03434,0.00901
4718.96281,-0.00012
4720.89128,0.00087
4722.81975,0.00950
4724.74821,0.01038
4726.67668,0.00585
4728.60515,0.00883
4730.53362,0.01627
4732.46209,0.01959
4734.39056,0.02022
4736.31903,0.01722
4738.24750,0.00837
4740.17596,0.00360
4742.10443,0.00748
4744.03290,0.00858
4745.96137,0.00079
4747.88984,-0.00617
4749.81831,-0.00243
4751.74678,0.00460
4753.67524,0.00487
4755.60371,0.00046
4757.53218,-0.00127
4759.46065,0.00445
4761.38912,0.00852
4763.31759,0.00274
4765.24606,-0.00394
4767.17453,-0.00345
4769.10299,0.00248
4771.03146,0.00554
4772.95993,-0.00006
4774.88840,-0.00654
4776.81687,-0.00736
4778.74534,-0.00715
4780.67381,-0.00788
4782.60227,-0.00743
4784.53074,-0.00465
4786.45921,0.00263
4788.38768,0.01359
4790.31615,0.02002
4792.24462,0.01809
4794.17309,0.01410
4796.10156,0.00919
4798.03002,0.00487
4799.95849,0.00704
4801.88696,0.01100
4803.81543,0.01085
4805.74390,0.00817
4807.67237,0.00520
4809.60084,0.00731
4811.52930,0.01576
4813.45777,0.01788
4815.38624,0.00854
4817.31471,0.00157
4819.24318,0.00394
4821.17165,0.00858
4823.10012,0.01123
4825.02859,0.01334
4826.95705,0.01062
4828.88552,0.00077
4830.81399,-0.00502
4832.74246,-0.00275
4834.67093,-0.00078
4836.59940,0.00063
4838.52787,0.00572
4840.45633,0.01167
4842.38480,0.01421
4844.31327,0.01208
4846.24174,0.00619
4848.17021,0.00240
4850.09868,0.00610
4852.02715,0.00961
4853.95562,0.00653
4855.88408,0.00094
4857.81255,-0.00458
4859.74102,-0.00469
4861.66949,0.00490
4863.59796,0.01929
4865.52643,0.03028
4867.45490,0.03089
4869.38336,0.02040
4871.31183,0.00563
4873.24030,-0.00232
4875.16877,-0.00065
4877.09724,0.00137
4879.02571,0.00462
4880.95418,0.01396
4882.88265,0.01825
4884.81111,0.01338
4886.73958,0.00815
4888.66805,0.00715
4890.59652,0.01105
4892.52499,0.01186
4894.45346,0.00499
4896.38193,-0.00181
4898.31039,-0.00336
4900.23886,0.00003
4902.16733,0.00199
4904.09580,-0.00248
4906.02427,-0.00605
4907.95274,-0.00330
4909.88121,0.00090
4911.80967,0.00087
4913.73814,-0.00203
4915.66661,-0.00060
4917.59508,0.00541
4919.52355,0.01078
4921.45202,0.01525
4923.38049,0.01980
4925.30896,0.02048
4927.23742,0.01244
4929.16589,-0.00217
4931.09436,-0.01165
4933.02283,-0.00521
4934.95130,0.00575
4936.87977,0.00322
4938.80824,-0.00584
4940.73670,-0.00860
4942.66517,-0.00964
4944.59364,-0.01194
4946.52211,-0.00786
4948.45058,0.00397
4950.37905,0.01085
4952.30752,0.00487
4954.23599,-0.00204
4956.16445,-0.00000
4958.09292,0.01035
4960.02139,0.02034
4961.94986,0.01667
4963.87833,0.00535
4965.80680,0.00006
4967.73527,0.00066
4969.66373,-0.00017
4971.59220,-0.00154
4973.52067,0.00418
4975.44914,0.01026
4977.37761,0.00959
4979.30608,0.01199
4981.23455,0.01606
4983.16302,0.01189
4985.09148,0.00806
4987.01995,0.00821
4988.94842,0.00341
4990.87689,-0.00210
4992.80536,0.00085
4994.73383,0.00918
4996.66230,0.01366
4998.59076,0.00887
5000.51923,-0.00137
5002.44770,-0.00293
5004.37617,0.00949
5006.30464,0.02303
5008.23311,0.02809
5010.16158,0.02354
5012.09005,0.01690
5014.01851,0.01442
5015.94698,0.01442
5017.87545,0.01933
5019.80392,0.02284
5021.73239,0.01517
5023.66086,0.00597
5025.58933,0.00538
5027.51779,0.00656
5029.44626,-0.00068
5031.37473,-0.01150
5033.30320,-0.00978
5035.23167,0.00349
5037.16014,0.01363
5039.08861,0.01932
5041.01708,0.02488
5042.94554,0.03003
5044.87401,0.03085
5046.80248,0.02608
5048.73095,0.02547
5050.65942,0.02568
5052.58789,0.01746
5054.51636,0.00721
5056.44482,-0.00311
5058.37329,-0.00917
5060.30176,-0.00588
5062.23023,0.00019
5064.15870,0.00778
5066.08717,0.01570
5068.01564,0.01250
5069.94410,-0.00301
5071.87257,-0.01255
5073.80104,-0.00898
5075.72951,-0.00204
5077.65798,0.00477
5079.58645,0.00591
5081.51492,-0.00144
5083.44339,-0.00232
5085.37185,0.00890
5087.30032,0.01510
5089.22879,0.01104
5091.15726,0.01279
5093.08573,0.02569
5095.01420,0.04125
5096.94267,0.05076
5098.87113,0.04637
5100.79960,0.03311
5102.72807,0.02701
5104.65654,0.02906
5106.58501,0.02897
5108.51348,0.02052
5110.44195,0.00799
5112.37042,0.00277
5114.29888,0.00555
5116.22735,0.01182
5118.15582,0.01825
5120.08429,0.01834
5122.01276,0.01537
5123.94123,0.02003
5125.86970,0.02674
5127.79816,0.01947
5129.72663,0.00510
5131.65510,0.00512
5133.58357,0.01924
5135.51204,0.02840
5137.44051,0.02590
5139.36898,0.02160
5141.29745,0.02134
5143.22591,0.01935
5145.15438,0.01794
5147.08285,0.02377
5149.01132,0.02713
5150.93979,0.02585
5152.86826,0.02715
5154.79673,0.02666
5156.72519,0.01920
5158.65366,0.01028
5160.58213,0.00675
5162.51060,0.01136
5164.43907,0.02236
5166.36754,0.02623
5168.29601,0.02116
5170.22448,0.01924
5172.15294,0.02018
5174.08141,0.02038
5176.00988,0.02115
5177.93835,0.02347
5179.86682,0.02739
5181.79529,0.03203
5183.72376,0.03025
5185.65222,0.01802
5187.58069,0.01254
5189.50916,0.02272
5191.43763,0.03227
5193.36610,0.03181
5195.29457,0.02829
5197.22304,0.02705
5199.15151,0.03098
5201.07997,0.03565
5203.00844,0.03101
5204.93691,0.01941
5206.86538,0.01616
5208.79385,0.02510
5210.72232,0.02910
5212.65079,0.02394
5214.57925,0.02163
5216.50772,0.03140
5218.43619,0.04046
5220.36466,0.03363
5222.29313,0.02984
5224.22160,0.03972
5226.15007,0.04512
5228.07854,0.03523
5230.00700,0.02564
5231.93547,0.03385
5233.86394,0.04477
5235.79241,0.03807
5237.72088,0.02413
5239.64935,0.02314
5241.57782,0.03744
5243.50628,0.04610
5245.43475,0.03634
5247.36322,0.02474
5249.29169,0.02854
5251.22016,0.04060
5253.14863,0.04394
5255.07710,0.03995
5257.00556,0.03684
5258.93403,0.03899
5260.86250,0.05128
5262.79097,0.06208
5264.71944,0.05869
5266.64791,0.05006
5268.57638,0.04282
5270.50485,0.03875
5272.43331,0.04301
5274.36178,0.04836
5276.29025,0.04360
5278.21872,0.03887
5280.14719,0.04207
5282.07566,0.04249
5284.00413,0.03411
5285.93259,0.02204
5287.86106,0.01350
5289.78953,0.00530
5291.71800,-0.00047
5293.64647,0.00551
5295.57494,0.01855
5297.50341,0.03184
5299.43188,0.04174
5301.36034,0.04632
5303.28881,0.05024
5305.21728,0.05013
5307.14575,0.03489
5309.07422,0.01953
5311.00269,0.02011
5312.93116,0.02482
5314.85962,0.02914
5316.78809,0.03072
5318.71656,0.02037
5320.64503,0.00893
5322.57350,0.01260
5324.50197,0.02079
5326.43044,0.02101
5328.35891,0.02213
5330.28737,0.02995
5332.21584,0.03898
5334.14431,0.03917
5336.07278,0.02903
5338.00125,0.02337
5339.92972,0.03200
5341.85819,0.03823
5343.78665,0.03370
5345.71512,0.03799
5347.64359,0.05355
5349.57206,0.06256
5351.50053,0.05808
5353.42900,0.04577
5355.35747,0.04327
5357.28594,0.04663
5359.21440,0.03999
5361.14287,0.02935
5363.07134,0.02684
5364.99981,0.03543
5366.92828,0.05316
5368.85675,0.07264
5370.78522,0.08172
5372.71368,0.07193
5374.64215,0.05525
5376.57062,0.05294
5378.49909,0.05877
5380.42756,0.06004
5382.35603,0.05987
5384.28450,0.05997
5386.21297,0.05370
5388.14143,0.03967
5390.06990,0.02972
5391.99837,0.02918
5393.92684,0.03163
5395.85531,0.02963
5397.78378,0.02660
5399.71225,0.02968
5401.64071,0.03626
5403.56918,0.03472
5405.49765,0.02378
5407.42612,0.01970
5409.35459,0.02681
5411.28306,0.02977
5413.21153,0.02643
5415.13999,0.03056
5417.06846,0.04264
5418.99693,0.04910
5420.92540,0.04292
5422.85387,0.04097
5424.78234,0.05254
5426.71081,0.06153
5428.63928,0.05932
5430.56774,0.05523
5432.49621,0.05406
5434.42468,0.04658
5436.35315,0.03624
5438.28162,0.03739
5440.21009,0.04207
5442.13856,0.03498
5444.06702,0.02031
5445.99549,0.01898
5447.92396,0.03197
5449.85243,0.03056
5451.78090,0.01960
5453.70937,0.02444
5455.63784,0.04098
5457.56631,0.05176
5459.49477,0.04812
5461.42324,0.03588
5463.35171,0.03029
5465.28018,0.03959
5467.20865,0.04981
5469.13712,0.04474
5471.06559,0.04020
5472.99405,0.04470
5474.92252,0.04241
5476.85099,0.03984
5478.77946,0.04503
5480.70793,0.04397
5482.63640,0.03092
5484.56487,0.01565
5486.49334,0.01726
5488.42180,0.04054
5490.35027,0.05826
5492.27874,0.05404
5494.20721,0.05411
5496.13568,0.06598
5498.06415,0.06507
5499.99262,0.05797
5501.92108,0.06736
5503.84955,0.08754
5505.77802,0.10108
5507.70649,0.08939
5509.63496,0.05707
5511.56343,0.03509
5513.49190,0.03844
5515.42037,0.05378
5517.34883,0.06354
5519.27730,0.05677
5521.20577,0.03929
5523.13424,0.03475
5525.06271,0.04089
5526.99118,0.04306
5528.91965,0.05184
5530.84811,0.06575
5532.77658,0.06551
5534.70505,0.05478
5536.63352,0.04614
5538.56199,0.04404
5540.49046,0.05519
5542.41893,0.06038
5544.34740,0.04609
5546.27586,0.04287
5548.20433,0.05292
5550.13280,0.05186
5552.06127,0.04240
5553.98974,0.03568
5555.91821,0.02831
5557.84668,0.01871
5559.77514,0.01708
5561.70361,0.02779
5563.63208,0.04482
5565.56055,0.05652
5567.48902,0.06062
5569.41749,0.06517
5571.34596,0.06756
5573.27443,0.05593
5575.20289,0.03736
5577.13136,0.02610
5579.05983,0.01633
5580.98830,0.01668
5582.91677,0.03164
5584.84524,0.03294
5586.77371,0.02364
5588.70217,0.03037
5590.63064,0.04304
5592.55911,0.03706
5594.48758,0.02507
5596.41605,0.03351
5598.34452,0.05519
5600.27299,0.06438
5602.20145,0.05505
5604.12992,0.04613
5606.05839,0.04908
5607.98686,0.04744
5609.91533,0.03618
5611.84380,0.03477
5613.77227,0.04536
5615.70074,0.05638
5617.62920,0.05983
5619.55767,0.05233
5621.48614,0.05103
5623.41461,0.05835
5625.34308,0.05340
5627.27155,0.03915
5629.20002,0.03195
5631.12848,0.03359
5633.05695,0.04370
5634.98542,0.06031
5636.91389,0.06706
5638.84236,0.05895
5640.77083,0.04681
5642.69930,0.03037
5644.62777,0.01093
5646.55623,0.00464
5648.48470,0.02149
5650.41317,0.04398
5652.34164,0.06205
5654.27011,0.08208
5656.19858,0.09264
5658.12705,0.08704
5660.05551,0.07813
5661.98398,0.06733
5663.91245,0.04801
5665.84092,0.04139
5667.76939,0.05996
5669.69786,0.07305
5671.62633,0.06495
5673.55480,0.05122
5675.48326,0.03223
5677.41173,0.01224
5679.34020,0.01694
5681.26867,0.04238
5683.19714,0.06100
5685.12561,0.06084
5687.05408,0.04580
5688.98254,0.02787
5690.91101,0.02001
5692.83948,0.03270
5694.76795,0.05778
5696.69642,0.07492
5698.62489,0.08222
5700.55336,0.08113
5702.48183,0.07362
5704.41029,0.06806
5706.33876,0.06141
5708.26723,0.05195
5710.19570,0.04331
5712.12417,0.03707
5714.05264,0.04003
5715.98111,0.05527
5717.90957,0.08155
5719.83804,0.10584
5721.76651,0.10439
5723.69498,0.08950
5725.62345,0.08588
5727.55192,0.08419
5729.48039,0.07382
5731.40886,0.04755
5733.33732,0.01062
5735.26579,-0.00333
5737.19426,0.01532
5739.12273,0.04601
5741.05120,0.06451
5742.97967,0.06546
5744.90814,0.07179
5746.83660,0.08286
5748.76507,0.09461
5750.69354,0.11550
5752.62201,0.12758
5754.55048,0.11994
5756.47895,0.10763
5758.40742,0.09664
5760.33588,0.08018
5762.26435,0.05965
5764.19282,0.04544
5766.12129,0.04294
5768.04976,0.05257
5769.97823,0.06373
5771.90670,0.06981
5773.83517,0.07560
5775.76363,0.06603
5777.69210,0.04446
5779.62057,0.04664
5781.54904,0.06651
5783.47751,0.07580
5785.40598,0.07481
5787.33445,0.06781
5789.26291,0.05993
5791.19138,0.06359
5793.11985,0.07511
5795.04832,0.08189
5796.97679,0.08476
5798.90526,0.08737
5800.83373,0.08370
5802.76220,0.06922
5804.69066,0.05266
5806.61913,0.05256
5808.54760,0.06913
5810.47607,0.08631
5812.40454,0.09763
5814.33301,0.08951
5816.26148,0.05669
5818.18994,0.03393
5820.11841,0.05513
5822.04688,0.09167
5823.97535,0.08967
5825.90382,0.07022
5827.83229,0.06655
5829.76076,0.05378
5831.68923,0.03408
5833.61769,0.03133
5835.54616,0.03884
5837.47463,0.05502
5839.40310,0.06502
5841.33157,0.04020
5843.26004,0.00575
5845.18851,0.01128
5847.11697,0.04861
5849.04544,0.07433
5850.97391,0.07526
5852.90238,0.06906
5854.83085,0.06681
5856.75932,0.07220
5858.68779,0.08556
5860.61626,0.09658
5862.54472,0.08881
5864.47319,0.06884
5866.40166,0.06220
5868.33013,0.06344
5870.25860,0.05590
5872.18707,0.06038
5874.11554,0.07297
5876.04400,0.06984
5877.97247,0.07611
5879.90094,0.10038
5881.82941,0.12078
5883.75788,0.11611
5885.68635,0.08953
5887.61482,0.07957
5889.54329,0.07513
5891.47175,0.05335
5893.40022,0.03511
5895.32869,0.03630
5897.25716,0.05878
5899.18563,0.07061
5901.11410,0.04809
5903.04257,0.03435
5904.97103,0.04760
5906.89950,0.04267
5908.82797,0.01372
5910.75644,-0.00839
5912.68491,-0.00759
5914.61338,0.02961
5916.54185,0.07466
5918.47032,0.07466
5920.39878,0.05362
5922.32725,0.06613
5924.25572,0.09014
5926.18419,0.08348
5928.11266,0.06215
5930.04113,0.05397
5931.96960,0.04778
5933.89806,0.04283
5935.82653,0.05530
5937.75500,0.06939
5939.68347,0.07703
5941.61194,0.09138
5943.54041,0.10587
5945.46888,0.10486
5947.39734,0.09222
5949.32581,0.07732
5951.25428,0.06754
5953.18275,0.07363
5955.11122,0.08090
5957.03969,0.07657
5958.96816,0.07436
5960.89663,0.06179
5962.82509,0.02690
5964.75356,0.00450
5966.68203,0.01917
5968.61050,0.03654
5970.53897,0.02180
5972.46744,0.00653
5974.39591,0.01843
5976.32437,0.03526
5978.25284,0.05172
5980.18131,0.07103
5982.10978,0.07396
5984.03825,0.06978
5985.96672,0.07954
5987.89519,0.08631
5989.82366,0.08311
5991.75212,0.08204
5993.68059,0.07603
5995.60906,0.05896
5997.53753,0.05050
5999.46600,0.05471
6001.39447,0.06339
6003.32294,0.07395
6005.25140,0.06125
6007.17987,0.03543
6009.10834,0.03847
6011.03681,0.06518
6012.96528,0.09851
6014.89375,0.12914
6016.82222,0.14322
6018.75069,0.12914
6020.67915,0.08799
6022.60762,0.05394
6024.53609,0.05766
6026.46456,0.07725
6028.39303,0.08014
6030.32150,0.07392
6032.24997,0.07446
6034.17843,0.08084
6036.10690,0.08408
6038.03537,0.06301
6039.96384,0.03292
6041.89231,0.04353
6043.82078,0.08415
6045.74925,0.10604
6047.67772,0.10291
6049.60618,0.07210
6051.53465,0.02548
6053.46312,0.00302
6055.39159,0.02355
6057.32006,0.05909
6059.24853,0.06747
6061.17700,0.06285
6063.10546,0.06772
6065.03393,0.07503
6066.96240,0.09422
6068.89087,0.10479
6070.81934,0.07862
6072.74781,0.05332
6074.67628,0.06406
6076.60475,0.08063
6078.53321,0.07278
6080.46168,0.06517
6082.39015,0.07869
6084.31862,0.09124
6086.24709,0.07973
6088.17556,0.05966
6090.10403,0.05542
6092.03249,0.05945
6093.96096,0.05227
6095.88943,0.04238
6097.81790,0.06362
6099.74637,0.09199
6101.67484,0.07817
6103.60331,0.04931
6105.53177,0.04236
6107.46024,0.05986
6109.38871,0.09459
6111.31718,0.12237
6113.24565,0.12353
6115.17412,0.10453
6117.10259,0.09156
6119.03106,0.10258
6120.95952,0.11140
6122.88799,0.10952
6124.81646,0.12240
6126.74493,0.13443
6128.67340,0.10892
6130.60187,0.05883
6132.53034,0.03617
6134.45880,0.04607
6136.38727,0.05646
6138.31574,0.06898
6140.24421,0.08260
6142.17268,0.07549
6144.10115,0.07480
6146.02962,0.11789
6147.95809,0.15735
6149.88655,0.14838
6151.81502,0.12891
6153.74349,0.10495
6155.67196,0.04766
6157.60043,0.01771
6159.52890,0.04516
6161.45737,0.06556
6163.38583,0.04980
6165.31430,0.00728
6167.24277,-0.01814
6169.17124,0.00660
6171.09971,0.04285
6173.02818,0.07330
6174.95665,0.08570
6176.88512,0.05579
6178.81358,0.04095
6180.74205,0.06583
6182.67052,0.07633
6184.59899,0.07111
6186.52746,0.07162
6188.45593,0.06937
6190.38440,0.06318
6192.31286,0.06677
6194.24133,0.09159
6196.16980,0.12712
6198.09827,0.14377
6200.02674,0.12915
6201.95521,0.10141
6203.88368,0.07764
6205.81215,0.05804
6207.74061,0.04186
6209.66908,0.03987
6211.59755,0.06715
6213.52602,0.10233
6215.45449,0.10334
6217.38296,0.06999
6219.31143,0.05316
6221.23989,0.07186
6223.16836,0.10163
6225.09683,0.11974
6227.02530,0.11289
6228.95377,0.10309
6230.88224,0.09710
6232.81071,0.06633
6234.73918,0.03957
6236.66764,0.04287
6238.59611,0.06045
6240.52458,0.07583
6242.45305,0.06539
6244.38152,0.04979
6246.30999,0.06153
6248.23846,0.07154
6250.16692,0.07902
6252.09539,0.08714
6254.02386,0.06783
6255.95233,0.04071
6257.88080,0.00945
6259.80927,-0.01662
6261.73774,0.00769
6263.66621,0.06691
6265.59467,0.10435
6267.52314,0.10434
6269.45161,0.09227
6271.38008,0.08775
6273.30855,0.09392
6275.23702,0.08953
6277.16549,0.06825
6279.09395,0.06126
6281.02242,0.06597
6282.95089,0.07134
6284.87936,0.07539
6286.80783,0.07249
6288.73630,0.08350
6290.66477,0.11178
6292.59323,0.11405
6294.52170,0.08013
6296.45017,0.05516
6298.37864,0.06799
6300.30711,0.09167
6302.23558,0.07396
6304.16405,0.02864
6306.09252,0.01453
6308.02098,0.02181
6309.94945,0.01974
6311.87792,0.02376
6313.80639,0.03741
6315.73486,0.03728
6317.66333,0.02946
6319.59180,0.03937
6321.52026,0.06918
6323.44873,0.10196
6325.37720,0.12164
6327.30567,0.12685
6329.23414,0.11635
6331.16261,0.09219
6333.09108,0.08847
6335.01955,0.10400
6336.94801,0.08898
6338.87648,0.06096
6340.80495,0.07122
6342.73342,0.09976
6344.66189,0.09980
6346.59036,0.05901
6348.51883,0.01452
6350.44729,0.02150
6352.37576,0.07052
6354.30423,0.08727
6356.23270,0.06373
6358.16117,0.04312
6360.08964,0.03617
6362.01811,0.03788
6363.94658,0.05657
6365.87504,0.09292
6367.80351,0.10129
6369.73198,0.05030
6371.66045,0.02142
6373.58892,0.06314
6375.51739,0.09193
6377.44586,0.07543
6379.37432,0.06571
6381.30279,0.09180
6383.23126,0.10817
6385.15973,0.06963
6387.08820,0.05742
6389.01667,0.09089
6390.94514,0.09437
6392.87361,0.08350
6394.80207,0.10241
6396.73054,0.10876
6398.65901,0.06910
6400.58748,0.00581
6402.51595,-0.01022
6404.44442,0.02711
6406.37289,0.05720
6408.30135,0.06575
6410.22982,0.08130
6412.15829,0.10799
6414.08676,0.11583
6416.01523,0.08023
6417.94370,0.02536
6419.87217,0.01333
6421.80064,0.03694
6423.72910,0.06108
6425.65757,0.08536
6427.58604,0.08625
6429.51451,0.02691
6431.44298,-0.03221
6433.37145,0.01108
6435.29992,0.09210
6437.22838,0.09563
6439.15685,0.05398
6441.08532,0.06254
6443.01379,0.10623
6444.94226,0.12990
6446.87073,0.12165
6448.79920,0.08243
6450.72766,0.05883
6452.65613,0.09493
6454.58460,0.12796
6456.51307,0.10493
6458.44154,0.06880
6460.37001,0.04712
6462.29848,0.00858
6464.22695,-0.03698
6466.15541,-0.04116
6468.08388,0.02169
6470.01235,0.10251
6471.94082,0.12026
6473.86929,0.09573
6475.79776,0.06103
6477.72623,0.00596
6479.65469,-0.02009
6481.58316,0.00618
6483.51163,0.02207
6485.44010,0.01504
6487.36857,0.02812
6489.29704,0.07040
6491.22551,0.11319
6493.15398,0.09842
6495.08244,0.01734
6497.01091,-0.02850
6498.93938,0.00458
6500.86785,0.03998
6502.79632,0.03701
6504.72479,0.03259
6506.65326,0.02884
6508.58172,0.01433
6510.51019,0.01480
6512.43866,0.03699
6514.36713,0.05274
6516.29560,0.06988
6518.22407,0.09134
6520.15254,0.09230
6522.08101,0.07050
6524.00947,0.04046
6525.93794,0.00611
6527.86641,-0.03377
6529.79488,-0.04239
6531.72335,-0.00868
6533.65182,0.00074
6535.58029,-0.01544
6537.50875,0.00452
6539.43722,0.03376
6541.36569,0.03182
6543.29416,0.02294
6545.22263,0.02608
6547.15110,0.04758
6549.07957,0.09234
6551.00804,0.13672
6552.93650,0.12823
6554.86497,0.06657
6556.79344,0.02985
6558.72191,0.04846
6560.65038,0.07906
6562.57885,0.10725
6564.50732,0.12506
6566.43578,0.11730
6568.36425,0.10397
6570.29272,0.06929
6572.22119,0.01694
6574.14966,0.01403
6576.07813,0.05144
6578.00660,0.07864
6579.93507,0.09498
6581.86353,0.10378
6583.79200,0.10078
6585.72047,0.08843
6587.64894,0.08043
6589.57741,0.08337
6591.50588,0.06966
6593.43435,0.04871
6595.36281,0.04092
6597.29128,0.00628
6599.21975,-0.03893
6601.14822,-0.02304
6603.07669,0.04802
6605.00516,0.10341
6606.93363,0.10592
6608.86210,0.08176
6610.79056,0.08440
6612.71903,0.10233
6614.64750,0.11083
6616.57597,0.11496
6618.50444,0.10417
6620.43291,0.08399
6622.36138,0.04528
6624.28984,-0.00454
6626.21831,-0.01265
6628.14678,0.01650
6630.07525,0.04138
6632.00372,0.04070
6633.93219,0.02532
6635.86066,0.02775
6637.78912,0.04187
6639.71759,0.03266
6641.64606,-0.00033
6643.57453,-0.01500
6645.50300,0.01159
6647.43147,0.03974
6649.35994,0.05177
6651.28841,0.06246
6653.21687,0.09009
6655.14534,0.11635
6657.07381,0.08632
6659.00228,0.03901
6660.93075,0.02056
6662.85922,0.00464
6664.78769,0.01034
6666.71615,0.05190
6668.64462,0.07502
6670.57309,0.05224
6672.50156,0.04331
6674.43003,0.06485
6676.35850,0.07607
6678.28697,0.08844
6680.21544,0.11792
6682.14390,0.13958
6684.07237,0.13342
6686.00084,0.10216
6687.92931,0.04567
6689.85778,-0.01288
6691.78625,-0.03414
6693.71472,-0.01299
6695.64318,0.00698
6697.57165,-0.02215
6699.50012,-0.05788
6701.42859,-0.06485
6703.35706,-0.06934
6705.28553,-0.08063
6707.21400,-0.05851
6709.14247,0.02820
6711.07093,0.09912
6712.99940,0.10714
6714.92787,0.08087
6716.85634,0.03765
6718.78481,0.02805
6720.71328,0.07121
6722.64175,0.09003
6724.57021,0.09257
6726.49868,0.11713
6728.42715,0.09847
6730.35562,0.02070
6732.28409,-0.03685
6734.21256,-0.04869
6736.14103,-0.02110
6738.06950,0.04465
6739.99796,0.07805
6741.92643,0.01590
6743.85490,-0.06528
6745.78337,-0.09496
6747.71184,-0.04941
6749.64031,0.04709
6751.56878,0.07492
6753.49724,0.02703
6755.42571,0.00063
6757.35418,0.00274
6759.28265,0.04222
6761.21112,0.13976
6763.13959,0.19565
6765.06806,0.16881
6766.99653,0.11382
6768.92499,0.06535
6770.85346,0.03331
6772.78193,0.01587
6774.71040,-0.00206
6776.63887,-0.00798
6778.56734,0.03439
6780.49581,0.09372
6782.42427,0.10343
6784.35274,0.06642
6786.28121,0.03898
6788.20968,0.06709
6790.13815,0.13144
6792.06662,0.14698
6793.99509,0.10423
6795.92355,0.08000
6797.85202,0.09316
6799.78049,0.10934
6801.70896,0.10546
6803.63743,0.05740
6805.56590,-0.00007
6807.49437,-0.00971
6809.42284,-0.01916
6811.35130,-0.05446
6813.27977,-0.04602
6815.20824,0.00044
6817.13671,0.01134
6819.06518,0.00208
6820.99365,-0.00845
6822.92212,-0.02442
6824.85058,-0.00750
6826.77905,-0.00721
6828.70752,-0.05072
6830.63599,-0.04466
6832.56446,-0.00220
6834.49293,0.00633
6836.42140,0.01699
6838.34987,0.04197
6840.27833,0.02974
6842.20680,0.01757
6844.13527,0.07106
6846.06374,0.16002
6847.99221,0.19191
6849.92068,0.14042
6851.84915,0.09810
6853.77761,0.07322
6855.70608,0.05265
6857.63455,0.07506
6859.56302,0.08541
6861.49149,0.04706
6863.41996,0.03495
6865.34843,0.05165
6867.27690,0.03986
6869.20536,0.07042
6871.13383,0.18336
6873.06230,0.22645
6874.99077,0.11446
6876.91924,-0.02702
6878.84771,-0.09483
6880.77618,-0.04335
6882.70464,0.04951
6884.63311,0.09676
6886.56158,0.08659
6888.49005,0.03131
6890.41852,-0.00431
6892.34699,0.02923
6894.27546,0.09043
6896.20393,0.11514
6898.13239,0.10688
6900.06086,0.11684
6901.98933,0.10503
6903.91780,0.04965
6905.84627,0.03801
6907.77474,0.07603
6909.70321,0.08524
6911.63167,0.08216
6913.56014,0.12096
6915.48861,0.16428
6917.41708,0.15515
6919.34555,0.10219
6921.27402,0.01933
6923.20249,-0.04154
6925.13096,-0.00931
6927.05942,0.02631
6928.98789,-0.04509
6930.91636,-0.11692
6932.84483,-0.06251
6934.77330,0.00231
6936.70177,-0.01691
6938.63024,-0.05328
6940.55870,-0.01626
6942.48717,0.04427
6944.41564,0.01604
6946.34411,-0.08418
6948.27258,-0.10984
6950.20105,-0.02893
6952.12952,0.02657
6954.05799,0.01731
6955.98645,0.03615
6957.91492,0.08664
6959.84339,0.07456
6961.77186,-0.02592
6963.70033,-0.14926
6965.62880,-0.17420
6967.55727,-0.05100
6969.48573,0.10158
6971.41420,0.17120
6973.34267,0.14903
6975.27114,0.04667
6977.19961,-0.02675
6979.12808,0.02581
6981.05655,0.15232
6982.98501,0.22274
6984.91348,0.18181
6986.84195,0.14176
6988.77042,0.16008
6990.69889,0.14886
6992.62736,0.08771
6994.55583,0.02990
6996.48430,0.01658
6998.41276,0.03862
7000.34123,0.04506
7002.26970,0.04990
7004.19817,0.05907
7006.12664,0.05700
7008.05511,0.05300
7009.98358,0.03175
7011.91204,0.00247
7013.84051,0.02193
7015.76898,0.06018
7017.69745,0.06203
7019.62592,0.07762
7021.55439,0.10451
7023.48286,0.07015
7025.41133,0.01007
7027.33979,-0.03218
7029.26826,-0.04431
7031.19673,0.04464
7033.12520,0.16581
7035.05367,0.16536
7036.98214,0.08000
7038.91061,0.04525
7040.83907,0.02579
7042.76754,-0.06268
7044.69601,-0.14763
7046.62448,-0.13150
7048.55295,-0.02561
7050.48142,0.08286
7052.40989,0.10427
7054.33836,0.05423
7056.26682,0.00395
7058.19529,-0.00848
7060.12376,0.03093
7062.05223,0.07715
7063.98070,0.09918
7065.90917,0.11537
7067.83764,0.11493
7069.76610,0.08414
7071.69457,0.05873
7073.62304,0.05623
7075.55151,0.06650
7077.47998,0.07576
7079.40845,0.06300
7081.33692,0.04849
7083.26539,0.06326
7085.19385,0.05034
7087.12232,0.05219
7089.05079,0.13350
7090.97926,0.16730
7092.90773,0.12023
7094.83620,0.03494
7096.76467,-0.10516
7098.69313,-0.15699
7100.62160,-0.00203
7102.55007,0.13931
7104.47854,0.09724
7106.40701,-0.00123
7108.33548,0.05214
7110.26395,0.18486
7112.19242,0.21218
7114.12088,0.10608
7116.04935,0.02155
7117.97782,0.01382
7119.90629,-0.00433
7121.83476,-0.01372
7123.76323,-0.01947
7125.69170,-0.05413
7127.62016,-0.03771
7129.54863,0.05201
7131.47710,0.10949
7133.40557,0.12370
7135.33404,0.12717
7137.26251,0.05644
7139.19098,-0.03962
7141.11944,-0.02861
7143.04791,0.02925
7144.97638,0.06153
7146.90485,0.06309
7148.83332,-0.01165
7150.76179,-0.09616
7152.69026,-0.07636
7154.61873,-0.01727
7156.54719,-0.02191
7158.47566,-0.01441
7160.40413,0.04465
7162.33260,0.10644
7164.26107,0.14680
7166.18954,0.14752
7168.11801,0.06929
7170.04647,-0.01927
7171.97494,-0.00918
7173.90341,0.04074
7175.83188,0.08842
7177.76035,0.16618
7179.68882,0.21825
7181.61729,0.21761
7183.54576,0.18418
7185.47422,0.11881
7187.40269,0.07286
7189.33116,0.08045
7191.25963,0.07537
7193.18810,-0.00196
7195.11657,-0.06548
7197.04504,-0.07479
7198.97350,-0.02971
7200.90197,0.07449
7202.83044,0.14712
7204.75891,0.11873
7206.68738,0.10730
7208.61585,0.12947
7210.54432,0.11286
7212.47279,0.09442
7214.40125,0.12899
7216.32972,0.15380
7218.25819,0.07621
7220.18666,-0.00319
7222.11513,0.00639
7224.04360,0.07757
7225.97207,0.12728
7227.90053,0.11850
7229.82900,0.10497
7231.75747,0.09708
7233.68594,0.10983
7235.61441,0.13333
7237.54288,0.10681
7239.47135,0.03888
7241.39982,-0.01737
7243.32828,-0.03097
7245.25675,-0.00193
7247.18522,-0.02741
7249.11369,-0.08454
7251.04216,-0.04644
7252.97063,0.06761
7254.89910,0.14233
7256.82756,0.14806
7258.75603,0.05015
7260.68450,-0.11222
7262.61297,-0.13369
7264.54144,0.01195
7266.46991,0.12417
7268.39838,0.15964
7270.32685,0.17547
7272.25531,0.16973
7274.18378,0.18630
7276.11225,0.24668
7278.04072,0.28072
7279.96919,0.17729
7281.89766,-0.01451
7283.82613,-0.10105
7285.75459,-0.08404
7287.68306,-0.03172
7289.61153,0.01612
7291.54000,0.01791
7293.46847,-0.03643
7295.39694,-0.08507
7297.32541,-0.07117
7299.25387,-0.04135
7301.18234,-0.04566
7303.11081,-0.09385
7305.03928,-0.12763
7306.96775,-0.05146
7308.89622,0.03292
7310.82469,0.01763
7312.75316,-0.02880
7314.68162,-0.09574
7316.61009,-0.10653
7318.53856,-0.01405
7320.46703,0.12188
7322.39550,0.24887
7324.32397,0.24635
7326.25244,0.14039
7328.18090,0.07338
7330.10937,0.03119
7332.03784,-0.02846
7333.96631,-0.04256
7335.89478,0.00147
7337.82325,0.10279
7339.75172,0.19094
7341.68019,0.13074
7343.60865,0.02404
7345.53712,-0.08572
7347.46559,-0.13754
7349.39406,-0.10292
7351.32253,-0.04436
7353.25100,0.03344
7355.17947,0.07286
7357.10793,0.04493
7359.03640,0.05274
7360.96487,0.08601
7362.89334,0.09519
7364.82181,0.12302
7366.75028,0.10962
7368.67875,0.05426
7370.60722,0.05104
7372.53568,0.11660
7374.46415,0.22179
7376.39262,0.24056
7378.32109,0.14339
7380.24956,0.04605
7382.17803,0.00048
7384.10650,0.01853
7386.03496,0.06201
7387.96343,0.09400
7389.89190,0.12331
7391.82037,0.15926
7393.74884,0.09566
7395.67731,-0.11861
7397.60578,-0.23968
7399.53425,-0.14149
7401.46271,-0.01381
7403.39118,-0.01639
7405.31965,-0.07033
7407.24812,-0.00001
7409.17659,0.09161
7411.10506,0.03674
7413.03353,-0.06632
7414.96199,-0.08161
7416.89046,-0.01801
7418.81893,0.04592
7420.74740,0.05660
7422.67587,0.08587
7424.60434,0.06926
7426.53281,-0.02329
7428.46128,-0.04900
7430.38974,0.03858
7432.31821,0.11273
7434.24668,0.15552
7436.17515,0.18769
7438.10362,0.18052
7440.03209,0.08633
7441.96056,0.00764
7443.88902,0.06093
7445.81749,0.12924
7447.74596,0.12067
7449.67443,0.06962
7451.60290,0.02117
7453.53137,0.03544
7455.45984,0.12435
7457.38831,0.22091
7459.31677,0.20753
7461.24524,0.06628
7463.17371,-0.00226
7465.10218,-0.01477
7467.03065,-0.08648
7468.95912,-0.11480
7470.88759,0.00344
7472.81605,0.10248
7474.74452,0.07204
7476.67299,0.07539
7478.60146,0.12473
7480.52993,0.10620
7482.45840,0.05561
7484.38687,0.04839
7486.31533,0.07543
7488.24380,0.06998
7490.17227,0.03661
7492.10074,0.02137
7494.02921,0.03650
7495.95768,0.07084
7497.88615,0.08412
