399.19301,3.00737
401.12148,-0.08797
403.04995,0.06536
404.97842,0.25288
406.90689,0.14587
408.83536,-0.15539
410.76382,-0.26272
412.69229,-0.12645
414.62076,-0.00871
416.54923,0.02478
418.47770,0.02878
420.40617,0.07134
422.33464,0.14049
424.26311,0.16965
426.19157,0.12211
428.12004,0.06435
430.04851,0.04425
431.97698,-0.01364
433.90545,-0.11076
435.83392,-0.12685
437.76239,-0.07762
439.69085,-0.03729
441.61932,-0.03523
443.54779,0.05442
445.47626,0.19499
447.40473,0.16093
449.33320,0.02792
451.26167,0.01400
453.19013,0.07084
455.11860,0.05838
457.04707,-0.03409
458.97554,-0.08021
460.90401,-0.00374
462.83248,0.08195
464.76095,0.11206
466.68942,0.12107
468.61788,0.09822
470.54635,0.04547
472.47482,0.06855
474.40329,0.17484
476.33176,0.13830
478.26023,0.10662
480.18870,0.14037
482.11716,0.14336
484.04563,0.10630
485.97410,0.08544
487.90257,0.06863
489.83104,0.04144
491.75951,0.04067
493.68798,0.07933
495.61645,0.11285
497.54491,0.09977
499.47338,0.07660
501.40185,0.06622
503.33032,0.05007
505.25879,0.06294
507.18726,0.09974
509.11573,0.10387
511.04419,0.08741
512.97266,0.07118
514.90113,0.04899
516.82960,0.04482
518.75807,0.05130
520.68654,0.04151
522.61501,0.03237
524.54348,0.02055
526.47194,0.00432
528.40041,-0.00112
530.32888,0.02327
532.25735,0.05739
534.18582,0.06422
536.11429,0.03630
538.04276,0.02739
539.97122,0.08856
541.89969,0.15221
543.82816,0.16128
545.75663,0.14889
547.68510,0.12807
549.61357,0.31841
551.54204,1.35970
553.47051,2.57553
555.39897,2.20423
557.32744,0.79636
559.25591,0.11318
561.18438,0.04246
563.11285,0.04130
565.04132,0.06218
566.96979,0.07298
568.89825,0.07383
570.82672,0.06710
572.75519,0.04809
574.68366,0.02918
576.61213,0.02507
578.54060,0.02086
580.46907,0.01666
582.39754,0.03055
584.32600,0.06196
586.25447,0.08240
588.18294,0.07521
590.11141,0.05764
592.03988,0.04803
593.96835,0.04822
595.89682,0.04294
597.82528,0.03488
599.75375,0.03464
601.68222,0.05010
603.61069,0.07076
605.53916,0.07441
607.46763,0.06472
609.39610,0.06189
611.32456,0.07074
613.25303,0.07237
615.18150,0.06411
617.10997,0.06618
619.03844,0.07999
620.96691,0.08615
622.89538,0.08175
624.82385,0.07729
626.75231,0.07537
628.68078,0.06865
630.60925,0.06146
632.53772,0.06948
634.46619,0.08033
636.39466,0.07813
638.32313,0.07119
640.25159,0.07153
642.18006,0.08038
644.10853,0.08189
646.03700,0.07466
647.96547,0.08839
649.89394,0.11283
651.82241,0.10232
653.75088,0.08067
655.67934,0.08196
657.60781,0.08947
659.53628,0.09684
661.46475,0.10798
663.39322,0.10976
665.32169,0.09844
667.25016,0.08291
669.17862,0.08258
671.10709,0.10489
673.03556,0.12178
674.96403,0.11488
676.89250,0.09490
678.82097,0.08618
680.74944,0.08580
682.67791,0.08479
684.60637,0.08073
686.53484,0.07051
688.46331,0.06689
690.39178,0.07561
692.32025,0.09062
694.24872,0.10828
696.17719,0.11620
698.10565,0.10979
700.03412,0.09840
701.96259,0.08710
703.89106,0.07994
705.81953,0.07712
707.74800,0.07775
709.67647,0.11308
711.60494,0.18006
713.53340,0.19534
715.46187,0.14647
717.39034,0.10520
719.31881,0.09188
721.24728,0.09187
723.17575,0.09194
725.10422,0.08795
727.03268,0.08360
728.96115,0.08089
730.88962,0.08887
732.81809,0.10040
734.74656,0.09859
736.67503,0.09300
738.60350,0.09690
740.53197,0.10357
742.46043,0.10542
744.38890,0.10344
746.31737,0.10093
748.24584,0.10151
750.17431,0.10212
752.10278,0.10198
754.03125,0.10386
755.95971,0.10154
757.88818,0.09419
759.81665,0.09049
761.74512,0.09383
763.67359,0.10078
765.60206,0.10601
767.53053,0.10911
769.45900,0.11043
771.38746,0.10683
773.31593,0.10244
775.24440,0.10277
777.17287,0.10443
779.10134,0.10558
781.02981,0.10922
782.95828,0.11231
784.88674,0.11047
786.81521,0.10734
788.74368,0.10401
790.67215,0.10223
792.60062,0.10730
794.52909,0.11405
796.45756,0.11765
798.38602,0.12073
800.31449,0.12243
802.24296,0.12030
804.17143,0.11429
806.09990,0.10849
808.02837,0.10525
809.95684,0.10717
811.88531,0.11212
813.81377,0.10770
815.74224,0.10239
817.67071,0.11042
819.59918,0.11862
821.52765,0.11592
823.45612,0.11060
825.38459,0.11239
827.31305,0.11510
829.24152,0.11339
831.16999,0.11578
833.09846,0.12551
835.02693,0.13007
836.95540,0.11721
838.88387,0.10043
840.81234,0.09619
842.74080,0.09662
844.66927,0.09256
846.59774,0.09286
848.52621,0.10143
850.45468,0.10841
852.38315,0.11560
854.31162,0.12412
856.24008,0.12241
858.16855,0.10846
860.09702,0.09555
862.02549,0.10165
863.95396,0.12065
865.88243,0.12379
867.81090,0.10005
869.73937,0.06786
871.66783,0.05940
873.59630,0.07856
875.52477,0.09921
877.45324,0.11164
879.38171,0.11521
881.31018,0.10934
883.23865,0.10473
885.16711,0.10614
887.09558,0.10694
889.02405,0.10215
890.95252,0.09551
892.88099,0.09522
894.80946,0.10509
896.73793,0.11577
898.66640,0.11815
900.59486,0.11817
902.52333,0.12206
904.45180,0.12701
906.38027,0.12639
908.30874,0.11973
910.23721,0.11244
912.16568,0.10698
914.09414,0.10470
916.02261,0.10622
917.95108,0.11170
919.87955,0.11846
921.80802,0.11880
923.73649,0.10989
925.66496,0.09907
927.59343,0.09832
929.52189,0.10503
931.45036,0.10478
933.37883,0.10383
935.30730,0.11000
937.23577,0.11364
939.16424,0.11246
941.09271,0.10774
943.02117,0.10024
944.94964,0.09401
946.87811,0.09142
948.80658,0.09544
950.73505,0.10271
952.66352,0.10639
954.59199,0.10807
956.52045,0.11142
958.44892,0.11344
960.37739,0.11145
962.30586,0.10643
964.23433,0.10149
966.16280,0.10088
968.09127,0.10518
970.01974,0.11023
971.94820,0.10899
973.87667,0.10226
975.80514,0.10172
977.73361,0.10951
979.66208,0.11649
981.59055,0.12186
983.51902,0.12471
985.44748,0.11945
987.37595,0.11407
989.30442,0.11525
991.23289,0.11814
993.16136,0.12073
995.08983,0.11925
997.01830,0.11124
998.94677,0.10389
1000.87523,0.10310
1002.80370,0.10848
1004.73217,0.11768
1006.66064,0.12705
1008.58911,0.12810
1010.51758,0.11576
1012.44605,0.10244
1014.37451,0.10014
1016.30298,0.10309
1018.23145,0.10391
1020.15992,0.10510
1022.08839,0.11184
1024.01686,0.12438
1025.94533,0.13489
1027.87380,0.13436
1029.80226,0.12776
1031.73073,0.12226
1033.65920,0.11595
1035.58767,0.10936
1037.51614,0.10461
1039.44461,0.10617
1041.37308,0.11517
1043.30154,0.12438
1045.23001,0.12509
1047.15848,0.11398
1049.08695,0.09975
1051.01542,0.09430
1052.94389,0.10050
1054.87236,0.11021
1056.80083,0.11547
1058.72929,0.11479
1060.65776,0.10950
1062.58623,0.10675
1064.51470,0.11160
1066.44317,0.11864
1068.37164,0.12421
1070.30011,0.13039
1072.22857,0.13200
1074.15704,0.12673
1076.08551,0.12477
1078.01398,0.12745
1079.94245,0.12596
1081.87092,0.12168
1083.79939,0.11951
1085.72786,0.11634
1087.65632,0.11381
1089.58479,0.11902
1091.51326,0.12599
1093.44173,0.12663
1095.37020,0.12810
1097.29867,0.13224
1099.22714,0.13191
1101.15560,0.12775
1103.08407,0.12602
1105.01254,0.13588
1106.94101,0.15297
1108.86948,0.15689
1110.79795,0.14709
1112.72642,0.13994
1114.65489,0.13690
1116.58335,0.13527
1118.51182,0.13827
1120.44029,0.13999
1122.36876,0.13428
1124.29723,0.12754
1126.22570,0.12256
1128.15417,0.11912
1130.08263,0.12122
1132.01110,0.12309
1133.93957,0.11970
1135.86804,0.11267
1137.79651,0.10598
1139.72498,0.10960
1141.65345,0.11913
1143.58191,0.12187
1145.51038,0.12110
1147.43885,0.12395
1149.36732,0.12928
1151.29579,0.13260
1153.22426,0.13195
1155.15273,0.13071
1157.08120,0.13263
1159.00966,0.13443
1160.93813,0.13154
1162.86660,0.12597
1164.79507,0.12110
1166.72354,0.11685
1168.65201,0.11503
1170.58048,0.11774
1172.50894,0.11944
1174.43741,0.11692
1176.36588,0.11624
1178.29435,0.11779
1180.22282,0.11502
1182.15129,0.10965
1184.07976,0.11030
1186.00823,0.11959
1187.93669,0.12884
1189.86516,0.12705
1191.79363,0.11973
1193.72210,0.11886
1195.65057,0.12096
1197.57904,0.11997
1199.50751,0.11763
1201.43597,0.11841
1203.36444,0.12457
1205.29291,0.13121
1207.22138,0.13475
1209.14985,0.13516
1211.07832,0.13121
1213.00679,0.12603
1214.93526,0.12225
1216.86372,0.11766
1218.79219,0.11504
1220.72066,0.11938
1222.64913,0.12766
1224.57760,0.13436
1226.50607,0.13525
1228.43454,0.12741
1230.36300,0.11854
1232.29147,0.11797
1234.21994,0.12114
1236.14841,0.12331
1238.07688,0.12624
1240.00535,0.12661
1241.93382,0.12325
1243.86229,0.12202
1245.79075,0.12409
1247.71922,0.12520
1249.64769,0.12470
1251.57616,0.12587
1253.50463,0.12898
1255.43310,0.13066
1257.36157,0.13024
1259.29003,0.12980
1261.21850,0.13044
1263.14697,0.13100
1265.07544,0.12875
1267.00391,0.12349
1268.93238,0.12014
1270.86085,0.12332
1272.78932,0.12857
1274.71778,0.12825
1276.64625,0.12603
1278.57472,0.12710
1280.50319,0.12728
1282.43166,0.12572
1284.36013,0.12569
1286.28860,0.12630
1288.21706,0.12815
1290.14553,0.13099
1292.07400,0.13105
1294.00247,0.12701
1295.93094,0.12075
1297.85941,0.11652
1299.78788,0.11343
1301.71634,0.10582
1303.64481,0.09745
1305.57328,0.09988
1307.50175,0.11351
1309.43022,0.12391
1311.35869,0.12600
1313.28716,0.12597
1315.21563,0.12395
1317.14409,0.12296
1319.07256,0.12545
1321.00103,0.12673
1322.92950,0.12703
1324.85797,0.12574
1326.78644,0.12496
1328.71491,0.12664
1330.64337,0.12476
1332.57184,0.12437
1334.50031,0.12913
1336.42878,0.13249
1338.35725,0.13655
1340.28572,0.13687
1342.21419,0.12851
1344.14266,0.12314
1346.07112,0.12338
1347.99959,0.12456
1349.92806,0.12627
1351.85653,0.12748
1353.78500,0.12751
1355.71347,0.12668
1357.64194,0.12691
1359.57040,0.13111
1361.49887,0.13723
1363.42734,0.13998
1365.35581,0.13773
1367.28428,0.13334
1369.21275,0.13105
1371.14122,0.13376
1373.06969,0.13859
1374.99815,0.14110
1376.92662,0.14207
1378.85509,0.14166
1380.78356,0.13728
1382.71203,0.13203
1384.64050,0.13279
1386.56897,0.14169
1388.49743,0.14881
1390.42590,0.14654
1392.35437,0.14355
1394.28284,0.14479
1396.21131,0.14673
1398.13978,0.14652
1400.06825,0.14308
1401.99672,0.14012
1403.92518,0.14188
1405.85365,0.14445
1407.78212,0.14258
1409.71059,0.13889
1411.63906,0.13625
1413.56753,0.13643
1415.49600,0.14086
1417.42446,0.14802
1419.35293,0.15190
1421.28140,0.14825
1423.20987,0.14384
1425.13834,0.14181
1427.06681,0.13907
1428.99528,0.13512
1430.92375,0.13348
1432.85221,0.13479
1434.78068,0.13759
1436.70915,0.13977
1438.63762,0.13762
1440.56609,0.13515
1442.49456,0.13535
1444.42303,0.13753
1446.35149,0.14170
1448.27996,0.14569
1450.20843,0.14710
1452.13690,0.14958
1454.06537,0.15510
1455.99384,0.16062
1457.92231,0.15601
1459.85077,0.14470
1461.77924,0.13981
1463.70771,0.13968
1465.63618,0.13882
1467.56465,0.13936
1469.49312,0.14370
1471.42159,0.14653
1473.35006,0.14475
1475.27852,0.14346
1477.20699,0.14277
1479.13546,0.14153
1481.06393,0.13925
1482.99240,0.13645
1484.92087,0.13813
1486.84934,0.14602
1488.77780,0.15283
1490.70627,0.14903
1492.63474,0.14122
1494.56321,0.13863
1496.49168,0.14213
1498.42015,0.14503
1500.34862,0.14084
1502.27709,0.13307
1504.20555,0.13215
1506.13402,0.15310
1508.06249,0.16865
1509.99096,0.15230
1511.91943,0.14126
1513.84790,0.14262
1515.77637,0.14946
1517.70483,0.15266
1519.63330,0.15512
1521.56177,0.16055
1523.49024,0.16101
1525.41871,0.15889
1527.34718,0.15524
1529.27565,0.14908
1531.20412,0.14734
1533.13258,0.15216
1535.06105,0.15401
1536.98952,0.15380
1538.91799,0.16437
1540.84646,0.18740
1542.77493,0.18889
1544.70340,0.17183
1546.63186,0.15552
1548.56033,0.15003
1550.48880,0.15303
1552.41727,0.15570
1554.34574,0.15624
1556.27421,0.15793
1558.20268,0.15899
1560.13115,0.15415
1562.05961,0.15016
1563.98808,0.14639
1565.91655,0.14403
1567.84502,0.14841
1569.77349,0.15582
1571.70196,0.15728
1573.63043,0.15768
1575.55889,0.15939
1577.48736,0.15350
1579.41583,0.14632
1581.34430,0.14788
1583.27277,0.15086
1585.20124,0.14592
1587.12971,0.13813
1589.05818,0.13579
1590.98664,0.13824
1592.91511,0.14105
1594.84358,0.14217
1596.77205,0.14102
1598.70052,0.13973
1600.62899,0.13906
1602.55746,0.13800
1604.48592,0.13797
1606.41439,0.13920
1608.34286,0.14134
1610.27133,0.14366
1612.19980,0.14349
1614.12827,0.14129
1616.05674,0.14251
1617.98521,0.14679
1619.91367,0.14604
1621.84214,0.14534
1623.77061,0.14830
1625.69908,0.15006
1627.62755,0.15058
1629.55602,0.15128
1631.48449,0.15063
1633.41295,0.15039
1635.34142,0.15513
1637.26989,0.15964
1639.19836,0.15653
1641.12683,0.15232
1643.05530,0.15300
1644.98377,0.16102
1646.91223,0.16991
1648.84070,0.16788
1650.76917,0.16686
1652.69764,0.17630
1654.62611,0.17349
1656.55458,0.15884
1658.48305,0.16011
1660.41152,0.18712
1662.33998,0.20703
1664.26845,0.18006
1666.19692,0.15566
1668.12539,0.15865
1670.05386,0.16514
1671.98233,0.16415
1673.91080,0.16350
1675.83926,0.16022
1677.76773,0.15552
1679.69620,0.15575
1681.62467,0.16100
1683.55314,0.16620
1685.48161,0.16622
1687.41008,0.16414
1689.33855,0.16034
1691.26701,0.15490
1693.19548,0.15482
1695.12395,0.16491
1697.05242,0.17729
1698.98089,0.17552
1700.90936,0.16198
1702.83783,0.15666
1704.76629,0.15930
1706.69476,0.15875
1708.62323,0.15346
1710.55170,0.15144
1712.48017,0.15460
1714.40864,0.16018
1716.33711,0.16667
1718.26558,0.16546
1720.19404,0.15558
1722.12251,0.14672
1724.05098,0.14227
1725.97945,0.14456
1727.90792,0.15073
1729.83639,0.15657
1731.76486,0.16273
1733.69332,0.16596
1735.62179,0.15911
1737.55026,0.15259
1739.47873,0.14761
1741.40720,0.14211
1743.33567,0.14180
1745.26414,0.14721
1747.19261,0.15379
1749.12107,0.15839
1751.04954,0.15834
1752.97801,0.15519
1754.90648,0.15271
1756.83495,0.15117
1758.76342,0.14899
1760.69189,0.14619
1762.62035,0.14599
1764.54882,0.14857
1766.47729,0.15009
1768.40576,0.15197
1770.33423,0.15878
1772.26270,0.16465
1774.19117,0.16038
1776.11964,0.15397
1778.04810,0.15048
1779.97657,0.14853
1781.90504,0.14689
1783.83351,0.14721
1785.76198,0.14856
1787.69045,0.14840
1789.61892,0.15027
1791.54738,0.15714
1793.47585,0.16053
1795.40432,0.15572
1797.33279,0.15147
1799.26126,0.15283
1801.18973,0.15465
1803.11820,0.14927
1805.04666,0.14224
1806.97513,0.14238
1808.90360,0.14786
1810.83207,0.15046
1812.76054,0.14852
1814.68901,0.14611
1816.61748,0.14533
1818.54595,0.14765
1820.47441,0.15002
1822.40288,0.14848
1824.33135,0.14672
1826.25982,0.14953
1828.18829,0.15426
1830.11676,0.15251
1832.04523,0.14443
1833.97369,0.14120
1835.90216,0.14266
1837.83063,0.14310
1839.75910,0.14343
1841.68757,0.14614
1843.61604,0.14937
1845.54451,0.15032
1847.47298,0.14920
1849.40144,0.14746
1851.32991,0.14743
1853.25838,0.14994
1855.18685,0.15132
1857.11532,0.14982
1859.04379,0.14903
1860.97226,0.14951
1862.90072,0.14858
1864.82919,0.14841
1866.75766,0.15294
1868.68613,0.15694
1870.61460,0.15342
1872.54307,0.14915
1874.47154,0.14690
1876.40001,0.14611
1878.32847,0.14673
1880.25694,0.14486
1882.18541,0.14284
1884.11388,0.14602
1886.04235,0.14952
1887.97082,0.14828
1889.89929,0.14608
1891.82775,0.14664
1893.75622,0.14831
1895.68469,0.14838
1897.61316,0.14605
1899.54163,0.14387
1901.47010,0.14467
1903.39857,0.14894
1905.32704,0.15367
1907.25550,0.15552
1909.18397,0.15404
1911.11244,0.15048
1913.04091,0.14669
1914.96938,0.14533
1916.89785,0.14835
1918.82632,0.15340
1920.75478,0.15584
1922.68325,0.15468
1924.61172,0.15184
1926.54019,0.14944
1928.46866,0.14960
1930.39713,0.15189
1932.32560,0.15117
1934.25407,0.14701
1936.18253,0.14368
1938.11100,0.14279
1940.03947,0.14421
1941.96794,0.14701
1943.89641,0.14893
1945.82488,0.14850
1947.75335,0.14733
1949.68181,0.14735
1951.61028,0.14826
1953.53875,0.14906
1955.46722,0.14948
1957.39569,0.14829
1959.32416,0.14628
1961.25263,0.14727
1963.18110,0.15030
1965.10956,0.15178
1967.03803,0.15118
1968.96650,0.14942
1970.89497,0.14835
1972.82344,0.14849
1974.75191,0.14788
1976.68038,0.14419
1978.60884,0.14003
1980.53731,0.14111
1982.46578,0.14549
1984.39425,0.14854
1986.32272,0.15034
1988.25119,0.14935
1990.17966,0.14639
1992.10812,0.14643
1994.03659,0.14788
1995.96506,0.14697
1997.89353,0.14518
1999.82200,0.14541
2001.75047,0.14888
2003.67894,0.15130
2005.60741,0.14999
2007.53587,0.14970
2009.46434,0.15126
2011.39281,0.15187
2013.32128,0.15142
2015.24975,0.15173
2017.17822,0.15315
2019.10669,0.15235
2021.03515,0.15007
2022.96362,0.14933
2024.89209,0.14889
2026.82056,0.14847
2028.74903,0.14903
2030.67750,0.14883
2032.60597,0.14714
2034.53444,0.14600
2036.46290,0.14669
2038.39137,0.14827
2040.31984,0.14776
2042.24831,0.14506
2044.17678,0.14466
2046.10525,0.14687
2048.03372,0.14804
2049.96218,0.14826
2051.89065,0.14887
2053.81912,0.14939
2055.74759,0.14998
2057.67606,0.15014
2059.60453,0.14942
2061.53300,0.14884
2063.46147,0.14916
2065.38993,0.15063
2067.31840,0.15198
2069.24687,0.15142
2071.17534,0.14928
2073.10381,0.14813
2075.03228,0.14885
2076.96075,0.14949
2078.88921,0.14987
2080.81768,0.15044
2082.74615,0.14989
2084.67462,0.14970
2086.60309,0.15049
2088.53156,0.14869
2090.46003,0.14583
2092.38850,0.14591
2094.31696,0.14738
2096.24543,0.14814
2098.17390,0.14871
2100.10237,0.15022
2102.03084,0.15120
2103.95931,0.14918
2105.88778,0.14635
2107.81624,0.14545
2109.74471,0.14476
2111.67318,0.14404
2113.60165,0.14654
2115.53012,0.15115
2117.45859,0.15275
2119.38706,0.15149
2121.31553,0.15138
2123.24399,0.15138
2125.17246,0.14989
2127.10093,0.15015
2129.02940,0.15248
2130.95787,0.15350
2132.88634,0.15279
2134.81481,0.15626
2136.74327,0.16205
2138.67174,0.15717
2140.60021,0.14639
2142.52868,0.14332
2144.45715,0.14495
2146.38562,0.14475
2148.31409,0.14326
2150.24255,0.14319
2152.17102,0.14519
2154.09949,0.14767
2156.02796,0.14811
2157.95643,0.14655
2159.88490,0.14539
2161.81337,0.14555
2163.74184,0.14695
2165.67030,0.14785
2167.59877,0.14795
2169.52724,0.14941
2171.45571,0.15227
2173.38418,0.15439
2175.31265,0.15418
2177.24112,0.15235
2179.16958,0.15134
2181.09805,0.15175
2183.02652,0.15121
2184.95499,0.15014
2186.88346,0.14970
2188.81193,0.14778
2190.74040,0.14655
2192.66887,0.14968
2194.59733,0.15422
2196.52580,0.15566
2198.45427,0.15335
2200.38274,0.15048
2202.31121,0.14916
2204.23968,0.14785
2206.16815,0.14685
2208.09661,0.14799
2210.02508,0.14996
2211.95355,0.15051
2213.88202,0.14983
2215.81049,0.14923
2217.73896,0.14943
2219.66743,0.15081
2221.59590,0.15255
2223.52436,0.15276
2225.45283,0.15022
2227.38130,0.14716
2229.30977,0.14708
2231.23824,0.14874
2233.16671,0.14954
2235.09518,0.15042
2237.02364,0.15181
2238.95211,0.15172
2240.88058,0.15029
2242.80905,0.14992
2244.73752,0.15089
2246.66599,0.15185
2248.59446,0.15208
2250.52293,0.15181
2252.45139,0.15175
2254.37986,0.15167
2256.30833,0.15120
2258.23680,0.15204
2260.16527,0.15409
2262.09374,0.15400
2264.02221,0.15081
2265.95067,0.14811
2267.87914,0.14828
2269.80761,0.14923
2271.73608,0.14964
2273.66455,0.14972
2275.59302,0.14920
2277.52149,0.14819
2279.44996,0.14605
2281.37842,0.14348
2283.30689,0.14319
2285.23536,0.14467
2287.16383,0.14588
2289.09230,0.14920
2291.02077,0.15378
2292.94924,0.15182
2294.87770,0.14591
2296.80617,0.14716
2298.73464,0.15204
2300.66311,0.15178
2302.59158,0.14959
2304.52005,0.15035
2306.44852,0.15341
2308.37699,0.15473
2310.30545,0.15214
2312.23392,0.14628
2314.16239,0.13954
2316.09086,0.13777
2318.01933,0.14085
2319.94780,0.14363
2321.87627,0.14512
2323.80473,0.14857
2325.73320,0.15488
2327.66167,0.16056
2329.59014,0.16652
2331.51861,0.16709
2333.44708,0.15545
2335.37555,0.14802
2337.30401,0.15117
2339.23248,0.14815
2341.16095,0.14372
2343.08942,0.14894
2345.01789,0.15239
2346.94636,0.15237
2348.87483,0.15239
2350.80330,0.14886
2352.73176,0.13997
2354.66023,0.13707
2356.58870,0.14855
2358.51717,0.15228
2360.44564,0.14702
2362.37411,0.15588
2364.30258,0.16654
2366.23104,0.15773
2368.15951,0.13809
2370.08798,0.13012
2372.01645,0.13992
2373.94492,0.15290
2375.87339,0.15665
2377.80186,0.15499
2379.73033,0.15435
2381.65879,0.15325
2383.58726,0.14943
2385.51573,0.14701
2387.44420,0.14992
2389.37267,0.15442
2391.30114,0.15622
2393.22961,0.15532
2395.15807,0.15265
2397.08654,0.15094
2399.01501,0.15179
2400.94348,0.15232
2402.87195,0.15228
2404.80042,0.15288
2406.72889,0.15062
2408.65736,0.14640
2410.58582,0.14541
2412.51429,0.14740
2414.44276,0.14945
2416.37123,0.14978
2418.29970,0.14961
2420.22817,0.15050
2422.15664,0.15109
2424.08510,0.15033
2426.01357,0.14980
2427.94204,0.15176
2429.87051,0.15494
2431.79898,0.15537
2433.72745,0.15127
2435.65592,0.14623
2437.58439,0.14461
2439.51285,0.14566
2441.44132,0.14700
2443.36979,0.14884
2445.29826,0.15226
2447.22673,0.15659
2449.15520,0.15580
2451.08367,0.14464
2453.01213,0.13382
2454.94060,0.13701
2456.86907,0.14772
2458.79754,0.15371
2460.72601,0.15477
2462.65448,0.15413
2464.58295,0.15166
2466.51142,0.14903
2468.43988,0.14931
2470.36835,0.15062
2472.29682,0.14972
2474.22529,0.14898
2476.15376,0.15106
2478.08223,0.15315
2480.01070,0.15247
2481.93916,0.15176
2483.86763,0.15380
2485.79610,0.15617
2487.72457,0.15610
2489.65304,0.15399
2491.58151,0.15187
2493.50998,0.15090
2495.43844,0.15103
2497.36691,0.15194
2499.29538,0.15210
2501.22385,0.15061
2503.15232,0.14857
2505.08079,0.14818
2507.00926,0.14980
2508.93773,0.15037
2510.86619,0.14862
2512.79466,0.14847
2514.72313,0.15208
2516.65160,0.15466
2518.58007,0.15439
2520.50854,0.15417
2522.43701,0.15349
2524.36547,0.15263
2526.29394,0.15290
2528.22241,0.15347
2530.15088,0.15396
2532.07935,0.15419
2534.00782,0.15316
2535.93629,0.15073
2537.86476,0.14863
2539.79322,0.14802
2541.72169,0.14850
2543.65016,0.14882
2545.57863,0.14852
2547.50710,0.15003
2549.43557,0.15304
2551.36404,0.15367
2553.29250,0.15333
2555.22097,0.15527
2557.14944,0.15681
2559.07791,0.15460
2561.00638,0.14967
2562.93485,0.14585
2564.86332,0.14539
2566.79179,0.14640
2568.72025,0.14700
2570.64872,0.14711
2572.57719,0.14678
2574.50566,0.14756
2576.43413,0.14921
2578.36260,0.14877
2580.29107,0.14758
2582.21953,0.14915
2584.14800,0.15341
2586.07647,0.15765
2588.00494,0.15870
2589.93341,0.15650
2591.86188,0.15366
2593.79035,0.15288
2595.71882,0.15478
2597.64728,0.15646
2599.57575,0.15568
2601.50422,0.15315
2603.43269,0.15092
2605.36116,0.15061
2607.28963,0.15303
2609.21810,0.15674
2611.14656,0.15851
2613.07503,0.15864
2615.00350,0.15732
2616.93197,0.15403
2618.86044,0.15264
2620.78891,0.15368
2622.71738,0.15311
2624.64585,0.15165
2626.57431,0.15407
2628.50278,0.15909
2630.43125,0.15973
2632.35972,0.15573
2634.28819,0.15195
2636.21666,0.15103
2638.14513,0.15366
2640.07359,0.15648
2642.00206,0.15520
2643.93053,0.15105
2645.85900,0.14832
2647.78747,0.14935
2649.71594,0.15349
2651.64441,0.15678
2653.57288,0.15551
2655.50134,0.15286
2657.42981,0.15479
2659.35828,0.15917
2661.28675,0.16008
2663.21522,0.15724
2665.14369,0.15196
2667.07216,0.14774
2669.00062,0.14896
2670.92909,0.15158
2672.85756,0.15142
2674.78603,0.15152
2676.71450,0.15400
2678.64297,0.15601
2680.57144,0.15524
2682.49990,0.15384
2684.42837,0.15299
2686.35684,0.15147
2688.28531,0.14923
2690.21378,0.14960
2692.14225,0.15497
2694.07072,0.16028
2695.99919,0.16020
2697.92765,0.15700
2699.85612,0.15449
2701.78459,0.15257
2703.71306,0.15240
2705.64153,0.15419
2707.57000,0.15527
2709.49847,0.15621
2711.42693,0.15753
2713.35540,0.15888
2715.28387,0.15981
2717.21234,0.15927
2719.14081,0.15900
2721.06928,0.16018
2722.99775,0.16047
2724.92622,0.15881
2726.85468,0.15842
2728.78315,0.16034
2730.71162,0.16138
2732.64009,0.16055
2734.56856,0.15790
2736.49703,0.15398
2738.42550,0.15185
2740.35396,0.15168
2742.28243,0.15247
2744.21090,0.15531
2746.13937,0.15738
2748.06784,0.15632
2749.99631,0.15370
2751.92478,0.15050
2753.85325,0.14991
2755.78171,0.15452
2757.71018,0.16023
2759.63865,0.16159
2761.56712,0.15946
2763.49559,0.15718
2765.42406,0.15675
2767.35253,0.16056
2769.28099,0.16564
2771.20946,0.16563
2773.13793,0.16125
2775.06640,0.15879
2776.99487,0.15955
2778.92334,0.16017
2780.85181,0.16082
2782.78028,0.16187
2784.70874,0.16071
2786.63721,0.15707
2788.56568,0.15405
2790.49415,0.15342
2792.42262,0.15300
2794.35109,0.15199
2796.27956,0.15341
2798.20802,0.15647
2800.13649,0.15627
2802.06496,0.15348
2803.99343,0.15177
2805.92190,0.15093
2807.85037,0.15179
2809.77884,0.15634
2811.70731,0.16179
2813.63577,0.16517
2815.56424,0.16564
2817.49271,0.16346
2819.42118,0.16147
2821.34965,0.15987
2823.27812,0.15862
2825.20659,0.16025
2827.13505,0.16131
2829.06352,0.15887
2830.99199,0.15885
2832.92046,0.16373
2834.84893,0.16659
2836.77740,0.16292
2838.70587,0.15878
2840.63433,0.16134
2842.56280,0.16471
2844.49127,0.16159
2846.41974,0.15674
2848.34821,0.15438
2850.27668,0.15256
2852.20515,0.15041
2854.13362,0.15007
2856.06208,0.15175
2857.99055,0.15288
2859.91902,0.15416
2861.84749,0.15730
2863.77596,0.16012
2865.70443,0.16146
2867.63290,0.16369
2869.56136,0.16552
2871.48983,0.16250
2873.41830,0.15659
2875.34677,0.15402
2877.27524,0.15607
2879.20371,0.16074
2881.13218,0.16530
2883.06065,0.16560
2884.98911,0.16470
2886.91758,0.16571
2888.84605,0.16353
2890.77452,0.15868
2892.70299,0.15450
2894.63146,0.15117
2896.55993,0.15146
2898.48839,0.15475
2900.41686,0.15706
2902.34533,0.15693
2904.27380,0.15477
2906.20227,0.15326
2908.13074,0.15519
2910.05921,0.15836
2911.98768,0.15770
2913.91614,0.15144
2915.84461,0.14424
2917.77308,0.14243
2919.70155,0.14569
2921.63002,0.15079
2923.55849,0.15040
2925.48696,0.14416
2927.41542,0.14987
2929.34389,0.16026
2931.27236,0.15384
2933.20083,0.14419
2935.12930,0.14087
2937.05777,0.13845
2938.98624,0.14389
2940.91471,0.15439
2942.84317,0.16110
2944.77164,0.16214
2946.70011,0.15539
2948.62858,0.14905
2950.55705,0.15239
2952.48552,0.15927
2954.41399,0.15851
2956.34245,0.14883
2958.27092,0.14484
2960.19939,0.15343
2962.12786,0.16207
2964.05633,0.16294
2965.98480,0.15710
2967.91327,0.15108
2969.84174,0.15317
2971.77020,0.15791
2973.69867,0.15821
2975.62714,0.15604
2977.55561,0.15325
2979.48408,0.15396
2981.41255,0.15945
2983.34102,0.16388
2985.26948,0.16406
2987.19795,0.15999
2989.12642,0.15710
2991.05489,0.16198
2992.98336,0.16859
2994.91183,0.16873
2996.84030,0.16282
2998.76877,0.15694
3000.69723,0.15786
3002.62570,0.16260
3004.55417,0.16391
3006.48264,0.16106
3008.41111,0.15550
3010.33958,0.14626
3012.26805,0.12956
3014.19651,0.10471
3016.12498,0.08825
3018.05345,0.10184
3019.98192,0.13568
3021.91039,0.16157
3023.83886,0.16812
3025.76733,0.16183
3027.69579,0.15972
3029.62426,0.16752
3031.55273,0.17248
3033.48120,0.16965
3035.40967,0.16578
3037.33814,0.16415
3039.26661,0.16599
3041.19508,0.17059
3043.12354,0.17359
3045.05201,0.17127
3046.98048,0.16272
3048.90895,0.15657
3050.83742,0.16054
3052.76589,0.16754
3054.69436,0.16793
3056.62282,0.16144
3058.55129,0.15857
3060.47976,0.16222
3062.40823,0.16222
3064.33670,0.15453
3066.26517,0.14673
3068.19364,0.14940
3070.12211,0.15702
3072.05057,0.15705
3073.97904,0.15180
3075.90751,0.14889
3077.83598,0.15116
3079.76445,0.15658
3081.69292,0.15778
3083.62139,0.14142
3085.54985,0.11516
3087.47832,0.10949
3089.40679,0.12878
3091.33526,0.14803
3093.26373,0.14994
3095.19220,0.14736
3097.12067,0.15506
3099.04914,0.16277
3100.97760,0.16050
3102.90607,0.15002
3104.83454,0.14697
3106.76301,0.15930
3108.69148,0.16797
3110.61995,0.15920
3112.54842,0.14737
3114.47688,0.15259
3116.40535,0.16659
3118.33382,0.17092
3120.26229,0.16665
3122.19076,0.16305
3124.11923,0.16382
3126.04770,0.16588
3127.97617,0.16599
3129.90463,0.16239
3131.83310,0.15887
3133.76157,0.16191
3135.69004,0.17002
3137.61851,0.17663
3139.54698,0.17647
3141.47545,0.17206
3143.40391,0.16960
3145.33238,0.16967
3147.26085,0.17003
3149.18932,0.17055
3151.11779,0.17192
3153.04626,0.17173
3154.97473,0.16960
3156.90320,0.16879
3158.83166,0.16839
3160.76013,0.16847
3162.68860,0.17277
3164.61707,0.17747
3166.54554,0.17591
3168.47401,0.17093
3170.40248,0.16681
3172.33094,0.16223
3174.25941,0.15922
3176.18788,0.16271
3178.11635,0.17072
3180.04482,0.17442
3181.97329,0.17161
3183.90176,0.17046
3185.83022,0.17256
3187.75869,0.17322
3189.68716,0.17456
3191.61563,0.17872
3193.54410,0.17973
3195.47257,0.17398
3197.40104,0.17009
3199.32951,0.17341
3201.25797,0.17628
3203.18644,0.17241
3205.11491,0.16553
3207.04338,0.16364
3208.97185,0.16722
3210.90032,0.17239
3212.82879,0.17872
3214.75725,0.18181
3216.68572,0.17724
3218.61419,0.16968
3220.54266,0.16665
3222.47113,0.17092
3224.39960,0.17440
3226.32807,0.16864
3228.25654,0.15810
3230.18500,0.15189
3232.11347,0.15451
3234.04194,0.15934
3235.97041,0.15930
3237.89888,0.15868
3239.82735,0.16332
3241.75582,0.17677
3243.68428,0.19202
3245.61275,0.20063
3247.54122,0.19987
3249.46969,0.18334
3251.39816,0.16629
3253.32663,0.16636
3255.25510,0.17132
3257.18357,0.17215
3259.11203,0.17287
3261.04050,0.17252
3262.96897,0.16740
3264.89744,0.16310
3266.82591,0.16435
3268.75438,0.16559
3270.68285,0.16514
3272.61131,0.16468
3274.53978,0.16438
3276.46825,0.16486
3278.39672,0.16688
3280.32519,0.16979
3282.25366,0.17295
3284.18213,0.17684
3286.11060,0.17685
3288.03906,0.17026
3289.96753,0.16332
3291.89600,0.15993
3293.82447,0.15984
3295.75294,0.16275
3297.68141,0.16579
3299.60988,0.16808
3301.53834,0.16991
3303.46681,0.16902
3305.39528,0.16543
3307.32375,0.16285
3309.25222,0.16484
3311.18069,0.16625
3313.10916,0.16207
3315.03763,0.15755
3316.96609,0.15718
3318.89456,0.15989
3320.82303,0.16058
3322.75150,0.16143
3324.67997,0.16641
3326.60844,0.16812
3328.53691,0.16760
3330.46537,0.17133
3332.39384,0.17431
3334.32231,0.17374
3336.25078,0.17199
3338.17925,0.16829
3340.10772,0.16437
3342.03619,0.16377
3343.96466,0.16416
3345.89312,0.16234
3347.82159,0.15955
3349.75006,0.15874
3351.67853,0.16232
3353.60700,0.16780
3355.53547,0.16924
3357.46394,0.16845
3359.39240,0.17112
3361.32087,0.17267
3363.24934,0.16931
3365.17781,0.16820
3367.10628,0.17149
3369.03475,0.17392
3370.96322,0.17160
3372.89168,0.16310
3374.82015,0.15598
3376.74862,0.15641
3378.67709,0.15839
3380.60556,0.15806
3382.53403,0.15847
3384.46250,0.16314
3386.39097,0.16853
3388.31943,0.16763
3390.24790,0.16235
3392.17637,0.15822
3394.10484,0.15727
3396.03331,0.16125
3397.96178,0.16975
3399.89025,0.16732
3401.81871,0.14434
3403.74718,0.12906
3405.67565,0.14231
3407.60412,0.16010
3409.53259,0.16484
3411.46106,0.16706
3413.38953,0.17069
3415.31800,0.16982
3417.24646,0.16536
3419.17493,0.16293
3421.10340,0.16280
3423.03187,0.16326
3424.96034,0.16417
3426.88881,0.16243
3428.81728,0.15814
3430.74574,0.15523
3432.67421,0.15340
3434.60268,0.14987
3436.53115,0.14902
3438.45962,0.15668
3440.38809,0.16560
3442.31656,0.16648
3444.24503,0.16221
3446.17349,0.16158
3448.10196,0.16542
3450.03043,0.16565
3451.95890,0.16224
3453.88737,0.15889
3455.81584,0.15575
3457.74431,0.15499
3459.67277,0.15651
3461.60124,0.15771
3463.52971,0.15688
3465.45818,0.15422
3467.38665,0.15289
3469.31512,0.15261
3471.24359,0.14959
3473.17206,0.14374
3475.10052,0.14100
3477.02899,0.14474
3478.95746,0.14789
3480.88593,0.14439
3482.81440,0.13955
3484.74287,0.14009
3486.67134,0.14246
3488.59980,0.14323
3490.52827,0.14708
3492.45674,0.15423
3494.38521,0.15818
3496.31368,0.15650
3498.24215,0.15151
3500.17062,0.14785
3502.09909,0.14846
3504.02755,0.14727
3505.95602,0.14211
3507.88449,0.14072
3509.81296,0.14274
3511.74143,0.14190
3513.66990,0.13748
3515.59837,0.13241
3517.52683,0.13038
3519.45530,0.13291
3521.38377,0.13765
3523.31224,0.14016
3525.24071,0.13968
3527.16918,0.14009
3529.09765,0.14032
3531.02611,0.13790
3532.95458,0.13378
3534.88305,0.13022
3536.81152,0.13121
3538.73999,0.13449
3540.66846,0.13529
3542.59693,0.13518
3544.52540,0.13529
3546.45386,0.13524
3548.38233,0.13512
3550.31080,0.13487
3552.23927,0.13401
3554.16774,0.13204
3556.09621,0.13016
3558.02468,0.12649
3559.95314,0.12362
3561.88161,0.12910
3563.81008,0.13560
3565.73855,0.13736
3567.66702,0.13999
3569.59549,0.13706
3571.52396,0.13106
3573.45243,0.12857
3575.38089,0.12665
3577.30936,0.12445
3579.23783,0.12401
3581.16630,0.12575
3583.09477,0.12981
3585.02324,0.13458
3586.95171,0.13438
3588.88017,0.12833
3590.80864,0.12576
3592.73711,0.12621
3594.66558,0.12636
3596.59405,0.12678
3598.52252,0.12523
3600.45099,0.12064
3602.37946,0.11892
3604.30792,0.12275
3606.23639,0.13047
3608.16486,0.13911
3610.09333,0.13825
3612.02180,0.12579
3613.95027,0.11467
3615.87874,0.11365
3617.80720,0.11835
3619.73567,0.12439
3621.66414,0.12637
3623.59261,0.12307
3625.52108,0.11896
3627.44955,0.11858
3629.37802,0.12646
3631.30649,0.13395
3633.23495,0.13394
3635.16342,0.12977
3637.09189,0.12493
3639.02036,0.12361
3640.94883,0.12711
3642.87730,0.13270
3644.80577,0.13936
3646.73423,0.14464
3648.66270,0.14303
3650.59117,0.13402
3652.51964,0.12613
3654.44811,0.12316
3656.37658,0.12259
3658.30505,0.12012
3660.23352,0.11492
3662.16198,0.10902
3664.09045,0.10728
3666.01892,0.11178
3667.94739,0.12224
3669.87586,0.13388
3671.80433,0.13336
3673.73280,0.12846
3675.66126,0.12519
3677.58973,0.11816
3679.51820,0.11281
3681.44667,0.11241
3683.37514,0.11241
3685.30361,0.10939
3687.23208,0.10687
3689.16055,0.10888
3691.08901,0.10872
3693.01748,0.10375
3694.94595,0.10309
3696.87442,0.10846
3698.80289,0.11473
3700.73136,0.11963
3702.65983,0.12183
3704.58829,0.12142
3706.51676,0.12124
3708.44523,0.12177
3710.37370,0.12167
3712.30217,0.11790
3714.23064,0.11681
3716.15911,0.14355
3718.08757,0.20132
3720.01604,0.24730
3721.94451,0.24243
3723.87298,0.18656
3725.80145,0.12766
3727.72992,0.11708
3729.65839,0.12425
3731.58686,0.12007
3733.51532,0.11091
3735.44379,0.10491
3737.37226,0.11052
3739.30073,0.11505
3741.22920,0.11270
3743.15767,0.10880
3745.08614,0.11143
3747.01460,0.12067
3748.94307,0.12968
3750.87154,0.13613
3752.80001,0.13134
3754.72848,0.12162
3756.65695,0.11463
3758.58542,0.11043
3760.51389,0.10682
3762.44235,0.10466
3764.37082,0.10545
3766.29929,0.10728
3768.22776,0.10644
3770.15623,0.10323
3772.08470,0.09963
3774.01317,0.09585
3775.94163,0.09453
3777.87010,0.09875
3779.79857,0.10349
3781.72704,0.10099
3783.65551,0.09740
3785.58398,0.09698
3787.51245,0.09821
3789.44092,0.10197
3791.36938,0.10387
3793.29785,0.10230
3795.22632,0.10285
3797.15479,0.10289
3799.08326,0.09950
3801.01173,0.10250
3802.94020,0.11270
3804.86866,0.11511
3806.79713,0.10979
3808.72560,0.10703
3810.65407,0.11080
3812.58254,0.11464
3814.51101,0.11537
3816.43948,0.11225
3818.36795,0.10879
3820.29641,0.11203
3822.22488,0.11631
3824.15335,0.11112
3826.08182,0.10508
3828.01029,0.10426
3829.93876,0.10521
3831.86723,0.10695
3833.79569,0.11247
3835.72416,0.11938
3837.65263,0.12005
3839.58110,0.11269
3841.50957,0.10779
3843.43804,0.10729
3845.36651,0.10717
3847.29498,0.10641
3849.22344,0.10469
3851.15191,0.10045
3853.08038,0.10017
3855.00885,0.11059
3856.93732,0.11117
3858.86579,0.10568
3860.79426,0.10557
3862.72272,0.11119
3864.65119,0.11243
3866.57966,0.10855
3868.50813,0.10666
3870.43660,0.10783
3872.36507,0.10619
3874.29354,0.09349
3876.22200,0.08070
3878.15047,0.08170
3880.07894,0.09208
3882.00741,0.10657
3883.93588,0.11643
3885.86435,0.11174
3887.79282,0.10618
3889.72129,0.10902
3891.64975,0.10804
3893.57822,0.10084
3895.50669,0.09801
3897.43516,0.10223
3899.36363,0.10684
3901.29210,0.10187
3903.22057,0.09333
3905.14903,0.09101
3907.07750,0.09172
3909.00597,0.09435
3910.93444,0.09782
3912.86291,0.09634
3914.79138,0.09405
3916.71985,0.09874
3918.64832,0.10320
3920.57678,0.10307
3922.50525,0.10154
3924.43372,0.09670
3926.36219,0.09308
3928.29066,0.09297
3930.21913,0.09291
3932.14760,0.09579
3934.07606,0.10002
3936.00453,0.10136
3937.93300,0.10054
3939.86147,0.09609
3941.78994,0.08993
3943.71841,0.08811
3945.64688,0.08912
3947.57535,0.08983
3949.50381,0.09246
3951.43228,0.09380
3953.36075,0.08966
3955.28922,0.08680
3957.21769,0.08953
3959.14616,0.09292
3961.07463,0.09578
3963.00309,0.09825
3964.93156,0.09604
3966.86003,0.09061
3968.78850,0.08731
3970.71697,0.08607
3972.64544,0.08657
3974.57391,0.08873
3976.50238,0.08920
3978.43084,0.08567
3980.35931,0.08210
3982.28778,0.08562
3984.21625,0.09480
3986.14472,0.09954
3988.07319,0.09565
3990.00166,0.09181
3991.93012,0.09078
3993.85859,0.08622
3995.78706,0.08332
3997.71553,0.08485
3999.64400,0.08283
4001.57247,0.07832
4003.50094,0.07841
4005.42941,0.08112
4007.35787,0.08176
4009.28634,0.08153
4011.21481,0.08206
4013.14328,0.08417
4015.07175,0.08821
4017.00022,0.09094
4018.92869,0.09023
4020.85715,0.09050
4022.78562,0.09529
4024.71409,0.09776
4026.64256,0.09063
4028.57103,0.08367
4030.49950,0.08324
4032.42797,0.07946
4034.35644,0.07895
4036.28490,0.08837
4038.21337,0.08881
4040.14184,0.07912
4042.07031,0.07741
4043.99878,0.07903
4045.92725,0.07365
4047.85572,0.06976
4049.78418,0.07195
4051.71265,0.07389
4053.64112,0.07383
4055.56959,0.07355
4057.49806,0.07334
4059.42653,0.07476
4061.35500,0.07833
4063.28346,0.08152
4065.21193,0.08209
4067.14040,0.07894
4069.06887,0.07823
4070.99734,0.08441
4072.92581,0.09060
4074.85428,0.09368
4076.78275,0.09461
4078.71121,0.09011
4080.63968,0.08199
4082.56815,0.07722
4084.49662,0.07791
4086.42509,0.08231
4088.35356,0.08567
4090.28203,0.08426
4092.21049,0.08164
4094.13896,0.08081
4096.06743,0.08074
4097.99590,0.07964
4099.92437,0.07675
4101.85284,0.07590
4103.78131,0.07702
4105.70978,0.07415
4107.63824,0.06944
4109.56671,0.06761
4111.49518,0.06800
4113.42365,0.06574
4115.35212,0.05903
4117.28059,0.05997
4119.20906,0.07314
4121.13752,0.08381
4123.06599,0.08233
4124.99446,0.07302
4126.92293,0.06723
4128.85140,0.07180
4130.77987,0.07728
4132.70834,0.07416
4134.63681,0.06777
4136.56527,0.06528
4138.49374,0.06671
4140.42221,0.06830
4142.35068,0.06933
4144.27915,0.07256
4146.20762,0.07721
4148.13609,0.07869
4150.06455,0.07603
4151.99302,0.07131
4153.92149,0.06708
4155.84996,0.06778
4157.77843,0.06954
4159.70690,0.06893
4161.63537,0.07216
4163.56384,0.07583
4165.49230,0.07395
4167.42077,0.07012
4169.34924,0.06869
4171.27771,0.07130
4173.20618,0.07638
4175.13465,0.07828
4177.06312,0.07326
4178.99158,0.06555
4180.92005,0.06371
4182.84852,0.06709
4184.77699,0.06545
4186.70546,0.06065
4188.63393,0.06033
4190.56240,0.06060
4192.49087,0.05746
4194.41933,0.05133
4196.34780,0.04635
4198.27627,0.05280
4200.20474,0.07085
4202.13321,0.08202
4204.06168,0.07997
4205.99015,0.07646
4207.91861,0.07219
4209.84708,0.06598
4211.77555,0.06568
4213.70402,0.06924
4215.63249,0.06856
4217.56096,0.06732
4219.48943,0.07133
4221.41789,0.07467
4223.34636,0.07443
4225.27483,0.07460
4227.20330,0.07255
4229.13177,0.06951
4231.06024,0.07144
4232.98871,0.07545
4234.91718,0.07598
4236.84564,0.07102
4238.77411,0.06366
4240.70258,0.05741
4242.63105,0.05197
4244.55952,0.04956
4246.48799,0.05160
4248.41646,0.05642
4250.34492,0.06451
4252.27339,0.06970
4254.20186,0.06416
4256.13033,0.05846
4258.05880,0.05998
4259.98727,0.05859
4261.91574,0.05448
4263.84421,0.05487
4265.77267,0.05634
4267.70114,0.05542
4269.62961,0.04944
4271.55808,0.03454
4273.48655,0.02243
4275.41502,0.02677
4277.34349,0.04009
4279.27195,0.04734
4281.20042,0.04626
4283.12889,0.04787
4285.05736,0.05468
4286.98583,0.05877
4288.91430,0.05942
4290.84277,0.06054
4292.77124,0.06169
4294.69970,0.05802
4296.62817,0.05129
4298.55664,0.05151
4300.48511,0.05928
4302.41358,0.06383
4304.34205,0.06234
4306.27052,0.06097
4308.19898,0.05769
4310.12745,0.04895
4312.05592,0.04533
4313.98439,0.05312
4315.91286,0.06120
4317.84133,0.06229
4319.76980,0.05820
4321.69827,0.04960
4323.62673,0.04325
4325.55520,0.04663
4327.48367,0.05070
4329.41214,0.04811
4331.34061,0.04555
4333.26908,0.04465
4335.19755,0.04287
4337.12601,0.03998
4339.05448,0.03734
4340.98295,0.03970
4342.91142,0.04987
4344.83989,0.05984
4346.76836,0.05591
4348.69683,0.04265
4350.62530,0.03529
4352.55376,0.03372
4354.48223,0.03226
4356.41070,0.03494
4358.33917,0.04208
4360.26764,0.04305
4362.19611,0.03810
4364.12458,0.03665
4366.05304,0.04018
4367.98151,0.04592
4369.90998,0.04847
4371.83845,0.04681
4373.76692,0.04691
4375.69539,0.04789
4377.62386,0.04585
4379.55232,0.04068
4381.48079,0.03253
4383.40926,0.02828
4385.33773,0.03316
4387.26620,0.04009
4389.19467,0.04272
4391.12314,0.03848
4393.05161,0.03353
4394.98007,0.03730
4396.90854,0.04297
4398.83701,0.04359
4400.76548,0.04003
4402.69395,0.03222
4404.62242,0.02840
4406.55089,0.03525
4408.47935,0.04302
4410.40782,0.04300
4412.33629,0.03862
4414.26476,0.03367
4416.19323,0.03262
4418.12170,0.03828
4420.05017,0.04609
4421.97864,0.05178
4423.90710,0.04960
4425.83557,0.03826
4427.76404,0.02968
4429.69251,0.03301
4431.62098,0.04383
4433.54945,0.04994
4435.47792,0.04424
4437.40638,0.03383
4439.33485,0.03031
4441.26332,0.03863
4443.19179,0.05188
4445.12026,0.05628
4447.04873,0.04762
4448.97720,0.03632
4450.90567,0.03087
4452.83413,0.02867
4454.76260,0.02987
4456.69107,0.03339
4458.61954,0.03067
4460.54801,0.02433
4462.47648,0.02424
4464.40495,0.03049
4466.33341,0.03621
4468.26188,0.03885
4470.19035,0.03970
4472.11882,0.03571
4474.04729,0.02689
4475.97576,0.01987
4477.90423,0.01628
4479.83270,0.01261
4481.76116,0.00935
4483.68963,0.00848
4485.61810,0.01107
4487.54657,0.01707
4489.47504,0.02174
4491.40351,0.02272
4493.33198,0.01913
4495.26044,0.01187
4497.18891,0.01108
4499.11738,0.02158
4501.04585,0.03350
4502.97432,0.03708
4504.90279,0.03596
4506.83126,0.04218
4508.75973,0.05916
4510.68819,0.07676
4512.61666,0.08199
4514.54513,0.06412
4516.47360,0.02682
4518.40207,0.00220
4520.33054,0.00715
4522.25901,0.01771
4524.18747,0.02103
4526.11594,0.02649
4528.04441,0.03370
4529.97288,0.03239
4531.90135,0.02087
4533.82982,0.00798
4535.75829,0.00196
4537.68676,0.00374
4539.61522,0.00764
4541.54369,0.01098
4543.47216,0.01409
4545.40063,0.01468
4547.32910,0.01060
4549.25757,0.00537
4551.18604,0.00454
4553.11450,0.00920
4555.04297,0.01298
4556.97144,0.00910
4558.89991,0.00668
4560.82838,0.01245
4562.75685,0.01818
4564.68532,0.02120
4566.61378,0.02478
4568.54225,0.02462
4570.47072,0.01709
4572.39919,0.01465
4574.32766,0.02006
4576.25613,0.01801
4578.18460,0.00866
4580.11307,0.00387
4582.04153,0.00704
4583.97000,0.01575
4585.89847,0.02632
4587.82694,0.03283
4589.75541,0.03423
4591.68388,0.02857
4593.61235,0.01195
4595.54081,0.00210
4597.46928,0.01408
4599.39775,0.02726
4601.32622,0.02325
4603.25469,0.01226
4605.18316,0.00821
4607.11163,0.01219
4609.04010,0.01359
4610.96856,0.00547
4612.89703,0.00130
4614.82550,0.01035
4616.75397,0.01669
4618.68244,0.00903
4620.61091,0.00059
4622.53938,0.00168
4624.46784,0.00478
4626.39631,0.00921
4628.32478,0.02159
4630.25325,0.02944
4632.18172,0.01919
4634.11019,0.00389
4636.03866,-0.00087
4637.96713,0.00235
4639.89559,0.00611
4641.82406,0.00563
4643.75253,0.00396
4645.68100,0.00395
4647.60947,0.00395
4649.53794,0.00755
4651.46641,0.01007
4653.39487,0.00376
4655.32334,-0.00192
4657.25181,0.00107
4659.18028,0.00462
4661.10875,0.00339
4663.03722,0.00349
4664.96569,0.00587
4666.89416,0.00496
4668.82262,0.00021
4670.75109,-0.00612
4672.67956,-0.00860
4674.60803,0.00173
4676.53650,0.01751
4678.46497,0.01759
4680.39344,0.00819
4682.32190,0.00972
4684.25037,0.01521
4686.17884,0.01663
4688.10731,0.01855
4690.03578,0.01910
4691.96425,0.01703
4693.89272,0.01367
4695.82119,0.01031
4697.74965,0.00707
4699.67812,0.00459
4701.60659,0.00581
4703.53506,0.00951
4705.46353,0.01587
4707.39200,0.02314
4709.32047,0.02554
4711.24893,0.02780
4713.17740,0.03377
4715.10587,0.03190
4717.03434,0.02253
4718.96281,0.01861
4720.89128,0.01905
4722.81975,0.02396
4724.74821,0.02877
4726.67668,0.02294
4728.60515,0.01683
4730.53362,0.01412
4732.46209,0.00586
4734.39056,-0.00077
4736.31903,-0.00123
4738.24750,0.00021
4740.17596,0.00733
4742.10443,0.01769
4744.03290,0.02391
4745.96137,0.02314
4747.88984,0.01690
4749.81831,0.02251
4751.74678,0.03817
4753.67524,0.03141
4755.60371,0.00503
4757.53218,-0.00773
4759.46065,-0.00723
4761.38912,-0.00442
4763.31759,0.00303
4765.24606,0.00285
4767.17453,-0.00560
4769.10299,-0.00203
4771.03146,0.01244
4772.95993,0.02178
4774.88840,0.02688
4776.81687,0.03054
4778.74534,0.02079
4780.67381,0.00154
4782.60227,-0.00401
4784.53074,0.00576
4786.45921,0.00844
4788.38768,-0.00025
4790.31615,-0.00523
4792.24462,-0.00295
4794.17309,0.00077
4796.10156,-0.00268
4798.03002,-0.01117
4799.95849,-0.00823
4801.88696,0.00789
4803.81543,0.01823
4805.74390,0.01796
4807.67237,0.02465
4809.60084,0.03534
4811.52930,0.02901
4813.45777,0.01534
4815.38624,0.01354
4817.31471,0.01287
4819.24318,0.00732
4821.17165,0.00924
4823.10012,0.02957
4825.02859,0.04560
4826.95705,0.02075
4828.88552,-0.00861
4830.81399,0.00065
4832.74246,0.01748
4834.67093,0.01358
4836.59940,0.00336
4838.52787,-0.00458
4840.45633,-0.01865
4842.38480,-0.03104
4844.31327,-0.02972
4846.24174,-0.01609
4848.17021,0.00239
4850.09868,0.00909
4852.02715,-0.00273
4853.95562,-0.00934
4855.88408,0.00094
4857.81255,0.00514
4859.74102,-0.00047
4861.66949,0.00606
4863.59796,0.02065
4865.52643,0.02196
4867.45490,0.01419
4869.38336,0.01771
4871.31183,0.02778
4873.24030,0.02837
4875.16877,0.02432
4877.09724,0.01581
4879.02571,-0.00055
4880.95418,-0.00552
4882.88265,0.00634
4884.81111,0.01705
4886.73958,0.01791
4888.66805,0.01242
4890.59652,0.00650
4892.52499,0.00434
4894.45346,0.00654
4896.38193,0.00686
4898.31039,0.00446
4900.23886,0.00412
4902.16733,0.00728
4904.09580,0.02055
4906.02427,0.03687
4907.95274,0.03580
4909.88121,0.01798
4911.80967,0.00255
4913.73814,0.00444
4915.66661,0.01868
4917.59508,0.02755
4919.52355,0.01839
4921.45202,0.00177
4923.38049,0.00582
4925.30896,0.02527
4927.23742,0.03503
4929.16589,0.03554
4931.09436,0.03086
4933.02283,0.02450
4934.95130,0.02194
4936.87977,0.01803
4938.80824,0.01145
4940.73670,0.00816
4942.66517,0.00467
4944.59364,-0.00197
4946.52211,-0.00028
4948.45058,0.00877
4950.37905,0.00828
4952.30752,0.00172
4954.23599,0.00542
4956.16445,0.01231
4958.09292,0.01240
4960.02139,0.00813
4961.94986,-0.00190
4963.87833,-0.00466
4965.80680,0.00939
4967.73527,0.01764
4969.66373,0.01528
4971.59220,0.02209
4973.52067,0.02864
4975.44914,0.01651
4977.37761,-0.00249
4979.30608,-0.01842
4981.23455,-0.02970
4983.16302,-0.00743
4985.09148,0.05161
4987.01995,0.07747
4988.94842,0.03612
4990.87689,-0.01337
4992.80536,-0.01427
4994.73383,0.02190
4996.66230,0.04135
4998.59076,0.02437
5000.51923,0.00207
5002.44770,0.00034
5004.37617,0.00803
5006.30464,0.00733
5008.23311,0.00632
5010.16158,0.00937
5012.09005,0.01413
5014.01851,0.02232
5015.94698,0.02555
5017.87545,0.01702
5019.80392,0.01535
5021.73239,0.02841
5023.66086,0.02680
5025.58933,0.00463
5027.51779,-0.00769
5029.44626,0.00226
5031.37473,0.01834
5033.30320,0.02765
5035.23167,0.02839
5037.16014,0.01633
5039.08861,0.00132
5041.01708,0.00064
5042.94554,0.01302
5044.87401,0.03070
5046.80248,0.04253
5048.73095,0.04175
5050.65942,0.03996
5052.58789,0.04455
5054.51636,0.04545
5056.44482,0.03323
5058.37329,0.01843
5060.30176,0.01172
5062.23023,0.00353
5064.15870,-0.00369
5066.08717,0.00098
5068.01564,0.00757
5069.94410,0.01120
5071.87257,0.02355
5073.80104,0.03934
5075.72951,0.03838
5077.65798,0.02405
5079.58645,0.02083
5081.51492,0.03216
5083.44339,0.04234
5085.37185,0.05203
5087.30032,0.05864
5089.22879,0.05063
5091.15726,0.03886
5093.08573,0.03285
5095.01420,0.02695
5096.94267,0.02139
5098.87113,0.01454
5100.79960,0.01126
5102.72807,0.02236
5104.65654,0.03357
5106.58501,0.03593
5108.51348,0.04103
5110.44195,0.04503
5112.37042,0.03735
5114.29888,0.02424
5116.22735,0.01761
5118.15582,0.02069
5120.08429,0.03039
5122.01276,0.03708
5123.94123,0.03813
5125.86970,0.03252
5127.79816,0.01932
5129.72663,0.01466
5131.65510,0.02277
5133.58357,0.03758
5135.51204,0.04994
5137.44051,0.04256
5139.36898,0.03063
5141.29745,0.05897
5143.22591,0.11534
5145.15438,0.13381
5147.08285,0.10189
5149.01132,0.04929
5150.93979,0.00411
5152.86826,-0.01513
5154.79673,-0.01027
5156.72519,0.00989
5158.65366,0.02241
5160.58213,0.02927
5162.51060,0.04399
5164.43907,0.05018
5166.36754,0.04625
5168.29601,0.04349
5170.22448,0.04288
5172.15294,0.04180
5174.08141,0.03216
5176.00988,0.01954
5177.93835,0.02102
5179.86682,0.03398
5181.79529,0.04400
5183.72376,0.03651
5185.65222,0.01543
5187.58069,0.01387
5189.50916,0.04022
5191.43763,0.06284
5193.36610,0.05152
5195.29457,0.02779
5197.22304,0.03136
5199.15151,0.04623
5201.07997,0.04270
5203.00844,0.03189
5204.93691,0.02076
5206.86538,0.00423
5208.79385,0.01113
5210.72232,0.04303
5212.65079,0.05347
5214.57925,0.03488
5216.50772,0.01871
5218.43619,0.01923
5220.36466,0.02372
5222.29313,0.01525
5224.22160,-0.00273
5226.15007,-0.00266
5228.07854,0.02000
5230.00700,0.03436
5231.93547,0.03306
5233.86394,0.02789
5235.79241,0.02062
5237.72088,0.01769
5239.64935,0.03212
5241.57782,0.05148
5243.50628,0.04610
5245.43475,0.01789
5247.36322,0.00341
5249.29169,0.01312
5251.22016,0.01900
5253.14863,0.01651
5255.07710,0.03041
5257.00556,0.05510
5258.93403,0.05965
5260.86250,0.04250
5262.79097,0.03267
5264.71944,0.04192
5266.64791,0.05251
5268.57638,0.05874
5270.50485,0.06535
5272.43331,0.07337
5274.36178,0.06941
5276.29025,0.04293
5278.21872,0.01618
5280.14719,0.00878
5282.07566,0.01097
5284.00413,0.01450
5285.93259,0.02193
5287.86106,0.02749
5289.78953,0.02624
5291.71800,0.02246
5293.64647,0.01704
5295.57494,0.00803
5297.50341,0.02276
5299.43188,0.08709
5301.36034,0.14017
5303.28881,0.13649
5305.21728,0.12452
5307.14575,0.10678
5309.07422,0.06046
5311.00269,0.04075
5312.93116,0.06756
5314.85962,0.08655
5316.78809,0.07912
5318.71656,0.06014
5320.64503,0.03687
5322.57350,0.02046
5324.50197,0.01057
5326.43044,0.01602
5328.35891,0.04129
5330.28737,0.06121
5332.21584,0.05043
5334.14431,0.01109
5336.07278,-0.00819
5338.00125,0.01425
5339.92972,0.03749
5341.85819,0.04730
5343.78665,0.05806
5345.71512,0.05448
5347.64359,0.04709
5349.57206,0.05305
5351.50053,0.04753
5353.42900,0.03558
5355.35747,0.05227
5357.28594,0.07298
5359.21440,0.06542
5361.14287,0.05495
5363.07134,0.06646
5364.99981,0.06909
5366.92828,0.05128
5368.85675,0.03777
5370.78522,0.03564
5372.71368,0.04723
5374.64215,0.06507
5376.57062,0.07009
5378.49909,0.06087
5380.42756,0.04584
5382.35603,0.02853
5384.28450,0.00406
5386.21297,-0.01277
5388.14143,0.00068
5390.06990,0.02367
5391.99837,0.04627
5393.92684,0.07029
5395.85531,0.08218
5397.78378,0.08297
5399.71225,0.07622
5401.64071,0.05900
5403.56918,0.03559
5405.49765,0.02376
5407.42612,0.04335
5409.35459,0.07662
5411.28306,0.08354
5413.21153,0.07273
5415.13999,0.08600
5417.06846,0.09866
5418.99693,0.07834
5420.92540,0.06170
5422.85387,0.07407
5424.78234,0.08424
5426.71081,0.07519
5428.63928,0.04891
5430.56774,0.02022
5432.49621,0.01910
5434.42468,0.04304
5436.35315,0.05129
5438.28162,0.03700
5440.21009,0.03129
5442.13856,0.04181
5444.06702,0.04532
5445.99549,0.03818
5447.92396,0.04926
5449.85243,0.07820
5451.78090,0.09285
5453.70937,0.08655
5455.63784,0.06210
5457.56631,0.04486
5459.49477,0.06901
5461.42324,0.10410
5463.35171,0.11312
5465.28018,0.10340
5467.20865,0.09968
5469.13712,0.10596
5471.06559,0.09744
5472.99405,0.07372
5474.92252,0.04269
5476.85099,0.01066
5478.77946,-0.00197
5480.70793,0.01762
5482.63640,0.06562
5484.56487,0.09887
5486.49334,0.09274
5488.42180,0.07819
5490.35027,0.06901
5492.27874,0.06730
5494.20721,0.07856
5496.13568,0.07463
5498.06415,0.06602
5499.99262,0.08734
5501.92108,0.11329
5503.84955,0.11549
5505.77802,0.10359
5507.70649,0.08380
5509.63496,0.05878
5511.56343,0.04318
5513.49190,0.04860
5515.42037,0.06705
5517.34883,0.08743
5519.27730,0.09842
5521.20577,0.08870
5523.13424,0.07435
5525.06271,0.08305
5526.99118,0.09499
5528.91965,0.07876
5530.84811,0.04942
5532.77658,0.03015
5534.70505,0.02733
5536.63352,0.04697
5538.56199,0.07408
5540.49046,0.07376
5542.41893,0.05415
5544.34740,0.05696
5546.27586,0.07018
5548.20433,0.06664
5550.13280,0.06642
5552.06127,0.08566
5553.98974,0.11480
5555.91821,0.12781
5557.84668,0.10614
5559.77514,0.07631
5561.70361,0.05570
5563.63208,0.03789
5565.56055,0.04252
5567.48902,0.07736
5569.41749,0.10786
5571.34596,0.10833
5573.27443,0.08228
5575.20289,0.05026
5577.13136,0.03651
5579.05983,0.03769
5580.98830,0.04391
5582.91677,0.05916
5584.84524,0.06993
5586.77371,0.07433
5588.70217,0.07928
5590.63064,0.06603
5592.55911,0.04398
5594.48758,0.03853
5596.41605,0.04135
5598.34452,0.04026
5600.27299,0.03804
5602.20145,0.04602
5604.12992,0.06083
5606.05839,0.06011
5607.98686,0.05316
5609.91533,0.05715
5611.84380,0.06347
5613.77227,0.07710
5615.70074,0.08751
5617.62920,0.07389
5619.55767,0.05997
5621.48614,0.05129
5623.41461,0.02270
5625.34308,0.00853
5627.27155,0.04204
5629.20002,0.05684
5631.12848,0.02755
5633.05695,0.01744
5634.98542,0.03418
5636.91389,0.04677
5638.84236,0.07159
5640.77083,0.10082
5642.69930,0.09624
5644.62777,0.08639
5646.55623,0.10334
5648.48470,0.11676
5650.41317,0.10924
5652.34164,0.07881
5654.27011,0.03315
5656.19858,0.00657
5658.12705,0.01135
5660.05551,0.02195
5661.98398,0.03920
5663.91245,0.07300
5665.84092,0.08142
5667.76939,0.07518
5669.69786,0.09513
5671.62633,0.10722
5673.55480,0.10020
5675.48326,0.10366
5677.41173,0.10719
5679.34020,0.09655
5681.26867,0.08357
5683.19714,0.08147
5685.12561,0.09553
5687.05408,0.11660
5688.98254,0.12644
5690.91101,0.11052
5692.83948,0.07987
5694.76795,0.06078
5696.69642,0.05385
5698.62489,0.05289
5700.55336,0.05727
5702.48183,0.06147
5704.41029,0.08148
5706.33876,0.11763
5708.26723,0.13363
5710.19570,0.11961
5712.12417,0.09069
5714.05264,0.06925
5715.98111,0.07805
5717.90957,0.09341
5719.83804,0.08918
5721.76651,0.07206
5723.69498,0.05259
5725.62345,0.04947
5727.55192,0.07194
5729.48039,0.10147
5731.40886,0.10659
5733.33732,0.08568
5735.26579,0.07714
5737.19426,0.09142
5739.12273,0.08606
5741.05120,0.06412
5742.97967,0.06915
5744.90814,0.08468
5746.83660,0.06858
5748.76507,0.03699
5750.69354,0.02169
5752.62201,0.01606
5754.55048,0.02821
5756.47895,0.07168
5758.40742,0.11724
5760.33588,0.13237
5762.26435,0.11562
5764.19282,0.09258
5766.12129,0.08513
5768.04976,0.09136
5769.97823,0.08499
5771.90670,0.06450
5773.83517,0.07346
5775.76363,0.08866
5777.69210,0.05720
5779.62057,0.03467
5781.54904,0.05845
5783.47751,0.05730
5785.40598,0.03196
5787.33445,0.05822
5789.26291,0.10160
5791.19138,0.08159
5793.11985,0.02843
5795.04832,0.00236
5796.97679,-0.00404
5798.90526,-0.01877
5800.83373,-0.01767
5802.76220,0.03692
5804.69066,0.10197
5806.61913,0.11622
5808.54760,0.10158
5810.47607,0.09974
5812.40454,0.10783
5814.33301,0.10874
5816.26148,0.11180
5818.18994,0.11799
5820.11841,0.10795
5822.04688,0.09345
5823.97535,0.10780
5825.90382,0.12894
5827.83229,0.10692
5829.76076,0.05315
5831.68923,0.01567
5833.61769,0.01048
5835.54616,0.01683
5837.47463,0.02713
5839.40310,0.06419
5841.33157,0.11298
5843.26004,0.13689
5845.18851,0.13001
5847.11697,0.10891
5849.04544,0.10094
5850.97391,0.10579
5852.90238,0.08540
5854.83085,0.05435
5856.75932,0.06610
5858.68779,0.09939
5860.61626,0.11891
5862.54472,0.13069
5864.47319,0.11218
5866.40166,0.07098
5868.33013,0.04543
5870.25860,0.04144
5872.18707,0.06350
5874.11554,0.08361
5876.04400,0.07100
5877.97247,0.06284
5879.90094,0.07502
5881.82941,0.07282
5883.75788,0.07580
5885.68635,0.11248
5887.61482,0.11948
5889.54329,0.07034
5891.47175,0.05262
5893.40022,0.09943
5895.32869,0.14132
5897.25716,0.11394
5899.18563,0.05917
5901.11410,0.07607
5903.04257,0.14612
5904.97103,0.16532
5906.89950,0.13831
5908.82797,0.12461
5910.75644,0.12207
5912.68491,0.11059
5914.61338,0.09836
5916.54185,0.09780
5918.47032,0.10460
5920.39878,0.11713
5922.32725,0.14091
5924.25572,0.15877
5926.18419,0.14063
5928.11266,0.10629
5930.04113,0.09322
5931.96960,0.06142
5933.89806,-0.00642
5935.82653,-0.03507
5937.75500,-0.00494
5939.68347,0.02104
5941.61194,0.02106
5943.54041,0.02941
5945.46888,0.05133
5947.39734,0.07011
5949.32581,0.07694
5951.25428,0.05407
5953.18275,0.02761
5955.11122,0.04187
5957.03969,0.05868
5958.96816,0.03050
5960.89663,0.01005
5962.82509,0.03773
5964.75356,0.06961
5966.68203,0.07266
5968.61050,0.05037
5970.53897,0.02045
5972.46744,0.01422
5974.39591,0.04898
5976.32437,0.08055
5978.25284,0.08005
5980.18131,0.07283
5982.10978,0.06949
5984.03825,0.07357
5985.96672,0.09748
5987.89519,0.11837
5989.82366,0.10467
5991.75212,0.07272
5993.68059,0.05147
5995.60906,0.03757
5997.53753,0.03633
5999.46600,0.06852
6001.39447,0.09849
6003.32294,0.09378
6005.25140,0.09659
6007.17987,0.11788
6009.10834,0.12197
6011.03681,0.10927
6012.96528,0.08713
6014.89375,0.06215
6016.82222,0.04333
6018.75069,0.03059
6020.67915,0.03996
6022.60762,0.04632
6024.53609,0.00919
6026.46456,-0.02364
6028.39303,-0.00105
6030.32150,0.03688
6032.24997,0.04158
6034.17843,0.03654
6036.10690,0.03641
6038.03537,0.02646
6039.96384,0.03177
6041.89231,0.07090
6043.82078,0.11097
6045.74925,0.10704
6047.67772,0.08109
6049.60618,0.09276
6051.53465,0.12143
6053.46312,0.09915
6055.39159,0.02874
6057.32006,0.00094
6059.24853,0.05472
6061.17700,0.09663
6063.10546,0.08795
6065.03393,0.10033
6066.96240,0.10958
6068.89087,0.07103
6070.81934,0.03081
6072.74781,0.02183
6074.67628,0.05908
6076.60475,0.11308
6078.53321,0.12255
6080.46168,0.10755
6082.39015,0.09277
6084.31862,0.08996
6086.24709,0.12887
6088.17556,0.14717
6090.10403,0.10303
6092.03249,0.07831
6093.96096,0.08802
6095.88943,0.08303
6097.81790,0.08273
6099.74637,0.08155
6101.67484,0.04996
6103.60331,0.01549
6105.53177,-0.00364
6107.46024,-0.00546
6109.38871,0.01790
6111.31718,0.04364
6113.24565,0.03126
6115.17412,-0.00419
6117.10259,0.00101
6119.03106,0.06149
6120.95952,0.11208
6122.88799,0.11166
6124.81646,0.09295
6126.74493,0.09863
6128.67340,0.12788
6130.60187,0.15836
6132.53034,0.16219
6134.45880,0.13003
6136.38727,0.09596
6138.31574,0.09716
6140.24421,0.13735
6142.17268,0.16653
6144.10115,0.14257
6146.02962,0.12312
6147.95809,0.13877
6149.88655,0.14043
6151.81502,0.09761
6153.74349,0.04436
6155.67196,0.05021
6157.60043,0.09497
6159.52890,0.12072
6161.45737,0.13742
6163.38583,0.12334
6165.31430,0.07827
6167.24277,0.06265
6169.17124,0.03809
6171.09971,-0.02361
6173.02818,-0.03832
6174.95665,0.00613
6176.88512,0.03880
6178.81358,0.04390
6180.74205,0.04952
6182.67052,0.07074
6184.59899,0.07163
6186.52746,0.02590
6188.45593,0.00477
6190.38440,0.03843
6192.31286,0.04005
6194.24133,0.02924
6196.16980,0.07929
6198.09827,0.12442
6200.02674,0.09661
6201.95521,0.03754
6203.88368,0.01282
6205.81215,0.03928
6207.74061,0.06780
6209.66908,0.08929
6211.59755,0.12205
6213.52602,0.14769
6215.45449,0.14879
6217.38296,0.10538
6219.31143,0.03909
6221.23989,0.00950
6223.16836,0.02846
6225.09683,0.06371
6227.02530,0.09277
6228.95377,0.10712
6230.88224,0.09022
6232.81071,0.04089
6234.73918,0.01476
6236.66764,0.05059
6238.59611,0.10762
6240.52458,0.12533
6242.45305,0.10385
6244.38152,0.07727
6246.30999,0.06036
6248.23846,0.08172
6250.16692,0.15772
6252.09539,0.21444
6254.02386,0.17737
6255.95233,0.09310
6257.88080,0.01978
6259.80927,-0.02706
6261.73774,-0.00729
6263.66621,0.04456
6265.59467,0.05780
6267.52314,0.06610
6269.45161,0.06307
6271.38008,0.05879
6273.30855,0.11830
6275.23702,0.17964
6277.16549,0.16296
6279.09395,0.11992
6281.02242,0.08452
6282.95089,0.04982
6284.87936,0.01667
6286.80783,0.00335
6288.73630,0.04435
6290.66477,0.09924
6292.59323,0.08869
6294.52170,0.05060
6296.45017,0.05007
6298.37864,0.05209
6300.30711,-0.00539
6302.23558,-0.05684
6304.16405,-0.00270
6306.09252,0.05657
6308.02098,0.04136
6309.94945,0.06050
6311.87792,0.12820
6313.80639,0.12610
6315.73486,0.06160
6317.66333,0.01535
6319.59180,0.01016
6321.52026,0.02297
6323.44873,0.03505
6325.37720,0.02888
6327.30567,0.00432
6329.23414,0.01247
6331.16261,0.07531
6333.09108,0.12760
6335.01955,0.09917
6336.94801,0.01945
6338.87648,-0.02178
6340.80495,-0.01583
6342.73342,-0.00185
6344.66189,0.02249
6346.59036,0.05989
6348.51883,0.11039
6350.44729,0.11513
6352.37576,0.03624
6354.30423,0.00415
6356.23270,0.04539
6358.16117,0.06784
6360.08964,0.05208
6362.01811,0.04397
6363.94658,0.06495
6365.87504,0.08711
6367.80351,0.08195
6369.73198,0.03134
6371.66045,-0.03481
6373.58892,-0.04231
6375.51739,-0.02885
6377.44586,-0.03639
6379.37432,-0.00334
6381.30279,0.05366
6383.23126,0.05850
6385.15973,0.03559
6387.08820,0.01187
6389.01667,-0.01799
6390.94514,0.00144
6392.87361,0.10295
6394.80207,0.20169
6396.73054,0.19780
6398.65901,0.10547
6400.58748,-0.00224
6402.51595,-0.01722
6404.44442,0.06819
6406.37289,0.10703
6408.30135,0.03698
6410.22982,-0.01568
6412.15829,-0.00397
6414.08676,0.01703
6416.01523,0.07672
6417.94370,0.13489
6419.87217,0.07753
6421.80064,0.02647
6423.72910,0.07555
6425.65757,0.13420
6427.58604,0.14944
6429.51451,0.13313
6431.44298,0.09339
6433.37145,0.03722
6435.29992,-0.00473
6437.22838,0.01253
6439.15685,0.08994
6441.08532,0.17271
6443.01379,0.17928
6444.94226,0.10325
6446.87073,0.05091
6448.79920,0.06939
6450.72766,0.12421
6452.65613,0.15152
6454.58460,0.11743
6456.51307,0.06031
6458.44154,0.07365
6460.37001,0.15626
6462.29848,0.22878
6464.22695,0.24241
6466.15541,0.17535
6468.08388,0.08032
6470.01235,0.06177
6471.94082,0.11979
6473.86929,0.15173
6475.79776,0.11131
6477.72623,0.04832
6479.65469,0.04206
6481.58316,0.08550
6483.51163,0.08568
6485.44010,0.03612
6487.36857,0.01549
6489.29704,0.02347
6491.22551,-0.00086
6493.15398,0.00226
6495.08244,0.08681
6497.01091,0.16532
6498.93938,0.19196
6500.86785,0.13983
6502.79632,0.03387
6504.72479,-0.00705
6506.65326,0.02488
6508.58172,0.05738
6510.51019,0.06902
6512.43866,0.08005
6514.36713,0.08958
6516.29560,0.09179
6518.22407,0.09931
6520.15254,0.11018
6522.08101,0.10906
6524.00947,0.08893
6525.93794,0.04619
6527.86641,-0.02587
6529.79488,-0.08220
6531.72335,-0.05579
6533.65182,0.01295
6535.58029,0.03669
6537.50875,-0.00020
6539.43722,-0.04169
6541.36569,-0.00322
6543.29416,0.10051
6545.22263,0.16191
6547.15110,0.14799
6549.07957,0.08987
6551.00804,0.04645
6552.93650,0.06214
6554.86497,0.10723
6556.79344,0.13000
6558.72191,0.07500
6560.65038,-0.01373
6562.57885,-0.03510
6564.50732,0.04372
6566.43578,0.19415
6568.36425,0.27327
6570.29272,0.18374
6572.22119,0.00740
6574.14966,-0.10545
6576.07813,-0.10463
6578.00660,-0.04620
6579.93507,0.02291
6581.86353,0.09921
6583.79200,0.16557
6585.72047,0.18179
6587.64894,0.15963
6589.57741,0.13399
6591.50588,0.11643
6593.43435,0.07685
6595.36281,-0.01345
6597.29128,-0.05261
6599.21975,0.01684
6601.14822,0.10304
6603.07669,0.13464
6605.00516,0.14220
6606.93363,0.12840
6608.86210,0.07074
6610.79056,0.00890
6612.71903,-0.00504
6614.64750,0.01381
6616.57597,0.00775
6618.50444,-0.01831
6620.43291,0.01002
6622.36138,0.09376
6624.28984,0.14475
6626.21831,0.12278
6628.14678,0.07458
6630.07525,0.04168
6632.00372,0.03229
6633.93219,0.05138
6635.86066,0.08230
6637.78912,0.06720
6639.71759,0.03082
6641.64606,0.04342
6643.57453,0.08587
6645.50300,0.11481
6647.43147,0.15614
6649.35994,0.17580
6651.28841,0.10778
6653.21687,0.06040
6655.14534,0.11399
6657.07381,0.13737
6659.00228,0.08564
6660.93075,0.05870
6662.85922,0.07813
6664.78769,0.09972
6666.71615,0.07936
6668.64462,0.01383
6670.57309,-0.02379
6672.50156,0.04330
6674.43003,0.11367
6676.35850,0.08942
6678.28697,0.07907
6680.21544,0.14978
6682.14390,0.21580
6684.07237,0.18656
6686.00084,0.05768
6687.92931,-0.04946
6689.85778,0.00313
6691.78625,0.08334
6693.71472,0.05188
6695.64318,-0.00415
6697.57165,-0.00642
6699.50012,0.00334
6701.42859,0.03382
6703.35706,0.08629
6705.28553,0.14193
6707.21400,0.20701
6709.14247,0.18978
6711.07093,0.09147
6712.99940,0.01534
6714.92787,-0.03967
6716.85634,-0.07559
6718.78481,-0.03671
6720.71328,0.04149
6722.64175,0.06463
6724.57021,0.00633
6726.49868,-0.09497
6728.42715,-0.13431
6730.35562,-0.06612
6732.28409,0.00514
6734.21256,0.03148
6736.14103,0.05351
6738.06950,0.09858
6739.99796,0.11334
6741.92643,0.05673
6743.85490,0.02631
6745.78337,0.10351
6747.71184,0.23455
6749.64031,0.25394
6751.56878,0.14672
6753.49724,0.08258
6755.42571,0.09396
6757.35418,0.08597
6759.28265,0.04421
6761.21112,0.01681
6763.13959,-0.00480
6765.06806,-0.03958
6766.99653,-0.07623
6768.92499,-0.10945
6770.85346,-0.14027
6772.78193,-0.16141
6774.71040,-0.14549
6776.63887,-0.08124
6778.56734,-0.01305
6780.49581,0.03522
6782.42427,0.03810
6784.35274,0.00183
6786.28121,0.00884
6788.20968,0.02864
6790.13815,-0.04085
6792.06662,-0.13459
6793.99509,-0.11794
6795.92355,-0.03563
6797.85202,0.02342
6799.78049,0.03700
6801.70896,0.04829
6803.63743,0.08477
6805.56590,0.10173
6807.49437,0.08214
6809.42284,0.05174
6811.35130,0.01213
6813.27977,-0.03706
6815.20824,-0.06166
6817.13671,-0.05531
6819.06518,-0.02022
6820.99365,0.07147
6822.92212,0.15614
6824.85058,0.15993
6826.77905,0.16237
6828.70752,0.16966
6830.63599,0.12968
6832.56446,0.06745
6834.49293,0.03367
6836.42140,0.06246
6838.34987,0.17210
6840.27833,0.28510
6842.20680,0.27074
6844.13527,0.17413
6846.06374,0.13419
6847.99221,0.12612
6849.92068,0.08525
6851.84915,0.05217
6853.77761,-0.00366
6855.70608,-0.07868
6857.63455,-0.06068
6859.56302,-0.00138
6861.49149,0.03350
6863.41996,0.08514
6865.34843,0.14891
6867.27690,0.17872
6869.20536,0.13255
6871.13383,0.00808
6873.06230,-0.08940
6874.99077,-0.06959
6876.91924,-0.00252
6878.84771,0.04815
6880.77618,0.04551
6882.70464,-0.01529
6884.63311,-0.08748
6886.56158,-0.08460
6888.49005,0.00544
6890.41852,0.05890
6892.34699,0.03351
6894.27546,0.02413
6896.20393,0.05999
6898.13239,0.11372
6900.06086,0.14155
6901.98933,0.10523
6903.91780,0.06668
6905.84627,0.11719
6907.77474,0.19620
6909.70321,0.20168
6911.63167,0.13240
6913.56014,0.03511
6915.48861,-0.03445
6917.41708,-0.03015
6919.34555,0.00275
6921.27402,-0.00685
6923.20249,0.02212
6925.13096,0.05160
6927.05942,0.00992
6928.98789,-0.00165
6930.91636,0.00524
6932.84483,-0.06278
6934.77330,-0.08158
6936.70177,-0.03257
6938.63024,0.00719
6940.55870,0.04283
6942.48717,0.07573
6944.41564,0.08116
6946.34411,0.04975
6948.27258,-0.01163
6950.20105,-0.02249
6952.12952,0.07653
6954.05799,0.20430
6955.98645,0.24878
6957.91492,0.21815
6959.84339,0.19586
6961.77186,0.21488
6963.70033,0.22078
6965.62880,0.20404
6967.55727,0.16094
6969.48573,0.04507
6971.41420,-0.00714
6973.34267,0.11825
6975.27114,0.19096
6977.19961,0.14362
6979.12808,0.14394
6981.05655,0.15173
6982.98501,0.07071
6984.91348,-0.01061
6986.84195,0.01969
6988.77042,0.08442
6990.69889,0.09850
6992.62736,0.10176
6994.55583,0.10981
6996.48430,0.11049
6998.41276,0.09559
7000.34123,0.02500
7002.26970,-0.03151
7004.19817,-0.00846
7006.12664,-0.00134
7008.05511,-0.08836
7009.98358,-0.15915
7011.91204,-0.08542
7013.84051,0.06163
7015.76898,0.10427
7017.69745,0.06780
7019.62592,0.02203
7021.55439,-0.03184
7023.48286,-0.07721
7025.41133,-0.04621
7027.33979,0.06284
7029.26826,0.12903
7031.19673,0.08341
7033.12520,0.01463
7035.05367,0.03685
7036.98214,0.14122
7038.91061,0.19008
7040.83907,0.11081
7042.76754,-0.03237
7044.69601,-0.06569
7046.62448,0.03970
7048.55295,0.13930
7050.48142,0.14958
7052.40989,0.12253
7054.33836,0.08370
7056.26682,-0.00812
7058.19529,-0.06925
7060.12376,-0.04049
7062.05223,-0.01518
7063.98070,0.04272
7065.90917,0.11228
7067.83764,0.13151
7069.76610,0.13444
7071.69457,0.06017
7073.62304,-0.07966
7075.55151,-0.13858
7077.47998,-0.09730
7079.40845,0.04160
7081.33692,0.22506
7083.26539,0.28118
7085.19385,0.23155
7087.12232,0.15961
7089.05079,0.09898
7090.97926,0.07616
7092.90773,0.07316
7094.83620,0.06370
7096.76467,0.04526
7098.69313,0.02290
7100.62160,-0.01318
7102.55007,-0.06419
7104.47854,-0.06934
7106.40701,-0.03514
7108.33548,-0.06285
7110.26395,-0.04266
7112.19242,0.13576
7114.12088,0.25766
7116.04935,0.17050
7117.97782,0.11570
7119.90629,0.24503
7121.83476,0.25193
7123.76323,0.11051
7125.69170,0.03885
7127.62016,0.04057
7129.54863,0.03317
7131.47710,0.05462
7133.40557,0.08337
7135.33404,0.06668
7137.26251,0.06025
7139.19098,0.05704
7141.11944,0.00633
7143.04791,-0.02603
7144.97638,-0.01805
7146.90485,0.00802
7148.83332,0.07107
7150.76179,0.14793
7152.69026,0.20762
7154.61873,0.21718
7156.54719,0.18668
7158.47566,0.14385
7160.40413,0.04642
7162.33260,-0.06568
7164.26107,-0.09811
7166.18954,-0.13588
7168.11801,-0.26235
7170.04647,-0.25448
7171.97494,-0.03176
7173.90341,0.07684
7175.83188,-0.05284
7177.76035,-0.19567
7179.68882,-0.12994
7181.61729,0.06613
7183.54576,0.20081
7185.47422,0.23629
7187.40269,0.24775
7189.33116,0.25141
7191.25963,0.23332
7193.18810,0.20753
7195.11657,0.18613
7197.04504,0.12871
7198.97350,0.00219
7200.90197,-0.10542
7202.83044,-0.04079
7204.75891,0.18149
7206.68738,0.29532
7208.61585,0.26766
7210.54432,0.18000
7212.47279,0.07532
7214.40125,0.00443
7216.32972,0.00362
7218.25819,0.01791
7220.18666,-0.08107
7222.11513,-0.15328
7224.04360,-0.04095
7225.97207,0.13346
7227.90053,0.09983
7229.82900,-0.04529
7231.75747,-0.04070
7233.68594,0.05685
7235.61441,0.18582
7237.54288,0.37895
7239.47135,0.39435
7241.39982,0.17598
7243.32828,0.04429
7245.25675,0.12960
7247.18522,0.21897
7249.11369,0.21943
7251.04216,0.13657
7252.97063,0.01696
7254.89910,-0.03739
7256.82756,-0.04971
7258.75603,-0.01037
7260.68450,0.18454
7262.61297,0.41095
7264.54144,0.44668
7266.46991,0.34733
7268.39838,0.22455
7270.32685,0.03053
7272.25531,-0.17048
7274.18378,-0.17835
7276.11225,-0.13542
7278.04072,-0.12870
7279.96919,-0.10587
7281.89766,-0.14196
7283.82613,-0.23534
7285.75459,-0.19743
7287.68306,-0.05016
7289.61153,0.06190
7291.54000,0.11599
7293.46847,0.16018
7295.39694,0.25217
7297.32541,0.30634
7299.25387,0.25560
7301.18234,0.21022
7303.11081,0.23670
7305.03928,0.29287
7306.96775,0.31312
7308.89622,0.15562
7310.82469,-0.14382
7312.75316,-0.24802
7314.68162,-0.09093
7316.61009,0.16184
7318.53856,0.27704
7320.46703,0.27277
7322.39550,0.21422
7324.32397,0.06816
7326.25244,-0.09732
7328.18090,-0.19100
7330.10937,-0.18252
7332.03784,-0.06597
7333.96631,0.08932
7335.89478,0.16797
7337.82325,0.23141
7339.75172,0.27160
7341.68019,0.19627
7343.60865,0.26373
7345.53712,0.33677
7347.46559,0.10867
7349.39406,-0.14993
7351.32253,-0.11452
7353.25100,0.07857
7355.17947,0.18516
7357.10793,0.13196
7359.03640,0.00558
7360.96487,-0.10191
7362.89334,-0.20338
7364.82181,-0.19312
7366.75028,0.00581
7368.67875,0.18820
7370.60722,0.16937
7372.53568,0.08958
7374.46415,0.11814
7376.39262,0.22124
7378.32109,0.23599
7380.24956,0.21613
7382.17803,0.20420
7384.10650,0.23591
7386.03496,0.27144
7387.96343,0.18749
7389.89190,0.10520
7391.82037,0.10053
7393.74884,0.04773
7395.67731,-0.04796
7397.60578,-0.08617
7399.53425,-0.12592
7401.46271,-0.22276
7403.39118,-0.25265
7405.31965,-0.13014
7407.24812,-0.07901
7409.17659,-0.22982
7411.10506,-0.31406
7413.03353,-0.21007
7414.96199,-0.12145
7416.89046,-0.14044
7418.81893,-0.21602
7420.74740,-0.19679
7422.67587,-0.10425
7424.60434,-0.02205
7426.53281,0.02399
7428.46128,-0.06371
7430.38974,-0.18525
7432.31821,-0.14035
7434.24668,-0.03763
7436.17515,0.12401
7438.10362,0.36086
7440.03209,0.51321
7441.96056,0.49005
7443.88902,0.37650
7445.81749,0.21002
7447.74596,-0.01114
7449.67443,-0.07353
7451.60290,0.15651
7453.53137,0.28844
7455.45984,0.20330
7457.38831,0.12505
7459.31677,0.14176
7461.24524,0.18086
7463.17371,0.12882
7465.10218,0.07513
7467.03065,0.11041
7468.95912,0.19028
7470.88759,0.20625
7472.81605,0.10758
7474.74452,0.08512
7476.67299,0.21749
7478.60146,0.37903
7480.52993,0.38393
7482.45840,0.15960
7484.38687,0.00557
7486.31533,0.00035
7488.24380,-0.05359
7490.17227,-0.11725
7492.10074,-0.05615
7494.02921,0.03600
7495.95768,0.03332
7497.88615,-0.06406
