399.19301,6.28260
401.12148,0.11159
403.04995,-0.08194
404.97842,0.07669
406.90689,-0.03229
408.83536,-0.09544
410.76382,0.04914
412.69229,0.13739
414.62076,0.10934
416.54923,0.09737
418.47770,0.07448
420.40617,-0.03080
422.33464,-0.07910
424.26311,-0.09215
426.19157,-0.12753
428.12004,-0.11503
430.04851,-0.02295
431.97698,0.03656
433.90545,0.01486
435.83392,0.01504
437.76239,0.04335
439.69085,0.05478
441.61932,0.08152
443.54779,0.13470
445.47626,0.10022
447.40473,0.03080
449.33320,0.03039
451.26167,0.03350
453.19013,-0.00629
455.11860,-0.05381
457.04707,-0.11449
458.97554,-0.16397
460.90401,-0.09689
462.83248,0.03489
464.76095,0.10471
466.68942,0.09371
468.61788,0.06599
470.54635,0.00472
472.47482,-0.33973
474.40329,-0.82170
476.33176,-0.55402
478.26023,-0.09881
480.18870,0.07312
482.11716,0.07033
484.04563,0.07377
485.97410,0.09561
487.90257,0.09963
489.83104,0.10620
491.75951,0.13845
493.68798,0.14708
495.61645,0.11131
497.54491,0.07389
499.47338,0.03485
501.40185,0.00289
503.33032,0.01856
505.25879,0.07265
507.18726,0.09880
509.11573,0.05532
511.04419,0.02130
512.97266,0.05370
514.90113,0.09516
516.82960,0.08845
518.75807,0.07300
520.68654,0.07708
522.61501,0.06137
524.54348,0.03591
526.47194,0.06384
528.40041,0.12508
530.32888,0.13734
532.25735,0.10003
534.18582,0.08185
536.11429,0.10795
538.04276,0.13647
539.97122,0.12843
541.89969,0.10915
543.82816,0.10581
545.75663,0.10015
547.68510,0.09223
549.61357,0.08180
551.54204,-0.01034
553.47051,-0.14790
555.39897,-0.12708
557.32744,0.01835
559.25591,0.08366
561.18438,0.08161
563.11285,0.08018
565.04132,0.07929
566.96979,0.08069
568.89825,0.07881
570.82672,0.07454
572.75519,0.06707
574.68366,0.06157
576.61213,0.08644
578.54060,0.14359
580.46907,0.18349
582.39754,0.17746
584.32600,0.15588
586.25447,0.13907
588.18294,0.11936
590.11141,0.09623
592.03988,0.09805
593.96835,0.13139
595.89682,0.13498
597.82528,0.09875
599.75375,0.08749
601.68222,0.10117
603.61069,0.08790
605.53916,0.05890
607.46763,0.05967
609.39610,0.08659
611.32456,0.10583
613.25303,0.11072
615.18150,0.10315
617.10997,0.08290
619.03844,0.06548
620.96691,0.06476
622.89538,0.07687
624.82385,0.07758
626.75231,0.06489
628.68078,0.07040
630.60925,0.09896
632.53772,0.11933
634.46619,0.11159
636.39466,0.10168
638.32313,0.11026
640.25159,0.11243
642.18006,0.09899
644.10853,0.09203
646.03700,0.09453
647.96547,0.10460
649.89394,0.11750
651.82241,0.11054
653.75088,0.09001
655.67934,0.07838
657.60781,0.07639
659.53628,0.09096
661.46475,0.11236
663.39322,0.11552
665.32169,0.11117
667.25016,0.11965
669.17862,0.13827
671.10709,0.14217
673.03556,0.12886
674.96403,0.11239
676.89250,0.11017
678.82097,0.11555
680.74944,0.11485
682.67791,0.10295
684.60637,0.09093
686.53484,0.09562
688.46331,0.10850
690.39178,0.11389
692.32025,0.11068
694.24872,0.10919
696.17719,0.11110
698.10565,0.10845
700.03412,0.10674
701.96259,0.10751
703.89106,0.10665
705.81953,0.10472
707.74800,0.09637
709.67647,0.08417
711.60494,0.07679
713.53340,0.08126
715.46187,0.10558
717.39034,0.12703
719.31881,0.12280
721.24728,0.11409
723.17575,0.11016
725.10422,0.10524
727.03268,0.10556
728.96115,0.10597
730.88962,0.10857
732.81809,0.11603
734.74656,0.11359
736.67503,0.10423
738.60350,0.10213
740.53197,0.10322
742.46043,0.10386
744.38890,0.11112
746.31737,0.11908
748.24584,0.11301
750.17431,0.09489
752.10278,0.08257
754.03125,0.08375
755.95971,0.09221
757.88818,0.10409
759.81665,0.10806
761.74512,0.10171
763.67359,0.10712
765.60206,0.12516
767.53053,0.12873
769.45900,0.11316
771.38746,0.10300
773.31593,0.10830
775.24440,0.11289
777.17287,0.10833
779.10134,0.10220
781.02981,0.09686
782.95828,0.08830
784.88674,0.08247
786.81521,0.08092
788.74368,0.07842
790.67215,0.08497
792.60062,0.09770
794.52909,0.09879
796.45756,0.09426
798.38602,0.09866
800.31449,0.10400
802.24296,0.09913
804.17143,0.09139
806.09990,0.08852
808.02837,0.09253
809.95684,0.09748
811.88531,0.09838
813.81377,0.10498
815.74224,0.11303
817.67071,0.11214
819.59918,0.10854
821.52765,0.10340
823.45612,0.09895
825.38459,0.10558
827.31305,0.11604
829.24152,0.11897
831.16999,0.11871
833.09846,0.12133
835.02693,0.12480
836.95540,0.12063
838.88387,0.11401
840.81234,0.11020
842.74080,0.10377
844.66927,0.10312
846.59774,0.11218
848.52621,0.11356
850.45468,0.10757
852.38315,0.11255
854.31162,0.12203
856.24008,0.12462
858.16855,0.12048
860.09702,0.10997
862.02549,0.10092
863.95396,0.10150
865.88243,0.12435
867.81090,0.23400
869.73937,0.42439
871.66783,0.46513
873.59630,0.28110
875.52477,0.11864
877.45324,0.08200
879.38171,0.08607
881.31018,0.09309
883.23865,0.10062
885.16711,0.10922
887.09558,0.11849
889.02405,0.12524
890.95252,0.12179
892.88099,0.11078
894.80946,0.10479
896.73793,0.10299
898.66640,0.10177
900.59486,0.10559
902.52333,0.11365
904.45180,0.11731
906.38027,0.11377
908.30874,0.10919
910.23721,0.10992
912.16568,0.11379
914.09414,0.11492
916.02261,0.11497
917.95108,0.12020
919.87955,0.12530
921.80802,0.12053
923.73649,0.10893
925.66496,0.10075
927.59343,0.10186
929.52189,0.10849
931.45036,0.11441
933.37883,0.11348
935.30730,0.10739
937.23577,0.10411
939.16424,0.10278
941.09271,0.10137
943.02117,0.09975
944.94964,0.09953
946.87811,0.10091
948.80658,0.09908
950.73505,0.09742
952.66352,0.10204
954.59199,0.10687
956.52045,0.10642
958.44892,0.10811
960.37739,0.11510
962.30586,0.11949
964.23433,0.11580
966.16280,0.11037
968.09127,0.10924
970.01974,0.10743
971.94820,0.10507
973.87667,0.10632
975.80514,0.11000
977.73361,0.11482
979.66208,0.11619
981.59055,0.11420
983.51902,0.11507
985.44748,0.11860
987.37595,0.12173
989.30442,0.12208
991.23289,0.12138
993.16136,0.12167
995.08983,0.11901
997.01830,0.11242
998.94677,0.10490
1000.87523,0.10195
1002.80370,0.10824
1004.73217,0.11813
1006.66064,0.12004
1008.58911,0.11136
1010.51758,0.10679
1012.44605,0.11650
1014.37451,0.12369
1016.30298,0.11813
1018.23145,0.11816
1020.15992,0.12859
1022.08839,0.13213
1024.01686,0.12761
1025.94533,0.12654
1027.87380,0.12727
1029.80226,0.12154
1031.73073,0.11497
1033.65920,0.11418
1035.58767,0.11122
1037.51614,0.10583
1039.44461,0.10742
1041.37308,0.11333
1043.30154,0.11547
1045.23001,0.11698
1047.15848,0.12472
1049.08695,0.13308
1051.01542,0.13366
1052.94389,0.12616
1054.87236,0.11639
1056.80083,0.11156
1058.72929,0.11275
1060.65776,0.11921
1062.58623,0.12426
1064.51470,0.11748
1066.44317,0.10809
1068.37164,0.10836
1070.30011,0.11171
1072.22857,0.11339
1074.15704,0.11678
1076.08551,0.12117
1078.01398,0.12211
1079.94245,0.11958
1081.87092,0.11609
1083.79939,0.11186
1085.72786,0.11409
1087.65632,0.12471
1089.58479,0.13083
1091.51326,0.12869
1093.44173,0.12451
1095.37020,0.12153
1097.29867,0.12140
1099.22714,0.12565
1101.15560,0.13236
1103.08407,0.13402
1105.01254,0.13048
1106.94101,0.12717
1108.86948,0.12241
1110.79795,0.12140
1112.72642,0.13073
1114.65489,0.14013
1116.58335,0.14067
1118.51182,0.13433
1120.44029,0.12749
1122.36876,0.12593
1124.29723,0.12470
1126.22570,0.12144
1128.15417,0.12283
1130.08263,0.12728
1132.01110,0.13009
1133.93957,0.13117
1135.86804,0.13193
1137.79651,0.13333
1139.72498,0.12965
1141.65345,0.11767
1143.58191,0.10736
1145.51038,0.10843
1147.43885,0.11565
1149.36732,0.11910
1151.29579,0.12153
1153.22426,0.12567
1155.15273,0.12673
1157.08120,0.12794
1159.00966,0.12967
1160.93813,0.12364
1162.86660,0.11596
1164.79507,0.11560
1166.72354,0.11776
1168.65201,0.12012
1170.58048,0.12252
1172.50894,0.12181
1174.43741,0.12113
1176.36588,0.12508
1178.29435,0.12981
1180.22282,0.13084
1182.15129,0.12841
1184.07976,0.12620
1186.00823,0.13106
1187.93669,0.13731
1189.86516,0.13519
1191.79363,0.12964
1193.72210,0.12439
1195.65057,0.12114
1197.57904,0.12418
1199.50751,0.13014
1201.43597,0.13377
1203.36444,0.13556
1205.29291,0.13538
1207.22138,0.13242
1209.14985,0.13201
1211.07832,0.13571
1213.00679,0.13683
1214.93526,0.13412
1216.86372,0.13161
1218.79219,0.13161
1220.72066,0.13330
1222.64913,0.13173
1224.57760,0.12591
1226.50607,0.12218
1228.43454,0.12420
1230.36300,0.12969
1232.29147,0.13505
1234.21994,0.13559
1236.14841,0.13027
1238.07688,0.12620
1240.00535,0.12676
1241.93382,0.12670
1243.86229,0.12356
1245.79075,0.12223
1247.71922,0.12510
1249.64769,0.12715
1251.57616,0.12485
1253.50463,0.12168
1255.43310,0.12286
1257.36157,0.12582
1259.29003,0.12606
1261.21850,0.12490
1263.14697,0.12495
1265.07544,0.12697
1267.00391,0.12896
1268.93238,0.12940
1270.86085,0.12933
1272.78932,0.13040
1274.71778,0.12895
1276.64625,0.12347
1278.57472,0.12223
1280.50319,0.12622
1282.43166,0.12913
1284.36013,0.13158
1286.28860,0.13108
1288.21706,0.12396
1290.14553,0.11934
1292.07400,0.12200
1294.00247,0.12577
1295.93094,0.12716
1297.85941,0.12572
1299.78788,0.12073
1301.71634,0.10983
1303.64481,0.09875
1305.57328,0.10068
1307.50175,0.11377
1309.43022,0.12310
1311.35869,0.12691
1313.28716,0.12776
1315.21563,0.12379
1317.14409,0.12208
1319.07256,0.12669
1321.00103,0.13224
1322.92950,0.13310
1324.85797,0.12805
1326.78644,0.12071
1328.71491,0.11732
1330.64337,0.11692
1332.57184,0.11723
1334.50031,0.12169
1336.42878,0.12913
1338.35725,0.13618
1340.28572,0.14035
1342.21419,0.16010
1344.14266,0.19468
1346.07112,0.20968
1347.99959,0.19293
1349.92806,0.15640
1351.85653,0.13051
1353.78500,0.12666
1355.71347,0.12560
1357.64194,0.12744
1359.57040,0.13296
1361.49887,0.13589
1363.42734,0.13606
1365.35581,0.13703
1367.28428,0.13882
1369.21275,0.13590
1371.14122,0.13045
1373.06969,0.12904
1374.99815,0.13407
1376.92662,0.14008
1378.85509,0.14191
1380.78356,0.13875
1382.71203,0.13528
1384.64050,0.13636
1386.56897,0.13861
1388.49743,0.13661
1390.42590,0.13307
1392.35437,0.13385
1394.28284,0.13679
1396.21131,0.13629
1398.13978,0.13429
1400.06825,0.13562
1401.99672,0.14013
1403.92518,0.14347
1405.85365,0.14256
1407.78212,0.13910
1409.71059,0.13627
1411.63906,0.13418
1413.56753,0.13388
1415.49600,0.13672
1417.42446,0.14238
1419.35293,0.14729
1421.28140,0.14847
1423.20987,0.14916
1425.13834,0.14826
1427.06681,0.14663
1428.99528,0.14648
1430.92375,0.14580
1432.85221,0.14523
1434.78068,0.14684
1436.70915,0.14794
1438.63762,0.14380
1440.56609,0.13847
1442.49456,0.13594
1444.42303,0.13536
1446.35149,0.13656
1448.27996,0.13937
1450.20843,0.14259
1452.13690,0.14845
1454.06537,0.15560
1455.99384,0.16323
1457.92231,0.16500
1459.85077,0.15335
1461.77924,0.14363
1463.70771,0.14091
1465.63618,0.14228
1467.56465,0.14230
1469.49312,0.14374
1471.42159,0.14835
1473.35006,0.14942
1475.27852,0.14668
1477.20699,0.14418
1479.13546,0.14089
1481.06393,0.13760
1482.99240,0.13599
1484.92087,0.13842
1486.84934,0.14528
1488.77780,0.15033
1490.70627,0.14684
1492.63474,0.14357
1494.56321,0.14598
1496.49168,0.15113
1498.42015,0.15134
1500.34862,0.14564
1502.27709,0.14049
1504.20555,0.13812
1506.13402,0.14259
1508.06249,0.15238
1509.99096,0.14900
1511.91943,0.14393
1513.84790,0.14591
1515.77637,0.15245
1517.70483,0.16052
1519.63330,0.16906
1521.56177,0.17141
1523.49024,0.16459
1525.41871,0.15762
1527.34718,0.15169
1529.27565,0.14731
1531.20412,0.14651
1533.13258,0.14918
1535.06105,0.15237
1536.98952,0.15724
1538.91799,0.16830
1540.84646,0.17411
1542.77493,0.16525
1544.70340,0.15753
1546.63186,0.15241
1548.56033,0.15089
1550.48880,0.15066
1552.41727,0.15201
1554.34574,0.15808
1556.27421,0.16670
1558.20268,0.17682
1560.13115,0.16979
1562.05961,0.15663
1563.98808,0.15224
1565.91655,0.15013
1567.84502,0.14752
1569.77349,0.14756
1571.70196,0.14795
1573.63043,0.14720
1575.55889,0.14824
1577.48736,0.15004
1579.41583,0.14888
1581.34430,0.14425
1583.27277,0.13792
1585.20124,0.13413
1587.12971,0.13293
1589.05818,0.13170
1590.98664,0.13161
1592.91511,0.13339
1594.84358,0.13395
1596.77205,0.13433
1598.70052,0.13681
1600.62899,0.13867
1602.55746,0.13867
1604.48592,0.13725
1606.41439,0.13484
1608.34286,0.13570
1610.27133,0.14184
1612.19980,0.14750
1614.12827,0.14942
1616.05674,0.14829
1617.98521,0.14590
1619.91367,0.14654
1621.84214,0.14923
1623.77061,0.15036
1625.69908,0.15070
1627.62755,0.15080
1629.55602,0.14775
1631.48449,0.14574
1633.41295,0.15156
1635.34142,0.16451
1637.26989,0.16411
1639.19836,0.15388
1641.12683,0.14785
1643.05530,0.14705
1644.98377,0.15416
1646.91223,0.16611
1648.84070,0.16978
1650.76917,0.17317
1652.69764,0.17477
1654.62611,0.15832
1656.55458,0.15108
1658.48305,0.15308
1660.41152,0.15232
1662.33998,0.14448
1664.26845,0.13947
1666.19692,0.14406
1668.12539,0.15574
1670.05386,0.16657
1671.98233,0.16395
1673.91080,0.15670
1675.83926,0.15478
1677.76773,0.15718
1679.69620,0.15993
1681.62467,0.16502
1683.55314,0.17281
1685.48161,0.16733
1687.41008,0.15591
1689.33855,0.15110
1691.26701,0.14935
1693.19548,0.14977
1695.12395,0.15444
1697.05242,0.15938
1698.98089,0.16211
1700.90936,0.16511
1702.83783,0.16458
1704.76629,0.16256
1706.69476,0.15901
1708.62323,0.15323
1710.55170,0.14725
1712.48017,0.14320
1714.40864,0.14646
1716.33711,0.15924
1718.26558,0.16555
1720.19404,0.15889
1722.12251,0.15238
1724.05098,0.15024
1725.97945,0.15035
1727.90792,0.15073
1729.83639,0.15397
1731.76486,0.15956
1733.69332,0.16049
1735.62179,0.15560
1737.55026,0.15369
1739.47873,0.15431
1741.40720,0.15580
1743.33567,0.15890
1745.26414,0.16128
1747.19261,0.16143
1749.12107,0.16203
1751.04954,0.16138
1752.97801,0.15814
1754.90648,0.15551
1756.83495,0.15227
1758.76342,0.14758
1760.69189,0.14458
1762.62035,0.14361
1764.54882,0.14365
1766.47729,0.14487
1768.40576,0.14797
1770.33423,0.15442
1772.26270,0.15823
1774.19117,0.15203
1776.11964,0.14685
1778.04810,0.14928
1779.97657,0.15405
1781.90504,0.15366
1783.83351,0.14996
1785.76198,0.14791
1787.69045,0.14956
1789.61892,0.15386
1791.54738,0.15602
1793.47585,0.15378
1795.40432,0.15232
1797.33279,0.15247
1799.26126,0.15315
1801.18973,0.15225
1803.11820,0.14883
1805.04666,0.14763
1806.97513,0.14933
1808.90360,0.14981
1810.83207,0.14807
1812.76054,0.14679
1814.68901,0.14691
1816.61748,0.15099
1818.54595,0.15535
1820.47441,0.15515
1822.40288,0.16123
1824.33135,0.16601
1826.25982,0.15479
1828.18829,0.14680
1830.11676,0.14793
1832.04523,0.14701
1833.97369,0.14563
1835.90216,0.14692
1837.83063,0.14796
1839.75910,0.14787
1841.68757,0.15106
1843.61604,0.15494
1845.54451,0.15443
1847.47298,0.15273
1849.40144,0.15085
1851.32991,0.14780
1853.25838,0.14466
1855.18685,0.14306
1857.11532,0.14452
1859.04379,0.14935
1860.97226,0.15515
1862.90072,0.15795
1864.82919,0.15684
1866.75766,0.15541
1868.68613,0.15424
1870.61460,0.14951
1872.54307,0.14371
1874.47154,0.14150
1876.40001,0.14272
1878.32847,0.14335
1880.25694,0.14314
1882.18541,0.14379
1884.11388,0.14309
1886.04235,0.14101
1887.97082,0.14163
1889.89929,0.14406
1891.82775,0.14573
1893.75622,0.14877
1895.68469,0.15185
1897.61316,0.15124
1899.54163,0.14802
1901.47010,0.14618
1903.39857,0.14753
1905.32704,0.14909
1907.25550,0.14881
1909.18397,0.14999
1911.11244,0.15193
1913.04091,0.15030
1914.96938,0.14866
1916.89785,0.15007
1918.82632,0.15044
1920.75478,0.14938
1922.68325,0.14940
1924.61172,0.14988
1926.54019,0.15022
1928.46866,0.14998
1930.39713,0.14882
1932.32560,0.14738
1934.25407,0.14741
1936.18253,0.14757
1938.11100,0.14593
1940.03947,0.14660
1941.96794,0.14952
1943.89641,0.14946
1945.82488,0.14821
1947.75335,0.14831
1949.68181,0.14882
1951.61028,0.14940
1953.53875,0.15078
1955.46722,0.15249
1957.39569,0.15245
1959.32416,0.15162
1961.25263,0.15206
1963.18110,0.15217
1965.10956,0.15092
1967.03803,0.14821
1968.96650,0.14437
1970.89497,0.14342
1972.82344,0.14675
1974.75191,0.14934
1976.68038,0.14802
1978.60884,0.14639
1980.53731,0.14698
1982.46578,0.14904
1984.39425,0.15088
1986.32272,0.14956
1988.25119,0.14746
1990.17966,0.14920
1992.10812,0.15360
1994.03659,0.15599
1995.96506,0.15323
1997.89353,0.14884
1999.82200,0.14809
2001.75047,0.15059
2003.67894,0.15296
2005.60741,0.15275
2007.53587,0.15084
2009.46434,0.14986
2011.39281,0.15001
2013.32128,0.15032
2015.24975,0.15096
2017.17822,0.15193
2019.10669,0.15215
2021.03515,0.15118
2022.96362,0.14910
2024.89209,0.14707
2026.82056,0.14655
2028.74903,0.14672
2030.67750,0.14666
2032.60597,0.14647
2034.53444,0.14645
2036.46290,0.14649
2038.39137,0.14559
2040.31984,0.14502
2042.24831,0.14616
2044.17678,0.14765
2046.10525,0.14851
2048.03372,0.14816
2049.96218,0.14773
2051.89065,0.14900
2053.81912,0.15116
2055.74759,0.15070
2057.67606,0.14730
2059.60453,0.14562
2061.53300,0.14498
2063.46147,0.14440
2065.38993,0.14720
2067.31840,0.15155
2069.24687,0.15315
2071.17534,0.15081
2073.10381,0.14696
2075.03228,0.14482
2076.96075,0.14621
2078.88921,0.15038
2080.81768,0.15238
2082.74615,0.15032
2084.67462,0.14816
2086.60309,0.14683
2088.53156,0.14511
2090.46003,0.14688
2092.38850,0.15230
2094.31696,0.15503
2096.24543,0.15409
2098.17390,0.15158
2100.10237,0.14875
2102.03084,0.14852
2103.95931,0.15100
2105.88778,0.15236
2107.81624,0.15095
2109.74471,0.14987
2111.67318,0.15130
2113.60165,0.15252
2115.53012,0.15221
2117.45859,0.15216
2119.38706,0.15191
2121.31553,0.15082
2123.24399,0.15079
2125.17246,0.15209
2127.10093,0.15325
2129.02940,0.15364
2130.95787,0.15226
2132.88634,0.14951
2134.81481,0.14743
2136.74327,0.14631
2138.67174,0.14699
2140.60021,0.15130
2142.52868,0.15544
2144.45715,0.15413
2146.38562,0.15064
2148.31409,0.14956
2150.24255,0.14961
2152.17102,0.14926
2154.09949,0.14873
2156.02796,0.14778
2157.95643,0.14625
2159.88490,0.14562
2161.81337,0.14636
2163.74184,0.14680
2165.67030,0.14724
2167.59877,0.14836
2169.52724,0.14901
2171.45571,0.14886
2173.38418,0.14827
2175.31265,0.14757
2177.24112,0.14689
2179.16958,0.14764
2181.09805,0.14987
2183.02652,0.14988
2184.95499,0.14874
2186.88346,0.15007
2188.81193,0.15141
2190.74040,0.15064
2192.66887,0.14995
2194.59733,0.15152
2196.52580,0.15411
2198.45427,0.15354
2200.38274,0.15039
2202.31121,0.14915
2204.23968,0.14962
2206.16815,0.14950
2208.09661,0.15029
2210.02508,0.15341
2211.95355,0.15540
2213.88202,0.15322
2215.81049,0.14937
2217.73896,0.14771
2219.66743,0.14901
2221.59590,0.15116
2223.52436,0.15185
2225.45283,0.15142
2227.38130,0.15265
2229.30977,0.15493
2231.23824,0.15514
2233.16671,0.15411
2235.09518,0.15333
2237.02364,0.15249
2238.95211,0.15117
2240.88058,0.14966
2242.80905,0.14918
2244.73752,0.14981
2246.66599,0.15146
2248.59446,0.15397
2250.52293,0.15543
2252.45139,0.15468
2254.37986,0.15324
2256.30833,0.15182
2258.23680,0.14932
2260.16527,0.14786
2262.09374,0.14913
2264.02221,0.15062
2265.95067,0.15259
2267.87914,0.15474
2269.80761,0.15313
2271.73608,0.15024
2273.66455,0.15063
2275.59302,0.15121
2277.52149,0.14917
2279.44996,0.14799
2281.37842,0.15005
2283.30689,0.15270
2285.23536,0.15401
2287.16383,0.15445
2289.09230,0.15434
2291.02077,0.15437
2292.94924,0.15616
2294.87770,0.16023
2296.80617,0.16211
2298.73464,0.15705
2300.66311,0.14922
2302.59158,0.14524
2304.52005,0.14568
2306.44852,0.14849
2308.37699,0.15058
2310.30545,0.14994
2312.23392,0.14777
2314.16239,0.14556
2316.09086,0.14439
2318.01933,0.14530
2319.94780,0.14878
2321.87627,0.15031
2323.80473,0.14562
2325.73320,0.14190
2327.66167,0.14166
2329.59014,0.14147
2331.51861,0.14587
2333.44708,0.15393
2335.37555,0.15722
2337.30401,0.15426
2339.23248,0.14889
2341.16095,0.14285
2343.08942,0.13901
2345.01789,0.14059
2346.94636,0.14186
2348.87483,0.14146
2350.80330,0.14449
2352.73176,0.15085
2354.66023,0.15283
2356.58870,0.15504
2358.51717,0.17277
2360.44564,0.18700
2362.37411,0.16660
2364.30258,0.13773
2366.23104,0.12792
2368.15951,0.12388
2370.08798,0.12721
2372.01645,0.14065
2373.94492,0.15348
2375.87339,0.15762
2377.80186,0.15330
2379.73033,0.14802
2381.65879,0.14660
2383.58726,0.14836
2385.51573,0.15168
2387.44420,0.15440
2389.37267,0.15420
2391.30114,0.15217
2393.22961,0.15172
2395.15807,0.15220
2397.08654,0.15100
2399.01501,0.14884
2400.94348,0.14810
2402.87195,0.14978
2404.80042,0.15172
2406.72889,0.15060
2408.65736,0.14773
2410.58582,0.14727
2412.51429,0.14878
2414.44276,0.14836
2416.37123,0.14742
2418.29970,0.15056
2420.22817,0.15563
2422.15664,0.15863
2424.08510,0.15963
2426.01357,0.15821
2427.94204,0.15503
2429.87051,0.15279
2431.79898,0.15118
2433.72745,0.14866
2435.65592,0.14834
2437.58439,0.15114
2439.51285,0.15256
2441.44132,0.15236
2443.36979,0.15158
2445.29826,0.15072
2447.22673,0.15196
2449.15520,0.15316
2451.08367,0.15401
2453.01213,0.15815
2454.94060,0.16046
2456.86907,0.15498
2458.79754,0.14935
2460.72601,0.15042
2462.65448,0.15309
2464.58295,0.15254
2466.51142,0.15024
2468.43988,0.14832
2470.36835,0.14853
2472.29682,0.15057
2474.22529,0.15107
2476.15376,0.15085
2478.08223,0.15214
2480.01070,0.15302
2481.93916,0.15234
2483.86763,0.15090
2485.79610,0.15067
2487.72457,0.15259
2489.65304,0.15392
2491.58151,0.15357
2493.50998,0.15381
2495.43844,0.15385
2497.36691,0.15248
2499.29538,0.15063
2501.22385,0.14855
2503.15232,0.14857
2505.08079,0.15138
2507.00926,0.15338
2508.93773,0.15202
2510.86619,0.14789
2512.79466,0.14630
2514.72313,0.14929
2516.65160,0.15261
2518.58007,0.15659
2520.50854,0.16084
2522.43701,0.15996
2524.36547,0.15467
2526.29394,0.15093
2528.22241,0.15158
2530.15088,0.15298
2532.07935,0.15283
2534.00782,0.15460
2535.93629,0.15674
2537.86476,0.15562
2539.79322,0.15479
2541.72169,0.15635
2543.65016,0.15728
2545.57863,0.15741
2547.50710,0.15692
2549.43557,0.15461
2551.36404,0.15225
2553.29250,0.15114
2555.22097,0.15181
2557.14944,0.15414
2559.07791,0.15404
2561.00638,0.15170
2562.93485,0.15194
2564.86332,0.15341
2566.79179,0.15366
2568.72025,0.15399
2570.64872,0.15311
2572.57719,0.15041
2574.50566,0.14885
2576.43413,0.14917
2578.36260,0.15005
2580.29107,0.15057
2582.21953,0.15156
2584.14800,0.15565
2586.07647,0.16070
2588.00494,0.16203
2589.93341,0.16054
2591.86188,0.15786
2593.79035,0.15423
2595.71882,0.15245
2597.64728,0.15312
2599.57575,0.15455
2601.50422,0.15603
2603.43269,0.15535
2605.36116,0.15188
2607.28963,0.15078
2609.21810,0.15790
2611.14656,0.16444
2613.07503,0.16402
2615.00350,0.16728
2616.93197,0.16762
2618.86044,0.15674
2620.78891,0.14763
2622.71738,0.14644
2624.64585,0.14940
2626.57431,0.15149
2628.50278,0.15161
2630.43125,0.15199
2632.35972,0.15323
2634.28819,0.15456
2636.21666,0.15403
2638.14513,0.15400
2640.07359,0.15533
2642.00206,0.15554
2643.93053,0.15580
2645.85900,0.15661
2647.78747,0.15564
2649.71594,0.15407
2651.64441,0.15532
2653.57288,0.15726
2655.50134,0.15687
2657.42981,0.15518
2659.35828,0.15415
2661.28675,0.15393
2663.21522,0.15346
2665.14369,0.15413
2667.07216,0.15706
2669.00062,0.15754
2670.92909,0.15231
2672.85756,0.14827
2674.78603,0.15144
2676.71450,0.15741
2678.64297,0.15952
2680.57144,0.15782
2682.49990,0.15705
2684.42837,0.15811
2686.35684,0.15613
2688.28531,0.15098
2690.21378,0.14997
2692.14225,0.15463
2694.07072,0.15917
2695.99919,0.16122
2697.92765,0.16211
2699.85612,0.16267
2701.78459,0.16329
2703.71306,0.16308
2705.64153,0.16176
2707.57000,0.16171
2709.49847,0.16277
2711.42693,0.16263
2713.35540,0.16121
2715.28387,0.15858
2717.21234,0.15466
2719.14081,0.15206
2721.06928,0.15277
2722.99775,0.15506
2724.92622,0.15773
2726.85468,0.15943
2728.78315,0.15831
2730.71162,0.15641
2732.64009,0.15552
2734.56856,0.15534
2736.49703,0.15664
2738.42550,0.15896
2740.35396,0.15990
2742.28243,0.15808
2744.21090,0.15591
2746.13937,0.15613
2748.06784,0.15703
2749.99631,0.15746
2751.92478,0.15752
2753.85325,0.15702
2755.78171,0.15690
2757.71018,0.15749
2759.63865,0.15775
2761.56712,0.15551
2763.49559,0.15209
2765.42406,0.15339
2767.35253,0.16143
2769.28099,0.17005
2771.20946,0.17575
2773.13793,0.17792
2775.06640,0.17141
2776.99487,0.16251
2778.92334,0.16013
2780.85181,0.15857
2782.78028,0.15621
2784.70874,0.15668
2786.63721,0.15756
2788.56568,0.15654
2790.49415,0.15582
2792.42262,0.15743
2794.35109,0.16045
2796.27956,0.16316
2798.20802,0.16437
2800.13649,0.16438
2802.06496,0.16258
2803.99343,0.15792
2805.92190,0.15404
2807.85037,0.15610
2809.77884,0.16252
2811.70731,0.16586
2813.63577,0.16289
2815.56424,0.15792
2817.49271,0.15548
2819.42118,0.15599
2821.34965,0.15713
2823.27812,0.15714
2825.20659,0.15691
2827.13505,0.15735
2829.06352,0.15810
2830.99199,0.15931
2832.92046,0.16074
2834.84893,0.16168
2836.77740,0.16191
2838.70587,0.16143
2840.63433,0.16135
2842.56280,0.16112
2844.49127,0.15842
2846.41974,0.15529
2848.34821,0.15722
2850.27668,0.16371
2852.20515,0.16703
2854.13362,0.16473
2856.06208,0.16199
2857.99055,0.16168
2859.91902,0.16264
2861.84749,0.16195
2863.77596,0.15808
2865.70443,0.15450
2867.63290,0.15488
2869.56136,0.15849
2871.48983,0.16202
2873.41830,0.16238
2875.34677,0.16047
2877.27524,0.15956
2879.20371,0.15966
2881.13218,0.16012
2883.06065,0.16162
2884.98911,0.16350
2886.91758,0.16329
2888.84605,0.15973
2890.77452,0.15514
2892.70299,0.15153
2894.63146,0.15076
2896.55993,0.15425
2898.48839,0.15926
2900.41686,0.16382
2902.34533,0.16562
2904.27380,0.16068
2906.20227,0.15382
2908.13074,0.15307
2910.05921,0.15659
2911.98768,0.16014
2913.91614,0.16153
2915.84461,0.15913
2917.77308,0.15756
2919.70155,0.15904
2921.63002,0.15944
2923.55849,0.15595
2925.48696,0.14898
2927.41542,0.14586
2929.34389,0.15062
2931.27236,0.15630
2933.20083,0.15553
2935.12930,0.14962
2937.05777,0.14865
2938.98624,0.15545
2940.91471,0.16053
2942.84317,0.16046
2944.77164,0.15661
2946.70011,0.14769
2948.62858,0.14311
2950.55705,0.15005
2952.48552,0.15671
2954.41399,0.15486
2956.34245,0.14921
2958.27092,0.14760
2960.19939,0.15109
2962.12786,0.15501
2964.05633,0.15970
2965.98480,0.16120
2967.91327,0.15579
2969.84174,0.15282
2971.77020,0.15746
2973.69867,0.16325
2975.62714,0.16243
2977.55561,0.15481
2979.48408,0.15062
2981.41255,0.15618
2983.34102,0.16368
2985.26948,0.16357
2987.19795,0.15907
2989.12642,0.16063
2991.05489,0.16732
2992.98336,0.17071
2994.91183,0.16908
2996.84030,0.16283
2998.76877,0.15574
3000.69723,0.15509
3002.62570,0.15988
3004.55417,0.16176
3006.48264,0.15660
3008.41111,0.14955
3010.33958,0.14420
3012.26805,0.13415
3014.19651,0.11277
3016.12498,0.09294
3018.05345,0.10119
3019.98192,0.13341
3021.91039,0.16075
3023.83886,0.17491
3025.76733,0.17845
3027.69579,0.17552
3029.62426,0.17497
3031.55273,0.17603
3033.48120,0.17504
3035.40967,0.17290
3037.33814,0.17038
3039.26661,0.16852
3041.19508,0.16804
3043.12354,0.17093
3045.05201,0.17472
3046.98048,0.17303
3048.90895,0.16795
3050.83742,0.16471
3052.76589,0.16383
3054.69436,0.16268
3056.62282,0.15964
3058.55129,0.15867
3060.47976,0.16114
3062.40823,0.16192
3064.33670,0.15571
3066.26517,0.14779
3068.19364,0.15121
3070.12211,0.16135
3072.05057,0.16497
3073.97904,0.15988
3075.90751,0.15208
3077.83598,0.15243
3079.76445,0.15909
3081.69292,0.15830
3083.62139,0.14782
3085.54985,0.13921
3087.47832,0.14310
3089.40679,0.15575
3091.33526,0.16191
3093.26373,0.15416
3095.19220,0.14730
3097.12067,0.15412
3099.04914,0.16304
3100.97760,0.16258
3102.90607,0.15686
3104.83454,0.15563
3106.76301,0.16056
3108.69148,0.16332
3110.61995,0.15698
3112.54842,0.14915
3114.47688,0.15580
3116.40535,0.17107
3118.33382,0.17435
3120.26229,0.16429
3122.19076,0.15765
3124.11923,0.16312
3126.04770,0.16955
3127.97617,0.16947
3129.90463,0.16705
3131.83310,0.16495
3133.76157,0.16377
3135.69004,0.16236
3137.61851,0.16179
3139.54698,0.16341
3141.47545,0.16430
3143.40391,0.16361
3145.33238,0.16269
3147.26085,0.16208
3149.18932,0.16393
3151.11779,0.17040
3153.04626,0.17701
3154.97473,0.17557
3156.90320,0.16897
3158.83166,0.16613
3160.76013,0.16364
3162.68860,0.16299
3164.61707,0.17259
3166.54554,0.18156
3168.47401,0.18099
3170.40248,0.17639
3172.33094,0.16999
3174.25941,0.16429
3176.18788,0.16360
3178.11635,0.16867
3180.04482,0.17162
3181.97329,0.16812
3183.90176,0.16760
3185.83022,0.17213
3187.75869,0.17513
3189.68716,0.17699
3191.61563,0.17878
3193.54410,0.17840
3195.47257,0.17716
3197.40104,0.17648
3199.32951,0.17192
3201.25797,0.16527
3203.18644,0.16657
3205.11491,0.17362
3207.04338,0.17573
3208.97185,0.17275
3210.90032,0.16930
3212.82879,0.16646
3214.75725,0.16474
3216.68572,0.16413
3218.61419,0.16459
3220.54266,0.16786
3222.47113,0.17177
3224.39960,0.17022
3226.32807,0.16640
3228.25654,0.16759
3230.18500,0.17066
3232.11347,0.17223
3234.04194,0.17372
3235.97041,0.17339
3237.89888,0.16925
3239.82735,0.16506
3241.75582,0.16158
3243.68428,0.15492
3245.61275,0.15315
3247.54122,0.16061
3249.46969,0.16654
3251.39816,0.16764
3253.32663,0.16688
3255.25510,0.16826
3257.18357,0.17391
3259.11203,0.17768
3261.04050,0.17500
3262.96897,0.16928
3264.89744,0.16645
3266.82591,0.16639
3268.75438,0.16577
3270.68285,0.16356
3272.61131,0.15975
3274.53978,0.15854
3276.46825,0.16259
3278.39672,0.16767
3280.32519,0.17198
3282.25366,0.17659
3284.18213,0.17906
3286.11060,0.17655
3288.03906,0.17051
3289.96753,0.16586
3291.89600,0.16334
3293.82447,0.15907
3295.75294,0.15805
3297.68141,0.16667
3299.60988,0.17642
3301.53834,0.17873
3303.46681,0.17793
3305.39528,0.17878
3307.32375,0.17861
3309.25222,0.17482
3311.18069,0.16905
3313.10916,0.16467
3315.03763,0.16513
3316.96609,0.16914
3318.89456,0.17398
3320.82303,0.17729
3322.75150,0.17743
3324.67997,0.17862
3326.60844,0.18043
3328.53691,0.17824
3330.46537,0.17375
3332.39384,0.17182
3334.32231,0.17422
3336.25078,0.17570
3338.17925,0.17257
3340.10772,0.17042
3342.03619,0.17414
3343.96466,0.17705
3345.89312,0.17311
3347.82159,0.16977
3349.75006,0.17285
3351.67853,0.17708
3353.60700,0.17656
3355.53547,0.17453
3357.46394,0.17678
3359.39240,0.17797
3361.32087,0.17191
3363.24934,0.16343
3365.17781,0.15901
3367.10628,0.15872
3369.03475,0.15858
3370.96322,0.15850
3372.89168,0.15875
3374.82015,0.15781
3376.74862,0.16020
3378.67709,0.16443
3380.60556,0.16263
3382.53403,0.15902
3384.46250,0.16174
3386.39097,0.16803
3388.31943,0.17053
3390.24790,0.16812
3392.17637,0.16504
3394.10484,0.16266
3396.03331,0.15806
3397.96178,0.15655
3399.89025,0.16371
3401.81871,0.15947
3403.74718,0.13320
3405.67565,0.12335
3407.60412,0.14754
3409.53259,0.16474
3411.46106,0.16099
3413.38953,0.16033
3415.31800,0.16280
3417.24646,0.16146
3419.17493,0.16222
3421.10340,0.16441
3423.03187,0.16358
3424.96034,0.16060
3426.88881,0.15837
3428.81728,0.15923
3430.74574,0.16113
3432.67421,0.16236
3434.60268,0.16492
3436.53115,0.16365
3438.45962,0.15623
3440.38809,0.15256
3442.31656,0.15526
3444.24503,0.15891
3446.17349,0.16130
3448.10196,0.16235
3450.03043,0.16385
3451.95890,0.16523
3453.88737,0.16419
3455.81584,0.16257
3457.74431,0.16299
3459.67277,0.16426
3461.60124,0.16534
3463.52971,0.16321
3465.45818,0.15611
3467.38665,0.15214
3469.31512,0.15533
3471.24359,0.15995
3473.17206,0.16106
3475.10052,0.15626
3477.02899,0.14787
3478.95746,0.14350
3480.88593,0.14691
3482.81440,0.15348
3484.74287,0.15757
3486.67134,0.15704
3488.59980,0.15352
3490.52827,0.15080
3492.45674,0.14837
3494.38521,0.14555
3496.31368,0.14623
3498.24215,0.14977
3500.17062,0.14876
3502.09909,0.14258
3504.02755,0.13829
3505.95602,0.13882
3507.88449,0.14230
3509.81296,0.14467
3511.74143,0.14173
3513.66990,0.13787
3515.59837,0.13683
3517.52683,0.13650
3519.45530,0.13801
3521.38377,0.14074
3523.31224,0.14390
3525.24071,0.14966
3527.16918,0.15053
3529.09765,0.14140
3531.02611,0.13440
3532.95458,0.13554
3534.88305,0.13739
3536.81152,0.13794
3538.73999,0.13894
3540.66846,0.13679
3542.59693,0.13268
3544.52540,0.13378
3546.45386,0.14063
3548.38233,0.14491
3550.31080,0.14209
3552.23927,0.13770
3554.16774,0.13985
3556.09621,0.14410
3558.02468,0.14011
3559.95314,0.12800
3561.88161,0.11851
3563.81008,0.11872
3565.73855,0.12831
3567.66702,0.13881
3569.59549,0.13609
3571.52396,0.12977
3573.45243,0.12893
3575.38089,0.12966
3577.30936,0.12949
3579.23783,0.12704
3581.16630,0.12308
3583.09477,0.12456
3585.02324,0.13268
3586.95171,0.13869
3588.88017,0.13378
3590.80864,0.12708
3592.73711,0.12684
3594.66558,0.13070
3596.59405,0.13283
3598.52252,0.13178
3600.45099,0.12918
3602.37946,0.12694
3604.30792,0.12736
3606.23639,0.13184
3608.16486,0.13877
3610.09333,0.14150
3612.02180,0.14028
3613.95027,0.14144
3615.87874,0.14304
3617.80720,0.13661
3619.73567,0.12364
3621.66414,0.12009
3623.59261,0.12226
3625.52108,0.11970
3627.44955,0.11773
3629.37802,0.12647
3631.30649,0.13369
3633.23495,0.12985
3635.16342,0.11917
3637.09189,0.11276
3639.02036,0.11218
3640.94883,0.10819
3642.87730,0.10559
3644.80577,0.11337
3646.73423,0.12791
3648.66270,0.13833
3650.59117,0.12870
3652.51964,0.11333
3654.44811,0.10684
3656.37658,0.10804
3658.30505,0.11198
3660.23352,0.11260
3662.16198,0.10954
3664.09045,0.10946
3666.01892,0.11542
3667.94739,0.12236
3669.87586,0.12677
3671.80433,0.12871
3673.73280,0.13202
3675.66126,0.13512
3677.58973,0.12903
3679.51820,0.12133
3681.44667,0.11530
3683.37514,0.11058
3685.30361,0.11155
3687.23208,0.11746
3689.16055,0.12069
3691.08901,0.11716
3693.01748,0.11323
3694.94595,0.11122
3696.87442,0.11077
3698.80289,0.11400
3700.73136,0.11859
3702.65983,0.11850
3704.58829,0.11538
3706.51676,0.11479
3708.44523,0.11900
3710.37370,0.12523
3712.30217,0.12476
3714.23064,0.12093
3716.15911,0.12329
3718.08757,0.12540
3720.01604,0.11743
3721.94451,0.11026
3723.87298,0.11398
3725.80145,0.11416
3727.72992,0.10708
3729.65839,0.10622
3731.58686,0.11549
3733.51532,0.12499
3735.44379,0.12444
3737.37226,0.12446
3739.30073,0.12633
3741.22920,0.12274
3743.15767,0.11666
3745.08614,0.11404
3747.01460,0.11195
3748.94307,0.11034
3750.87154,0.11522
3752.80001,0.12020
3754.72848,0.11995
3756.65695,0.11934
3758.58542,0.11864
3760.51389,0.11568
3762.44235,0.11317
3764.37082,0.11308
3766.29929,0.11254
3768.22776,0.11056
3770.15623,0.10848
3772.08470,0.10680
3774.01317,0.10621
3775.94163,0.10669
3777.87010,0.10942
3779.79857,0.11172
3781.72704,0.10767
3783.65551,0.10121
3785.58398,0.09959
3787.51245,0.10260
3789.44092,0.10406
3791.36938,0.10298
3793.29785,0.10240
3795.22632,0.10493
3797.15479,0.10978
3799.08326,0.11286
3801.01173,0.11231
3802.94020,0.10510
3804.86866,0.10011
3806.79713,0.10309
3808.72560,0.10288
3810.65407,0.09711
3812.58254,0.09442
3814.51101,0.09485
3816.43948,0.09629
3818.36795,0.10317
3820.29641,0.11640
3822.22488,0.12037
3824.15335,0.11127
3826.08182,0.10433
3828.01029,0.10552
3829.93876,0.10998
3831.86723,0.11067
3833.79569,0.11023
3835.72416,0.10962
3837.65263,0.10418
3839.58110,0.09925
3841.50957,0.10279
3843.43804,0.10822
3845.36651,0.10683
3847.29498,0.10121
3849.22344,0.09910
3851.15191,0.10494
3853.08038,0.11574
3855.00885,0.11654
3856.93732,0.11048
3858.86579,0.10457
3860.79426,0.10094
3862.72272,0.10234
3864.65119,0.10598
3866.57966,0.10805
3868.50813,0.11095
3870.43660,0.11205
3872.36507,0.11107
3874.29354,0.11237
3876.22200,0.12956
3878.15047,0.17342
3880.07894,0.21395
3882.00741,0.19218
3883.93588,0.12966
3885.86435,0.09009
3887.79282,0.09429
3889.72129,0.10306
3891.64975,0.10214
3893.57822,0.10012
3895.50669,0.10210
3897.43516,0.10840
3899.36363,0.11488
3901.29210,0.11566
3903.22057,0.10702
3905.14903,0.09603
3907.07750,0.09072
3909.00597,0.09034
3910.93444,0.09348
3912.86291,0.09686
3914.79138,0.09708
3916.71985,0.09523
3918.64832,0.09478
3920.57678,0.09315
3922.50525,0.08792
3924.43372,0.08442
3926.36219,0.08994
3928.29066,0.09891
3930.21913,0.09770
3932.14760,0.08768
3934.07606,0.08497
3936.00453,0.08929
3937.93300,0.09139
3939.86147,0.09191
3941.78994,0.09470
3943.71841,0.09865
3945.64688,0.09863
3947.57535,0.09401
3949.50381,0.08951
3951.43228,0.08635
3953.36075,0.08271
3955.28922,0.08234
3957.21769,0.08910
3959.14616,0.09599
3961.07463,0.09877
3963.00309,0.10195
3964.93156,0.10017
3966.86003,0.08883
3968.78850,0.07858
3970.71697,0.07739
3972.64544,0.08101
3974.57391,0.08630
3976.50238,0.09015
3978.43084,0.08836
3980.35931,0.08816
3982.28778,0.09214
3984.21625,0.09169
3986.14472,0.08836
3988.07319,0.08746
3990.00166,0.08710
3991.93012,0.08484
3993.85859,0.08216
3995.78706,0.08318
3997.71553,0.08691
3999.64400,0.08764
4001.57247,0.08525
4003.50094,0.08673
4005.42941,0.09297
4007.35787,0.09451
4009.28634,0.09001
4011.21481,0.08717
4013.14328,0.08714
4015.07175,0.08679
4017.00022,0.08458
4018.92869,0.08185
4020.85715,0.07758
4022.78562,0.07036
4024.71409,0.06571
4026.64256,0.06664
4028.57103,0.07078
4030.49950,0.07799
4032.42797,0.07548
4034.35644,0.05272
4036.28490,0.04482
4038.21337,0.05796
4040.14184,0.05026
4042.07031,0.04627
4043.99878,0.06827
4045.92725,0.07695
4047.85572,0.07169
4049.78418,0.07210
4051.71265,0.07397
4053.64112,0.07807
4055.56959,0.08466
4057.49806,0.08935
4059.42653,0.09129
4061.35500,0.09088
4063.28346,0.08901
4065.21193,0.08631
4067.14040,0.08168
4069.06887,0.07627
4070.99734,0.07521
4072.92581,0.07953
4074.85428,0.08297
4076.78275,0.08261
4078.71121,0.08228
4080.63968,0.08331
4082.56815,0.08378
4084.49662,0.08125
4086.42509,0.07491
4088.35356,0.07093
4090.28203,0.07512
4092.21049,0.08256
4094.13896,0.08540
4096.06743,0.08105
4097.99590,0.07370
4099.92437,0.06902
4101.85284,0.06847
4103.78131,0.07279
4105.70978,0.07687
4107.63824,0.07644
4109.56671,0.07798
4111.49518,0.08036
4113.42365,0.07854
4115.35212,0.07794
4117.28059,0.08116
4119.20906,0.08031
4121.13752,0.07476
4123.06599,0.07630
4124.99446,0.08276
4126.92293,0.08361
4128.85140,0.08081
4130.77987,0.07670
4132.70834,0.07271
4134.63681,0.07377
4136.56527,0.07768
4138.49374,0.07778
4140.42221,0.07520
4142.35068,0.07094
4144.27915,0.06557
4146.20762,0.06633
4148.13609,0.07028
4150.06455,0.07020
4151.99302,0.07179
4153.92149,0.07957
4155.84996,0.08822
4157.77843,0.09281
4159.70690,0.09076
4161.63537,0.08173
4163.56384,0.07485
4165.49230,0.07630
4167.42077,0.07841
4169.34924,0.07579
4171.27771,0.07251
4173.20618,0.07100
4175.13465,0.06986
4177.06312,0.07027
4178.99158,0.07370
4180.92005,0.07718
4182.84852,0.07662
4184.77699,0.07323
4186.70546,0.07048
4188.63393,0.06725
4190.56240,0.06651
4192.49087,0.07086
4194.41933,0.06828
4196.34780,0.05907
4198.27627,0.05983
4200.20474,0.06744
4202.13321,0.06756
4204.06168,0.06221
4205.99015,0.06014
4207.91861,0.05835
4209.84708,0.05130
4211.77555,0.04348
4213.70402,0.04226
4215.63249,0.04818
4217.56096,0.05409
4219.48943,0.05751
4221.41789,0.05990
4223.34636,0.05839
4225.27483,0.05292
4227.20330,0.04917
4229.13177,0.04896
4231.06024,0.05127
4232.98871,0.05766
4234.91718,0.06417
4236.84564,0.06795
4238.77411,0.07042
4240.70258,0.06890
4242.63105,0.06390
4244.55952,0.06203
4246.48799,0.06602
4248.41646,0.06790
4250.34492,0.06699
4252.27339,0.07393
4254.20186,0.08184
4256.13033,0.07708
4258.05880,0.06578
4259.98727,0.05858
4261.91574,0.05745
4263.84421,0.05867
4265.77267,0.05828
4267.70114,0.05645
4269.62961,0.05335
4271.55808,0.04985
4273.48655,0.04459
4275.41502,0.03554
4277.34349,0.03267
4279.27195,0.04570
4281.20042,0.06192
4283.12889,0.06424
4285.05736,0.05731
4286.98583,0.05117
4288.91430,0.05051
4290.84277,0.05678
4292.77124,0.06278
4294.69970,0.06279
4296.62817,0.06257
4298.55664,0.06655
4300.48511,0.06531
4302.41358,0.05657
4304.34205,0.05235
4306.27052,0.05231
4308.19898,0.04681
4310.12745,0.03977
4312.05592,0.04193
4313.98439,0.04967
4315.91286,0.05139
4317.84133,0.04788
4319.76980,0.04875
4321.69827,0.05663
4323.62673,0.06433
4325.55520,0.06285
4327.48367,0.05239
4329.41214,0.04296
4331.34061,0.04054
4333.26908,0.04236
4335.19755,0.04245
4337.12601,0.03809
4339.05448,0.03609
4340.98295,0.04301
4342.91142,0.05441
4344.83989,0.06156
4346.76836,0.06015
4348.69683,0.05471
4350.62530,0.04613
4352.55376,0.03194
4354.48223,0.02495
4356.41070,0.02782
4358.33917,0.02860
4360.26764,0.02797
4362.19611,0.02734
4364.12458,0.02758
4366.05304,0.02826
4367.98151,0.02517
4369.90998,0.02516
4371.83845,0.03136
4373.76692,0.03705
4375.69539,0.04302
4377.62386,0.04834
4379.55232,0.04711
4381.48079,0.04504
4383.40926,0.04720
4385.33773,0.04684
4387.26620,0.04275
4389.19467,0.03910
4391.12314,0.03733
4393.05161,0.04005
4394.98007,0.04237
4396.90854,0.03977
4398.83701,0.04059
4400.76548,0.04232
4402.69395,0.04024
4404.62242,0.04306
4406.55089,0.04674
4408.47935,0.04285
4410.40782,0.03599
4412.33629,0.03212
4414.26476,0.03271
4416.19323,0.03401
4418.12170,0.03405
4420.05017,0.03627
4421.97864,0.03803
4423.90710,0.03512
4425.83557,0.03145
4427.76404,0.03215
4429.69251,0.03868
4431.62098,0.04396
4433.54945,0.04450
4435.47792,0.04938
4437.40638,0.05304
4439.33485,0.04530
4441.26332,0.03782
4443.19179,0.03581
4445.12026,0.02996
4447.04873,0.02316
4448.97720,0.02263
4450.90567,0.02516
4452.83413,0.02796
4454.76260,0.03197
4456.69107,0.03274
4458.61954,0.02725
4460.54801,0.02333
4462.47648,0.02598
4464.40495,0.02593
4466.33341,0.01990
4468.26188,0.01480
4470.19035,0.01111
4472.11882,0.01621
4474.04729,0.03053
4475.97576,0.03349
4477.90423,0.02674
4479.83270,0.02557
4481.76116,0.02715
4483.68963,0.02333
4485.61810,0.01297
4487.54657,0.00569
4489.47504,0.00623
4491.40351,0.00945
4493.33198,0.01228
4495.26044,0.01289
4497.18891,0.01249
4499.11738,0.01347
4501.04585,0.01658
4502.97432,0.02181
4504.90279,0.02544
4506.83126,0.02018
4508.75973,0.01853
4510.68819,0.05065
4512.61666,0.09510
4514.54513,0.09256
4516.47360,0.04622
4518.40207,0.01591
4520.33054,0.02327
4522.25901,0.02911
4524.18747,0.01765
4526.11594,0.01337
4528.04441,0.02167
4529.97288,0.02684
4531.90135,0.01957
4533.82982,0.01074
4535.75829,0.00789
4537.68676,0.00556
4539.61522,0.00107
4541.54369,-0.00287
4543.47216,0.00338
4545.40063,0.01555
4547.32910,0.01624
4549.25757,0.00859
4551.18604,0.00854
4553.11450,0.01513
4555.04297,0.01491
4556.97144,0.00804
4558.89991,0.00644
4560.82838,0.01270
4562.75685,0.02217
4564.68532,0.03091
4566.61378,0.03391
4568.54225,0.03048
4570.47072,0.02656
4572.39919,0.02618
4574.32766,0.02640
4576.25613,0.02634
4578.18460,0.02425
4580.11307,0.01291
4582.04153,0.00149
4583.97000,0.00423
4585.89847,0.01396
4587.82694,0.01837
4589.75541,0.01372
4591.68388,0.00586
4593.61235,0.00543
4595.54081,0.01320
4597.46928,0.02102
4599.39775,0.02370
4601.32622,0.02031
4603.25469,0.01321
4605.18316,0.01000
4607.11163,0.01000
4609.04010,0.00740
4610.96856,0.00825
4612.89703,0.01515
4614.82550,0.01639
4616.75397,0.00573
4618.68244,-0.00464
4620.61091,-0.00351
4622.53938,0.00507
4624.46784,0.01160
4626.39631,0.01079
4628.32478,0.00877
4630.25325,0.01242
4632.18172,0.02146
4634.11019,0.03172
4636.03866,0.03386
4637.96713,0.02799
4639.89559,0.02557
4641.82406,0.02479
4643.75253,0.01936
4645.68100,0.01603
4647.60947,0.01509
4649.53794,0.00937
4651.46641,0.00077
4653.39487,-0.00036
4655.32334,0.00696
4657.25181,0.00924
4659.18028,0.00902
4661.10875,0.01752
4663.03722,0.02053
4664.96569,0.00767
4666.89416,0.00502
4668.82262,0.01896
4670.75109,0.01990
4672.67956,0.01650
4674.60803,0.02743
4676.53650,0.02891
4678.46497,0.01477
4680.39344,0.00642
4682.32190,-0.00088
4684.25037,-0.01096
4686.17884,-0.00987
4688.10731,-0.00138
4690.03578,0.00151
4691.96425,-0.00733
4693.89272,-0.01568
4695.82119,-0.00724
4697.74965,0.01080
4699.67812,0.02543
4701.60659,0.02512
4703.53506,0.01228
4705.46353,0.00507
4707.39200,0.00869
4709.32047,0.01161
4711.24893,0.00573
4713.17740,0.00228
4715.10587,0.00884
4717.03434,0.01588
4718.96281,0.01677
4720.89128,0.00941
4722.81975,-0.00297
4724.74821,-0.00744
4726.67668,-0.00395
4728.60515,-0.00746
4730.53362,-0.01423
4732.46209,-0.00755
4734.39056,0.00623
4736.31903,0.00721
4738.24750,-0.00228
4740.17596,-0.00307
4742.10443,0.00681
4744.03290,0.01177
4745.96137,0.01018
4747.88984,0.01157
4749.81831,0.01024
4751.74678,0.00055
4753.67524,-0.00137
4755.60371,0.00877
4757.53218,0.01208
4759.46065,0.00941
4761.38912,0.01618
4763.31759,0.02912
4765.24606,0.02978
4767.17453,0.01491
4769.10299,0.00205
4771.03146,-0.00235
4772.95993,-0.00486
4774.88840,-0.00581
4776.81687,-0.00153
4778.74534,0.00444
4780.67381,0.01205
4782.60227,0.02327
4784.53074,0.02574
4786.45921,0.01260
4788.38768,-0.00194
4790.31615,-0.00647
4792.24462,-0.00485
4794.17309,-0.00526
4796.10156,-0.00393
4798.03002,0.00029
4799.95849,0.00230
4801.88696,-0.00122
4803.81543,-0.00565
4805.74390,0.00366
4807.67237,0.02011
4809.60084,0.02133
4811.52930,0.01636
4813.45777,0.01625
4815.38624,0.00858
4817.31471,-0.00321
4819.24318,-0.01036
4821.17165,-0.01407
4823.10012,-0.01082
4825.02859,-0.00079
4826.95705,0.00696
4828.88552,0.01329
4830.81399,0.02009
4832.74246,0.02042
4834.67093,0.01136
4836.59940,-0.00294
4838.52787,-0.00795
4840.45633,0.00117
4842.38480,0.00784
4844.31327,0.00273
4846.24174,-0.00420
4848.17021,0.00120
4850.09868,0.01382
4852.02715,0.01424
4853.95562,0.00524
4855.88408,0.00894
4857.81255,0.02715
4859.74102,0.03097
4861.66949,0.00609
4863.59796,-0.01621
4865.52643,-0.01241
4867.45490,-0.00396
4869.38336,-0.00689
4871.31183,-0.00995
4873.24030,-0.00974
4875.16877,-0.00822
4877.09724,-0.00054
4879.02571,0.01262
4880.95418,0.02226
4882.88265,0.02210
4884.81111,0.01671
4886.73958,0.01705
4888.66805,0.01590
4890.59652,-0.00302
4892.52499,-0.02125
4894.45346,-0.01641
4896.38193,-0.00379
4898.31039,0.00650
4900.23886,0.01877
4902.16733,0.02000
4904.09580,0.00724
4906.02427,-0.00431
4907.95274,-0.01093
4909.88121,-0.00760
4911.80967,0.00793
4913.73814,0.01579
4915.66661,0.01249
4917.59508,0.01766
4919.52355,0.03153
4921.45202,0.03733
4923.38049,0.03170
4925.30896,0.02474
4927.23742,0.01826
4929.16589,0.01317
4931.09436,0.01730
4933.02283,0.02305
4934.95130,0.01636
4936.87977,0.00470
4938.80824,-0.00147
4940.73670,0.00153
4942.66517,0.01608
4944.59364,0.01952
4946.52211,0.00154
4948.45058,-0.00727
4950.37905,-0.00003
4952.30752,0.00654
4954.23599,0.01013
4956.16445,0.00845
4958.09292,-0.00061
4960.02139,-0.00245
4961.94986,0.01238
4963.87833,0.02680
4965.80680,0.02512
4967.73527,0.01604
4969.66373,0.00467
4971.59220,-0.01044
4973.52067,-0.01589
4975.44914,-0.00661
4977.37761,0.00066
4979.30608,-0.00170
4981.23455,-0.00155
4983.16302,-0.00750
4985.09148,-0.01883
4987.01995,-0.00259
4988.94842,0.01440
4990.87689,-0.00452
4992.80536,-0.00690
4994.73383,0.02639
4996.66230,0.03641
4998.59076,0.02678
5000.51923,0.02822
5002.44770,0.02459
5004.37617,0.01800
5006.30464,0.01679
5008.23311,0.01564
5010.16158,0.02219
5012.09005,0.03323
5014.01851,0.03843
5015.94698,0.03773
5017.87545,0.02113
5019.80392,-0.00380
5021.73239,-0.00101
5023.66086,0.02398
5025.58933,0.03628
5027.51779,0.03423
5029.44626,0.03548
5031.37473,0.04186
5033.30320,0.04381
5035.23167,0.04041
5037.16014,0.03019
5039.08861,0.00925
5041.01708,-0.00769
5042.94554,-0.00218
5044.87401,0.01669
5046.80248,0.02604
5048.73095,0.01976
5050.65942,0.01190
5052.58789,0.01278
5054.51636,0.01354
5056.44482,0.00803
5058.37329,0.00169
5060.30176,0.00068
5062.23023,0.00611
5064.15870,0.00745
5066.08717,0.00393
5068.01564,0.00550
5069.94410,0.00630
5071.87257,0.00588
5073.80104,0.01157
5075.72951,0.02028
5077.65798,0.03265
5079.58645,0.04175
5081.51492,0.03732
5083.44339,0.03143
5085.37185,0.02433
5087.30032,0.00608
5089.22879,-0.00063
5091.15726,0.01620
5093.08573,0.03851
5095.01420,0.05635
5096.94267,0.06147
5098.87113,0.05702
5100.79960,0.04908
5102.72807,0.03309
5104.65654,0.01767
5106.58501,0.01373
5108.51348,0.02120
5110.44195,0.02741
5112.37042,0.01872
5114.29888,0.01342
5116.22735,0.02843
5118.15582,0.03828
5120.08429,0.03594
5122.01276,0.03568
5123.94123,0.02422
5125.86970,0.00441
5127.79816,0.00358
5129.72663,0.02199
5131.65510,0.03328
5133.58357,0.03160
5135.51204,0.03391
5137.44051,0.03587
5139.36898,0.03012
5141.29745,0.01963
5143.22591,0.01894
5145.15438,0.05220
5147.08285,0.08468
5149.01132,0.06459
5150.93979,0.02053
5152.86826,0.01289
5154.79673,0.03392
5156.72519,0.03489
5158.65366,0.02561
5160.58213,0.02948
5162.51060,0.03111
5164.43907,0.02484
5166.36754,0.01373
5168.29601,0.00226
5170.22448,0.00657
5172.15294,0.03252
5174.08141,0.05149
5176.00988,0.04560
5177.93835,0.03060
5179.86682,0.01857
5181.79529,0.01344
5183.72376,0.01523
5185.65222,0.02750
5187.58069,0.04790
5189.50916,0.05857
5191.43763,0.05607
5193.36610,0.04724
5195.29457,0.03311
5197.22304,0.01889
5199.15151,0.01616
5201.07997,0.02643
5203.00844,0.03549
5204.93691,0.04168
5206.86538,0.06215
5208.79385,0.07786
5210.72232,0.06602
5212.65079,0.05279
5214.57925,0.05501
5216.50772,0.06384
5218.43619,0.06852
5220.36466,0.06370
5222.29313,0.06497
5224.22160,0.07938
5226.15007,0.07890
5228.07854,0.05965
5230.00700,0.04752
5231.93547,0.04122
5233.86394,0.03262
5235.79241,0.03078
5237.72088,0.04282
5239.64935,0.05252
5241.57782,0.04773
5243.50628,0.04006
5245.43475,0.04496
5247.36322,0.06741
5249.29169,0.08061
5251.22016,0.06396
5253.14863,0.04455
5255.07710,0.03677
5257.00556,0.03334
5258.93403,0.03491
5260.86250,0.04600
5262.79097,0.06147
5264.71944,0.06106
5266.64791,0.04697
5268.57638,0.04168
5270.50485,0.04906
5272.43331,0.05834
5274.36178,0.05502
5276.29025,0.04700
5278.21872,0.05595
5280.14719,0.07317
5282.07566,0.07474
5284.00413,0.06396
5285.93259,0.06028
5287.86106,0.05581
5289.78953,0.03068
5291.71800,0.01660
5293.64647,0.04208
5295.57494,0.05895
5297.50341,0.04305
5299.43188,0.01735
5301.36034,0.00956
5303.28881,0.04664
5305.21728,0.07733
5307.14575,0.03824
5309.07422,-0.01112
5311.00269,0.00437
5312.93116,0.04971
5314.85962,0.07723
5316.78809,0.08809
5318.71656,0.07389
5320.64503,0.04831
5322.57350,0.04545
5324.50197,0.04912
5326.43044,0.03949
5328.35891,0.02693
5330.28737,0.03105
5332.21584,0.04335
5334.14431,0.04353
5336.07278,0.04881
5338.00125,0.06736
5339.92972,0.07843
5341.85819,0.08515
5343.78665,0.08798
5345.71512,0.06896
5347.64359,0.04274
5349.57206,0.01720
5351.50053,0.00134
5353.42900,0.02769
5355.35747,0.07431
5357.28594,0.08714
5359.21440,0.05636
5361.14287,0.01518
5363.07134,0.00760
5364.99981,0.02601
5366.92828,0.04282
5368.85675,0.06089
5370.78522,0.07801
5372.71368,0.08177
5374.64215,0.07812
5376.57062,0.07754
5378.49909,0.07650
5380.42756,0.06582
5382.35603,0.04973
5384.28450,0.03451
5386.21297,0.02524
5388.14143,0.03784
5390.06990,0.05490
5391.99837,0.05977
5393.92684,0.06665
5395.85531,0.07116
5397.78378,0.06032
5399.71225,0.04755
5401.64071,0.04801
5403.56918,0.05718
5405.49765,0.06125
5407.42612,0.05824
5409.35459,0.06120
5411.28306,0.07514
5413.21153,0.08080
5415.13999,0.07280
5417.06846,0.07060
5418.99693,0.07110
5420.92540,0.05831
5422.85387,0.04794
5424.78234,0.05566
5426.71081,0.05281
5428.63928,0.03264
5430.56774,0.03829
5432.49621,0.05837
5434.42468,0.04862
5436.35315,0.02431
5438.28162,0.01611
5440.21009,0.02024
5442.13856,0.03035
5444.06702,0.03886
5445.99549,0.03823
5447.92396,0.03106
5449.85243,0.03670
5451.78090,0.04672
5453.70937,0.02985
5455.63784,0.00017
5457.56631,-0.00789
5459.49477,0.01893
5461.42324,0.06769
5463.35171,0.07325
5465.28018,0.01731
5467.20865,-0.00941
5469.13712,0.02997
5471.06559,0.05330
5472.99405,0.05136
5474.92252,0.08070
5476.85099,0.10034
5478.77946,0.08539
5480.70793,0.07484
5482.63640,0.06313
5484.56487,0.05231
5486.49334,0.05546
5488.42180,0.05446
5490.35027,0.04488
5492.27874,0.03517
5494.20721,0.02138
5496.13568,0.02184
5498.06415,0.04280
5499.99262,0.05536
5501.92108,0.04821
5503.84955,0.03861
5505.77802,0.03826
5507.70649,0.03981
5509.63496,0.04200
5511.56343,0.06013
5513.49190,0.07599
5515.42037,0.06399
5517.34883,0.03933
5519.27730,0.02814
5521.20577,0.03749
5523.13424,0.05049
5525.06271,0.05452
5526.99118,0.06237
5528.91965,0.07960
5530.84811,0.08498
5532.77658,0.08234
5534.70505,0.08612
5536.63352,0.07441
5538.56199,0.05550
5540.49046,0.04431
5542.41893,0.03161
5544.34740,0.04164
5546.27586,0.06813
5548.20433,0.07641
5550.13280,0.08881
5552.06127,0.11327
5553.98974,0.10817
5555.91821,0.07919
5557.84668,0.06943
5559.77514,0.06835
5561.70361,0.05683
5563.63208,0.04864
5565.56055,0.03654
5567.48902,0.01953
5569.41749,0.03345
5571.34596,0.07602
5573.27443,0.09760
5575.20289,0.07713
5577.13136,0.05819
5579.05983,0.06742
5580.98830,0.07416
5582.91677,0.05490
5584.84524,0.03268
5586.77371,0.04715
5588.70217,0.09087
5590.63064,0.10474
5592.55911,0.07279
5594.48758,0.03260
5596.41605,0.02523
5598.34452,0.06539
5600.27299,0.11337
5602.20145,0.11313
5604.12992,0.08616
5606.05839,0.08226
5607.98686,0.07431
5609.91533,0.04006
5611.84380,0.02629
5613.77227,0.04500
5615.70074,0.04393
5617.62920,0.01610
5619.55767,0.01552
5621.48614,0.04679
5623.41461,0.05221
5625.34308,0.03091
5627.27155,0.04341
5629.20002,0.08407
5631.12848,0.08837
5633.05695,0.05897
5634.98542,0.04049
5636.91389,0.03878
5638.84236,0.04883
5640.77083,0.06035
5642.69930,0.05246
5644.62777,0.04757
5646.55623,0.07129
5648.48470,0.09344
5650.41317,0.08207
5652.34164,0.05505
5654.27011,0.04383
5656.19858,0.05178
5658.12705,0.06834
5660.05551,0.06953
5661.98398,0.05093
5663.91245,0.04992
5665.84092,0.06607
5667.76939,0.07138
5669.69786,0.06545
5671.62633,0.05210
5673.55480,0.03904
5675.48326,0.03590
5677.41173,0.04330
5679.34020,0.05086
5681.26867,0.03871
5683.19714,0.01602
5685.12561,0.01186
5687.05408,0.02258
5688.98254,0.02085
5690.91101,0.00149
5692.83948,-0.00282
5694.76795,0.02772
5696.69642,0.06325
5698.62489,0.06846
5700.55336,0.04879
5702.48183,0.03928
5704.41029,0.06448
5706.33876,0.09113
5708.26723,0.07923
5710.19570,0.05795
5712.12417,0.06363
5714.05264,0.08326
5715.98111,0.08422
5717.90957,0.05050
5719.83804,-0.00056
5721.76651,-0.02490
5723.69498,0.00774
5725.62345,0.05336
5727.55192,0.05212
5729.48039,0.02986
5731.40886,0.03762
5733.33732,0.07263
5735.26579,0.10544
5737.19426,0.10647
5739.12273,0.07754
5741.05120,0.04779
5742.97967,0.04170
5744.90814,0.07768
5746.83660,0.13267
5748.76507,0.14723
5750.69354,0.10482
5752.62201,0.04005
5754.55048,0.01472
5756.47895,0.04323
5758.40742,0.07166
5760.33588,0.08595
5762.26435,0.10233
5764.19282,0.11849
5766.12129,0.12379
5768.04976,0.10984
5769.97823,0.08917
5771.90670,0.07664
5773.83517,0.06590
5775.76363,0.04503
5777.69210,0.02056
5779.62057,0.01396
5781.54904,0.03453
5783.47751,0.06689
5785.40598,0.07653
5787.33445,0.04824
5789.26291,0.02082
5791.19138,0.01802
5793.11985,0.02443
5795.04832,0.03340
5796.97679,0.04195
5798.90526,0.06558
5800.83373,0.11241
5802.76220,0.14052
5804.69066,0.12687
5806.61913,0.11989
5808.54760,0.14186
5810.47607,0.15297
5812.40454,0.14907
5814.33301,0.14409
5816.26148,0.13211
5818.18994,0.12846
5820.11841,0.12700
5822.04688,0.09930
5823.97535,0.06062
5825.90382,0.03716
5827.83229,0.03122
5829.76076,0.02655
5831.68923,0.01420
5833.61769,0.01187
5835.54616,0.02371
5837.47463,0.03163
5839.40310,0.02998
5841.33157,0.03837
5843.26004,0.07388
5845.18851,0.09082
5847.11697,0.05455
5849.04544,0.02293
5850.97391,0.02913
5852.90238,0.02291
5854.83085,0.00720
5856.75932,0.02803
5858.68779,0.08077
5860.61626,0.13318
5862.54472,0.14105
5864.47319,0.08812
5866.40166,0.05074
5868.33013,0.07530
5870.25860,0.10671
5872.18707,0.09260
5874.11554,0.05662
5876.04400,0.05756
5877.97247,0.07694
5879.90094,0.06913
5881.82941,0.04432
5883.75788,0.02308
5885.68635,0.01737
5887.61482,0.01678
5889.54329,-0.00099
5891.47175,-0.02779
5893.40022,-0.01523
5895.32869,0.03933
5897.25716,0.05848
5899.18563,0.02320
5901.11410,0.00853
5903.04257,0.03388
5904.97103,0.04181
5906.89950,0.02370
5908.82797,0.00322
5910.75644,-0.00517
5912.68491,0.01206
5914.61338,0.03380
5916.54185,0.05121
5918.47032,0.07014
5920.39878,0.05666
5922.32725,0.02040
5924.25572,0.02471
5926.18419,0.06458
5928.11266,0.07044
5930.04113,0.04212
5931.96960,0.03085
5933.89806,0.04116
5935.82653,0.04787
5937.75500,0.03182
5939.68347,0.01439
5941.61194,0.02778
5943.54041,0.04981
5945.46888,0.05319
5947.39734,0.04591
5949.32581,0.04622
5951.25428,0.05704
5953.18275,0.06180
5955.11122,0.06436
5957.03969,0.08237
5958.96816,0.12559
5960.89663,0.18790
5962.82509,0.21660
5964.75356,0.17510
5966.68203,0.12127
5968.61050,0.09293
5970.53897,0.06615
5972.46744,0.06899
5974.39591,0.07434
5976.32437,0.02719
5978.25284,-0.00087
5980.18131,0.03365
5982.10978,0.07375
5984.03825,0.08553
5985.96672,0.08714
5987.89519,0.08656
5989.82366,0.07946
5991.75212,0.07666
5993.68059,0.07984
5995.60906,0.07369
5997.53753,0.06202
5999.46600,0.06006
6001.39447,0.06028
6003.32294,0.05222
6005.25140,0.05843
6007.17987,0.09229
6009.10834,0.10159
6011.03681,0.06758
6012.96528,0.05468
6014.89375,0.07142
6016.82222,0.08263
6018.75069,0.11481
6020.67915,0.16290
6022.60762,0.17519
6024.53609,0.16664
6026.46456,0.16019
6028.39303,0.12793
6030.32150,0.07919
6032.24997,0.07149
6034.17843,0.10043
6036.10690,0.11202
6038.03537,0.08344
6039.96384,0.05873
6041.89231,0.06943
6043.82078,0.09059
6045.74925,0.11185
6047.67772,0.13574
6049.60618,0.13708
6051.53465,0.10090
6053.46312,0.06801
6055.39159,0.05728
6057.32006,0.02990
6059.24853,0.00058
6061.17700,-0.01369
6063.10546,-0.03243
6065.03393,-0.01758
6066.96240,0.05807
6068.89087,0.11561
6070.81934,0.07053
6072.74781,-0.02189
6074.67628,-0.07246
6076.60475,-0.07509
6078.53321,-0.02361
6080.46168,0.06055
6082.39015,0.07492
6084.31862,0.03258
6086.24709,0.04997
6088.17556,0.08998
6090.10403,0.07521
6092.03249,0.06513
6093.96096,0.08248
6095.88943,0.08535
6097.81790,0.08276
6099.74637,0.08940
6101.67484,0.12135
6103.60331,0.18652
6105.53177,0.22813
6107.46024,0.19382
6109.38871,0.12031
6111.31718,0.09821
6113.24565,0.11613
6115.17412,0.10571
6117.10259,0.08360
6119.03106,0.08630
6120.95952,0.10155
6122.88799,0.10149
6124.81646,0.08358
6126.74493,0.08147
6128.67340,0.09341
6130.60187,0.06247
6132.53034,0.01406
6134.45880,0.01667
6136.38727,0.03979
6138.31574,0.01596
6140.24421,-0.05522
6142.17268,-0.09155
6144.10115,-0.01417
6146.02962,0.07901
6147.95809,0.05798
6149.88655,0.00038
6151.81502,0.01708
6153.74349,0.06505
6155.67196,0.10375
6157.60043,0.13061
6159.52890,0.11157
6161.45737,0.04294
6163.38583,-0.02517
6165.31430,-0.04427
6167.24277,-0.02208
6169.17124,0.02733
6171.09971,0.10219
6173.02818,0.16438
6174.95665,0.17801
6176.88512,0.12199
6178.81358,0.02851
6180.74205,0.00447
6182.67052,0.04613
6184.59899,0.06133
6186.52746,0.06691
6188.45593,0.10218
6190.38440,0.13380
6192.31286,0.12710
6194.24133,0.11130
6196.16980,0.13315
6198.09827,0.12553
6200.02674,0.03481
6201.95521,-0.03890
6203.88368,-0.01665
6205.81215,0.04475
6207.74061,0.08975
6209.66908,0.11741
6211.59755,0.09437
6213.52602,0.03570
6215.45449,0.00840
6217.38296,0.02063
6219.31143,0.05298
6221.23989,0.10586
6223.16836,0.13983
6225.09683,0.09340
6227.02530,-0.00147
6228.95377,-0.03575
6230.88224,0.00744
6232.81071,0.05188
6234.73918,0.09908
6236.66764,0.15534
6238.59611,0.18376
6240.52458,0.20676
6242.45305,0.22110
6244.38152,0.19458
6246.30999,0.17005
6248.23846,0.16090
6250.16692,0.12109
6252.09539,0.06216
6254.02386,0.03172
6255.95233,0.03021
6257.88080,0.02669
6259.80927,0.00794
6261.73774,-0.00351
6263.66621,0.01150
6265.59467,0.03828
6267.52314,0.04216
6269.45161,0.02135
6271.38008,0.01537
6273.30855,0.04676
6275.23702,0.09038
6277.16549,0.11383
6279.09395,0.09780
6281.02242,0.06924
6282.95089,0.09209
6284.87936,0.13889
6286.80783,0.14070
6288.73630,0.11800
6290.66477,0.10350
6292.59323,0.08302
6294.52170,0.06559
6296.45017,0.07266
6298.37864,0.08381
6300.30711,0.06128
6302.23558,0.01209
6304.16405,0.01617
6306.09252,0.06973
6308.02098,0.09611
6309.94945,0.10467
6311.87792,0.12260
6313.80639,0.14082
6315.73486,0.14095
6317.66333,0.10355
6319.59180,0.06862
6321.52026,0.06342
6323.44873,0.03897
6325.37720,0.00001
6327.30567,0.01512
6329.23414,0.04074
6331.16261,-0.01051
6333.09108,-0.05991
6335.01955,-0.04487
6336.94801,-0.00671
6338.87648,0.01136
6340.80495,-0.02127
6342.73342,-0.03585
6344.66189,0.03588
6346.59036,0.11377
6348.51883,0.10089
6350.44729,0.07421
6352.37576,0.13438
6354.30423,0.18949
6356.23270,0.13843
6358.16117,0.02782
6360.08964,-0.01538
6362.01811,0.03727
6363.94658,0.09817
6365.87504,0.13902
6367.80351,0.14348
6369.73198,0.06028
6371.66045,-0.02545
6373.58892,-0.02407
6375.51739,0.02279
6377.44586,0.09073
6379.37432,0.13982
6381.30279,0.14797
6383.23126,0.14861
6385.15973,0.13563
6387.08820,0.11897
6389.01667,0.10216
6390.94514,0.06668
6392.87361,0.04000
6394.80207,0.05138
6396.73054,0.08957
6398.65901,0.12151
6400.58748,0.08819
6402.51595,-0.01347
6404.44442,-0.07361
6406.37289,-0.04742
6408.30135,-0.00488
6410.22982,0.07418
6412.15829,0.16592
6414.08676,0.13057
6416.01523,0.02424
6417.94370,0.00860
6419.87217,0.08154
6421.80064,0.11005
6423.72910,0.08759
6425.65757,0.07271
6427.58604,0.05514
6429.51451,0.06784
6431.44298,0.13077
6433.37145,0.13932
6435.29992,0.08191
6437.22838,0.03097
6439.15685,0.01517
6441.08532,0.01285
6443.01379,-0.02126
6444.94226,-0.03688
6446.87073,0.04115
6448.79920,0.14192
6450.72766,0.17855
6452.65613,0.17976
6454.58460,0.17379
6456.51307,0.11060
6458.44154,0.03309
6460.37001,0.03164
6462.29848,0.06794
6464.22695,0.10402
6466.15541,0.13182
6468.08388,0.10427
6470.01235,0.03551
6471.94082,-0.00436
6473.86929,0.00228
6475.79776,0.05474
6477.72623,0.10957
6479.65469,0.09901
6481.58316,0.03624
6483.51163,-0.00257
6485.44010,0.01816
6487.36857,0.03054
6489.29704,0.01010
6491.22551,0.01572
6493.15398,0.05476
6495.08244,0.10265
6497.01091,0.13675
6498.93938,0.13615
6500.86785,0.11447
6502.79632,0.10386
6504.72479,0.11590
6506.65326,0.11132
6508.58172,0.05158
6510.51019,-0.04391
6512.43866,-0.11219
6514.36713,-0.08629
6516.29560,0.00288
6518.22407,0.04853
6520.15254,0.03802
6522.08101,0.04838
6524.00947,0.08004
6525.93794,0.06542
6527.86641,0.03252
6529.79488,0.04606
6531.72335,0.06429
6533.65182,0.02765
6535.58029,-0.04690
6537.50875,-0.05790
6539.43722,0.05134
6541.36569,0.12391
6543.29416,0.07828
6545.22263,0.07077
6547.15110,0.12686
6549.07957,0.14554
6551.00804,0.13507
6552.93650,0.15852
6554.86497,0.20165
6556.79344,0.21171
6558.72191,0.16124
6560.65038,0.11110
6562.57885,0.14180
6564.50732,0.18762
6566.43578,0.16213
6568.36425,0.17064
6570.29272,0.24115
6572.22119,0.21427
6574.14966,0.09227
6576.07813,0.01034
6578.00660,-0.00620
6579.93507,-0.02299
6581.86353,-0.05546
6583.79200,-0.03156
6585.72047,0.03390
6587.64894,0.04913
6589.57741,0.00348
6591.50588,-0.02760
6593.43435,-0.01535
6595.36281,0.01923
6597.29128,0.09593
6599.21975,0.15307
6601.14822,0.11582
6603.07669,0.04528
6605.00516,-0.01329
6606.93363,-0.01829
6608.86210,0.04700
6610.79056,0.10197
6612.71903,0.10042
6614.64750,0.04222
6616.57597,0.01470
6618.50444,0.04707
6620.43291,0.04469
6622.36138,0.07005
6624.28984,0.13758
6626.21831,0.13005
6628.14678,0.03773
6630.07525,-0.04512
6632.00372,-0.02813
6633.93219,0.04673
6635.86066,0.11468
6637.78912,0.16488
6639.71759,0.19042
6641.64606,0.16676
6643.57453,0.08936
6645.50300,0.00097
6647.43147,-0.05376
6649.35994,-0.04614
6651.28841,-0.00979
6653.21687,0.02043
6655.14534,0.03989
6657.07381,0.04849
6659.00228,0.10909
6660.93075,0.21458
6662.85922,0.26367
6664.78769,0.23365
6666.71615,0.14041
6668.64462,0.05319
6670.57309,0.08933
6672.50156,0.19668
6674.43003,0.18343
6676.35850,0.07517
6678.28697,0.04504
6680.21544,0.05363
6682.14390,-0.00696
6684.07237,-0.00526
6686.00084,0.14117
6687.92931,0.26886
6689.85778,0.22507
6691.78625,0.07231
6693.71472,-0.04511
6695.64318,-0.03829
6697.57165,0.04934
6699.50012,0.05315
6701.42859,0.01865
6703.35706,0.05126
6705.28553,0.09325
6707.21400,0.10521
6709.14247,0.09320
6711.07093,0.09438
6712.99940,0.11964
6714.92787,0.11785
6716.85634,0.09499
6718.78481,0.12416
6720.71328,0.16412
6722.64175,0.10105
6724.57021,-0.00152
6726.49868,-0.02401
6728.42715,0.00598
6730.35562,0.02143
6732.28409,0.00898
6734.21256,-0.00940
6736.14103,-0.00211
6738.06950,-0.00113
6739.99796,-0.02723
6741.92643,-0.00902
6743.85490,0.07194
6745.78337,0.17211
6747.71184,0.24956
6749.64031,0.26310
6751.56878,0.23112
6753.49724,0.17836
6755.42571,0.09790
6757.35418,0.01561
6759.28265,0.04156
6761.21112,0.19356
6763.13959,0.21093
6765.06806,0.01971
6766.99653,-0.12199
6768.92499,-0.10326
6770.85346,-0.07541
6772.78193,-0.07926
6774.71040,-0.02962
6776.63887,0.05108
6778.56734,0.07772
6780.49581,0.11501
6782.42427,0.16725
6784.35274,0.14450
6786.28121,0.11698
6788.20968,0.13828
6790.13815,0.13941
6792.06662,0.10786
6793.99509,0.05788
6795.92355,0.03379
6797.85202,0.09151
6799.78049,0.15979
6801.70896,0.16420
6803.63743,0.11541
6805.56590,0.01056
6807.49437,-0.08410
6809.42284,-0.08100
6811.35130,-0.01480
6813.27977,0.03524
6815.20824,0.04468
6817.13671,0.01914
6819.06518,0.00706
6820.99365,0.01857
6822.92212,0.01454
6824.85058,0.04229
6826.77905,0.07607
6828.70752,0.05677
6830.63599,0.04974
6832.56446,0.07827
6834.49293,0.07196
6836.42140,0.05561
6838.34987,0.12890
6840.27833,0.20881
6842.20680,0.15623
6844.13527,0.04198
6846.06374,0.00633
6847.99221,0.00983
6849.92068,-0.02929
6851.84915,-0.00908
6853.77761,0.07850
6855.70608,0.08498
6857.63455,0.04485
6859.56302,0.08580
6861.49149,0.10853
6863.41996,0.03067
6865.34843,-0.02182
6867.27690,-0.02805
6869.20536,-0.09138
6871.13383,-0.15605
6873.06230,-0.02338
6874.99077,0.23993
6876.91924,0.32660
6878.84771,0.24867
6880.77618,0.24611
6882.70464,0.26010
6884.63311,0.15071
6886.56158,0.04640
6888.49005,0.06776
6890.41852,0.13632
6892.34699,0.14651
6894.27546,0.08908
6896.20393,0.02483
6898.13239,0.01077
6900.06086,0.02922
6901.98933,0.06047
6903.91780,0.10388
6905.84627,0.14357
6907.77474,0.15063
6909.70321,0.12089
6911.63167,0.12079
6913.56014,0.12192
6915.48861,0.06575
6917.41708,0.04682
6919.34555,0.05485
6921.27402,0.01199
6923.20249,0.01540
6925.13096,0.06824
6927.05942,0.09475
6928.98789,0.08336
6930.91636,0.05105
6932.84483,0.00057
6934.77330,-0.03212
6936.70177,0.00974
6938.63024,0.09619
6940.55870,0.10967
6942.48717,0.03180
6944.41564,0.01127
6946.34411,0.06196
6948.27258,0.04471
6950.20105,-0.00498
6952.12952,0.03280
6954.05799,0.09697
6955.98645,0.14172
6957.91492,0.18283
6959.84339,0.10118
6961.77186,-0.04284
6963.70033,-0.04171
6965.62880,-0.00209
6967.55727,-0.07035
6969.48573,-0.14086
6971.41420,-0.07905
6973.34267,0.05746
6975.27114,0.12224
6977.19961,0.09763
6979.12808,0.04775
6981.05655,-0.00521
6982.98501,0.04655
6984.91348,0.18219
6986.84195,0.24693
6988.77042,0.27087
6990.69889,0.24470
6992.62736,0.16005
6994.55583,0.05190
6996.48430,-0.09758
6998.41276,-0.18470
7000.34123,-0.13542
7002.26970,-0.01901
7004.19817,0.09933
7006.12664,0.10613
7008.05511,0.00850
7009.98358,-0.02749
7011.91204,-0.03474
7013.84051,-0.10926
7015.76898,-0.17434
7017.69745,-0.16983
7019.62592,-0.12805
7021.55439,-0.02479
7023.48286,0.14798
7025.41133,0.23891
7027.33979,0.21243
7029.26826,0.18675
7031.19673,0.13279
7033.12520,0.01945
7035.05367,-0.04863
7036.98214,-0.04310
7038.91061,-0.00237
7040.83907,0.07454
7042.76754,0.12214
7044.69601,0.07669
7046.62448,-0.02238
7048.55295,-0.11054
7050.48142,-0.10519
7052.40989,0.01657
7054.33836,0.12329
7056.26682,0.06551
7058.19529,-0.02665
7060.12376,-0.00092
7062.05223,0.07080
7063.98070,0.09503
7065.90917,0.05513
7067.83764,0.04341
7069.76610,0.03518
7071.69457,-0.02890
7073.62304,-0.06149
7075.55151,-0.02208
7077.47998,0.08430
7079.40845,0.23687
7081.33692,0.33539
7083.26539,0.26884
7085.19385,0.16242
7087.12232,0.15327
7089.05079,0.17512
7090.97926,0.13610
7092.90773,0.10755
7094.83620,0.13190
7096.76467,0.15473
7098.69313,0.15760
7100.62160,0.16722
7102.55007,0.19633
7104.47854,0.25391
7106.40701,0.29231
7108.33548,0.23281
7110.26395,0.14265
7112.19242,0.08598
7114.12088,0.05269
7116.04935,0.10302
7117.97782,0.24971
7119.90629,0.28475
7121.83476,0.16863
7123.76323,0.05730
7125.69170,-0.00645
7127.62016,-0.01882
7129.54863,0.03007
7131.47710,0.02769
7133.40557,-0.04027
7135.33404,-0.04554
7137.26251,0.01950
7139.19098,0.07232
7141.11944,0.03753
7143.04791,-0.03952
7144.97638,-0.00102
7146.90485,0.14734
7148.83332,0.19462
7150.76179,0.14474
7152.69026,0.13379
7154.61873,0.13314
7156.54719,0.09183
7158.47566,0.02016
7160.40413,-0.10638
7162.33260,-0.16696
7164.26107,-0.09654
7166.18954,0.01483
7168.11801,0.17776
7170.04647,0.35186
7171.97494,0.38565
7173.90341,0.26492
7175.83188,0.06479
7177.76035,-0.07278
7179.68882,-0.07608
7181.61729,-0.03839
7183.54576,-0.05125
7185.47422,-0.06523
7187.40269,-0.02126
7189.33116,0.08136
7191.25963,0.23437
7193.18810,0.31404
7195.11657,0.24509
7197.04504,0.15187
7198.97350,0.14097
7200.90197,0.15856
7202.83044,0.12992
7204.75891,0.06051
7206.68738,0.01475
7208.61585,-0.00581
7210.54432,-0.01700
7212.47279,-0.04036
7214.40125,-0.06934
7216.32972,-0.01956
7218.25819,0.12306
7220.18666,0.19381
7222.11513,0.10771
7224.04360,-0.10612
7225.97207,-0.26311
7227.90053,-0.17286
7229.82900,0.05383
7231.75747,0.17481
7233.68594,0.05692
7235.61441,-0.09396
7237.54288,-0.08537
7239.47135,-0.01972
7241.39982,-0.01325
7243.32828,0.04341
7245.25675,0.15347
7247.18522,0.18048
7249.11369,0.10012
7251.04216,-0.00499
7252.97063,-0.01572
7254.89910,0.03629
7256.82756,-0.00619
7258.75603,-0.12096
7260.68450,-0.22995
7262.61297,-0.32605
7264.54144,-0.29071
7266.46991,-0.07928
7268.39838,0.11480
7270.32685,0.15788
7272.25531,0.03802
7274.18378,0.04018
7276.11225,0.19017
7278.04072,0.26501
7279.96919,0.12825
7281.89766,-0.15333
7283.82613,-0.27759
7285.75459,-0.18938
7287.68306,-0.03667
7289.61153,0.15691
7291.54000,0.39660
7293.46847,0.46885
7295.39694,0.40722
7297.32541,0.36322
7299.25387,0.28685
7301.18234,0.20688
7303.11081,0.14471
7305.03928,0.03026
7306.96775,-0.09582
7308.89622,-0.07766
7310.82469,0.09262
7312.75316,0.17710
7314.68162,0.13931
7316.61009,0.07205
7318.53856,0.02653
7320.46703,0.05407
7322.39550,0.17863
7324.32397,0.30534
7326.25244,0.39826
7328.18090,0.41355
7330.10937,0.10541
7332.03784,-0.24091
7333.96631,-0.21741
7335.89478,-0.02020
7337.82325,0.11457
7339.75172,0.15300
7341.68019,0.10210
7343.60865,0.11855
7345.53712,0.25517
7347.46559,0.31997
7349.39406,0.29319
7351.32253,0.23501
7353.25100,0.14596
7355.17947,0.24483
7357.10793,0.42043
7359.03640,0.20100
7360.96487,-0.13726
7362.89334,-0.15300
7364.82181,-0.03913
7366.75028,0.08879
7368.67875,0.22047
7370.60722,0.22776
7372.53568,0.12570
7374.46415,0.04451
7376.39262,0.03518
7378.32109,-0.02987
7380.24956,-0.14811
7382.17803,-0.18717
7384.10650,-0.08397
7386.03496,0.02172
7387.96343,-0.02616
7389.89190,-0.10986
7391.82037,-0.07614
7393.74884,0.02136
7395.67731,0.02851
7397.60578,-0.03605
7399.53425,0.03096
7401.46271,0.23607
7403.39118,0.28712
7405.31965,0.08267
7407.24812,-0.02347
7409.17659,0.00046
7411.10506,0.04542
7413.03353,0.20192
7414.96199,0.38896
7416.89046,0.35143
7418.81893,0.11410
7420.74740,-0.03259
7422.67587,-0.06648
7424.60434,-0.01858
7426.53281,0.01924
7428.46128,-0.01153
7430.38974,-0.04887
7432.31821,-0.02659
7434.24668,0.07925
7436.17515,0.15756
7438.10362,0.12932
7440.03209,0.06317
7441.96056,-0.03009
7443.88902,-0.07995
7445.81749,-0.05780
7447.74596,-0.06410
7449.67443,-0.10012
7451.60290,-0.02551
7453.53137,0.12744
7455.45984,0.14333
7457.38831,0.07060
7459.31677,0.07411
7461.24524,0.21887
7463.17371,0.36098
7465.10218,0.32792
7467.03065,0.14994
7468.95912,-0.00254
7470.88759,-0.05519
7472.81605,-0.01048
7474.74452,-0.04729
7476.67299,-0.23798
7478.60146,-0.32018
7480.52993,-0.12529
7482.45840,0.08681
7484.38687,0.29576
7486.31533,0.53579
7488.24380,0.47617
7490.17227,0.06428
7492.10074,-0.23974
7494.02921,-0.15694
7495.95768,0.12197
7497.88615,0.36106
