399.19301,11.26602
401.12148,1.48440
403.04995,0.52741
404.97842,0.25787
406.90689,0.22184
408.83536,0.18436
410.76382,-0.01098
412.69229,-0.10929
414.62076,0.01561
416.54923,0.15034
418.47770,0.18094
420.40617,0.07220
422.33464,-0.02125
424.26311,-0.04518
426.19157,0.02684
428.12004,0.13711
430.04851,0.16188
431.97698,0.07760
433.90545,0.00475
435.83392,0.00079
437.76239,0.04332
439.69085,0.10679
441.61932,0.13818
443.54779,0.08299
445.47626,0.02278
447.40473,0.09821
449.33320,0.17931
451.26167,0.11505
453.19013,0.06294
455.11860,0.12277
457.04707,0.13539
458.97554,0.00747
460.90401,-0.07982
462.83248,-0.06364
464.76095,-0.02240
466.68942,-0.00127
468.61788,0.03136
470.54635,0.19665
472.47482,1.15127
474.40329,2.50574
476.33176,1.73123
478.26023,0.49351
480.18870,0.04241
482.11716,-0.00565
484.04563,0.00238
485.97410,0.04383
487.90257,0.08316
489.83104,0.10107
491.75951,0.09746
493.68798,0.08235
495.61645,0.04616
497.54491,0.02201
499.47338,0.03633
501.40185,0.02325
503.33032,-0.02458
505.25879,-0.03581
507.18726,-0.01641
509.11573,0.02792
511.04419,0.09552
512.97266,0.14051
514.90113,0.15389
516.82960,0.13428
518.75807,0.06455
520.68654,-0.00393
522.61501,-0.01305
524.54348,0.03874
526.47194,0.08979
528.40041,0.08065
530.32888,0.04893
532.25735,0.05670
534.18582,0.10065
536.11429,0.13529
538.04276,0.11965
539.97122,0.06969
541.89969,0.04469
543.82816,0.04616
545.75663,0.04074
547.68510,0.05985
549.61357,0.10691
551.54204,0.11006
553.47051,0.08077
555.39897,0.09486
557.32744,0.13538
559.25591,0.13802
561.18438,0.10590
563.11285,0.07708
565.04132,0.06776
566.96979,0.06785
568.89825,0.08544
570.82672,0.11699
572.75519,0.11671
574.68366,0.09403
576.61213,0.08701
578.54060,0.08960
580.46907,0.10045
582.39754,0.10866
584.32600,0.09602
586.25447,0.09642
588.18294,0.13325
590.11141,0.15159
592.03988,0.12528
593.96835,0.09104
595.89682,0.05822
597.82528,0.03798
599.75375,0.03806
601.68222,0.03352
603.61069,0.02205
605.53916,0.02811
607.46763,0.05467
609.39610,0.07940
611.32456,0.08959
613.25303,0.08420
615.18150,0.07402
617.10997,0.07924
619.03844,0.08461
620.96691,0.06516
622.89538,0.04530
624.82385,0.05836
626.75231,0.09154
628.68078,0.11653
630.60925,0.13327
632.53772,0.14057
634.46619,0.12857
636.39466,0.10962
638.32313,0.09914
640.25159,0.09398
642.18006,0.09288
644.10853,0.10111
646.03700,0.10352
647.96547,0.09804
649.89394,0.09676
651.82241,0.09151
653.75088,0.09449
655.67934,0.11447
657.60781,0.12062
659.53628,0.10682
661.46475,0.10239
663.39322,0.11257
665.32169,0.11975
667.25016,0.10239
669.17862,0.05706
671.10709,0.04317
673.03556,0.05403
674.96403,0.06649
676.89250,0.08040
678.82097,0.09753
680.74944,0.10551
682.67791,0.09988
684.60637,0.09311
686.53484,0.09309
688.46331,0.09099
690.39178,0.08196
692.32025,0.07682
694.24872,0.08332
696.17719,0.09232
698.10565,0.09078
700.03412,0.08690
701.96259,0.09374
703.89106,0.10702
705.81953,0.11180
707.74800,0.10767
709.67647,0.12613
711.60494,0.16931
713.53340,0.17973
715.46187,0.14640
717.39034,0.11878
719.31881,0.10813
721.24728,0.10411
723.17575,0.10466
725.10422,0.10470
727.03268,0.10175
728.96115,0.09799
730.88962,0.10041
732.81809,0.10997
734.74656,0.11881
736.67503,0.11381
738.60350,0.09851
740.53197,0.09663
742.46043,0.10898
744.38890,0.11626
746.31737,0.11505
748.24584,0.11327
750.17431,0.10727
752.10278,0.09597
754.03125,0.09110
755.95971,0.09355
757.88818,0.09024
759.81665,0.07927
761.74512,0.07612
763.67359,0.08835
765.60206,0.10307
767.53053,0.10815
769.45900,0.10915
771.38746,0.11180
773.31593,0.11596
775.24440,0.12405
777.17287,0.12868
779.10134,0.12360
781.02981,0.11477
782.95828,0.10760
784.88674,0.10380
786.81521,0.09528
788.74368,0.08450
790.67215,0.08835
792.60062,0.09769
794.52909,0.10060
796.45756,0.10452
798.38602,0.10465
800.31449,0.09702
802.24296,0.09646
804.17143,0.11048
806.09990,0.12368
808.02837,0.12039
809.95684,0.11129
811.88531,0.11053
813.81377,0.10860
815.74224,0.10059
817.67071,0.09274
819.59918,0.08736
821.52765,0.09204
823.45612,0.10405
825.38459,0.11172
827.31305,0.11078
829.24152,0.09910
831.16999,0.08700
833.09846,0.09222
835.02693,0.10862
836.95540,0.11443
838.88387,0.10984
840.81234,0.10776
842.74080,0.10635
844.66927,0.10052
846.59774,0.10346
848.52621,0.11877
850.45468,0.13033
852.38315,0.13383
854.31162,0.13254
856.24008,0.12704
858.16855,0.11759
860.09702,0.11027
862.02549,0.11330
863.95396,0.11875
865.88243,0.13059
867.81090,0.22071
869.73937,0.38244
871.66783,0.40736
873.59630,0.24482
875.52477,0.11349
877.45324,0.09524
879.38171,0.10283
881.31018,0.09604
883.23865,0.08931
885.16711,0.09647
887.09558,0.10207
889.02405,0.09412
890.95252,0.08860
892.88099,0.09700
894.80946,0.10836
896.73793,0.11056
898.66640,0.10988
900.59486,0.10985
902.52333,0.10639
904.45180,0.10475
906.38027,0.10466
908.30874,0.10181
910.23721,0.10080
912.16568,0.09990
914.09414,0.09622
916.02261,0.09658
917.95108,0.10407
919.87955,0.11536
921.80802,0.12426
923.73649,0.12140
925.66496,0.11057
927.59343,0.10832
929.52189,0.11322
931.45036,0.11156
933.37883,0.10858
935.30730,0.11329
937.23577,0.11862
939.16424,0.11824
941.09271,0.11357
943.02117,0.10835
944.94964,0.10701
946.87811,0.11005
948.80658,0.11542
950.73505,0.11977
952.66352,0.11827
954.59199,0.11250
956.52045,0.10907
958.44892,0.10766
960.37739,0.10699
962.30586,0.10797
964.23433,0.10811
966.16280,0.10981
968.09127,0.11589
970.01974,0.12035
971.94820,0.11987
973.87667,0.11811
975.80514,0.11751
977.73361,0.11713
979.66208,0.11669
981.59055,0.11600
983.51902,0.10994
985.44748,0.09988
987.37595,0.09782
989.30442,0.10417
991.23289,0.10773
993.16136,0.10752
995.08983,0.11060
997.01830,0.11654
998.94677,0.12103
1000.87523,0.12123
1002.80370,0.11246
1004.73217,0.10201
1006.66064,0.10586
1008.58911,0.11687
1010.51758,0.11906
1012.44605,0.11889
1014.37451,0.12289
1016.30298,0.12326
1018.23145,0.11761
1020.15992,0.11202
1022.08839,0.10898
1024.01686,0.10807
1025.94533,0.10481
1027.87380,0.09643
1029.80226,0.09976
1031.73073,0.11550
1033.65920,0.11714
1035.58767,0.10844
1037.51614,0.11343
1039.44461,0.13011
1041.37308,0.13575
1043.30154,0.12317
1045.23001,0.11070
1047.15848,0.11009
1049.08695,0.11371
1051.01542,0.11190
1052.94389,0.10900
1054.87236,0.11371
1056.80083,0.12101
1058.72929,0.12486
1060.65776,0.12410
1062.58623,0.11595
1064.51470,0.10917
1066.44317,0.11344
1068.37164,0.11824
1070.30011,0.11813
1072.22857,0.11951
1074.15704,0.11747
1076.08551,0.11493
1078.01398,0.12102
1079.94245,0.12039
1081.87092,0.10820
1083.79939,0.10564
1085.72786,0.11539
1087.65632,0.12430
1089.58479,0.13143
1091.51326,0.13652
1093.44173,0.13715
1095.37020,0.13362
1097.29867,0.12629
1099.22714,0.12506
1101.15560,0.13030
1103.08407,0.13259
1105.01254,0.13169
1106.94101,0.12692
1108.86948,0.12303
1110.79795,0.12098
1112.72642,0.11407
1114.65489,0.10730
1116.58335,0.11033
1118.51182,0.12307
1120.44029,0.13719
1122.36876,0.14238
1124.29723,0.13405
1126.22570,0.12281
1128.15417,0.11934
1130.08263,0.12125
1132.01110,0.12304
1133.93957,0.12290
1135.86804,0.12534
1137.79651,0.13303
1139.72498,0.13798
1141.65345,0.13448
1143.58191,0.12926
1145.51038,0.12547
1147.43885,0.11991
1149.36732,0.11585
1151.29579,0.11639
1153.22426,0.11744
1155.15273,0.11599
1157.08120,0.11644
1159.00966,0.12112
1160.93813,0.12429
1162.86660,0.12496
1164.79507,0.12976
1166.72354,0.13387
1168.65201,0.12955
1170.58048,0.12568
1172.50894,0.12766
1174.43741,0.12950
1176.36588,0.12672
1178.29435,0.11944
1180.22282,0.11303
1182.15129,0.11146
1184.07976,0.10914
1186.00823,0.10297
1187.93669,0.10177
1189.86516,0.10606
1191.79363,0.10663
1193.72210,0.10633
1195.65057,0.11107
1197.57904,0.11442
1199.50751,0.11367
1201.43597,0.11672
1203.36444,0.12245
1205.29291,0.12441
1207.22138,0.12569
1209.14985,0.12896
1211.07832,0.12989
1213.00679,0.12653
1214.93526,0.12286
1216.86372,0.12065
1218.79219,0.11785
1220.72066,0.11586
1222.64913,0.11660
1224.57760,0.11882
1226.50607,0.12112
1228.43454,0.12289
1230.36300,0.12507
1232.29147,0.12740
1234.21994,0.12769
1236.14841,0.12612
1238.07688,0.12454
1240.00535,0.12334
1241.93382,0.12274
1243.86229,0.12366
1245.79075,0.12504
1247.71922,0.12550
1249.64769,0.12461
1251.57616,0.12222
1253.50463,0.12164
1255.43310,0.12518
1257.36157,0.12782
1259.29003,0.12611
1261.21850,0.12390
1263.14697,0.12481
1265.07544,0.12671
1267.00391,0.12626
1268.93238,0.12298
1270.86085,0.11882
1272.78932,0.11827
1274.71778,0.12251
1276.64625,0.12867
1278.57472,0.13104
1280.50319,0.12527
1282.43166,0.11920
1284.36013,0.12069
1286.28860,0.12529
1288.21706,0.12733
1290.14553,0.12699
1292.07400,0.12566
1294.00247,0.12495
1295.93094,0.12581
1297.85941,0.12419
1299.78788,0.11597
1301.71634,0.10334
1303.64481,0.09251
1305.57328,0.09219
1307.50175,0.10454
1309.43022,0.11703
1311.35869,0.12310
1313.28716,0.12715
1315.21563,0.12963
1317.14409,0.13050
1319.07256,0.12967
1321.00103,0.12736
1322.92950,0.12621
1324.85797,0.12477
1326.78644,0.12090
1328.71491,0.11819
1330.64337,0.11696
1332.57184,0.11768
1334.50031,0.12194
1336.42878,0.12708
1338.35725,0.13039
1340.28572,0.12797
1342.21419,0.09588
1344.14266,0.00161
1346.07112,-0.06906
1347.99959,-0.00346
1349.92806,0.09522
1351.85653,0.11825
1353.78500,0.11817
1355.71347,0.12378
1357.64194,0.12591
1359.57040,0.13027
1361.49887,0.13758
1363.42734,0.13859
1365.35581,0.13374
1367.28428,0.13223
1369.21275,0.13423
1371.14122,0.13694
1373.06969,0.13899
1374.99815,0.13996
1376.92662,0.13805
1378.85509,0.13543
1380.78356,0.13328
1382.71203,0.13129
1384.64050,0.13283
1386.56897,0.13770
1388.49743,0.13969
1390.42590,0.13858
1392.35437,0.14027
1394.28284,0.14351
1396.21131,0.14422
1398.13978,0.14166
1400.06825,0.13679
1401.99672,0.13390
1403.92518,0.13461
1405.85365,0.13607
1407.78212,0.13346
1409.71059,0.12881
1411.63906,0.12862
1413.56753,0.13258
1415.49600,0.13626
1417.42446,0.14133
1419.35293,0.14661
1421.28140,0.14563
1423.20987,0.14232
1425.13834,0.13904
1427.06681,0.13505
1428.99528,0.13120
1430.92375,0.13180
1432.85221,0.13609
1434.78068,0.13885
1436.70915,0.13974
1438.63762,0.13967
1440.56609,0.13835
1442.49456,0.13682
1444.42303,0.13777
1446.35149,0.14119
1448.27996,0.14295
1450.20843,0.14192
1452.13690,0.14316
1454.06537,0.14902
1455.99384,0.15562
1457.92231,0.15377
1459.85077,0.14660
1461.77924,0.14253
1463.70771,0.14186
1465.63618,0.14155
1467.56465,0.13857
1469.49312,0.13786
1471.42159,0.14196
1473.35006,0.14873
1475.27852,0.15286
1477.20699,0.15017
1479.13546,0.14531
1481.06393,0.14447
1482.99240,0.14606
1484.92087,0.14855
1486.84934,0.15275
1488.77780,0.15255
1490.70627,0.14379
1492.63474,0.13761
1494.56321,0.13945
1496.49168,0.14641
1498.42015,0.14599
1500.34862,0.11859
1502.27709,0.06217
1504.20555,0.00543
1506.13402,0.02126
1508.06249,0.12682
1509.99096,0.15164
1511.91943,0.14642
1513.84790,0.15090
1515.77637,0.16088
1517.70483,0.16646
1519.63330,0.16602
1521.56177,0.16268
1523.49024,0.15731
1525.41871,0.15295
1527.34718,0.14669
1529.27565,0.14184
1531.20412,0.14618
1533.13258,0.15661
1535.06105,0.15866
1536.98952,0.15793
1538.91799,0.16940
1540.84646,0.18186
1542.77493,0.16957
1544.70340,0.15728
1546.63186,0.15338
1548.56033,0.15327
1550.48880,0.15133
1552.41727,0.14874
1554.34574,0.15266
1556.27421,0.16554
1558.20268,0.18115
1560.13115,0.16863
1562.05961,0.15187
1563.98808,0.14674
1565.91655,0.14428
1567.84502,0.14145
1569.77349,0.13968
1571.70196,0.14041
1573.63043,0.14562
1575.55889,0.15233
1577.48736,0.14899
1579.41583,0.14050
1581.34430,0.13697
1583.27277,0.13769
1585.20124,0.13730
1587.12971,0.13355
1589.05818,0.13187
1590.98664,0.13621
1592.91511,0.14186
1594.84358,0.14371
1596.77205,0.14174
1598.70052,0.13999
1600.62899,0.13991
1602.55746,0.13874
1604.48592,0.13655
1606.41439,0.13610
1608.34286,0.13987
1610.27133,0.14658
1612.19980,0.14981
1614.12827,0.14873
1616.05674,0.14850
1617.98521,0.14702
1619.91367,0.14290
1621.84214,0.14230
1623.77061,0.14423
1625.69908,0.14455
1627.62755,0.14479
1629.55602,0.14574
1631.48449,0.14771
1633.41295,0.15238
1635.34142,0.15867
1637.26989,0.15687
1639.19836,0.15015
1641.12683,0.14675
1643.05530,0.14909
1644.98377,0.15828
1646.91223,0.17104
1648.84070,0.17617
1650.76917,0.18129
1652.69764,0.18870
1654.62611,0.17438
1656.55458,0.15941
1658.48305,0.15440
1660.41152,0.15483
1662.33998,0.15451
1664.26845,0.14867
1666.19692,0.14517
1668.12539,0.14814
1670.05386,0.15387
1671.98233,0.15523
1673.91080,0.15318
1675.83926,0.14985
1677.76773,0.14778
1679.69620,0.14952
1681.62467,0.15492
1683.55314,0.16327
1685.48161,0.16677
1687.41008,0.16308
1689.33855,0.15805
1691.26701,0.15191
1693.19548,0.14883
1695.12395,0.15337
1697.05242,0.16307
1698.98089,0.17331
1700.90936,0.17759
1702.83783,0.17158
1704.76629,0.16608
1706.69476,0.15929
1708.62323,0.14961
1710.55170,0.14523
1712.48017,0.14880
1714.40864,0.15696
1716.33711,0.16386
1718.26558,0.16016
1720.19404,0.15197
1722.12251,0.14697
1724.05098,0.14356
1725.97945,0.14193
1727.90792,0.14424
1729.83639,0.15008
1731.76486,0.15802
1733.69332,0.16545
1735.62179,0.16291
1737.55026,0.15523
1739.47873,0.15054
1741.40720,0.15211
1743.33567,0.15512
1745.26414,0.15361
1747.19261,0.15017
1749.12107,0.14827
1751.04954,0.14569
1752.97801,0.14265
1754.90648,0.14159
1756.83495,0.14309
1758.76342,0.14865
1760.69189,0.15615
1762.62035,0.15648
1764.54882,0.14973
1766.47729,0.14588
1768.40576,0.14716
1770.33423,0.15419
1772.26270,0.16145
1774.19117,0.15673
1776.11964,0.15022
1778.04810,0.14995
1779.97657,0.15204
1781.90504,0.15168
1783.83351,0.14907
1785.76198,0.14650
1787.69045,0.14595
1789.61892,0.14977
1791.54738,0.15567
1793.47585,0.15667
1795.40432,0.15490
1797.33279,0.15405
1799.26126,0.15293
1801.18973,0.15102
1803.11820,0.14772
1805.04666,0.14421
1806.97513,0.14304
1808.90360,0.14510
1810.83207,0.14852
1812.76054,0.14923
1814.68901,0.14739
1816.61748,0.14501
1818.54595,0.14891
1820.47441,0.15794
1822.40288,0.15558
1824.33135,0.14721
1826.25982,0.14853
1828.18829,0.15137
1830.11676,0.15042
1832.04523,0.14761
1833.97369,0.14529
1835.90216,0.14561
1837.83063,0.14547
1839.75910,0.14513
1841.68757,0.14869
1843.61604,0.15349
1845.54451,0.15291
1847.47298,0.14944
1849.40144,0.14634
1851.32991,0.14410
1853.25838,0.14247
1855.18685,0.14071
1857.11532,0.14320
1859.04379,0.15094
1860.97226,0.15471
1862.90072,0.15153
1864.82919,0.14929
1866.75766,0.15123
1868.68613,0.15235
1870.61460,0.14917
1872.54307,0.14614
1874.47154,0.14505
1876.40001,0.14392
1878.32847,0.14301
1880.25694,0.14333
1882.18541,0.14476
1884.11388,0.14702
1886.04235,0.14808
1887.97082,0.14684
1889.89929,0.14525
1891.82775,0.14605
1893.75622,0.14819
1895.68469,0.14725
1897.61316,0.14403
1899.54163,0.14247
1901.47010,0.14156
1903.39857,0.14052
1905.32704,0.14147
1907.25550,0.14584
1909.18397,0.14949
1911.11244,0.14813
1913.04091,0.14656
1914.96938,0.14879
1916.89785,0.15184
1918.82632,0.15149
1920.75478,0.14842
1922.68325,0.14492
1924.61172,0.14170
1926.54019,0.14079
1928.46866,0.14204
1930.39713,0.14271
1932.32560,0.14331
1934.25407,0.14470
1936.18253,0.14494
1938.11100,0.14537
1940.03947,0.14738
1941.96794,0.14975
1943.89641,0.15170
1945.82488,0.15018
1947.75335,0.14444
1949.68181,0.13991
1951.61028,0.14092
1953.53875,0.14442
1955.46722,0.14572
1957.39569,0.14552
1959.32416,0.14565
1961.25263,0.14660
1963.18110,0.14821
1965.10956,0.14899
1967.03803,0.14879
1968.96650,0.14778
1970.89497,0.14612
1972.82344,0.14500
1974.75191,0.14523
1976.68038,0.15401
1978.60884,0.16611
1980.53731,0.15932
1982.46578,0.14538
1984.39425,0.14734
1986.32272,0.15345
1988.25119,0.15368
1990.17966,0.15242
1992.10812,0.15173
1994.03659,0.15005
1995.96506,0.14625
1997.89353,0.14400
1999.82200,0.14551
2001.75047,0.14878
2003.67894,0.14984
2005.60741,0.14732
2007.53587,0.14523
2009.46434,0.14608
2011.39281,0.14836
2013.32128,0.15032
2015.24975,0.15097
2017.17822,0.14890
2019.10669,0.14479
2021.03515,0.14218
2022.96362,0.14314
2024.89209,0.14644
2026.82056,0.14870
2028.74903,0.14828
2030.67750,0.14754
2032.60597,0.14681
2034.53444,0.14365
2036.46290,0.14104
2038.39137,0.14227
2040.31984,0.14352
2042.24831,0.14335
2044.17678,0.14477
2046.10525,0.14614
2048.03372,0.14608
2049.96218,0.14736
2051.89065,0.14934
2053.81912,0.14983
2055.74759,0.14976
2057.67606,0.14942
2059.60453,0.14934
2061.53300,0.15093
2063.46147,0.15207
2065.38993,0.15067
2067.31840,0.14757
2069.24687,0.14526
2071.17534,0.14583
2073.10381,0.14597
2075.03228,0.14351
2076.96075,0.14282
2078.88921,0.14531
2080.81768,0.14757
2082.74615,0.14767
2084.67462,0.14564
2086.60309,0.14386
2088.53156,0.14477
2090.46003,0.14691
2092.38850,0.14836
2094.31696,0.14886
2096.24543,0.14979
2098.17390,0.15144
2100.10237,0.15156
2102.03084,0.15013
2103.95931,0.14807
2105.88778,0.14460
2107.81624,0.14193
2109.74471,0.14388
2111.67318,0.14769
2113.60165,0.14885
2115.53012,0.14867
2117.45859,0.14877
2119.38706,0.14889
2121.31553,0.14964
2123.24399,0.15051
2125.17246,0.15024
2127.10093,0.14909
2129.02940,0.14782
2130.95787,0.14671
2132.88634,0.14381
2134.81481,0.13856
2136.74327,0.13560
2138.67174,0.13803
2140.60021,0.14273
2142.52868,0.14482
2144.45715,0.14467
2146.38562,0.14506
2148.31409,0.14570
2150.24255,0.14621
2152.17102,0.14686
2154.09949,0.14714
2156.02796,0.14736
2157.95643,0.14924
2159.88490,0.15071
2161.81337,0.14908
2163.74184,0.14821
2165.67030,0.15019
2167.59877,0.15095
2169.52724,0.14927
2171.45571,0.14852
2173.38418,0.15010
2175.31265,0.15211
2177.24112,0.15176
2179.16958,0.14877
2181.09805,0.14618
2183.02652,0.14545
2184.95499,0.14663
2186.88346,0.14893
2188.81193,0.14963
2190.74040,0.14881
2192.66887,0.14787
2194.59733,0.14686
2196.52580,0.14673
2198.45427,0.14748
2200.38274,0.14777
2202.31121,0.14735
2204.23968,0.14671
2206.16815,0.14588
2208.09661,0.14471
2210.02508,0.14392
2211.95355,0.14410
2213.88202,0.14443
2215.81049,0.14423
2217.73896,0.14474
2219.66743,0.14739
2221.59590,0.15051
2223.52436,0.15148
2225.45283,0.15133
2227.38130,0.15163
2229.30977,0.15063
2231.23824,0.14816
2233.16671,0.14610
2235.09518,0.14441
2237.02364,0.14349
2238.95211,0.14489
2240.88058,0.14728
2242.80905,0.14780
2244.73752,0.14760
2246.66599,0.14838
2248.59446,0.14947
2250.52293,0.15158
2252.45139,0.15358
2254.37986,0.15360
2256.30833,0.15280
2258.23680,0.15157
2260.16527,0.15042
2262.09374,0.15000
2264.02221,0.14902
2265.95067,0.14643
2267.87914,0.14354
2269.80761,0.14288
2271.73608,0.14472
2273.66455,0.14579
2275.59302,0.14418
2277.52149,0.14281
2279.44996,0.14401
2281.37842,0.14640
2283.30689,0.14842
2285.23536,0.14976
2287.16383,0.15015
2289.09230,0.14977
2291.02077,0.14830
2292.94924,0.14599
2294.87770,0.14623
2296.80617,0.14740
2298.73464,0.14559
2300.66311,0.14382
2302.59158,0.14247
2304.52005,0.14040
2306.44852,0.13965
2308.37699,0.14043
2310.30545,0.14519
2312.23392,0.15142
2314.16239,0.14936
2316.09086,0.14167
2318.01933,0.13618
2319.94780,0.13433
2321.87627,0.13786
2323.80473,0.14027
2325.73320,0.13304
2327.66167,0.12588
2329.59014,0.12692
2331.51861,0.12557
2333.44708,0.12067
2335.37555,0.12132
2337.30401,0.12460
2339.23248,0.13242
2341.16095,0.14348
2343.08942,0.14826
2345.01789,0.14800
2346.94636,0.14328
2348.87483,0.13748
2350.80330,0.13829
2352.73176,0.14851
2354.66023,0.15705
2356.58870,0.15187
2358.51717,0.14060
2360.44564,0.13649
2362.37411,0.13864
2364.30258,0.13848
2366.23104,0.13266
2368.15951,0.12325
2370.08798,0.12541
2372.01645,0.13788
2373.94492,0.14405
2375.87339,0.14375
2377.80186,0.14423
2379.73033,0.14687
2381.65879,0.14828
2383.58726,0.14795
2385.51573,0.14996
2387.44420,0.15334
2389.37267,0.15317
2391.30114,0.14944
2393.22961,0.14610
2395.15807,0.14657
2397.08654,0.14923
2399.01501,0.14884
2400.94348,0.14585
2402.87195,0.14457
2404.80042,0.14398
2406.72889,0.14243
2408.65736,0.14368
2410.58582,0.14920
2412.51429,0.15465
2414.44276,0.15737
2416.37123,0.15658
2418.29970,0.15229
2420.22817,0.14746
2422.15664,0.14482
2424.08510,0.14554
2426.01357,0.14730
2427.94204,0.14631
2429.87051,0.14420
2431.79898,0.14475
2433.72745,0.14784
2435.65592,0.15012
2437.58439,0.14955
2439.51285,0.14782
2441.44132,0.14704
2443.36979,0.14819
2445.29826,0.15094
2447.22673,0.15109
2449.15520,0.14788
2451.08367,0.14798
2453.01213,0.15141
2454.94060,0.15085
2456.86907,0.14691
2458.79754,0.14605
2460.72601,0.14755
2462.65448,0.14734
2464.58295,0.14644
2466.51142,0.14693
2468.43988,0.14926
2470.36835,0.15171
2472.29682,0.15140
2474.22529,0.14876
2476.15376,0.14562
2478.08223,0.14217
2480.01070,0.14035
2481.93916,0.14197
2483.86763,0.14457
2485.79610,0.14646
2487.72457,0.14826
2489.65304,0.14960
2491.58151,0.15029
2493.50998,0.15114
2495.43844,0.15140
2497.36691,0.15073
2499.29538,0.15092
2501.22385,0.15134
2503.15232,0.15096
2505.08079,0.15063
2507.00926,0.15043
2508.93773,0.15020
2510.86619,0.15075
2512.79466,0.15330
2514.72313,0.15559
2516.65160,0.15447
2518.58007,0.15251
2520.50854,0.15179
2522.43701,0.15063
2524.36547,0.14906
2526.29394,0.14790
2528.22241,0.14770
2530.15088,0.14974
2532.07935,0.15328
2534.00782,0.15445
2535.93629,0.15286
2537.86476,0.15304
2539.79322,0.15402
2541.72169,0.15290
2543.65016,0.15213
2545.57863,0.15155
2547.50710,0.15002
2549.43557,0.14986
2551.36404,0.15065
2553.29250,0.15022
2555.22097,0.15003
2557.14944,0.15117
2559.07791,0.15141
2561.00638,0.15009
2562.93485,0.14874
2564.86332,0.14818
2566.79179,0.14871
2568.72025,0.14931
2570.64872,0.14777
2572.57719,0.14516
2574.50566,0.14481
2576.43413,0.14650
2578.36260,0.14736
2580.29107,0.14634
2582.21953,0.14551
2584.14800,0.14700
2586.07647,0.14939
2588.00494,0.15081
2589.93341,0.15206
2591.86188,0.15396
2593.79035,0.15572
2595.71882,0.15603
2597.64728,0.15463
2599.57575,0.15232
2601.50422,0.15058
2603.43269,0.14968
2605.36116,0.14830
2607.28963,0.14950
2609.21810,0.14803
2611.14656,0.13033
2613.07503,0.11593
2615.00350,0.13050
2616.93197,0.14942
2618.86044,0.15268
2620.78891,0.15570
2622.71738,0.15889
2624.64585,0.15492
2626.57431,0.15095
2628.50278,0.15052
2630.43125,0.15028
2632.35972,0.14966
2634.28819,0.14956
2636.21666,0.14894
2638.14513,0.14867
2640.07359,0.15181
2642.00206,0.15683
2643.93053,0.15818
2645.85900,0.15638
2647.78747,0.15628
2649.71594,0.15723
2651.64441,0.15647
2653.57288,0.15468
2655.50134,0.15341
2657.42981,0.15307
2659.35828,0.15413
2661.28675,0.15701
2663.21522,0.16040
2665.14369,0.16011
2667.07216,0.15586
2669.00062,0.15412
2670.92909,0.15516
2672.85756,0.15302
2674.78603,0.14828
2676.71450,0.14766
2678.64297,0.15250
2680.57144,0.15640
2682.49990,0.15689
2684.42837,0.15645
2686.35684,0.15673
2688.28531,0.15772
2690.21378,0.15701
2692.14225,0.15417
2694.07072,0.15237
2695.99919,0.15318
2697.92765,0.15436
2699.85612,0.15325
2701.78459,0.15207
2703.71306,0.15339
2705.64153,0.15442
2707.57000,0.15375
2709.49847,0.15506
2711.42693,0.15787
2713.35540,0.15810
2715.28387,0.15843
2717.21234,0.16127
2719.14081,0.16279
2721.06928,0.16068
2722.99775,0.15675
2724.92622,0.15405
2726.85468,0.15328
2728.78315,0.15343
2730.71162,0.15326
2732.64009,0.15213
2734.56856,0.15190
2736.49703,0.15355
2738.42550,0.15513
2740.35396,0.15557
2742.28243,0.15460
2744.21090,0.15261
2746.13937,0.15217
2748.06784,0.15390
2749.99631,0.15626
2751.92478,0.15820
2753.85325,0.15970
2755.78171,0.16201
2757.71018,0.16360
2759.63865,0.16187
2761.56712,0.15909
2763.49559,0.15720
2765.42406,0.15754
2767.35253,0.16073
2769.28099,0.15764
2771.20946,0.15389
2773.13793,0.16283
2775.06640,0.16496
2776.99487,0.15231
2778.92334,0.14580
2780.85181,0.14950
2782.78028,0.15495
2784.70874,0.15615
2786.63721,0.15416
2788.56568,0.15481
2790.49415,0.15683
2792.42262,0.15730
2794.35109,0.15779
2796.27956,0.15999
2798.20802,0.16237
2800.13649,0.16232
2802.06496,0.16018
2803.99343,0.15771
2805.92190,0.15497
2807.85037,0.15420
2809.77884,0.15754
2811.70731,0.16091
2813.63577,0.16019
2815.56424,0.15695
2817.49271,0.15420
2819.42118,0.15347
2821.34965,0.15535
2823.27812,0.15752
2825.20659,0.15745
2827.13505,0.15571
2829.06352,0.15443
2830.99199,0.15501
2832.92046,0.15743
2834.84893,0.16060
2836.77740,0.16214
2838.70587,0.16086
2840.63433,0.15800
2842.56280,0.15610
2844.49127,0.15558
2846.41974,0.15532
2848.34821,0.15631
2850.27668,0.15841
2852.20515,0.15956
2854.13362,0.15897
2856.06208,0.15776
2857.99055,0.15636
2859.91902,0.15413
2861.84749,0.15318
2863.77596,0.15546
2865.70443,0.15925
2867.63290,0.16286
2869.56136,0.16505
2871.48983,0.16423
2873.41830,0.16039
2875.34677,0.15549
2877.27524,0.15263
2879.20371,0.15244
2881.13218,0.15156
2883.06065,0.14905
2884.98911,0.14835
2886.91758,0.14971
2888.84605,0.15112
2890.77452,0.15285
2892.70299,0.15386
2894.63146,0.15359
2896.55993,0.15190
2898.48839,0.14954
2900.41686,0.15038
2902.34533,0.15355
2904.27380,0.15493
2906.20227,0.15571
2908.13074,0.15833
2910.05921,0.16086
2911.98768,0.16022
2913.91614,0.15615
2915.84461,0.15240
2917.77308,0.15053
2919.70155,0.14823
2921.63002,0.14817
2923.55849,0.15427
2925.48696,0.15386
2927.41542,0.13237
2929.34389,0.12053
2931.27236,0.14512
2933.20083,0.16542
2935.12930,0.15683
2937.05777,0.14827
2938.98624,0.15277
2940.91471,0.16075
2942.84317,0.16497
2944.77164,0.16132
2946.70011,0.15359
2948.62858,0.15072
2950.55705,0.15364
2952.48552,0.15576
2954.41399,0.15288
2956.34245,0.14568
2958.27092,0.13992
2960.19939,0.14168
2962.12786,0.14827
2964.05633,0.15369
2965.98480,0.15256
2967.91327,0.14599
2969.84174,0.14817
2971.77020,0.15893
2973.69867,0.16335
2975.62714,0.15924
2977.55561,0.15228
2979.48408,0.15076
2981.41255,0.15752
2983.34102,0.16240
2985.26948,0.15917
2987.19795,0.15316
2989.12642,0.15308
2991.05489,0.15934
2992.98336,0.16236
2994.91183,0.16158
2996.84030,0.16306
2998.76877,0.16315
3000.69723,0.16118
3002.62570,0.16130
3004.55417,0.15892
3006.48264,0.15121
3008.41111,0.14429
3010.33958,0.13856
3012.26805,0.12715
3014.19651,0.10705
3016.12498,0.09214
3018.05345,0.10621
3019.98192,0.13954
3021.91039,0.16027
3023.83886,0.16438
3025.76733,0.16182
3027.69579,0.15792
3029.62426,0.15782
3031.55273,0.16133
3033.48120,0.16378
3035.40967,0.16446
3037.33814,0.16590
3039.26661,0.16601
3041.19508,0.16356
3043.12354,0.16245
3045.05201,0.16055
3046.98048,0.15531
3048.90895,0.15286
3050.83742,0.15502
3052.76589,0.15650
3054.69436,0.15342
3056.62282,0.14870
3058.55129,0.15044
3060.47976,0.15656
3062.40823,0.16038
3064.33670,0.15973
3066.26517,0.15448
3068.19364,0.15220
3070.12211,0.15629
3072.05057,0.16066
3073.97904,0.15901
3075.90751,0.15257
3077.83598,0.15275
3079.76445,0.15858
3081.69292,0.15551
3083.62139,0.14546
3085.54985,0.15323
3087.47832,0.17641
3089.40679,0.17474
3091.33526,0.15128
3093.26373,0.13910
3095.19220,0.13977
3097.12067,0.14998
3099.04914,0.16488
3100.97760,0.16804
3102.90607,0.15798
3104.83454,0.15184
3106.76301,0.15664
3108.69148,0.15973
3110.61995,0.15300
3112.54842,0.14613
3114.47688,0.14903
3116.40535,0.15600
3118.33382,0.15515
3120.26229,0.14830
3122.19076,0.14784
3124.11923,0.15419
3126.04770,0.16036
3127.97617,0.16380
3129.90463,0.16305
3131.83310,0.16136
3133.76157,0.15882
3135.69004,0.15390
3137.61851,0.15160
3139.54698,0.15439
3141.47545,0.15910
3143.40391,0.16145
3145.33238,0.16243
3147.26085,0.16351
3149.18932,0.16311
3151.11779,0.16518
3153.04626,0.17018
3154.97473,0.17030
3156.90320,0.16695
3158.83166,0.16517
3160.76013,0.16280
3162.68860,0.16193
3164.61707,0.16660
3166.54554,0.17050
3168.47401,0.16839
3170.40248,0.16905
3172.33094,0.17379
3174.25941,0.17383
3176.18788,0.17214
3178.11635,0.17046
3180.04482,0.16568
3181.97329,0.16359
3183.90176,0.16808
3185.83022,0.17122
3187.75869,0.16672
3189.68716,0.16241
3191.61563,0.16271
3193.54410,0.16252
3195.47257,0.16426
3197.40104,0.16827
3199.32951,0.16935
3201.25797,0.17106
3203.18644,0.17485
3205.11491,0.17560
3207.04338,0.17148
3208.97185,0.16579
3210.90032,0.16337
3212.82879,0.16560
3214.75725,0.16981
3216.68572,0.17165
3218.61419,0.16989
3220.54266,0.16627
3222.47113,0.16292
3224.39960,0.15919
3226.32807,0.15452
3228.25654,0.15539
3230.18500,0.16107
3232.11347,0.16168
3234.04194,0.15963
3235.97041,0.16202
3237.89888,0.16480
3239.82735,0.16535
3241.75582,0.16851
3243.68428,0.17314
3245.61275,0.17292
3247.54122,0.17085
3249.46969,0.17235
3251.39816,0.17271
3253.32663,0.16746
3255.25510,0.15975
3257.18357,0.15504
3259.11203,0.15680
3261.04050,0.16239
3262.96897,0.16525
3264.89744,0.16198
3266.82591,0.15602
3268.75438,0.15594
3270.68285,0.16199
3272.61131,0.16475
3274.53978,0.16397
3276.46825,0.16462
3278.39672,0.16655
3280.32519,0.16887
3282.25366,0.16937
3284.18213,0.16713
3286.11060,0.16493
3288.03906,0.16492
3289.96753,0.16533
3291.89600,0.16540
3293.82447,0.16724
3295.75294,0.17003
3297.68141,0.17290
3299.60988,0.17462
3301.53834,0.17228
3303.46681,0.16837
3305.39528,0.16812
3307.32375,0.17084
3309.25222,0.17164
3311.18069,0.16997
3313.10916,0.16827
3315.03763,0.16405
3316.96609,0.15689
3318.89456,0.15262
3320.82303,0.15493
3322.75150,0.16386
3324.67997,0.17313
3326.60844,0.17509
3328.53691,0.17215
3330.46537,0.17083
3332.39384,0.17276
3334.32231,0.17357
3336.25078,0.17023
3338.17925,0.16675
3340.10772,0.16648
3342.03619,0.16662
3343.96466,0.16365
3345.89312,0.15986
3347.82159,0.15971
3349.75006,0.16320
3351.67853,0.16646
3353.60700,0.16663
3355.53547,0.16493
3357.46394,0.16475
3359.39240,0.16927
3361.32087,0.17425
3363.24934,0.17111
3365.17781,0.16288
3367.10628,0.15823
3369.03475,0.15885
3370.96322,0.16290
3372.89168,0.16655
3374.82015,0.16503
3376.74862,0.15968
3378.67709,0.15840
3380.60556,0.16588
3382.53403,0.17452
3384.46250,0.17315
3386.39097,0.16496
3388.31943,0.16121
3390.24790,0.16126
3392.17637,0.15995
3394.10484,0.16198
3396.03331,0.16708
3397.96178,0.16628
3399.89025,0.15403
3401.81871,0.12689
3403.74718,0.09676
3405.67565,0.09555
3407.60412,0.13338
3409.53259,0.16785
3411.46106,0.16856
3413.38953,0.16124
3415.31800,0.16009
3417.24646,0.15807
3419.17493,0.15712
3421.10340,0.15703
3423.03187,0.15576
3424.96034,0.15156
3426.88881,0.14675
3428.81728,0.14600
3430.74574,0.14889
3432.67421,0.15072
3434.60268,0.14920
3436.53115,0.14908
3438.45962,0.15168
3440.38809,0.15378
3442.31656,0.15455
3444.24503,0.15574
3446.17349,0.15719
3448.10196,0.15368
3450.03043,0.14779
3451.95890,0.14901
3453.88737,0.15412
3455.81584,0.15587
3457.74431,0.15735
3459.67277,0.15895
3461.60124,0.15910
3463.52971,0.15895
3465.45818,0.15439
3467.38665,0.14790
3469.31512,0.14726
3471.24359,0.14909
3473.17206,0.14800
3475.10052,0.14683
3477.02899,0.14975
3478.95746,0.15554
3480.88593,0.15741
3482.81440,0.15012
3484.74287,0.14312
3486.67134,0.14530
3488.59980,0.14802
3490.52827,0.14704
3492.45674,0.14644
3494.38521,0.14496
3496.31368,0.14372
3498.24215,0.14533
3500.17062,0.14908
3502.09909,0.15146
3504.02755,0.14886
3505.95602,0.14472
3507.88449,0.14219
3509.81296,0.13994
3511.74143,0.13923
3513.66990,0.14025
3515.59837,0.13854
3517.52683,0.13455
3519.45530,0.13395
3521.38377,0.13801
3523.31224,0.14202
3525.24071,0.14110
3527.16918,0.13810
3529.09765,0.13677
3531.02611,0.13552
3532.95458,0.13683
3534.88305,0.14188
3536.81152,0.14360
3538.73999,0.13803
3540.66846,0.13114
3542.59693,0.12923
3544.52540,0.13121
3546.45386,0.13487
3548.38233,0.13752
3550.31080,0.13540
3552.23927,0.13416
3554.16774,0.13762
3556.09621,0.13690
3558.02468,0.12737
3559.95314,0.12119
3561.88161,0.13062
3563.81008,0.13947
3565.73855,0.13372
3567.66702,0.13036
3569.59549,0.13159
3571.52396,0.12780
3573.45243,0.12548
3575.38089,0.12527
3577.30936,0.12374
3579.23783,0.12036
3581.16630,0.11639
3583.09477,0.11682
3585.02324,0.12292
3586.95171,0.12764
3588.88017,0.12236
3590.80864,0.11494
3592.73711,0.11470
3594.66558,0.12094
3596.59405,0.12745
3598.52252,0.13029
3600.45099,0.12930
3602.37946,0.12566
3604.30792,0.12327
3606.23639,0.12417
3608.16486,0.12577
3610.09333,0.12888
3612.02180,0.13403
3613.95027,0.13495
3615.87874,0.13417
3617.80720,0.13768
3619.73567,0.13609
3621.66414,0.12518
3623.59261,0.11859
3625.52108,0.11957
3627.44955,0.12485
3629.37802,0.13088
3631.30649,0.13061
3633.23495,0.12744
3635.16342,0.12267
3637.09189,0.11470
3639.02036,0.10891
3640.94883,0.11006
3642.87730,0.11521
3644.80577,0.12165
3646.73423,0.12766
3648.66270,0.12920
3650.59117,0.12696
3652.51964,0.12193
3654.44811,0.11570
3656.37658,0.11304
3658.30505,0.11424
3660.23352,0.11554
3662.16198,0.11653
3664.09045,0.11635
3666.01892,0.11556
3667.94739,0.11653
3669.87586,0.11490
3671.80433,0.11092
3673.73280,0.11628
3675.66126,0.12427
3677.58973,0.11930
3679.51820,0.11322
3681.44667,0.11209
3683.37514,0.11408
3685.30361,0.11738
3687.23208,0.12152
3689.16055,0.12581
3691.08901,0.11916
3693.01748,0.10400
3694.94595,0.09555
3696.87442,0.09682
3698.80289,0.09997
3700.73136,0.10054
3702.65983,0.10185
3704.58829,0.10348
3706.51676,0.10636
3708.44523,0.11457
3710.37370,0.12466
3712.30217,0.12483
3714.23064,0.11832
3716.15911,0.11391
3718.08757,0.10787
3720.01604,0.10009
3721.94451,0.09893
3723.87298,0.10690
3725.80145,0.11326
3727.72992,0.10803
3729.65839,0.10265
3731.58686,0.10824
3733.51532,0.11634
3735.44379,0.11417
3737.37226,0.11169
3739.30073,0.11483
3741.22920,0.11645
3743.15767,0.11642
3745.08614,0.11772
3747.01460,0.11829
3748.94307,0.12248
3750.87154,0.12920
3752.80001,0.12822
3754.72848,0.12509
3756.65695,0.11911
3758.58542,0.10920
3760.51389,0.10455
3762.44235,0.10481
3764.37082,0.10414
3766.29929,0.10423
3768.22776,0.10746
3770.15623,0.11015
3772.08470,0.11106
3774.01317,0.11500
3775.94163,0.11883
3777.87010,0.11474
3779.79857,0.10252
3781.72704,0.09502
3783.65551,0.09768
3785.58398,0.10227
3787.51245,0.10182
3789.44092,0.09864
3791.36938,0.09658
3793.29785,0.09684
3795.22632,0.09916
3797.15479,0.10004
3799.08326,0.09859
3801.01173,0.10213
3802.94020,0.10716
3804.86866,0.10701
3806.79713,0.10662
3808.72560,0.10486
3810.65407,0.10210
3812.58254,0.10082
3814.51101,0.10268
3816.43948,0.10804
3818.36795,0.11350
3820.29641,0.12153
3822.22488,0.12470
3824.15335,0.11698
3826.08182,0.10734
3828.01029,0.09957
3829.93876,0.09940
3831.86723,0.10644
3833.79569,0.11124
3835.72416,0.11171
3837.65263,0.11153
3839.58110,0.10978
3841.50957,0.10935
3843.43804,0.10988
3845.36651,0.10744
3847.29498,0.10593
3849.22344,0.10877
3851.15191,0.11409
3853.08038,0.11618
3855.00885,0.10901
3856.93732,0.10442
3858.86579,0.10493
3860.79426,0.10825
3862.72272,0.11637
3864.65119,0.12517
3866.57966,0.12439
3868.50813,0.11812
3870.43660,0.11007
3872.36507,0.10414
3874.29354,0.10604
3876.22200,0.11806
3878.15047,0.13631
3880.07894,0.15083
3882.00741,0.14656
3883.93588,0.12097
3885.86435,0.09298
3887.79282,0.08952
3889.72129,0.09862
3891.64975,0.10491
3893.57822,0.10346
3895.50669,0.09817
3897.43516,0.09511
3899.36363,0.09501
3901.29210,0.09704
3903.22057,0.09889
3905.14903,0.10120
3907.07750,0.10359
3909.00597,0.10503
3910.93444,0.10558
3912.86291,0.10388
3914.79138,0.10042
3916.71985,0.09804
3918.64832,0.09825
3920.57678,0.09728
3922.50525,0.09597
3924.43372,0.09589
3926.36219,0.09191
3928.29066,0.08839
3930.21913,0.09269
3932.14760,0.09684
3934.07606,0.09276
3936.00453,0.08830
3937.93300,0.08914
3939.86147,0.09493
3941.78994,0.10092
3943.71841,0.10117
3945.64688,0.09829
3947.57535,0.09439
3949.50381,0.08922
3951.43228,0.08797
3953.36075,0.09111
3955.28922,0.09153
3957.21769,0.08630
3959.14616,0.08231
3961.07463,0.08626
3963.00309,0.09341
3964.93156,0.09484
3966.86003,0.09178
3968.78850,0.08985
3970.71697,0.08940
3972.64544,0.08883
3974.57391,0.08947
3976.50238,0.09059
3978.43084,0.08817
3980.35931,0.08794
3982.28778,0.09350
3984.21625,0.09533
3986.14472,0.09514
3988.07319,0.09776
3990.00166,0.09567
3991.93012,0.09083
3993.85859,0.08974
3995.78706,0.09062
3997.71553,0.09319
3999.64400,0.09410
4001.57247,0.08987
4003.50094,0.08469
4005.42941,0.08195
4007.35787,0.08150
4009.28634,0.08316
4011.21481,0.08634
4013.14328,0.08951
4015.07175,0.08977
4017.00022,0.08363
4018.92869,0.07632
4020.85715,0.07814
4022.78562,0.08447
4024.71409,0.08535
4026.64256,0.08523
4028.57103,0.08902
4030.49950,0.09003
4032.42797,0.09326
4034.35644,0.10430
4036.28490,0.10642
4038.21337,0.10642
4040.14184,0.11858
4042.07031,0.11102
4043.99878,0.08269
4045.92725,0.07745
4047.85572,0.08701
4049.78418,0.08344
4051.71265,0.07451
4053.64112,0.07166
4055.56959,0.07765
4057.49806,0.08560
4059.42653,0.08792
4061.35500,0.08432
4063.28346,0.07980
4065.21193,0.08284
4067.14040,0.09028
4069.06887,0.09008
4070.99734,0.08079
4072.92581,0.07415
4074.85428,0.07588
4076.78275,0.07784
4078.71121,0.07420
4080.63968,0.06827
4082.56815,0.06768
4084.49662,0.07519
4086.42509,0.08436
4088.35356,0.08962
4090.28203,0.08927
4092.21049,0.08219
4094.13896,0.07478
4096.06743,0.07386
4097.99590,0.07700
4099.92437,0.07764
4101.85284,0.06969
4103.78131,0.06264
4105.70978,0.06859
4107.63824,0.07758
4109.56671,0.08036
4111.49518,0.08039
4113.42365,0.08112
4115.35212,0.08141
4117.28059,0.07725
4119.20906,0.07022
4121.13752,0.06728
4123.06599,0.06895
4124.99446,0.06954
4126.92293,0.06798
4128.85140,0.06872
4130.77987,0.07186
4132.70834,0.07534
4134.63681,0.08012
4136.56527,0.08102
4138.49374,0.07536
4140.42221,0.07314
4142.35068,0.07697
4144.27915,0.07503
4146.20762,0.06567
4148.13609,0.06300
4150.06455,0.06908
4151.99302,0.07131
4153.92149,0.06648
4155.84996,0.06426
4157.77843,0.06661
4159.70690,0.06721
4161.63537,0.06785
4163.56384,0.06958
4165.49230,0.06805
4167.42077,0.06220
4169.34924,0.05747
4171.27771,0.05934
4173.20618,0.06354
4175.13465,0.06613
4177.06312,0.06701
4178.99158,0.06577
4180.92005,0.06371
4182.84852,0.06127
4184.77699,0.05996
4186.70546,0.06107
4188.63393,0.06405
4190.56240,0.06595
4192.49087,0.05982
4194.41933,0.05305
4196.34780,0.05691
4198.27627,0.05921
4200.20474,0.05725
4202.13321,0.06329
4204.06168,0.07011
4205.99015,0.06872
4207.91861,0.06488
4209.84708,0.06469
4211.77555,0.06428
4213.70402,0.06046
4215.63249,0.05629
4217.56096,0.05301
4219.48943,0.05392
4221.41789,0.05920
4223.34636,0.06235
4225.27483,0.06180
4227.20330,0.06083
4229.13177,0.06114
4231.06024,0.06420
4232.98871,0.07070
4234.91718,0.07662
4236.84564,0.07726
4238.77411,0.07148
4240.70258,0.06175
4242.63105,0.05520
4244.55952,0.05698
4246.48799,0.06249
4248.41646,0.06288
4250.34492,0.05857
4252.27339,0.05836
4254.20186,0.06030
4256.13033,0.05672
4258.05880,0.05192
4259.98727,0.05154
4261.91574,0.05512
4263.84421,0.06057
4265.77267,0.06431
4267.70114,0.06486
4269.62961,0.06330
4271.55808,0.05575
4273.48655,0.04034
4275.41502,0.02970
4277.34349,0.03450
4279.27195,0.04771
4281.20042,0.05562
4283.12889,0.05446
4285.05736,0.05176
4286.98583,0.05089
4288.91430,0.05101
4290.84277,0.05157
4292.77124,0.04659
4294.69970,0.03593
4296.62817,0.03075
4298.55664,0.03525
4300.48511,0.04476
4302.41358,0.05594
4304.34205,0.06033
4306.27052,0.05479
4308.19898,0.05156
4310.12745,0.05364
4312.05592,0.05467
4313.98439,0.05249
4315.91286,0.04529
4317.84133,0.03884
4319.76980,0.04187
4321.69827,0.05029
4323.62673,0.05859
4325.55520,0.06592
4327.48367,0.06374
4329.41214,0.05073
4331.34061,0.03992
4333.26908,0.03699
4335.19755,0.03987
4337.12601,0.04477
4339.05448,0.04735
4340.98295,0.04766
4342.91142,0.04682
4344.83989,0.04808
4346.76836,0.04875
4348.69683,0.04375
4350.62530,0.05375
4352.55376,0.08485
4354.48223,0.09785
4356.41070,0.07332
4358.33917,0.03855
4360.26764,0.02865
4362.19611,0.03940
4364.12458,0.04249
4366.05304,0.03856
4367.98151,0.03672
4369.90998,0.04002
4371.83845,0.04954
4373.76692,0.05542
4375.69539,0.05400
4377.62386,0.05337
4379.55232,0.05340
4381.48079,0.04410
4383.40926,0.03375
4385.33773,0.03299
4387.26620,0.03251
4389.19467,0.02881
4391.12314,0.03012
4393.05161,0.03953
4394.98007,0.04894
4396.90854,0.05344
4398.83701,0.05297
4400.76548,0.04552
4402.69395,0.03840
4404.62242,0.03739
4406.55089,0.03854
4408.47935,0.04010
4410.40782,0.04126
4412.33629,0.04080
4414.26476,0.03797
4416.19323,0.03353
4418.12170,0.03184
4420.05017,0.03327
4421.97864,0.03362
4423.90710,0.03241
4425.83557,0.03233
4427.76404,0.02946
4429.69251,0.02168
4431.62098,0.01765
4433.54945,0.01797
4435.47792,0.01761
4437.40638,0.01855
4439.33485,0.02509
4441.26332,0.03398
4443.19179,0.03684
4445.12026,0.03430
4447.04873,0.02581
4448.97720,0.01225
4450.90567,0.00939
4452.83413,0.02244
4454.76260,0.03195
4456.69107,0.03032
4458.61954,0.02596
4460.54801,0.02203
4462.47648,0.02577
4464.40495,0.03305
4466.33341,0.03289
4468.26188,0.03019
4470.19035,0.02571
4472.11882,0.01783
4474.04729,0.01440
4475.97576,0.01898
4477.90423,0.02349
4479.83270,0.02482
4481.76116,0.02480
4483.68963,0.02119
4485.61810,0.01853
4487.54657,0.02043
4489.47504,0.02098
4491.40351,0.01928
4493.33198,0.02150
4495.26044,0.02743
4497.18891,0.02806
4499.11738,0.01945
4501.04585,0.01400
4502.97432,0.01703
4504.90279,0.01632
4506.83126,0.00676
4508.75973,0.00210
4510.68819,0.02028
4512.61666,0.03910
4514.54513,0.02500
4516.47360,0.00085
4518.40207,-0.00507
4520.33054,-0.00362
4522.25901,-0.00192
4524.18747,0.00424
4526.11594,0.00626
4528.04441,0.00109
4529.97288,-0.00312
4531.90135,-0.00326
4533.82982,0.00345
4535.75829,0.01700
4537.68676,0.03021
4539.61522,0.03571
4541.54369,0.03347
4543.47216,0.03065
4545.40063,0.03325
4547.32910,0.03655
4549.25757,0.02839
4551.18604,0.00966
4553.11450,-0.00147
4555.04297,0.00165
4556.97144,0.00666
4558.89991,0.01032
4560.82838,0.01190
4562.75685,0.00563
4564.68532,-0.00130
4566.61378,0.00019
4568.54225,0.01031
4570.47072,0.02340
4572.39919,0.02668
4574.32766,0.02031
4576.25613,0.02016
4578.18460,0.02198
4580.11307,0.01281
4582.04153,0.00259
4583.97000,-0.00150
4585.89847,-0.00386
4587.82694,-0.00254
4589.75541,-0.00161
4591.68388,-0.00917
4593.61235,-0.01622
4595.54081,-0.00688
4597.46928,0.01664
4599.39775,0.03434
4601.32622,0.03682
4603.25469,0.03074
4605.18316,0.02137
4607.11163,0.01380
4609.04010,0.01535
4610.96856,0.02529
4612.89703,0.03038
4614.82550,0.02357
4616.75397,0.01315
4618.68244,0.00864
4620.61091,0.00832
4622.53938,0.00785
4624.46784,0.01374
4626.39631,0.02677
4628.32478,0.03313
4630.25325,0.02079
4632.18172,0.00179
4634.11019,-0.00377
4636.03866,-0.00777
4637.96713,-0.01389
4639.89559,-0.00525
4641.82406,0.00754
4643.75253,0.00970
4645.68100,0.00874
4647.60947,0.00817
4649.53794,0.00635
4651.46641,0.00732
4653.39487,0.00836
4655.32334,0.00504
4657.25181,0.00613
4659.18028,0.01762
4661.10875,0.03083
4663.03722,0.03391
4664.96569,0.02498
4666.89416,0.03131
4668.82262,0.06524
4670.75109,0.08221
4672.67956,0.06609
4674.60803,0.03999
4676.53650,0.01378
4678.46497,0.00426
4680.39344,0.01204
4682.32190,0.01700
4684.25037,0.01247
4686.17884,0.00429
4688.10731,0.00212
4690.03578,0.00352
4691.96425,0.00205
4693.89272,-0.00148
4695.82119,-0.00439
4697.74965,-0.00082
4699.67812,0.00749
4701.60659,0.01267
4703.53506,0.01751
4705.46353,0.02608
4707.39200,0.03286
4709.32047,0.02923
4711.24893,0.01049
4713.17740,-0.00980
4715.10587,-0.01112
4717.03434,0.00057
4718.96281,0.00346
4720.89128,-0.00449
4722.81975,-0.00943
4724.74821,-0.01087
4726.67668,-0.01351
4728.60515,-0.00989
4730.53362,-0.00051
4732.46209,0.00554
4734.39056,0.00885
4736.31903,0.01261
4738.24750,0.01729
4740.17596,0.02187
4742.10443,0.02256
4744.03290,0.02202
4745.96137,0.02818
4747.88984,0.03930
4749.81831,0.03871
4751.74678,0.02096
4753.67524,0.00497
4755.60371,0.00373
4757.53218,0.00936
4759.46065,0.00823
4761.38912,0.00726
4763.31759,0.01782
4765.24606,0.02623
4767.17453,0.01704
4769.10299,-0.00571
4771.03146,-0.01854
4772.95993,-0.00671
4774.88840,0.00833
4776.81687,0.00342
4778.74534,-0.01353
4780.67381,-0.02269
4782.60227,-0.01234
4784.53074,0.00933
4786.45921,0.01896
4788.38768,0.01911
4790.31615,0.02185
4792.24462,0.01743
4794.17309,0.00562
4796.10156,0.00221
4798.03002,0.00809
4799.95849,0.00773
4801.88696,0.00179
4803.81543,-0.00338
4805.74390,-0.00658
4807.67237,-0.00183
4809.60084,0.00325
4811.52930,0.00793
4813.45777,0.02125
4815.38624,0.02733
4817.31471,0.01651
4819.24318,0.00729
4821.17165,0.01260
4823.10012,0.02170
4825.02859,0.00579
4826.95705,-0.02686
4828.88552,-0.03130
4830.81399,-0.01368
4832.74246,-0.00312
4834.67093,0.00230
4836.59940,0.00878
4838.52787,0.01188
4840.45633,0.00778
4842.38480,0.00196
4844.31327,0.00298
4846.24174,0.00947
4848.17021,0.01244
4850.09868,0.01687
4852.02715,0.02901
4853.95562,0.03721
4855.88408,0.03064
4857.81255,0.00852
4859.74102,-0.01400
4861.66949,-0.01298
4863.59796,0.01191
4865.52643,0.03378
4867.45490,0.03107
4869.38336,0.01380
4871.31183,0.00712
4873.24030,0.01671
4875.16877,0.02794
4877.09724,0.02976
4879.02571,0.02445
4880.95418,0.02022
4882.88265,0.02002
4884.81111,0.01463
4886.73958,0.00323
4888.66805,0.00135
4890.59652,0.00990
4892.52499,0.01347
4894.45346,0.00892
4896.38193,0.00807
4898.31039,0.01229
4900.23886,0.01159
4902.16733,0.00804
4904.09580,0.00966
4906.02427,0.01546
4907.95274,0.01830
4909.88121,0.01706
4911.80967,0.01239
4913.73814,0.00332
4915.66661,-0.00217
4917.59508,-0.00197
4919.52355,-0.00501
4921.45202,-0.00513
4923.38049,0.00592
4925.30896,0.01239
4927.23742,0.00518
4929.16589,-0.00333
4931.09436,-0.00383
4933.02283,0.00170
4934.95130,0.00583
4936.87977,0.00545
4938.80824,0.00672
4940.73670,0.01712
4942.66517,0.02484
4944.59364,0.02209
4946.52211,0.02375
4948.45058,0.02743
4950.37905,0.01722
4952.30752,0.00390
4954.23599,0.00537
4956.16445,0.01252
4958.09292,0.01706
4960.02139,0.01712
4961.94986,0.00834
4963.87833,0.01072
4965.80680,0.03025
4967.73527,0.03946
4969.66373,0.03583
4971.59220,0.03501
4973.52067,0.03491
4975.44914,0.02795
4977.37761,0.01736
4979.30608,0.01175
4981.23455,0.01625
4983.16302,0.02673
4985.09148,0.03325
4987.01995,0.03322
4988.94842,0.02078
4990.87689,-0.00507
4992.80536,-0.01297
4994.73383,0.00419
4996.66230,0.01373
4998.59076,0.01616
5000.51923,0.01992
5002.44770,0.01835
5004.37617,0.01722
5006.30464,0.01865
5008.23311,0.01915
5010.16158,0.01816
5012.09005,0.01425
5014.01851,0.00544
5015.94698,-0.00365
5017.87545,-0.00396
5019.80392,-0.00287
5021.73239,-0.00660
5023.66086,-0.00500
5025.58933,0.00066
5027.51779,-0.00041
5029.44626,-0.00938
5031.37473,-0.02162
5033.30320,-0.02751
5035.23167,-0.02105
5037.16014,-0.01207
5039.08861,-0.00349
5041.01708,0.01144
5042.94554,0.01860
5044.87401,0.00611
5046.80248,-0.00548
5048.73095,0.00873
5050.65942,0.03739
5052.58789,0.04335
5054.51636,0.02634
5056.44482,0.01683
5058.37329,0.01872
5060.30176,0.02112
5062.23023,0.01763
5064.15870,0.00617
5066.08717,-0.00373
5068.01564,-0.00229
5069.94410,0.00876
5071.87257,0.01746
5073.80104,0.01408
5075.72951,0.00532
5077.65798,0.00457
5079.58645,0.01734
5081.51492,0.03335
5083.44339,0.03426
5085.37185,0.02389
5087.30032,0.02097
5089.22879,0.02674
5091.15726,0.02686
5093.08573,0.02008
5095.01420,0.03187
5096.94267,0.06274
5098.87113,0.07219
5100.79960,0.05635
5102.72807,0.04668
5104.65654,0.05014
5106.58501,0.06013
5108.51348,0.06790
5110.44195,0.05761
5112.37042,0.03385
5114.29888,0.02469
5116.22735,0.03394
5118.15582,0.03815
5120.08429,0.02728
5122.01276,0.00827
5123.94123,-0.00368
5125.86970,0.00373
5127.79816,0.01295
5129.72663,0.00929
5131.65510,0.00924
5133.58357,0.01622
5135.51204,0.02117
5137.44051,0.02452
5139.36898,0.03011
5141.29745,0.05254
5143.22591,0.09381
5145.15438,0.12750
5147.08285,0.13999
5149.01132,0.11985
5150.93979,0.06420
5152.86826,0.02345
5154.79673,0.02669
5156.72519,0.04381
5158.65366,0.04020
5160.58213,0.01381
5162.51060,0.00182
5164.43907,0.01984
5166.36754,0.03536
5168.29601,0.03494
5170.22448,0.03790
5172.15294,0.05301
5174.08141,0.05538
5176.00988,0.03520
5177.93835,0.02488
5179.86682,0.04073
5181.79529,0.05264
5183.72376,0.03272
5185.65222,0.00819
5187.58069,0.01920
5189.50916,0.03450
5191.43763,0.02645
5193.36610,0.03102
5195.29457,0.04922
5197.22304,0.04830
5199.15151,0.04426
5201.07997,0.05518
5203.00844,0.06702
5204.93691,0.07624
5206.86538,0.08065
5208.79385,0.07173
5210.72232,0.06034
5212.65079,0.05340
5214.57925,0.04656
5216.50772,0.04445
5218.43619,0.04329
5220.36466,0.02686
5222.29313,0.00705
5224.22160,0.00573
5226.15007,0.02012
5228.07854,0.03747
5230.00700,0.04726
5231.93547,0.04780
5233.86394,0.04964
5235.79241,0.04639
5237.72088,0.02906
5239.64935,0.01577
5241.57782,0.01776
5243.50628,0.02483
5245.43475,0.03030
5247.36322,0.03577
5249.29169,0.03493
5251.22016,0.02207
5253.14863,0.00966
5255.07710,0.01172
5257.00556,0.02227
5258.93403,0.02277
5260.86250,0.01289
5262.79097,0.00911
5264.71944,0.01754
5266.64791,0.02593
5268.57638,0.03595
5270.50485,0.05350
5272.43331,0.05674
5274.36178,0.04570
5276.29025,0.05041
5278.21872,0.07057
5280.14719,0.07457
5282.07566,0.05174
5284.00413,0.03501
5285.93259,0.04515
5287.86106,0.06177
5289.78953,0.07729
5291.71800,0.09129
5293.64647,0.08439
5295.57494,0.06182
5297.50341,0.04788
5299.43188,0.04505
5301.36034,0.02897
5303.28881,-0.01115
5305.21728,-0.03215
5307.14575,-0.00265
5309.07422,0.02627
5311.00269,0.01573
5312.93116,0.00283
5314.85962,0.00866
5316.78809,0.02456
5318.71656,0.04188
5320.64503,0.04125
5322.57350,0.02814
5324.50197,0.03415
5326.43044,0.06160
5328.35891,0.08186
5330.28737,0.08064
5332.21584,0.07062
5334.14431,0.06153
5336.07278,0.04712
5338.00125,0.02135
5339.92972,0.00422
5341.85819,0.00658
5343.78665,0.01107
5345.71512,0.01346
5347.64359,0.01924
5349.57206,0.03206
5351.50053,0.05208
5353.42900,0.05305
5355.35747,0.02857
5357.28594,0.01780
5359.21440,0.02408
5361.14287,0.03172
5363.07134,0.04116
5364.99981,0.05640
5366.92828,0.06799
5368.85675,0.05817
5370.78522,0.03932
5372.71368,0.03436
5374.64215,0.03663
5376.57062,0.04078
5378.49909,0.05932
5380.42756,0.08099
5382.35603,0.08660
5384.28450,0.08846
5386.21297,0.09245
5388.14143,0.07380
5390.06990,0.04890
5391.99837,0.04929
5393.92684,0.07178
5395.85531,0.09289
5397.78378,0.09213
5399.71225,0.06487
5401.64071,0.04081
5403.56918,0.03767
5405.49765,0.03995
5407.42612,0.05335
5409.35459,0.08293
5411.28306,0.09820
5413.21153,0.07931
5415.13999,0.06023
5417.06846,0.06378
5418.99693,0.06755
5420.92540,0.06338
5422.85387,0.06570
5424.78234,0.07367
5426.71081,0.07849
5428.63928,0.08912
5430.56774,0.09866
5432.49621,0.06860
5434.42468,0.01559
5436.35315,0.00829
5438.28162,0.03312
5440.21009,0.04898
5442.13856,0.06061
5444.06702,0.06271
5445.99549,0.05347
5447.92396,0.05084
5449.85243,0.04324
5451.78090,0.02626
5453.70937,0.03626
5455.63784,0.08091
5457.56631,0.12383
5459.49477,0.16055
5461.42324,0.19239
5463.35171,0.18775
5465.28018,0.15409
5467.20865,0.10330
5469.13712,0.04643
5471.06559,0.03270
5472.99405,0.05263
5474.92252,0.07409
5476.85099,0.10006
5478.77946,0.09544
5480.70793,0.04729
5482.63640,0.01009
5484.56487,0.00077
5486.49334,-0.00483
5488.42180,0.01847
5490.35027,0.06852
5492.27874,0.07548
5494.20721,0.04299
5496.13568,0.04169
5498.06415,0.07823
5499.99262,0.10971
5501.92108,0.11153
5503.84955,0.08897
5505.77802,0.06003
5507.70649,0.05880
5509.63496,0.07362
5511.56343,0.05903
5513.49190,0.02613
5515.42037,0.01050
5517.34883,0.00869
5519.27730,0.01440
5521.20577,0.03767
5523.13424,0.06633
5525.06271,0.07452
5526.99118,0.06488
5528.91965,0.06248
5530.84811,0.06942
5532.77658,0.06613
5534.70505,0.05896
5536.63352,0.05742
5538.56199,0.05214
5540.49046,0.03953
5542.41893,0.03695
5544.34740,0.06695
5546.27586,0.09889
5548.20433,0.09289
5550.13280,0.07834
5552.06127,0.06847
5553.98974,0.03513
5555.91821,0.01089
5557.84668,0.04251
5559.77514,0.08686
5561.70361,0.09753
5563.63208,0.08375
5565.56055,0.07517
5567.48902,0.07905
5569.41749,0.07432
5571.34596,0.05569
5573.27443,0.04111
5575.20289,0.05887
5577.13136,0.08520
5579.05983,0.07748
5580.98830,0.06694
5582.91677,0.08323
5584.84524,0.08868
5586.77371,0.07214
5588.70217,0.06413
5590.63064,0.06993
5592.55911,0.08018
5594.48758,0.08960
5596.41605,0.08482
5598.34452,0.06731
5600.27299,0.05991
5602.20145,0.06721
5604.12992,0.06382
5606.05839,0.03758
5607.98686,0.00888
5609.91533,0.00301
5611.84380,0.01556
5613.77227,0.03314
5615.70074,0.03658
5617.62920,0.01049
5619.55767,-0.00867
5621.48614,-0.00012
5623.41461,0.02035
5625.34308,0.04297
5627.27155,0.04598
5629.20002,0.04478
5631.12848,0.06095
5633.05695,0.06066
5634.98542,0.04768
5636.91389,0.05574
5638.84236,0.06508
5640.77083,0.05631
5642.69930,0.04348
5644.62777,0.04444
5646.55623,0.03854
5648.48470,0.00430
5650.41317,0.00012
5652.34164,0.05760
5654.27011,0.10105
5656.19858,0.07631
5658.12705,0.04218
5660.05551,0.05971
5661.98398,0.09429
5663.91245,0.10113
5665.84092,0.09469
5667.76939,0.08915
5669.69786,0.07792
5671.62633,0.06590
5673.55480,0.05680
5675.48326,0.05369
5677.41173,0.06607
5679.34020,0.07170
5681.26867,0.05051
5683.19714,0.04931
5685.12561,0.08469
5687.05408,0.08854
5688.98254,0.04291
5690.91101,0.01147
5692.83948,0.02094
5694.76795,0.03354
5696.69642,0.03039
5698.62489,0.03363
5700.55336,0.05356
5702.48183,0.07889
5704.41029,0.09342
5706.33876,0.09406
5708.26723,0.08276
5710.19570,0.06722
5712.12417,0.05739
5714.05264,0.04467
5715.98111,0.03282
5717.90957,0.04743
5719.83804,0.07500
5721.76651,0.08836
5723.69498,0.10247
5725.62345,0.11896
5727.55192,0.12624
5729.48039,0.11922
5731.40886,0.09313
5733.33732,0.06575
5735.26579,0.05880
5737.19426,0.06750
5739.12273,0.07107
5741.05120,0.07221
5742.97967,0.07129
5744.90814,0.05366
5746.83660,0.03641
5748.76507,0.05055
5750.69354,0.07945
5752.62201,0.09053
5754.55048,0.08569
5756.47895,0.07245
5758.40742,0.07902
5760.33588,0.10603
5762.26435,0.10614
5764.19282,0.07100
5766.12129,0.03508
5768.04976,0.02797
5769.97823,0.04965
5771.90670,0.08318
5773.83517,0.09908
5775.76363,0.08400
5777.69210,0.07022
5779.62057,0.08221
5781.54904,0.09766
5783.47751,0.09811
5785.40598,0.09807
5787.33445,0.09588
5789.26291,0.10486
5791.19138,0.13216
5793.11985,0.12726
5795.04832,0.09985
5796.97679,0.09859
5798.90526,0.11877
5800.83373,0.13474
5802.76220,0.14447
5804.69066,0.16139
5806.61913,0.15191
5808.54760,0.10211
5810.47607,0.06162
5812.40454,0.04551
5814.33301,0.03016
5816.26148,0.01444
5818.18994,0.03599
5820.11841,0.08516
5822.04688,0.09168
5823.97535,0.07215
5825.90382,0.06032
5827.83229,0.03226
5829.76076,0.01735
5831.68923,0.05057
5833.61769,0.09066
5835.54616,0.10388
5837.47463,0.10738
5839.40310,0.09661
5841.33157,0.04184
5843.26004,0.00039
5845.18851,0.04096
5847.11697,0.09568
5849.04544,0.10091
5850.97391,0.08701
5852.90238,0.07175
5854.83085,0.05721
5856.75932,0.05329
5858.68779,0.05170
5860.61626,0.03975
5862.54472,0.03592
5864.47319,0.07214
5866.40166,0.10337
5868.33013,0.07593
5870.25860,0.04795
5872.18707,0.06810
5874.11554,0.10233
5876.04400,0.10162
5877.97247,0.06820
5879.90094,0.06467
5881.82941,0.07951
5883.75788,0.06217
5885.68635,0.05545
5887.61482,0.08981
5889.54329,0.14032
5891.47175,0.16191
5893.40022,0.12553
5895.32869,0.07826
5897.25716,0.05972
5899.18563,0.05474
5901.11410,0.05156
5903.04257,0.04529
5904.97103,0.03410
5906.89950,0.03434
5908.82797,0.04773
5910.75644,0.03824
5912.68491,0.01637
5914.61338,0.01973
5916.54185,0.03282
5918.47032,0.04954
5920.39878,0.07482
5922.32725,0.07207
5924.25572,0.02655
5926.18419,-0.00475
5928.11266,0.00421
5930.04113,0.01329
5931.96960,0.00566
5933.89806,-0.00349
5935.82653,0.01090
5937.75500,0.04127
5939.68347,0.08008
5941.61194,0.13373
5943.54041,0.14666
5945.46888,0.09438
5947.39734,0.04064
5949.32581,0.04046
5951.25428,0.08011
5953.18275,0.09090
5955.11122,0.07089
5957.03969,0.07256
5958.96816,0.08519
5960.89663,0.08529
5962.82509,0.08673
5964.75356,0.09319
5966.68203,0.08927
5968.61050,0.05400
5970.53897,0.03072
5972.46744,0.06726
5974.39591,0.10403
5976.32437,0.10153
5978.25284,0.09771
5980.18131,0.10579
5982.10978,0.09895
5984.03825,0.08482
5985.96672,0.09190
5987.89519,0.07871
5989.82366,0.04455
5991.75212,0.04780
5993.68059,0.05906
5995.60906,0.03959
5997.53753,0.03101
5999.46600,0.05359
6001.39447,0.07369
6003.32294,0.08697
6005.25140,0.09719
6007.17987,0.05989
6009.10834,0.00464
6011.03681,0.02412
6012.96528,0.08082
6014.89375,0.08466
6016.82222,0.06266
6018.75069,0.06018
6020.67915,0.06831
6022.60762,0.10771
6024.53609,0.15497
6026.46456,0.15303
6028.39303,0.12567
6030.32150,0.10402
6032.24997,0.07612
6034.17843,0.05671
6036.10690,0.06092
6038.03537,0.07723
6039.96384,0.08288
6041.89231,0.06094
6043.82078,0.04948
6045.74925,0.06749
6047.67772,0.07451
6049.60618,0.06555
6051.53465,0.05864
6053.46312,0.05540
6055.39159,0.05987
6057.32006,0.07510
6059.24853,0.09906
6061.17700,0.12286
6063.10546,0.13555
6065.03393,0.13080
6066.96240,0.12677
6068.89087,0.11911
6070.81934,0.05272
6072.74781,-0.02704
6074.67628,-0.00770
6076.60475,0.06838
6078.53321,0.11350
6080.46168,0.13602
6082.39015,0.13330
6084.31862,0.07935
6086.24709,0.00327
6088.17556,-0.01873
6090.10403,0.04232
6092.03249,0.13930
6093.96096,0.17293
6095.88943,0.12195
6097.81790,0.08327
6099.74637,0.07951
6101.67484,0.05576
6103.60331,0.02556
6105.53177,0.01493
6107.46024,0.00252
6109.38871,-0.00317
6111.31718,0.01721
6113.24565,0.04661
6115.17412,0.06798
6117.10259,0.07288
6119.03106,0.06545
6120.95952,0.04967
6122.88799,0.01488
6124.81646,-0.02223
6126.74493,0.00389
6128.67340,0.05668
6130.60187,0.02130
6132.53034,-0.03780
6134.45880,-0.03574
6136.38727,0.00171
6138.31574,0.03154
6140.24421,0.03096
6142.17268,0.02837
6144.10115,0.03909
6146.02962,0.05737
6147.95809,0.10151
6149.88655,0.13808
6151.81502,0.11109
6153.74349,0.05056
6155.67196,0.01927
6157.60043,0.02387
6159.52890,0.03445
6161.45737,0.02722
6163.38583,0.01440
6165.31430,0.01583
6167.24277,0.02863
6169.17124,0.04342
6171.09971,0.04255
6173.02818,0.02006
6174.95665,0.02374
6176.88512,0.06720
6178.81358,0.08578
6180.74205,0.04774
6182.67052,-0.00221
6184.59899,-0.01950
6186.52746,0.00065
6188.45593,0.05067
6190.38440,0.10247
6192.31286,0.13429
6194.24133,0.12827
6196.16980,0.08213
6198.09827,0.06386
6200.02674,0.09959
6201.95521,0.12446
6203.88368,0.07541
6205.81215,-0.01202
6207.74061,-0.03721
6209.66908,0.01135
6211.59755,0.05746
6213.52602,0.03807
6215.45449,-0.00452
6217.38296,0.00296
6219.31143,0.02893
6221.23989,0.03680
6223.16836,0.06936
6225.09683,0.11371
6227.02530,0.09973
6228.95377,0.06665
6230.88224,0.06855
6232.81071,0.06013
6234.73918,0.02307
6236.66764,-0.01009
6238.59611,-0.00970
6240.52458,0.03694
6242.45305,0.09542
6244.38152,0.11456
6246.30999,0.08761
6248.23846,0.05670
6250.16692,0.01798
6252.09539,-0.01723
6254.02386,0.01664
6255.95233,0.07135
6257.88080,0.08029
6259.80927,0.06496
6261.73774,0.03941
6263.66621,0.02076
6265.59467,0.05559
6267.52314,0.11460
6269.45161,0.12044
6271.38008,0.10158
6273.30855,0.09533
6275.23702,0.07762
6277.16549,0.06936
6279.09395,0.09752
6281.02242,0.11198
6282.95089,0.08308
6284.87936,0.04611
6286.80783,0.02860
6288.73630,0.03553
6290.66477,0.04784
6292.59323,0.02798
6294.52170,0.01605
6296.45017,0.03597
6298.37864,0.03940
6300.30711,0.05551
6302.23558,0.10068
6304.16405,0.11030
6306.09252,0.10245
6308.02098,0.10561
6309.94945,0.12719
6311.87792,0.18204
6313.80639,0.21451
6315.73486,0.19618
6317.66333,0.16450
6319.59180,0.10197
6321.52026,0.01750
6323.44873,-0.01195
6325.37720,-0.02549
6327.30567,-0.06061
6329.23414,-0.03504
6331.16261,0.07263
6333.09108,0.18565
6335.01955,0.21914
6336.94801,0.16254
6338.87648,0.10037
6340.80495,0.08990
6342.73342,0.10714
6344.66189,0.09993
6346.59036,0.08092
6348.51883,0.09563
6350.44729,0.09235
6352.37576,0.03549
6354.30423,-0.01217
6356.23270,-0.02840
6358.16117,-0.04777
6360.08964,-0.06971
6362.01811,-0.05374
6363.94658,-0.00110
6365.87504,0.08606
6367.80351,0.20261
6369.73198,0.25240
6371.66045,0.18271
6373.58892,0.09677
6375.51739,0.08280
6377.44586,0.09086
6379.37432,0.06934
6381.30279,0.03199
6383.23126,0.02205
6385.15973,0.04874
6387.08820,0.07415
6389.01667,0.06530
6390.94514,0.03133
6392.87361,0.04009
6394.80207,0.09393
6396.73054,0.10279
6398.65901,0.03817
6400.58748,-0.06781
6402.51595,-0.14046
6404.44442,-0.12237
6406.37289,-0.03176
6408.30135,0.06017
6410.22982,0.10011
6412.15829,0.07768
6414.08676,0.03572
6416.01523,0.03507
6417.94370,0.09111
6419.87217,0.14582
6421.80064,0.12216
6423.72910,0.06171
6425.65757,0.04586
6427.58604,0.05355
6429.51451,0.04991
6431.44298,0.05200
6433.37145,0.09882
6435.29992,0.17858
6437.22838,0.18696
6439.15685,0.09733
6441.08532,0.03275
6443.01379,0.04242
6444.94226,0.06798
6446.87073,0.09547
6448.79920,0.13619
6450.72766,0.12302
6452.65613,0.06981
6454.58460,0.08452
6456.51307,0.13494
6458.44154,0.11972
6460.37001,0.06846
6462.29848,0.04848
6464.22695,0.08941
6466.15541,0.17017
6468.08388,0.19160
6470.01235,0.09826
6471.94082,-0.01576
6473.86929,-0.04093
6475.79776,-0.00081
6477.72623,0.04913
6479.65469,0.10407
6481.58316,0.15312
6483.51163,0.17279
6485.44010,0.14796
6487.36857,0.10404
6489.29704,0.09142
6491.22551,0.08512
6493.15398,0.04850
6495.08244,0.02461
6497.01091,-0.00818
6498.93938,-0.07149
6500.86785,-0.08335
6502.79632,-0.02559
6504.72479,0.02825
6506.65326,0.04318
6508.58172,0.02290
6510.51019,0.01330
6512.43866,0.03167
6514.36713,0.04641
6516.29560,0.06773
6518.22407,0.09511
6520.15254,0.07750
6522.08101,0.02384
6524.00947,0.00581
6525.93794,0.06085
6527.86641,0.12680
6529.79488,0.11040
6531.72335,0.01949
6533.65182,-0.04823
6535.58029,-0.03012
6537.50875,0.02453
6539.43722,0.03585
6541.36569,0.02964
6543.29416,0.01668
6545.22263,-0.02323
6547.15110,-0.04174
6549.07957,-0.03932
6551.00804,-0.03803
6552.93650,0.00376
6554.86497,0.10091
6556.79344,0.18764
6558.72191,0.20832
6560.65038,0.18123
6562.57885,0.14387
6564.50732,0.08574
6566.43578,0.02615
6568.36425,0.01478
6570.29272,0.05068
6572.22119,0.11658
6574.14966,0.12925
6576.07813,0.02604
6578.00660,-0.05346
6579.93507,0.01470
6581.86353,0.10379
6583.79200,0.11354
6585.72047,0.10574
6587.64894,0.10162
6589.57741,0.07711
6591.50588,0.02632
6593.43435,-0.01700
6595.36281,-0.00741
6597.29128,0.04083
6599.21975,0.10472
6601.14822,0.15038
6603.07669,0.14953
6605.00516,0.10678
6606.93363,0.06514
6608.86210,0.07938
6610.79056,0.10004
6612.71903,0.09337
6614.64750,0.11541
6616.57597,0.14588
6618.50444,0.11339
6620.43291,0.05085
6622.36138,0.02317
6624.28984,0.03318
6626.21831,0.05579
6628.14678,0.06583
6630.07525,0.04217
6632.00372,0.04056
6633.93219,0.07324
6635.86066,0.04188
6637.78912,-0.01386
6639.71759,-0.01592
6641.64606,-0.05126
6643.57453,-0.08770
6645.50300,-0.01220
6647.43147,0.07390
6649.35994,0.08939
6651.28841,0.11299
6653.21687,0.14329
6655.14534,0.15523
6657.07381,0.14805
6659.00228,0.09728
6660.93075,0.02914
6662.85922,-0.00804
6664.78769,0.01787
6666.71615,0.09322
6668.64462,0.14131
6670.57309,0.12756
6672.50156,0.08454
6674.43003,0.04773
6676.35850,0.05661
6678.28697,0.10017
6680.21544,0.12467
6682.14390,0.15127
6684.07237,0.19138
6686.00084,0.18066
6687.92931,0.09649
6689.85778,0.02323
6691.78625,0.07631
6693.71472,0.19577
6695.64318,0.23879
6697.57165,0.19188
6699.50012,0.13983
6701.42859,0.11678
6703.35706,0.10966
6705.28553,0.06360
6707.21400,0.02810
6709.14247,0.05182
6711.07093,0.06076
6712.99940,0.05904
6714.92787,0.09108
6716.85634,0.14725
6718.78481,0.15458
6720.71328,0.06878
6722.64175,-0.02384
6724.57021,-0.05190
6726.49868,-0.02505
6728.42715,0.06984
6730.35562,0.19558
6732.28409,0.21746
6734.21256,0.14630
6736.14103,0.09522
6738.06950,0.05340
6739.99796,0.02257
6741.92643,0.08221
6743.85490,0.17491
6745.78337,0.20630
6747.71184,0.15636
6749.64031,0.07301
6751.56878,0.05165
6753.49724,0.06997
6755.42571,0.08071
6757.35418,0.07655
6759.28265,0.06561
6761.21112,0.08257
6763.13959,0.08188
6765.06806,0.03722
6766.99653,0.03240
6768.92499,0.13405
6770.85346,0.19054
6772.78193,0.07514
6774.71040,-0.01496
6776.63887,0.03813
6778.56734,0.10809
6780.49581,0.14237
6782.42427,0.13228
6784.35274,0.09092
6786.28121,0.06436
6788.20968,0.04624
6790.13815,0.00090
6792.06662,-0.02502
6793.99509,-0.00097
6795.92355,0.03021
6797.85202,0.08564
6799.78049,0.12913
6801.70896,0.08720
6803.63743,0.04762
6805.56590,0.07706
6807.49437,0.10261
6809.42284,0.08707
6811.35130,0.06061
6813.27977,0.07609
6815.20824,0.10313
6817.13671,0.10291
6819.06518,0.08360
6820.99365,0.06034
6822.92212,0.08561
6824.85058,0.15061
6826.77905,0.18047
6828.70752,0.17105
6830.63599,0.13857
6832.56446,0.10386
6834.49293,0.11233
6836.42140,0.16894
6838.34987,0.15826
6840.27833,0.04629
6842.20680,-0.01814
6844.13527,0.02220
6846.06374,0.03833
6847.99221,-0.00234
6849.92068,0.02437
6851.84915,0.09680
6853.77761,0.12773
6855.70608,0.13228
6857.63455,0.15748
6859.56302,0.17704
6861.49149,0.13191
6863.41996,0.05848
6865.34843,0.02352
6867.27690,0.03136
6869.20536,0.03231
6871.13383,-0.02225
6873.06230,-0.06780
6874.99077,-0.02432
6876.91924,0.03495
6878.84771,0.01152
6880.77618,-0.08076
6882.70464,-0.13770
6884.63311,-0.12198
6886.56158,-0.04504
6888.49005,0.04537
6890.41852,0.07987
6892.34699,0.04115
6894.27546,-0.00758
6896.20393,-0.00331
6898.13239,0.03568
6900.06086,0.08499
6901.98933,0.10719
6903.91780,0.01218
6905.84627,-0.11901
6907.77474,-0.11991
6909.70321,-0.04232
6911.63167,0.02851
6913.56014,0.12669
6915.48861,0.25261
6917.41708,0.21654
6919.34555,-0.00229
6921.27402,-0.06264
6923.20249,0.05150
6925.13096,0.12946
6927.05942,0.14723
6928.98789,0.11853
6930.91636,0.10039
6932.84483,0.15886
6934.77330,0.23052
6936.70177,0.27787
6938.63024,0.30069
6940.55870,0.30271
6942.48717,0.30848
6944.41564,0.26338
6946.34411,0.16150
6948.27258,0.08131
6950.20105,0.00526
6952.12952,-0.07413
6954.05799,-0.05713
6955.98645,0.07965
6957.91492,0.18533
6959.84339,0.16893
6961.77186,0.03975
6963.70033,-0.10784
6965.62880,-0.14478
6967.55727,-0.03803
6969.48573,0.13131
6971.41420,0.24331
6973.34267,0.27129
6975.27114,0.30594
6977.19961,0.33016
6979.12808,0.27166
6981.05655,0.12698
6982.98501,-0.05743
6984.91348,-0.15787
6986.84195,-0.14845
6988.77042,-0.09074
6990.69889,-0.02624
6992.62736,0.03929
6994.55583,0.04966
6996.48430,-0.06574
6998.41276,-0.11021
7000.34123,0.02013
7002.26970,0.09002
7004.19817,0.09469
7006.12664,0.12825
7008.05511,0.10453
7009.98358,0.01502
7011.91204,0.01433
7013.84051,0.07878
7015.76898,0.03858
7017.69745,-0.02847
7019.62592,-0.05602
7021.55439,-0.03839
7023.48286,0.03822
7025.41133,0.03246
7027.33979,-0.08022
7029.26826,-0.13112
7031.19673,-0.04017
7033.12520,0.11005
7035.05367,0.16390
7036.98214,0.10513
7038.91061,0.05248
7040.83907,-0.02002
7042.76754,-0.14218
7044.69601,-0.17873
7046.62448,0.01096
7048.55295,0.28335
7050.48142,0.33577
7052.40989,0.20862
7054.33836,0.11702
7056.26682,0.05094
7058.19529,-0.05324
7060.12376,-0.02893
7062.05223,0.14710
7063.98070,0.24374
7065.90917,0.12981
7067.83764,-0.03119
7069.76610,-0.04756
7071.69457,0.06386
7073.62304,0.11951
7075.55151,0.09843
7077.47998,0.06966
7079.40845,0.08375
7081.33692,0.12043
7083.26539,0.09013
7085.19385,0.04533
7087.12232,0.04782
7089.05079,0.04948
7090.97926,0.05162
7092.90773,0.07720
7094.83620,0.10671
7096.76467,0.19432
7098.69313,0.25215
7100.62160,0.11902
7102.55007,-0.02537
7104.47854,0.00197
7106.40701,0.06582
7108.33548,-0.06212
7110.26395,-0.25176
7112.19242,-0.28222
7114.12088,-0.14136
7116.04935,0.06433
7117.97782,0.15084
7119.90629,0.06917
7121.83476,0.10925
7123.76323,0.28791
7125.69170,0.38354
7127.62016,0.30532
7129.54863,0.13035
7131.47710,-0.01407
7133.40557,-0.03881
7135.33404,-0.01118
7137.26251,-0.00268
7139.19098,0.08129
7141.11944,0.24570
7143.04791,0.26455
7144.97638,0.11772
7146.90485,-0.00660
7148.83332,-0.15084
7150.76179,-0.30750
7152.69026,-0.25431
7154.61873,0.03861
7156.54719,0.22784
7158.47566,0.19574
7160.40413,0.11140
7162.33260,0.07074
7164.26107,0.00281
7166.18954,-0.07588
7168.11801,-0.07765
7170.04647,-0.03246
7171.97494,0.00304
7173.90341,0.02941
7175.83188,0.02105
7177.76035,-0.01820
7179.68882,-0.02064
7181.61729,0.05734
7183.54576,0.19142
7185.47422,0.21666
7187.40269,0.13055
7189.33116,0.07664
7191.25963,0.05494
7193.18810,0.04664
7195.11657,0.04013
7197.04504,0.08268
7198.97350,0.13240
7200.90197,0.06000
7202.83044,-0.10984
7204.75891,-0.16579
7206.68738,-0.05763
7208.61585,-0.01727
7210.54432,-0.02377
7212.47279,-0.00142
7214.40125,0.01375
7216.32972,0.01988
7218.25819,0.07092
7220.18666,0.06013
7222.11513,-0.02957
7224.04360,-0.02311
7225.97207,0.11943
7227.90053,0.10222
7229.82900,-0.02958
7231.75747,-0.00482
7233.68594,0.12749
7235.61441,0.14207
7237.54288,0.05383
7239.47135,0.00850
7241.39982,-0.04550
7243.32828,-0.16119
7245.25675,-0.15596
7247.18522,-0.05784
7249.11369,-0.01773
7251.04216,-0.01037
7252.97063,0.07418
7254.89910,0.15222
7256.82756,0.14171
7258.75603,0.15313
7260.68450,0.25541
7262.61297,0.24724
7264.54144,0.04078
7266.46991,-0.06213
7268.39838,0.02022
7270.32685,0.10767
7272.25531,0.02904
7274.18378,-0.13887
7276.11225,-0.16739
7278.04072,-0.06283
7279.96919,0.06715
7281.89766,0.12493
7283.82613,0.12712
7285.75459,0.18630
7287.68306,0.30698
7289.61153,0.35777
7291.54000,0.28710
7293.46847,0.19763
7295.39694,0.12916
7297.32541,-0.00910
7299.25387,-0.11022
7301.18234,-0.01541
7303.11081,0.12382
7305.03928,0.07623
7306.96775,-0.05284
7308.89622,-0.04149
7310.82469,0.04582
7312.75316,0.07697
7314.68162,0.00321
7316.61009,-0.12843
7318.53856,-0.04515
7320.46703,0.16233
7322.39550,0.28186
7324.32397,0.35165
7326.25244,0.33814
7328.18090,0.19764
7330.10937,0.06363
7332.03784,-0.00355
7333.96631,-0.00369
7335.89478,0.08879
7337.82325,0.24322
7339.75172,0.32949
7341.68019,0.18954
7343.60865,0.16602
7345.53712,0.33305
7347.46559,0.35979
7349.39406,0.18628
7351.32253,0.12622
7353.25100,0.19615
7355.17947,0.20856
7357.10793,0.08432
7359.03640,-0.17481
7360.96487,-0.32490
7362.89334,-0.23323
7364.82181,-0.06137
7366.75028,0.15622
7368.67875,0.35212
7370.60722,0.33680
7372.53568,0.17069
7374.46415,0.02757
7376.39262,0.07254
7378.32109,0.16789
7380.24956,0.12842
7382.17803,0.02055
7384.10650,-0.03341
7386.03496,-0.03552
7387.96343,-0.00125
7389.89190,0.04667
7391.82037,0.09199
7393.74884,0.15654
7395.67731,0.16538
7397.60578,-0.01833
7399.53425,-0.21086
7401.46271,-0.13150
7403.39118,0.08290
7405.31965,0.10424
7407.24812,0.00045
7409.17659,-0.04395
7411.10506,-0.00079
7413.03353,0.07195
7414.96199,0.15392
7416.89046,0.27977
7418.81893,0.28006
7420.74740,0.06286
7422.67587,-0.06255
7424.60434,-0.02328
7426.53281,0.11488
7428.46128,0.18455
7430.38974,-0.05817
7432.31821,-0.33671
7434.24668,-0.31214
7436.17515,-0.21997
7438.10362,-0.16430
7440.03209,-0.00410
7441.96056,0.12480
7443.88902,0.12655
7445.81749,0.03477
7447.74596,-0.12660
7449.67443,-0.29432
7451.60290,-0.39065
7453.53137,-0.31032
7455.45984,-0.16429
7457.38831,-0.01691
7459.31677,0.21545
7461.24524,0.32671
7463.17371,0.23391
7465.10218,0.14601
7467.03065,0.08496
7468.95912,0.07139
7470.88759,0.17581
7472.81605,0.36641
7474.74452,0.50196
7476.67299,0.54411
7478.60146,0.48477
7480.52993,0.30769
7482.45840,0.16738
7484.38687,0.18546
7486.31533,0.23145
7488.24380,0.17607
7490.17227,0.00733
7492.10074,-0.10903
7494.02921,-0.03593
7495.95768,0.11327
7497.88615,0.19916
