399.19301,15.09141
401.12148,0.67730
403.04995,-0.09188
404.97842,0.10799
406.90689,0.23868
408.83536,0.15202
410.76382,-0.09583
412.69229,-0.19446
414.62076,-0.07845
416.54923,0.01589
418.47770,0.03934
420.40617,0.04419
422.33464,0.07616
424.26311,0.05732
426.19157,0.03849
428.12004,0.14406
430.04851,0.28933
431.97698,0.24385
433.90545,0.06262
435.83392,-0.01365
437.76239,-0.00657
439.69085,-0.02196
441.61932,-0.09950
443.54779,-0.10874
445.47626,-0.01618
447.40473,0.05367
449.33320,0.08868
451.26167,0.12316
453.19013,0.18228
455.11860,0.23301
457.04707,0.24483
458.97554,0.17832
460.90401,0.04200
462.83248,-0.06834
464.76095,-0.09559
466.68942,-0.09514
468.61788,-0.11872
470.54635,-0.19628
472.47482,-0.46536
474.40329,-0.71382
476.33176,-0.47028
478.26023,-0.18795
480.18870,-0.02910
482.11716,0.08429
484.04563,0.13450
485.97410,0.12732
487.90257,0.12075
489.83104,0.12416
491.75951,0.11920
493.68798,0.09844
495.61645,0.06130
497.54491,-0.01078
499.47338,-0.04892
501.40185,-0.00255
503.33032,0.04535
505.25879,0.05856
507.18726,0.07855
509.11573,0.08368
511.04419,0.07581
512.97266,0.10302
514.90113,0.15501
516.82960,0.18327
518.75807,0.16776
520.68654,0.15308
522.61501,0.14674
524.54348,0.09711
526.47194,0.03681
528.40041,0.03837
530.32888,0.08382
532.25735,0.12589
534.18582,0.14464
536.11429,0.15923
538.04276,0.18206
539.97122,0.19811
541.89969,0.17728
543.82816,0.11049
545.75663,0.06494
547.68510,0.07626
549.61357,0.08944
551.54204,0.05652
553.47051,0.00429
555.39897,0.00067
557.32744,0.04986
559.25591,0.09615
561.18438,0.10631
563.11285,0.08242
565.04132,0.07030
566.96979,0.08479
568.89825,0.09915
570.82672,0.10457
572.75519,0.08458
574.68366,0.04379
576.61213,0.04049
578.54060,0.08127
580.46907,0.10142
582.39754,0.09311
584.32600,0.09383
586.25447,0.08717
588.18294,0.05827
590.11141,0.04394
592.03988,0.05445
593.96835,0.05228
595.89682,0.04728
597.82528,0.06143
599.75375,0.06650
601.68222,0.05470
603.61069,0.05866
605.53916,0.08336
607.46763,0.09554
609.39610,0.08401
611.32456,0.07415
613.25303,0.09229
615.18150,0.12260
617.10997,0.11571
619.03844,0.08317
620.96691,0.08937
622.89538,0.12133
624.82385,0.12087
626.75231,0.10219
628.68078,0.10163
630.60925,0.10844
632.53772,0.10633
634.46619,0.09222
636.39466,0.07384
638.32313,0.06454
640.25159,0.06362
642.18006,0.06641
644.10853,0.07877
646.03700,0.09490
647.96547,0.10589
649.89394,0.12122
651.82241,0.13440
653.75088,0.12668
655.67934,0.11154
657.60781,0.10710
659.53628,0.10314
661.46475,0.09544
663.39322,0.08611
665.32169,0.07170
667.25016,0.05918
669.17862,0.05900
671.10709,0.05906
673.03556,0.05897
674.96403,0.06829
676.89250,0.07921
678.82097,0.09036
680.74944,0.10891
682.67791,0.11330
684.60637,0.10051
686.53484,0.10090
688.46331,0.11740
690.39178,0.13164
692.32025,0.13597
694.24872,0.12422
696.17719,0.10420
698.10565,0.09669
700.03412,0.10128
701.96259,0.10399
703.89106,0.10018
705.81953,0.09755
707.74800,0.10206
709.67647,0.10526
711.60494,0.09482
713.53340,0.07773
715.46187,0.07818
717.39034,0.09084
719.31881,0.09469
721.24728,0.09860
723.17575,0.11119
725.10422,0.11636
727.03268,0.11328
728.96115,0.11787
730.88962,0.11849
732.81809,0.10172
734.74656,0.08431
736.67503,0.08250
738.60350,0.09794
740.53197,0.11060
742.46043,0.10577
744.38890,0.10340
746.31737,0.10988
748.24584,0.10862
750.17431,0.09990
752.10278,0.09403
754.03125,0.09040
755.95971,0.08955
757.88818,0.09734
759.81665,0.10582
761.74512,0.10783
763.67359,0.10788
765.60206,0.10815
767.53053,0.10776
769.45900,0.10290
771.38746,0.09721
773.31593,0.10161
775.24440,0.11190
777.17287,0.11273
779.10134,0.10236
781.02981,0.09685
782.95828,0.10537
784.88674,0.11127
786.81521,0.10194
788.74368,0.10113
790.67215,0.12438
792.60062,0.14483
794.52909,0.14262
796.45756,0.13565
798.38602,0.13710
800.31449,0.13380
802.24296,0.12035
804.17143,0.10990
806.09990,0.10911
808.02837,0.11267
809.95684,0.11395
811.88531,0.11300
813.81377,0.10967
815.74224,0.09967
817.67071,0.09450
819.59918,0.10431
821.52765,0.11082
823.45612,0.10456
825.38459,0.10035
827.31305,0.10613
829.24152,0.11715
831.16999,0.11991
833.09846,0.10828
835.02693,0.10018
836.95540,0.10113
838.88387,0.09686
840.81234,0.09346
842.74080,0.10156
844.66927,0.11202
846.59774,0.11586
848.52621,0.11251
850.45468,0.10930
852.38315,0.11593
854.31162,0.12750
856.24008,0.13445
858.16855,0.13230
860.09702,0.11881
862.02549,0.09915
863.95396,0.09489
865.88243,0.11134
867.81090,0.13574
869.73937,0.16361
871.66783,0.15679
873.59630,0.11318
875.52477,0.08936
877.45324,0.08862
879.38171,0.09365
881.31018,0.10394
883.23865,0.11398
885.16711,0.11442
887.09558,0.10274
889.02405,0.09456
890.95252,0.09591
892.88099,0.10137
894.80946,0.10924
896.73793,0.11712
898.66640,0.11972
900.59486,0.11528
902.52333,0.10938
904.45180,0.10871
906.38027,0.11331
908.30874,0.11559
910.23721,0.11473
912.16568,0.11286
914.09414,0.10547
916.02261,0.09443
917.95108,0.08790
919.87955,0.08846
921.80802,0.09414
923.73649,0.10102
925.66496,0.10998
927.59343,0.12095
929.52189,0.12259
931.45036,0.11320
933.37883,0.10341
935.30730,0.09920
937.23577,0.09940
939.16424,0.10481
941.09271,0.11550
943.02117,0.11582
944.94964,0.10294
946.87811,0.09551
948.80658,0.09642
950.73505,0.10072
952.66352,0.10816
954.59199,0.11065
956.52045,0.10591
958.44892,0.10134
960.37739,0.10130
962.30586,0.10712
964.23433,0.11080
966.16280,0.10676
968.09127,0.10313
970.01974,0.10412
971.94820,0.10780
973.87667,0.11047
975.80514,0.10868
977.73361,0.10835
979.66208,0.11255
981.59055,0.11489
983.51902,0.11427
985.44748,0.11038
987.37595,0.10395
989.30442,0.10018
991.23289,0.09536
993.16136,0.08812
995.08983,0.08972
997.01830,0.10059
998.94677,0.10912
1000.87523,0.11617
1002.80370,0.12693
1004.73217,0.13108
1006.66064,0.12327
1008.58911,0.11654
1010.51758,0.11719
1012.44605,0.11929
1014.37451,0.12001
1016.30298,0.12039
1018.23145,0.12226
1020.15992,0.12707
1022.08839,0.12925
1024.01686,0.12043
1025.94533,0.10117
1027.87380,0.08249
1029.80226,0.08078
1031.73073,0.09403
1033.65920,0.10427
1035.58767,0.10786
1037.51614,0.11172
1039.44461,0.11675
1041.37308,0.11741
1043.30154,0.11613
1045.23001,0.11757
1047.15848,0.11841
1049.08695,0.12005
1051.01542,0.12429
1052.94389,0.12835
1054.87236,0.12946
1056.80083,0.12675
1058.72929,0.12253
1060.65776,0.11857
1062.58623,0.12073
1064.51470,0.12853
1066.44317,0.12770
1068.37164,0.11934
1070.30011,0.11513
1072.22857,0.11619
1074.15704,0.12020
1076.08551,0.12182
1078.01398,0.11949
1079.94245,0.11622
1081.87092,0.11219
1083.79939,0.11249
1085.72786,0.11793
1087.65632,0.11697
1089.58479,0.10815
1091.51326,0.10800
1093.44173,0.11978
1095.37020,0.12372
1097.29867,0.11721
1099.22714,0.11803
1101.15560,0.12460
1103.08407,0.12581
1105.01254,0.12337
1106.94101,0.12170
1108.86948,0.12376
1110.79795,0.13101
1112.72642,0.13679
1114.65489,0.13220
1116.58335,0.12400
1118.51182,0.12497
1120.44029,0.12842
1122.36876,0.12498
1124.29723,0.12175
1126.22570,0.12109
1128.15417,0.11665
1130.08263,0.11125
1132.01110,0.11287
1133.93957,0.12113
1135.86804,0.12621
1137.79651,0.12546
1139.72498,0.12215
1141.65345,0.11418
1143.58191,0.10744
1145.51038,0.11185
1147.43885,0.12049
1149.36732,0.12173
1151.29579,0.12038
1153.22426,0.12278
1155.15273,0.12352
1157.08120,0.11939
1159.00966,0.11617
1160.93813,0.11858
1162.86660,0.12366
1164.79507,0.12694
1166.72354,0.12599
1168.65201,0.12021
1170.58048,0.11481
1172.50894,0.11584
1174.43741,0.12084
1176.36588,0.12412
1178.29435,0.12268
1180.22282,0.12021
1182.15129,0.12033
1184.07976,0.12040
1186.00823,0.12452
1187.93669,0.12322
1189.86516,0.11077
1191.79363,0.10851
1193.72210,0.11344
1195.65057,0.11586
1197.57904,0.12051
1199.50751,0.12157
1201.43597,0.12075
1203.36444,0.12462
1205.29291,0.13028
1207.22138,0.13280
1209.14985,0.13300
1211.07832,0.13452
1213.00679,0.13501
1214.93526,0.13289
1216.86372,0.13088
1218.79219,0.12935
1220.72066,0.12796
1222.64913,0.12679
1224.57760,0.12646
1226.50607,0.12855
1228.43454,0.12964
1230.36300,0.12702
1232.29147,0.12283
1234.21994,0.11957
1236.14841,0.12149
1238.07688,0.12777
1240.00535,0.12975
1241.93382,0.12493
1243.86229,0.12117
1245.79075,0.12317
1247.71922,0.12791
1249.64769,0.13034
1251.57616,0.13013
1253.50463,0.13123
1255.43310,0.13115
1257.36157,0.12676
1259.29003,0.12331
1261.21850,0.12354
1263.14697,0.12259
1265.07544,0.12089
1267.00391,0.12131
1268.93238,0.12156
1270.86085,0.12248
1272.78932,0.12395
1274.71778,0.12524
1276.64625,0.12909
1278.57472,0.13217
1280.50319,0.12852
1282.43166,0.12463
1284.36013,0.12817
1286.28860,0.13099
1288.21706,0.12892
1290.14553,0.12802
1292.07400,0.12607
1294.00247,0.12050
1295.93094,0.11761
1297.85941,0.11827
1299.78788,0.11468
1301.71634,0.10318
1303.64481,0.09069
1305.57328,0.09193
1307.50175,0.10980
1309.43022,0.12688
1311.35869,0.13244
1313.28716,0.13129
1315.21563,0.12756
1317.14409,0.12307
1319.07256,0.11986
1321.00103,0.12105
1322.92950,0.12710
1324.85797,0.13021
1326.78644,0.12790
1328.71491,0.12524
1330.64337,0.12009
1332.57184,0.11397
1334.50031,0.11484
1336.42878,0.11881
1338.35725,0.12065
1340.28572,0.11750
1342.21419,0.12051
1344.14266,0.15166
1346.07112,0.17271
1347.99959,0.14502
1349.92806,0.11741
1351.85653,0.11739
1353.78500,0.11992
1355.71347,0.12071
1357.64194,0.12470
1359.57040,0.13090
1361.49887,0.13454
1363.42734,0.13311
1365.35581,0.13184
1367.28428,0.13463
1369.21275,0.14057
1371.14122,0.14239
1373.06969,0.13574
1374.99815,0.12868
1376.92662,0.12949
1378.85509,0.13285
1380.78356,0.13560
1382.71203,0.14005
1384.64050,0.14495
1386.56897,0.14356
1388.49743,0.13566
1390.42590,0.13191
1392.35437,0.13396
1394.28284,0.13763
1396.21131,0.13953
1398.13978,0.13754
1400.06825,0.13314
1401.99672,0.13193
1403.92518,0.13429
1405.85365,0.13484
1407.78212,0.13395
1409.71059,0.13572
1411.63906,0.13854
1413.56753,0.13981
1415.49600,0.13814
1417.42446,0.13271
1419.35293,0.13053
1421.28140,0.13514
1423.20987,0.13757
1425.13834,0.13505
1427.06681,0.13280
1428.99528,0.13680
1430.92375,0.14181
1432.85221,0.14133
1434.78068,0.14175
1436.70915,0.14355
1438.63762,0.14083
1440.56609,0.13760
1442.49456,0.13489
1444.42303,0.13404
1446.35149,0.13845
1448.27996,0.14442
1450.20843,0.14407
1452.13690,0.13829
1454.06537,0.13629
1455.99384,0.14756
1457.92231,0.15970
1459.85077,0.15139
1461.77924,0.14350
1463.70771,0.14295
1465.63618,0.14329
1467.56465,0.13985
1469.49312,0.13843
1471.42159,0.14476
1473.35006,0.15387
1475.27852,0.15202
1477.20699,0.14684
1479.13546,0.14470
1481.06393,0.14327
1482.99240,0.14242
1484.92087,0.14477
1486.84934,0.14947
1488.77780,0.15149
1490.70627,0.14639
1492.63474,0.14018
1494.56321,0.13872
1496.49168,0.14136
1498.42015,0.14355
1500.34862,0.13680
1502.27709,0.11998
1504.20555,0.10779
1506.13402,0.12478
1508.06249,0.15153
1509.99096,0.14710
1511.91943,0.14334
1513.84790,0.14505
1515.77637,0.14812
1517.70483,0.14985
1519.63330,0.15231
1521.56177,0.15464
1523.49024,0.15019
1525.41871,0.14586
1527.34718,0.14453
1529.27565,0.14530
1531.20412,0.15082
1533.13258,0.15810
1535.06105,0.15970
1536.98952,0.16241
1538.91799,0.16950
1540.84646,0.16531
1542.77493,0.15406
1544.70340,0.14944
1546.63186,0.14634
1548.56033,0.14439
1550.48880,0.14463
1552.41727,0.14793
1554.34574,0.15387
1556.27421,0.16185
1558.20268,0.16918
1560.13115,0.15890
1562.05961,0.14842
1563.98808,0.14475
1565.91655,0.14380
1567.84502,0.14655
1569.77349,0.14719
1571.70196,0.14057
1573.63043,0.13707
1575.55889,0.14124
1577.48736,0.14633
1579.41583,0.14557
1581.34430,0.14334
1583.27277,0.14235
1585.20124,0.14259
1587.12971,0.14221
1589.05818,0.14022
1590.98664,0.13882
1592.91511,0.13858
1594.84358,0.13675
1596.77205,0.13377
1598.70052,0.13357
1600.62899,0.13590
1602.55746,0.13709
1604.48592,0.13647
1606.41439,0.13669
1608.34286,0.13936
1610.27133,0.14241
1612.19980,0.14248
1614.12827,0.14070
1616.05674,0.14253
1617.98521,0.14893
1619.91367,0.15496
1621.84214,0.16097
1623.77061,0.16098
1625.69908,0.15508
1627.62755,0.15196
1629.55602,0.15033
1631.48449,0.15062
1633.41295,0.15686
1635.34142,0.16667
1637.26989,0.16595
1639.19836,0.15970
1641.12683,0.15603
1643.05530,0.15512
1644.98377,0.15927
1646.91223,0.16654
1648.84070,0.16476
1650.76917,0.16016
1652.69764,0.16036
1654.62611,0.15733
1656.55458,0.15237
1658.48305,0.15168
1660.41152,0.14836
1662.33998,0.13974
1664.26845,0.14252
1666.19692,0.15327
1668.12539,0.15826
1670.05386,0.15869
1671.98233,0.15800
1673.91080,0.15763
1675.83926,0.15611
1677.76773,0.15243
1679.69620,0.15074
1681.62467,0.15291
1683.55314,0.15915
1685.48161,0.16219
1687.41008,0.16054
1689.33855,0.15795
1691.26701,0.15367
1693.19548,0.15248
1695.12395,0.15898
1697.05242,0.16899
1698.98089,0.17132
1700.90936,0.16277
1702.83783,0.15455
1704.76629,0.15242
1706.69476,0.15201
1708.62323,0.15189
1710.55170,0.15364
1712.48017,0.15685
1714.40864,0.16143
1716.33711,0.16593
1718.26558,0.16159
1720.19404,0.15298
1722.12251,0.14865
1724.05098,0.14683
1725.97945,0.14720
1727.90792,0.14944
1729.83639,0.14988
1731.76486,0.15016
1733.69332,0.15303
1735.62179,0.15047
1737.55026,0.14642
1739.47873,0.14751
1741.40720,0.15156
1743.33567,0.15429
1745.26414,0.15522
1747.19261,0.15687
1749.12107,0.16106
1751.04954,0.16067
1752.97801,0.15256
1754.90648,0.14503
1756.83495,0.14208
1758.76342,0.14346
1760.69189,0.14681
1762.62035,0.14697
1764.54882,0.14424
1766.47729,0.14516
1768.40576,0.15000
1770.33423,0.15654
1772.26270,0.16028
1774.19117,0.15557
1776.11964,0.14965
1778.04810,0.14627
1779.97657,0.14591
1781.90504,0.14853
1783.83351,0.15021
1785.76198,0.14913
1787.69045,0.14754
1789.61892,0.14819
1791.54738,0.15229
1793.47585,0.15614
1795.40432,0.15482
1797.33279,0.15235
1799.26126,0.15285
1801.18973,0.15269
1803.11820,0.14970
1805.04666,0.14762
1806.97513,0.14618
1808.90360,0.14611
1810.83207,0.14886
1812.76054,0.14975
1814.68901,0.14781
1816.61748,0.14925
1818.54595,0.15821
1820.47441,0.16660
1822.40288,0.16315
1824.33135,0.15323
1826.25982,0.14946
1828.18829,0.15027
1830.11676,0.14862
1832.04523,0.14412
1833.97369,0.14115
1835.90216,0.14055
1837.83063,0.14047
1839.75910,0.14202
1841.68757,0.14667
1843.61604,0.15259
1845.54451,0.15504
1847.47298,0.15195
1849.40144,0.14659
1851.32991,0.14277
1853.25838,0.14247
1855.18685,0.14473
1857.11532,0.14597
1859.04379,0.14530
1860.97226,0.14563
1862.90072,0.14803
1864.82919,0.15169
1866.75766,0.15550
1868.68613,0.15753
1870.61460,0.15567
1872.54307,0.15166
1874.47154,0.14823
1876.40001,0.14646
1878.32847,0.14632
1880.25694,0.14599
1882.18541,0.14372
1884.11388,0.14029
1886.04235,0.13898
1887.97082,0.14175
1889.89929,0.14555
1891.82775,0.14717
1893.75622,0.14789
1895.68469,0.14861
1897.61316,0.14860
1899.54163,0.14664
1901.47010,0.14197
1903.39857,0.13744
1905.32704,0.13738
1907.25550,0.14165
1909.18397,0.14521
1911.11244,0.14530
1913.04091,0.14465
1914.96938,0.14442
1916.89785,0.14502
1918.82632,0.14772
1920.75478,0.15024
1922.68325,0.14900
1924.61172,0.14453
1926.54019,0.14190
1928.46866,0.14247
1930.39713,0.14396
1932.32560,0.14502
1934.25407,0.14461
1936.18253,0.14370
1938.11100,0.14485
1940.03947,0.14708
1941.96794,0.14828
1943.89641,0.14773
1945.82488,0.14589
1947.75335,0.14595
1949.68181,0.14873
1951.61028,0.15072
1953.53875,0.14994
1955.46722,0.14792
1957.39569,0.14686
1959.32416,0.14795
1961.25263,0.15009
1963.18110,0.15130
1965.10956,0.15132
1967.03803,0.14907
1968.96650,0.14649
1970.89497,0.14719
1972.82344,0.14747
1974.75191,0.14359
1976.68038,0.14262
1978.60884,0.14893
1980.53731,0.15118
1982.46578,0.14658
1984.39425,0.14514
1986.32272,0.14745
1988.25119,0.14956
1990.17966,0.14995
1992.10812,0.14865
1994.03659,0.14700
1995.96506,0.14601
1997.89353,0.14706
1999.82200,0.14956
2001.75047,0.15069
2003.67894,0.15001
2005.60741,0.14905
2007.53587,0.14872
2009.46434,0.14850
2011.39281,0.14708
2013.32128,0.14577
2015.24975,0.14622
2017.17822,0.14763
2019.10669,0.14878
2021.03515,0.14975
2022.96362,0.15097
2024.89209,0.15079
2026.82056,0.14892
2028.74903,0.14764
2030.67750,0.14755
2032.60597,0.14709
2034.53444,0.14544
2036.46290,0.14447
2038.39137,0.14599
2040.31984,0.14847
2042.24831,0.14878
2044.17678,0.14665
2046.10525,0.14475
2048.03372,0.14394
2049.96218,0.14442
2051.89065,0.14700
2053.81912,0.14961
2055.74759,0.14998
2057.67606,0.14705
2059.60453,0.14252
2061.53300,0.14174
2063.46147,0.14505
2065.38993,0.14781
2067.31840,0.14826
2069.24687,0.14923
2071.17534,0.15187
2073.10381,0.15226
2075.03228,0.14928
2076.96075,0.14691
2078.88921,0.14729
2080.81768,0.14786
2082.74615,0.14754
2084.67462,0.14778
2086.60309,0.14798
2088.53156,0.14878
2090.46003,0.15009
2092.38850,0.15057
2094.31696,0.15259
2096.24543,0.15593
2098.17390,0.15529
2100.10237,0.15003
2102.03084,0.14542
2103.95931,0.14486
2105.88778,0.14714
2107.81624,0.14943
2109.74471,0.15103
2111.67318,0.15165
2113.60165,0.15071
2115.53012,0.15021
2117.45859,0.15063
2119.38706,0.15005
2121.31553,0.14870
2123.24399,0.14826
2125.17246,0.14929
2127.10093,0.14916
2129.02940,0.14579
2130.95787,0.14259
2132.88634,0.14209
2134.81481,0.14445
2136.74327,0.14948
2138.67174,0.15271
2140.60021,0.15315
2142.52868,0.15361
2144.45715,0.15199
2146.38562,0.14809
2148.31409,0.14515
2150.24255,0.14403
2152.17102,0.14446
2154.09949,0.14567
2156.02796,0.14688
2157.95643,0.14767
2159.88490,0.14779
2161.81337,0.14812
2163.74184,0.14940
2165.67030,0.15221
2167.59877,0.15612
2169.52724,0.15653
2171.45571,0.15243
2173.38418,0.14904
2175.31265,0.14787
2177.24112,0.14705
2179.16958,0.14686
2181.09805,0.14899
2183.02652,0.15095
2184.95499,0.14996
2186.88346,0.14874
2188.81193,0.14880
2190.74040,0.14844
2192.66887,0.14682
2194.59733,0.14585
2196.52580,0.14699
2198.45427,0.14843
2200.38274,0.14897
2202.31121,0.14879
2204.23968,0.14759
2206.16815,0.14571
2208.09661,0.14532
2210.02508,0.14700
2211.95355,0.14891
2213.88202,0.15164
2215.81049,0.15459
2217.73896,0.15420
2219.66743,0.15187
2221.59590,0.15023
2223.52436,0.14873
2225.45283,0.14896
2227.38130,0.15033
2229.30977,0.14894
2231.23824,0.14548
2233.16671,0.14443
2235.09518,0.14811
2237.02364,0.15233
2238.95211,0.15217
2240.88058,0.14943
2242.80905,0.14705
2244.73752,0.14515
2246.66599,0.14308
2248.59446,0.14250
2250.52293,0.14630
2252.45139,0.15191
2254.37986,0.15443
2256.30833,0.15301
2258.23680,0.14962
2260.16527,0.14741
2262.09374,0.14857
2264.02221,0.15055
2265.95067,0.15003
2267.87914,0.14940
2269.80761,0.15041
2271.73608,0.14956
2273.66455,0.14523
2275.59302,0.14166
2277.52149,0.14305
2279.44996,0.14682
2281.37842,0.14875
2283.30689,0.14862
2285.23536,0.14713
2287.16383,0.14527
2289.09230,0.14614
2291.02077,0.14840
2292.94924,0.14883
2294.87770,0.14973
2296.80617,0.14906
2298.73464,0.14515
2300.66311,0.14320
2302.59158,0.14350
2304.52005,0.14429
2306.44852,0.14649
2308.37699,0.14982
2310.30545,0.15075
2312.23392,0.14829
2314.16239,0.14792
2316.09086,0.14795
2318.01933,0.14350
2319.94780,0.14005
2321.87627,0.14162
2323.80473,0.14281
2325.73320,0.13868
2327.66167,0.13402
2329.59014,0.13780
2331.51861,0.14465
2333.44708,0.14232
2335.37555,0.13718
2337.30401,0.13932
2339.23248,0.14021
2341.16095,0.13421
2343.08942,0.12842
2345.01789,0.12509
2346.94636,0.12882
2348.87483,0.13613
2350.80330,0.13920
2352.73176,0.13799
2354.66023,0.13700
2356.58870,0.13475
2358.51717,0.13194
2360.44564,0.13541
2362.37411,0.13984
2364.30258,0.13893
2366.23104,0.14116
2368.15951,0.14561
2370.08798,0.14619
2372.01645,0.14737
2373.94492,0.14866
2375.87339,0.14677
2377.80186,0.14458
2379.73033,0.14434
2381.65879,0.14519
2383.58726,0.14648
2385.51573,0.14733
2387.44420,0.14763
2389.37267,0.14726
2391.30114,0.14454
2393.22961,0.14120
2395.15807,0.14144
2397.08654,0.14482
2399.01501,0.14730
2400.94348,0.14753
2402.87195,0.14810
2404.80042,0.15021
2406.72889,0.15147
2408.65736,0.15079
2410.58582,0.15050
2412.51429,0.15217
2414.44276,0.15372
2416.37123,0.15441
2418.29970,0.15621
2420.22817,0.15608
2422.15664,0.15164
2424.08510,0.14731
2426.01357,0.14723
2427.94204,0.15019
2429.87051,0.15238
2431.79898,0.15404
2433.72745,0.15426
2435.65592,0.15070
2437.58439,0.14710
2439.51285,0.14730
2441.44132,0.14860
2443.36979,0.14724
2445.29826,0.14575
2447.22673,0.14637
2449.15520,0.14510
2451.08367,0.13869
2453.01213,0.13470
2454.94060,0.13596
2456.86907,0.13590
2458.79754,0.14068
2460.72601,0.14967
2462.65448,0.15290
2464.58295,0.15225
2466.51142,0.15094
2468.43988,0.15027
2470.36835,0.14897
2472.29682,0.14666
2474.22529,0.14605
2476.15376,0.14663
2478.08223,0.14799
2480.01070,0.14933
2481.93916,0.14839
2483.86763,0.14724
2485.79610,0.14891
2487.72457,0.15147
2489.65304,0.15279
2491.58151,0.15372
2493.50998,0.15572
2495.43844,0.15724
2497.36691,0.15639
2499.29538,0.15419
2501.22385,0.15208
2503.15232,0.15081
2505.08079,0.15058
2507.00926,0.15106
2508.93773,0.15061
2510.86619,0.14987
2512.79466,0.15026
2514.72313,0.14993
2516.65160,0.14899
2518.58007,0.14988
2520.50854,0.15266
2522.43701,0.15475
2524.36547,0.15487
2526.29394,0.15311
2528.22241,0.15045
2530.15088,0.15004
2532.07935,0.15212
2534.00782,0.15274
2535.93629,0.15121
2537.86476,0.15063
2539.79322,0.15084
2541.72169,0.15042
2543.65016,0.15112
2545.57863,0.15374
2547.50710,0.15538
2549.43557,0.15481
2551.36404,0.15408
2553.29250,0.15345
2555.22097,0.15246
2557.14944,0.15238
2559.07791,0.15298
2561.00638,0.15205
2562.93485,0.15045
2564.86332,0.15043
2566.79179,0.15116
2568.72025,0.15164
2570.64872,0.15214
2572.57719,0.15252
2574.50566,0.15207
2576.43413,0.15209
2578.36260,0.15353
2580.29107,0.15403
2582.21953,0.15335
2584.14800,0.15208
2586.07647,0.15116
2588.00494,0.15387
2589.93341,0.15731
2591.86188,0.15680
2593.79035,0.15495
2595.71882,0.15411
2597.64728,0.15275
2599.57575,0.15040
2601.50422,0.14751
2603.43269,0.14552
2605.36116,0.14657
2607.28963,0.14945
2609.21810,0.15641
2611.14656,0.16710
2613.07503,0.17169
2615.00350,0.16868
2616.93197,0.16284
2618.86044,0.15671
2620.78891,0.15279
2622.71738,0.15182
2624.64585,0.15228
2626.57431,0.15121
2628.50278,0.14814
2630.43125,0.14510
2632.35972,0.14499
2634.28819,0.14714
2636.21666,0.14793
2638.14513,0.14877
2640.07359,0.15155
2642.00206,0.15370
2643.93053,0.15404
2645.85900,0.15455
2647.78747,0.15530
2649.71594,0.15606
2651.64441,0.15662
2653.57288,0.15545
2655.50134,0.15405
2657.42981,0.15549
2659.35828,0.15707
2661.28675,0.15348
2663.21522,0.14894
2665.14369,0.14878
2667.07216,0.15025
2669.00062,0.15162
2670.92909,0.15255
2672.85756,0.15229
2674.78603,0.15341
2676.71450,0.15628
2678.64297,0.15678
2680.57144,0.15605
2682.49990,0.15615
2684.42837,0.15463
2686.35684,0.15274
2688.28531,0.15241
2690.21378,0.15289
2692.14225,0.15414
2694.07072,0.15593
2695.99919,0.15660
2697.92765,0.15548
2699.85612,0.15469
2701.78459,0.15583
2703.71306,0.15749
2705.64153,0.15821
2707.57000,0.15823
2709.49847,0.15687
2711.42693,0.15610
2713.35540,0.15825
2715.28387,0.15816
2717.21234,0.15386
2719.14081,0.14974
2721.06928,0.14775
2722.99775,0.14882
2724.92622,0.15193
2726.85468,0.15508
2728.78315,0.15679
2730.71162,0.15508
2732.64009,0.15199
2734.56856,0.15055
2736.49703,0.15131
2738.42550,0.15352
2740.35396,0.15586
2742.28243,0.15708
2744.21090,0.15602
2746.13937,0.15455
2748.06784,0.15483
2749.99631,0.15676
2751.92478,0.15931
2753.85325,0.15903
2755.78171,0.15620
2757.71018,0.15556
2759.63865,0.15612
2761.56712,0.15652
2763.49559,0.15716
2765.42406,0.15901
2767.35253,0.17141
2769.28099,0.18939
2771.20946,0.19097
2773.13793,0.17501
2775.06640,0.16060
2776.99487,0.15855
2778.92334,0.16046
2780.85181,0.15671
2782.78028,0.15199
2784.70874,0.15175
2786.63721,0.15368
2788.56568,0.15625
2790.49415,0.15909
2792.42262,0.15930
2794.35109,0.15886
2796.27956,0.16089
2798.20802,0.16174
2800.13649,0.15951
2802.06496,0.15883
2803.99343,0.16012
2805.92190,0.15892
2807.85037,0.15678
2809.77884,0.15586
2811.70731,0.15653
2813.63577,0.15839
2815.56424,0.15789
2817.49271,0.15622
2819.42118,0.15640
2821.34965,0.15794
2823.27812,0.16180
2825.20659,0.16726
2827.13505,0.16813
2829.06352,0.16157
2830.99199,0.15356
2832.92046,0.15135
2834.84893,0.15607
2836.77740,0.16162
2838.70587,0.16307
2840.63433,0.16298
2842.56280,0.16198
2844.49127,0.15769
2846.41974,0.15308
2848.34821,0.15033
2850.27668,0.14803
2852.20515,0.14816
2854.13362,0.15169
2856.06208,0.15408
2857.99055,0.15482
2859.91902,0.15633
2861.84749,0.15642
2863.77596,0.15415
2865.70443,0.15218
2867.63290,0.15358
2869.56136,0.15647
2871.48983,0.15593
2873.41830,0.15353
2875.34677,0.15325
2877.27524,0.15444
2879.20371,0.15381
2881.13218,0.15119
2883.06065,0.14929
2884.98911,0.14905
2886.91758,0.15074
2888.84605,0.15377
2890.77452,0.15501
2892.70299,0.15390
2894.63146,0.15474
2896.55993,0.15800
2898.48839,0.15919
2900.41686,0.15888
2902.34533,0.15906
2904.27380,0.15706
2906.20227,0.15334
2908.13074,0.15211
2910.05921,0.15508
2911.98768,0.15901
2913.91614,0.15736
2915.84461,0.15155
2917.77308,0.15045
2919.70155,0.15275
2921.63002,0.15298
2923.55849,0.14799
2925.48696,0.13871
2927.41542,0.14277
2929.34389,0.15330
2931.27236,0.14765
2933.20083,0.14361
2935.12930,0.14605
2937.05777,0.14168
2938.98624,0.14429
2940.91471,0.15588
2942.84317,0.16315
2944.77164,0.16127
2946.70011,0.15073
2948.62858,0.14450
2950.55705,0.15207
2952.48552,0.16031
2954.41399,0.15645
2956.34245,0.14362
2958.27092,0.13570
2960.19939,0.14248
2962.12786,0.15630
2964.05633,0.16663
2965.98480,0.16707
2967.91327,0.15992
2969.84174,0.15773
2971.77020,0.15945
2973.69867,0.15927
2975.62714,0.15898
2977.55561,0.15808
2979.48408,0.15884
2981.41255,0.15958
2983.34102,0.15700
2985.26948,0.15648
2987.19795,0.15832
2989.12642,0.16089
2991.05489,0.16559
2992.98336,0.16752
2994.91183,0.16255
2996.84030,0.15401
2998.76877,0.14882
3000.69723,0.14996
3002.62570,0.15247
3004.55417,0.15351
3006.48264,0.15633
3008.41111,0.15907
3010.33958,0.15231
3012.26805,0.13108
3014.19651,0.10196
3016.12498,0.08360
3018.05345,0.09614
3019.98192,0.12861
3021.91039,0.15136
3023.83886,0.15995
3025.76733,0.16169
3027.69579,0.15985
3029.62426,0.16055
3031.55273,0.16549
3033.48120,0.16896
3035.40967,0.16668
3037.33814,0.16207
3039.26661,0.15994
3041.19508,0.15956
3043.12354,0.15823
3045.05201,0.15404
3046.98048,0.14732
3048.90895,0.14479
3050.83742,0.15031
3052.76589,0.15768
3054.69436,0.15970
3056.62282,0.15579
3058.55129,0.15552
3060.47976,0.16170
3062.40823,0.16408
3064.33670,0.15971
3066.26517,0.15506
3068.19364,0.15788
3070.12211,0.16604
3072.05057,0.16618
3073.97904,0.15346
3075.90751,0.14125
3077.83598,0.14229
3079.76445,0.14978
3081.69292,0.15203
3083.62139,0.14538
3085.54985,0.13546
3087.47832,0.13588
3089.40679,0.14804
3091.33526,0.15645
3093.26373,0.15137
3095.19220,0.14583
3097.12067,0.15253
3099.04914,0.16039
3100.97760,0.15904
3102.90607,0.15320
3104.83454,0.15427
3106.76301,0.16478
3108.69148,0.17021
3110.61995,0.16057
3112.54842,0.14747
3114.47688,0.14642
3116.40535,0.15533
3118.33382,0.16203
3120.26229,0.15930
3122.19076,0.15351
3124.11923,0.15361
3126.04770,0.15594
3127.97617,0.15516
3129.90463,0.15152
3131.83310,0.15072
3133.76157,0.15493
3135.69004,0.15792
3137.61851,0.15730
3139.54698,0.15516
3141.47545,0.15365
3143.40391,0.15429
3145.33238,0.15706
3147.26085,0.16039
3149.18932,0.16352
3151.11779,0.16590
3153.04626,0.16711
3154.97473,0.16871
3156.90320,0.16856
3158.83166,0.16440
3160.76013,0.16047
3162.68860,0.16123
3164.61707,0.16781
3166.54554,0.17484
3168.47401,0.17228
3170.40248,0.16255
3172.33094,0.15742
3174.25941,0.15875
3176.18788,0.16119
3178.11635,0.16447
3180.04482,0.17168
3181.97329,0.17832
3183.90176,0.17742
3185.83022,0.17129
3187.75869,0.16783
3189.68716,0.16995
3191.61563,0.17289
3193.54410,0.17395
3195.47257,0.17444
3197.40104,0.17457
3199.32951,0.17443
3201.25797,0.16989
3203.18644,0.16011
3205.11491,0.15591
3207.04338,0.16214
3208.97185,0.17069
3210.90032,0.17354
3212.82879,0.17087
3214.75725,0.16727
3216.68572,0.16404
3218.61419,0.16323
3220.54266,0.16751
3222.47113,0.17228
3224.39960,0.17157
3226.32807,0.16533
3228.25654,0.15837
3230.18500,0.15844
3232.11347,0.16673
3234.04194,0.17388
3235.97041,0.17112
3237.89888,0.16459
3239.82735,0.16468
3241.75582,0.16903
3243.68428,0.19201
3245.61275,0.23563
3247.54122,0.24215
3249.46969,0.19618
3251.39816,0.16190
3253.32663,0.16301
3255.25510,0.16774
3257.18357,0.16872
3259.11203,0.16881
3261.04050,0.16494
3262.96897,0.16565
3264.89744,0.16853
3266.82591,0.16624
3268.75438,0.16338
3270.68285,0.16288
3272.61131,0.16185
3274.53978,0.16100
3276.46825,0.16392
3278.39672,0.16794
3280.32519,0.16853
3282.25366,0.16680
3284.18213,0.16622
3286.11060,0.16412
3288.03906,0.15916
3289.96753,0.15760
3291.89600,0.16046
3293.82447,0.16450
3295.75294,0.16703
3297.68141,0.16433
3299.60988,0.15995
3301.53834,0.16300
3303.46681,0.16996
3305.39528,0.17160
3307.32375,0.17084
3309.25222,0.17310
3311.18069,0.17394
3313.10916,0.16599
3315.03763,0.15427
3316.96609,0.15041
3318.89456,0.15529
3320.82303,0.16235
3322.75150,0.16576
3324.67997,0.16637
3326.60844,0.16892
3328.53691,0.16918
3330.46537,0.16430
3332.39384,0.16010
3334.32231,0.15960
3336.25078,0.16303
3338.17925,0.16874
3340.10772,0.17461
3342.03619,0.18037
3343.96466,0.18270
3345.89312,0.17871
3347.82159,0.17404
3349.75006,0.17254
3351.67853,0.16996
3353.60700,0.16567
3355.53547,0.16282
3357.46394,0.16332
3359.39240,0.16758
3361.32087,0.17400
3363.24934,0.17901
3365.17781,0.17970
3367.10628,0.17730
3369.03475,0.17332
3370.96322,0.16706
3372.89168,0.16100
3374.82015,0.16006
3376.74862,0.16290
3378.67709,0.16443
3380.60556,0.16162
3382.53403,0.15761
3384.46250,0.15707
3386.39097,0.15650
3388.31943,0.15526
3390.24790,0.15671
3392.17637,0.15917
3394.10484,0.15977
3396.03331,0.15777
3397.96178,0.15620
3399.89025,0.16565
3401.81871,0.18793
3403.74718,0.20039
3405.67565,0.19087
3407.60412,0.17508
3409.53259,0.16662
3411.46106,0.16509
3413.38953,0.16410
3415.31800,0.16054
3417.24646,0.15696
3419.17493,0.15625
3421.10340,0.15693
3423.03187,0.15715
3424.96034,0.15562
3426.88881,0.15221
3428.81728,0.15162
3430.74574,0.15459
3432.67421,0.15682
3434.60268,0.15529
3436.53115,0.15006
3438.45962,0.14595
3440.38809,0.14749
3442.31656,0.15324
3444.24503,0.15889
3446.17349,0.16223
3448.10196,0.16206
3450.03043,0.15970
3451.95890,0.15904
3453.88737,0.15910
3455.81584,0.15739
3457.74431,0.15597
3459.67277,0.15412
3461.60124,0.15060
3463.52971,0.15086
3465.45818,0.15426
3467.38665,0.15314
3469.31512,0.15064
3471.24359,0.15275
3473.17206,0.15303
3475.10052,0.14821
3477.02899,0.14536
3478.95746,0.14855
3480.88593,0.15475
3482.81440,0.15652
3484.74287,0.15377
3486.67134,0.15256
3488.59980,0.15129
3490.52827,0.14726
3492.45674,0.14257
3494.38521,0.13725
3496.31368,0.13249
3498.24215,0.13190
3500.17062,0.13551
3502.09909,0.14247
3504.02755,0.14819
3505.95602,0.14890
3507.88449,0.14842
3509.81296,0.14442
3511.74143,0.13741
3513.66990,0.13558
3515.59837,0.13689
3517.52683,0.13724
3519.45530,0.13696
3521.38377,0.13543
3523.31224,0.13485
3525.24071,0.13681
3527.16918,0.13925
3529.09765,0.14073
3531.02611,0.13765
3532.95458,0.13108
3534.88305,0.12869
3536.81152,0.13056
3538.73999,0.13039
3540.66846,0.13009
3542.59693,0.13290
3544.52540,0.13708
3546.45386,0.14091
3548.38233,0.14060
3550.31080,0.13595
3552.23927,0.13238
3554.16774,0.13352
3556.09621,0.13491
3558.02468,0.13753
3559.95314,0.15892
3561.88161,0.19236
3563.81008,0.20179
3565.73855,0.17721
3567.66702,0.14200
3569.59549,0.12854
3571.52396,0.13261
3573.45243,0.13721
3575.38089,0.13564
3577.30936,0.12966
3579.23783,0.12580
3581.16630,0.12742
3583.09477,0.13135
3585.02324,0.13449
3586.95171,0.13311
3588.88017,0.12656
3590.80864,0.12306
3592.73711,0.12519
3594.66558,0.13018
3596.59405,0.13033
3598.52252,0.12427
3600.45099,0.11982
3602.37946,0.11997
3604.30792,0.12018
3606.23639,0.11773
3608.16486,0.11966
3610.09333,0.12918
3612.02180,0.13512
3613.95027,0.13461
3615.87874,0.13129
3617.80720,0.12827
3619.73567,0.12688
3621.66414,0.12431
3623.59261,0.12053
3625.52108,0.11893
3627.44955,0.12106
3629.37802,0.12104
3631.30649,0.11999
3633.23495,0.12519
3635.16342,0.12788
3637.09189,0.12265
3639.02036,0.11986
3640.94883,0.12328
3642.87730,0.12486
3644.80577,0.12376
3646.73423,0.12511
3648.66270,0.12892
3650.59117,0.12328
3652.51964,0.11118
3654.44811,0.10349
3656.37658,0.10276
3658.30505,0.10640
3660.23352,0.10797
3662.16198,0.10732
3664.09045,0.10704
3666.01892,0.10868
3667.94739,0.11327
3669.87586,0.11922
3671.80433,0.12112
3673.73280,0.12331
3675.66126,0.12955
3677.58973,0.12937
3679.51820,0.12476
3681.44667,0.12111
3683.37514,0.11506
3685.30361,0.10798
3687.23208,0.10710
3689.16055,0.11040
3691.08901,0.10702
3693.01748,0.10403
3694.94595,0.10449
3696.87442,0.10232
3698.80289,0.09827
3700.73136,0.09821
3702.65983,0.10335
3704.58829,0.10816
3706.51676,0.10736
3708.44523,0.10585
3710.37370,0.11455
3712.30217,0.12424
3714.23064,0.12018
3716.15911,0.12165
3718.08757,0.14818
3720.01604,0.18724
3721.94451,0.19819
3723.87298,0.16768
3725.80145,0.12828
3727.72992,0.11339
3729.65839,0.11245
3731.58686,0.10697
3733.51532,0.09908
3735.44379,0.09819
3737.37226,0.10939
3739.30073,0.11945
3741.22920,0.11957
3743.15767,0.11231
3745.08614,0.10728
3747.01460,0.10990
3748.94307,0.11425
3750.87154,0.11936
3752.80001,0.11848
3754.72848,0.11622
3756.65695,0.11705
3758.58542,0.11716
3760.51389,0.11503
3762.44235,0.11357
3764.37082,0.11248
3766.29929,0.10937
3768.22776,0.10676
3770.15623,0.10660
3772.08470,0.10644
3774.01317,0.10704
3775.94163,0.10755
3777.87010,0.10645
3779.79857,0.10589
3781.72704,0.10633
3783.65551,0.10626
3785.58398,0.10522
3787.51245,0.10368
3789.44092,0.10145
3791.36938,0.09920
3793.29785,0.09980
3795.22632,0.10086
3797.15479,0.09795
3799.08326,0.09668
3801.01173,0.10215
3802.94020,0.10710
3804.86866,0.11060
3806.79713,0.11492
3808.72560,0.11275
3810.65407,0.10967
3812.58254,0.11171
3814.51101,0.11354
3816.43948,0.10810
3818.36795,0.10637
3820.29641,0.11928
3822.22488,0.12528
3824.15335,0.11393
3826.08182,0.10444
3828.01029,0.10289
3829.93876,0.10600
3831.86723,0.10684
3833.79569,0.10242
3835.72416,0.09819
3837.65263,0.10057
3839.58110,0.10680
3841.50957,0.10699
3843.43804,0.10109
3845.36651,0.09452
3847.29498,0.09272
3849.22344,0.09698
3851.15191,0.10581
3853.08038,0.11856
3855.00885,0.12173
3856.93732,0.11427
3858.86579,0.10735
3860.79426,0.10638
3862.72272,0.11439
3864.65119,0.11882
3866.57966,0.11016
3868.50813,0.10382
3870.43660,0.10912
3872.36507,0.11182
3874.29354,0.10264
3876.22200,0.09390
3878.15047,0.09075
3880.07894,0.08976
3882.00741,0.09621
3883.93588,0.10559
3885.86435,0.10302
3887.79282,0.09333
3889.72129,0.09011
3891.64975,0.09278
3893.57822,0.09629
3895.50669,0.09691
3897.43516,0.09494
3899.36363,0.09259
3901.29210,0.09248
3903.22057,0.09555
3905.14903,0.10018
3907.07750,0.10243
3909.00597,0.09971
3910.93444,0.09360
3912.86291,0.09008
3914.79138,0.09241
3916.71985,0.09719
3918.64832,0.10091
3920.57678,0.10399
3922.50525,0.10408
3924.43372,0.09913
3926.36219,0.09676
3928.29066,0.10039
3930.21913,0.10125
3932.14760,0.09480
3934.07606,0.08805
3936.00453,0.08556
3937.93300,0.08416
3939.86147,0.08323
3941.78994,0.08489
3943.71841,0.08900
3945.64688,0.09387
3947.57535,0.09563
3949.50381,0.09483
3951.43228,0.09619
3953.36075,0.09654
3955.28922,0.09743
3957.21769,0.10372
3959.14616,0.10729
3961.07463,0.10131
3963.00309,0.09226
3964.93156,0.08887
3966.86003,0.09061
3968.78850,0.09140
3970.71697,0.09036
3972.64544,0.08953
3974.57391,0.08754
3976.50238,0.08442
3978.43084,0.08348
3980.35931,0.08525
3982.28778,0.08785
3984.21625,0.09209
3986.14472,0.09733
3988.07319,0.09743
3990.00166,0.09197
3991.93012,0.08903
3993.85859,0.09089
3995.78706,0.09319
3997.71553,0.09290
3999.64400,0.09143
4001.57247,0.09197
4003.50094,0.09287
4005.42941,0.09095
4007.35787,0.08753
4009.28634,0.08516
4011.21481,0.08397
4013.14328,0.08368
4015.07175,0.08424
4017.00022,0.08416
4018.92869,0.08317
4020.85715,0.08396
4022.78562,0.08555
4024.71409,0.08101
4026.64256,0.07252
4028.57103,0.07209
4030.49950,0.07608
4032.42797,0.08284
4034.35644,0.10737
4036.28490,0.13246
4038.21337,0.13193
4040.14184,0.11713
4042.07031,0.09573
4043.99878,0.07595
4045.92725,0.07507
4047.85572,0.08221
4049.78418,0.08303
4051.71265,0.08316
4053.64112,0.08710
4055.56959,0.08915
4057.49806,0.08590
4059.42653,0.08515
4061.35500,0.08773
4063.28346,0.08444
4065.21193,0.07638
4067.14040,0.07175
4069.06887,0.07178
4070.99734,0.07059
4072.92581,0.06777
4074.85428,0.06870
4076.78275,0.07415
4078.71121,0.08099
4080.63968,0.08480
4082.56815,0.08551
4084.49662,0.08478
4086.42509,0.08178
4088.35356,0.07736
4090.28203,0.07497
4092.21049,0.07911
4094.13896,0.08460
4096.06743,0.08322
4097.99590,0.07771
4099.92437,0.07416
4101.85284,0.07538
4103.78131,0.07837
4105.70978,0.07989
4107.63824,0.07961
4109.56671,0.07713
4111.49518,0.07606
4113.42365,0.07851
4115.35212,0.08067
4117.28059,0.08047
4119.20906,0.07872
4121.13752,0.07775
4123.06599,0.07824
4124.99446,0.07365
4126.92293,0.06570
4128.85140,0.06581
4130.77987,0.06955
4132.70834,0.06834
4134.63681,0.06641
4136.56527,0.06734
4138.49374,0.07202
4140.42221,0.07739
4142.35068,0.07706
4144.27915,0.07225
4146.20762,0.06784
4148.13609,0.06566
4150.06455,0.06618
4151.99302,0.06988
4153.92149,0.07336
4155.84996,0.07193
4157.77843,0.06817
4159.70690,0.06685
4161.63537,0.06795
4163.56384,0.07029
4165.49230,0.07328
4167.42077,0.07294
4169.34924,0.06892
4171.27771,0.06778
4173.20618,0.06791
4175.13465,0.06573
4177.06312,0.06693
4178.99158,0.07102
4180.92005,0.06938
4182.84852,0.06020
4184.77699,0.05254
4186.70546,0.05542
4188.63393,0.06693
4190.56240,0.08301
4192.49087,0.08828
4194.41933,0.06712
4196.34780,0.04966
4198.27627,0.05810
4200.20474,0.06392
4202.13321,0.06286
4204.06168,0.06812
4205.99015,0.06799
4207.91861,0.06434
4209.84708,0.06692
4211.77555,0.07188
4213.70402,0.07485
4215.63249,0.07353
4217.56096,0.06607
4219.48943,0.05621
4221.41789,0.05715
4223.34636,0.06838
4225.27483,0.07431
4227.20330,0.07153
4229.13177,0.06337
4231.06024,0.05755
4232.98871,0.06071
4234.91718,0.06540
4236.84564,0.06701
4238.77411,0.06863
4240.70258,0.06855
4242.63105,0.06688
4244.55952,0.06409
4246.48799,0.05709
4248.41646,0.05059
4250.34492,0.04927
4252.27339,0.05183
4254.20186,0.05825
4256.13033,0.06316
4258.05880,0.06268
4259.98727,0.06349
4261.91574,0.06458
4263.84421,0.06168
4265.77267,0.06358
4267.70114,0.06871
4269.62961,0.06523
4271.55808,0.05880
4273.48655,0.05777
4275.41502,0.05929
4277.34349,0.06146
4279.27195,0.06144
4281.20042,0.05667
4283.12889,0.05403
4285.05736,0.05812
4286.98583,0.05957
4288.91430,0.05502
4290.84277,0.05522
4292.77124,0.05690
4294.69970,0.05076
4296.62817,0.04531
4298.55664,0.04834
4300.48511,0.05348
4302.41358,0.05292
4304.34205,0.04925
4306.27052,0.04727
4308.19898,0.04545
4310.12745,0.04410
4312.05592,0.04496
4313.98439,0.04548
4315.91286,0.04626
4317.84133,0.05001
4319.76980,0.05063
4321.69827,0.04437
4323.62673,0.04048
4325.55520,0.04624
4327.48367,0.05492
4329.41214,0.05638
4331.34061,0.05428
4333.26908,0.05579
4335.19755,0.05428
4337.12601,0.04725
4339.05448,0.04293
4340.98295,0.04392
4342.91142,0.04868
4344.83989,0.05156
4346.76836,0.04218
4348.69683,0.03405
4350.62530,0.05963
4352.55376,0.09320
4354.48223,0.07978
4356.41070,0.03401
4358.33917,0.01105
4360.26764,0.02831
4362.19611,0.04625
4364.12458,0.04247
4366.05304,0.03944
4367.98151,0.04065
4369.90998,0.04327
4371.83845,0.04881
4373.76692,0.05162
4375.69539,0.04649
4377.62386,0.03368
4379.55232,0.02564
4381.48079,0.02557
4383.40926,0.02408
4385.33773,0.02168
4387.26620,0.02455
4389.19467,0.03009
4391.12314,0.03360
4393.05161,0.03564
4394.98007,0.03995
4396.90854,0.04494
4398.83701,0.04593
4400.76548,0.04419
4402.69395,0.04082
4404.62242,0.03838
4406.55089,0.03923
4408.47935,0.04273
4410.40782,0.04329
4412.33629,0.03727
4414.26476,0.03444
4416.19323,0.03643
4418.12170,0.03302
4420.05017,0.02510
4421.97864,0.02315
4423.90710,0.02894
4425.83557,0.03528
4427.76404,0.03704
4429.69251,0.03832
4431.62098,0.04488
4433.54945,0.05193
4435.47792,0.05602
4437.40638,0.05211
4439.33485,0.03713
4441.26332,0.02669
4443.19179,0.02620
4445.12026,0.02356
4447.04873,0.01947
4448.97720,0.01594
4450.90567,0.00766
4452.83413,0.00639
4454.76260,0.01931
4456.69107,0.02605
4458.61954,0.01777
4460.54801,0.01152
4462.47648,0.01485
4464.40495,0.01740
4466.33341,0.01652
4468.26188,0.01959
4470.19035,0.02347
4472.11882,0.02078
4474.04729,0.01707
4475.97576,0.01657
4477.90423,0.01696
4479.83270,0.02153
4481.76116,0.02881
4483.68963,0.02752
4485.61810,0.01749
4487.54657,0.00745
4489.47504,0.00036
4491.40351,0.00211
4493.33198,0.01241
4495.26044,0.02000
4497.18891,0.01945
4499.11738,0.01479
4501.04585,0.01550
4502.97432,0.02175
4504.90279,0.02128
4506.83126,0.01485
4508.75973,0.02153
4510.68819,0.03839
4512.61666,0.04138
4514.54513,0.02970
4516.47360,0.01682
4518.40207,0.00778
4520.33054,0.00652
4522.25901,0.00966
4524.18747,0.00774
4526.11594,0.00958
4528.04441,0.02177
4529.97288,0.02963
4531.90135,0.03388
4533.82982,0.03962
4535.75829,0.03555
4537.68676,0.02538
4539.61522,0.02153
4541.54369,0.02254
4543.47216,0.02538
4545.40063,0.02818
4547.32910,0.02767
4549.25757,0.02427
4551.18604,0.01922
4553.11450,0.01435
4555.04297,0.01285
4556.97144,0.01573
4558.89991,0.01663
4560.82838,0.01041
4562.75685,0.00518
4564.68532,0.00434
4566.61378,0.00279
4568.54225,0.00289
4570.47072,0.00621
4572.39919,0.01080
4574.32766,0.01555
4576.25613,0.01424
4578.18460,0.00707
4580.11307,0.00419
4582.04153,0.00371
4583.97000,-0.00053
4585.89847,-0.00246
4587.82694,0.00360
4589.75541,0.01212
4591.68388,0.01385
4593.61235,0.00851
4595.54081,0.00222
4597.46928,0.00155
4599.39775,0.00787
4601.32622,0.01244
4603.25469,0.01058
4605.18316,0.00999
4607.11163,0.01499
4609.04010,0.01745
4610.96856,0.01446
4612.89703,0.01447
4614.82550,0.01879
4616.75397,0.01948
4618.68244,0.01595
4620.61091,0.01511
4622.53938,0.01685
4624.46784,0.01377
4626.39631,0.00322
4628.32478,-0.00646
4630.25325,-0.00677
4632.18172,-0.00267
4634.11019,-0.00118
4636.03866,0.00264
4637.96713,0.00906
4639.89559,0.00888
4641.82406,0.00138
4643.75253,-0.00248
4645.68100,0.00293
4647.60947,0.00657
4649.53794,0.00323
4651.46641,0.00401
4653.39487,0.00829
4655.32334,0.00936
4657.25181,0.01071
4659.18028,0.00978
4661.10875,0.00275
4663.03722,-0.00096
4664.96569,0.00745
4666.89416,0.01876
4668.82262,0.01378
4670.75109,-0.00753
4672.67956,-0.01859
4674.60803,-0.00105
4676.53650,0.01861
4678.46497,0.01135
4680.39344,0.00363
4682.32190,0.01369
4684.25037,0.01981
4686.17884,0.01894
4688.10731,0.01563
4690.03578,0.00780
4691.96425,0.00428
4693.89272,0.00641
4695.82119,0.00724
4697.74965,0.00299
4699.67812,-0.00493
4701.60659,-0.01028
4703.53506,-0.01183
4705.46353,-0.00928
4707.39200,-0.00038
4709.32047,0.01248
4711.24893,0.02084
4713.17740,0.01938
4715.10587,0.01490
4717.03434,0.01099
4718.96281,0.00328
4720.89128,-0.00567
4722.81975,-0.00801
4724.74821,-0.00010
4726.67668,0.01036
4728.60515,0.00964
4730.53362,0.00337
4732.46209,0.00583
4734.39056,0.01332
4736.31903,0.02318
4738.24750,0.03188
4740.17596,0.02682
4742.10443,0.01454
4744.03290,0.00984
4745.96137,0.00880
4747.88984,0.00268
4749.81831,-0.00154
4751.74678,0.00769
4753.67524,0.02121
4755.60371,0.02204
4757.53218,0.01887
4759.46065,0.02643
4761.38912,0.02868
4763.31759,0.01150
4765.24606,-0.00373
4767.17453,0.00282
4769.10299,0.01764
4771.03146,0.02237
4772.95993,0.01929
4774.88840,0.01423
4776.81687,0.00748
4778.74534,-0.00014
4780.67381,-0.00681
4782.60227,-0.00528
4784.53074,0.00477
4786.45921,0.00902
4788.38768,0.00560
4790.31615,0.00616
4792.24462,0.00905
4794.17309,0.00742
4796.10156,0.00553
4798.03002,0.00807
4799.95849,0.01347
4801.88696,0.01976
4803.81543,0.02476
4805.74390,0.02204
4807.67237,0.00683
4809.60084,-0.01212
4811.52930,-0.02033
4813.45777,-0.01427
4815.38624,-0.00408
4817.31471,-0.00035
4819.24318,-0.00162
4821.17165,-0.00330
4823.10012,0.00333
4825.02859,0.03144
4826.95705,0.07312
4828.88552,0.09498
4830.81399,0.09110
4832.74246,0.06981
4834.67093,0.02556
4836.59940,-0.00383
4838.52787,0.00369
4840.45633,0.00506
4842.38480,-0.00884
4844.31327,-0.01429
4846.24174,-0.00856
4848.17021,-0.00276
4850.09868,-0.00044
4852.02715,0.00321
4853.95562,0.00791
4855.88408,0.01342
4857.81255,0.01583
4859.74102,0.01149
4861.66949,0.00369
4863.59796,-0.00102
4865.52643,0.00388
4867.45490,0.01695
4869.38336,0.03104
4871.31183,0.03686
4873.24030,0.02986
4875.16877,0.01120
4877.09724,-0.01085
4879.02571,-0.01970
4880.95418,-0.01014
4882.88265,0.00675
4884.81111,0.01781
4886.73958,0.01955
4888.66805,0.01356
4890.59652,-0.00010
4892.52499,-0.00915
4894.45346,-0.00555
4896.38193,-0.00220
4898.31039,-0.00346
4900.23886,-0.00295
4902.16733,0.00169
4904.09580,0.00928
4906.02427,0.01208
4907.95274,0.01450
4909.88121,0.02670
4911.80967,0.03939
4913.73814,0.04014
4915.66661,0.02550
4917.59508,0.00350
4919.52355,-0.00307
4921.45202,0.01401
4923.38049,0.03159
4925.30896,0.03301
4927.23742,0.02405
4929.16589,0.01698
4931.09436,0.02154
4933.02283,0.03337
4934.95130,0.03635
4936.87977,0.02799
4938.80824,0.01913
4940.73670,0.01472
4942.66517,0.01921
4944.59364,0.02829
4946.52211,0.02565
4948.45058,0.01686
4950.37905,0.02364
4952.30752,0.04187
4954.23599,0.04679
4956.16445,0.03146
4958.09292,0.00854
4960.02139,-0.00045
4961.94986,0.00740
4963.87833,0.00831
4965.80680,0.00164
4967.73527,0.00574
4969.66373,0.01711
4971.59220,0.01752
4973.52067,0.00533
4975.44914,-0.00322
4977.37761,0.00056
4979.30608,0.00921
4981.23455,0.02070
4983.16302,0.05543
4985.09148,0.10811
4987.01995,0.14117
4988.94842,0.14919
4990.87689,0.12531
4992.80536,0.05504
4994.73383,-0.00135
4996.66230,-0.00541
4998.59076,-0.00262
5000.51923,-0.00127
5002.44770,0.01003
5004.37617,0.02088
5006.30464,0.03028
5008.23311,0.03445
5010.16158,0.02721
5012.09005,0.01678
5014.01851,0.01246
5015.94698,0.00618
5017.87545,-0.00238
5019.80392,-0.00168
5021.73239,-0.00265
5023.66086,-0.00941
5025.58933,-0.00235
5027.51779,0.01382
5029.44626,0.01700
5031.37473,0.01332
5033.30320,0.02044
5035.23167,0.02893
5037.16014,0.02299
5039.08861,0.01348
5041.01708,0.01422
5042.94554,0.01744
5044.87401,0.01593
5046.80248,0.01720
5048.73095,0.02438
5050.65942,0.02675
5052.58789,0.02046
5054.51636,0.01442
5056.44482,0.01020
5058.37329,0.00907
5060.30176,0.02593
5062.23023,0.05223
5064.15870,0.05225
5066.08717,0.03137
5068.01564,0.02465
5069.94410,0.03036
5071.87257,0.03061
5073.80104,0.02453
5075.72951,0.02308
5077.65798,0.03200
5079.58645,0.03618
5081.51492,0.02424
5083.44339,0.00794
5085.37185,0.00094
5087.30032,0.00579
5089.22879,0.01065
5091.15726,0.00577
5093.08573,0.00595
5095.01420,0.01400
5096.94267,0.01139
5098.87113,0.00802
5100.79960,0.01788
5102.72807,0.02491
5104.65654,0.02510
5106.58501,0.02809
5108.51348,0.03371
5110.44195,0.03970
5112.37042,0.03740
5114.29888,0.02799
5116.22735,0.02657
5118.15582,0.02865
5120.08429,0.02763
5122.01276,0.02693
5123.94123,0.02029
5125.86970,0.00997
5127.79816,0.00894
5129.72663,0.01319
5131.65510,0.01327
5133.58357,0.00573
5135.51204,-0.00036
5137.44051,0.01148
5139.36898,0.04081
5141.29745,0.05607
5143.22591,0.01565
5145.15438,-0.03584
5147.08285,-0.02116
5149.01132,0.02187
5150.93979,0.02941
5152.86826,0.00973
5154.79673,-0.00510
5156.72519,-0.00324
5158.65366,0.00787
5160.58213,0.01645
5162.51060,0.02127
5164.43907,0.03126
5166.36754,0.04255
5168.29601,0.03993
5170.22448,0.02373
5172.15294,0.01539
5174.08141,0.02320
5176.00988,0.03127
5177.93835,0.02824
5179.86682,0.02415
5181.79529,0.02844
5183.72376,0.02716
5185.65222,0.02190
5187.58069,0.02977
5189.50916,0.03961
5191.43763,0.03721
5193.36610,0.03017
5195.29457,0.02529
5197.22304,0.01471
5199.15151,-0.00569
5201.07997,-0.02112
5203.00844,-0.01564
5204.93691,0.01032
5206.86538,0.03612
5208.79385,0.03931
5210.72232,0.03664
5212.65079,0.04009
5214.57925,0.03978
5216.50772,0.04096
5218.43619,0.04558
5220.36466,0.05453
5222.29313,0.07169
5224.22160,0.07820
5226.15007,0.06451
5228.07854,0.04876
5230.00700,0.03352
5231.93547,0.01320
5233.86394,0.00664
5235.79241,0.01857
5237.72088,0.02377
5239.64935,0.02156
5241.57782,0.03166
5243.50628,0.04894
5245.43475,0.05140
5247.36322,0.03243
5249.29169,0.01543
5251.22016,0.02405
5253.14863,0.04197
5255.07710,0.04892
5257.00556,0.04434
5258.93403,0.02936
5260.86250,0.01289
5262.79097,0.01468
5264.71944,0.03536
5266.64791,0.05390
5268.57638,0.05578
5270.50485,0.04249
5272.43331,0.03296
5274.36178,0.03723
5276.29025,0.03688
5278.21872,0.01589
5280.14719,-0.00415
5282.07566,0.00174
5284.00413,0.02345
5285.93259,0.04084
5287.86106,0.04721
5289.78953,0.05215
5291.71800,0.05538
5293.64647,0.05534
5295.57494,0.05687
5297.50341,0.05094
5299.43188,0.05968
5301.36034,0.08911
5303.28881,0.09248
5305.21728,0.08989
5307.14575,0.11091
5309.07422,0.10786
5311.00269,0.07430
5312.93116,0.04724
5314.85962,0.03159
5316.78809,0.02796
5318.71656,0.03784
5320.64503,0.04976
5322.57350,0.05763
5324.50197,0.06019
5326.43044,0.05708
5328.35891,0.05623
5330.28737,0.06422
5332.21584,0.06848
5334.14431,0.06143
5336.07278,0.06024
5338.00125,0.05635
5339.92972,0.03640
5341.85819,0.03233
5343.78665,0.05372
5345.71512,0.06742
5347.64359,0.05440
5349.57206,0.03231
5351.50053,0.02881
5353.42900,0.05968
5355.35747,0.08465
5357.28594,0.07388
5359.21440,0.04991
5361.14287,0.02917
5363.07134,0.03017
5364.99981,0.05453
5366.92828,0.07947
5368.85675,0.08876
5370.78522,0.06873
5372.71368,0.04233
5374.64215,0.04887
5376.57062,0.07303
5378.49909,0.08465
5380.42756,0.10066
5382.35603,0.12424
5384.28450,0.12457
5386.21297,0.10329
5388.14143,0.09533
5390.06990,0.10011
5391.99837,0.10348
5393.92684,0.07826
5395.85531,0.02881
5397.78378,0.01040
5399.71225,0.02255
5401.64071,0.02753
5403.56918,0.02649
5405.49765,0.04420
5407.42612,0.06004
5409.35459,0.04115
5411.28306,0.02439
5413.21153,0.05994
5415.13999,0.10152
5417.06846,0.08788
5418.99693,0.06065
5420.92540,0.07374
5422.85387,0.10451
5424.78234,0.11419
5426.71081,0.09088
5428.63928,0.04357
5430.56774,0.01051
5432.49621,-0.00079
5434.42468,0.00289
5436.35315,0.03480
5438.28162,0.06980
5440.21009,0.08112
5442.13856,0.07599
5444.06702,0.06033
5445.99549,0.03506
5447.92396,0.01303
5449.85243,0.02189
5451.78090,0.06272
5453.70937,0.09066
5455.63784,0.08918
5457.56631,0.07018
5459.49477,0.03142
5461.42324,-0.00707
5463.35171,-0.02105
5465.28018,-0.01527
5467.20865,0.00688
5469.13712,0.03578
5471.06559,0.05921
5472.99405,0.07400
5474.92252,0.08155
5476.85099,0.07614
5478.77946,0.04811
5480.70793,0.02357
5482.63640,0.02818
5484.56487,0.04471
5486.49334,0.04103
5488.42180,0.02035
5490.35027,0.02158
5492.27874,0.04749
5494.20721,0.06385
5496.13568,0.06547
5498.06415,0.06695
5499.99262,0.06147
5501.92108,0.05785
5503.84955,0.07951
5505.77802,0.09109
5507.70649,0.06826
5509.63496,0.04635
5511.56343,0.03277
5513.49190,0.01679
5515.42037,0.00783
5517.34883,0.00816
5519.27730,0.01145
5521.20577,0.02476
5523.13424,0.04428
5525.06271,0.05701
5526.99118,0.06886
5528.91965,0.08122
5530.84811,0.08383
5532.77658,0.07779
5534.70505,0.07944
5536.63352,0.09144
5538.56199,0.09169
5540.49046,0.06728
5542.41893,0.04193
5544.34740,0.05067
5546.27586,0.07193
5548.20433,0.05944
5550.13280,0.03197
5552.06127,0.03110
5553.98974,0.05197
5555.91821,0.07455
5557.84668,0.09366
5559.77514,0.10222
5561.70361,0.09827
5563.63208,0.09707
5565.56055,0.10262
5567.48902,0.09267
5569.41749,0.07304
5571.34596,0.06545
5573.27443,0.05789
5575.20289,0.03939
5577.13136,0.02216
5579.05983,0.01712
5580.98830,0.01721
5582.91677,0.01752
5584.84524,0.02817
5586.77371,0.04586
5588.70217,0.06539
5590.63064,0.07787
5592.55911,0.07524
5594.48758,0.08002
5596.41605,0.08795
5598.34452,0.07143
5600.27299,0.06348
5602.20145,0.08501
5604.12992,0.09324
5606.05839,0.07979
5607.98686,0.07190
5609.91533,0.06726
5611.84380,0.04793
5613.77227,0.02916
5615.70074,0.04027
5617.62920,0.05201
5619.55767,0.01665
5621.48614,-0.02938
5623.41461,-0.03696
5625.34308,-0.01736
5627.27155,0.00875
5629.20002,0.02246
5631.12848,0.02482
5633.05695,0.03287
5634.98542,0.05286
5636.91389,0.07288
5638.84236,0.06869
5640.77083,0.05024
5642.69930,0.04779
5644.62777,0.05023
5646.55623,0.04331
5648.48470,0.05504
5650.41317,0.08661
5652.34164,0.11771
5654.27011,0.13784
5656.19858,0.13492
5658.12705,0.12212
5660.05551,0.09705
5661.98398,0.05241
5663.91245,0.02615
5665.84092,0.04003
5667.76939,0.06228
5669.69786,0.06953
5671.62633,0.08096
5673.55480,0.10210
5675.48326,0.10349
5677.41173,0.07176
5679.34020,0.04591
5681.26867,0.05125
5683.19714,0.04844
5685.12561,0.03489
5687.05408,0.05414
5688.98254,0.08013
5690.91101,0.06869
5692.83948,0.05541
5694.76795,0.06117
5696.69642,0.05398
5698.62489,0.04587
5700.55336,0.05145
5702.48183,0.03178
5704.41029,0.00125
5706.33876,-0.00257
5708.26723,0.01328
5710.19570,0.03904
5712.12417,0.05707
5714.05264,0.05557
5715.98111,0.04715
5717.90957,0.03070
5719.83804,-0.00007
5721.76651,-0.01045
5723.69498,0.02285
5725.62345,0.06329
5727.55192,0.09083
5729.48039,0.10263
5731.40886,0.09400
5733.33732,0.08663
5735.26579,0.08351
5737.19426,0.07073
5739.12273,0.06186
5741.05120,0.05873
5742.97967,0.05024
5744.90814,0.05238
5746.83660,0.07049
5748.76507,0.07962
5750.69354,0.07707
5752.62201,0.08254
5754.55048,0.09927
5756.47895,0.11775
5758.40742,0.11201
5760.33588,0.08046
5762.26435,0.05888
5764.19282,0.04692
5766.12129,0.04136
5768.04976,0.06114
5769.97823,0.07231
5771.90670,0.05323
5773.83517,0.05684
5775.76363,0.08702
5777.69210,0.08144
5779.62057,0.04377
5781.54904,0.03535
5783.47751,0.06745
5785.40598,0.10232
5787.33445,0.11004
5789.26291,0.10148
5791.19138,0.10163
5793.11985,0.10169
5795.04832,0.09662
5796.97679,0.09614
5798.90526,0.08464
5800.83373,0.05751
5802.76220,0.04191
5804.69066,0.05189
5806.61913,0.06435
5808.54760,0.07021
5810.47607,0.07641
5812.40454,0.07384
5814.33301,0.07638
5816.26148,0.10496
5818.18994,0.12654
5820.11841,0.09856
5822.04688,0.06335
5823.97535,0.06008
5825.90382,0.04898
5827.83229,0.01757
5829.76076,-0.01057
5831.68923,-0.02599
5833.61769,-0.02632
5835.54616,-0.00061
5837.47463,0.04487
5839.40310,0.06927
5841.33157,0.05425
5843.26004,0.02956
5845.18851,-0.00086
5847.11697,-0.02981
5849.04544,-0.01227
5850.97391,0.02289
5852.90238,0.01386
5854.83085,-0.01370
5856.75932,-0.00431
5858.68779,0.05788
5860.61626,0.12897
5862.54472,0.15075
5864.47319,0.13404
5866.40166,0.12609
5868.33013,0.10819
5870.25860,0.05768
5872.18707,0.01462
5874.11554,0.00400
5876.04400,0.01908
5877.97247,0.03520
5879.90094,0.02438
5881.82941,0.01563
5883.75788,0.03783
5885.68635,0.06492
5887.61482,0.08840
5889.54329,0.11711
5891.47175,0.13800
5893.40022,0.12981
5895.32869,0.09441
5897.25716,0.05528
5899.18563,0.03637
5901.11410,0.03949
5903.04257,0.02739
5904.97103,0.01036
5906.89950,0.04317
5908.82797,0.08810
5910.75644,0.07550
5912.68491,0.03788
5914.61338,0.02224
5916.54185,0.01176
5918.47032,0.00006
5920.39878,0.01015
5922.32725,0.03375
5924.25572,0.04966
5926.18419,0.06604
5928.11266,0.07583
5930.04113,0.06253
5931.96960,0.05602
5933.89806,0.07455
5935.82653,0.08955
5937.75500,0.09879
5939.68347,0.11645
5941.61194,0.10201
5943.54041,0.05609
5945.46888,0.04278
5947.39734,0.03927
5949.32581,0.02687
5951.25428,0.05540
5953.18275,0.08443
5955.11122,0.03988
5957.03969,-0.03546
5958.96816,-0.04315
5960.89663,0.01389
5962.82509,0.03991
5964.75356,0.01935
5966.68203,0.01537
5968.61050,0.05306
5970.53897,0.08523
5972.46744,0.08022
5974.39591,0.06931
5976.32437,0.08056
5978.25284,0.10784
5980.18131,0.11542
5982.10978,0.07997
5984.03825,0.06497
5985.96672,0.09849
5987.89519,0.10460
5989.82366,0.07002
5991.75212,0.03351
5993.68059,0.01441
5995.60906,0.02834
5997.53753,0.04716
5999.46600,0.04701
6001.39447,0.05227
6003.32294,0.05393
6005.25140,0.03335
6007.17987,0.02528
6009.10834,0.03438
6011.03681,0.04580
6012.96528,0.04706
6014.89375,0.01338
6016.82222,-0.02153
6018.75069,-0.02697
6020.67915,-0.02552
6022.60762,-0.01086
6024.53609,0.00524
6026.46456,-0.00136
6028.39303,0.00532
6030.32150,0.04895
6032.24997,0.08870
6034.17843,0.08963
6036.10690,0.05089
6038.03537,0.00617
6039.96384,0.01387
6041.89231,0.07179
6043.82078,0.09332
6045.74925,0.06026
6047.67772,0.03975
6049.60618,0.03804
6051.53465,0.02796
6053.46312,0.02056
6055.39159,0.01245
6057.32006,0.00873
6059.24853,0.03789
6061.17700,0.06181
6063.10546,0.05337
6065.03393,0.06313
6066.96240,0.10278
6068.89087,0.13030
6070.81934,0.13709
6072.74781,0.16148
6074.67628,0.17989
6076.60475,0.14149
6078.53321,0.08925
6080.46168,0.07955
6082.39015,0.08426
6084.31862,0.08844
6086.24709,0.13224
6088.17556,0.15384
6090.10403,0.12532
6092.03249,0.11640
6093.96096,0.09331
6095.88943,0.06628
6097.81790,0.09871
6099.74637,0.11558
6101.67484,0.05695
6103.60331,0.02146
6105.53177,0.08193
6107.46024,0.14570
6109.38871,0.11037
6111.31718,0.04841
6113.24565,0.05609
6115.17412,0.08133
6117.10259,0.05113
6119.03106,-0.01170
6120.95952,-0.03418
6122.88799,0.00853
6124.81646,0.06599
6126.74493,0.07461
6128.67340,0.04570
6130.60187,0.01655
6132.53034,0.00754
6134.45880,0.04224
6136.38727,0.09529
6138.31574,0.11609
6140.24421,0.09204
6142.17268,0.05842
6144.10115,0.03965
6146.02962,0.02282
6147.95809,0.02857
6149.88655,0.05991
6151.81502,0.06767
6153.74349,0.05072
6155.67196,0.05092
6157.60043,0.06191
6159.52890,0.06543
6161.45737,0.08758
6163.38583,0.13667
6165.31430,0.15931
6167.24277,0.12482
6169.17124,0.06551
6171.09971,0.03232
6173.02818,0.05090
6174.95665,0.07794
6176.88512,0.06431
6178.81358,0.05085
6180.74205,0.06978
6182.67052,0.07304
6184.59899,0.05046
6186.52746,0.03756
6188.45593,0.03430
6190.38440,0.02461
6192.31286,0.01807
6194.24133,0.01839
6196.16980,0.02180
6198.09827,0.01979
6200.02674,0.02386
6201.95521,0.05851
6203.88368,0.08362
6205.81215,0.06236
6207.74061,0.01961
6209.66908,-0.02819
6211.59755,-0.03615
6213.52602,0.01036
6215.45449,0.06059
6217.38296,0.09603
6219.31143,0.12253
6221.23989,0.12640
6223.16836,0.09822
6225.09683,0.06074
6227.02530,0.04381
6228.95377,0.07200
6230.88224,0.14653
6232.81071,0.20075
6234.73918,0.17890
6236.66764,0.10733
6238.59611,0.02552
6240.52458,-0.01550
6242.45305,0.01452
6244.38152,0.07848
6246.30999,0.13433
6248.23846,0.17782
6250.16692,0.19117
6252.09539,0.12919
6254.02386,0.04821
6255.95233,0.02985
6257.88080,0.04895
6259.80927,0.06627
6261.73774,0.06865
6263.66621,0.05571
6265.59467,0.05394
6267.52314,0.04957
6269.45161,0.01974
6271.38008,-0.00824
6273.30855,-0.04473
6275.23702,-0.06011
6277.16549,0.03703
6279.09395,0.17364
6281.02242,0.22547
6282.95089,0.16544
6284.87936,0.05979
6286.80783,0.02315
6288.73630,0.05193
6290.66477,0.07297
6292.59323,0.09078
6294.52170,0.10465
6296.45017,0.07816
6298.37864,0.06502
6300.30711,0.07494
6302.23558,0.03727
6304.16405,-0.01702
6306.09252,-0.04843
6308.02098,-0.04546
6309.94945,-0.00337
6311.87792,0.05324
6313.80639,0.08351
6315.73486,0.03552
6317.66333,-0.00819
6319.59180,0.02316
6321.52026,0.03534
6323.44873,0.02939
6325.37720,0.07815
6327.30567,0.15793
6329.23414,0.18808
6331.16261,0.12116
6333.09108,0.05519
6335.01955,0.07982
6336.94801,0.12434
6338.87648,0.10933
6340.80495,0.07448
6342.73342,0.07346
6344.66189,0.06595
6346.59036,0.05002
6348.51883,0.09681
6350.44729,0.16230
6352.37576,0.16350
6354.30423,0.14713
6356.23270,0.12105
6358.16117,0.04054
6360.08964,-0.02975
6362.01811,0.00471
6363.94658,0.10798
6365.87504,0.19021
6367.80351,0.23368
6369.73198,0.24900
6371.66045,0.21430
6373.58892,0.12258
6375.51739,0.05723
6377.44586,0.06341
6379.37432,0.08359
6381.30279,0.11303
6383.23126,0.15036
6385.15973,0.14512
6387.08820,0.11558
6389.01667,0.07909
6390.94514,0.06062
6392.87361,0.11314
6394.80207,0.16981
6396.73054,0.12314
6398.65901,0.02932
6400.58748,-0.00964
6402.51595,0.00667
6404.44442,0.04472
6406.37289,0.12856
6408.30135,0.19233
6410.22982,0.14477
6412.15829,0.07113
6414.08676,0.06479
6416.01523,0.07767
6417.94370,0.03387
6419.87217,-0.03877
6421.80064,-0.06866
6423.72910,-0.05370
6425.65757,-0.02278
6427.58604,0.00608
6429.51451,0.08552
6431.44298,0.20008
6433.37145,0.22809
6435.29992,0.16857
6437.22838,0.07654
6439.15685,0.01318
6441.08532,0.02240
6443.01379,0.03249
6444.94226,-0.01110
6446.87073,-0.02684
6448.79920,0.00085
6450.72766,0.00789
6452.65613,0.00561
6454.58460,0.04705
6456.51307,0.10871
6458.44154,0.11890
6460.37001,0.07608
6462.29848,0.00181
6464.22695,-0.05500
6466.15541,-0.02558
6468.08388,0.05925
6470.01235,0.09194
6471.94082,0.05060
6473.86929,0.05602
6475.79776,0.12124
6477.72623,0.11988
6479.65469,0.04601
6481.58316,-0.01093
6483.51163,-0.01537
6485.44010,-0.01260
6487.36857,-0.01215
6489.29704,0.01626
6491.22551,0.06598
6493.15398,0.11276
6495.08244,0.12450
6497.01091,0.09608
6498.93938,0.08587
6500.86785,0.10202
6502.79632,0.07207
6504.72479,-0.01433
6506.65326,-0.08680
6508.58172,-0.07310
6510.51019,0.01891
6512.43866,0.11674
6514.36713,0.17410
6516.29560,0.18854
6518.22407,0.16775
6520.15254,0.12009
6522.08101,0.04634
6524.00947,-0.03453
6525.93794,-0.07231
6527.86641,-0.08984
6529.79488,-0.10322
6531.72335,-0.04978
6533.65182,0.02562
6535.58029,0.06884
6537.50875,0.10999
6539.43722,0.11796
6541.36569,0.07727
6543.29416,0.05382
6545.22263,0.09081
6547.15110,0.14486
6549.07957,0.15041
6551.00804,0.08762
6552.93650,-0.00171
6554.86497,-0.05647
6556.79344,-0.02046
6558.72191,0.07056
6560.65038,0.10061
6562.57885,0.06800
6564.50732,0.04179
6566.43578,0.01970
6568.36425,0.01014
6570.29272,0.03485
6572.22119,0.04207
6574.14966,0.00830
6576.07813,-0.00274
6578.00660,0.03075
6579.93507,0.08064
6581.86353,0.09631
6583.79200,0.05508
6585.72047,0.02169
6587.64894,0.00660
6589.57741,-0.02367
6591.50588,-0.04588
6593.43435,-0.04346
6595.36281,-0.03711
6597.29128,0.00316
6599.21975,0.10739
6601.14822,0.17670
6603.07669,0.13731
6605.00516,0.11793
6606.93363,0.16703
6608.86210,0.15955
6610.79056,0.04494
6612.71903,-0.08738
6614.64750,-0.10849
6616.57597,0.00799
6618.50444,0.10248
6620.43291,0.07731
6622.36138,0.02129
6624.28984,0.01995
6626.21831,0.07707
6628.14678,0.15524
6630.07525,0.15503
6632.00372,0.07643
6633.93219,0.05536
6635.86066,0.10286
6637.78912,0.11177
6639.71759,0.04996
6641.64606,-0.00406
6643.57453,0.01904
6645.50300,0.06560
6647.43147,0.08178
6649.35994,0.11351
6651.28841,0.12511
6653.21687,0.05469
6655.14534,-0.03613
6657.07381,-0.05803
6659.00228,-0.03779
6660.93075,-0.02477
6662.85922,0.01124
6664.78769,0.07025
6666.71615,0.13955
6668.64462,0.18937
6670.57309,0.18147
6672.50156,0.14616
6674.43003,0.11853
6676.35850,0.10256
6678.28697,0.07743
6680.21544,0.05830
6682.14390,0.08772
6684.07237,0.14312
6686.00084,0.17598
6687.92931,0.14694
6689.85778,0.02932
6691.78625,-0.08246
6693.71472,-0.09669
6695.64318,-0.07966
6697.57165,-0.10409
6699.50012,-0.11076
6701.42859,-0.02609
6703.35706,0.09141
6705.28553,0.09438
6707.21400,0.02046
6709.14247,0.00887
6711.07093,0.05018
6712.99940,0.08558
6714.92787,0.06395
6716.85634,-0.00855
6718.78481,-0.06366
6720.71328,-0.06655
6722.64175,-0.02370
6724.57021,0.02897
6726.49868,0.06139
6728.42715,0.08027
6730.35562,0.10695
6732.28409,0.13205
6734.21256,0.11821
6736.14103,0.09527
6738.06950,0.10106
6739.99796,0.09253
6741.92643,0.07264
6743.85490,0.06690
6745.78337,0.05462
6747.71184,0.03682
6749.64031,0.04674
6751.56878,0.10486
6753.49724,0.10120
6755.42571,0.02144
6757.35418,0.04488
6759.28265,0.12118
6761.21112,0.09230
6763.13959,0.03471
6765.06806,0.02367
6766.99653,0.07329
6768.92499,0.13191
6770.85346,0.09699
6772.78193,-0.02913
6774.71040,-0.14461
6776.63887,-0.12298
6778.56734,-0.01664
6780.49581,0.04910
6782.42427,0.06641
6784.35274,0.05378
6786.28121,0.04439
6788.20968,0.06146
6790.13815,0.10873
6792.06662,0.16556
6793.99509,0.17425
6795.92355,0.13976
6797.85202,0.10011
6799.78049,0.06627
6801.70896,0.05257
6803.63743,0.09395
6805.56590,0.11494
6807.49437,0.05955
6809.42284,0.07381
6811.35130,0.15021
6813.27977,0.09408
6815.20824,0.00365
6817.13671,0.05629
6819.06518,0.11339
6820.99365,0.04740
6822.92212,-0.03870
6824.85058,-0.03798
6826.77905,0.01109
6828.70752,0.09946
6830.63599,0.15006
6832.56446,0.10417
6834.49293,0.06506
6836.42140,0.05932
6838.34987,-0.00002
6840.27833,-0.07214
6842.20680,-0.05237
6844.13527,0.05669
6846.06374,0.16544
6847.99221,0.23906
6849.92068,0.31051
6851.84915,0.35840
6853.77761,0.31322
6855.70608,0.14858
6857.63455,0.03362
6859.56302,0.09224
6861.49149,0.20423
6863.41996,0.20917
6865.34843,0.14778
6867.27690,0.13687
6869.20536,0.17151
6871.13383,0.18113
6873.06230,0.14546
6874.99077,0.11230
6876.91924,0.06256
6878.84771,-0.00048
6880.77618,0.00829
6882.70464,0.07179
6884.63311,0.15306
6886.56158,0.19313
6888.49005,0.13979
6890.41852,0.05463
6892.34699,0.00070
6894.27546,-0.00968
6896.20393,-0.00948
6898.13239,-0.02422
6900.06086,-0.01686
6901.98933,0.01758
6903.91780,0.04673
6905.84627,0.04503
6907.77474,0.01212
6909.70321,-0.01363
6911.63167,-0.07590
6913.56014,-0.15431
6915.48861,-0.06638
6917.41708,0.12524
6919.34555,0.17202
6921.27402,0.06468
6923.20249,0.00053
6925.13096,0.01478
6927.05942,0.01592
6928.98789,-0.00532
6930.91636,0.02194
6932.84483,0.08425
6934.77330,0.11074
6936.70177,0.13525
6938.63024,0.19689
6940.55870,0.16931
6942.48717,0.01218
6944.41564,-0.08238
6946.34411,-0.05706
6948.27258,0.01967
6950.20105,0.07255
6952.12952,0.11745
6954.05799,0.14989
6955.98645,0.07893
6957.91492,-0.02718
6959.84339,-0.02575
6961.77186,0.03749
6963.70033,0.07821
6965.62880,0.08704
6967.55727,0.05963
6969.48573,0.02639
6971.41420,0.01079
6973.34267,0.02185
6975.27114,0.07694
6977.19961,0.14319
6979.12808,0.17927
6981.05655,0.14675
6982.98501,0.00715
6984.91348,-0.13337
6986.84195,-0.15025
6988.77042,-0.11598
6990.69889,-0.04718
6992.62736,0.14150
6994.55583,0.34006
6996.48430,0.30106
6998.41276,0.02972
7000.34123,-0.13489
7002.26970,-0.05429
7004.19817,0.09456
7006.12664,0.13026
7008.05511,0.07685
7009.98358,-0.01894
7011.91204,-0.14791
7013.84051,-0.21001
7015.76898,-0.13412
7017.69745,0.00881
7019.62592,0.13365
7021.55439,0.21086
7023.48286,0.24998
7025.41133,0.24651
7027.33979,0.25742
7029.26826,0.31318
7031.19673,0.33119
7033.12520,0.29873
7035.05367,0.24508
7036.98214,0.14410
7038.91061,0.02136
7040.83907,-0.06296
7042.76754,-0.09824
7044.69601,-0.06584
7046.62448,0.04415
7048.55295,0.10463
7050.48142,0.03581
7052.40989,-0.01352
7054.33836,0.05941
7056.26682,0.10552
7058.19529,0.06099
7060.12376,0.13485
7062.05223,0.25866
7063.98070,0.18753
7065.90917,0.05624
7067.83764,0.05642
7069.76610,0.13597
7071.69457,0.20185
7073.62304,0.10854
7075.55151,-0.07972
7077.47998,-0.13158
7079.40845,0.00693
7081.33692,0.18064
7083.26539,0.25476
7085.19385,0.29301
7087.12232,0.24912
7089.05079,0.06966
7090.97926,-0.06718
7092.90773,-0.06667
7094.83620,-0.01861
7096.76467,0.00824
7098.69313,0.03517
7100.62160,0.07109
7102.55007,0.09409
7104.47854,0.10866
7106.40701,0.16034
7108.33548,0.23044
7110.26395,0.25570
7112.19242,0.23479
7114.12088,0.20306
7116.04935,0.17663
7117.97782,0.14446
7119.90629,0.10803
7121.83476,0.01379
7123.76323,-0.08608
7125.69170,-0.05436
7127.62016,0.02828
7129.54863,-0.00096
7131.47710,-0.07411
7133.40557,-0.04635
7135.33404,0.05908
7137.26251,0.12909
7139.19098,0.10213
7141.11944,-0.01506
7143.04791,-0.10411
7144.97638,-0.02396
7146.90485,0.22657
7148.83332,0.41311
7150.76179,0.40245
7152.69026,0.30576
7154.61873,0.23651
7156.54719,0.13333
7158.47566,0.04115
7160.40413,0.00669
7162.33260,-0.02748
7164.26107,0.00147
7166.18954,0.06979
7168.11801,0.04885
7170.04647,0.02989
7171.97494,0.06186
7173.90341,0.06187
7175.83188,0.00446
7177.76035,-0.09820
7179.68882,-0.13444
7181.61729,-0.01178
7183.54576,0.11307
7185.47422,0.07886
7187.40269,-0.01770
7189.33116,-0.06222
7191.25963,0.07171
7193.18810,0.24682
7195.11657,0.22317
7197.04504,0.13216
7198.97350,0.14573
7200.90197,0.27584
7202.83044,0.45836
7204.75891,0.55349
7206.68738,0.44466
7208.61585,0.31627
7210.54432,0.21645
7212.47279,0.07868
7214.40125,-0.00294
7216.32972,0.01574
7218.25819,0.05297
7220.18666,0.02700
7222.11513,-0.02906
7224.04360,0.00537
7225.97207,0.15585
7227.90053,0.27806
7229.82900,0.27226
7231.75747,0.17013
7233.68594,0.14891
7235.61441,0.19669
7237.54288,0.14107
7239.47135,-0.01896
7241.39982,-0.16968
7243.32828,-0.22975
7245.25675,-0.11665
7247.18522,-0.00554
7249.11369,-0.00597
7251.04216,0.02240
7252.97063,0.13913
7254.89910,0.18255
7256.82756,0.11537
7258.75603,0.03413
7260.68450,0.04680
7262.61297,0.10242
7264.54144,0.05969
7266.46991,-0.05897
7268.39838,-0.13977
7270.32685,-0.14476
7272.25531,-0.14142
7274.18378,-0.07894
7276.11225,0.01159
7278.04072,0.02563
7279.96919,0.07035
7281.89766,0.14927
7283.82613,0.09608
7285.75459,0.08847
7287.68306,0.17748
7289.61153,0.18157
7291.54000,0.12191
7293.46847,0.15746
7295.39694,0.12167
7297.32541,-0.02933
7299.25387,-0.02873
7301.18234,0.13090
7303.11081,0.26569
7305.03928,0.30748
7306.96775,0.29948
7308.89622,0.25871
7310.82469,0.11400
7312.75316,-0.01450
7314.68162,-0.02315
7316.61009,-0.00297
7318.53856,-0.06370
7320.46703,-0.20203
7322.39550,-0.29839
7324.32397,-0.22337
7326.25244,-0.05439
7328.18090,0.08515
7330.10937,0.06757
7332.03784,-0.00291
7333.96631,0.10253
7335.89478,0.30011
7337.82325,0.47229
7339.75172,0.47719
7341.68019,0.28410
7343.60865,0.22979
7345.53712,0.20242
7347.46559,0.04238
7349.39406,0.01966
7351.32253,0.19782
7353.25100,0.26895
7355.17947,0.19182
7357.10793,0.16212
7359.03640,0.22797
7360.96487,0.29372
7362.89334,0.31786
7364.82181,0.24346
7366.75028,0.17057
7368.67875,0.24563
7370.60722,0.34149
7372.53568,0.31058
7374.46415,0.16529
7376.39262,0.07126
7378.32109,0.13040
7380.24956,0.14054
7382.17803,0.00915
7384.10650,-0.07389
7386.03496,0.06545
7387.96343,0.36312
7389.89190,0.56592
7391.82037,0.55752
7393.74884,0.42506
7395.67731,0.25896
7397.60578,0.11815
7399.53425,0.11344
7401.46271,0.15728
7403.39118,0.05898
7405.31965,-0.10905
7407.24812,-0.22809
7409.17659,-0.29220
7411.10506,-0.24209
7413.03353,-0.15495
7414.96199,-0.12529
7416.89046,-0.09510
7418.81893,0.02443
7420.74740,0.02666
7422.67587,-0.07768
7424.60434,-0.01941
7426.53281,0.14000
7428.46128,0.29725
7430.38974,0.38125
7432.31821,0.34625
7434.24668,0.31855
7436.17515,0.21737
7438.10362,-0.01042
7440.03209,-0.14970
7441.96056,-0.23068
7443.88902,-0.24912
7445.81749,-0.05900
7447.74596,0.17428
7449.67443,0.33010
7451.60290,0.40097
7453.53137,0.27212
7455.45984,0.09629
7457.38831,0.03405
7459.31677,0.05000
7461.24524,0.16230
7463.17371,0.29085
7465.10218,0.21917
7467.03065,0.01219
7468.95912,-0.11853
7470.88759,-0.22337
7472.81605,-0.32187
7474.74452,-0.29040
7476.67299,-0.22855
7478.60146,-0.29031
7480.52993,-0.30204
7482.45840,-0.12859
7484.38687,0.02923
7486.31533,0.13826
7488.24380,0.29517
7490.17227,0.42595
7492.10074,0.36277
7494.02921,0.20431
7495.95768,0.16820
7497.88615,0.28553
