399.19301,1.07310
401.12148,0.41315
403.04995,0.38927
404.97842,0.41535
406.90689,0.46524
408.83536,0.44232
410.76382,0.31363
412.69229,0.13056
414.62076,0.00403
416.54923,-0.05594
418.47770,-0.09333
420.40617,-0.03087
422.33464,0.08208
424.26311,0.14365
426.19157,0.14656
428.12004,0.12043
430.04851,0.14219
431.97698,0.19448
433.90545,0.14515
435.83392,0.03731
437.76239,-0.01320
439.69085,0.01710
441.61932,0.08233
443.54779,0.10953
445.47626,0.08385
447.40473,0.06382
449.33320,0.05771
451.26167,0.04828
453.19013,0.01033
455.11860,-0.04989
457.04707,-0.08017
458.97554,-0.04799
460.90401,0.00958
462.83248,0.04034
464.76095,0.01058
466.68942,-0.04933
468.61788,-0.03743
470.54635,0.20985
472.47482,1.27457
474.40329,2.50011
476.33176,1.66750
478.26023,0.53609
480.18870,0.10764
482.11716,0.04868
484.04563,0.06199
485.97410,0.05510
487.90257,0.02511
489.83104,0.01239
491.75951,-0.00266
493.68798,-0.01266
495.61645,0.00488
497.54491,0.00787
499.47338,-0.00637
501.40185,0.01835
503.33032,0.06712
505.25879,0.05368
507.18726,-0.00875
509.11573,-0.01193
511.04419,0.02464
512.97266,0.02909
514.90113,0.03114
516.82960,0.05145
518.75807,0.04445
520.68654,0.02831
522.61501,0.03857
524.54348,0.04390
526.47194,0.03216
528.40041,0.03563
530.32888,0.06460
532.25735,0.09407
534.18582,0.08573
536.11429,0.07664
538.04276,0.10155
539.97122,0.11448
541.89969,0.10660
543.82816,0.09761
545.75663,0.10168
547.68510,0.10699
549.61357,0.09410
551.54204,0.07772
553.47051,0.07522
555.39897,0.08826
557.32744,0.09676
559.25591,0.09077
561.18438,0.07211
563.11285,0.04658
565.04132,0.03599
566.96979,0.03865
568.89825,0.04426
570.82672,0.05523
572.75519,0.05427
574.68366,0.04126
576.61213,0.04100
578.54060,0.04352
580.46907,0.03462
582.39754,0.03324
584.32600,0.05968
586.25447,0.09999
588.18294,0.11279
590.11141,0.08759
592.03988,0.06724
593.96835,0.08131
595.89682,0.10160
597.82528,0.10411
599.75375,0.10244
601.68222,0.11084
603.61069,0.11337
605.53916,0.09797
607.46763,0.08083
609.39610,0.07777
611.32456,0.08331
613.25303,0.09092
615.18150,0.10308
617.10997,0.10803
619.03844,0.10792
620.96691,0.11812
622.89538,0.13201
624.82385,0.13639
626.75231,0.11888
628.68078,0.08756
630.60925,0.06933
632.53772,0.06381
634.46619,0.06094
636.39466,0.06657
638.32313,0.07954
640.25159,0.09895
642.18006,0.11698
644.10853,0.11582
646.03700,0.10959
647.96547,0.11212
649.89394,0.10103
651.82241,0.08226
653.75088,0.08606
655.67934,0.09498
657.60781,0.08319
659.53628,0.06421
661.46475,0.06400
663.39322,0.07989
665.32169,0.07887
667.25016,0.05512
669.17862,0.06723
671.10709,0.10132
673.03556,0.10606
674.96403,0.09547
676.89250,0.08414
678.82097,0.07660
680.74944,0.07651
682.67791,0.09034
684.60637,0.11303
686.53484,0.11615
688.46331,0.10331
690.39178,0.10550
692.32025,0.11562
694.24872,0.12130
696.17719,0.12466
698.10565,0.12138
700.03412,0.11060
701.96259,0.10216
703.89106,0.10081
705.81953,0.09847
707.74800,0.09491
709.67647,0.11170
711.60494,0.14539
713.53340,0.14407
715.46187,0.10598
717.39034,0.08648
719.31881,0.09270
721.24728,0.10177
723.17575,0.10418
725.10422,0.10198
727.03268,0.09945
728.96115,0.09381
730.88962,0.08997
732.81809,0.09739
734.74656,0.11101
736.67503,0.11914
738.60350,0.11584
740.53197,0.09987
742.46043,0.08245
744.38890,0.07679
746.31737,0.08520
748.24584,0.10389
750.17431,0.11887
752.10278,0.12113
754.03125,0.12159
755.95971,0.12780
757.88818,0.12946
759.81665,0.12302
761.74512,0.12122
763.67359,0.12647
765.60206,0.12531
767.53053,0.11684
769.45900,0.11532
771.38746,0.11717
773.31593,0.10760
775.24440,0.09397
777.17287,0.08842
779.10134,0.09011
781.02981,0.09976
782.95828,0.10567
784.88674,0.09561
786.81521,0.08746
788.74368,0.09259
790.67215,0.09862
792.60062,0.09770
794.52909,0.09322
796.45756,0.09900
798.38602,0.11979
800.31449,0.12984
802.24296,0.10865
804.17143,0.08083
806.09990,0.07627
808.02837,0.08328
809.95684,0.07658
811.88531,0.07230
813.81377,0.08998
815.74224,0.10510
817.67071,0.10170
819.59918,0.09710
821.52765,0.09702
823.45612,0.09653
825.38459,0.09985
827.31305,0.10089
829.24152,0.09724
831.16999,0.09805
833.09846,0.10131
835.02693,0.10024
836.95540,0.09310
838.88387,0.08386
840.81234,0.08085
842.74080,0.09303
844.66927,0.10785
846.59774,0.10590
848.52621,0.09910
850.45468,0.10104
852.38315,0.10547
854.31162,0.10659
856.24008,0.10482
858.16855,0.10534
860.09702,0.11008
862.02549,0.11000
863.95396,0.10774
865.88243,0.11104
867.81090,0.13074
869.73937,0.16323
871.66783,0.15436
873.59630,0.10928
875.52477,0.09131
877.45324,0.09442
879.38171,0.09491
881.31018,0.09376
883.23865,0.09002
885.16711,0.08987
887.09558,0.09312
889.02405,0.08853
890.95252,0.08036
892.88099,0.08415
894.80946,0.09730
896.73793,0.10206
898.66640,0.09631
900.59486,0.09637
902.52333,0.10619
904.45180,0.11213
906.38027,0.11083
908.30874,0.11117
910.23721,0.11145
912.16568,0.10507
914.09414,0.09965
916.02261,0.10508
917.95108,0.11752
919.87955,0.12023
921.80802,0.10418
923.73649,0.08702
925.66496,0.08613
927.59343,0.09526
929.52189,0.10651
931.45036,0.11428
933.37883,0.10860
935.30730,0.09579
937.23577,0.09447
939.16424,0.10346
941.09271,0.10689
943.02117,0.10580
944.94964,0.10907
946.87811,0.11745
948.80658,0.12444
950.73505,0.12092
952.66352,0.11332
954.59199,0.10933
956.52045,0.10774
958.44892,0.10968
960.37739,0.11010
962.30586,0.10404
964.23433,0.09622
966.16280,0.09705
968.09127,0.11006
970.01974,0.12052
971.94820,0.11578
973.87667,0.10693
975.80514,0.10619
977.73361,0.10728
979.66208,0.10625
981.59055,0.11027
983.51902,0.11769
985.44748,0.11941
987.37595,0.11745
989.30442,0.11822
991.23289,0.11957
993.16136,0.12084
995.08983,0.12319
997.01830,0.12056
998.94677,0.11619
1000.87523,0.11859
1002.80370,0.12182
1004.73217,0.12130
1006.66064,0.12033
1008.58911,0.11782
1010.51758,0.11659
1012.44605,0.12384
1014.37451,0.12980
1016.30298,0.12353
1018.23145,0.11558
1020.15992,0.11369
1022.08839,0.11443
1024.01686,0.11252
1025.94533,0.08946
1027.87380,0.04585
1029.80226,0.03639
1031.73073,0.07830
1033.65920,0.11443
1035.58767,0.12099
1037.51614,0.12198
1039.44461,0.12860
1041.37308,0.13173
1043.30154,0.12802
1045.23001,0.12515
1047.15848,0.12264
1049.08695,0.11330
1051.01542,0.10570
1052.94389,0.10978
1054.87236,0.11504
1056.80083,0.11696
1058.72929,0.11623
1060.65776,0.11054
1062.58623,0.10961
1064.51470,0.11583
1066.44317,0.11898
1068.37164,0.11762
1070.30011,0.11807
1072.22857,0.12049
1074.15704,0.11843
1076.08551,0.11658
1078.01398,0.12681
1079.94245,0.13464
1081.87092,0.12474
1083.79939,0.11488
1085.72786,0.11330
1087.65632,0.10948
1089.58479,0.10374
1091.51326,0.10289
1093.44173,0.11026
1095.37020,0.12175
1097.29867,0.13055
1099.22714,0.13552
1101.15560,0.13524
1103.08407,0.12915
1105.01254,0.12258
1106.94101,0.11921
1108.86948,0.12317
1110.79795,0.13359
1112.72642,0.13656
1114.65489,0.12702
1116.58335,0.11531
1118.51182,0.10971
1120.44029,0.11152
1122.36876,0.11482
1124.29723,0.11785
1126.22570,0.12024
1128.15417,0.11636
1130.08263,0.11511
1132.01110,0.12164
1133.93957,0.12453
1135.86804,0.12273
1137.79651,0.12448
1139.72498,0.12989
1141.65345,0.13431
1143.58191,0.13558
1145.51038,0.13212
1147.43885,0.12675
1149.36732,0.12390
1151.29579,0.12461
1153.22426,0.12595
1155.15273,0.12402
1157.08120,0.12011
1159.00966,0.11639
1160.93813,0.11769
1162.86660,0.12470
1164.79507,0.12677
1166.72354,0.12200
1168.65201,0.11835
1170.58048,0.11602
1172.50894,0.11385
1174.43741,0.11509
1176.36588,0.11721
1178.29435,0.11920
1180.22282,0.12510
1182.15129,0.13162
1184.07976,0.13396
1186.00823,0.13381
1187.93669,0.13326
1189.86516,0.13188
1191.79363,0.12878
1193.72210,0.12442
1195.65057,0.11947
1197.57904,0.11598
1199.50751,0.11885
1201.43597,0.12658
1203.36444,0.13115
1205.29291,0.12965
1207.22138,0.12492
1209.14985,0.12132
1211.07832,0.12067
1213.00679,0.12299
1214.93526,0.12636
1216.86372,0.12570
1218.79219,0.12193
1220.72066,0.11838
1222.64913,0.11471
1224.57760,0.11453
1226.50607,0.11878
1228.43454,0.12210
1230.36300,0.12215
1232.29147,0.11949
1234.21994,0.11700
1236.14841,0.11765
1238.07688,0.12008
1240.00535,0.12169
1241.93382,0.12188
1243.86229,0.12013
1245.79075,0.11684
1247.71922,0.11510
1249.64769,0.11533
1251.57616,0.11556
1253.50463,0.11735
1255.43310,0.12167
1257.36157,0.12554
1259.29003,0.12784
1261.21850,0.12978
1263.14697,0.12995
1265.07544,0.12640
1267.00391,0.12017
1268.93238,0.11545
1270.86085,0.11577
1272.78932,0.11987
1274.71778,0.12471
1276.64625,0.12835
1278.57472,0.12930
1280.50319,0.12807
1282.43166,0.12810
1284.36013,0.12916
1286.28860,0.12667
1288.21706,0.12378
1290.14553,0.12634
1292.07400,0.12955
1294.00247,0.12885
1295.93094,0.12659
1297.85941,0.12386
1299.78788,0.11882
1301.71634,0.10734
1303.64481,0.09207
1305.57328,0.08997
1307.50175,0.10713
1309.43022,0.12471
1311.35869,0.13068
1313.28716,0.13113
1315.21563,0.13022
1317.14409,0.12871
1319.07256,0.12830
1321.00103,0.12956
1322.92950,0.13276
1324.85797,0.13307
1326.78644,0.12812
1328.71491,0.12403
1330.64337,0.12044
1332.57184,0.11792
1334.50031,0.12017
1336.42878,0.12321
1338.35725,0.12468
1340.28572,0.12321
1342.21419,0.12571
1344.14266,0.13686
1346.07112,0.14148
1347.99959,0.13464
1349.92806,0.12774
1351.85653,0.12355
1353.78500,0.12036
1355.71347,0.12074
1357.64194,0.12528
1359.57040,0.13103
1361.49887,0.13676
1363.42734,0.13704
1365.35581,0.13275
1367.28428,0.13278
1369.21275,0.13456
1371.14122,0.13572
1373.06969,0.14004
1374.99815,0.14419
1376.92662,0.14253
1378.85509,0.13896
1380.78356,0.13675
1382.71203,0.13486
1384.64050,0.13514
1386.56897,0.13882
1388.49743,0.13988
1390.42590,0.13926
1392.35437,0.14312
1394.28284,0.14622
1396.21131,0.14338
1398.13978,0.13971
1400.06825,0.13629
1401.99672,0.13391
1403.92518,0.13540
1405.85365,0.14019
1407.78212,0.14331
1409.71059,0.14258
1411.63906,0.13997
1413.56753,0.13989
1415.49600,0.14541
1417.42446,0.15291
1419.35293,0.15100
1421.28140,0.14216
1423.20987,0.13885
1425.13834,0.13909
1427.06681,0.13782
1428.99528,0.13541
1430.92375,0.13626
1432.85221,0.13990
1434.78068,0.14280
1436.70915,0.14319
1438.63762,0.13924
1440.56609,0.13650
1442.49456,0.13765
1444.42303,0.13888
1446.35149,0.13727
1448.27996,0.13526
1450.20843,0.13668
1452.13690,0.14184
1454.06537,0.14819
1455.99384,0.15416
1457.92231,0.15428
1459.85077,0.14567
1461.77924,0.13870
1463.70771,0.13418
1465.63618,0.13043
1467.56465,0.12886
1469.49312,0.13298
1471.42159,0.14545
1473.35006,0.15752
1475.27852,0.15720
1477.20699,0.15141
1479.13546,0.14509
1481.06393,0.13911
1482.99240,0.13647
1484.92087,0.14010
1486.84934,0.14695
1488.77780,0.15021
1490.70627,0.14709
1492.63474,0.14219
1494.56321,0.14037
1496.49168,0.14226
1498.42015,0.15279
1500.34862,0.21169
1502.27709,0.32331
1504.20555,0.44039
1506.13402,0.44550
1508.06249,0.23910
1509.99096,0.15193
1511.91943,0.15061
1513.84790,0.15191
1515.77637,0.15413
1517.70483,0.15390
1519.63330,0.15294
1521.56177,0.15536
1523.49024,0.15452
1525.41871,0.15479
1527.34718,0.15559
1529.27565,0.15056
1531.20412,0.14504
1533.13258,0.14382
1535.06105,0.14147
1536.98952,0.14200
1538.91799,0.15774
1540.84646,0.18197
1542.77493,0.17860
1544.70340,0.16483
1546.63186,0.15333
1548.56033,0.14768
1550.48880,0.14762
1552.41727,0.14852
1554.34574,0.15065
1556.27421,0.15535
1558.20268,0.15681
1560.13115,0.14980
1562.05961,0.14786
1563.98808,0.14645
1565.91655,0.14301
1567.84502,0.14466
1569.77349,0.14927
1571.70196,0.14638
1573.63043,0.14344
1575.55889,0.14678
1577.48736,0.14761
1579.41583,0.14208
1581.34430,0.13819
1583.27277,0.13815
1585.20124,0.14033
1587.12971,0.14078
1589.05818,0.13787
1590.98664,0.13500
1592.91511,0.13576
1594.84358,0.13787
1596.77205,0.13701
1598.70052,0.13532
1600.62899,0.13767
1602.55746,0.14252
1604.48592,0.14468
1606.41439,0.14452
1608.34286,0.14278
1610.27133,0.13916
1612.19980,0.13838
1614.12827,0.14244
1616.05674,0.14579
1617.98521,0.14599
1619.91367,0.15010
1621.84214,0.15488
1623.77061,0.15185
1625.69908,0.14614
1627.62755,0.14685
1629.55602,0.14895
1631.48449,0.15001
1633.41295,0.15642
1635.34142,0.16524
1637.26989,0.15888
1639.19836,0.14983
1641.12683,0.14717
1643.05530,0.14776
1644.98377,0.15415
1646.91223,0.16621
1648.84070,0.16889
1650.76917,0.17135
1652.69764,0.18424
1654.62611,0.17574
1656.55458,0.15654
1658.48305,0.14890
1660.41152,0.14748
1662.33998,0.14765
1664.26845,0.14905
1666.19692,0.15103
1668.12539,0.15400
1670.05386,0.15619
1671.98233,0.15553
1673.91080,0.15352
1675.83926,0.14880
1677.76773,0.14799
1679.69620,0.15536
1681.62467,0.16628
1683.55314,0.17310
1685.48161,0.16550
1687.41008,0.15629
1689.33855,0.15208
1691.26701,0.15250
1693.19548,0.15952
1695.12395,0.16998
1697.05242,0.17281
1698.98089,0.16704
1700.90936,0.16042
1702.83783,0.15798
1704.76629,0.15956
1706.69476,0.15786
1708.62323,0.15153
1710.55170,0.14874
1712.48017,0.15048
1714.40864,0.15368
1716.33711,0.15613
1718.26558,0.15228
1720.19404,0.14531
1722.12251,0.14198
1724.05098,0.14173
1725.97945,0.14216
1727.90792,0.14384
1729.83639,0.14814
1731.76486,0.15382
1733.69332,0.15916
1735.62179,0.16040
1737.55026,0.15995
1739.47873,0.16013
1741.40720,0.15776
1743.33567,0.15354
1745.26414,0.15275
1747.19261,0.15652
1749.12107,0.16106
1751.04954,0.15966
1752.97801,0.15352
1754.90648,0.15048
1756.83495,0.15077
1758.76342,0.15039
1760.69189,0.15047
1762.62035,0.15166
1764.54882,0.15045
1766.47729,0.14924
1768.40576,0.15060
1770.33423,0.15242
1772.26270,0.15329
1774.19117,0.15179
1776.11964,0.14884
1778.04810,0.14712
1779.97657,0.14713
1781.90504,0.14835
1783.83351,0.14918
1785.76198,0.14829
1787.69045,0.14872
1789.61892,0.15243
1791.54738,0.15623
1793.47585,0.15669
1795.40432,0.15434
1797.33279,0.15081
1799.26126,0.14773
1801.18973,0.14539
1803.11820,0.14388
1805.04666,0.14385
1806.97513,0.14362
1808.90360,0.14325
1810.83207,0.14550
1812.76054,0.14747
1814.68901,0.14588
1816.61748,0.14378
1818.54595,0.14214
1820.47441,0.14115
1822.40288,0.14328
1824.33135,0.14635
1826.25982,0.14678
1828.18829,0.14699
1830.11676,0.14802
1832.04523,0.14672
1833.97369,0.14515
1835.90216,0.14587
1837.83063,0.14608
1839.75910,0.14613
1841.68757,0.14943
1843.61604,0.15395
1845.54451,0.15360
1847.47298,0.14848
1849.40144,0.14452
1851.32991,0.14490
1853.25838,0.14679
1855.18685,0.14701
1857.11532,0.14644
1859.04379,0.14591
1860.97226,0.14589
1862.90072,0.14649
1864.82919,0.14739
1866.75766,0.14999
1868.68613,0.15242
1870.61460,0.15041
1872.54307,0.14655
1874.47154,0.14365
1876.40001,0.14111
1878.32847,0.13882
1880.25694,0.13930
1882.18541,0.14375
1884.11388,0.14895
1886.04235,0.15077
1887.97082,0.14978
1889.89929,0.14859
1891.82775,0.14783
1893.75622,0.14746
1895.68469,0.14723
1897.61316,0.14686
1899.54163,0.14671
1901.47010,0.14779
1903.39857,0.15031
1905.32704,0.15124
1907.25550,0.14802
1909.18397,0.14419
1911.11244,0.14434
1913.04091,0.14617
1914.96938,0.14797
1916.89785,0.15206
1918.82632,0.15639
1920.75478,0.15565
1922.68325,0.14983
1924.61172,0.14365
1926.54019,0.14093
1928.46866,0.14173
1930.39713,0.14482
1932.32560,0.14743
1934.25407,0.14848
1936.18253,0.14902
1938.11100,0.14986
1940.03947,0.15166
1941.96794,0.15245
1943.89641,0.15041
1945.82488,0.14889
1947.75335,0.14908
1949.68181,0.14847
1951.61028,0.14708
1953.53875,0.14810
1955.46722,0.15072
1957.39569,0.14981
1959.32416,0.14694
1961.25263,0.14583
1963.18110,0.14636
1965.10956,0.14926
1967.03803,0.15123
1968.96650,0.14909
1970.89497,0.14806
1972.82344,0.14851
1974.75191,0.14839
1976.68038,0.16054
1978.60884,0.17696
1980.53731,0.16652
1982.46578,0.14622
1984.39425,0.14548
1986.32272,0.15114
1988.25119,0.15318
1990.17966,0.15454
1992.10812,0.15292
1994.03659,0.14919
1995.96506,0.14808
1997.89353,0.14846
1999.82200,0.14772
2001.75047,0.14728
2003.67894,0.14596
2005.60741,0.14514
2007.53587,0.14720
2009.46434,0.14831
2011.39281,0.14798
2013.32128,0.14878
2015.24975,0.15044
2017.17822,0.15171
2019.10669,0.15107
2021.03515,0.14882
2022.96362,0.14718
2024.89209,0.14694
2026.82056,0.14727
2028.74903,0.14733
2030.67750,0.14796
2032.60597,0.14928
2034.53444,0.14928
2036.46290,0.14791
2038.39137,0.14711
2040.31984,0.14803
2042.24831,0.14863
2044.17678,0.14703
2046.10525,0.14537
2048.03372,0.14537
2049.96218,0.14580
2051.89065,0.14522
2053.81912,0.14473
2055.74759,0.14426
2057.67606,0.14233
2059.60453,0.14181
2061.53300,0.14467
2063.46147,0.14745
2065.38993,0.14786
2067.31840,0.14784
2069.24687,0.14896
2071.17534,0.15010
2073.10381,0.14979
2075.03228,0.14912
2076.96075,0.15082
2078.88921,0.15270
2080.81768,0.15072
2082.74615,0.14806
2084.67462,0.14915
2086.60309,0.15147
2088.53156,0.15084
2090.46003,0.14796
2092.38850,0.14707
2094.31696,0.14974
2096.24543,0.15214
2098.17390,0.15130
2100.10237,0.14847
2102.03084,0.14586
2103.95931,0.14552
2105.88778,0.14762
2107.81624,0.14792
2109.74471,0.14477
2111.67318,0.14401
2113.60165,0.14694
2115.53012,0.14747
2117.45859,0.14488
2119.38706,0.14442
2121.31553,0.14774
2123.24399,0.15085
2125.17246,0.15205
2127.10093,0.15267
2129.02940,0.15156
2130.95787,0.15029
2132.88634,0.15111
2134.81481,0.14945
2136.74327,0.14581
2138.67174,0.14688
2140.60021,0.14970
2142.52868,0.14804
2144.45715,0.14489
2146.38562,0.14541
2148.31409,0.14835
2150.24255,0.14935
2152.17102,0.14746
2154.09949,0.14598
2156.02796,0.14614
2157.95643,0.14524
2159.88490,0.14439
2161.81337,0.14707
2163.74184,0.14966
2165.67030,0.14727
2167.59877,0.14420
2169.52724,0.14551
2171.45571,0.14775
2173.38418,0.14628
2175.31265,0.14394
2177.24112,0.14588
2179.16958,0.15017
2181.09805,0.15186
2183.02652,0.15057
2184.95499,0.14878
2186.88346,0.14863
2188.81193,0.14967
2190.74040,0.15024
2192.66887,0.15184
2194.59733,0.15481
2196.52580,0.15522
2198.45427,0.15222
2200.38274,0.14952
2202.31121,0.14927
2204.23968,0.15008
2206.16815,0.15028
2208.09661,0.14954
2210.02508,0.14771
2211.95355,0.14570
2213.88202,0.14562
2215.81049,0.14912
2217.73896,0.15436
2219.66743,0.15585
2221.59590,0.15147
2223.52436,0.14608
2225.45283,0.14496
2227.38130,0.14765
2229.30977,0.15012
2231.23824,0.14937
2233.16671,0.14590
2235.09518,0.14365
2237.02364,0.14481
2238.95211,0.14619
2240.88058,0.14620
2242.80905,0.14663
2244.73752,0.14668
2246.66599,0.14643
2248.59446,0.14741
2250.52293,0.14859
2252.45139,0.14834
2254.37986,0.14766
2256.30833,0.14911
2258.23680,0.15069
2260.16527,0.14853
2262.09374,0.14572
2264.02221,0.14622
2265.95067,0.14718
2267.87914,0.14664
2269.80761,0.14752
2271.73608,0.15088
2273.66455,0.15381
2275.59302,0.15382
2277.52149,0.15242
2279.44996,0.15219
2281.37842,0.15203
2283.30689,0.14938
2285.23536,0.14630
2287.16383,0.14565
2289.09230,0.14552
2291.02077,0.14442
2292.94924,0.14389
2294.87770,0.14475
2296.80617,0.14485
2298.73464,0.14340
2300.66311,0.14254
2302.59158,0.14218
2304.52005,0.14153
2306.44852,0.14145
2308.37699,0.14141
2310.30545,0.14174
2312.23392,0.14327
2314.16239,0.14247
2316.09086,0.13890
2318.01933,0.13673
2319.94780,0.13862
2321.87627,0.14528
2323.80473,0.15052
2325.73320,0.14592
2327.66167,0.13222
2329.59014,0.12370
2331.51861,0.12934
2333.44708,0.12980
2335.37555,0.11973
2337.30401,0.11880
2339.23248,0.12685
2341.16095,0.13328
2343.08942,0.13941
2345.01789,0.14114
2346.94636,0.13926
2348.87483,0.13948
2350.80330,0.13671
2352.73176,0.12895
2354.66023,0.13155
2356.58870,0.14785
2358.51717,0.14662
2360.44564,0.12309
2362.37411,0.11777
2364.30258,0.13731
2366.23104,0.14486
2368.15951,0.13518
2370.08798,0.12876
2372.01645,0.12965
2373.94492,0.13269
2375.87339,0.13744
2377.80186,0.14457
2379.73033,0.14988
2381.65879,0.15085
2383.58726,0.15053
2385.51573,0.15102
2387.44420,0.15115
2389.37267,0.15071
2391.30114,0.15092
2393.22961,0.15073
2395.15807,0.14957
2397.08654,0.14895
2399.01501,0.14883
2400.94348,0.14848
2402.87195,0.14849
2404.80042,0.14890
2406.72889,0.14763
2408.65736,0.14551
2410.58582,0.14588
2412.51429,0.14757
2414.44276,0.14944
2416.37123,0.15199
2418.29970,0.15301
2420.22817,0.15126
2422.15664,0.14916
2424.08510,0.14939
2426.01357,0.15044
2427.94204,0.15007
2429.87051,0.14913
2431.79898,0.14821
2433.72745,0.14821
2435.65592,0.14959
2437.58439,0.15088
2439.51285,0.15152
2441.44132,0.15081
2443.36979,0.14781
2445.29826,0.14472
2447.22673,0.14493
2449.15520,0.14832
2451.08367,0.15269
2453.01213,0.15561
2454.94060,0.15439
2456.86907,0.15053
2458.79754,0.14759
2460.72601,0.14642
2462.65448,0.14799
2464.58295,0.15134
2466.51142,0.15320
2468.43988,0.15358
2470.36835,0.15276
2472.29682,0.14973
2474.22529,0.14694
2476.15376,0.14641
2478.08223,0.14459
2480.01070,0.14109
2481.93916,0.14184
2483.86763,0.14608
2485.79610,0.14795
2487.72457,0.14838
2489.65304,0.14919
2491.58151,0.14904
2493.50998,0.14983
2495.43844,0.15254
2497.36691,0.15362
2499.29538,0.15237
2501.22385,0.15132
2503.15232,0.15061
2505.08079,0.15027
2507.00926,0.15046
2508.93773,0.15102
2510.86619,0.15286
2512.79466,0.15265
2514.72313,0.14834
2516.65160,0.14522
2518.58007,0.14506
2520.50854,0.14532
2522.43701,0.14581
2524.36547,0.14689
2526.29394,0.14906
2528.22241,0.15120
2530.15088,0.15037
2532.07935,0.14766
2534.00782,0.14694
2535.93629,0.14921
2537.86476,0.15149
2539.79322,0.15010
2541.72169,0.14788
2543.65016,0.14944
2545.57863,0.15193
2547.50710,0.15263
2549.43557,0.15296
2551.36404,0.15274
2553.29250,0.15281
2555.22097,0.15446
2557.14944,0.15531
2559.07791,0.15344
2561.00638,0.15097
2562.93485,0.15032
2564.86332,0.15212
2566.79179,0.15608
2568.72025,0.15801
2570.64872,0.15598
2572.57719,0.15363
2574.50566,0.15167
2576.43413,0.14943
2578.36260,0.14836
2580.29107,0.14987
2582.21953,0.15112
2584.14800,0.14944
2586.07647,0.15007
2588.00494,0.15494
2589.93341,0.15807
2591.86188,0.15769
2593.79035,0.15761
2595.71882,0.15794
2597.64728,0.15728
2599.57575,0.15652
2601.50422,0.15447
2603.43269,0.15109
2605.36116,0.14944
2607.28963,0.15052
2609.21810,0.15198
2611.14656,0.15185
2613.07503,0.15326
2615.00350,0.15792
2616.93197,0.15891
2618.86044,0.15239
2620.78891,0.14614
2622.71738,0.14627
2624.64585,0.14884
2626.57431,0.15094
2628.50278,0.15325
2630.43125,0.15336
2632.35972,0.15161
2634.28819,0.15067
2636.21666,0.15016
2638.14513,0.15088
2640.07359,0.15319
2642.00206,0.15520
2643.93053,0.15674
2645.85900,0.15851
2647.78747,0.15767
2649.71594,0.15223
2651.64441,0.14849
2653.57288,0.15019
2655.50134,0.15180
2657.42981,0.15026
2659.35828,0.14740
2661.28675,0.14599
2663.21522,0.14893
2665.14369,0.15418
2667.07216,0.15659
2669.00062,0.15540
2670.92909,0.15382
2672.85756,0.15410
2674.78603,0.15446
2676.71450,0.15321
2678.64297,0.15277
2680.57144,0.15480
2682.49990,0.15702
2684.42837,0.15778
2686.35684,0.15721
2688.28531,0.15507
2690.21378,0.15276
2692.14225,0.15273
2694.07072,0.15447
2695.99919,0.15620
2697.92765,0.15711
2699.85612,0.15685
2701.78459,0.15619
2703.71306,0.15531
2705.64153,0.15365
2707.57000,0.15302
2709.49847,0.15411
2711.42693,0.15430
2713.35540,0.15404
2715.28387,0.15600
2717.21234,0.15772
2719.14081,0.15565
2721.06928,0.15296
2722.99775,0.15318
2724.92622,0.15415
2726.85468,0.15375
2728.78315,0.15345
2730.71162,0.15576
2732.64009,0.15944
2734.56856,0.16039
2736.49703,0.15928
2738.42550,0.15998
2740.35396,0.16047
2742.28243,0.15656
2744.21090,0.15158
2746.13937,0.15128
2748.06784,0.15424
2749.99631,0.15613
2751.92478,0.15691
2753.85325,0.15679
2755.78171,0.15398
2757.71018,0.15083
2759.63865,0.15149
2761.56712,0.15718
2763.49559,0.16226
2765.42406,0.15843
2767.35253,0.15003
2769.28099,0.14739
2771.20946,0.15208
2773.13793,0.15845
2775.06640,0.15963
2776.99487,0.15634
2778.92334,0.15456
2780.85181,0.15497
2782.78028,0.15635
2784.70874,0.15827
2786.63721,0.15912
2788.56568,0.16008
2790.49415,0.16218
2792.42262,0.16316
2794.35109,0.16173
2796.27956,0.15924
2798.20802,0.15824
2800.13649,0.15855
2802.06496,0.15784
2803.99343,0.15683
2805.92190,0.15734
2807.85037,0.15892
2809.77884,0.16047
2811.70731,0.16070
2813.63577,0.15954
2815.56424,0.15738
2817.49271,0.15481
2819.42118,0.15440
2821.34965,0.15599
2823.27812,0.15686
2825.20659,0.15518
2827.13505,0.15397
2829.06352,0.15797
2830.99199,0.16283
2832.92046,0.16322
2834.84893,0.16182
2836.77740,0.16066
2838.70587,0.15863
2840.63433,0.15751
2842.56280,0.15793
2844.49127,0.15756
2846.41974,0.15763
2848.34821,0.15928
2850.27668,0.16044
2852.20515,0.15947
2854.13362,0.15608
2856.06208,0.15329
2857.99055,0.15640
2859.91902,0.16279
2861.84749,0.16390
2863.77596,0.16161
2865.70443,0.16248
2867.63290,0.16216
2869.56136,0.15843
2871.48983,0.15845
2873.41830,0.16175
2875.34677,0.16123
2877.27524,0.15606
2879.20371,0.15301
2881.13218,0.15581
2883.06065,0.15753
2884.98911,0.15490
2886.91758,0.15490
2888.84605,0.15854
2890.77452,0.15857
2892.70299,0.15402
2894.63146,0.14990
2896.55993,0.15045
2898.48839,0.15500
2900.41686,0.15905
2902.34533,0.16079
2904.27380,0.15811
2906.20227,0.15310
2908.13074,0.15271
2910.05921,0.15604
2911.98768,0.15797
2913.91614,0.15639
2915.84461,0.15340
2917.77308,0.15572
2919.70155,0.16071
2921.63002,0.16114
2923.55849,0.15465
2925.48696,0.12941
2927.41542,0.09566
2929.34389,0.09341
2931.27236,0.12640
2933.20083,0.15470
2935.12930,0.15406
2937.05777,0.14378
2938.98624,0.14479
2940.91471,0.15047
2942.84317,0.15406
2944.77164,0.15480
2946.70011,0.15020
2948.62858,0.14652
2950.55705,0.14994
2952.48552,0.15497
2954.41399,0.15486
2956.34245,0.14652
2958.27092,0.13864
2960.19939,0.14274
2962.12786,0.15039
2964.05633,0.15171
2965.98480,0.14808
2967.91327,0.14483
2969.84174,0.14909
2971.77020,0.15713
2973.69867,0.16043
2975.62714,0.15694
2977.55561,0.14965
2979.48408,0.14715
2981.41255,0.15076
2983.34102,0.15311
2985.26948,0.15129
2987.19795,0.14780
2989.12642,0.14844
2991.05489,0.15352
2992.98336,0.15836
2994.91183,0.16261
2996.84030,0.16370
2998.76877,0.16026
3000.69723,0.15828
3002.62570,0.16064
3004.55417,0.16378
3006.48264,0.16148
3008.41111,0.15465
3010.33958,0.14776
3012.26805,0.13063
3014.19651,0.09889
3016.12498,0.07730
3018.05345,0.09023
3019.98192,0.12492
3021.91039,0.15048
3023.83886,0.15836
3025.76733,0.15895
3027.69579,0.16058
3029.62426,0.16199
3031.55273,0.16194
3033.48120,0.16370
3035.40967,0.16419
3037.33814,0.15871
3039.26661,0.15268
3041.19508,0.15400
3043.12354,0.15912
3045.05201,0.16098
3046.98048,0.16015
3048.90895,0.15944
3050.83742,0.16106
3052.76589,0.16547
3054.69436,0.16477
3056.62282,0.15613
3058.55129,0.15444
3060.47976,0.16293
3062.40823,0.16481
3064.33670,0.15401
3066.26517,0.14513
3068.19364,0.15025
3070.12211,0.16105
3072.05057,0.16580
3073.97904,0.16041
3075.90751,0.15018
3077.83598,0.14829
3079.76445,0.15515
3081.69292,0.16372
3083.62139,0.17436
3085.54985,0.18406
3087.47832,0.18849
3089.40679,0.18311
3091.33526,0.16674
3093.26373,0.15065
3095.19220,0.14434
3097.12067,0.14747
3099.04914,0.15339
3100.97760,0.15573
3102.90607,0.15230
3104.83454,0.14513
3106.76301,0.14287
3108.69148,0.14884
3110.61995,0.15287
3112.54842,0.15031
3114.47688,0.15171
3116.40535,0.15798
3118.33382,0.16004
3120.26229,0.15726
3122.19076,0.15557
3124.11923,0.16174
3126.04770,0.16895
3127.97617,0.16725
3129.90463,0.16532
3131.83310,0.17140
3133.76157,0.17626
3135.69004,0.17448
3137.61851,0.17294
3139.54698,0.16999
3141.47545,0.16134
3143.40391,0.15577
3145.33238,0.16134
3147.26085,0.16992
3149.18932,0.17144
3151.11779,0.16850
3153.04626,0.16537
3154.97473,0.16375
3156.90320,0.16528
3158.83166,0.16814
3160.76013,0.16978
3162.68860,0.16960
3164.61707,0.16654
3166.54554,0.16430
3168.47401,0.16635
3170.40248,0.16812
3172.33094,0.17025
3174.25941,0.17543
3176.18788,0.17992
3178.11635,0.17997
3180.04482,0.17339
3181.97329,0.16494
3183.90176,0.16139
3185.83022,0.16100
3187.75869,0.16193
3189.68716,0.16647
3191.61563,0.17416
3193.54410,0.18004
3195.47257,0.17817
3197.40104,0.17033
3199.32951,0.16466
3201.25797,0.16576
3203.18644,0.17157
3205.11491,0.17174
3207.04338,0.16166
3208.97185,0.15321
3210.90032,0.15457
3212.82879,0.15855
3214.75725,0.15814
3216.68572,0.15833
3218.61419,0.16410
3220.54266,0.16912
3222.47113,0.16884
3224.39960,0.16789
3226.32807,0.16976
3228.25654,0.17060
3230.18500,0.16920
3232.11347,0.17098
3234.04194,0.17335
3235.97041,0.17105
3237.89888,0.16860
3239.82735,0.16867
3241.75582,0.16870
3243.68428,0.16784
3245.61275,0.16620
3247.54122,0.16465
3249.46969,0.16469
3251.39816,0.16726
3253.32663,0.16950
3255.25510,0.16685
3257.18357,0.16291
3259.11203,0.16380
3261.04050,0.16837
3262.96897,0.17291
3264.89744,0.17473
3266.82591,0.17158
3268.75438,0.16391
3270.68285,0.15663
3272.61131,0.15513
3274.53978,0.16126
3276.46825,0.16990
3278.39672,0.17127
3280.32519,0.16585
3282.25366,0.16345
3284.18213,0.16566
3286.11060,0.16585
3288.03906,0.16358
3289.96753,0.16412
3291.89600,0.16874
3293.82447,0.17270
3295.75294,0.17297
3297.68141,0.17266
3299.60988,0.17199
3301.53834,0.16926
3303.46681,0.16692
3305.39528,0.16658
3307.32375,0.16719
3309.25222,0.16711
3311.18069,0.16804
3313.10916,0.17077
3315.03763,0.16999
3316.96609,0.16758
3318.89456,0.16930
3320.82303,0.16859
3322.75150,0.16268
3324.67997,0.15968
3326.60844,0.15969
3328.53691,0.16020
3330.46537,0.16308
3332.39384,0.16537
3334.32231,0.16056
3336.25078,0.15140
3338.17925,0.15068
3340.10772,0.16039
3342.03619,0.16689
3343.96466,0.16341
3345.89312,0.15944
3347.82159,0.16092
3349.75006,0.16227
3351.67853,0.16184
3353.60700,0.16146
3355.53547,0.15991
3357.46394,0.15848
3359.39240,0.15824
3361.32087,0.15774
3363.24934,0.15932
3365.17781,0.16309
3367.10628,0.16417
3369.03475,0.16286
3370.96322,0.16149
3372.89168,0.16005
3374.82015,0.15897
3376.74862,0.15806
3378.67709,0.15664
3380.60556,0.15684
3382.53403,0.16083
3384.46250,0.16449
3386.39097,0.16425
3388.31943,0.16405
3390.24790,0.16812
3392.17637,0.17189
3394.10484,0.16899
3396.03331,0.16105
3397.96178,0.15227
3399.89025,0.14916
3401.81871,0.15736
3403.74718,0.17091
3405.67565,0.17609
3407.60412,0.17085
3409.53259,0.16565
3411.46106,0.16252
3413.38953,0.15796
3415.31800,0.15626
3417.24646,0.16290
3419.17493,0.17221
3421.10340,0.17266
3423.03187,0.16543
3424.96034,0.15958
3426.88881,0.15779
3428.81728,0.15789
3430.74574,0.15696
3432.67421,0.15467
3434.60268,0.15437
3436.53115,0.15850
3438.45962,0.16290
3440.38809,0.16385
3442.31656,0.16453
3444.24503,0.16517
3446.17349,0.16360
3448.10196,0.16249
3450.03043,0.16058
3451.95890,0.15650
3453.88737,0.15518
3455.81584,0.15566
3457.74431,0.15441
3459.67277,0.15347
3461.60124,0.15338
3463.52971,0.15420
3465.45818,0.15747
3467.38665,0.16021
3469.31512,0.15650
3471.24359,0.14880
3473.17206,0.14493
3475.10052,0.14600
3477.02899,0.14753
3478.95746,0.14687
3480.88593,0.14996
3482.81440,0.15627
3484.74287,0.15462
3486.67134,0.14812
3488.59980,0.14433
3490.52827,0.14146
3492.45674,0.13901
3494.38521,0.14089
3496.31368,0.14639
3498.24215,0.14856
3500.17062,0.14599
3502.09909,0.14345
3504.02755,0.14469
3505.95602,0.14654
3507.88449,0.14610
3509.81296,0.14551
3511.74143,0.14201
3513.66990,0.13589
3515.59837,0.13308
3517.52683,0.13172
3519.45530,0.13190
3521.38377,0.14044
3523.31224,0.15124
3525.24071,0.15374
3527.16918,0.15071
3529.09765,0.14545
3531.02611,0.14081
3532.95458,0.14037
3534.88305,0.14112
3536.81152,0.13863
3538.73999,0.13647
3540.66846,0.13820
3542.59693,0.13855
3544.52540,0.13361
3546.45386,0.12932
3548.38233,0.13372
3550.31080,0.14183
3552.23927,0.14429
3554.16774,0.14002
3556.09621,0.13429
3558.02468,0.13170
3559.95314,0.13371
3561.88161,0.13847
3563.81008,0.14274
3565.73855,0.14354
3567.66702,0.13965
3569.59549,0.13434
3571.52396,0.13092
3573.45243,0.12988
3575.38089,0.12993
3577.30936,0.12813
3579.23783,0.12207
3581.16630,0.11746
3583.09477,0.12281
3585.02324,0.13318
3586.95171,0.13622
3588.88017,0.12767
3590.80864,0.12028
3592.73711,0.12027
3594.66558,0.12292
3596.59405,0.12535
3598.52252,0.12787
3600.45099,0.13069
3602.37946,0.13379
3604.30792,0.13377
3606.23639,0.13304
3608.16486,0.13582
3610.09333,0.13517
3612.02180,0.13083
3613.95027,0.13014
3615.87874,0.13049
3617.80720,0.12806
3619.73567,0.12115
3621.66414,0.11230
3623.59261,0.11002
3625.52108,0.11766
3627.44955,0.13167
3629.37802,0.13504
3631.30649,0.12356
3633.23495,0.11695
3635.16342,0.11671
3637.09189,0.11726
3639.02036,0.11583
3640.94883,0.11353
3642.87730,0.11128
3644.80577,0.10994
3646.73423,0.11163
3648.66270,0.11370
3650.59117,0.10760
3652.51964,0.10252
3654.44811,0.10392
3656.37658,0.10716
3658.30505,0.10835
3660.23352,0.10918
3662.16198,0.11137
3664.09045,0.11428
3666.01892,0.11637
3667.94739,0.11758
3669.87586,0.11757
3671.80433,0.11778
3673.73280,0.12229
3675.66126,0.12573
3677.58973,0.12171
3679.51820,0.11603
3681.44667,0.10952
3683.37514,0.10553
3685.30361,0.10684
3687.23208,0.11200
3689.16055,0.11935
3691.08901,0.12162
3693.01748,0.11570
3694.94595,0.10929
3696.87442,0.10736
3698.80289,0.10735
3700.73136,0.10689
3702.65983,0.10960
3704.58829,0.11250
3706.51676,0.11121
3708.44523,0.11088
3710.37370,0.11653
3712.30217,0.11979
3714.23064,0.11587
3716.15911,0.11462
3718.08757,0.11838
3720.01604,0.12463
3721.94451,0.12891
3723.87298,0.12518
3725.80145,0.11791
3727.72992,0.11411
3729.65839,0.11281
3731.58686,0.11422
3733.51532,0.12053
3735.44379,0.12887
3737.37226,0.12367
3739.30073,0.10941
3741.22920,0.10250
3743.15767,0.10610
3745.08614,0.11407
3747.01460,0.11996
3748.94307,0.13012
3750.87154,0.13930
3752.80001,0.12686
3754.72848,0.11062
3756.65695,0.10676
3758.58542,0.11076
3760.51389,0.11079
3762.44235,0.10823
3764.37082,0.10740
3766.29929,0.10590
3768.22776,0.10503
3770.15623,0.10514
3772.08470,0.10137
3774.01317,0.09620
3775.94163,0.09467
3777.87010,0.09682
3779.79857,0.09885
3781.72704,0.10149
3783.65551,0.10855
3785.58398,0.11295
3787.51245,0.10842
3789.44092,0.10292
3791.36938,0.10154
3793.29785,0.10368
3795.22632,0.10736
3797.15479,0.10889
3799.08326,0.10868
3801.01173,0.10986
3802.94020,0.11048
3804.86866,0.11105
3806.79713,0.11231
3808.72560,0.10912
3810.65407,0.10510
3812.58254,0.10397
3814.51101,0.10335
3816.43948,0.10636
3818.36795,0.11296
3820.29641,0.11390
3822.22488,0.10961
3824.15335,0.10821
3826.08182,0.10936
3828.01029,0.11009
3829.93876,0.10802
3831.86723,0.10776
3833.79569,0.11671
3835.72416,0.12915
3837.65263,0.13299
3839.58110,0.12391
3841.50957,0.11216
3843.43804,0.10823
3845.36651,0.11052
3847.29498,0.11008
3849.22344,0.10545
3851.15191,0.10196
3853.08038,0.10135
3855.00885,0.10290
3856.93732,0.10698
3858.86579,0.10877
3860.79426,0.10812
3862.72272,0.10822
3864.65119,0.10826
3866.57966,0.10761
3868.50813,0.10981
3870.43660,0.11282
3872.36507,0.11196
3874.29354,0.11298
3876.22200,0.11187
3878.15047,0.10429
3880.07894,0.09917
3882.00741,0.09711
3883.93588,0.09271
3885.86435,0.09451
3887.79282,0.09852
3889.72129,0.09893
3891.64975,0.10151
3893.57822,0.09930
3895.50669,0.09156
3897.43516,0.09034
3899.36363,0.09669
3901.29210,0.10021
3903.22057,0.10218
3905.14903,0.10506
3907.07750,0.10240
3909.00597,0.09515
3910.93444,0.08875
3912.86291,0.09052
3914.79138,0.09792
3916.71985,0.10179
3918.64832,0.09994
3920.57678,0.09541
3922.50525,0.09326
3924.43372,0.09259
3926.36219,0.08952
3928.29066,0.08782
3930.21913,0.09018
3932.14760,0.09280
3934.07606,0.09155
3936.00453,0.08866
3937.93300,0.08760
3939.86147,0.09032
3941.78994,0.09429
3943.71841,0.09596
3945.64688,0.09876
3947.57535,0.10030
3949.50381,0.09391
3951.43228,0.08700
3953.36075,0.08821
3955.28922,0.09393
3957.21769,0.09782
3959.14616,0.09892
3961.07463,0.10021
3963.00309,0.10204
3964.93156,0.10044
3966.86003,0.09502
3968.78850,0.09329
3970.71697,0.09637
3972.64544,0.09650
3974.57391,0.09272
3976.50238,0.08891
3978.43084,0.08503
3980.35931,0.08252
3982.28778,0.08391
3984.21625,0.08558
3986.14472,0.08522
3988.07319,0.08371
3990.00166,0.08363
3991.93012,0.08619
3993.85859,0.08551
3995.78706,0.08246
3997.71553,0.08217
3999.64400,0.08211
4001.57247,0.08238
4003.50094,0.08701
4005.42941,0.09128
4007.35787,0.08984
4009.28634,0.08777
4011.21481,0.08633
4013.14328,0.08265
4015.07175,0.07997
4017.00022,0.08081
4018.92869,0.08340
4020.85715,0.08609
4022.78562,0.08786
4024.71409,0.08959
4026.64256,0.09093
4028.57103,0.08910
4030.49950,0.08361
4032.42797,0.07727
4034.35644,0.08091
4036.28490,0.09184
4038.21337,0.08793
4040.14184,0.07326
4042.07031,0.07052
4043.99878,0.07889
4045.92725,0.08468
4047.85572,0.08580
4049.78418,0.08686
4051.71265,0.08710
4053.64112,0.08197
4055.56959,0.07550
4057.49806,0.07854
4059.42653,0.08733
4061.35500,0.08969
4063.28346,0.08780
4065.21193,0.08828
4067.14040,0.08824
4069.06887,0.08461
4070.99734,0.07885
4072.92581,0.07644
4074.85428,0.07825
4076.78275,0.07613
4078.71121,0.07357
4080.63968,0.07876
4082.56815,0.08553
4084.49662,0.08717
4086.42509,0.08504
4088.35356,0.08118
4090.28203,0.07746
4092.21049,0.07777
4094.13896,0.08078
4096.06743,0.08079
4097.99590,0.07925
4099.92437,0.07924
4101.85284,0.07832
4103.78131,0.07767
4105.70978,0.07876
4107.63824,0.07503
4109.56671,0.06804
4111.49518,0.06873
4113.42365,0.07628
4115.35212,0.08325
4117.28059,0.08924
4119.20906,0.09110
4121.13752,0.08382
4123.06599,0.07410
4124.99446,0.06996
4126.92293,0.06986
4128.85140,0.06976
4130.77987,0.07046
4132.70834,0.07565
4134.63681,0.08135
4136.56527,0.08292
4138.49374,0.08271
4140.42221,0.07994
4142.35068,0.07683
4144.27915,0.07790
4146.20762,0.07981
4148.13609,0.07842
4150.06455,0.07387
4151.99302,0.06981
4153.92149,0.06783
4155.84996,0.06731
4157.77843,0.06974
4159.70690,0.07100
4161.63537,0.06703
4163.56384,0.06632
4165.49230,0.07252
4167.42077,0.07543
4169.34924,0.07320
4171.27771,0.07087
4173.20618,0.06697
4175.13465,0.06368
4177.06312,0.06488
4178.99158,0.06575
4180.92005,0.06279
4182.84852,0.06086
4184.77699,0.06236
4186.70546,0.06151
4188.63393,0.05647
4190.56240,0.05412
4192.49087,0.05406
4194.41933,0.05332
4196.34780,0.05758
4198.27627,0.06833
4200.20474,0.07744
4202.13321,0.07954
4204.06168,0.07762
4205.99015,0.07145
4207.91861,0.06350
4209.84708,0.06063
4211.77555,0.05942
4213.70402,0.05796
4215.63249,0.05857
4217.56096,0.06125
4219.48943,0.06578
4221.41789,0.06556
4223.34636,0.06104
4225.27483,0.06175
4227.20330,0.06338
4229.13177,0.06159
4231.06024,0.06235
4232.98871,0.06447
4234.91718,0.06524
4236.84564,0.06414
4238.77411,0.06013
4240.70258,0.05562
4242.63105,0.05154
4244.55952,0.04882
4246.48799,0.05089
4248.41646,0.05666
4250.34492,0.05920
4252.27339,0.05880
4254.20186,0.06284
4256.13033,0.06805
4258.05880,0.06516
4259.98727,0.05543
4261.91574,0.04854
4263.84421,0.05176
4265.77267,0.06297
4267.70114,0.07046
4269.62961,0.06877
4271.55808,0.06595
4273.48655,0.06348
4275.41502,0.05827
4277.34349,0.05744
4279.27195,0.06142
4281.20042,0.06128
4283.12889,0.05698
4285.05736,0.05122
4286.98583,0.05014
4288.91430,0.05788
4290.84277,0.06243
4292.77124,0.06061
4294.69970,0.06026
4296.62817,0.05748
4298.55664,0.04737
4300.48511,0.03808
4302.41358,0.04167
4304.34205,0.05410
4306.27052,0.05866
4308.19898,0.05339
4310.12745,0.05143
4312.05592,0.05376
4313.98439,0.05165
4315.91286,0.04523
4317.84133,0.03908
4319.76980,0.03567
4321.69827,0.03577
4323.62673,0.04088
4325.55520,0.05038
4327.48367,0.05422
4329.41214,0.04472
4331.34061,0.03120
4333.26908,0.02559
4335.19755,0.02557
4337.12601,0.02614
4339.05448,0.02712
4340.98295,0.03116
4342.91142,0.04285
4344.83989,0.05899
4346.76836,0.06702
4348.69683,0.05695
4350.62530,0.03683
4352.55376,0.02398
4354.48223,0.02208
4356.41070,0.02851
4358.33917,0.03832
4360.26764,0.04171
4362.19611,0.03901
4364.12458,0.03610
4366.05304,0.03392
4367.98151,0.03197
4369.90998,0.03194
4371.83845,0.03604
4373.76692,0.03629
4375.69539,0.02917
4377.62386,0.02849
4379.55232,0.03461
4381.48079,0.03525
4383.40926,0.03514
4385.33773,0.04190
4387.26620,0.04890
4389.19467,0.05078
4391.12314,0.04942
4393.05161,0.04709
4394.98007,0.04381
4396.90854,0.04189
4398.83701,0.04394
4400.76548,0.04604
4402.69395,0.04333
4404.62242,0.03341
4406.55089,0.02299
4408.47935,0.02294
4410.40782,0.03014
4412.33629,0.03512
4414.26476,0.03583
4416.19323,0.03365
4418.12170,0.02729
4420.05017,0.02090
4421.97864,0.02071
4423.90710,0.02249
4425.83557,0.02543
4427.76404,0.03125
4429.69251,0.03101
4431.62098,0.02338
4433.54945,0.01995
4435.47792,0.02177
4437.40638,0.02271
4439.33485,0.02555
4441.26332,0.03160
4443.19179,0.03438
4445.12026,0.02908
4447.04873,0.01984
4448.97720,0.01589
4450.90567,0.01758
4452.83413,0.02145
4454.76260,0.02950
4456.69107,0.03638
4458.61954,0.03345
4460.54801,0.02602
4462.47648,0.02441
4464.40495,0.02581
4466.33341,0.02265
4468.26188,0.01942
4470.19035,0.02571
4472.11882,0.03918
4474.04729,0.04536
4475.97576,0.03537
4477.90423,0.01765
4479.83270,0.00771
4481.76116,0.01445
4483.68963,0.02779
4485.61810,0.02969
4487.54657,0.02398
4489.47504,0.02230
4491.40351,0.02304
4493.33198,0.02043
4495.26044,0.01773
4497.18891,0.01644
4499.11738,0.01225
4501.04585,0.00655
4502.97432,0.00334
4504.90279,-0.00441
4506.83126,-0.03944
4508.75973,-0.04876
4510.68819,0.02091
4512.61666,0.04350
4514.54513,-0.03267
4516.47360,-0.05011
4518.40207,0.01177
4520.33054,0.03567
4522.25901,0.02773
4524.18747,0.02733
4526.11594,0.01551
4528.04441,0.00413
4529.97288,0.00490
4531.90135,0.00969
4533.82982,0.01301
4535.75829,0.00727
4537.68676,-0.00090
4539.61522,0.00022
4541.54369,0.01024
4543.47216,0.01601
4545.40063,0.01623
4547.32910,0.01853
4549.25757,0.01839
4551.18604,0.01165
4553.11450,0.00850
4555.04297,0.01717
4556.97144,0.02534
4558.89991,0.01917
4560.82838,0.00556
4562.75685,0.00370
4564.68532,0.01465
4566.61378,0.02045
4568.54225,0.01747
4570.47072,0.01762
4572.39919,0.02238
4574.32766,0.02309
4576.25613,0.01937
4578.18460,0.01723
4580.11307,0.02205
4582.04153,0.02922
4583.97000,0.02962
4585.89847,0.02193
4587.82694,0.00772
4589.75541,-0.00487
4591.68388,-0.00847
4593.61235,-0.00503
4595.54081,0.00590
4597.46928,0.02329
4599.39775,0.03394
4601.32622,0.03415
4603.25469,0.03277
4605.18316,0.02884
4607.11163,0.02140
4609.04010,0.01305
4610.96856,0.00620
4612.89703,0.00949
4614.82550,0.01904
4616.75397,0.02008
4618.68244,0.01586
4620.61091,0.01757
4622.53938,0.02251
4624.46784,0.02406
4626.39631,0.01929
4628.32478,0.00738
4630.25325,-0.00498
4632.18172,-0.00611
4634.11019,-0.00010
4636.03866,0.00202
4637.96713,0.00276
4639.89559,0.00366
4641.82406,0.00469
4643.75253,0.00577
4645.68100,0.00319
4647.60947,0.00067
4649.53794,0.00286
4651.46641,0.00606
4653.39487,0.00776
4655.32334,0.00988
4657.25181,0.00804
4659.18028,0.00108
4661.10875,-0.00362
4663.03722,-0.00616
4664.96569,-0.00403
4666.89416,0.01083
4668.82262,0.03229
4670.75109,0.04312
4672.67956,0.03553
4674.60803,0.01966
4676.53650,0.00943
4678.46497,0.00233
4680.39344,-0.00744
4682.32190,-0.01123
4684.25037,-0.00527
4686.17884,0.00260
4688.10731,0.00619
4690.03578,0.00735
4691.96425,0.01108
4693.89272,0.01371
4695.82119,0.00738
4697.74965,-0.00496
4699.67812,-0.00991
4701.60659,-0.00095
4703.53506,0.01174
4705.46353,0.01877
4707.39200,0.02034
4709.32047,0.01521
4711.24893,0.00726
4713.17740,0.00621
4715.10587,0.00972
4717.03434,0.01116
4718.96281,0.01086
4720.89128,0.01062
4722.81975,0.00842
4724.74821,0.00285
4726.67668,-0.00104
4728.60515,-0.00221
4730.53362,-0.00352
4732.46209,-0.00190
4734.39056,0.00700
4736.31903,0.02157
4738.24750,0.02854
4740.17596,0.02023
4742.10443,0.01013
4744.03290,0.00612
4745.96137,0.00454
4747.88984,0.00489
4749.81831,0.00269
4751.74678,-0.00274
4753.67524,0.00170
4755.60371,0.01825
4757.53218,0.02762
4759.46065,0.02625
4761.38912,0.02964
4763.31759,0.03298
4765.24606,0.02704
4767.17453,0.02612
4769.10299,0.03096
4771.03146,0.01999
4772.95993,0.00232
4774.88840,0.00096
4776.81687,0.00857
4778.74534,0.01372
4780.67381,0.01758
4782.60227,0.01931
4784.53074,0.01169
4786.45921,0.00240
4788.38768,0.00450
4790.31615,0.00525
4792.24462,0.00173
4794.17309,0.00788
4796.10156,0.01484
4798.03002,0.01023
4799.95849,0.00285
4801.88696,0.00313
4803.81543,0.00423
4805.74390,0.00293
4807.67237,0.00600
4809.60084,0.00983
4811.52930,0.01240
4813.45777,0.01245
4815.38624,0.00856
4817.31471,0.00339
4819.24318,-0.00285
4821.17165,-0.00570
4823.10012,-0.00432
4825.02859,0.00488
4826.95705,0.02226
4828.88552,0.02962
4830.81399,0.02463
4832.74246,0.01808
4834.67093,0.01111
4836.59940,0.00648
4838.52787,0.00793
4840.45633,0.00821
4842.38480,-0.00101
4844.31327,-0.01286
4846.24174,-0.01806
4848.17021,-0.01293
4850.09868,0.00125
4852.02715,0.01422
4853.95562,0.01774
4855.88408,0.01226
4857.81255,0.00692
4859.74102,0.00484
4861.66949,-0.00120
4863.59796,-0.00672
4865.52643,-0.00664
4867.45490,-0.00112
4869.38336,0.01210
4871.31183,0.02295
4873.24030,0.02229
4875.16877,0.01801
4877.09724,0.01577
4879.02571,0.01168
4880.95418,0.00111
4882.88265,-0.00945
4884.81111,0.00135
4886.73958,0.02851
4888.66805,0.03209
4890.59652,0.00958
4892.52499,-0.00193
4894.45346,0.00401
4896.38193,0.00651
4898.31039,0.00589
4900.23886,0.01672
4902.16733,0.02874
4904.09580,0.03331
4906.02427,0.03594
4907.95274,0.02874
4909.88121,0.01203
4911.80967,-0.00172
4913.73814,-0.00921
4915.66661,-0.01100
4917.59508,-0.00352
4919.52355,0.01343
4921.45202,0.02594
4923.38049,0.02570
4925.30896,0.02198
4927.23742,0.02373
4929.16589,0.02509
4931.09436,0.01300
4933.02283,-0.00211
4934.95130,0.00225
4936.87977,0.01545
4938.80824,0.01845
4940.73670,0.01734
4942.66517,0.01221
4944.59364,0.00411
4946.52211,0.00643
4948.45058,0.00846
4950.37905,0.00077
4952.30752,0.00068
4954.23599,0.00909
4956.16445,0.00694
4958.09292,-0.00588
4960.02139,-0.01422
4961.94986,-0.01280
4963.87833,-0.00557
4965.80680,0.00415
4967.73527,0.01591
4969.66373,0.02802
4971.59220,0.03115
4973.52067,0.02041
4975.44914,0.00488
4977.37761,-0.00548
4979.30608,-0.00802
4981.23455,0.00678
4983.16302,0.04965
4985.09148,0.09206
4987.01995,0.09331
4988.94842,0.05818
4990.87689,0.01933
4992.80536,0.00159
4994.73383,0.00225
4996.66230,0.01254
4998.59076,0.02872
5000.51923,0.02559
5002.44770,0.00294
5004.37617,-0.00765
5006.30464,-0.00596
5008.23311,-0.00473
5010.16158,-0.00334
5012.09005,-0.00653
5014.01851,-0.01131
5015.94698,-0.00682
5017.87545,0.00335
5019.80392,0.00547
5021.73239,-0.00104
5023.66086,0.00452
5025.58933,0.02659
5027.51779,0.04172
5029.44626,0.03848
5031.37473,0.02808
5033.30320,0.01737
5035.23167,0.00126
5037.16014,-0.01016
5039.08861,0.00028
5041.01708,0.01498
5042.94554,0.01245
5044.87401,0.01076
5046.80248,0.01880
5048.73095,0.02219
5050.65942,0.02212
5052.58789,0.02196
5054.51636,0.01559
5056.44482,0.01213
5058.37329,0.02541
5060.30176,0.04005
5062.23023,0.04609
5064.15870,0.04932
5066.08717,0.04422
5068.01564,0.03557
5069.94410,0.02607
5071.87257,0.01478
5073.80104,0.01331
5075.72951,0.02225
5077.65798,0.02610
5079.58645,0.01798
5081.51492,0.01036
5083.44339,0.01378
5085.37185,0.02107
5087.30032,0.02205
5089.22879,0.02387
5091.15726,0.03049
5093.08573,0.03472
5095.01420,0.03211
5096.94267,0.01702
5098.87113,0.00617
5100.79960,0.01764
5102.72807,0.03138
5104.65654,0.03540
5106.58501,0.03930
5108.51348,0.04272
5110.44195,0.04610
5112.37042,0.04534
5114.29888,0.03254
5116.22735,0.02127
5118.15582,0.01970
5120.08429,0.01724
5122.01276,0.01050
5123.94123,0.01106
5125.86970,0.02347
5127.79816,0.03320
5129.72663,0.03115
5131.65510,0.02268
5133.58357,0.02028
5135.51204,0.03088
5137.44051,0.04188
5139.36898,0.04948
5141.29745,0.06440
5143.22591,0.06790
5145.15438,0.04364
5147.08285,0.02045
5149.01132,0.01956
5150.93979,0.03546
5152.86826,0.04966
5154.79673,0.03730
5156.72519,0.00792
5158.65366,-0.00127
5160.58213,0.01313
5162.51060,0.03001
5164.43907,0.03774
5166.36754,0.03715
5168.29601,0.03565
5170.22448,0.03199
5172.15294,0.01572
5174.08141,-0.01061
5176.00988,-0.01949
5177.93835,0.00954
5179.86682,0.04738
5181.79529,0.05522
5183.72376,0.04206
5185.65222,0.03379
5187.58069,0.02389
5189.50916,0.00779
5191.43763,0.00956
5193.36610,0.02023
5195.29457,0.01961
5197.22304,0.02315
5199.15151,0.03164
5201.07997,0.02857
5203.00844,0.01446
5204.93691,0.00526
5206.86538,0.02251
5208.79385,0.05115
5210.72232,0.05385
5212.65079,0.03847
5214.57925,0.03126
5216.50772,0.03192
5218.43619,0.02983
5220.36466,0.02761
5222.29313,0.03537
5224.22160,0.03975
5226.15007,0.01860
5228.07854,0.00037
5230.00700,0.00828
5231.93547,0.02886
5233.86394,0.05572
5235.79241,0.07539
5237.72088,0.07739
5239.64935,0.06827
5241.57782,0.04887
5243.50628,0.02090
5245.43475,-0.00211
5247.36322,-0.01029
5249.29169,-0.00489
5251.22016,0.00774
5253.14863,0.02730
5255.07710,0.05019
5257.00556,0.06743
5258.93403,0.08078
5260.86250,0.08168
5262.79097,0.06605
5264.71944,0.05283
5266.64791,0.03636
5268.57638,0.01254
5270.50485,0.01724
5272.43331,0.05249
5274.36178,0.07189
5276.29025,0.07040
5278.21872,0.07520
5280.14719,0.07983
5282.07566,0.06965
5284.00413,0.05434
5285.93259,0.04525
5287.86106,0.04114
5289.78953,0.03993
5291.71800,0.04415
5293.64647,0.05214
5295.57494,0.06678
5297.50341,0.08680
5299.43188,0.08878
5301.36034,0.06288
5303.28881,0.04022
5305.21728,0.03450
5307.14575,0.03195
5309.07422,0.04296
5311.00269,0.06358
5312.93116,0.06552
5314.85962,0.06130
5316.78809,0.07107
5318.71656,0.07540
5320.64503,0.06716
5322.57350,0.05222
5324.50197,0.03595
5326.43044,0.03217
5328.35891,0.03935
5330.28737,0.05589
5332.21584,0.07664
5334.14431,0.08683
5336.07278,0.09281
5338.00125,0.09839
5339.92972,0.09906
5341.85819,0.10107
5343.78665,0.09385
5345.71512,0.06926
5347.64359,0.06106
5349.57206,0.08047
5351.50053,0.09080
5353.42900,0.05608
5355.35747,0.01280
5357.28594,0.01378
5359.21440,0.03510
5361.14287,0.03088
5363.07134,0.00120
5364.99981,0.00163
5366.92828,0.03686
5368.85675,0.04989
5370.78522,0.04408
5372.71368,0.05435
5374.64215,0.07484
5376.57062,0.08884
5378.49909,0.08558
5380.42756,0.06205
5382.35603,0.04401
5384.28450,0.05323
5386.21297,0.06407
5388.14143,0.05388
5390.06990,0.03766
5391.99837,0.03009
5393.92684,0.04126
5395.85531,0.05919
5397.78378,0.07512
5399.71225,0.08796
5401.64071,0.07642
5403.56918,0.05023
5405.49765,0.04239
5407.42612,0.04561
5409.35459,0.03808
5411.28306,0.03259
5413.21153,0.05552
5415.13999,0.08697
5417.06846,0.09421
5418.99693,0.08336
5420.92540,0.06915
5422.85387,0.05156
5424.78234,0.03629
5426.71081,0.04318
5428.63928,0.06395
5430.56774,0.06780
5432.49621,0.06125
5434.42468,0.05920
5436.35315,0.05549
5438.28162,0.05119
5440.21009,0.05991
5442.13856,0.08589
5444.06702,0.10739
5445.99549,0.09851
5447.92396,0.06811
5449.85243,0.04704
5451.78090,0.04179
5453.70937,0.04003
5455.63784,0.04343
5457.56631,0.05850
5459.49477,0.06034
5461.42324,0.04543
5463.35171,0.04804
5465.28018,0.05435
5467.20865,0.03734
5469.13712,0.02543
5471.06559,0.03574
5472.99405,0.04076
5474.92252,0.04408
5476.85099,0.05707
5478.77946,0.06473
5480.70793,0.08013
5482.63640,0.10669
5484.56487,0.11876
5486.49334,0.10561
5488.42180,0.08263
5490.35027,0.07198
5492.27874,0.08084
5494.20721,0.09831
5496.13568,0.08999
5498.06415,0.05606
5499.99262,0.03545
5501.92108,0.02597
5503.84955,0.00675
5505.77802,-0.00743
5507.70649,-0.00174
5509.63496,0.01804
5511.56343,0.03900
5513.49190,0.03872
5515.42037,0.01755
5517.34883,0.01502
5519.27730,0.03897
5521.20577,0.06554
5523.13424,0.08750
5525.06271,0.10061
5526.99118,0.09943
5528.91965,0.09063
5530.84811,0.09001
5532.77658,0.09162
5534.70505,0.07640
5536.63352,0.06595
5538.56199,0.08444
5540.49046,0.10515
5542.41893,0.10577
5544.34740,0.10146
5546.27586,0.09266
5548.20433,0.06806
5550.13280,0.05381
5552.06127,0.06124
5553.98974,0.07086
5555.91821,0.07000
5557.84668,0.04852
5559.77514,0.03418
5561.70361,0.05843
5563.63208,0.08332
5565.56055,0.06074
5567.48902,0.01679
5569.41749,0.01870
5571.34596,0.05727
5573.27443,0.07021
5575.20289,0.05329
5577.13136,0.04338
5579.05983,0.04867
5580.98830,0.05180
5582.91677,0.05535
5584.84524,0.07768
5586.77371,0.10345
5588.70217,0.10848
5590.63064,0.08767
5592.55911,0.05906
5594.48758,0.04587
5596.41605,0.04240
5598.34452,0.03648
5600.27299,0.03914
5602.20145,0.05995
5604.12992,0.08331
5606.05839,0.08986
5607.98686,0.08228
5609.91533,0.07298
5611.84380,0.05919
5613.77227,0.03792
5615.70074,0.01362
5617.62920,-0.00542
5619.55767,0.00306
5621.48614,0.01905
5623.41461,0.01353
5625.34308,0.01818
5627.27155,0.04343
5629.20002,0.06773
5631.12848,0.08818
5633.05695,0.09530
5634.98542,0.08900
5636.91389,0.08950
5638.84236,0.08828
5640.77083,0.07586
5642.69930,0.08052
5644.62777,0.09214
5646.55623,0.06871
5648.48470,0.03101
5650.41317,0.02408
5652.34164,0.03404
5654.27011,0.02733
5656.19858,0.01473
5658.12705,0.00841
5660.05551,0.00273
5661.98398,0.01910
5663.91245,0.05677
5665.84092,0.07632
5667.76939,0.08065
5669.69786,0.08450
5671.62633,0.07341
5673.55480,0.05702
5675.48326,0.04961
5677.41173,0.04254
5679.34020,0.04782
5681.26867,0.06423
5683.19714,0.06023
5685.12561,0.04460
5687.05408,0.04894
5688.98254,0.06617
5690.91101,0.06998
5692.83948,0.05597
5694.76795,0.03764
5696.69642,0.03156
5698.62489,0.03866
5700.55336,0.04588
5702.48183,0.04835
5704.41029,0.04969
5706.33876,0.05461
5708.26723,0.06445
5710.19570,0.06635
5712.12417,0.05568
5714.05264,0.05912
5715.98111,0.07795
5717.90957,0.09116
5719.83804,0.09369
5721.76651,0.07084
5723.69498,0.03779
5725.62345,0.03302
5727.55192,0.04236
5729.48039,0.03879
5731.40886,0.03928
5733.33732,0.05508
5735.26579,0.07675
5737.19426,0.09237
5739.12273,0.10141
5741.05120,0.10966
5742.97967,0.09646
5744.90814,0.05618
5746.83660,0.02876
5748.76507,0.04543
5750.69354,0.06757
5752.62201,0.04838
5754.55048,0.02609
5756.47895,0.03346
5758.40742,0.04904
5760.33588,0.06086
5762.26435,0.08219
5764.19282,0.10109
5766.12129,0.08578
5768.04976,0.06891
5769.97823,0.09690
5771.90670,0.13024
5773.83517,0.10615
5775.76363,0.05101
5777.69210,0.02192
5779.62057,0.03118
5781.54904,0.06242
5783.47751,0.09482
5785.40598,0.10727
5787.33445,0.08116
5789.26291,0.04241
5791.19138,0.04362
5793.11985,0.06401
5795.04832,0.05434
5796.97679,0.04583
5798.90526,0.05710
5800.83373,0.05567
5802.76220,0.04834
5804.69066,0.04011
5806.61913,0.02515
5808.54760,0.02416
5810.47607,0.03807
5812.40454,0.04371
5814.33301,0.04623
5816.26148,0.05972
5818.18994,0.06502
5820.11841,0.05765
5822.04688,0.05051
5823.97535,0.04586
5825.90382,0.05409
5827.83229,0.06679
5829.76076,0.05814
5831.68923,0.03844
5833.61769,0.02884
5835.54616,0.03779
5837.47463,0.05941
5839.40310,0.05993
5841.33157,0.05472
5843.26004,0.08324
5845.18851,0.11089
5847.11697,0.10779
5849.04544,0.09088
5850.97391,0.07668
5852.90238,0.07057
5854.83085,0.07092
5856.75932,0.07279
5858.68779,0.08115
5860.61626,0.10669
5862.54472,0.15101
5864.47319,0.18594
5866.40166,0.17680
5868.33013,0.14008
5870.25860,0.10850
5872.18707,0.10254
5874.11554,0.12240
5876.04400,0.11613
5877.97247,0.05531
5879.90094,0.02259
5881.82941,0.06208
5883.75788,0.08650
5885.68635,0.06072
5887.61482,0.02830
5889.54329,0.00030
5891.47175,-0.00349
5893.40022,0.03550
5895.32869,0.07060
5897.25716,0.06663
5899.18563,0.05192
5901.11410,0.03993
5903.04257,0.02756
5904.97103,0.04413
5906.89950,0.08690
5908.82797,0.11378
5910.75644,0.11506
5912.68491,0.10016
5914.61338,0.07020
5916.54185,0.04321
5918.47032,0.02483
5920.39878,0.00552
5922.32725,0.03209
5924.25572,0.12397
5926.18419,0.17811
5928.11266,0.13587
5930.04113,0.08073
5931.96960,0.08519
5933.89806,0.12841
5935.82653,0.16670
5937.75500,0.18936
5939.68347,0.18732
5941.61194,0.14616
5943.54041,0.08375
5945.46888,0.03767
5947.39734,0.02367
5949.32581,0.03666
5951.25428,0.05777
5953.18275,0.08397
5955.11122,0.10175
5957.03969,0.08379
5958.96816,0.04969
5960.89663,0.02552
5962.82509,0.02040
5964.75356,0.02511
5966.68203,0.03084
5968.61050,0.04513
5970.53897,0.04744
5972.46744,0.05959
5974.39591,0.12296
5976.32437,0.16917
5978.25284,0.13811
5980.18131,0.09344
5982.10978,0.10289
5984.03825,0.14165
5985.96672,0.15648
5987.89519,0.12366
5989.82366,0.05272
5991.75212,-0.01022
5993.68059,-0.00765
5995.60906,0.05252
5997.53753,0.08807
5999.46600,0.08501
6001.39447,0.08364
6003.32294,0.07959
6005.25140,0.06745
6007.17987,0.06759
6009.10834,0.07180
6011.03681,0.04760
6012.96528,0.00480
6014.89375,-0.00664
6016.82222,0.01606
6018.75069,0.04837
6020.67915,0.06055
6022.60762,0.01945
6024.53609,-0.00270
6026.46456,0.05795
6028.39303,0.13275
6030.32150,0.15015
6032.24997,0.12354
6034.17843,0.09082
6036.10690,0.07418
6038.03537,0.06929
6039.96384,0.07361
6041.89231,0.08719
6043.82078,0.08557
6045.74925,0.05722
6047.67772,0.02529
6049.60618,0.01794
6051.53465,0.02958
6053.46312,0.03985
6055.39159,0.04210
6057.32006,0.03183
6059.24853,0.03004
6061.17700,0.04372
6063.10546,0.04564
6065.03393,0.02690
6066.96240,0.00969
6068.89087,0.02250
6070.81934,0.04611
6072.74781,0.05648
6074.67628,0.08102
6076.60475,0.11102
6078.53321,0.13041
6080.46168,0.13247
6082.39015,0.07740
6084.31862,0.03267
6086.24709,0.06989
6088.17556,0.08737
6090.10403,0.05311
6092.03249,0.06149
6093.96096,0.11406
6095.88943,0.12961
6097.81790,0.08802
6099.74637,0.03975
6101.67484,0.03634
6103.60331,0.07383
6105.53177,0.11068
6107.46024,0.12324
6109.38871,0.09773
6111.31718,0.03473
6113.24565,-0.00732
6115.17412,-0.00813
6117.10259,-0.04028
6119.03106,-0.08180
6120.95952,-0.04371
6122.88799,0.00703
6124.81646,0.01117
6126.74493,0.02269
6128.67340,0.05506
6130.60187,0.06982
6132.53034,0.09464
6134.45880,0.11622
6136.38727,0.08439
6138.31574,0.03823
6140.24421,0.00540
6142.17268,-0.03439
6144.10115,-0.05794
6146.02962,-0.05713
6147.95809,-0.05814
6149.88655,-0.04732
6151.81502,0.00967
6153.74349,0.06551
6155.67196,0.04934
6157.60043,0.01961
6159.52890,0.05471
6161.45737,0.12464
6163.38583,0.13413
6165.31430,0.07857
6167.24277,0.05915
6169.17124,0.08037
6171.09971,0.09540
6173.02818,0.10384
6174.95665,0.10746
6176.88512,0.10649
6178.81358,0.10412
6180.74205,0.09842
6182.67052,0.09210
6184.59899,0.08565
6186.52746,0.06743
6188.45593,0.05997
6190.38440,0.07787
6192.31286,0.09107
6194.24133,0.09927
6196.16980,0.09381
6198.09827,0.07071
6200.02674,0.05733
6201.95521,0.05676
6203.88368,0.06809
6205.81215,0.10117
6207.74061,0.12100
6209.66908,0.09922
6211.59755,0.07568
6213.52602,0.06322
6215.45449,0.03775
6217.38296,0.00630
6219.31143,-0.00379
6221.23989,0.02540
6223.16836,0.05902
6225.09683,0.04368
6227.02530,0.03480
6228.95377,0.08037
6230.88224,0.08282
6232.81071,0.02332
6234.73918,0.02532
6236.66764,0.09952
6238.59611,0.15425
6240.52458,0.14092
6242.45305,0.09144
6244.38152,0.05625
6246.30999,0.03999
6248.23846,0.01847
6250.16692,-0.00407
6252.09539,-0.01567
6254.02386,-0.02881
6255.95233,-0.03051
6257.88080,0.00946
6259.80927,0.07567
6261.73774,0.11086
6263.66621,0.08578
6265.59467,0.03736
6267.52314,0.01546
6269.45161,0.00457
6271.38008,-0.00996
6273.30855,0.00400
6275.23702,0.05780
6277.16549,0.10675
6279.09395,0.10964
6281.02242,0.08970
6282.95089,0.06024
6284.87936,0.00311
6286.80783,-0.03765
6288.73630,-0.03932
6290.66477,-0.04064
6292.59323,-0.04791
6294.52170,-0.06443
6296.45017,-0.07350
6298.37864,-0.01713
6300.30711,0.04920
6302.23558,0.04665
6304.16405,0.05922
6306.09252,0.12089
6308.02098,0.15496
6309.94945,0.15393
6311.87792,0.14067
6313.80639,0.10799
6315.73486,0.09125
6317.66333,0.09396
6319.59180,0.06600
6321.52026,0.04215
6323.44873,0.07587
6325.37720,0.12488
6327.30567,0.13588
6329.23414,0.10818
6331.16261,0.06549
6333.09108,0.03232
6335.01955,0.03098
6336.94801,0.05119
6338.87648,0.09103
6340.80495,0.12838
6342.73342,0.11898
6344.66189,0.09974
6346.59036,0.10124
6348.51883,0.09085
6350.44729,0.06267
6352.37576,0.01013
6354.30423,-0.06808
6356.23270,-0.10957
6358.16117,-0.05923
6360.08964,0.02946
6362.01811,0.05365
6363.94658,-0.00897
6365.87504,-0.07157
6367.80351,-0.04203
6369.73198,0.03058
6371.66045,0.07050
6373.58892,0.06856
6375.51739,0.02359
6377.44586,-0.01911
6379.37432,-0.01110
6381.30279,-0.00482
6383.23126,-0.04007
6385.15973,-0.06118
6387.08820,-0.04834
6389.01667,-0.01920
6390.94514,0.01733
6392.87361,0.06210
6394.80207,0.08035
6396.73054,0.02427
6398.65901,-0.05289
6400.58748,-0.07520
6402.51595,-0.04182
6404.44442,0.01934
6406.37289,0.11372
6408.30135,0.18830
6410.22982,0.18554
6412.15829,0.13546
6414.08676,0.07307
6416.01523,0.02991
6417.94370,0.03563
6419.87217,0.05347
6421.80064,0.03018
6423.72910,0.00812
6425.65757,-0.00501
6427.58604,-0.03183
6429.51451,0.00175
6431.44298,0.09110
6433.37145,0.09630
6435.29992,0.00349
6437.22838,-0.05280
6439.15685,0.01335
6441.08532,0.10539
6443.01379,0.10852
6444.94226,0.05664
6446.87073,0.07014
6448.79920,0.13349
6450.72766,0.14640
6452.65613,0.08711
6454.58460,0.03317
6456.51307,0.01421
6458.44154,-0.00707
6460.37001,-0.02454
6462.29848,-0.02222
6464.22695,-0.02386
6466.15541,-0.01614
6468.08388,0.04326
6470.01235,0.12161
6471.94082,0.12083
6473.86929,0.02168
6475.79776,-0.06444
6477.72623,-0.04333
6479.65469,-0.00026
6481.58316,-0.00241
6483.51163,0.01051
6485.44010,0.06680
6487.36857,0.12185
6489.29704,0.13504
6491.22551,0.14001
6493.15398,0.12991
6495.08244,0.06400
6497.01091,0.04077
6498.93938,0.08534
6500.86785,0.09861
6502.79632,0.10940
6504.72479,0.18298
6506.65326,0.23092
6508.58172,0.19797
6510.51019,0.15045
6512.43866,0.10563
6514.36713,0.06129
6516.29560,0.05723
6518.22407,0.07345
6520.15254,0.07926
6522.08101,0.06691
6524.00947,0.02402
6525.93794,0.00225
6527.86641,0.03379
6529.79488,0.06716
6531.72335,0.09583
6533.65182,0.09845
6535.58029,0.04259
6537.50875,-0.00909
6539.43722,0.00710
6541.36569,0.06617
6543.29416,0.09364
6545.22263,0.06204
6547.15110,0.01427
6549.07957,0.00203
6551.00804,0.05809
6552.93650,0.15097
6554.86497,0.20575
6556.79344,0.16279
6558.72191,0.06245
6560.65038,0.01288
6562.57885,0.04226
6564.50732,0.07420
6566.43578,0.05918
6568.36425,0.06108
6570.29272,0.12971
6572.22119,0.16148
6574.14966,0.08609
6576.07813,0.02991
6578.00660,0.05235
6579.93507,0.09146
6581.86353,0.13313
6583.79200,0.17667
6585.72047,0.20240
6587.64894,0.20023
6589.57741,0.16010
6591.50588,0.10498
6593.43435,0.11587
6595.36281,0.15441
6597.29128,0.10818
6599.21975,0.05481
6601.14822,0.07273
6603.07669,0.11688
6605.00516,0.15598
6606.93363,0.16580
6608.86210,0.11829
6610.79056,0.05338
6612.71903,0.02041
6614.64750,0.02353
6616.57597,0.03158
6618.50444,0.02904
6620.43291,0.03499
6622.36138,0.04512
6624.28984,0.05888
6626.21831,0.07498
6628.14678,0.08613
6630.07525,0.08841
6632.00372,0.08859
6633.93219,0.13592
6635.86066,0.19569
6637.78912,0.17687
6639.71759,0.11738
6641.64606,0.06815
6643.57453,0.04283
6645.50300,0.07286
6647.43147,0.14427
6649.35994,0.15911
6651.28841,0.07911
6653.21687,-0.00349
6655.14534,0.04439
6657.07381,0.16139
6659.00228,0.12839
6660.93075,0.01005
6662.85922,-0.04868
6664.78769,-0.08531
6666.71615,-0.11230
6668.64462,-0.06939
6670.57309,0.00802
6672.50156,0.01912
6674.43003,0.00379
6676.35850,0.02812
6678.28697,0.05716
6680.21544,0.08802
6682.14390,0.12686
6684.07237,0.11181
6686.00084,0.02589
6687.92931,-0.02015
6689.85778,0.04707
6691.78625,0.12297
6693.71472,0.13709
6695.64318,0.10246
6697.57165,0.02952
6699.50012,-0.00386
6701.42859,0.04605
6703.35706,0.08772
6705.28553,0.08606
6707.21400,0.04698
6709.14247,-0.00697
6711.07093,0.00744
6712.99940,0.08042
6714.92787,0.15255
6716.85634,0.18647
6718.78481,0.16182
6720.71328,0.05051
6722.64175,-0.08169
6724.57021,-0.07998
6726.49868,0.03509
6728.42715,0.13412
6730.35562,0.13347
6732.28409,0.04479
6734.21256,-0.01509
6736.14103,-0.00312
6738.06950,0.03677
6739.99796,0.09360
6741.92643,0.11843
6743.85490,0.07038
6745.78337,0.00539
6747.71184,-0.02172
6749.64031,0.05771
6751.56878,0.19489
6753.49724,0.18703
6755.42571,0.01991
6757.35418,-0.09402
6759.28265,-0.07328
6761.21112,0.04443
6763.13959,0.17643
6765.06806,0.19896
6766.99653,0.14527
6768.92499,0.13203
6770.85346,0.13613
6772.78193,0.12668
6774.71040,0.11141
6776.63887,0.10222
6778.56734,0.11357
6780.49581,0.11218
6782.42427,0.06144
6784.35274,0.01669
6786.28121,0.05032
6788.20968,0.10403
6790.13815,0.07055
6792.06662,-0.03189
6793.99509,-0.04956
6795.92355,0.02668
6797.85202,0.08343
6799.78049,0.07005
6801.70896,0.01018
6803.63743,0.03649
6805.56590,0.15924
6807.49437,0.22933
6809.42284,0.21838
6811.35130,0.09774
6813.27977,-0.07309
6815.20824,-0.07832
6817.13671,0.03612
6819.06518,0.06005
6820.99365,0.00581
6822.92212,-0.06085
6824.85058,-0.12222
6826.77905,-0.19803
6828.70752,-0.25597
6830.63599,-0.20220
6832.56446,-0.09077
6834.49293,-0.01531
6836.42140,0.00532
6838.34987,0.03867
6840.27833,0.13594
6842.20680,0.19758
6844.13527,0.18534
6846.06374,0.15272
6847.99221,0.11143
6849.92068,0.08975
6851.84915,0.07304
6853.77761,0.05296
6855.70608,0.12020
6857.63455,0.20947
6859.56302,0.19174
6861.49149,0.12206
6863.41996,0.06187
6865.34843,0.02538
6867.27690,0.04775
6869.20536,0.10541
6871.13383,0.15262
6873.06230,0.14813
6874.99077,0.05549
6876.91924,-0.04904
6878.84771,-0.08186
6880.77618,-0.05491
6882.70464,-0.02516
6884.63311,-0.00149
6886.56158,0.01306
6888.49005,0.03820
6890.41852,0.11549
6892.34699,0.15216
6894.27546,0.06271
6896.20393,-0.09568
6898.13239,-0.23278
6900.06086,-0.22267
6901.98933,-0.04055
6903.91780,0.22176
6905.84627,0.34469
6907.77474,0.27222
6909.70321,0.24288
6911.63167,0.30126
6913.56014,0.28475
6915.48861,0.19901
6917.41708,0.16109
6919.34555,0.16032
6921.27402,0.19813
6923.20249,0.23705
6925.13096,0.16841
6927.05942,0.06188
6928.98789,0.04329
6930.91636,0.08013
6932.84483,0.09899
6934.77330,0.12572
6936.70177,0.16788
6938.63024,0.20002
6940.55870,0.17339
6942.48717,0.08142
6944.41564,-0.03214
6946.34411,-0.11748
6948.27258,-0.09524
6950.20105,-0.05174
6952.12952,-0.07727
6954.05799,-0.09892
6955.98645,-0.05802
6957.91492,0.01959
6959.84339,0.06902
6961.77186,0.06247
6963.70033,0.06287
6965.62880,0.09965
6967.55727,0.12107
6969.48573,0.11728
6971.41420,0.12969
6973.34267,0.15283
6975.27114,0.14562
6977.19961,0.10742
6979.12808,0.11120
6981.05655,0.17485
6982.98501,0.20376
6984.91348,0.15859
6986.84195,0.13697
6988.77042,0.14557
6990.69889,0.11849
6992.62736,0.02521
6994.55583,-0.10322
6996.48430,-0.11871
6998.41276,-0.02607
7000.34123,0.00449
7002.26970,0.00046
7004.19817,-0.03864
7006.12664,-0.08648
7008.05511,-0.04903
7009.98358,-0.01252
7011.91204,-0.01226
7013.84051,0.03915
7015.76898,0.13426
7017.69745,0.19100
7019.62592,0.16682
7021.55439,0.08339
7023.48286,0.03121
7025.41133,0.07228
7027.33979,0.10941
7029.26826,0.11968
7031.19673,0.14986
7033.12520,0.07902
7035.05367,-0.07209
7036.98214,-0.13933
7038.91061,-0.10463
7040.83907,-0.01374
7042.76754,0.02063
7044.69601,-0.05157
7046.62448,-0.06350
7048.55295,0.09267
7050.48142,0.23200
7052.40989,0.15484
7054.33836,-0.02672
7056.26682,-0.07174
7058.19529,0.04402
7060.12376,0.18391
7062.05223,0.28134
7063.98070,0.31026
7065.90917,0.24989
7067.83764,0.12419
7069.76610,-0.01163
7071.69457,-0.06872
7073.62304,-0.01019
7075.55151,0.06527
7077.47998,0.04936
7079.40845,-0.07254
7081.33692,-0.11655
7083.26539,0.03712
7085.19385,0.11655
7087.12232,0.06115
7089.05079,0.01358
7090.97926,-0.04015
7092.90773,-0.12341
7094.83620,-0.20864
7096.76467,-0.26320
7098.69313,-0.16875
7100.62160,0.01154
7102.55007,0.08238
7104.47854,0.08397
7106.40701,0.14723
7108.33548,0.24694
7110.26395,0.30387
7112.19242,0.32617
7114.12088,0.34906
7116.04935,0.35905
7117.97782,0.27976
7119.90629,0.13709
7121.83476,0.08005
7123.76323,0.13465
7125.69170,0.17580
7127.62016,0.08698
7129.54863,-0.04898
7131.47710,-0.05269
7133.40557,0.02139
7135.33404,-0.02215
7137.26251,-0.13911
7139.19098,-0.19099
7141.11944,-0.11723
7143.04791,0.07586
7144.97638,0.21511
7146.90485,0.13123
7148.83332,0.01423
7150.76179,0.05101
7152.69026,0.16693
7154.61873,0.17508
7156.54719,0.07878
7158.47566,0.07877
7160.40413,0.21465
7162.33260,0.25776
7164.26107,0.17565
7166.18954,0.11745
7168.11801,0.06395
7170.04647,-0.06046
7171.97494,-0.11451
7173.90341,-0.02827
7175.83188,0.02071
7177.76035,0.00945
7179.68882,0.04221
7181.61729,0.13166
7183.54576,0.20644
7185.47422,0.22322
7187.40269,0.24178
7189.33116,0.20778
7191.25963,0.16674
7193.18810,0.15711
7195.11657,0.07368
7197.04504,-0.03936
7198.97350,-0.06509
7200.90197,-0.02461
7202.83044,-0.01551
7204.75891,-0.05084
7206.68738,-0.04819
7208.61585,-0.04245
7210.54432,-0.06261
7212.47279,-0.03314
7214.40125,0.10281
7216.32972,0.25360
7218.25819,0.24980
7220.18666,0.18154
7222.11513,0.20077
7224.04360,0.19434
7225.97207,0.07393
7227.90053,0.05201
7229.82900,0.20812
7231.75747,0.22523
7233.68594,0.07966
7235.61441,0.09148
7237.54288,0.24302
7239.47135,0.32177
7241.39982,0.30936
7243.32828,0.30466
7245.25675,0.26782
7247.18522,0.19155
7249.11369,0.16127
7251.04216,0.15415
7252.97063,0.17507
7254.89910,0.22108
7256.82756,0.19709
7258.75603,0.17537
7260.68450,0.20729
7262.61297,0.20710
7264.54144,0.09090
7266.46991,-0.04564
7268.39838,-0.09722
7270.32685,-0.11411
7272.25531,-0.06872
7274.18378,0.03707
7276.11225,0.06168
7278.04072,0.03701
7279.96919,0.04886
7281.89766,0.07337
7283.82613,0.01613
7285.75459,-0.08180
7287.68306,-0.12977
7289.61153,-0.16011
7291.54000,-0.17054
7293.46847,-0.10703
7295.39694,-0.03971
7297.32541,-0.03951
7299.25387,-0.07698
7301.18234,-0.07520
7303.11081,0.01029
7305.03928,0.14928
7306.96775,0.24071
7308.89622,0.16751
7310.82469,0.08757
7312.75316,0.13362
7314.68162,0.12753
7316.61009,0.02232
7318.53856,0.02771
7320.46703,0.03631
7322.39550,-0.02080
7324.32397,-0.09767
7326.25244,-0.19542
7328.18090,-0.16019
7330.10937,0.04768
7332.03784,0.10595
7333.96631,0.02969
7335.89478,-0.01088
7337.82325,0.00592
7339.75172,0.04016
7341.68019,-0.05059
7343.60865,-0.23371
7345.53712,-0.34682
7347.46559,-0.26208
7349.39406,-0.07472
7351.32253,0.05093
7353.25100,0.10188
7355.17947,0.12710
7357.10793,0.12502
7359.03640,0.01763
7360.96487,-0.12675
7362.89334,-0.07660
7364.82181,0.06165
7366.75028,-0.00618
7368.67875,-0.09372
7370.60722,0.04183
7372.53568,0.17111
7374.46415,0.11420
7376.39262,0.00481
7378.32109,0.03337
7380.24956,0.11447
7382.17803,0.13182
7384.10650,0.06364
7386.03496,0.02229
7387.96343,0.05517
7389.89190,0.09614
7391.82037,0.14066
7393.74884,0.21291
7395.67731,0.26491
7397.60578,0.21115
7399.53425,0.07937
7401.46271,0.00043
7403.39118,0.07299
7405.31965,0.21695
7407.24812,0.27172
7409.17659,0.27582
7411.10506,0.28019
7413.03353,0.23059
7414.96199,0.07466
7416.89046,-0.07262
7418.81893,-0.03368
7420.74740,0.03176
7422.67587,0.01532
7424.60434,0.03082
7426.53281,0.07545
7428.46128,0.08930
7430.38974,0.03509
7432.31821,0.00522
7434.24668,0.05296
7436.17515,0.09907
7438.10362,0.09575
7440.03209,0.06851
7441.96056,0.03830
7443.88902,0.01051
7445.81749,-0.04166
7447.74596,-0.10417
7449.67443,-0.09045
7451.60290,0.00841
7453.53137,0.07742
7455.45984,0.13287
7457.38831,0.26962
7459.31677,0.40937
7461.24524,0.36214
7463.17371,0.27667
7465.10218,0.32713
7467.03065,0.38302
7468.95912,0.28327
7470.88759,0.11680
7472.81605,0.10472
7474.74452,0.15798
7476.67299,0.06654
7478.60146,-0.03945
7480.52993,0.02579
7482.45840,0.07212
7484.38687,0.01725
7486.31533,0.03520
7488.24380,0.13681
7490.17227,0.22384
7492.10074,0.23510
7494.02921,0.13926
7495.95768,-0.00259
7497.88615,-0.09340
