399.19301,1.97659
401.12148,1.07053
403.04995,0.53284
404.97842,0.11863
406.90689,-0.12194
408.83536,-0.15587
410.76382,-0.03366
412.69229,0.02938
414.62076,0.05667
416.54923,0.15323
418.47770,0.19350
420.40617,0.02912
422.33464,-0.10903
424.26311,-0.11460
426.19157,-0.05793
428.12004,-0.01895
430.04851,0.04435
431.97698,0.10088
433.90545,0.06237
435.83392,0.02699
437.76239,0.02451
439.69085,0.02802
441.61932,0.07753
443.54779,0.11914
445.47626,0.07330
447.40473,0.02304
449.33320,0.05120
451.26167,0.10975
453.19013,0.14266
455.11860,0.17745
457.04707,0.19536
458.97554,0.13793
460.90401,0.08399
462.83248,0.10965
464.76095,0.16974
466.68942,0.17134
468.61788,0.09989
470.54635,0.02948
472.47482,-0.04379
474.40329,-0.15787
476.33176,-0.14502
478.26023,-0.05508
480.18870,0.03816
482.11716,0.11697
484.04563,0.14019
485.97410,0.13899
487.90257,0.15022
489.83104,0.13205
491.75951,0.08418
493.68798,0.08146
495.61645,0.13889
497.54491,0.17862
499.47338,0.17115
501.40185,0.15508
503.33032,0.13521
505.25879,0.12634
507.18726,0.13996
509.11573,0.12203
511.04419,0.06531
512.97266,0.02726
514.90113,0.04262
516.82960,0.06627
518.75807,0.06247
520.68654,0.08338
522.61501,0.11577
524.54348,0.12201
526.47194,0.12637
528.40041,0.12475
530.32888,0.12423
532.25735,0.16233
534.18582,0.19736
536.11429,0.17578
538.04276,0.14679
539.97122,0.15323
541.89969,0.16138
543.82816,0.14182
545.75663,0.10786
547.68510,0.09604
549.61357,0.12041
551.54204,0.16093
553.47051,0.18776
555.39897,0.18141
557.32744,0.15767
559.25591,0.14503
561.18438,0.14268
563.11285,0.11797
565.04132,0.07510
566.96979,0.07915
568.89825,0.11453
570.82672,0.12387
572.75519,0.12185
574.68366,0.12162
576.61213,0.11906
578.54060,0.10654
580.46907,0.07066
582.39754,0.03894
584.32600,0.05284
586.25447,0.08954
588.18294,0.09459
590.11141,0.06452
592.03988,0.03856
593.96835,0.04610
595.89682,0.07656
597.82528,0.09836
599.75375,0.10862
601.68222,0.13203
603.61069,0.16001
605.53916,0.15041
607.46763,0.10773
609.39610,0.07991
611.32456,0.07913
613.25303,0.07880
615.18150,0.06356
617.10997,0.05077
619.03844,0.05393
620.96691,0.06066
622.89538,0.07351
624.82385,0.09805
626.75231,0.11245
628.68078,0.10931
630.60925,0.12640
632.53772,0.16740
634.46619,0.17566
636.39466,0.14917
638.32313,0.11543
640.25159,0.07745
642.18006,0.06067
644.10853,0.08032
646.03700,0.12386
647.96547,0.15624
649.89394,0.14129
651.82241,0.10912
653.75088,0.09536
655.67934,0.10024
657.60781,0.11868
659.53628,0.12538
661.46475,0.10476
663.39322,0.07913
665.32169,0.07002
667.25016,0.08835
669.17862,0.12581
671.10709,0.12940
673.03556,0.11693
674.96403,0.11381
676.89250,0.11084
678.82097,0.10539
680.74944,0.10694
682.67791,0.09980
684.60637,0.08672
686.53484,0.08102
688.46331,0.07411
690.39178,0.07705
692.32025,0.09591
694.24872,0.10891
696.17719,0.11132
698.10565,0.11191
700.03412,0.11386
701.96259,0.11576
703.89106,0.11789
705.81953,0.11985
707.74800,0.11341
709.67647,0.12503
711.60494,0.15670
713.53340,0.14529
715.46187,0.10999
717.39034,0.10492
719.31881,0.10925
721.24728,0.11334
723.17575,0.11948
725.10422,0.11628
727.03268,0.10525
728.96115,0.09354
730.88962,0.09187
732.81809,0.10084
734.74656,0.11031
736.67503,0.11545
738.60350,0.10959
740.53197,0.09951
742.46043,0.10268
744.38890,0.11545
746.31737,0.12547
748.24584,0.12888
750.17431,0.12911
752.10278,0.12349
754.03125,0.10837
755.95971,0.09567
757.88818,0.09407
759.81665,0.09887
761.74512,0.10105
763.67359,0.09976
765.60206,0.10407
767.53053,0.11457
769.45900,0.11893
771.38746,0.11083
773.31593,0.09923
775.24440,0.09718
777.17287,0.10586
779.10134,0.10928
781.02981,0.10057
782.95828,0.08677
784.88674,0.07712
786.81521,0.08283
788.74368,0.10454
790.67215,0.12249
792.60062,0.11903
794.52909,0.10683
796.45756,0.10128
798.38602,0.10209
800.31449,0.10604
802.24296,0.10200
804.17143,0.08898
806.09990,0.07641
808.02837,0.07620
809.95684,0.09582
811.88531,0.11897
813.81377,0.12166
815.74224,0.10766
817.67071,0.09768
819.59918,0.10163
821.52765,0.11456
823.45612,0.11291
825.38459,0.08936
827.31305,0.06858
829.24152,0.06284
831.16999,0.06966
833.09846,0.08857
835.02693,0.10094
836.95540,0.10180
838.88387,0.11111
840.81234,0.11740
842.74080,0.10880
844.66927,0.09774
846.59774,0.08732
848.52621,0.08065
850.45468,0.08743
852.38315,0.09750
854.31162,0.09963
856.24008,0.10202
858.16855,0.10430
860.09702,0.10221
862.02549,0.10506
863.95396,0.11087
865.88243,0.15959
867.81090,0.36983
869.73937,0.58432
871.66783,0.46608
873.59630,0.19300
875.52477,0.09864
877.45324,0.11224
879.38171,0.11392
881.31018,0.11051
883.23865,0.11631
885.16711,0.12349
887.09558,0.12232
889.02405,0.11635
890.95252,0.10832
892.88099,0.11175
894.80946,0.12183
896.73793,0.11937
898.66640,0.11278
900.59486,0.11305
902.52333,0.11214
904.45180,0.10782
906.38027,0.10534
908.30874,0.10370
910.23721,0.10239
912.16568,0.10454
914.09414,0.10877
916.02261,0.11137
917.95108,0.11552
919.87955,0.12053
921.80802,0.12060
923.73649,0.11597
925.66496,0.11275
927.59343,0.11088
929.52189,0.10554
931.45036,0.09893
933.37883,0.09979
935.30730,0.11422
937.23577,0.12674
939.16424,0.12236
941.09271,0.11025
943.02117,0.10443
944.94964,0.10632
946.87811,0.10449
948.80658,0.09782
950.73505,0.09890
952.66352,0.10968
954.59199,0.11796
956.52045,0.11733
958.44892,0.11301
960.37739,0.11001
962.30586,0.10930
964.23433,0.10919
966.16280,0.11040
968.09127,0.11220
970.01974,0.10791
971.94820,0.10051
973.87667,0.10539
975.80514,0.12036
977.73361,0.12691
979.66208,0.12276
981.59055,0.11666
983.51902,0.11249
985.44748,0.11366
987.37595,0.11915
989.30442,0.12254
991.23289,0.12335
993.16136,0.12552
995.08983,0.12691
997.01830,0.12089
998.94677,0.11088
1000.87523,0.10704
1002.80370,0.10837
1004.73217,0.10982
1006.66064,0.11074
1008.58911,0.10916
1010.51758,0.10661
1012.44605,0.10846
1014.37451,0.11380
1016.30298,0.11728
1018.23145,0.11743
1020.15992,0.11694
1022.08839,0.11625
1024.01686,0.11423
1025.94533,0.10533
1027.87380,0.09367
1029.80226,0.10261
1031.73073,0.12115
1033.65920,0.12182
1035.58767,0.11730
1037.51614,0.11563
1039.44461,0.11107
1041.37308,0.11097
1043.30154,0.11343
1045.23001,0.11125
1047.15848,0.11111
1049.08695,0.11580
1051.01542,0.11938
1052.94389,0.12148
1054.87236,0.12293
1056.80083,0.12305
1058.72929,0.12128
1060.65776,0.11751
1062.58623,0.11705
1064.51470,0.12318
1066.44317,0.13141
1068.37164,0.13463
1070.30011,0.12458
1072.22857,0.10998
1074.15704,0.10974
1076.08551,0.11594
1078.01398,0.11320
1079.94245,0.10465
1081.87092,0.10010
1083.79939,0.10611
1085.72786,0.11224
1087.65632,0.10750
1089.58479,0.10639
1091.51326,0.11247
1093.44173,0.10985
1095.37020,0.10468
1097.29867,0.11214
1099.22714,0.12850
1101.15560,0.14265
1103.08407,0.14545
1105.01254,0.13716
1106.94101,0.12970
1108.86948,0.12468
1110.79795,0.11909
1112.72642,0.12159
1114.65489,0.12686
1116.58335,0.12347
1118.51182,0.12321
1120.44029,0.13377
1122.36876,0.14204
1124.29723,0.13963
1126.22570,0.12942
1128.15417,0.11865
1130.08263,0.11255
1132.01110,0.11136
1133.93957,0.11599
1135.86804,0.12176
1137.79651,0.12409
1139.72498,0.12733
1141.65345,0.13026
1143.58191,0.12801
1145.51038,0.12365
1147.43885,0.12133
1149.36732,0.11953
1151.29579,0.11543
1153.22426,0.11308
1155.15273,0.11808
1157.08120,0.12346
1159.00966,0.12064
1160.93813,0.11667
1162.86660,0.11914
1164.79507,0.11984
1166.72354,0.11408
1168.65201,0.11221
1170.58048,0.11631
1172.50894,0.11871
1174.43741,0.11969
1176.36588,0.12123
1178.29435,0.12306
1180.22282,0.12530
1182.15129,0.12544
1184.07976,0.12959
1186.00823,0.14102
1187.93669,0.14290
1189.86516,0.13080
1191.79363,0.11948
1193.72210,0.11530
1195.65057,0.11684
1197.57904,0.12083
1199.50751,0.12398
1201.43597,0.12673
1203.36444,0.13025
1205.29291,0.13142
1207.22138,0.12822
1209.14985,0.12328
1211.07832,0.12059
1213.00679,0.12313
1214.93526,0.12696
1216.86372,0.12810
1218.79219,0.12849
1220.72066,0.12862
1222.64913,0.12926
1224.57760,0.13088
1226.50607,0.13071
1228.43454,0.12926
1230.36300,0.12834
1232.29147,0.12653
1234.21994,0.12237
1236.14841,0.11813
1238.07688,0.11919
1240.00535,0.12381
1241.93382,0.12383
1243.86229,0.11899
1245.79075,0.11523
1247.71922,0.11650
1249.64769,0.12317
1251.57616,0.12733
1253.50463,0.12258
1255.43310,0.11716
1257.36157,0.11742
1259.29003,0.12129
1261.21850,0.12631
1263.14697,0.12666
1265.07544,0.12200
1267.00391,0.11939
1268.93238,0.12108
1270.86085,0.12339
1272.78932,0.12311
1274.71778,0.12219
1276.64625,0.12391
1278.57472,0.12545
1280.50319,0.12510
1282.43166,0.12845
1284.36013,0.13398
1286.28860,0.13365
1288.21706,0.13041
1290.14553,0.13026
1292.07400,0.13024
1294.00247,0.12884
1295.93094,0.12736
1297.85941,0.12414
1299.78788,0.11695
1301.71634,0.10456
1303.64481,0.09302
1305.57328,0.09425
1307.50175,0.10960
1309.43022,0.12421
1311.35869,0.12849
1313.28716,0.12958
1315.21563,0.13256
1317.14409,0.13399
1319.07256,0.13177
1321.00103,0.12898
1322.92950,0.12845
1324.85797,0.12791
1326.78644,0.12733
1328.71491,0.12683
1330.64337,0.12125
1332.57184,0.11640
1334.50031,0.12091
1336.42878,0.12747
1338.35725,0.13089
1340.28572,0.12814
1342.21419,0.11703
1344.14266,0.10899
1346.07112,0.11207
1347.99959,0.11998
1349.92806,0.12143
1351.85653,0.11652
1353.78500,0.11087
1355.71347,0.10856
1357.64194,0.11305
1359.57040,0.12094
1361.49887,0.12784
1363.42734,0.13073
1365.35581,0.13003
1367.28428,0.12884
1369.21275,0.12703
1371.14122,0.12626
1373.06969,0.13047
1374.99815,0.13691
1376.92662,0.13736
1378.85509,0.13515
1380.78356,0.13503
1382.71203,0.13493
1384.64050,0.13516
1386.56897,0.13787
1388.49743,0.14011
1390.42590,0.13821
1392.35437,0.13529
1394.28284,0.13645
1396.21131,0.14309
1398.13978,0.14881
1400.06825,0.14778
1401.99672,0.14227
1403.92518,0.13717
1405.85365,0.13607
1407.78212,0.13842
1409.71059,0.13949
1411.63906,0.13886
1413.56753,0.13876
1415.49600,0.13980
1417.42446,0.14175
1419.35293,0.14003
1421.28140,0.13537
1423.20987,0.13567
1425.13834,0.14038
1427.06681,0.14526
1428.99528,0.14767
1430.92375,0.14342
1432.85221,0.13626
1434.78068,0.13586
1436.70915,0.13969
1438.63762,0.13753
1440.56609,0.13330
1442.49456,0.13148
1444.42303,0.13266
1446.35149,0.13613
1448.27996,0.13893
1450.20843,0.13805
1452.13690,0.13764
1454.06537,0.14448
1455.99384,0.15698
1457.92231,0.15770
1459.85077,0.14947
1461.77924,0.14705
1463.70771,0.14667
1465.63618,0.14497
1467.56465,0.14214
1469.49312,0.14146
1471.42159,0.14642
1473.35006,0.15355
1475.27852,0.15248
1477.20699,0.14578
1479.13546,0.13833
1481.06393,0.13291
1482.99240,0.13163
1484.92087,0.13498
1486.84934,0.14432
1488.77780,0.15437
1490.70627,0.15167
1492.63474,0.14598
1494.56321,0.14854
1496.49168,0.15734
1498.42015,0.16353
1500.34862,0.16203
1502.27709,0.15970
1504.20555,0.16614
1506.13402,0.18036
1508.06249,0.17142
1509.99096,0.15712
1511.91943,0.15173
1513.84790,0.14882
1515.77637,0.15077
1517.70483,0.15355
1519.63330,0.15317
1521.56177,0.15736
1523.49024,0.16155
1525.41871,0.15986
1527.34718,0.15867
1529.27565,0.15818
1531.20412,0.15867
1533.13258,0.16101
1535.06105,0.15747
1536.98952,0.15100
1538.91799,0.15056
1540.84646,0.15818
1542.77493,0.16058
1544.70340,0.15540
1546.63186,0.14941
1548.56033,0.14708
1550.48880,0.14790
1552.41727,0.15025
1554.34574,0.15327
1556.27421,0.15631
1558.20268,0.15937
1560.13115,0.15084
1562.05961,0.14246
1563.98808,0.14181
1565.91655,0.14458
1567.84502,0.14947
1569.77349,0.15344
1571.70196,0.15006
1573.63043,0.14619
1575.55889,0.14869
1577.48736,0.15280
1579.41583,0.14966
1581.34430,0.14247
1583.27277,0.13545
1585.20124,0.13135
1587.12971,0.13089
1589.05818,0.13386
1590.98664,0.13937
1592.91511,0.14498
1594.84358,0.14593
1596.77205,0.14161
1598.70052,0.13846
1600.62899,0.13749
1602.55746,0.13564
1604.48592,0.13571
1606.41439,0.13935
1608.34286,0.14270
1610.27133,0.14342
1612.19980,0.14245
1614.12827,0.14172
1616.05674,0.14496
1617.98521,0.15164
1619.91367,0.15565
1621.84214,0.15868
1623.77061,0.15869
1625.69908,0.15445
1627.62755,0.15105
1629.55602,0.15020
1631.48449,0.15096
1633.41295,0.15261
1635.34142,0.15450
1637.26989,0.15043
1639.19836,0.14397
1641.12683,0.14240
1643.05530,0.14626
1644.98377,0.15386
1646.91223,0.16193
1648.84070,0.16631
1650.76917,0.16998
1652.69764,0.17234
1654.62611,0.16323
1656.55458,0.15210
1658.48305,0.14317
1660.41152,0.13877
1662.33998,0.14495
1664.26845,0.15220
1666.19692,0.15200
1668.12539,0.15535
1670.05386,0.16191
1671.98233,0.15904
1673.91080,0.15387
1675.83926,0.15023
1677.76773,0.14841
1679.69620,0.15135
1681.62467,0.15811
1683.55314,0.16489
1685.48161,0.16235
1687.41008,0.15553
1689.33855,0.15104
1691.26701,0.14723
1693.19548,0.14652
1695.12395,0.15130
1697.05242,0.15697
1698.98089,0.15863
1700.90936,0.15534
1702.83783,0.15015
1704.76629,0.14653
1706.69476,0.14360
1708.62323,0.14275
1710.55170,0.14420
1712.48017,0.14743
1714.40864,0.15384
1716.33711,0.16160
1718.26558,0.15904
1720.19404,0.14910
1722.12251,0.14315
1724.05098,0.14202
1725.97945,0.14325
1727.90792,0.14544
1729.83639,0.14930
1731.76486,0.15632
1733.69332,0.16277
1735.62179,0.16001
1737.55026,0.15628
1739.47873,0.15463
1741.40720,0.15401
1743.33567,0.15567
1745.26414,0.15796
1747.19261,0.16093
1749.12107,0.16366
1751.04954,0.15841
1752.97801,0.14906
1754.90648,0.14577
1756.83495,0.14656
1758.76342,0.14551
1760.69189,0.14263
1762.62035,0.14151
1764.54882,0.14376
1766.47729,0.14815
1768.40576,0.15368
1770.33423,0.15929
1772.26270,0.16018
1774.19117,0.15215
1776.11964,0.14641
1778.04810,0.14845
1779.97657,0.15299
1781.90504,0.15401
1783.83351,0.15215
1785.76198,0.14881
1787.69045,0.14624
1789.61892,0.15008
1791.54738,0.15825
1793.47585,0.15788
1795.40432,0.15002
1797.33279,0.14549
1799.26126,0.14577
1801.18973,0.14593
1803.11820,0.14391
1805.04666,0.14220
1806.97513,0.14225
1808.90360,0.14366
1810.83207,0.14565
1812.76054,0.14671
1814.68901,0.14776
1816.61748,0.14499
1818.54595,0.13537
1820.47441,0.13597
1822.40288,0.14912
1824.33135,0.15495
1826.25982,0.15182
1828.18829,0.14950
1830.11676,0.14729
1832.04523,0.14372
1833.97369,0.14158
1835.90216,0.14160
1837.83063,0.14211
1839.75910,0.14288
1841.68757,0.14427
1843.61604,0.14680
1845.54451,0.14996
1847.47298,0.15135
1849.40144,0.14946
1851.32991,0.14648
1853.25838,0.14569
1855.18685,0.14544
1857.11532,0.14472
1859.04379,0.14514
1860.97226,0.14658
1862.90072,0.14865
1864.82919,0.15122
1866.75766,0.15315
1868.68613,0.15268
1870.61460,0.14999
1872.54307,0.14775
1874.47154,0.14691
1876.40001,0.14717
1878.32847,0.14765
1880.25694,0.14726
1882.18541,0.14672
1884.11388,0.14657
1886.04235,0.14626
1887.97082,0.14682
1889.89929,0.14925
1891.82775,0.15174
1893.75622,0.15212
1895.68469,0.15016
1897.61316,0.14753
1899.54163,0.14664
1901.47010,0.14733
1903.39857,0.14696
1905.32704,0.14540
1907.25550,0.14538
1909.18397,0.14644
1911.11244,0.14624
1913.04091,0.14619
1914.96938,0.14754
1916.89785,0.14871
1918.82632,0.14874
1920.75478,0.14904
1922.68325,0.14899
1924.61172,0.14684
1926.54019,0.14565
1928.46866,0.14740
1930.39713,0.14896
1932.32560,0.14858
1934.25407,0.14703
1936.18253,0.14504
1938.11100,0.14478
1940.03947,0.14762
1941.96794,0.15076
1943.89641,0.15006
1945.82488,0.14672
1947.75335,0.14410
1949.68181,0.14364
1951.61028,0.14572
1953.53875,0.14739
1955.46722,0.14676
1957.39569,0.14601
1959.32416,0.14598
1961.25263,0.14631
1963.18110,0.14712
1965.10956,0.14862
1967.03803,0.15029
1968.96650,0.15092
1970.89497,0.15052
1972.82344,0.14842
1974.75191,0.14453
1976.68038,0.14108
1978.60884,0.14033
1980.53731,0.14362
1982.46578,0.14845
1984.39425,0.15122
1986.32272,0.15288
1988.25119,0.15332
1990.17966,0.15138
1992.10812,0.14954
1994.03659,0.14864
1995.96506,0.14716
1997.89353,0.14676
1999.82200,0.14899
2001.75047,0.15125
2003.67894,0.15142
2005.60741,0.15038
2007.53587,0.14931
2009.46434,0.14876
2011.39281,0.14946
2013.32128,0.15115
2015.24975,0.15199
2017.17822,0.15241
2019.10669,0.15314
2021.03515,0.15167
2022.96362,0.14880
2024.89209,0.14859
2026.82056,0.14963
2028.74903,0.14776
2030.67750,0.14388
2032.60597,0.14133
2034.53444,0.14117
2036.46290,0.14320
2038.39137,0.14572
2040.31984,0.14639
2042.24831,0.14635
2044.17678,0.14691
2046.10525,0.14751
2048.03372,0.14858
2049.96218,0.14983
2051.89065,0.14929
2053.81912,0.14546
2055.74759,0.14079
2057.67606,0.14054
2059.60453,0.14450
2061.53300,0.14707
2063.46147,0.14584
2065.38993,0.14305
2067.31840,0.14128
2069.24687,0.14243
2071.17534,0.14673
2073.10381,0.15023
2075.03228,0.15073
2076.96075,0.14974
2078.88921,0.14739
2080.81768,0.14600
2082.74615,0.14909
2084.67462,0.15393
2086.60309,0.15586
2088.53156,0.15631
2090.46003,0.15593
2092.38850,0.15210
2094.31696,0.14734
2096.24543,0.14475
2098.17390,0.14335
2100.10237,0.14284
2102.03084,0.14425
2103.95931,0.14806
2105.88778,0.15303
2107.81624,0.15584
2109.74471,0.15330
2111.67318,0.14699
2113.60165,0.14268
2115.53012,0.14249
2117.45859,0.14308
2119.38706,0.14299
2121.31553,0.14425
2123.24399,0.14756
2125.17246,0.15081
2127.10093,0.15140
2129.02940,0.14899
2130.95787,0.14690
2132.88634,0.14738
2134.81481,0.14645
2136.74327,0.14452
2138.67174,0.14668
2140.60021,0.14944
2142.52868,0.14854
2144.45715,0.14702
2146.38562,0.14845
2148.31409,0.15059
2150.24255,0.14958
2152.17102,0.14740
2154.09949,0.14780
2156.02796,0.14884
2157.95643,0.14716
2159.88490,0.14464
2161.81337,0.14379
2163.74184,0.14412
2165.67030,0.14435
2167.59877,0.14403
2169.52724,0.14397
2171.45571,0.14462
2173.38418,0.14586
2175.31265,0.14749
2177.24112,0.14859
2179.16958,0.14781
2181.09805,0.14551
2183.02652,0.14429
2184.95499,0.14590
2186.88346,0.14838
2188.81193,0.14898
2190.74040,0.14896
2192.66887,0.14959
2194.59733,0.14974
2196.52580,0.14942
2198.45427,0.14941
2200.38274,0.14934
2202.31121,0.14876
2204.23968,0.14892
2206.16815,0.14922
2208.09661,0.14845
2210.02508,0.14782
2211.95355,0.14663
2213.88202,0.14454
2215.81049,0.14435
2217.73896,0.14566
2219.66743,0.14534
2221.59590,0.14467
2223.52436,0.14571
2225.45283,0.14670
2227.38130,0.14737
2229.30977,0.14962
2231.23824,0.15191
2233.16671,0.15135
2235.09518,0.15009
2237.02364,0.15048
2238.95211,0.14956
2240.88058,0.14722
2242.80905,0.14710
2244.73752,0.14874
2246.66599,0.15030
2248.59446,0.15142
2250.52293,0.15200
2252.45139,0.15156
2254.37986,0.14891
2256.30833,0.14682
2258.23680,0.14724
2260.16527,0.14643
2262.09374,0.14439
2264.02221,0.14482
2265.95067,0.14677
2267.87914,0.14734
2269.80761,0.14708
2271.73608,0.14647
2273.66455,0.14549
2275.59302,0.14641
2277.52149,0.14863
2279.44996,0.14927
2281.37842,0.14803
2283.30689,0.14606
2285.23536,0.14448
2287.16383,0.14495
2289.09230,0.14828
2291.02077,0.14947
2292.94924,0.14511
2294.87770,0.14248
2296.80617,0.14387
2298.73464,0.14255
2300.66311,0.14009
2302.59158,0.14072
2304.52005,0.14310
2306.44852,0.14631
2308.37699,0.14978
2310.30545,0.15161
2312.23392,0.14951
2314.16239,0.14386
2316.09086,0.13772
2318.01933,0.13567
2319.94780,0.13972
2321.87627,0.14250
2323.80473,0.13891
2325.73320,0.13295
2327.66167,0.12876
2329.59014,0.13160
2331.51861,0.14070
2333.44708,0.14166
2335.37555,0.12849
2337.30401,0.12076
2339.23248,0.13455
2341.16095,0.15602
2343.08942,0.16312
2345.01789,0.15100
2346.94636,0.13594
2348.87483,0.12819
2350.80330,0.13042
2352.73176,0.14697
2354.66023,0.16641
2356.58870,0.17476
2358.51717,0.17499
2360.44564,0.16104
2362.37411,0.14673
2364.30258,0.14400
2366.23104,0.13935
2368.15951,0.13767
2370.08798,0.14250
2372.01645,0.14143
2373.94492,0.13736
2375.87339,0.13885
2377.80186,0.14163
2379.73033,0.14260
2381.65879,0.14503
2383.58726,0.14784
2385.51573,0.14821
2387.44420,0.14702
2389.37267,0.14618
2391.30114,0.14698
2393.22961,0.14890
2395.15807,0.14928
2397.08654,0.14789
2399.01501,0.14707
2400.94348,0.14670
2402.87195,0.14732
2404.80042,0.15010
2406.72889,0.15159
2408.65736,0.14948
2410.58582,0.14641
2412.51429,0.14640
2414.44276,0.14918
2416.37123,0.15043
2418.29970,0.15052
2420.22817,0.15159
2422.15664,0.15306
2424.08510,0.15478
2426.01357,0.15441
2427.94204,0.15005
2429.87051,0.14653
2431.79898,0.14840
2433.72745,0.15234
2435.65592,0.15336
2437.58439,0.15140
2439.51285,0.14801
2441.44132,0.14527
2443.36979,0.14510
2445.29826,0.14691
2447.22673,0.14900
2449.15520,0.15007
2451.08367,0.14974
2453.01213,0.14734
2454.94060,0.14482
2456.86907,0.14543
2458.79754,0.14689
2460.72601,0.14775
2462.65448,0.14877
2464.58295,0.14893
2466.51142,0.14865
2468.43988,0.14776
2470.36835,0.14707
2472.29682,0.14886
2474.22529,0.15120
2476.15376,0.15043
2478.08223,0.14768
2480.01070,0.14700
2481.93916,0.14718
2483.86763,0.14562
2485.79610,0.14562
2487.72457,0.14919
2489.65304,0.15320
2491.58151,0.15442
2493.50998,0.15195
2495.43844,0.14753
2497.36691,0.14514
2499.29538,0.14730
2501.22385,0.15131
2503.15232,0.15369
2505.08079,0.15413
2507.00926,0.15284
2508.93773,0.15060
2510.86619,0.15000
2512.79466,0.15135
2514.72313,0.15131
2516.65160,0.14990
2518.58007,0.15022
2520.50854,0.15125
2522.43701,0.15077
2524.36547,0.14986
2526.29394,0.15038
2528.22241,0.15318
2530.15088,0.15611
2532.07935,0.15615
2534.00782,0.15344
2535.93629,0.14939
2537.86476,0.14604
2539.79322,0.14574
2541.72169,0.14830
2543.65016,0.15095
2545.57863,0.15190
2547.50710,0.15081
2549.43557,0.14880
2551.36404,0.14917
2553.29250,0.15171
2555.22097,0.15282
2557.14944,0.15099
2559.07791,0.14814
2561.00638,0.14788
2562.93485,0.15028
2564.86332,0.15268
2566.79179,0.15434
2568.72025,0.15485
2570.64872,0.15333
2572.57719,0.15107
2574.50566,0.15024
2576.43413,0.15122
2578.36260,0.15209
2580.29107,0.15080
2582.21953,0.14907
2584.14800,0.14952
2586.07647,0.15116
2588.00494,0.15198
2589.93341,0.15278
2591.86188,0.15366
2593.79035,0.15227
2595.71882,0.15000
2597.64728,0.14959
2599.57575,0.14996
2601.50422,0.15084
2603.43269,0.15290
2605.36116,0.15365
2607.28963,0.14921
2609.21810,0.14028
2611.14656,0.13785
2613.07503,0.14670
2615.00350,0.15345
2616.93197,0.15357
2618.86044,0.15438
2620.78891,0.15539
2622.71738,0.15581
2624.64585,0.15723
2626.57431,0.15750
2628.50278,0.15612
2630.43125,0.15546
2632.35972,0.15511
2634.28819,0.15283
2636.21666,0.15008
2638.14513,0.14932
2640.07359,0.14989
2642.00206,0.15072
2643.93053,0.15234
2645.85900,0.15429
2647.78747,0.15370
2649.71594,0.15170
2651.64441,0.15372
2653.57288,0.15819
2655.50134,0.15940
2657.42981,0.15722
2659.35828,0.15462
2661.28675,0.15284
2663.21522,0.15093
2665.14369,0.14920
2667.07216,0.14929
2669.00062,0.14989
2670.92909,0.14969
2672.85756,0.15115
2674.78603,0.15446
2676.71450,0.15627
2678.64297,0.15620
2680.57144,0.15610
2682.49990,0.15575
2684.42837,0.15670
2686.35684,0.16243
2688.28531,0.16860
2690.21378,0.16685
2692.14225,0.15931
2694.07072,0.15505
2695.99919,0.15567
2697.92765,0.15721
2699.85612,0.15840
2701.78459,0.15882
2703.71306,0.15875
2705.64153,0.15867
2707.57000,0.15787
2709.49847,0.15592
2711.42693,0.15394
2713.35540,0.15451
2715.28387,0.15697
2717.21234,0.15799
2719.14081,0.15689
2721.06928,0.15551
2722.99775,0.15566
2724.92622,0.15658
2726.85468,0.15625
2728.78315,0.15435
2730.71162,0.15194
2732.64009,0.15028
2734.56856,0.15080
2736.49703,0.15411
2738.42550,0.15826
2740.35396,0.15922
2742.28243,0.15430
2744.21090,0.14746
2746.13937,0.14592
2748.06784,0.14910
2749.99631,0.15188
2751.92478,0.15287
2753.85325,0.15277
2755.78171,0.15463
2757.71018,0.15824
2759.63865,0.15876
2761.56712,0.15694
2763.49559,0.15765
2765.42406,0.16572
2767.35253,0.17796
2769.28099,0.18385
2771.20946,0.18090
2773.13793,0.17118
2775.06640,0.16138
2776.99487,0.15853
2778.92334,0.15887
2780.85181,0.15899
2782.78028,0.15744
2784.70874,0.15526
2786.63721,0.15759
2788.56568,0.16264
2790.49415,0.16383
2792.42262,0.16037
2794.35109,0.15829
2796.27956,0.16040
2798.20802,0.16232
2800.13649,0.16006
2802.06496,0.15540
2803.99343,0.15312
2805.92190,0.15489
2807.85037,0.15930
2809.77884,0.16328
2811.70731,0.16295
2813.63577,0.15879
2815.56424,0.15621
2817.49271,0.15747
2819.42118,0.15918
2821.34965,0.15706
2823.27812,0.15282
2825.20659,0.15136
2827.13505,0.15197
2829.06352,0.15334
2830.99199,0.15613
2832.92046,0.15927
2834.84893,0.16025
2836.77740,0.15903
2838.70587,0.15858
2840.63433,0.15832
2842.56280,0.15615
2844.49127,0.15304
2846.41974,0.15274
2848.34821,0.15808
2850.27668,0.16507
2852.20515,0.16695
2854.13362,0.16423
2856.06208,0.16208
2857.99055,0.16166
2859.91902,0.16052
2861.84749,0.15664
2863.77596,0.15220
2865.70443,0.15036
2867.63290,0.15233
2869.56136,0.15702
2871.48983,0.15869
2873.41830,0.15747
2875.34677,0.15910
2877.27524,0.16144
2879.20371,0.16177
2881.13218,0.16090
2883.06065,0.15815
2884.98911,0.15662
2886.91758,0.15883
2888.84605,0.16190
2890.77452,0.16253
2892.70299,0.15688
2894.63146,0.14717
2896.55993,0.14390
2898.48839,0.14951
2900.41686,0.15516
2902.34533,0.15617
2904.27380,0.15330
2906.20227,0.14933
2908.13074,0.14961
2910.05921,0.15399
2911.98768,0.15708
2913.91614,0.15563
2915.84461,0.15101
2917.77308,0.14792
2919.70155,0.14831
2921.63002,0.15246
2923.55849,0.16827
2925.48696,0.19136
2927.41542,0.19932
2929.34389,0.18802
2931.27236,0.17005
2933.20083,0.15787
2935.12930,0.15202
2937.05777,0.14596
2938.98624,0.14613
2940.91471,0.15206
2942.84317,0.15535
2944.77164,0.15319
2946.70011,0.14649
2948.62858,0.14597
2950.55705,0.15386
2952.48552,0.15836
2954.41399,0.15469
2956.34245,0.14591
2958.27092,0.14165
2960.19939,0.14858
2962.12786,0.15716
2964.05633,0.15884
2965.98480,0.15415
2967.91327,0.14959
2969.84174,0.15384
2971.77020,0.16138
2973.69867,0.16474
2975.62714,0.16293
2977.55561,0.15441
2979.48408,0.14957
2981.41255,0.15835
2983.34102,0.16934
2985.26948,0.16758
2987.19795,0.15564
2989.12642,0.15066
2991.05489,0.15883
2992.98336,0.16544
2994.91183,0.16378
2996.84030,0.15900
2998.76877,0.15620
3000.69723,0.15999
3002.62570,0.16385
3004.55417,0.16213
3006.48264,0.15968
3008.41111,0.15573
3010.33958,0.14538
3012.26805,0.12722
3014.19651,0.10124
3016.12498,0.08150
3018.05345,0.09265
3019.98192,0.12748
3021.91039,0.15369
3023.83886,0.16334
3025.76733,0.16600
3027.69579,0.16363
3029.62426,0.15998
3031.55273,0.16054
3033.48120,0.16215
3035.40967,0.16239
3037.33814,0.16189
3039.26661,0.16166
3041.19508,0.16306
3043.12354,0.16282
3045.05201,0.15831
3046.98048,0.15421
3048.90895,0.15553
3050.83742,0.15844
3052.76589,0.15788
3054.69436,0.15202
3056.62282,0.14164
3058.55129,0.13841
3060.47976,0.14847
3062.40823,0.16028
3064.33670,0.16122
3066.26517,0.15273
3068.19364,0.15059
3070.12211,0.15752
3072.05057,0.16019
3073.97904,0.15605
3075.90751,0.15127
3077.83598,0.15014
3079.76445,0.15746
3081.69292,0.16879
3083.62139,0.16508
3085.54985,0.15642
3087.47832,0.16493
3089.40679,0.16911
3091.33526,0.15854
3093.26373,0.14970
3095.19220,0.14831
3097.12067,0.15832
3099.04914,0.17104
3100.97760,0.17125
3102.90607,0.15950
3104.83454,0.15055
3106.76301,0.15419
3108.69148,0.16065
3110.61995,0.15703
3112.54842,0.14800
3114.47688,0.14955
3116.40535,0.15800
3118.33382,0.15822
3120.26229,0.15454
3122.19076,0.15607
3124.11923,0.16161
3126.04770,0.16586
3127.97617,0.16454
3129.90463,0.15928
3131.83310,0.15703
3133.76157,0.15981
3135.69004,0.16391
3137.61851,0.16566
3139.54698,0.16523
3141.47545,0.16781
3143.40391,0.17141
3145.33238,0.17028
3147.26085,0.16682
3149.18932,0.16568
3151.11779,0.16779
3153.04626,0.16964
3154.97473,0.16839
3156.90320,0.16675
3158.83166,0.16764
3160.76013,0.16745
3162.68860,0.16335
3164.61707,0.16050
3166.54554,0.16245
3168.47401,0.16853
3170.40248,0.17583
3172.33094,0.17648
3174.25941,0.16817
3176.18788,0.16173
3178.11635,0.16440
3180.04482,0.16781
3181.97329,0.16712
3183.90176,0.16807
3185.83022,0.16914
3187.75869,0.16604
3189.68716,0.16144
3191.61563,0.15857
3193.54410,0.15843
3195.47257,0.16105
3197.40104,0.16493
3199.32951,0.16753
3201.25797,0.16970
3203.18644,0.17269
3205.11491,0.17503
3207.04338,0.17660
3208.97185,0.17554
3210.90032,0.17157
3212.82879,0.17070
3214.75725,0.17349
3216.68572,0.17352
3218.61419,0.17038
3220.54266,0.16929
3222.47113,0.17286
3224.39960,0.17828
3226.32807,0.17850
3228.25654,0.17103
3230.18500,0.16286
3232.11347,0.16118
3234.04194,0.16518
3235.97041,0.16845
3237.89888,0.16556
3239.82735,0.15681
3241.75582,0.15081
3243.68428,0.14983
3245.61275,0.15057
3247.54122,0.15769
3249.46969,0.16199
3251.39816,0.15779
3253.32663,0.15920
3255.25510,0.16657
3257.18357,0.17450
3259.11203,0.18013
3261.04050,0.17682
3262.96897,0.16836
3264.89744,0.16195
3266.82591,0.15746
3268.75438,0.15592
3270.68285,0.15918
3272.61131,0.16309
3274.53978,0.16539
3276.46825,0.16760
3278.39672,0.17048
3280.32519,0.17435
3282.25366,0.17473
3284.18213,0.16796
3286.11060,0.16099
3288.03906,0.15891
3289.96753,0.15892
3291.89600,0.16068
3293.82447,0.16372
3295.75294,0.16806
3297.68141,0.17353
3299.60988,0.17815
3301.53834,0.18396
3303.46681,0.18726
3305.39528,0.18290
3307.32375,0.17629
3309.25222,0.17165
3311.18069,0.17003
3313.10916,0.17125
3315.03763,0.17005
3316.96609,0.16677
3318.89456,0.16741
3320.82303,0.17230
3322.75150,0.17611
3324.67997,0.17405
3326.60844,0.17033
3328.53691,0.17066
3330.46537,0.17109
3332.39384,0.16691
3334.32231,0.16105
3336.25078,0.16008
3338.17925,0.16311
3340.10772,0.16361
3342.03619,0.16273
3343.96466,0.16226
3345.89312,0.15990
3347.82159,0.15772
3349.75006,0.15777
3351.67853,0.16096
3353.60700,0.16540
3355.53547,0.16607
3357.46394,0.16495
3359.39240,0.16463
3361.32087,0.16300
3363.24934,0.16221
3365.17781,0.16313
3367.10628,0.16073
3369.03475,0.15863
3370.96322,0.16398
3372.89168,0.17089
3374.82015,0.16997
3376.74862,0.16253
3378.67709,0.15682
3380.60556,0.15703
3382.53403,0.16016
3384.46250,0.16055
3386.39097,0.16051
3388.31943,0.16337
3390.24790,0.16304
3392.17637,0.16077
3394.10484,0.16115
3396.03331,0.15942
3397.96178,0.16212
3399.89025,0.18132
3401.81871,0.19827
3403.74718,0.18956
3405.67565,0.17075
3407.60412,0.16188
3409.53259,0.15669
3411.46106,0.15263
3413.38953,0.15688
3415.31800,0.16115
3417.24646,0.15655
3419.17493,0.15308
3421.10340,0.15788
3423.03187,0.16451
3424.96034,0.16583
3426.88881,0.16203
3428.81728,0.15996
3430.74574,0.16214
3432.67421,0.16317
3434.60268,0.16138
3436.53115,0.15996
3438.45962,0.15842
3440.38809,0.15430
3442.31656,0.15103
3444.24503,0.15262
3446.17349,0.15470
3448.10196,0.15465
3450.03043,0.15772
3451.95890,0.16502
3453.88737,0.16873
3455.81584,0.16365
3457.74431,0.15524
3459.67277,0.14915
3461.60124,0.14681
3463.52971,0.14682
3465.45818,0.14475
3467.38665,0.14053
3469.31512,0.13961
3471.24359,0.14343
3473.17206,0.14671
3475.10052,0.14689
3477.02899,0.14508
3478.95746,0.14073
3480.88593,0.13726
3482.81440,0.13896
3484.74287,0.14185
3486.67134,0.14365
3488.59980,0.14746
3490.52827,0.15105
3492.45674,0.14888
3494.38521,0.14314
3496.31368,0.13976
3498.24215,0.13924
3500.17062,0.14098
3502.09909,0.14588
3504.02755,0.15020
3505.95602,0.14869
3507.88449,0.14333
3509.81296,0.13932
3511.74143,0.13874
3513.66990,0.13838
3515.59837,0.13680
3517.52683,0.13530
3519.45530,0.13191
3521.38377,0.12916
3523.31224,0.13229
3525.24071,0.13709
3527.16918,0.13943
3529.09765,0.14281
3531.02611,0.14391
3532.95458,0.13727
3534.88305,0.13094
3536.81152,0.13377
3538.73999,0.14123
3540.66846,0.14301
3542.59693,0.13752
3544.52540,0.13319
3546.45386,0.13472
3548.38233,0.13616
3550.31080,0.13580
3552.23927,0.13383
3554.16774,0.12294
3556.09621,0.12251
3558.02468,0.15903
3559.95314,0.18797
3561.88161,0.15795
3563.81008,0.12373
3565.73855,0.13403
3567.66702,0.13880
3569.59549,0.12331
3571.52396,0.11909
3573.45243,0.12023
3575.38089,0.12557
3577.30936,0.13283
3579.23783,0.13273
3581.16630,0.12843
3583.09477,0.12921
3585.02324,0.13552
3586.95171,0.13918
3588.88017,0.13207
3590.80864,0.12266
3592.73711,0.12011
3594.66558,0.12439
3596.59405,0.13206
3598.52252,0.13568
3600.45099,0.12968
3602.37946,0.12072
3604.30792,0.11811
3606.23639,0.12203
3608.16486,0.12768
3610.09333,0.12828
3612.02180,0.12245
3613.95027,0.11854
3615.87874,0.12141
3617.80720,0.12490
3619.73567,0.12719
3621.66414,0.12661
3623.59261,0.12129
3625.52108,0.11673
3627.44955,0.11872
3629.37802,0.12208
3631.30649,0.11705
3633.23495,0.11238
3635.16342,0.10930
3637.09189,0.10533
3639.02036,0.10669
3640.94883,0.11550
3642.87730,0.12281
3644.80577,0.12601
3646.73423,0.13143
3648.66270,0.13505
3650.59117,0.12455
3652.51964,0.11318
3654.44811,0.10722
3656.37658,0.10753
3658.30505,0.11157
3660.23352,0.11241
3662.16198,0.11218
3664.09045,0.11392
3666.01892,0.11769
3667.94739,0.12353
3669.87586,0.12620
3671.80433,0.12279
3673.73280,0.12271
3675.66126,0.12628
3677.58973,0.12672
3679.51820,0.12345
3681.44667,0.11573
3683.37514,0.10585
3685.30361,0.10223
3687.23208,0.10842
3689.16055,0.11697
3691.08901,0.11631
3693.01748,0.10813
3694.94595,0.10146
3696.87442,0.10304
3698.80289,0.11131
3700.73136,0.11816
3702.65983,0.11725
3704.58829,0.11108
3706.51676,0.10721
3708.44523,0.10915
3710.37370,0.11156
3712.30217,0.10667
3714.23064,0.10698
3716.15911,0.11959
3718.08757,0.13062
3720.01604,0.12189
3721.94451,0.10658
3723.87298,0.11045
3725.80145,0.11937
3727.72992,0.11859
3729.65839,0.11754
3731.58686,0.11681
3733.51532,0.11874
3735.44379,0.13110
3737.37226,0.13201
3739.30073,0.11783
3741.22920,0.11203
3743.15767,0.12534
3745.08614,0.13735
3747.01460,0.12699
3748.94307,0.11738
3750.87154,0.11522
3752.80001,0.11183
3754.72848,0.10796
3756.65695,0.10946
3758.58542,0.11310
3760.51389,0.11214
3762.44235,0.11014
3764.37082,0.10738
3766.29929,0.10046
3768.22776,0.09497
3770.15623,0.09505
3772.08470,0.09557
3774.01317,0.09567
3775.94163,0.09866
3777.87010,0.10447
3779.79857,0.10922
3781.72704,0.10973
3783.65551,0.10875
3785.58398,0.10672
3787.51245,0.10339
3789.44092,0.10284
3791.36938,0.10752
3793.29785,0.11580
3795.22632,0.12301
3797.15479,0.12308
3799.08326,0.11751
3801.01173,0.11186
3802.94020,0.10833
3804.86866,0.10834
3806.79713,0.10832
3808.72560,0.10343
3810.65407,0.09954
3812.58254,0.10036
3814.51101,0.10265
3816.43948,0.10499
3818.36795,0.10794
3820.29641,0.11107
3822.22488,0.10989
3824.15335,0.10436
3826.08182,0.10319
3828.01029,0.10756
3829.93876,0.11127
3831.86723,0.11292
3833.79569,0.11083
3835.72416,0.10395
3837.65263,0.10091
3839.58110,0.10466
3841.50957,0.10671
3843.43804,0.10800
3845.36651,0.10980
3847.29498,0.11031
3849.22344,0.11086
3851.15191,0.11610
3853.08038,0.12564
3855.00885,0.12295
3856.93732,0.11353
3858.86579,0.10687
3860.79426,0.10537
3862.72272,0.10931
3864.65119,0.11089
3866.57966,0.10958
3868.50813,0.11308
3870.43660,0.11699
3872.36507,0.12108
3874.29354,0.12679
3876.22200,0.12535
3878.15047,0.12214
3880.07894,0.11620
3882.00741,0.10507
3883.93588,0.10416
3885.86435,0.10850
3887.79282,0.10688
3889.72129,0.10457
3891.64975,0.10333
3893.57822,0.10230
3895.50669,0.10368
3897.43516,0.10702
3899.36363,0.10730
3901.29210,0.10212
3903.22057,0.09850
3905.14903,0.09923
3907.07750,0.09775
3909.00597,0.09343
3910.93444,0.09075
3912.86291,0.09070
3914.79138,0.09240
3916.71985,0.09676
3918.64832,0.10089
3920.57678,0.09838
3922.50525,0.08998
3924.43372,0.08260
3926.36219,0.08086
3928.29066,0.08350
3930.21913,0.08618
3932.14760,0.08463
3934.07606,0.08298
3936.00453,0.08597
3937.93300,0.09073
3939.86147,0.09583
3941.78994,0.09904
3943.71841,0.09665
3945.64688,0.09432
3947.57535,0.09830
3949.50381,0.10146
3951.43228,0.09688
3953.36075,0.09297
3955.28922,0.09270
3957.21769,0.09010
3959.14616,0.08697
3961.07463,0.08879
3963.00309,0.09412
3964.93156,0.09613
3966.86003,0.09418
3968.78850,0.09533
3970.71697,0.10061
3972.64544,0.10401
3974.57391,0.10350
3976.50238,0.09957
3978.43084,0.09208
3980.35931,0.08560
3982.28778,0.08380
3984.21625,0.08609
3986.14472,0.09223
3988.07319,0.09866
3990.00166,0.10091
3991.93012,0.09899
3993.85859,0.09525
3995.78706,0.09248
3997.71553,0.09118
3999.64400,0.08889
4001.57247,0.08770
4003.50094,0.08971
4005.42941,0.08948
4007.35787,0.08840
4009.28634,0.09007
4011.21481,0.09013
4013.14328,0.08836
4015.07175,0.08869
4017.00022,0.09058
4018.92869,0.08889
4020.85715,0.08627
4022.78562,0.08942
4024.71409,0.09400
4026.64256,0.09408
4028.57103,0.09425
4030.49950,0.09407
4032.42797,0.08069
4034.35644,0.06668
4036.28490,0.07723
4038.21337,0.09323
4040.14184,0.08967
4042.07031,0.08258
4043.99878,0.08502
4045.92725,0.08643
4047.85572,0.08348
4049.78418,0.08194
4051.71265,0.08128
4053.64112,0.07941
4055.56959,0.07929
4057.49806,0.08049
4059.42653,0.07965
4061.35500,0.08039
4063.28346,0.08222
4065.21193,0.07890
4067.14040,0.07362
4069.06887,0.07280
4070.99734,0.07464
4072.92581,0.07414
4074.85428,0.07078
4076.78275,0.06910
4078.71121,0.07096
4080.63968,0.07300
4082.56815,0.07385
4084.49662,0.07626
4086.42509,0.08355
4088.35356,0.08928
4090.28203,0.08606
4092.21049,0.08104
4094.13896,0.07761
4096.06743,0.07241
4097.99590,0.07108
4099.92437,0.07507
4101.85284,0.07593
4103.78131,0.07433
4105.70978,0.07642
4107.63824,0.08081
4109.56671,0.08446
4111.49518,0.08406
4113.42365,0.07997
4115.35212,0.07801
4117.28059,0.07543
4119.20906,0.06819
4121.13752,0.06515
4123.06599,0.06983
4124.99446,0.07476
4126.92293,0.07751
4128.85140,0.07871
4130.77987,0.07866
4132.70834,0.07982
4134.63681,0.08103
4136.56527,0.07932
4138.49374,0.07822
4140.42221,0.07838
4142.35068,0.07488
4144.27915,0.07089
4146.20762,0.07127
4148.13609,0.07265
4150.06455,0.07279
4151.99302,0.07352
4153.92149,0.07228
4155.84996,0.06887
4157.77843,0.06859
4159.70690,0.06799
4161.63537,0.06517
4163.56384,0.06914
4165.49230,0.07614
4167.42077,0.07685
4169.34924,0.07612
4171.27771,0.07640
4173.20618,0.07548
4175.13465,0.07594
4177.06312,0.07867
4178.99158,0.08154
4180.92005,0.08209
4182.84852,0.08016
4184.77699,0.07987
4186.70546,0.07570
4188.63393,0.06202
4190.56240,0.05953
4192.49087,0.06940
4194.41933,0.06353
4196.34780,0.05389
4198.27627,0.05913
4200.20474,0.06204
4202.13321,0.06155
4204.06168,0.06671
4205.99015,0.06826
4207.91861,0.06601
4209.84708,0.06276
4211.77555,0.05727
4213.70402,0.05679
4215.63249,0.06144
4217.56096,0.06240
4219.48943,0.05839
4221.41789,0.05823
4223.34636,0.06371
4225.27483,0.06666
4227.20330,0.06765
4229.13177,0.06936
4231.06024,0.06786
4232.98871,0.06165
4234.91718,0.05710
4236.84564,0.05940
4238.77411,0.06245
4240.70258,0.06194
4242.63105,0.05995
4244.55952,0.05879
4246.48799,0.06007
4248.41646,0.06171
4250.34492,0.06231
4252.27339,0.06160
4254.20186,0.06252
4256.13033,0.06766
4258.05880,0.06857
4259.98727,0.06144
4261.91574,0.05529
4263.84421,0.05557
4265.77267,0.05628
4267.70114,0.05358
4269.62961,0.05811
4271.55808,0.07238
4273.48655,0.07870
4275.41502,0.07064
4277.34349,0.06263
4279.27195,0.06400
4281.20042,0.06790
4283.12889,0.06296
4285.05736,0.05335
4286.98583,0.05415
4288.91430,0.06163
4290.84277,0.06286
4292.77124,0.05951
4294.69970,0.05506
4296.62817,0.04998
4298.55664,0.04750
4300.48511,0.04879
4302.41358,0.04925
4304.34205,0.04279
4306.27052,0.03656
4308.19898,0.03782
4310.12745,0.03821
4312.05592,0.03665
4313.98439,0.03956
4315.91286,0.04159
4317.84133,0.03630
4319.76980,0.03034
4321.69827,0.03209
4323.62673,0.03985
4325.55520,0.04611
4327.48367,0.04695
4329.41214,0.04617
4331.34061,0.04801
4333.26908,0.05149
4335.19755,0.05338
4337.12601,0.05338
4339.05448,0.05246
4340.98295,0.04474
4342.91142,0.03227
4344.83989,0.03778
4346.76836,0.04649
4348.69683,0.01717
4350.62530,-0.01088
4352.55376,0.01933
4354.48223,0.06191
4356.41070,0.05631
4358.33917,0.03452
4360.26764,0.02957
4362.19611,0.02748
4364.12458,0.02782
4366.05304,0.03338
4367.98151,0.03683
4369.90998,0.03497
4371.83845,0.03431
4373.76692,0.03855
4375.69539,0.03882
4377.62386,0.03767
4379.55232,0.03924
4381.48079,0.04245
4383.40926,0.04865
4385.33773,0.05151
4387.26620,0.04772
4389.19467,0.04342
4391.12314,0.04109
4393.05161,0.03643
4394.98007,0.03142
4396.90854,0.02963
4398.83701,0.02886
4400.76548,0.02948
4402.69395,0.03303
4404.62242,0.03302
4406.55089,0.02306
4408.47935,0.01626
4410.40782,0.02209
4412.33629,0.02792
4414.26476,0.02880
4416.19323,0.03100
4418.12170,0.03105
4420.05017,0.02619
4421.97864,0.02693
4423.90710,0.03453
4425.83557,0.03792
4427.76404,0.04077
4429.69251,0.04674
4431.62098,0.04559
4433.54945,0.03969
4435.47792,0.03742
4437.40638,0.03810
4439.33485,0.04034
4441.26332,0.03932
4443.19179,0.03364
4445.12026,0.03066
4447.04873,0.03230
4448.97720,0.03480
4450.90567,0.03590
4452.83413,0.03072
4454.76260,0.02164
4456.69107,0.01792
4458.61954,0.02146
4460.54801,0.02951
4462.47648,0.03325
4464.40495,0.02917
4466.33341,0.02544
4468.26188,0.02308
4470.19035,0.01946
4472.11882,0.01667
4474.04729,0.01681
4475.97576,0.01921
4477.90423,0.02002
4479.83270,0.01437
4481.76116,0.00616
4483.68963,0.00817
4485.61810,0.01507
4487.54657,0.01278
4489.47504,0.01084
4491.40351,0.01877
4493.33198,0.03207
4495.26044,0.04331
4497.18891,0.04548
4499.11738,0.03959
4501.04585,0.03432
4502.97432,0.03569
4504.90279,0.01848
4506.83126,-0.03506
4508.75973,-0.06993
4510.68819,-0.04083
4512.61666,0.01266
4514.54513,0.03044
4516.47360,0.01601
4518.40207,0.00506
4520.33054,0.00090
4522.25901,0.00671
4524.18747,0.02142
4526.11594,0.02464
4528.04441,0.01406
4529.97288,0.00266
4531.90135,0.00282
4533.82982,0.01192
4535.75829,0.01603
4537.68676,0.01280
4539.61522,0.00994
4541.54369,0.01052
4543.47216,0.01130
4545.40063,0.00995
4547.32910,0.00760
4549.25757,0.00599
4551.18604,0.00475
4553.11450,0.00897
4555.04297,0.01779
4556.97144,0.02011
4558.89991,0.02154
4560.82838,0.02792
4562.75685,0.02588
4564.68532,0.01182
4566.61378,0.00151
4568.54225,0.00184
4570.47072,0.00174
4572.39919,-0.00407
4574.32766,-0.00526
4576.25613,0.00395
4578.18460,0.01181
4580.11307,0.01033
4582.04153,0.00710
4583.97000,0.00403
4585.89847,0.00074
4587.82694,0.00488
4589.75541,0.01502
4591.68388,0.02068
4593.61235,0.01838
4595.54081,0.01246
4597.46928,0.00536
4599.39775,-0.00193
4601.32622,-0.00260
4603.25469,0.00565
4605.18316,0.01084
4607.11163,0.00775
4609.04010,0.00487
4610.96856,0.00440
4612.89703,0.00896
4614.82550,0.01718
4616.75397,0.01870
4618.68244,0.01995
4620.61091,0.02614
4622.53938,0.02732
4624.46784,0.02692
4626.39631,0.03603
4628.32478,0.04671
4630.25325,0.03961
4632.18172,0.01796
4634.11019,0.00288
4636.03866,0.00120
4637.96713,0.00617
4639.89559,0.01264
4641.82406,0.02036
4643.75253,0.02145
4645.68100,0.00778
4647.60947,-0.00348
4649.53794,0.00567
4651.46641,0.02196
4653.39487,0.02696
4655.32334,0.01977
4657.25181,0.00911
4659.18028,0.00309
4661.10875,0.00433
4663.03722,0.01953
4664.96569,0.04996
4666.89416,0.07459
4668.82262,0.06981
4670.75109,0.03503
4672.67956,0.00677
4674.60803,0.01528
4676.53650,0.03135
4678.46497,0.02707
4680.39344,0.02074
4682.32190,0.02001
4684.25037,0.01697
4686.17884,0.01613
4688.10731,0.01856
4690.03578,0.01793
4691.96425,0.01603
4693.89272,0.01912
4695.82119,0.02439
4697.74965,0.02554
4699.67812,0.02369
4701.60659,0.02113
4703.53506,0.01803
4705.46353,0.01636
4707.39200,0.01647
4709.32047,0.01674
4711.24893,0.01597
4713.17740,0.01474
4715.10587,0.01819
4717.03434,0.02344
4718.96281,0.02222
4720.89128,0.01491
4722.81975,0.00248
4724.74821,-0.00468
4726.67668,0.00132
4728.60515,0.00617
4730.53362,0.00271
4732.46209,-0.00298
4734.39056,-0.00312
4736.31903,0.00694
4738.24750,0.01762
4740.17596,0.01425
4742.10443,-0.00488
4744.03290,-0.02331
4745.96137,-0.02575
4747.88984,-0.01751
4749.81831,-0.00671
4751.74678,0.00512
4753.67524,0.01206
4755.60371,0.01784
4757.53218,0.02682
4759.46065,0.03329
4761.38912,0.02895
4763.31759,0.01486
4765.24606,0.00276
4767.17453,0.00239
4769.10299,0.00804
4771.03146,0.01291
4772.95993,0.01278
4774.88840,0.00712
4776.81687,0.00536
4778.74534,0.01079
4780.67381,0.01793
4782.60227,0.02378
4784.53074,0.02794
4786.45921,0.02209
4788.38768,0.01202
4790.31615,0.00676
4792.24462,0.00284
4794.17309,0.00595
4796.10156,0.02113
4798.03002,0.03480
4799.95849,0.03925
4801.88696,0.03292
4803.81543,0.01524
4805.74390,0.00354
4807.67237,0.00503
4809.60084,-0.00007
4811.52930,-0.00976
4813.45777,-0.00634
4815.38624,0.00485
4817.31471,0.00999
4819.24318,0.00459
4821.17165,0.00216
4823.10012,0.02318
4825.02859,0.04999
4826.95705,0.04827
4828.88552,0.02227
4830.81399,0.00163
4832.74246,-0.00126
4834.67093,-0.00166
4836.59940,-0.00611
4838.52787,-0.00449
4840.45633,-0.00134
4842.38480,-0.00101
4844.31327,0.00454
4846.24174,0.01223
4848.17021,0.01268
4850.09868,0.01168
4852.02715,0.02133
4853.95562,0.03391
4855.88408,0.02899
4857.81255,0.01374
4859.74102,0.01457
4861.66949,0.02763
4863.59796,0.03321
4865.52643,0.03381
4867.45490,0.03795
4869.38336,0.04222
4871.31183,0.03358
4873.24030,0.01207
4875.16877,-0.00404
4877.09724,-0.01221
4879.02571,-0.01686
4880.95418,-0.01223
4882.88265,0.00230
4884.81111,0.01637
4886.73958,0.02061
4888.66805,0.02410
4890.59652,0.03290
4892.52499,0.03611
4894.45346,0.03218
4896.38193,0.02483
4898.31039,0.01820
4900.23886,0.02265
4902.16733,0.03354
4904.09580,0.03340
4906.02427,0.01978
4907.95274,0.00218
4909.88121,-0.00683
4911.80967,0.00126
4913.73814,0.01105
4915.66661,0.00831
4917.59508,0.00356
4919.52355,0.00783
4921.45202,0.01411
4923.38049,0.01174
4925.30896,0.00741
4927.23742,0.00610
4929.16589,0.00118
4931.09436,0.00574
4933.02283,0.02999
4934.95130,0.04598
4936.87977,0.03859
4938.80824,0.02923
4940.73670,0.02937
4942.66517,0.03095
4944.59364,0.02633
4946.52211,0.01434
4948.45058,-0.00033
4950.37905,-0.00782
4952.30752,0.00001
4954.23599,0.01809
4956.16445,0.03298
4958.09292,0.03634
4960.02139,0.03792
4961.94986,0.04909
4963.87833,0.05357
4965.80680,0.03863
4967.73527,0.02639
4969.66373,0.02836
4971.59220,0.02646
4973.52067,0.01725
4975.44914,0.01491
4977.37761,0.00991
4979.30608,-0.02104
4981.23455,-0.04691
4983.16302,-0.02627
4985.09148,-0.00709
4987.01995,-0.02502
4988.94842,-0.03459
4990.87689,-0.01480
4992.80536,0.00726
4994.73383,0.01912
4996.66230,0.02219
4998.59076,0.01092
5000.51923,-0.00487
5002.44770,-0.00231
5004.37617,0.01508
5006.30464,0.02310
5008.23311,0.02310
5010.16158,0.02839
5012.09005,0.03284
5014.01851,0.02843
5015.94698,0.01996
5017.87545,0.02047
5019.80392,0.03223
5021.73239,0.03747
5023.66086,0.02920
5025.58933,0.01852
5027.51779,0.01462
5029.44626,0.02017
5031.37473,0.02689
5033.30320,0.02232
5035.23167,0.01599
5037.16014,0.01973
5039.08861,0.02442
5041.01708,0.02879
5042.94554,0.03230
5044.87401,0.02399
5046.80248,0.01202
5048.73095,0.00932
5050.65942,0.01112
5052.58789,0.01390
5054.51636,0.01352
5056.44482,0.00786
5058.37329,0.01188
5060.30176,0.02832
5062.23023,0.04225
5064.15870,0.04594
5066.08717,0.03880
5068.01564,0.03262
5069.94410,0.03575
5071.87257,0.03632
5073.80104,0.02396
5075.72951,0.00934
5077.65798,0.01363
5079.58645,0.02839
5081.51492,0.02214
5083.44339,0.00618
5085.37185,0.00832
5087.30032,0.01758
5089.22879,0.02515
5091.15726,0.03488
5093.08573,0.03689
5095.01420,0.03568
5096.94267,0.03904
5098.87113,0.03172
5100.79960,0.02038
5102.72807,0.02836
5104.65654,0.03555
5106.58501,0.01836
5108.51348,0.00040
5110.44195,0.00671
5112.37042,0.02414
5114.29888,0.02857
5116.22735,0.01926
5118.15582,0.00842
5120.08429,0.00180
5122.01276,0.00424
5123.94123,0.01893
5125.86970,0.03532
5127.79816,0.04046
5129.72663,0.03781
5131.65510,0.03425
5133.58357,0.02637
5135.51204,0.02238
5137.44051,0.04181
5139.36898,0.07476
5141.29745,0.09853
5143.22591,0.10295
5145.15438,0.06971
5147.08285,0.02318
5149.01132,0.02414
5150.93979,0.05498
5152.86826,0.06511
5154.79673,0.05458
5156.72519,0.03608
5158.65366,0.02241
5160.58213,0.01591
5162.51060,0.01706
5164.43907,0.03966
5166.36754,0.06605
5168.29601,0.07381
5170.22448,0.06314
5172.15294,0.03774
5174.08141,0.01826
5176.00988,0.01932
5177.93835,0.02446
5179.86682,0.02064
5181.79529,0.01598
5183.72376,0.01241
5185.65222,0.00732
5187.58069,0.01212
5189.50916,0.02808
5191.43763,0.03350
5193.36610,0.02275
5195.29457,0.02148
5197.22304,0.03209
5199.15151,0.03354
5201.07997,0.04027
5203.00844,0.05842
5204.93691,0.05212
5206.86538,0.02390
5208.79385,0.01347
5210.72232,0.01241
5212.65079,0.01298
5214.57925,0.02175
5216.50772,0.03402
5218.43619,0.05185
5220.36466,0.07486
5222.29313,0.08462
5224.22160,0.06894
5226.15007,0.04936
5228.07854,0.04316
5230.00700,0.02921
5231.93547,0.01969
5233.86394,0.04069
5235.79241,0.06075
5237.72088,0.06090
5239.64935,0.06232
5241.57782,0.06023
5243.50628,0.05139
5245.43475,0.05227
5247.36322,0.05467
5249.29169,0.04496
5251.22016,0.03212
5253.14863,0.03691
5255.07710,0.05972
5257.00556,0.06726
5258.93403,0.04525
5260.86250,0.02350
5262.79097,0.02429
5264.71944,0.03440
5266.64791,0.04171
5268.57638,0.04449
5270.50485,0.04205
5272.43331,0.04434
5274.36178,0.06010
5276.29025,0.06521
5278.21872,0.04788
5280.14719,0.04597
5282.07566,0.05189
5284.00413,0.02819
5285.93259,-0.00094
5287.86106,0.00082
5289.78953,0.02979
5291.71800,0.04609
5293.64647,0.02134
5295.57494,0.02404
5297.50341,0.11252
5299.43188,0.19678
5301.36034,0.18148
5303.28881,0.10623
5305.21728,0.05739
5307.14575,0.04775
5309.07422,0.02721
5311.00269,0.00795
5312.93116,0.01480
5314.85962,0.02261
5316.78809,0.02807
5318.71656,0.02906
5320.64503,0.02372
5322.57350,0.03301
5324.50197,0.06047
5326.43044,0.08956
5328.35891,0.09862
5330.28737,0.08155
5332.21584,0.05997
5334.14431,0.04771
5336.07278,0.03810
5338.00125,0.03180
5339.92972,0.03694
5341.85819,0.03975
5343.78665,0.02330
5345.71512,0.00814
5347.64359,0.01436
5349.57206,0.02970
5351.50053,0.05556
5353.42900,0.08272
5355.35747,0.08104
5357.28594,0.05873
5359.21440,0.04887
5361.14287,0.05884
5363.07134,0.05715
5364.99981,0.03857
5366.92828,0.03631
5368.85675,0.04621
5370.78522,0.05685
5372.71368,0.07012
5374.64215,0.09031
5376.57062,0.12020
5378.49909,0.12473
5380.42756,0.09216
5382.35603,0.04963
5384.28450,0.02941
5386.21297,0.04544
5388.14143,0.06023
5390.06990,0.05761
5391.99837,0.06454
5393.92684,0.07675
5395.85531,0.05651
5397.78378,0.02416
5399.71225,0.02138
5401.64071,0.04976
5403.56918,0.08991
5405.49765,0.11888
5407.42612,0.12342
5409.35459,0.11037
5411.28306,0.10458
5413.21153,0.09396
5415.13999,0.05966
5417.06846,0.03845
5418.99693,0.03431
5420.92540,0.03044
5422.85387,0.03496
5424.78234,0.04719
5426.71081,0.05029
5428.63928,0.04174
5430.56774,0.04130
5432.49621,0.05243
5434.42468,0.05262
5436.35315,0.03921
5438.28162,0.04048
5440.21009,0.05207
5442.13856,0.04586
5444.06702,0.03940
5445.99549,0.06008
5447.92396,0.08682
5449.85243,0.08863
5451.78090,0.07791
5453.70937,0.07427
5455.63784,0.05812
5457.56631,0.04000
5459.49477,0.05396
5461.42324,0.06295
5463.35171,0.04700
5465.28018,0.03506
5467.20865,0.04264
5469.13712,0.06643
5471.06559,0.07277
5472.99405,0.05334
5474.92252,0.04747
5476.85099,0.06341
5478.77946,0.06894
5480.70793,0.05569
5482.63640,0.03923
5484.56487,0.05433
5486.49334,0.10996
5488.42180,0.15443
5490.35027,0.14120
5492.27874,0.08704
5494.20721,0.03928
5496.13568,0.01211
5498.06415,-0.00118
5499.99262,0.01130
5501.92108,0.03727
5503.84955,0.04455
5505.77802,0.04248
5507.70649,0.04949
5509.63496,0.06175
5511.56343,0.07779
5513.49190,0.08486
5515.42037,0.07273
5517.34883,0.05762
5519.27730,0.05134
5521.20577,0.05181
5523.13424,0.05643
5525.06271,0.05781
5526.99118,0.05644
5528.91965,0.06561
5530.84811,0.07420
5532.77658,0.07641
5534.70505,0.08124
5536.63352,0.07009
5538.56199,0.04905
5540.49046,0.05033
5542.41893,0.07506
5544.34740,0.09508
5546.27586,0.08775
5548.20433,0.05986
5550.13280,0.03246
5552.06127,0.02079
5553.98974,0.02037
5555.91821,0.02386
5557.84668,0.03094
5559.77514,0.03092
5561.70361,0.02636
5563.63208,0.03593
5565.56055,0.06984
5567.48902,0.11406
5569.41749,0.14721
5571.34596,0.15285
5573.27443,0.12228
5575.20289,0.07604
5577.13136,0.04097
5579.05983,0.03634
5580.98830,0.05532
5582.91677,0.07001
5584.84524,0.08650
5586.77371,0.10427
5588.70217,0.10308
5590.63064,0.08812
5592.55911,0.07511
5594.48758,0.06551
5596.41605,0.06277
5598.34452,0.07972
5600.27299,0.11573
5602.20145,0.13873
5604.12992,0.12305
5606.05839,0.09079
5607.98686,0.06532
5609.91533,0.04617
5611.84380,0.02293
5613.77227,-0.02613
5615.70074,-0.07653
5617.62920,-0.05765
5619.55767,0.02908
5621.48614,0.08744
5623.41461,0.07504
5625.34308,0.03914
5627.27155,0.02383
5629.20002,0.03245
5631.12848,0.02941
5633.05695,0.02473
5634.98542,0.05873
5636.91389,0.09361
5638.84236,0.09278
5640.77083,0.07375
5642.69930,0.04867
5644.62777,0.02462
5646.55623,0.01044
5648.48470,0.01861
5650.41317,0.03689
5652.34164,0.03807
5654.27011,0.02711
5656.19858,0.02199
5658.12705,0.02696
5660.05551,0.03632
5661.98398,0.05074
5663.91245,0.06992
5665.84092,0.09334
5667.76939,0.11268
5669.69786,0.10117
5671.62633,0.07817
5673.55480,0.07026
5675.48326,0.05935
5677.41173,0.07084
5679.34020,0.11446
5681.26867,0.13141
5683.19714,0.11325
5685.12561,0.09665
5687.05408,0.08479
5688.98254,0.06077
5690.91101,0.05111
5692.83948,0.09296
5694.76795,0.13643
5696.69642,0.12287
5698.62489,0.09499
5700.55336,0.09346
5702.48183,0.08741
5704.41029,0.07517
5706.33876,0.08288
5708.26723,0.08578
5710.19570,0.07256
5712.12417,0.08743
5714.05264,0.10768
5715.98111,0.08546
5717.90957,0.06187
5719.83804,0.06092
5721.76651,0.06613
5723.69498,0.07067
5725.62345,0.05793
5727.55192,0.04690
5729.48039,0.07204
5731.40886,0.09565
5733.33732,0.10276
5735.26579,0.11333
5737.19426,0.08382
5739.12273,0.02679
5741.05120,0.01381
5742.97967,0.02725
5744.90814,0.04401
5746.83660,0.07712
5748.76507,0.10566
5750.69354,0.10274
5752.62201,0.08479
5754.55048,0.07366
5756.47895,0.06817
5758.40742,0.05388
5760.33588,0.04364
5762.26435,0.06293
5764.19282,0.06541
5766.12129,0.03251
5768.04976,0.03178
5769.97823,0.06834
5771.90670,0.08947
5773.83517,0.09463
5775.76363,0.11540
5777.69210,0.15295
5779.62057,0.18178
5781.54904,0.16132
5783.47751,0.08350
5785.40598,0.01461
5787.33445,0.01346
5789.26291,0.04566
5791.19138,0.06478
5793.11985,0.05547
5795.04832,0.03791
5796.97679,0.04396
5798.90526,0.04845
5800.83373,0.05651
5802.76220,0.07562
5804.69066,0.07008
5806.61913,0.05930
5808.54760,0.05474
5810.47607,0.04538
5812.40454,0.06353
5814.33301,0.10319
5816.26148,0.10704
5818.18994,0.06877
5820.11841,0.02489
5822.04688,0.01366
5823.97535,0.05475
5825.90382,0.11426
5827.83229,0.13321
5829.76076,0.09219
5831.68923,0.05205
5833.61769,0.05284
5835.54616,0.06868
5837.47463,0.08003
5839.40310,0.08379
5841.33157,0.07101
5843.26004,0.05567
5845.18851,0.07996
5847.11697,0.11841
5849.04544,0.10919
5850.97391,0.07075
5852.90238,0.05525
5854.83085,0.06558
5856.75932,0.07567
5858.68779,0.06426
5860.61626,0.03613
5862.54472,0.02936
5864.47319,0.05467
5866.40166,0.06925
5868.33013,0.06712
5870.25860,0.07179
5872.18707,0.06120
5874.11554,0.03398
5876.04400,0.04168
5877.97247,0.07470
5879.90094,0.08085
5881.82941,0.07938
5883.75788,0.09678
5885.68635,0.09750
5887.61482,0.07594
5889.54329,0.06793
5891.47175,0.06337
5893.40022,0.04095
5895.32869,0.01357
5897.25716,0.01134
5899.18563,0.03656
5901.11410,0.05216
5903.04257,0.04693
5904.97103,0.05524
5906.89950,0.07754
5908.82797,0.07601
5910.75644,0.05749
5912.68491,0.05563
5914.61338,0.05918
5916.54185,0.05047
5918.47032,0.07376
5920.39878,0.13247
5922.32725,0.15186
5924.25572,0.12207
5926.18419,0.09585
5928.11266,0.10806
5930.04113,0.13296
5931.96960,0.12638
5933.89806,0.10878
5935.82653,0.12695
5937.75500,0.15442
5939.68347,0.13959
5941.61194,0.10038
5943.54041,0.07977
5945.46888,0.08434
5947.39734,0.09902
5949.32581,0.10679
5951.25428,0.08614
5953.18275,0.04300
5955.11122,0.02505
5957.03969,0.03792
5958.96816,0.04164
5960.89663,0.03154
5962.82509,0.03138
5964.75356,0.03025
5966.68203,0.01515
5968.61050,0.01220
5970.53897,0.03379
5972.46744,0.06120
5974.39591,0.08504
5976.32437,0.09582
5978.25284,0.08557
5980.18131,0.08149
5982.10978,0.07138
5984.03825,0.02032
5985.96672,0.00031
5987.89519,0.04106
5989.82366,0.06923
5991.75212,0.07801
5993.68059,0.07680
5995.60906,0.06464
5997.53753,0.06526
5999.46600,0.07382
6001.39447,0.06136
6003.32294,0.03191
6005.25140,0.01423
6007.17987,0.00290
6009.10834,0.01368
6011.03681,0.05267
6012.96528,0.05489
6014.89375,0.00568
6016.82222,-0.03090
6018.75069,-0.01543
6020.67915,-0.00265
6022.60762,-0.02151
6024.53609,-0.01143
6026.46456,0.03588
6028.39303,0.07389
6030.32150,0.08277
6032.24997,0.05931
6034.17843,0.01525
6036.10690,0.00652
6038.03537,0.04120
6039.96384,0.05219
6041.89231,0.04126
6043.82078,0.03977
6045.74925,0.01233
6047.67772,-0.01955
6049.60618,0.01075
6051.53465,0.05657
6053.46312,0.07623
6055.39159,0.09037
6057.32006,0.10107
6059.24853,0.12560
6061.17700,0.16650
6063.10546,0.17381
6065.03393,0.11090
6066.96240,0.02284
6068.89087,-0.00877
6070.81934,0.05314
6072.74781,0.13506
6074.67628,0.13356
6076.60475,0.08865
6078.53321,0.07122
6080.46168,0.03609
6082.39015,-0.01404
6084.31862,-0.01674
6086.24709,0.02657
6088.17556,0.09830
6090.10403,0.15680
6092.03249,0.13427
6093.96096,0.07253
6095.88943,0.05346
6097.81790,0.07121
6099.74637,0.10044
6101.67484,0.11271
6103.60331,0.09755
6105.53177,0.07846
6107.46024,0.05840
6109.38871,0.06704
6111.31718,0.12531
6113.24565,0.17657
6115.17412,0.19032
6117.10259,0.16319
6119.03106,0.10346
6120.95952,0.05747
6122.88799,0.04474
6124.81646,0.04365
6126.74493,0.03731
6128.67340,0.05814
6130.60187,0.10747
6132.53034,0.11136
6134.45880,0.07691
6136.38727,0.08082
6138.31574,0.09202
6140.24421,0.04274
6142.17268,0.00117
6144.10115,0.04089
6146.02962,0.10126
6147.95809,0.11507
6149.88655,0.11300
6151.81502,0.13777
6153.74349,0.17227
6155.67196,0.19593
6157.60043,0.19027
6159.52890,0.17087
6161.45737,0.17228
6163.38583,0.16100
6165.31430,0.08973
6167.24277,-0.00613
6169.17124,-0.04639
6171.09971,-0.03111
6173.02818,-0.01627
6174.95665,0.00119
6176.88512,0.02765
6178.81358,0.04553
6180.74205,0.05335
6182.67052,0.06305
6184.59899,0.09595
6186.52746,0.13040
6188.45593,0.09441
6190.38440,-0.00399
6192.31286,-0.06335
6194.24133,-0.05262
6196.16980,-0.02976
6198.09827,-0.01443
6200.02674,0.03689
6201.95521,0.11482
6203.88368,0.14717
6205.81215,0.12305
6207.74061,0.09881
6209.66908,0.09968
6211.59755,0.11646
6213.52602,0.11902
6215.45449,0.10123
6217.38296,0.07402
6219.31143,0.06215
6221.23989,0.08557
6223.16836,0.11921
6225.09683,0.12486
6227.02530,0.09742
6228.95377,0.09649
6230.88224,0.16364
6232.81071,0.21360
6234.73918,0.18532
6236.66764,0.13484
6238.59611,0.10729
6240.52458,0.10044
6242.45305,0.06375
6244.38152,0.01244
6246.30999,0.02595
6248.23846,0.07290
6250.16692,0.09336
6252.09539,0.09645
6254.02386,0.10020
6255.95233,0.10949
6257.88080,0.11698
6259.80927,0.10904
6261.73774,0.08078
6263.66621,0.03037
6265.59467,-0.02299
6267.52314,-0.02201
6269.45161,0.03229
6271.38008,0.07166
6273.30855,0.06318
6275.23702,0.06130
6277.16549,0.09989
6279.09395,0.08196
6281.02242,0.01334
6282.95089,0.02342
6284.87936,0.09018
6286.80783,0.09382
6288.73630,0.06102
6290.66477,0.07284
6292.59323,0.10106
6294.52170,0.10573
6296.45017,0.10297
6298.37864,0.09152
6300.30711,0.04468
6302.23558,-0.01950
6304.16405,-0.02604
6306.09252,0.01307
6308.02098,0.02420
6309.94945,-0.02165
6311.87792,-0.08045
6313.80639,-0.06139
6315.73486,0.02063
6317.66333,0.03727
6319.59180,-0.03597
6321.52026,-0.08104
6323.44873,-0.06480
6325.37720,-0.06577
6327.30567,-0.08479
6329.23414,-0.07783
6331.16261,-0.03855
6333.09108,0.02203
6335.01955,0.04446
6336.94801,0.01605
6338.87648,0.04423
6340.80495,0.12589
6342.73342,0.15327
6344.66189,0.10488
6346.59036,0.00315
6348.51883,-0.07596
6350.44729,-0.04731
6352.37576,0.05670
6354.30423,0.13325
6356.23270,0.16636
6358.16117,0.18095
6360.08964,0.17094
6362.01811,0.13317
6363.94658,0.08708
6365.87504,0.06334
6367.80351,0.08231
6369.73198,0.12153
6371.66045,0.14491
6373.58892,0.13503
6375.51739,0.09389
6377.44586,0.04841
6379.37432,0.06355
6381.30279,0.12790
6383.23126,0.14692
6385.15973,0.12890
6387.08820,0.13143
6389.01667,0.14042
6390.94514,0.16123
6392.87361,0.19745
6394.80207,0.19758
6396.73054,0.14218
6398.65901,0.07536
6400.58748,0.01304
6402.51595,-0.02225
6404.44442,0.00822
6406.37289,0.04122
6408.30135,0.01122
6410.22982,-0.00131
6412.15829,0.05517
6414.08676,0.10330
6416.01523,0.11981
6417.94370,0.13061
6419.87217,0.10054
6421.80064,0.06181
6423.72910,0.07217
6425.65757,0.11250
6427.58604,0.14245
6429.51451,0.11624
6431.44298,0.04688
6433.37145,0.00643
6435.29992,-0.02527
6437.22838,-0.05186
6439.15685,-0.00307
6441.08532,0.05720
6443.01379,0.03997
6444.94226,0.01167
6446.87073,0.04097
6448.79920,0.08062
6450.72766,0.09325
6452.65613,0.09293
6454.58460,0.04802
6456.51307,-0.04930
6458.44154,-0.07720
6460.37001,-0.01508
6462.29848,0.01538
6464.22695,0.02483
6466.15541,0.09226
6468.08388,0.14569
6470.01235,0.10794
6471.94082,0.03430
6473.86929,0.01759
6475.79776,0.06521
6477.72623,0.09416
6479.65469,0.10218
6481.58316,0.11379
6483.51163,0.08140
6485.44010,0.04743
6487.36857,0.05691
6489.29704,0.03644
6491.22551,-0.03508
6493.15398,-0.06278
6495.08244,-0.03425
6497.01091,-0.00792
6498.93938,0.02495
6500.86785,0.08642
6502.79632,0.12833
6504.72479,0.12056
6506.65326,0.09925
6508.58172,0.06956
6510.51019,0.02539
6512.43866,0.01026
6514.36713,0.02576
6516.29560,0.01825
6518.22407,0.00691
6520.15254,0.02286
6522.08101,0.05324
6524.00947,0.08997
6525.93794,0.11131
6527.86641,0.08653
6529.79488,0.01928
6531.72335,-0.02246
6533.65182,0.00653
6535.58029,0.05168
6537.50875,0.06028
6539.43722,0.00472
6541.36569,-0.08593
6543.29416,-0.09816
6545.22263,-0.02634
6547.15110,0.04594
6549.07957,0.12862
6551.00804,0.19990
6552.93650,0.19100
6554.86497,0.10582
6556.79344,-0.01047
6558.72191,-0.07932
6560.65038,-0.06295
6562.57885,-0.02847
6564.50732,-0.02251
6566.43578,-0.01526
6568.36425,0.00447
6570.29272,0.02312
6572.22119,0.06885
6574.14966,0.12479
6576.07813,0.12618
6578.00660,0.09687
6579.93507,0.08986
6581.86353,0.08036
6583.79200,0.06351
6585.72047,0.07782
6587.64894,0.09835
6589.57741,0.08755
6591.50588,0.07432
6593.43435,0.07126
6595.36281,0.05628
6597.29128,0.04031
6599.21975,0.01549
6601.14822,-0.00752
6603.07669,-0.00492
6605.00516,-0.01990
6606.93363,-0.06184
6608.86210,-0.08217
6610.79056,-0.05847
6612.71903,-0.02726
6614.64750,0.00747
6616.57597,0.07505
6618.50444,0.13204
6620.43291,0.12040
6622.36138,0.04607
6624.28984,-0.00192
6626.21831,0.03552
6628.14678,0.10979
6630.07525,0.18026
6632.00372,0.24159
6633.93219,0.23945
6635.86066,0.16379
6637.78912,0.12366
6639.71759,0.10583
6641.64606,0.07786
6643.57453,0.09431
6645.50300,0.10669
6647.43147,0.03895
6649.35994,-0.02977
6651.28841,-0.01079
6653.21687,0.03426
6655.14534,0.03742
6657.07381,0.01386
6659.00228,-0.04014
6660.93075,-0.03429
6662.85922,0.05598
6664.78769,0.06693
6666.71615,0.02068
6668.64462,0.06096
6670.57309,0.14493
6672.50156,0.15793
6674.43003,0.09948
6676.35850,0.04790
6678.28697,0.03864
6680.21544,0.05028
6682.14390,0.08738
6684.07237,0.15099
6686.00084,0.14968
6687.92931,0.07161
6689.85778,0.05965
6691.78625,0.11972
6693.71472,0.13538
6695.64318,0.08244
6697.57165,0.04902
6699.50012,0.11451
6701.42859,0.20514
6703.35706,0.18838
6705.28553,0.06790
6707.21400,-0.00914
6709.14247,0.03359
6711.07093,0.12828
6712.99940,0.19284
6714.92787,0.19759
6716.85634,0.15898
6718.78481,0.11647
6720.71328,0.10489
6722.64175,0.12379
6724.57021,0.15205
6726.49868,0.12636
6728.42715,0.00593
6730.35562,-0.10607
6732.28409,-0.08927
6734.21256,-0.01294
6736.14103,0.01734
6738.06950,0.02060
6739.99796,0.01806
6741.92643,0.01512
6743.85490,0.07724
6745.78337,0.16013
6747.71184,0.11979
6749.64031,0.01323
6751.56878,0.02982
6753.49724,0.05864
6755.42571,-0.01273
6757.35418,0.00928
6759.28265,0.13444
6761.21112,0.12354
6763.13959,0.02601
6765.06806,-0.00663
6766.99653,-0.02240
6768.92499,-0.05121
6770.85346,-0.04847
6772.78193,-0.00038
6774.71040,0.05265
6776.63887,0.10328
6778.56734,0.14457
6780.49581,0.14368
6782.42427,0.14637
6784.35274,0.17201
6786.28121,0.16545
6788.20968,0.18390
6790.13815,0.28221
6792.06662,0.32488
6793.99509,0.26368
6795.92355,0.21108
6797.85202,0.16876
6799.78049,0.10664
6801.70896,0.06812
6803.63743,0.06422
6805.56590,0.04553
6807.49437,0.00752
6809.42284,-0.00317
6811.35130,0.07064
6813.27977,0.16153
6815.20824,0.15919
6817.13671,0.11504
6819.06518,0.08158
6820.99365,0.04964
6822.92212,0.03434
6824.85058,0.04264
6826.77905,0.05449
6828.70752,0.05397
6830.63599,0.05285
6832.56446,0.07031
6834.49293,0.10135
6836.42140,0.09337
6838.34987,0.00380
6840.27833,-0.09862
6842.20680,-0.12572
6844.13527,-0.03969
6846.06374,0.07965
6847.99221,0.10690
6849.92068,0.04928
6851.84915,-0.01403
6853.77761,-0.05290
6855.70608,-0.03980
6857.63455,0.05259
6859.56302,0.19341
6861.49149,0.22133
6863.41996,0.10661
6865.34843,0.04643
6867.27690,0.03780
6869.20536,-0.00283
6871.13383,-0.02172
6873.06230,0.02412
6874.99077,0.06319
6876.91924,0.02890
6878.84771,-0.04264
6880.77618,-0.04861
6882.70464,0.05111
6884.63311,0.14822
6886.56158,0.17667
6888.49005,0.19532
6890.41852,0.20644
6892.34699,0.17672
6894.27546,0.14915
6896.20393,0.08599
6898.13239,-0.01680
6900.06086,-0.02061
6901.98933,0.06280
6903.91780,0.09369
6905.84627,0.01251
6907.77474,-0.03369
6909.70321,-0.00542
6911.63167,-0.03804
6913.56014,-0.10665
6915.48861,-0.10010
6917.41708,-0.03233
6919.34555,0.06875
6921.27402,0.17602
6923.20249,0.19370
6925.13096,0.10599
6927.05942,0.03694
6928.98789,0.03565
6930.91636,0.02928
6932.84483,-0.01604
6934.77330,-0.03406
6936.70177,-0.02543
6938.63024,-0.03667
6940.55870,-0.05157
6942.48717,-0.06937
6944.41564,-0.09574
6946.34411,-0.13265
6948.27258,-0.21098
6950.20105,-0.23400
6952.12952,-0.12655
6954.05799,-0.08159
6955.98645,-0.19153
6957.91492,-0.23941
6959.84339,-0.20900
6961.77186,-0.17635
6963.70033,-0.12287
6965.62880,-0.06248
6967.55727,-0.02377
6969.48573,0.02707
6971.41420,0.17185
6973.34267,0.32000
6975.27114,0.25670
6977.19961,0.09399
6979.12808,-0.00490
6981.05655,-0.06064
6982.98501,-0.02390
6984.91348,0.12436
6986.84195,0.24771
6988.77042,0.24304
6990.69889,0.17033
6992.62736,0.17751
6994.55583,0.24754
6996.48430,0.21207
6998.41276,0.02917
7000.34123,-0.11516
7002.26970,-0.08550
7004.19817,0.04367
7006.12664,0.12690
7008.05511,0.12473
7009.98358,0.10895
7011.91204,0.09847
7013.84051,0.08181
7015.76898,0.06807
7017.69745,0.04999
7019.62592,0.05899
7021.55439,0.10513
7023.48286,0.13439
7025.41133,0.10994
7027.33979,0.08619
7029.26826,0.15903
7031.19673,0.19346
7033.12520,0.11258
7035.05367,0.04942
7036.98214,-0.00440
7038.91061,-0.07880
7040.83907,-0.07390
7042.76754,0.09414
7044.69601,0.28691
7046.62448,0.27606
7048.55295,0.07423
7050.48142,-0.08105
7052.40989,-0.08067
7054.33836,-0.04595
7056.26682,-0.05757
7058.19529,-0.06739
7060.12376,-0.06269
7062.05223,-0.10368
7063.98070,-0.19950
7065.90917,-0.21018
7067.83764,-0.10592
7069.76610,0.01364
7071.69457,0.06233
7073.62304,0.02613
7075.55151,-0.01498
7077.47998,-0.05632
7079.40845,-0.11582
7081.33692,-0.04561
7083.26539,0.16284
7085.19385,0.29304
7087.12232,0.30566
7089.05079,0.29605
7090.97926,0.29531
7092.90773,0.16988
7094.83620,-0.01201
7096.76467,-0.04503
7098.69313,-0.00491
7100.62160,0.00131
7102.55007,0.06440
7104.47854,0.17984
7106.40701,0.22169
7108.33548,0.14817
7110.26395,0.08143
7112.19242,0.09934
7114.12088,0.15464
7116.04935,0.17845
7117.97782,0.16112
7119.90629,0.15316
7121.83476,0.14977
7123.76323,0.14878
7125.69170,0.18955
7127.62016,0.21759
7129.54863,0.17965
7131.47710,0.13931
7133.40557,0.12682
7135.33404,0.08878
7137.26251,-0.00313
7139.19098,-0.10224
7141.11944,-0.05593
7143.04791,0.15509
7144.97638,0.27454
7146.90485,0.17425
7148.83332,0.03362
7150.76179,-0.00534
7152.69026,0.06020
7154.61873,0.10371
7156.54719,0.06923
7158.47566,0.01869
7160.40413,0.03821
7162.33260,0.13024
7164.26107,0.18048
7166.18954,0.19306
7168.11801,0.19597
7170.04647,0.17208
7171.97494,0.19193
7173.90341,0.19955
7175.83188,0.13565
7177.76035,0.13215
7179.68882,0.19572
7181.61729,0.20214
7183.54576,0.12625
7185.47422,0.09079
7187.40269,0.17776
7189.33116,0.26279
7191.25963,0.21505
7193.18810,0.11226
7195.11657,0.05548
7197.04504,0.01287
7198.97350,-0.05455
7200.90197,-0.07799
7202.83044,0.00741
7204.75891,0.10675
7206.68738,0.06770
7208.61585,0.00812
7210.54432,0.00604
7212.47279,0.01503
7214.40125,0.02468
7216.32972,-0.00337
7218.25819,-0.02373
7220.18666,0.07336
7222.11513,0.15609
7224.04360,0.26678
7225.97207,0.41215
7227.90053,0.44249
7229.82900,0.37553
7231.75747,0.18852
7233.68594,-0.00119
7235.61441,-0.04704
7237.54288,-0.05957
7239.47135,-0.10492
7241.39982,-0.11299
7243.32828,-0.03246
7245.25675,0.09221
7247.18522,0.16658
7249.11369,0.14532
7251.04216,0.04233
7252.97063,-0.04107
7254.89910,0.01901
7256.82756,0.10794
7258.75603,0.15909
7260.68450,0.21184
7262.61297,0.29351
7264.54144,0.38388
7266.46991,0.37951
7268.39838,0.27582
7270.32685,0.18532
7272.25531,0.17843
7274.18378,0.18215
7276.11225,0.12287
7278.04072,0.00935
7279.96919,-0.15263
7281.89766,-0.24183
7283.82613,-0.18682
7285.75459,-0.11794
7287.68306,-0.04493
7289.61153,0.16217
7291.54000,0.33961
7293.46847,0.24963
7295.39694,0.08864
7297.32541,0.03593
7299.25387,0.04012
7301.18234,0.09951
7303.11081,0.16477
7305.03928,0.09838
7306.96775,0.00174
7308.89622,-0.01355
7310.82469,-0.02888
7312.75316,0.00771
7314.68162,0.14220
7316.61009,0.27076
7318.53856,0.17923
7320.46703,0.02558
7322.39550,0.03877
7324.32397,0.15803
7326.25244,0.22490
7328.18090,0.22285
7330.10937,0.09377
7332.03784,-0.09287
7333.96631,-0.11465
7335.89478,-0.03812
7337.82325,0.00404
7339.75172,0.08898
7341.68019,0.31312
7343.60865,0.48707
7345.53712,0.39188
7347.46559,0.03056
7349.39406,-0.22924
7351.32253,-0.15647
7353.25100,0.02306
7355.17947,-0.02927
7357.10793,-0.25324
7359.03640,-0.20489
7360.96487,0.13383
7362.89334,0.36297
7364.82181,0.39777
7366.75028,0.27639
7368.67875,0.10155
7370.60722,-0.07684
7372.53568,-0.23639
7374.46415,-0.20170
7376.39262,0.01027
7378.32109,0.12310
7380.24956,0.22883
7382.17803,0.39731
7384.10650,0.47508
7386.03496,0.33046
7387.96343,0.22118
7389.89190,0.25751
7391.82037,0.20354
7393.74884,0.10148
7395.67731,0.12120
7397.60578,0.16589
7399.53425,0.11496
7401.46271,0.00515
7403.39118,-0.04409
7405.31965,0.10550
7407.24812,0.28472
7409.17659,0.27700
7411.10506,0.13412
7413.03353,0.00412
7414.96199,-0.06845
7416.89046,-0.03214
7418.81893,0.17137
7420.74740,0.28390
7422.67587,0.19311
7424.60434,0.11144
7426.53281,0.06086
7428.46128,-0.04852
7430.38974,-0.20455
7432.31821,-0.21674
7434.24668,0.03588
7436.17515,0.39127
7438.10362,0.47944
7440.03209,0.23224
7441.96056,-0.03424
7443.88902,0.00553
7445.81749,0.28896
7447.74596,0.49559
7449.67443,0.50931
7451.60290,0.39841
7453.53137,0.26254
7455.45984,0.19666
7457.38831,0.15238
7459.31677,0.04711
7461.24524,0.02809
7463.17371,0.18785
7465.10218,0.29781
7467.03065,0.21438
7468.95912,0.05833
7470.88759,-0.02042
7472.81605,0.02725
7474.74452,0.08452
7476.67299,0.10080
7478.60146,0.20929
7480.52993,0.43224
7482.45840,0.50369
7484.38687,0.32487
7486.31533,0.07864
7488.24380,-0.14157
7490.17227,-0.32596
7492.10074,-0.37471
7494.02921,-0.25265
7495.95768,-0.11339
7497.88615,-0.08905
