399.19301,-0.76367
401.12148,-0.31697
403.04995,-0.08340
404.97842,0.01436
406.90689,0.06107
408.83536,0.08368
410.76382,0.12037
412.69229,0.13528
414.62076,0.10026
416.54923,0.01502
418.47770,-0.05405
420.40617,0.01039
422.33464,0.08408
424.26311,0.08816
426.19157,0.06310
428.12004,0.08900
430.04851,0.14379
431.97698,0.14499
433.90545,0.11968
435.83392,0.09221
437.76239,0.08854
439.69085,0.11692
441.61932,0.12249
443.54779,0.08736
445.47626,0.03928
447.40473,0.05198
449.33320,0.13610
451.26167,0.16735
453.19013,0.12564
455.11860,0.06115
457.04707,0.02928
458.97554,0.07271
460.90401,0.10218
462.83248,0.08526
464.76095,0.07342
466.68942,0.07323
468.61788,0.08377
470.54635,0.13545
472.47482,0.22381
474.40329,0.20462
476.33176,0.10522
478.26023,0.08100
480.18870,0.08598
482.11716,0.06051
484.04563,0.00766
485.97410,-0.00373
487.90257,0.02925
489.83104,0.05677
491.75951,0.06724
493.68798,0.06374
495.61645,0.04610
497.54491,0.02217
499.47338,0.00889
501.40185,0.00656
503.33032,0.02046
505.25879,0.04625
507.18726,0.06864
509.11573,0.09757
511.04419,0.12450
512.97266,0.15136
514.90113,0.17351
516.82960,0.13811
518.75807,0.07591
520.68654,0.07317
522.61501,0.10948
524.54348,0.11458
526.47194,0.09161
528.40041,0.10082
530.32888,0.11815
532.25735,0.10836
534.18582,0.09778
536.11429,0.11155
538.04276,0.13649
539.97122,0.13417
541.89969,0.10369
543.82816,0.08477
545.75663,0.08885
547.68510,0.09868
549.61357,0.08052
551.54204,0.01796
553.47051,-0.02984
555.39897,-0.00408
557.32744,0.05168
559.25591,0.06573
561.18438,0.05767
563.11285,0.06424
565.04132,0.09049
566.96979,0.11810
568.89825,0.11375
570.82672,0.10392
572.75519,0.11083
574.68366,0.10454
576.61213,0.09249
578.54060,0.09695
580.46907,0.10491
582.39754,0.10768
584.32600,0.09799
586.25447,0.07188
588.18294,0.05376
590.11141,0.06199
592.03988,0.08282
593.96835,0.09535
595.89682,0.10108
597.82528,0.10500
599.75375,0.10051
601.68222,0.09117
603.61069,0.09159
605.53916,0.10345
607.46763,0.11902
609.39610,0.12810
611.32456,0.11744
613.25303,0.09918
615.18150,0.09441
617.10997,0.09899
619.03844,0.09689
620.96691,0.08513
622.89538,0.08065
624.82385,0.08825
626.75231,0.10317
628.68078,0.11773
630.60925,0.11894
632.53772,0.11101
634.46619,0.10635
636.39466,0.10933
638.32313,0.11395
640.25159,0.11623
642.18006,0.11408
644.10853,0.10648
646.03700,0.10414
647.96547,0.10716
649.89394,0.10604
651.82241,0.09859
653.75088,0.08869
655.67934,0.09237
657.60781,0.10749
659.53628,0.10693
661.46475,0.09529
663.39322,0.09860
665.32169,0.11334
667.25016,0.12201
669.17862,0.11579
671.10709,0.10838
673.03556,0.10651
674.96403,0.10655
676.89250,0.10366
678.82097,0.09770
680.74944,0.09560
682.67791,0.10431
684.60637,0.11241
686.53484,0.11015
688.46331,0.11235
690.39178,0.11848
692.32025,0.11616
694.24872,0.10956
696.17719,0.10835
698.10565,0.11285
700.03412,0.11456
701.96259,0.11625
703.89106,0.12020
705.81953,0.11777
707.74800,0.11193
709.67647,0.11304
711.60494,0.12161
713.53340,0.12841
715.46187,0.12678
717.39034,0.12116
719.31881,0.11680
721.24728,0.11442
723.17575,0.11322
725.10422,0.11448
727.03268,0.11772
728.96115,0.11974
730.88962,0.12419
732.81809,0.12680
734.74656,0.11823
736.67503,0.11281
738.60350,0.11907
740.53197,0.12222
742.46043,0.11950
744.38890,0.11983
746.31737,0.11962
748.24584,0.11415
750.17431,0.11364
752.10278,0.12105
754.03125,0.12552
755.95971,0.12528
757.88818,0.12434
759.81665,0.12405
761.74512,0.12515
763.67359,0.12672
765.60206,0.12158
767.53053,0.10783
769.45900,0.10009
771.38746,0.10235
773.31593,0.10783
775.24440,0.11534
777.17287,0.12097
779.10134,0.12502
781.02981,0.12500
782.95828,0.12073
784.88674,0.12134
786.81521,0.12089
788.74368,0.11742
790.67215,0.11877
792.60062,0.11887
794.52909,0.11499
796.45756,0.11464
798.38602,0.11791
800.31449,0.11849
802.24296,0.11374
804.17143,0.10450
806.09990,0.09767
808.02837,0.09776
809.95684,0.09836
811.88531,0.10085
813.81377,0.10183
815.74224,0.09644
817.67071,0.09821
819.59918,0.10592
821.52765,0.11186
823.45612,0.11642
825.38459,0.11591
827.31305,0.11670
829.24152,0.12083
831.16999,0.11928
833.09846,0.11299
835.02693,0.11043
836.95540,0.11294
838.88387,0.11373
840.81234,0.11244
842.74080,0.11356
844.66927,0.11824
846.59774,0.12328
848.52621,0.12731
850.45468,0.13273
852.38315,0.13704
854.31162,0.13814
856.24008,0.13421
858.16855,0.12745
860.09702,0.12424
862.02549,0.12143
863.95396,0.11690
865.88243,0.11223
867.81090,0.11083
869.73937,0.11391
871.66783,0.11396
873.59630,0.11279
875.52477,0.11603
877.45324,0.12219
879.38171,0.12826
881.31018,0.13078
883.23865,0.12991
885.16711,0.12484
887.09558,0.11739
889.02405,0.11483
890.95252,0.12264
892.88099,0.13746
894.80946,0.14298
896.73793,0.13607
898.66640,0.12966
900.59486,0.12885
902.52333,0.13253
904.45180,0.13384
906.38027,0.13165
908.30874,0.13046
910.23721,0.12716
912.16568,0.12469
914.09414,0.12842
916.02261,0.13321
917.95108,0.13345
919.87955,0.13217
921.80802,0.13148
923.73649,0.13033
925.66496,0.13065
927.59343,0.13092
929.52189,0.13208
931.45036,0.13674
933.37883,0.13954
935.30730,0.13711
937.23577,0.13277
939.16424,0.13052
941.09271,0.12904
943.02117,0.12604
944.94964,0.12521
946.87811,0.12782
948.80658,0.12954
950.73505,0.13040
952.66352,0.13266
954.59199,0.13217
956.52045,0.12908
958.44892,0.13128
960.37739,0.13528
962.30586,0.13480
964.23433,0.13424
966.16280,0.13393
968.09127,0.13290
970.01974,0.13484
971.94820,0.13721
973.87667,0.13620
975.80514,0.13343
977.73361,0.13030
979.66208,0.12853
981.59055,0.13198
983.51902,0.13613
985.44748,0.13596
987.37595,0.13651
989.30442,0.13602
991.23289,0.13194
993.16136,0.13248
995.08983,0.14098
997.01830,0.14852
998.94677,0.14506
1000.87523,0.13492
1002.80370,0.12854
1004.73217,0.12696
1006.66064,0.12789
1008.58911,0.13139
1010.51758,0.13567
1012.44605,0.13478
1014.37451,0.13043
1016.30298,0.13144
1018.23145,0.13651
1020.15992,0.13810
1022.08839,0.13563
1024.01686,0.13517
1025.94533,0.13279
1027.87380,0.12475
1029.80226,0.12550
1031.73073,0.13639
1033.65920,0.14364
1035.58767,0.14483
1037.51614,0.14299
1039.44461,0.14208
1041.37308,0.14077
1043.30154,0.13516
1045.23001,0.12931
1047.15848,0.12975
1049.08695,0.13978
1051.01542,0.15233
1052.94389,0.15696
1054.87236,0.15488
1056.80083,0.15081
1058.72929,0.14447
1060.65776,0.14054
1062.58623,0.14624
1064.51470,0.15335
1066.44317,0.15284
1068.37164,0.14990
1070.30011,0.14349
1072.22857,0.13689
1074.15704,0.13963
1076.08551,0.14523
1078.01398,0.14542
1079.94245,0.14313
1081.87092,0.14263
1083.79939,0.14167
1085.72786,0.14061
1087.65632,0.14237
1089.58479,0.14277
1091.51326,0.13892
1093.44173,0.13384
1095.37020,0.13250
1097.29867,0.13586
1099.22714,0.14211
1101.15560,0.14923
1103.08407,0.15406
1105.01254,0.15580
1106.94101,0.15068
1108.86948,0.14004
1110.79795,0.13520
1112.72642,0.13755
1114.65489,0.14084
1116.58335,0.14436
1118.51182,0.14727
1120.44029,0.14848
1122.36876,0.15049
1124.29723,0.15260
1126.22570,0.15376
1128.15417,0.15372
1130.08263,0.14767
1132.01110,0.14027
1133.93957,0.14074
1135.86804,0.14325
1137.79651,0.14282
1139.72498,0.14350
1141.65345,0.14637
1143.58191,0.15178
1145.51038,0.15654
1147.43885,0.15558
1149.36732,0.15181
1151.29579,0.15010
1153.22426,0.14905
1155.15273,0.14862
1157.08120,0.15340
1159.00966,0.15809
1160.93813,0.15542
1162.86660,0.15179
1164.79507,0.14996
1166.72354,0.14662
1168.65201,0.14555
1170.58048,0.14932
1172.50894,0.15265
1174.43741,0.14980
1176.36588,0.14365
1178.29435,0.14052
1180.22282,0.14232
1182.15129,0.14768
1184.07976,0.15048
1186.00823,0.14925
1187.93669,0.14962
1189.86516,0.15080
1191.79363,0.14977
1193.72210,0.14922
1195.65057,0.15093
1197.57904,0.15214
1199.50751,0.15044
1201.43597,0.14643
1203.36444,0.14383
1205.29291,0.14510
1207.22138,0.14699
1209.14985,0.14693
1211.07832,0.14575
1213.00679,0.14671
1214.93526,0.15118
1216.86372,0.15402
1218.79219,0.15342
1220.72066,0.15238
1222.64913,0.15173
1224.57760,0.15230
1226.50607,0.15378
1228.43454,0.15413
1230.36300,0.15516
1232.29147,0.15734
1234.21994,0.15652
1236.14841,0.15342
1238.07688,0.15244
1240.00535,0.15390
1241.93382,0.15492
1243.86229,0.15486
1245.79075,0.15426
1247.71922,0.15219
1249.64769,0.15191
1251.57616,0.15585
1253.50463,0.15775
1255.43310,0.15506
1257.36157,0.15300
1259.29003,0.15364
1261.21850,0.15594
1263.14697,0.15756
1265.07544,0.15736
1267.00391,0.15782
1268.93238,0.15866
1270.86085,0.15961
1272.78932,0.16168
1274.71778,0.16316
1276.64625,0.16290
1278.57472,0.16083
1280.50319,0.15878
1282.43166,0.15925
1284.36013,0.16028
1286.28860,0.15837
1288.21706,0.15634
1290.14553,0.16103
1292.07400,0.16922
1294.00247,0.17078
1295.93094,0.16493
1297.85941,0.16034
1299.78788,0.16313
1301.71634,0.16786
1303.64481,0.16795
1305.57328,0.16578
1307.50175,0.16231
1309.43022,0.15923
1311.35869,0.16157
1313.28716,0.16647
1315.21563,0.16849
1317.14409,0.16861
1319.07256,0.16737
1321.00103,0.16253
1322.92950,0.15741
1324.85797,0.15678
1326.78644,0.15932
1328.71491,0.16198
1330.64337,0.16245
1332.57184,0.16055
1334.50031,0.16003
1336.42878,0.16473
1338.35725,0.17195
1340.28572,0.17361
1342.21419,0.17011
1344.14266,0.16448
1346.07112,0.15882
1347.99959,0.15931
1349.92806,0.16332
1351.85653,0.16506
1353.78500,0.16650
1355.71347,0.16789
1357.64194,0.16778
1359.57040,0.16924
1361.49887,0.17461
1363.42734,0.17691
1365.35581,0.17318
1367.28428,0.16967
1369.21275,0.16721
1371.14122,0.16817
1373.06969,0.17331
1374.99815,0.17356
1376.92662,0.16745
1378.85509,0.16381
1380.78356,0.16402
1382.71203,0.16700
1384.64050,0.17468
1386.56897,0.18352
1388.49743,0.18314
1390.42590,0.17750
1392.35437,0.17829
1394.28284,0.18426
1396.21131,0.18612
1398.13978,0.18354
1400.06825,0.17856
1401.99672,0.17412
1403.92518,0.17448
1405.85365,0.17427
1407.78212,0.17133
1409.71059,0.17198
1411.63906,0.17456
1413.56753,0.17696
1415.49600,0.18483
1417.42446,0.19991
1419.35293,0.20432
1421.28140,0.19210
1423.20987,0.18346
1425.13834,0.17833
1427.06681,0.17567
1428.99528,0.17770
1430.92375,0.17748
1432.85221,0.17615
1434.78068,0.18281
1436.70915,0.19067
1438.63762,0.18464
1440.56609,0.17514
1442.49456,0.17189
1444.42303,0.17491
1446.35149,0.18052
1448.27996,0.18381
1450.20843,0.18549
1452.13690,0.19074
1454.06537,0.20264
1455.99384,0.22247
1457.92231,0.22388
1459.85077,0.20014
1461.77924,0.18907
1463.70771,0.19075
1465.63618,0.19109
1467.56465,0.18705
1469.49312,0.19357
1471.42159,0.21563
1473.35006,0.23120
1475.27852,0.22024
1477.20699,0.20194
1479.13546,0.18991
1481.06393,0.18461
1482.99240,0.18210
1484.92087,0.18596
1486.84934,0.19976
1488.77780,0.21461
1490.70627,0.20998
1492.63474,0.19631
1494.56321,0.19630
1496.49168,0.20920
1498.42015,0.21208
1500.34862,0.20058
1502.27709,0.19558
1504.20555,0.20949
1506.13402,0.24784
1508.06249,0.25507
1509.99096,0.22065
1511.91943,0.20078
1513.84790,0.20094
1515.77637,0.21545
1517.70483,0.23282
1519.63330,0.24764
1521.56177,0.25417
1523.49024,0.23845
1525.41871,0.22004
1527.34718,0.20672
1529.27565,0.19850
1531.20412,0.20262
1533.13258,0.21462
1535.06105,0.21798
1536.98952,0.22426
1538.91799,0.25309
1540.84646,0.28054
1542.77493,0.26286
1544.70340,0.23249
1546.63186,0.20864
1548.56033,0.20191
1550.48880,0.20560
1552.41727,0.20967
1554.34574,0.21906
1556.27421,0.24345
1558.20268,0.27951
1560.13115,0.25345
1562.05961,0.21221
1563.98808,0.19889
1565.91655,0.19794
1567.84502,0.20292
1569.77349,0.20552
1571.70196,0.19865
1573.63043,0.19861
1575.55889,0.20679
1577.48736,0.20079
1579.41583,0.18697
1581.34430,0.17924
1583.27277,0.17562
1585.20124,0.17380
1587.12971,0.17356
1589.05818,0.17597
1590.98664,0.17958
1592.91511,0.18310
1594.84358,0.18435
1596.77205,0.18118
1598.70052,0.17946
1600.62899,0.18354
1602.55746,0.18798
1604.48592,0.18721
1606.41439,0.18506
1608.34286,0.18504
1610.27133,0.18458
1612.19980,0.18532
1614.12827,0.19325
1616.05674,0.20624
1617.98521,0.20554
1619.91367,0.19819
1621.84214,0.20083
1623.77061,0.20469
1625.69908,0.20053
1627.62755,0.19562
1629.55602,0.19293
1631.48449,0.19566
1633.41295,0.20932
1635.34142,0.22969
1637.26989,0.22441
1639.19836,0.20657
1641.12683,0.20006
1643.05530,0.20476
1644.98377,0.22300
1646.91223,0.24279
1648.84070,0.23785
1650.76917,0.24216
1652.69764,0.26880
1654.62611,0.25039
1656.55458,0.21400
1658.48305,0.19841
1660.41152,0.19874
1662.33998,0.20589
1664.26845,0.20424
1666.19692,0.20261
1668.12539,0.21469
1670.05386,0.22563
1671.98233,0.21976
1673.91080,0.21516
1675.83926,0.21149
1677.76773,0.20668
1679.69620,0.20916
1681.62467,0.22428
1683.55314,0.24878
1685.48161,0.24270
1687.41008,0.22033
1689.33855,0.20899
1691.26701,0.20273
1693.19548,0.20544
1695.12395,0.22185
1697.05242,0.23995
1698.98089,0.24690
1700.90936,0.23668
1702.83783,0.22120
1704.76629,0.21453
1706.69476,0.20741
1708.62323,0.19807
1710.55170,0.19435
1712.48017,0.19887
1714.40864,0.21253
1716.33711,0.23016
1718.26558,0.22637
1720.19404,0.20602
1722.12251,0.19329
1724.05098,0.18713
1725.97945,0.18444
1727.90792,0.18786
1729.83639,0.19645
1731.76486,0.20776
1733.69332,0.21623
1735.62179,0.20875
1737.55026,0.20153
1739.47873,0.20333
1741.40720,0.20591
1743.33567,0.20647
1745.26414,0.20918
1747.19261,0.21514
1749.12107,0.22117
1751.04954,0.21579
1752.97801,0.20170
1754.90648,0.19419
1756.83495,0.19343
1758.76342,0.19376
1760.69189,0.19469
1762.62035,0.19233
1764.54882,0.18758
1766.47729,0.18951
1768.40576,0.20036
1770.33423,0.21548
1772.26270,0.22083
1774.19117,0.20702
1776.11964,0.19406
1778.04810,0.19190
1779.97657,0.19538
1781.90504,0.19654
1783.83351,0.19441
1785.76198,0.19038
1787.69045,0.18784
1789.61892,0.19339
1791.54738,0.20293
1793.47585,0.20221
1795.40432,0.19663
1797.33279,0.19568
1799.26126,0.19669
1801.18973,0.19384
1803.11820,0.18663
1805.04666,0.18319
1806.97513,0.18622
1808.90360,0.19069
1810.83207,0.19203
1812.76054,0.18798
1814.68901,0.18374
1816.61748,0.18418
1818.54595,0.18534
1820.47441,0.18601
1822.40288,0.19095
1824.33135,0.19881
1826.25982,0.20354
1828.18829,0.20648
1830.11676,0.20423
1832.04523,0.19189
1833.97369,0.18279
1835.90216,0.18301
1837.83063,0.18513
1839.75910,0.18624
1841.68757,0.19169
1843.61604,0.19907
1845.54451,0.19794
1847.47298,0.19177
1849.40144,0.18725
1851.32991,0.18419
1853.25838,0.18250
1855.18685,0.18119
1857.11532,0.17987
1859.04379,0.18066
1860.97226,0.18313
1862.90072,0.18493
1864.82919,0.18822
1866.75766,0.19730
1868.68613,0.20461
1870.61460,0.19670
1872.54307,0.18426
1874.47154,0.17968
1876.40001,0.18129
1878.32847,0.18164
1880.25694,0.18046
1882.18541,0.18206
1884.11388,0.18375
1886.04235,0.18393
1887.97082,0.18620
1889.89929,0.18758
1891.82775,0.18572
1893.75622,0.18512
1895.68469,0.18487
1897.61316,0.18338
1899.54163,0.18280
1901.47010,0.18285
1903.39857,0.18307
1905.32704,0.18417
1907.25550,0.18518
1909.18397,0.18454
1911.11244,0.18351
1913.04091,0.18396
1914.96938,0.18695
1916.89785,0.19197
1918.82632,0.19487
1920.75478,0.19458
1922.68325,0.19188
1924.61172,0.18641
1926.54019,0.18198
1928.46866,0.18167
1930.39713,0.18378
1932.32560,0.18439
1934.25407,0.18311
1936.18253,0.18226
1938.11100,0.18290
1940.03947,0.18613
1941.96794,0.19026
1943.89641,0.19089
1945.82488,0.18907
1947.75335,0.18720
1949.68181,0.18476
1951.61028,0.18281
1953.53875,0.18252
1955.46722,0.18240
1957.39569,0.18237
1959.32416,0.18406
1961.25263,0.18666
1963.18110,0.18893
1965.10956,0.18982
1967.03803,0.18745
1968.96650,0.18308
1970.89497,0.18089
1972.82344,0.18124
1974.75191,0.18129
1976.68038,0.18037
1978.60884,0.17889
1980.53731,0.17828
1982.46578,0.17936
1984.39425,0.18063
1986.32272,0.18283
1988.25119,0.18624
1990.17966,0.18806
1992.10812,0.18675
1994.03659,0.18421
1995.96506,0.18227
1997.89353,0.18138
1999.82200,0.18285
2001.75047,0.18507
2003.67894,0.18495
2005.60741,0.18464
2007.53587,0.18637
2009.46434,0.18794
2011.39281,0.18795
2013.32128,0.18769
2015.24975,0.18806
2017.17822,0.18823
2019.10669,0.18707
2021.03515,0.18491
2022.96362,0.18304
2024.89209,0.18267
2026.82056,0.18400
2028.74903,0.18500
2030.67750,0.18451
2032.60597,0.18492
2034.53444,0.18615
2036.46290,0.18596
2038.39137,0.18534
2040.31984,0.18547
2042.24831,0.18558
2044.17678,0.18481
2046.10525,0.18482
2048.03372,0.18736
2049.96218,0.18975
2051.89065,0.18923
2053.81912,0.18689
2055.74759,0.18497
2057.67606,0.18452
2059.60453,0.18532
2061.53300,0.18628
2063.46147,0.18645
2065.38993,0.18559
2067.31840,0.18522
2069.24687,0.18618
2071.17534,0.18757
2073.10381,0.18910
2075.03228,0.19043
2076.96075,0.19044
2078.88921,0.18791
2080.81768,0.18526
2082.74615,0.18542
2084.67462,0.18592
2086.60309,0.18472
2088.53156,0.18346
2090.46003,0.18347
2092.38850,0.18422
2094.31696,0.18495
2096.24543,0.18495
2098.17390,0.18432
2100.10237,0.18446
2102.03084,0.18482
2103.95931,0.18440
2105.88778,0.18426
2107.81624,0.18492
2109.74471,0.18564
2111.67318,0.18604
2113.60165,0.18612
2115.53012,0.18556
2117.45859,0.18491
2119.38706,0.18537
2121.31553,0.18578
2123.24399,0.18475
2125.17246,0.18441
2127.10093,0.18536
2129.02940,0.18431
2130.95787,0.18196
2132.88634,0.18228
2134.81481,0.18394
2136.74327,0.18491
2138.67174,0.18664
2140.60021,0.18846
2142.52868,0.18859
2144.45715,0.18688
2146.38562,0.18500
2148.31409,0.18365
2150.24255,0.18211
2152.17102,0.18170
2154.09949,0.18248
2156.02796,0.18377
2157.95643,0.18601
2159.88490,0.18759
2161.81337,0.18723
2163.74184,0.18650
2165.67030,0.18751
2167.59877,0.18953
2169.52724,0.19015
2171.45571,0.18896
2173.38418,0.18722
2175.31265,0.18586
2177.24112,0.18460
2179.16958,0.18379
2181.09805,0.18487
2183.02652,0.18668
2184.95499,0.18725
2186.88346,0.18706
2188.81193,0.18697
2190.74040,0.18654
2192.66887,0.18513
2194.59733,0.18391
2196.52580,0.18398
2198.45427,0.18495
2200.38274,0.18595
2202.31121,0.18606
2204.23968,0.18525
2206.16815,0.18446
2208.09661,0.18523
2210.02508,0.18656
2211.95355,0.18683
2213.88202,0.18694
2215.81049,0.18595
2217.73896,0.18462
2219.66743,0.18573
2221.59590,0.18788
2223.52436,0.18887
2225.45283,0.18899
2227.38130,0.18950
2229.30977,0.18997
2231.23824,0.18884
2233.16671,0.18675
2235.09518,0.18539
2237.02364,0.18622
2238.95211,0.18877
2240.88058,0.18933
2242.80905,0.18762
2244.73752,0.18761
2246.66599,0.18899
2248.59446,0.18896
2250.52293,0.18829
2252.45139,0.18797
2254.37986,0.18720
2256.30833,0.18595
2258.23680,0.18511
2260.16527,0.18581
2262.09374,0.18716
2264.02221,0.18733
2265.95067,0.18775
2267.87914,0.18748
2269.80761,0.18467
2271.73608,0.18311
2273.66455,0.18438
2275.59302,0.18584
2277.52149,0.18671
2279.44996,0.18760
2281.37842,0.18864
2283.30689,0.19021
2285.23536,0.19168
2287.16383,0.19103
2289.09230,0.19028
2291.02077,0.19239
2292.94924,0.19468
2294.87770,0.19488
2296.80617,0.19449
2298.73464,0.19414
2300.66311,0.19289
2302.59158,0.19167
2304.52005,0.19217
2306.44852,0.19367
2308.37699,0.19515
2310.30545,0.19584
2312.23392,0.19481
2314.16239,0.19202
2316.09086,0.18993
2318.01933,0.19293
2319.94780,0.20036
2321.87627,0.20736
2323.80473,0.21177
2325.73320,0.21138
2327.66167,0.20420
2329.59014,0.19822
2331.51861,0.20571
2333.44708,0.21724
2335.37555,0.21810
2337.30401,0.21159
2339.23248,0.20389
2341.16095,0.19934
2343.08942,0.19922
2345.01789,0.20011
2346.94636,0.19983
2348.87483,0.19923
2350.80330,0.19902
2352.73176,0.19842
2354.66023,0.19864
2356.58870,0.19797
2358.51717,0.19360
2360.44564,0.19963
2362.37411,0.21400
2364.30258,0.22276
2366.23104,0.22252
2368.15951,0.21011
2370.08798,0.19929
2372.01645,0.19614
2373.94492,0.19328
2375.87339,0.19219
2377.80186,0.19336
2379.73033,0.19390
2381.65879,0.19345
2383.58726,0.19199
2385.51573,0.18957
2387.44420,0.18807
2389.37267,0.18859
2391.30114,0.18906
2393.22961,0.18832
2395.15807,0.18820
2397.08654,0.18966
2399.01501,0.19029
2400.94348,0.18854
2402.87195,0.18722
2404.80042,0.18829
2406.72889,0.19003
2408.65736,0.19145
2410.58582,0.19307
2412.51429,0.19286
2414.44276,0.19042
2416.37123,0.19028
2418.29970,0.19193
2420.22817,0.19123
2422.15664,0.19012
2424.08510,0.19055
2426.01357,0.19061
2427.94204,0.18923
2429.87051,0.18750
2431.79898,0.18761
2433.72745,0.18938
2435.65592,0.19028
2437.58439,0.19042
2439.51285,0.19056
2441.44132,0.18946
2443.36979,0.18772
2445.29826,0.18774
2447.22673,0.18790
2449.15520,0.18602
2451.08367,0.18536
2453.01213,0.18709
2454.94060,0.18779
2456.86907,0.18693
2458.79754,0.18683
2460.72601,0.18774
2462.65448,0.18817
2464.58295,0.18842
2466.51142,0.18847
2468.43988,0.18851
2470.36835,0.18999
2472.29682,0.19171
2474.22529,0.19226
2476.15376,0.19157
2478.08223,0.18949
2480.01070,0.18746
2481.93916,0.18752
2483.86763,0.18864
2485.79610,0.18855
2487.72457,0.18822
2489.65304,0.18875
2491.58151,0.18947
2493.50998,0.19039
2495.43844,0.19078
2497.36691,0.18988
2499.29538,0.18858
2501.22385,0.18792
2503.15232,0.18883
2505.08079,0.19056
2507.00926,0.19121
2508.93773,0.19082
2510.86619,0.19042
2512.79466,0.19049
2514.72313,0.19032
2516.65160,0.19008
2518.58007,0.19053
2520.50854,0.18989
2522.43701,0.18820
2524.36547,0.18864
2526.29394,0.19042
2528.22241,0.18975
2530.15088,0.18840
2532.07935,0.18954
2534.00782,0.19133
2535.93629,0.19262
2537.86476,0.19316
2539.79322,0.19141
2541.72169,0.18832
2543.65016,0.18691
2545.57863,0.18847
2547.50710,0.19147
2549.43557,0.19342
2551.36404,0.19306
2553.29250,0.19162
2555.22097,0.19122
2557.14944,0.19048
2559.07791,0.18842
2561.00638,0.18826
2562.93485,0.19030
2564.86332,0.19174
2566.79179,0.19230
2568.72025,0.19221
2570.64872,0.19082
2572.57719,0.18960
2574.50566,0.19109
2576.43413,0.19349
2578.36260,0.19366
2580.29107,0.19255
2582.21953,0.19239
2584.14800,0.19316
2586.07647,0.19322
2588.00494,0.19253
2589.93341,0.19209
2591.86188,0.19248
2593.79035,0.19351
2595.71882,0.19405
2597.64728,0.19365
2599.57575,0.19307
2601.50422,0.19394
2603.43269,0.19498
2605.36116,0.19405
2607.28963,0.19337
2609.21810,0.19424
2611.14656,0.19481
2613.07503,0.19408
2615.00350,0.19261
2616.93197,0.19191
2618.86044,0.19250
2620.78891,0.19267
2622.71738,0.19226
2624.64585,0.19311
2626.57431,0.19401
2628.50278,0.19324
2630.43125,0.19258
2632.35972,0.19285
2634.28819,0.19327
2636.21666,0.19407
2638.14513,0.19567
2640.07359,0.19716
2642.00206,0.19735
2643.93053,0.19796
2645.85900,0.19790
2647.78747,0.19381
2649.71594,0.19062
2651.64441,0.19165
2653.57288,0.19251
2655.50134,0.19222
2657.42981,0.19252
2659.35828,0.19306
2661.28675,0.19370
2663.21522,0.19416
2665.14369,0.19403
2667.07216,0.19473
2669.00062,0.19617
2670.92909,0.19602
2672.85756,0.19442
2674.78603,0.19362
2676.71450,0.19409
2678.64297,0.19353
2680.57144,0.19226
2682.49990,0.19333
2684.42837,0.19551
2686.35684,0.19679
2688.28531,0.19730
2690.21378,0.19736
2692.14225,0.19832
2694.07072,0.19927
2695.99919,0.19927
2697.92765,0.19943
2699.85612,0.19841
2701.78459,0.19720
2703.71306,0.19815
2705.64153,0.19836
2707.57000,0.19584
2709.49847,0.19355
2711.42693,0.19405
2713.35540,0.19557
2715.28387,0.19620
2717.21234,0.19797
2719.14081,0.20207
2721.06928,0.20457
2722.99775,0.20200
2724.92622,0.19835
2726.85468,0.19863
2728.78315,0.20165
2730.71162,0.20387
2732.64009,0.20343
2734.56856,0.20143
2736.49703,0.19982
2738.42550,0.19900
2740.35396,0.19904
2742.28243,0.20062
2744.21090,0.20348
2746.13937,0.20457
2748.06784,0.20208
2749.99631,0.19855
2751.92478,0.19690
2753.85325,0.19797
2755.78171,0.20117
2757.71018,0.20361
2759.63865,0.20179
2761.56712,0.19853
2763.49559,0.19923
2765.42406,0.20182
2767.35253,0.20303
2769.28099,0.20421
2771.20946,0.20495
2773.13793,0.20382
2775.06640,0.20170
2776.99487,0.19918
2778.92334,0.19668
2780.85181,0.19680
2782.78028,0.19990
2784.70874,0.20191
2786.63721,0.20173
2788.56568,0.20167
2790.49415,0.20278
2792.42262,0.20364
2794.35109,0.20303
2796.27956,0.20361
2798.20802,0.20630
2800.13649,0.20752
2802.06496,0.20594
2803.99343,0.20374
2805.92190,0.20264
2807.85037,0.20260
2809.77884,0.20330
2811.70731,0.20371
2813.63577,0.20404
2815.56424,0.20605
2817.49271,0.20803
2819.42118,0.20718
2821.34965,0.20478
2823.27812,0.20346
2825.20659,0.20482
2827.13505,0.20848
2829.06352,0.21067
2830.99199,0.20872
2832.92046,0.20562
2834.84893,0.20485
2836.77740,0.20572
2838.70587,0.20620
2840.63433,0.20515
2842.56280,0.20458
2844.49127,0.20661
2846.41974,0.20868
2848.34821,0.20941
2850.27668,0.21032
2852.20515,0.21182
2854.13362,0.21177
2856.06208,0.20894
2857.99055,0.20728
2859.91902,0.20924
2861.84749,0.21062
2863.77596,0.20831
2865.70443,0.20534
2867.63290,0.20410
2869.56136,0.20347
2871.48983,0.20324
2873.41830,0.20413
2875.34677,0.20645
2877.27524,0.20890
2879.20371,0.20971
2881.13218,0.20955
2883.06065,0.20838
2884.98911,0.20595
2886.91758,0.20451
2888.84605,0.20421
2890.77452,0.20474
2892.70299,0.20571
2894.63146,0.20473
2896.55993,0.20229
2898.48839,0.20059
2900.41686,0.20113
2902.34533,0.20264
2904.27380,0.20276
2906.20227,0.20332
2908.13074,0.20526
2910.05921,0.20663
2911.98768,0.20640
2913.91614,0.20677
2915.84461,0.20810
2917.77308,0.20658
2919.70155,0.20429
2921.63002,0.20527
2923.55849,0.20709
2925.48696,0.20649
2927.41542,0.20525
2929.34389,0.20542
2931.27236,0.20545
2933.20083,0.20634
2935.12930,0.20888
2937.05777,0.21110
2938.98624,0.21265
2940.91471,0.21267
2942.84317,0.20950
2944.77164,0.20462
2946.70011,0.20343
2948.62858,0.20735
2950.55705,0.21045
2952.48552,0.20949
2954.41399,0.20651
2956.34245,0.20401
2958.27092,0.20432
2960.19939,0.20791
2962.12786,0.21105
2964.05633,0.21037
2965.98480,0.20882
2967.91327,0.20960
2969.84174,0.21023
2971.77020,0.20895
2973.69867,0.20663
2975.62714,0.20462
2977.55561,0.20484
2979.48408,0.20686
2981.41255,0.20964
2983.34102,0.21172
2985.26948,0.21063
2987.19795,0.20702
2989.12642,0.20481
2991.05489,0.20633
2992.98336,0.20885
2994.91183,0.21167
2996.84030,0.21559
2998.76877,0.21753
3000.69723,0.21787
3002.62570,0.21813
3004.55417,0.21700
3006.48264,0.21471
3008.41111,0.21376
3010.33958,0.21426
3012.26805,0.21288
3014.19651,0.21141
3016.12498,0.21363
3018.05345,0.21674
3019.98192,0.21629
3021.91039,0.21422
3023.83886,0.21531
3025.76733,0.21787
3027.69579,0.21909
3029.62426,0.21946
3031.55273,0.21793
3033.48120,0.21454
3035.40967,0.21197
3037.33814,0.21194
3039.26661,0.21340
3041.19508,0.21459
3043.12354,0.21495
3045.05201,0.21398
3046.98048,0.21275
3048.90895,0.21257
3050.83742,0.21308
3052.76589,0.21366
3054.69436,0.21376
3056.62282,0.21343
3058.55129,0.21296
3060.47976,0.21404
3062.40823,0.21699
3064.33670,0.21888
3066.26517,0.21928
3068.19364,0.21838
3070.12211,0.21665
3072.05057,0.21540
3073.97904,0.21438
3075.90751,0.21413
3077.83598,0.21504
3079.76445,0.21662
3081.69292,0.21543
3083.62139,0.20981
3085.54985,0.20593
3087.47832,0.20637
3089.40679,0.20784
3091.33526,0.21016
3093.26373,0.21409
3095.19220,0.21644
3097.12067,0.21539
3099.04914,0.21341
3100.97760,0.21235
3102.90607,0.21243
3104.83454,0.21226
3106.76301,0.21287
3108.69148,0.21521
3110.61995,0.21491
3112.54842,0.21208
3114.47688,0.21021
3116.40535,0.20896
3118.33382,0.20869
3120.26229,0.20948
3122.19076,0.21020
3124.11923,0.21076
3126.04770,0.21030
3127.97617,0.20882
3129.90463,0.20933
3131.83310,0.21382
3133.76157,0.21861
3135.69004,0.21884
3137.61851,0.21676
3139.54698,0.21622
3141.47545,0.21549
3143.40391,0.21305
3145.33238,0.21140
3147.26085,0.21221
3149.18932,0.21403
3151.11779,0.21512
3153.04626,0.21487
3154.97473,0.21391
3156.90320,0.21200
3158.83166,0.20835
3160.76013,0.20612
3162.68860,0.20758
3164.61707,0.21113
3166.54554,0.21586
3168.47401,0.22017
3170.40248,0.22162
3172.33094,0.22102
3174.25941,0.22099
3176.18788,0.22113
3178.11635,0.21988
3180.04482,0.21813
3181.97329,0.21915
3183.90176,0.22193
3185.83022,0.21934
3187.75869,0.21495
3189.68716,0.21773
3191.61563,0.22215
3193.54410,0.22196
3195.47257,0.22004
3197.40104,0.21859
3199.32951,0.21811
3201.25797,0.21771
3203.18644,0.21531
3205.11491,0.21203
3207.04338,0.21119
3208.97185,0.21307
3210.90032,0.21539
3212.82879,0.21564
3214.75725,0.21278
3216.68572,0.21002
3218.61419,0.20941
3220.54266,0.21003
3222.47113,0.21225
3224.39960,0.21318
3226.32807,0.21195
3228.25654,0.21204
3230.18500,0.21218
3232.11347,0.21230
3234.04194,0.21462
3235.97041,0.21512
3237.89888,0.21321
3239.82735,0.21650
3241.75582,0.22410
3243.68428,0.22571
3245.61275,0.21879
3247.54122,0.21012
3249.46969,0.20591
3251.39816,0.20874
3253.32663,0.21651
3255.25510,0.22163
3257.18357,0.21880
3259.11203,0.21356
3261.04050,0.21330
3262.96897,0.21407
3264.89744,0.21216
3266.82591,0.21273
3268.75438,0.21403
3270.68285,0.21183
3272.61131,0.21143
3274.53978,0.21483
3276.46825,0.21609
3278.39672,0.21268
3280.32519,0.20816
3282.25366,0.20593
3284.18213,0.20770
3286.11060,0.21103
3288.03906,0.21295
3289.96753,0.21544
3291.89600,0.21682
3293.82447,0.21476
3295.75294,0.21202
3297.68141,0.21061
3299.60988,0.21093
3301.53834,0.21214
3303.46681,0.21249
3305.39528,0.21117
3307.32375,0.21093
3309.25222,0.21161
3311.18069,0.20818
3313.10916,0.20360
3315.03763,0.20524
3316.96609,0.21208
3318.89456,0.21682
3320.82303,0.21680
3322.75150,0.21491
3324.67997,0.21310
3326.60844,0.21406
3328.53691,0.21744
3330.46537,0.21853
3332.39384,0.21756
3334.32231,0.21743
3336.25078,0.21773
3338.17925,0.21823
3340.10772,0.22068
3342.03619,0.22292
3343.96466,0.22058
3345.89312,0.21529
3347.82159,0.21223
3349.75006,0.21255
3351.67853,0.21458
3353.60700,0.21909
3355.53547,0.22269
3357.46394,0.21948
3359.39240,0.21410
3361.32087,0.21204
3363.24934,0.21248
3365.17781,0.21281
3367.10628,0.21116
3369.03475,0.21157
3370.96322,0.21586
3372.89168,0.21831
3374.82015,0.21653
3376.74862,0.21492
3378.67709,0.21567
3380.60556,0.21455
3382.53403,0.21219
3384.46250,0.21390
3386.39097,0.21685
3388.31943,0.21538
3390.24790,0.21164
3392.17637,0.21178
3394.10484,0.21695
3396.03331,0.22085
3397.96178,0.21956
3399.89025,0.21633
3401.81871,0.21422
3403.74718,0.21472
3405.67565,0.21722
3407.60412,0.21704
3409.53259,0.21252
3411.46106,0.20778
3413.38953,0.20528
3415.31800,0.20335
3417.24646,0.20373
3419.17493,0.20868
3421.10340,0.21306
3423.03187,0.21324
3424.96034,0.21264
3426.88881,0.21269
3428.81728,0.21183
3430.74574,0.21180
3432.67421,0.21341
3434.60268,0.21411
3436.53115,0.21251
3438.45962,0.20873
3440.38809,0.20599
3442.31656,0.20698
3444.24503,0.21066
3446.17349,0.21431
3448.10196,0.21487
3450.03043,0.21252
3451.95890,0.20918
3453.88737,0.20532
3455.81584,0.19961
3457.74431,0.19341
3459.67277,0.19153
3461.60124,0.19451
3463.52971,0.19976
3465.45818,0.20380
3467.38665,0.20354
3469.31512,0.20150
3471.24359,0.20120
3473.17206,0.20071
3475.10052,0.19794
3477.02899,0.19546
3478.95746,0.19742
3480.88593,0.20186
3482.81440,0.20220
3484.74287,0.19924
3486.67134,0.19651
3488.59980,0.19407
3490.52827,0.19319
3492.45674,0.19327
3494.38521,0.19224
3496.31368,0.18960
3498.24215,0.18569
3500.17062,0.18296
3502.09909,0.18371
3504.02755,0.18622
3505.95602,0.18785
3507.88449,0.18970
3509.81296,0.19007
3511.74143,0.18450
3513.66990,0.17782
3515.59837,0.17740
3517.52683,0.18044
3519.45530,0.18288
3521.38377,0.18619
3523.31224,0.18872
3525.24071,0.18932
3527.16918,0.18934
3529.09765,0.18417
3531.02611,0.17432
3532.95458,0.16909
3534.88305,0.17094
3536.81152,0.17260
3538.73999,0.17152
3540.66846,0.17397
3542.59693,0.17999
3544.52540,0.18513
3546.45386,0.18586
3548.38233,0.18031
3550.31080,0.17405
3552.23927,0.17242
3554.16774,0.17424
3556.09621,0.17494
3558.02468,0.17199
3559.95314,0.16804
3561.88161,0.16903
3563.81008,0.17977
3565.73855,0.19792
3567.66702,0.20215
3569.59549,0.18541
3571.52396,0.17219
3573.45243,0.16753
3575.38089,0.16437
3577.30936,0.16177
3579.23783,0.16151
3581.16630,0.16351
3583.09477,0.16916
3585.02324,0.17815
3586.95171,0.18327
3588.88017,0.17576
3590.80864,0.16863
3592.73711,0.17153
3594.66558,0.17631
3596.59405,0.17585
3598.52252,0.17276
3600.45099,0.16790
3602.37946,0.16239
3604.30792,0.16030
3606.23639,0.16379
3608.16486,0.17000
3610.09333,0.17638
3612.02180,0.18432
3613.95027,0.18669
3615.87874,0.18112
3617.80720,0.17794
3619.73567,0.17385
3621.66414,0.16098
3623.59261,0.15100
3625.52108,0.15238
3627.44955,0.16396
3629.37802,0.17124
3631.30649,0.16321
3633.23495,0.15576
3635.16342,0.15230
3637.09189,0.15003
3639.02036,0.14844
3640.94883,0.14679
3642.87730,0.14731
3644.80577,0.15598
3646.73423,0.17581
3648.66270,0.19720
3650.59117,0.18710
3652.51964,0.16293
3654.44811,0.15244
3656.37658,0.14888
3658.30505,0.14255
3660.23352,0.13681
3662.16198,0.13445
3664.09045,0.13626
3666.01892,0.14288
3667.94739,0.15503
3669.87586,0.16864
3671.80433,0.17548
3673.73280,0.18323
3675.66126,0.18391
3677.58973,0.16665
3679.51820,0.15206
3681.44667,0.14323
3683.37514,0.13859
3685.30361,0.13978
3687.23208,0.14908
3689.16055,0.16221
3691.08901,0.15935
3693.01748,0.14535
3694.94595,0.13751
3696.87442,0.13530
3698.80289,0.13483
3700.73136,0.13716
3702.65983,0.13728
3704.58829,0.13350
3706.51676,0.13376
3708.44523,0.14129
3710.37370,0.15315
3712.30217,0.15233
3714.23064,0.14038
3716.15911,0.13644
3718.08757,0.14008
3720.01604,0.14571
3721.94451,0.15087
3723.87298,0.15144
3725.80145,0.14526
3727.72992,0.13999
3729.65839,0.14298
3731.58686,0.15410
3733.51532,0.17045
3735.44379,0.17671
3737.37226,0.16103
3739.30073,0.14523
3741.22920,0.14165
3743.15767,0.14816
3745.08614,0.15521
3747.01460,0.15486
3748.94307,0.16085
3750.87154,0.17226
3752.80001,0.16444
3754.72848,0.15156
3756.65695,0.14856
3758.58542,0.14889
3760.51389,0.14288
3762.44235,0.13643
3764.37082,0.13619
3766.29929,0.13944
3768.22776,0.14242
3770.15623,0.14010
3772.08470,0.13119
3774.01317,0.12503
3775.94163,0.12696
3777.87010,0.13531
3779.79857,0.14058
3781.72704,0.13804
3783.65551,0.13424
3785.58398,0.13023
3787.51245,0.12645
3789.44092,0.12585
3791.36938,0.12898
3793.29785,0.13441
3795.22632,0.14030
3797.15479,0.14471
3799.08326,0.14974
3801.01173,0.15567
3802.94020,0.15349
3804.86866,0.15112
3806.79713,0.14934
3808.72560,0.13680
3810.65407,0.12578
3812.58254,0.12476
3814.51101,0.12898
3816.43948,0.13436
3818.36795,0.14455
3820.29641,0.15903
3822.22488,0.15892
3824.15335,0.14874
3826.08182,0.14157
3828.01029,0.13343
3829.93876,0.12811
3831.86723,0.12960
3833.79569,0.13309
3835.72416,0.13760
3837.65263,0.14785
3839.58110,0.15388
3841.50957,0.14703
3843.43804,0.13582
3845.36651,0.12794
3847.29498,0.12791
3849.22344,0.13487
3851.15191,0.14965
3853.08038,0.16947
3855.00885,0.16111
3856.93732,0.14123
3858.86579,0.13218
3860.79426,0.13253
3862.72272,0.13773
3864.65119,0.13779
3866.57966,0.13655
3868.50813,0.14454
3870.43660,0.15196
3872.36507,0.14619
3874.29354,0.13539
3876.22200,0.13019
3878.15047,0.13247
3880.07894,0.13428
3882.00741,0.13015
3883.93588,0.12884
3885.86435,0.13221
3887.79282,0.13207
3889.72129,0.13178
3891.64975,0.13355
3893.57822,0.13031
3895.50669,0.12822
3897.43516,0.13564
3899.36363,0.14636
3901.29210,0.14793
3903.22057,0.14248
3905.14903,0.13379
3907.07750,0.12508
3909.00597,0.12046
3910.93444,0.11781
3912.86291,0.11826
3914.79138,0.12374
3916.71985,0.12820
3918.64832,0.12719
3920.57678,0.12405
3922.50525,0.12169
3924.43372,0.12061
3926.36219,0.12154
3928.29066,0.12434
3930.21913,0.12437
3932.14760,0.12034
3934.07606,0.11639
3936.00453,0.11344
3937.93300,0.11178
3939.86147,0.11175
3941.78994,0.11283
3943.71841,0.11370
3945.64688,0.11524
3947.57535,0.11857
3949.50381,0.11953
3951.43228,0.11701
3953.36075,0.11367
3955.28922,0.11069
3957.21769,0.11036
3959.14616,0.11272
3961.07463,0.11282
3963.00309,0.11006
3964.93156,0.10966
3966.86003,0.10999
3968.78850,0.10745
3970.71697,0.10572
3972.64544,0.10792
3974.57391,0.11121
3976.50238,0.11041
3978.43084,0.10624
3980.35931,0.10486
3982.28778,0.10616
3984.21625,0.10540
3986.14472,0.10320
3988.07319,0.10291
3990.00166,0.10418
3991.93012,0.10398
3993.85859,0.10400
3995.78706,0.10666
3997.71553,0.10797
3999.64400,0.10630
4001.57247,0.10404
4003.50094,0.10080
4005.42941,0.09751
4007.35787,0.09840
4009.28634,0.10211
4011.21481,0.10440
4013.14328,0.10639
4015.07175,0.10854
4017.00022,0.11018
4018.92869,0.11038
4020.85715,0.10744
4022.78562,0.10346
4024.71409,0.10067
4026.64256,0.09935
4028.57103,0.09964
4030.49950,0.10073
4032.42797,0.10041
4034.35644,0.09857
4036.28490,0.09761
4038.21337,0.09628
4040.14184,0.09243
4042.07031,0.08871
4043.99878,0.08788
4045.92725,0.08934
4047.85572,0.09189
4049.78418,0.09423
4051.71265,0.09368
4053.64112,0.09034
4055.56959,0.09014
4057.49806,0.09579
4059.42653,0.10232
4061.35500,0.10490
4063.28346,0.10225
4065.21193,0.09888
4067.14040,0.09871
4069.06887,0.09862
4070.99734,0.09561
4072.92581,0.09232
4074.85428,0.09363
4076.78275,0.09729
4078.71121,0.09932
4080.63968,0.09996
4082.56815,0.09879
4084.49662,0.09698
4086.42509,0.09437
4088.35356,0.08893
4090.28203,0.08451
4092.21049,0.08787
4094.13896,0.09526
4096.06743,0.09737
4097.99590,0.09489
4099.92437,0.09306
4101.85284,0.09365
4103.78131,0.09473
4105.70978,0.09443
4107.63824,0.09414
4109.56671,0.09393
4111.49518,0.09292
4113.42365,0.09027
4115.35212,0.08487
4117.28059,0.07745
4119.20906,0.07300
4121.13752,0.07783
4123.06599,0.08735
4124.99446,0.09123
4126.92293,0.08964
4128.85140,0.08761
4130.77987,0.08767
4132.70834,0.09002
4134.63681,0.09002
4136.56527,0.08637
4138.49374,0.08298
4140.42221,0.08113
4142.35068,0.08052
4144.27915,0.08119
4146.20762,0.08342
4148.13609,0.08526
4150.06455,0.08421
4151.99302,0.08184
4153.92149,0.08152
4155.84996,0.08504
4157.77843,0.08968
4159.70690,0.09088
4161.63537,0.08694
4163.56384,0.08158
4165.49230,0.08234
4167.42077,0.08743
4169.34924,0.08661
4171.27771,0.07938
4173.20618,0.07480
4175.13465,0.07659
4177.06312,0.07898
4178.99158,0.07640
4180.92005,0.07244
4182.84852,0.07314
4184.77699,0.07754
4186.70546,0.08065
4188.63393,0.08039
4190.56240,0.07901
4192.49087,0.07912
4194.41933,0.07900
4196.34780,0.07765
4198.27627,0.07778
4200.20474,0.07798
4202.13321,0.07462
4204.06168,0.06784
4205.99015,0.06242
4207.91861,0.06398
4209.84708,0.06802
4211.77555,0.06707
4213.70402,0.06341
4215.63249,0.06077
4217.56096,0.05992
4219.48943,0.06097
4221.41789,0.06149
4223.34636,0.06040
4225.27483,0.06077
4227.20330,0.06453
4229.13177,0.07058
4231.06024,0.07303
4232.98871,0.06789
4234.91718,0.06316
4236.84564,0.06315
4238.77411,0.06190
4240.70258,0.06010
4242.63105,0.06078
4244.55952,0.06058
4246.48799,0.05874
4248.41646,0.05889
4250.34492,0.06123
4252.27339,0.06252
4254.20186,0.06041
4256.13033,0.05647
4258.05880,0.05518
4259.98727,0.05615
4261.91574,0.05756
4263.84421,0.06062
4265.77267,0.06299
4267.70114,0.06229
4269.62961,0.05937
4271.55808,0.05782
4273.48655,0.06058
4275.41502,0.06191
4277.34349,0.05941
4279.27195,0.05965
4281.20042,0.06179
4283.12889,0.06183
4285.05736,0.06091
4286.98583,0.06025
4288.91430,0.06102
4290.84277,0.06146
4292.77124,0.06014
4294.69970,0.05802
4296.62817,0.05354
4298.55664,0.05026
4300.48511,0.05376
4302.41358,0.06048
4304.34205,0.06165
4306.27052,0.05657
4308.19898,0.05179
4310.12745,0.04912
4312.05592,0.04817
4313.98439,0.04671
4315.91286,0.04466
4317.84133,0.04702
4319.76980,0.05030
4321.69827,0.04736
4323.62673,0.04360
4325.55520,0.04669
4327.48367,0.05018
4329.41214,0.04929
4331.34061,0.04836
4333.26908,0.04778
4335.19755,0.04574
4337.12601,0.03987
4339.05448,0.03605
4340.98295,0.04229
4342.91142,0.04998
4344.83989,0.04828
4346.76836,0.03865
4348.69683,0.03150
4350.62530,0.03324
4352.55376,0.03867
4354.48223,0.04475
4356.41070,0.04973
4358.33917,0.04855
4360.26764,0.04453
4362.19611,0.04388
4364.12458,0.04492
4366.05304,0.04220
4367.98151,0.03466
4369.90998,0.02903
4371.83845,0.03182
4373.76692,0.03794
4375.69539,0.03682
4377.62386,0.03074
4379.55232,0.02769
4381.48079,0.02705
4383.40926,0.02722
4385.33773,0.02736
4387.26620,0.02933
4389.19467,0.03267
4391.12314,0.03068
4393.05161,0.02649
4394.98007,0.02543
4396.90854,0.02467
4398.83701,0.02417
4400.76548,0.02497
4402.69395,0.02716
4404.62242,0.03293
4406.55089,0.03940
4408.47935,0.04057
4410.40782,0.03617
4412.33629,0.02919
4414.26476,0.02503
4416.19323,0.02766
4418.12170,0.03191
4420.05017,0.03174
4421.97864,0.02806
4423.90710,0.02339
4425.83557,0.01879
4427.76404,0.01738
4429.69251,0.02189
4431.62098,0.02759
4433.54945,0.02889
4435.47792,0.02598
4437.40638,0.02124
4439.33485,0.01998
4441.26332,0.02207
4443.19179,0.02103
4445.12026,0.01973
4447.04873,0.02580
4448.97720,0.03321
4450.90567,0.02974
4452.83413,0.02058
4454.76260,0.01649
4456.69107,0.01662
4458.61954,0.01488
4460.54801,0.00654
4462.47648,0.00089
4464.40495,0.00704
4466.33341,0.01550
4468.26188,0.01643
4470.19035,0.01405
4472.11882,0.01650
4474.04729,0.02126
4475.97576,0.02148
4477.90423,0.01861
4479.83270,0.01863
4481.76116,0.01793
4483.68963,0.01031
4485.61810,0.00588
4487.54657,0.01383
4489.47504,0.02420
4491.40351,0.02678
4493.33198,0.02451
4495.26044,0.02200
4497.18891,0.01856
4499.11738,0.01558
4501.04585,0.01713
4502.97432,0.02123
4504.90279,0.02394
4506.83126,0.02498
4508.75973,0.02249
4510.68819,0.01926
4512.61666,0.02069
4514.54513,0.02298
4516.47360,0.02120
4518.40207,0.01755
4520.33054,0.01388
4522.25901,0.00630
4524.18747,-0.00447
4526.11594,-0.00926
4528.04441,-0.00449
4529.97288,0.00258
4531.90135,0.00455
4533.82982,0.00337
4535.75829,0.00322
4537.68676,0.00466
4539.61522,0.00672
4541.54369,0.00562
4543.47216,0.00151
4545.40063,-0.00053
4547.32910,0.00156
4549.25757,0.00593
4551.18604,0.00720
4553.11450,0.00425
4555.04297,0.00351
4556.97144,0.00793
4558.89991,0.01284
4560.82838,0.01437
4562.75685,0.01277
4564.68532,0.00833
4566.61378,0.00546
4568.54225,0.00806
4570.47072,0.01184
4572.39919,0.01066
4574.32766,0.00387
4576.25613,-0.00104
4578.18460,0.00003
4580.11307,0.00160
4582.04153,-0.00006
4583.97000,-0.00063
4585.89847,0.00506
4587.82694,0.01282
4589.75541,0.01532
4591.68388,0.01340
4593.61235,0.01017
4595.54081,0.00964
4597.46928,0.01559
4599.39775,0.02017
4601.32622,0.01895
4603.25469,0.01999
4605.18316,0.02008
4607.11163,0.01010
4609.04010,-0.00034
4610.96856,0.00054
4612.89703,0.00420
4614.82550,0.00237
4616.75397,-0.00180
4618.68244,-0.00624
4620.61091,-0.00546
4622.53938,0.00207
4624.46784,0.00703
4626.39631,0.00554
4628.32478,0.00363
4630.25325,0.00598
4632.18172,0.01030
4634.11019,0.00993
4636.03866,0.00041
4637.96713,-0.01065
4639.89559,-0.01210
4641.82406,-0.00716
4643.75253,-0.00434
4645.68100,-0.00465
4647.60947,-0.00484
4649.53794,-0.00551
4651.46641,-0.00874
4653.39487,-0.00702
4655.32334,0.00117
4657.25181,0.00591
4659.18028,0.00355
4661.10875,-0.00028
4663.03722,-0.00075
4664.96569,-0.00342
4666.89416,-0.00730
4668.82262,-0.00337
4670.75109,0.00625
4672.67956,0.01395
4674.60803,0.01305
4676.53650,0.00412
4678.46497,-0.00452
4680.39344,-0.00793
4682.32190,-0.00551
4684.25037,-0.00100
4686.17884,0.00170
4688.10731,0.00458
4690.03578,0.00827
4691.96425,0.00971
4693.89272,0.01102
4695.82119,0.01663
4697.74965,0.01850
4699.67812,0.00991
4701.60659,0.00507
4703.53506,0.00869
4705.46353,0.00775
4707.39200,0.00389
4709.32047,0.00530
4711.24893,0.00970
4713.17740,0.01027
4715.10587,0.00416
4717.03434,-0.00232
4718.96281,-0.00209
4720.89128,0.00385
4722.81975,0.00650
4724.74821,0.00049
4726.67668,-0.00400
4728.60515,-0.00012
4730.53362,0.00311
4732.46209,-0.00081
4734.39056,-0.00689
4736.31903,-0.00687
4738.24750,-0.00032
4740.17596,0.00567
4742.10443,0.01001
4744.03290,0.01603
4745.96137,0.01988
4747.88984,0.01913
4749.81831,0.01727
4751.74678,0.01357
4753.67524,0.00520
4755.60371,-0.00625
4757.53218,-0.01322
4759.46065,-0.01017
4761.38912,-0.00331
4763.31759,-0.00250
4765.24606,-0.00428
4767.17453,0.00491
4769.10299,0.01798
4771.03146,0.01584
4772.95993,0.00751
4774.88840,0.00958
4776.81687,0.01449
4778.74534,0.01146
4780.67381,0.00865
4782.60227,0.01386
4784.53074,0.01712
4786.45921,0.01356
4788.38768,0.00911
4790.31615,0.00434
4792.24462,-0.00163
4794.17309,-0.00568
4796.10156,-0.00648
4798.03002,-0.00546
4799.95849,-0.00159
4801.88696,0.00667
4803.81543,0.01531
4805.74390,0.01825
4807.67237,0.01057
4809.60084,-0.00144
4811.52930,-0.00248
4813.45777,0.00267
4815.38624,0.00365
4817.31471,0.00287
4819.24318,0.00580
4821.17165,0.01328
4823.10012,0.01314
4825.02859,0.00623
4826.95705,0.00597
4828.88552,0.01039
4830.81399,0.01249
4832.74246,0.00736
4834.67093,-0.00019
4836.59940,-0.00102
4838.52787,0.00258
4840.45633,0.00282
4842.38480,-0.00214
4844.31327,-0.00621
4846.24174,-0.00564
4848.17021,-0.00297
4850.09868,-0.00210
4852.02715,-0.00193
4853.95562,-0.00048
4855.88408,-0.00324
4857.81255,-0.00681
4859.74102,-0.00613
4861.66949,-0.00182
4863.59796,0.00568
4865.52643,0.00993
4867.45490,0.00691
4869.38336,0.00066
4871.31183,-0.00138
4873.24030,0.00193
4875.16877,0.00191
4877.09724,0.00051
4879.02571,0.00737
4880.95418,0.01755
4882.88265,0.02109
4884.81111,0.02386
4886.73958,0.02655
4888.66805,0.02010
4890.59652,0.00989
4892.52499,0.00467
4894.45346,0.00183
4896.38193,0.00015
4898.31039,0.00224
4900.23886,0.00440
4902.16733,0.00199
4904.09580,0.00087
4906.02427,0.00575
4907.95274,0.00735
4909.88121,0.00099
4911.80967,-0.00399
4913.73814,-0.00239
4915.66661,0.00137
4917.59508,0.00598
4919.52355,0.01465
4921.45202,0.02400
4923.38049,0.02894
4925.30896,0.02630
4927.23742,0.01617
4929.16589,0.01006
4931.09436,0.01328
4933.02283,0.01619
4934.95130,0.01552
4936.87977,0.01688
4938.80824,0.01970
4940.73670,0.02111
4942.66517,0.01697
4944.59364,0.00687
4946.52211,0.00136
4948.45058,-0.00311
4950.37905,-0.01251
4952.30752,-0.01508
4954.23599,-0.00840
4956.16445,0.00126
4958.09292,0.01114
4960.02139,0.01714
4961.94986,0.01777
4963.87833,0.01517
4965.80680,0.01415
4967.73527,0.01609
4969.66373,0.01677
4971.59220,0.01579
4973.52067,0.02060
4975.44914,0.03204
4977.37761,0.03341
4979.30608,0.01810
4981.23455,0.00463
4983.16302,0.00460
4985.09148,0.01020
4987.01995,0.00782
4988.94842,-0.00244
4990.87689,-0.00487
4992.80536,0.00193
4994.73383,0.00313
4996.66230,-0.00772
4998.59076,-0.01811
5000.51923,-0.01329
5002.44770,0.00108
5004.37617,0.01271
5006.30464,0.01818
5008.23311,0.01303
5010.16158,0.00148
5012.09005,0.00155
5014.01851,0.01300
5015.94698,0.01676
5017.87545,0.01043
5019.80392,0.00441
5021.73239,0.00255
5023.66086,0.00308
5025.58933,0.00305
5027.51779,0.00445
5029.44626,0.00764
5031.37473,0.00714
5033.30320,-0.00434
5035.23167,-0.01916
5037.16014,-0.02147
5039.08861,-0.01956
5041.01708,-0.01937
5042.94554,-0.00911
5044.87401,0.00788
5046.80248,0.02102
5048.73095,0.02440
5050.65942,0.01946
5052.58789,0.01846
5054.51636,0.02455
5056.44482,0.02478
5058.37329,0.01773
5060.30176,0.01601
5062.23023,0.01643
5064.15870,0.00868
5066.08717,-0.00384
5068.01564,-0.00988
5069.94410,-0.00440
5071.87257,0.00449
5073.80104,0.00984
5075.72951,0.01501
5077.65798,0.02400
5079.58645,0.03380
5081.51492,0.04119
5083.44339,0.04446
5085.37185,0.03718
5087.30032,0.02835
5089.22879,0.03541
5091.15726,0.04591
5093.08573,0.04193
5095.01420,0.03110
5096.94267,0.02657
5098.87113,0.02833
5100.79960,0.02600
5102.72807,0.02246
5104.65654,0.02627
5106.58501,0.02893
5108.51348,0.02823
5110.44195,0.03006
5112.37042,0.02883
5114.29888,0.02461
5116.22735,0.02493
5118.15582,0.02436
5120.08429,0.01228
5122.01276,-0.00636
5123.94123,-0.01176
5125.86970,0.00258
5127.79816,0.01868
5129.72663,0.02425
5131.65510,0.02646
5133.58357,0.03393
5135.51204,0.03965
5137.44051,0.03462
5139.36898,0.03468
5141.29745,0.04636
5143.22591,0.05110
5145.15438,0.04562
5147.08285,0.03512
5149.01132,0.02365
5150.93979,0.02048
5152.86826,0.02334
5154.79673,0.03103
5156.72519,0.04445
5158.65366,0.04564
5160.58213,0.02932
5162.51060,0.01996
5164.43907,0.03098
5166.36754,0.04130
5168.29601,0.03825
5170.22448,0.03073
5172.15294,0.02481
5174.08141,0.02895
5176.00988,0.04234
5177.93835,0.04710
5179.86682,0.03462
5181.79529,0.01914
5183.72376,0.02079
5185.65222,0.03559
5187.58069,0.04337
5189.50916,0.04065
5191.43763,0.03741
5193.36610,0.03405
5195.29457,0.02364
5197.22304,0.01938
5199.15151,0.03153
5201.07997,0.04035
5203.00844,0.04038
5204.93691,0.04038
5206.86538,0.03628
5208.79385,0.03264
5210.72232,0.04093
5212.65079,0.05314
5214.57925,0.05651
5216.50772,0.04901
5218.43619,0.03959
5220.36466,0.03914
5222.29313,0.04051
5224.22160,0.03778
5226.15007,0.03823
5228.07854,0.03727
5230.00700,0.03713
5231.93547,0.04678
5233.86394,0.05153
5235.79241,0.04720
5237.72088,0.05116
5239.64935,0.05730
5241.57782,0.05135
5243.50628,0.04775
5245.43475,0.06266
5247.36322,0.07772
5249.29169,0.07389
5251.22016,0.05918
5253.14863,0.04264
5255.07710,0.03699
5257.00556,0.04376
5258.93403,0.03960
5260.86250,0.02651
5262.79097,0.02312
5264.71944,0.02320
5266.64791,0.02064
5268.57638,0.03214
5270.50485,0.05661
5272.43331,0.06839
5274.36178,0.05794
5276.29025,0.04216
5278.21872,0.03830
5280.14719,0.04001
5282.07566,0.03771
5284.00413,0.02978
5285.93259,0.02293
5287.86106,0.02838
5289.78953,0.03127
5291.71800,0.02453
5293.64647,0.02968
5295.57494,0.04262
5297.50341,0.04896
5299.43188,0.05105
5301.36034,0.05196
5303.28881,0.04815
5305.21728,0.03414
5307.14575,0.02066
5309.07422,0.03108
5311.00269,0.05598
5312.93116,0.06747
5314.85962,0.05683
5316.78809,0.04133
5318.71656,0.04180
5320.64503,0.04864
5322.57350,0.05095
5324.50197,0.05557
5326.43044,0.06272
5328.35891,0.07028
5330.28737,0.08373
5332.21584,0.09447
5334.14431,0.08406
5336.07278,0.06330
5338.00125,0.05639
5339.92972,0.06716
5341.85819,0.08732
5343.78665,0.11317
5345.71512,0.13262
5347.64359,0.12964
5349.57206,0.10734
5351.50053,0.08018
5353.42900,0.06083
5355.35747,0.05358
5357.28594,0.05499
5359.21440,0.05318
5361.14287,0.03147
5363.07134,0.00809
5364.99981,0.02015
5366.92828,0.04951
5368.85675,0.05882
5370.78522,0.05001
5372.71368,0.04935
5374.64215,0.06639
5376.57062,0.08155
5378.49909,0.08561
5380.42756,0.08996
5382.35603,0.09266
5384.28450,0.08501
5386.21297,0.07575
5388.14143,0.07325
5390.06990,0.07431
5391.99837,0.07731
5393.92684,0.07515
5395.85531,0.06580
5397.78378,0.05357
5399.71225,0.04853
5401.64071,0.05913
5403.56918,0.06929
5405.49765,0.06409
5407.42612,0.05606
5409.35459,0.05546
5411.28306,0.06184
5413.21153,0.07472
5415.13999,0.08330
5417.06846,0.08836
5418.99693,0.08682
5420.92540,0.06684
5422.85387,0.04577
5424.78234,0.04193
5426.71081,0.04803
5428.63928,0.06535
5430.56774,0.09415
5432.49621,0.10707
5434.42468,0.09895
5436.35315,0.08967
5438.28162,0.08749
5440.21009,0.09123
5442.13856,0.08645
5444.06702,0.06517
5445.99549,0.04205
5447.92396,0.03869
5449.85243,0.05537
5451.78090,0.06702
5453.70937,0.06424
5455.63784,0.05099
5457.56631,0.04235
5459.49477,0.05204
5461.42324,0.06605
5463.35171,0.06696
5465.28018,0.05292
5467.20865,0.04062
5469.13712,0.04283
5471.06559,0.05027
5472.99405,0.05811
5474.92252,0.06542
5476.85099,0.06513
5478.77946,0.07006
5480.70793,0.08381
5482.63640,0.08362
5484.56487,0.07211
5486.49334,0.07182
5488.42180,0.07278
5490.35027,0.06578
5492.27874,0.06463
5494.20721,0.06249
5496.13568,0.05927
5498.06415,0.06720
5499.99262,0.06978
5501.92108,0.05498
5503.84955,0.04936
5505.77802,0.06676
5507.70649,0.08366
5509.63496,0.08811
5511.56343,0.08583
5513.49190,0.07359
5515.42037,0.05700
5517.34883,0.05412
5519.27730,0.07239
5521.20577,0.08871
5523.13424,0.07861
5525.06271,0.05401
5526.99118,0.03815
5528.91965,0.04251
5530.84811,0.06724
5532.77658,0.08091
5534.70505,0.06654
5536.63352,0.06069
5538.56199,0.08400
5540.49046,0.09985
5542.41893,0.08724
5544.34740,0.07620
5546.27586,0.07437
5548.20433,0.06464
5550.13280,0.05140
5552.06127,0.04176
5553.98974,0.04742
5555.91821,0.07030
5557.84668,0.08710
5559.77514,0.07981
5561.70361,0.06370
5563.63208,0.06234
5565.56055,0.05876
5567.48902,0.03722
5569.41749,0.01315
5571.34596,-0.00184
5573.27443,0.00506
5575.20289,0.03383
5577.13136,0.06053
5579.05983,0.07413
5580.98830,0.07864
5582.91677,0.07512
5584.84524,0.07140
5586.77371,0.07036
5588.70217,0.06106
5590.63064,0.05230
5592.55911,0.05296
5594.48758,0.05953
5596.41605,0.06578
5598.34452,0.05586
5600.27299,0.04348
5602.20145,0.04512
5604.12992,0.05046
5606.05839,0.06267
5607.98686,0.08069
5609.91533,0.08737
5611.84380,0.07549
5613.77227,0.06147
5615.70074,0.06392
5617.62920,0.08192
5619.55767,0.10662
5621.48614,0.12055
5623.41461,0.10799
5625.34308,0.08579
5627.27155,0.08664
5629.20002,0.09858
5631.12848,0.09042
5633.05695,0.07874
5634.98542,0.08225
5636.91389,0.08579
5638.84236,0.07894
5640.77083,0.05882
5642.69930,0.04354
5644.62777,0.06334
5646.55623,0.09522
5648.48470,0.09502
5650.41317,0.07632
5652.34164,0.07136
5654.27011,0.06828
5656.19858,0.05700
5658.12705,0.05513
5660.05551,0.06461
5661.98398,0.08550
5663.91245,0.10304
5665.84092,0.09861
5667.76939,0.08453
5669.69786,0.06528
5671.62633,0.05187
5673.55480,0.05993
5675.48326,0.07915
5677.41173,0.09474
5679.34020,0.09637
5681.26867,0.07913
5683.19714,0.06168
5685.12561,0.07462
5687.05408,0.09960
5688.98254,0.09326
5690.91101,0.06729
5692.83948,0.05330
5694.76795,0.06168
5696.69642,0.08664
5698.62489,0.09706
5700.55336,0.07551
5702.48183,0.04331
5704.41029,0.03244
5706.33876,0.04593
5708.26723,0.05348
5710.19570,0.05039
5712.12417,0.06178
5714.05264,0.08638
5715.98111,0.10121
5717.90957,0.09604
5719.83804,0.07425
5721.76651,0.05530
5723.69498,0.05592
5725.62345,0.05986
5727.55192,0.05539
5729.48039,0.06234
5731.40886,0.08198
5733.33732,0.09392
5735.26579,0.09809
5737.19426,0.10409
5739.12273,0.09873
5741.05120,0.07313
5742.97967,0.05066
5744.90814,0.05475
5746.83660,0.07450
5748.76507,0.08187
5750.69354,0.08480
5752.62201,0.10054
5754.55048,0.10423
5756.47895,0.08200
5758.40742,0.05748
5760.33588,0.05660
5762.26435,0.07868
5764.19282,0.09404
5766.12129,0.07795
5768.04976,0.03877
5769.97823,0.02327
5771.90670,0.05216
5773.83517,0.07258
5775.76363,0.05634
5777.69210,0.03721
5779.62057,0.03893
5781.54904,0.05378
5783.47751,0.07009
5785.40598,0.09008
5787.33445,0.10776
5789.26291,0.10356
5791.19138,0.09514
5793.11985,0.10094
5795.04832,0.08952
5796.97679,0.06429
5798.90526,0.06626
5800.83373,0.07423
5802.76220,0.06816
5804.69066,0.08252
5806.61913,0.09813
5808.54760,0.07502
5810.47607,0.05190
5812.40454,0.06260
5814.33301,0.07692
5816.26148,0.06356
5818.18994,0.03919
5820.11841,0.03040
5822.04688,0.03910
5823.97535,0.05894
5825.90382,0.07699
5827.83229,0.08669
5829.76076,0.09646
5831.68923,0.11024
5833.61769,0.11486
5835.54616,0.09874
5837.47463,0.07773
5839.40310,0.06915
5841.33157,0.06997
5843.26004,0.08071
5845.18851,0.10656
5847.11697,0.13395
5849.04544,0.14400
5850.97391,0.12435
5852.90238,0.08948
5854.83085,0.07774
5856.75932,0.08635
5858.68779,0.08045
5860.61626,0.07762
5862.54472,0.10352
5864.47319,0.13203
5866.40166,0.13553
5868.33013,0.10938
5870.25860,0.07642
5872.18707,0.07355
5874.11554,0.09985
5876.04400,0.11955
5877.97247,0.10781
5879.90094,0.08256
5881.82941,0.06917
5883.75788,0.06060
5885.68635,0.05278
5887.61482,0.06383
5889.54329,0.09362
5891.47175,0.11646
5893.40022,0.12022
5895.32869,0.11065
5897.25716,0.09641
5899.18563,0.08301
5901.11410,0.07516
5903.04257,0.07791
5904.97103,0.08849
5906.89950,0.10153
5908.82797,0.10256
5910.75644,0.08489
5912.68491,0.06732
5914.61338,0.05502
5916.54185,0.04240
5918.47032,0.03509
5920.39878,0.04488
5922.32725,0.08041
5924.25572,0.11796
5926.18419,0.13377
5928.11266,0.14250
5930.04113,0.13639
5931.96960,0.09869
5933.89806,0.06124
5935.82653,0.05440
5937.75500,0.06608
5939.68347,0.07927
5941.61194,0.08907
5943.54041,0.09865
5945.46888,0.11265
5947.39734,0.11322
5949.32581,0.08669
5951.25428,0.07216
5953.18275,0.10615
5955.11122,0.15901
5957.03969,0.15046
5958.96816,0.06434
5960.89663,0.01291
5962.82509,0.03750
5964.75356,0.07900
5966.68203,0.10694
5968.61050,0.10453
5970.53897,0.08646
5972.46744,0.07968
5974.39591,0.07839
5976.32437,0.08036
5978.25284,0.10178
5980.18131,0.12126
5982.10978,0.12229
5984.03825,0.13905
5985.96672,0.13730
5987.89519,0.07901
5989.82366,0.03024
5991.75212,0.02862
5993.68059,0.05936
5995.60906,0.09135
5997.53753,0.09057
5999.46600,0.05804
6001.39447,0.02843
6003.32294,0.03812
6005.25140,0.05846
6007.17987,0.05604
6009.10834,0.05911
6011.03681,0.07981
6012.96528,0.10213
6014.89375,0.10771
6016.82222,0.10220
6018.75069,0.10764
6020.67915,0.10802
6022.60762,0.08496
6024.53609,0.06799
6026.46456,0.09089
6028.39303,0.12910
6030.32150,0.13865
6032.24997,0.11761
6034.17843,0.08775
6036.10690,0.07618
6038.03537,0.06861
6039.96384,0.04169
6041.89231,0.00495
6043.82078,-0.00047
6045.74925,0.04860
6047.67772,0.09619
6049.60618,0.10401
6051.53465,0.09892
6053.46312,0.09949
6055.39159,0.08982
6057.32006,0.04670
6059.24853,-0.00110
6061.17700,-0.00737
6063.10546,0.04073
6065.03393,0.10217
6066.96240,0.12032
6068.89087,0.11575
6070.81934,0.12726
6072.74781,0.13791
6074.67628,0.13038
6076.60475,0.11214
6078.53321,0.10982
6080.46168,0.13194
6082.39015,0.12958
6084.31862,0.08715
6086.24709,0.04031
6088.17556,0.00405
6090.10403,-0.00881
6092.03249,0.02295
6093.96096,0.07807
6095.88943,0.10726
6097.81790,0.11027
6099.74637,0.10993
6101.67484,0.10589
6103.60331,0.09760
6105.53177,0.08380
6107.46024,0.08784
6109.38871,0.13269
6111.31718,0.16017
6113.24565,0.12198
6115.17412,0.07924
6117.10259,0.09342
6119.03106,0.12212
6120.95952,0.10840
6122.88799,0.07081
6124.81646,0.04594
6126.74493,0.05497
6128.67340,0.07041
6130.60187,0.06013
6132.53034,0.04227
6134.45880,0.04534
6136.38727,0.06596
6138.31574,0.07531
6140.24421,0.07142
6142.17268,0.06811
6144.10115,0.05734
6146.02962,0.04024
6147.95809,0.03981
6149.88655,0.06760
6151.81502,0.11000
6153.74349,0.12393
6155.67196,0.08857
6157.60043,0.04683
6159.52890,0.03227
6161.45737,0.03559
6163.38583,0.03602
6165.31430,0.04300
6167.24277,0.07836
6169.17124,0.12028
6171.09971,0.13145
6173.02818,0.10826
6174.95665,0.07619
6176.88512,0.05221
6178.81358,0.05414
6180.74205,0.07194
6182.67052,0.07069
6184.59899,0.06406
6186.52746,0.07575
6188.45593,0.08710
6190.38440,0.07161
6192.31286,0.05197
6194.24133,0.04411
6196.16980,0.01782
6198.09827,-0.02360
6200.02674,-0.03265
6201.95521,0.01659
6203.88368,0.08140
6205.81215,0.11077
6207.74061,0.12514
6209.66908,0.12241
6211.59755,0.10244
6213.52602,0.09702
6215.45449,0.09096
6217.38296,0.07138
6219.31143,0.05816
6221.23989,0.06072
6223.16836,0.04342
6225.09683,0.00276
6227.02530,0.01075
6228.95377,0.05780
6230.88224,0.07875
6232.81071,0.07311
6234.73918,0.06464
6236.66764,0.06627
6238.59611,0.06699
6240.52458,0.05318
6242.45305,0.07308
6244.38152,0.14095
6246.30999,0.18448
6248.23846,0.18186
6250.16692,0.13806
6252.09539,0.05534
6254.02386,0.01160
6255.95233,0.04853
6257.88080,0.09119
6259.80927,0.07358
6261.73774,0.04150
6263.66621,0.05091
6265.59467,0.05198
6267.52314,0.03088
6269.45161,0.05519
6271.38008,0.08357
6273.30855,0.09696
6275.23702,0.14386
6277.16549,0.16433
6279.09395,0.10765
6281.02242,0.05202
6282.95089,0.06441
6284.87936,0.10906
6286.80783,0.11206
6288.73630,0.06065
6290.66477,0.00141
6292.59323,-0.01064
6294.52170,0.03702
6296.45017,0.09412
6298.37864,0.10280
6300.30711,0.07525
6302.23558,0.04674
6304.16405,0.03533
6306.09252,0.04784
6308.02098,0.05735
6309.94945,0.05102
6311.87792,0.05522
6313.80639,0.05344
6315.73486,0.03020
6317.66333,0.03431
6319.59180,0.07995
6321.52026,0.10681
6323.44873,0.09054
6325.37720,0.09136
6327.30567,0.11910
6329.23414,0.12633
6331.16261,0.10659
6333.09108,0.06888
6335.01955,0.04221
6336.94801,0.05499
6338.87648,0.07875
6340.80495,0.07574
6342.73342,0.05171
6344.66189,0.04106
6346.59036,0.06800
6348.51883,0.12721
6350.44729,0.14832
6352.37576,0.09277
6354.30423,0.06554
6356.23270,0.09949
6358.16117,0.10622
6360.08964,0.07743
6362.01811,0.08193
6363.94658,0.07801
6365.87504,0.03733
6367.80351,0.05337
6369.73198,0.10801
6371.66045,0.14190
6373.58892,0.15474
6375.51739,0.10448
6377.44586,0.03954
6379.37432,0.04504
6381.30279,0.09360
6383.23126,0.12050
6385.15973,0.10453
6387.08820,0.09534
6389.01667,0.12839
6390.94514,0.14103
6392.87361,0.05542
6394.80207,-0.01805
6396.73054,0.02791
6398.65901,0.09310
6400.58748,0.11795
6402.51595,0.11622
6404.44442,0.08694
6406.37289,0.04403
6408.30135,0.03495
6410.22982,0.08103
6412.15829,0.12219
6414.08676,0.10538
6416.01523,0.05363
6417.94370,0.03267
6419.87217,0.06205
6421.80064,0.06531
6423.72910,0.03921
6425.65757,0.02326
6427.58604,0.02764
6429.51451,0.07910
6431.44298,0.14073
6433.37145,0.14841
6435.29992,0.14010
6437.22838,0.13342
6439.15685,0.09721
6441.08532,0.06572
6443.01379,0.07814
6444.94226,0.10379
6446.87073,0.13555
6448.79920,0.18017
6450.72766,0.18578
6452.65613,0.14330
6454.58460,0.09437
6456.51307,0.05625
6458.44154,0.04817
6460.37001,0.09159
6462.29848,0.16528
6464.22695,0.18576
6466.15541,0.13998
6468.08388,0.10591
6470.01235,0.09203
6471.94082,0.08597
6473.86929,0.08709
6475.79776,0.06135
6477.72623,0.03081
6479.65469,-0.00721
6481.58316,-0.07003
6483.51163,-0.08902
6485.44010,-0.03388
6487.36857,0.03505
6489.29704,0.04263
6491.22551,0.01903
6493.15398,0.04775
6495.08244,0.08857
6497.01091,0.08548
6498.93938,0.08403
6500.86785,0.10674
6502.79632,0.07550
6504.72479,0.00751
6506.65326,0.00774
6508.58172,0.04737
6510.51019,0.05717
6512.43866,0.05504
6514.36713,0.04143
6516.29560,0.01350
6518.22407,0.01347
6520.15254,0.06160
6522.08101,0.12940
6524.00947,0.16603
6525.93794,0.15260
6527.86641,0.10782
6529.79488,0.05570
6531.72335,0.03753
6533.65182,0.04915
6535.58029,0.03852
6537.50875,0.01488
6539.43722,0.01359
6541.36569,0.05932
6543.29416,0.14894
6545.22263,0.17127
6547.15110,0.10223
6549.07957,0.04073
6551.00804,0.04116
6552.93650,0.05332
6554.86497,0.02957
6556.79344,0.03702
6558.72191,0.09329
6560.65038,0.12929
6562.57885,0.12399
6564.50732,0.07393
6566.43578,0.00629
6568.36425,-0.02132
6570.29272,-0.00112
6572.22119,0.03561
6574.14966,0.07398
6576.07813,0.11117
6578.00660,0.11982
6579.93507,0.10344
6581.86353,0.08560
6583.79200,0.04366
6585.72047,-0.02297
6587.64894,-0.05440
6589.57741,-0.00119
6591.50588,0.09238
6593.43435,0.13691
6595.36281,0.14516
6597.29128,0.17822
6599.21975,0.20049
6601.14822,0.17625
6603.07669,0.13797
6605.00516,0.11304
6606.93363,0.09991
6608.86210,0.10587
6610.79056,0.10576
6612.71903,0.05917
6614.64750,0.00769
6616.57597,0.01069
6618.50444,0.04035
6620.43291,0.03589
6622.36138,0.02028
6624.28984,0.03826
6626.21831,0.05293
6628.14678,0.03071
6630.07525,0.01888
6632.00372,0.05102
6633.93219,0.07588
6635.86066,0.07675
6637.78912,0.09200
6639.71759,0.10288
6641.64606,0.08464
6643.57453,0.05437
6645.50300,0.05626
6647.43147,0.09406
6649.35994,0.10713
6651.28841,0.10253
6653.21687,0.12076
6655.14534,0.12216
6657.07381,0.04468
6659.00228,-0.05653
6660.93075,-0.08282
6662.85922,-0.03117
6664.78769,0.02160
6666.71615,0.01796
6668.64462,0.00677
6670.57309,0.05527
6672.50156,0.13097
6674.43003,0.15084
6676.35850,0.11972
6678.28697,0.10532
6680.21544,0.11633
6682.14390,0.12680
6684.07237,0.14605
6686.00084,0.15205
6687.92931,0.08486
6689.85778,0.01921
6691.78625,0.03076
6693.71472,0.04707
6695.64318,0.05267
6697.57165,0.09518
6699.50012,0.19228
6701.42859,0.25692
6703.35706,0.19651
6705.28553,0.09501
6707.21400,0.04290
6709.14247,0.01777
6711.07093,0.01642
6712.99940,0.03573
6714.92787,0.04345
6716.85634,0.05703
6718.78481,0.08679
6720.71328,0.07199
6722.64175,0.01263
6724.57021,-0.01404
6726.49868,0.01554
6728.42715,0.05896
6730.35562,0.08533
6732.28409,0.11064
6734.21256,0.12628
6736.14103,0.10587
6738.06950,0.10653
6739.99796,0.16281
6741.92643,0.19148
6743.85490,0.13027
6745.78337,0.04717
6747.71184,0.02121
6749.64031,0.04549
6751.56878,0.06136
6753.49724,0.04978
6755.42571,0.02167
6757.35418,0.00369
6759.28265,0.01777
6761.21112,0.04819
6763.13959,0.05192
6765.06806,0.01820
6766.99653,-0.02725
6768.92499,-0.02582
6770.85346,0.06227
6772.78193,0.16205
6774.71040,0.14287
6776.63887,0.03197
6778.56734,-0.01446
6780.49581,0.00315
6782.42427,0.03744
6784.35274,0.08897
6786.28121,0.13887
6788.20968,0.13961
6790.13815,0.05557
6792.06662,-0.03830
6793.99509,-0.04939
6795.92355,-0.03539
6797.85202,-0.02115
6799.78049,0.05599
6801.70896,0.17404
6803.63743,0.21150
6805.56590,0.15239
6807.49437,0.10383
6809.42284,0.10607
6811.35130,0.10702
6813.27977,0.06590
6815.20824,0.01666
6817.13671,0.00503
6819.06518,0.03188
6820.99365,0.07316
6822.92212,0.10270
6824.85058,0.09965
6826.77905,0.06816
6828.70752,0.00519
6830.63599,-0.04192
6832.56446,-0.01700
6834.49293,0.06132
6836.42140,0.15975
6838.34987,0.21000
6840.27833,0.19022
6842.20680,0.15943
6844.13527,0.09798
6846.06374,-0.02645
6847.99221,-0.10874
6849.92068,-0.07654
6851.84915,-0.02481
6853.77761,0.01246
6855.70608,0.06856
6857.63455,0.10970
6859.56302,0.10754
6861.49149,0.12696
6863.41996,0.17203
6865.34843,0.14195
6867.27690,0.05796
6869.20536,0.04597
6871.13383,0.09809
6873.06230,0.10520
6874.99077,0.05090
6876.91924,0.02121
6878.84771,0.04189
6880.77618,0.08022
6882.70464,0.10818
6884.63311,0.10996
6886.56158,0.08635
6888.49005,0.11098
6890.41852,0.19764
6892.34699,0.20298
6894.27546,0.09584
6896.20393,0.02447
6898.13239,0.08584
6900.06086,0.18548
6901.98933,0.22011
6903.91780,0.19709
6905.84627,0.16489
6907.77474,0.17639
6909.70321,0.15942
6911.63167,0.06040
6913.56014,-0.01423
6915.48861,0.00124
6917.41708,0.03663
6919.34555,0.04631
6921.27402,0.03611
6923.20249,0.00265
6925.13096,-0.03031
6927.05942,-0.04296
6928.98789,-0.02440
6930.91636,0.07140
6932.84483,0.15778
6934.77330,0.08334
6936.70177,-0.06412
6938.63024,-0.13544
6940.55870,-0.07498
6942.48717,0.01292
6944.41564,0.04442
6946.34411,0.04066
6948.27258,0.00061
6950.20105,-0.05535
6952.12952,-0.05781
6954.05799,-0.01562
6955.98645,-0.02770
6957.91492,-0.08461
6959.84339,-0.08441
6961.77186,-0.03753
6963.70033,0.00987
6965.62880,0.03866
6967.55727,0.01406
6969.48573,0.00113
6971.41420,0.06668
6973.34267,0.11414
6975.27114,0.09417
6977.19961,0.10189
6979.12808,0.15913
6981.05655,0.20109
6982.98501,0.20850
6984.91348,0.17657
6986.84195,0.08257
6988.77042,-0.03118
6990.69889,-0.07590
6992.62736,-0.03019
6994.55583,0.04770
6996.48430,0.09039
6998.41276,0.09054
7000.34123,0.06410
7002.26970,0.00037
7004.19817,-0.07381
7006.12664,-0.09630
7008.05511,-0.02396
7009.98358,0.04691
7011.91204,0.02255
7013.84051,-0.03162
7015.76898,-0.02630
7017.69745,-0.01914
7019.62592,0.00144
7021.55439,0.09303
7023.48286,0.15129
7025.41133,0.11805
7027.33979,0.06941
7029.26826,0.07481
7031.19673,0.17388
7033.12520,0.25091
7035.05367,0.20704
7036.98214,0.12592
7038.91061,0.06106
7040.83907,-0.01193
7042.76754,-0.01208
7044.69601,0.15009
7046.62448,0.30821
7048.55295,0.32198
7050.48142,0.29871
7052.40989,0.27816
7054.33836,0.19797
7056.26682,0.12538
7058.19529,0.12718
7060.12376,0.12010
7062.05223,0.05857
7063.98070,0.00702
7065.90917,0.02238
7067.83764,0.07154
7069.76610,0.08525
7071.69457,0.01002
7073.62304,-0.05750
7075.55151,-0.06014
7077.47998,-0.07339
7079.40845,-0.09872
7081.33692,-0.04995
7083.26539,0.06405
7085.19385,0.12318
7087.12232,0.07114
7089.05079,-0.04717
7090.97926,-0.09493
7092.90773,-0.01819
7094.83620,0.06378
7096.76467,0.05791
7098.69313,0.00747
7100.62160,-0.02174
7102.55007,0.01876
7104.47854,0.10089
7106.40701,0.11244
7108.33548,0.05405
7110.26395,0.02350
7112.19242,0.04142
7114.12088,0.07667
7116.04935,0.08633
7117.97782,0.02977
7119.90629,-0.02520
7121.83476,0.00846
7123.76323,0.08590
7125.69170,0.14230
7127.62016,0.13335
7129.54863,0.10441
7131.47710,0.13855
7133.40557,0.21167
7135.33404,0.26397
7137.26251,0.24345
7139.19098,0.13799
7141.11944,0.05401
7143.04791,0.05996
7144.97638,0.09481
7146.90485,0.08071
7148.83332,0.06398
7150.76179,0.13211
7152.69026,0.21623
7154.61873,0.17004
7156.54719,0.05769
7158.47566,0.02003
7160.40413,0.05470
7162.33260,0.05497
7164.26107,-0.02078
7166.18954,-0.07621
7168.11801,-0.08222
7170.04647,-0.08669
7171.97494,-0.02108
7173.90341,0.13631
7175.83188,0.21973
7177.76035,0.13023
7179.68882,0.00889
7181.61729,-0.05915
7183.54576,-0.05986
7185.47422,-0.00445
7187.40269,0.05853
7189.33116,0.14315
7191.25963,0.19718
7193.18810,0.14019
7195.11657,0.09026
7197.04504,0.09587
7198.97350,0.06717
7200.90197,0.01821
7202.83044,-0.02082
7204.75891,-0.04251
7206.68738,-0.02336
7208.61585,-0.03450
7210.54432,-0.05536
7212.47279,-0.03508
7214.40125,-0.03399
7216.32972,-0.04081
7218.25819,0.00731
7220.18666,0.01308
7222.11513,-0.00508
7224.04360,0.02371
7225.97207,0.05017
7227.90053,0.04747
7229.82900,0.10042
7231.75747,0.17316
7233.68594,0.18105
7235.61441,0.16995
7237.54288,0.10440
7239.47135,0.00632
7241.39982,-0.04618
7243.32828,-0.05465
7245.25675,-0.04879
7247.18522,-0.07835
7249.11369,-0.07027
7251.04216,0.07641
7252.97063,0.19724
7254.89910,0.09888
7256.82756,0.01137
7258.75603,0.03048
7260.68450,0.10895
7262.61297,0.23416
7264.54144,0.32057
7266.46991,0.28292
7268.39838,0.25446
7270.32685,0.25281
7272.25531,0.13332
7274.18378,-0.00671
7276.11225,0.01382
7278.04072,0.10882
7279.96919,0.13637
7281.89766,0.10529
7283.82613,0.04588
7285.75459,-0.02348
7287.68306,-0.00149
7289.61153,0.05895
7291.54000,0.05105
7293.46847,-0.02797
7295.39694,-0.08638
7297.32541,-0.07533
7299.25387,-0.10255
7301.18234,-0.15621
7303.11081,-0.12238
7305.03928,0.03029
7306.96775,0.24520
7308.89622,0.29834
7310.82469,0.10040
7312.75316,-0.07486
7314.68162,-0.14918
7316.61009,-0.13374
7318.53856,0.00038
7320.46703,0.15018
7322.39550,0.15118
7324.32397,-0.02890
7326.25244,-0.19300
7328.18090,-0.16608
7330.10937,0.03730
7332.03784,0.16024
7333.96631,0.17098
7335.89478,0.16134
7337.82325,0.14737
7339.75172,0.18350
7341.68019,0.21352
7343.60865,0.14327
7345.53712,0.11995
7347.46559,0.18697
7349.39406,0.22857
7351.32253,0.15522
7353.25100,0.01025
7355.17947,-0.04574
7357.10793,0.00957
7359.03640,-0.02629
7360.96487,-0.10909
7362.89334,0.02276
7364.82181,0.15612
7366.75028,0.10149
7368.67875,0.01716
7370.60722,-0.00772
7372.53568,0.01171
7374.46415,0.11914
7376.39262,0.28216
7378.32109,0.30610
7380.24956,0.25219
7382.17803,0.22878
7384.10650,0.16796
7386.03496,0.06516
7387.96343,-0.00765
7389.89190,-0.07495
7391.82037,-0.07146
7393.74884,0.06634
7395.67731,0.18092
7397.60578,0.12340
7399.53425,0.03962
7401.46271,0.03957
7403.39118,0.08062
7405.31965,0.14117
7407.24812,0.15833
7409.17659,0.08246
7411.10506,-0.01546
7413.03353,-0.06781
7414.96199,-0.08721
7416.89046,-0.07436
7418.81893,0.02737
7420.74740,0.17090
7422.67587,0.21986
7424.60434,0.20694
7426.53281,0.13268
7428.46128,0.00352
7430.38974,-0.04039
7432.31821,0.02147
7434.24668,0.08657
7436.17515,0.15417
7438.10362,0.17920
7440.03209,0.15269
7441.96056,0.12849
7443.88902,0.12885
7445.81749,0.18629
7447.74596,0.28676
7449.67443,0.29090
7451.60290,0.19083
7453.53137,0.13368
7455.45984,0.08746
7457.38831,0.08613
7459.31677,0.14719
7461.24524,0.13996
7463.17371,0.09471
7465.10218,0.08246
7467.03065,0.14154
7468.95912,0.21005
7470.88759,0.14136
7472.81605,0.02360
7474.74452,-0.02068
7476.67299,-0.07973
7478.60146,-0.09291
7480.52993,-0.00859
7482.45840,-0.04339
7484.38687,-0.08573
7486.31533,0.07849
7488.24380,0.25548
7490.17227,0.22203
7492.10074,0.08485
7494.02921,0.03936
7495.95768,0.06498
7497.88615,0.08238
