399.19301,0.08601
401.12148,0.37843
403.04995,0.27139
404.97842,0.13979
406.90689,0.17483
408.83536,0.25225
410.76382,0.19547
412.69229,0.05949
414.62076,0.02337
416.54923,0.06134
418.47770,0.07722
420.40617,0.07425
422.33464,0.04770
424.26311,0.00784
426.19157,0.02993
428.12004,0.08857
430.04851,0.15043
431.97698,0.19844
433.90545,0.20455
435.83392,0.17694
437.76239,0.11726
439.69085,0.03229
441.61932,-0.01332
443.54779,0.01855
445.47626,0.07114
447.40473,0.13923
449.33320,0.17196
451.26167,0.13613
453.19013,0.10297
455.11860,0.08617
457.04707,0.07009
458.97554,0.08045
460.90401,0.10125
462.83248,0.08499
464.76095,0.05099
466.68942,0.03859
468.61788,0.05365
470.54635,0.10178
472.47482,0.15371
474.40329,0.14536
476.33176,0.10210
478.26023,0.05890
480.18870,0.02693
482.11716,0.02993
484.04563,0.05468
485.97410,0.07438
487.90257,0.08222
489.83104,0.07453
491.75951,0.05675
493.68798,0.04658
495.61645,0.05680
497.54491,0.07419
499.47338,0.08940
501.40185,0.10079
503.33032,0.08977
505.25879,0.06661
507.18726,0.06563
509.11573,0.08793
511.04419,0.09992
512.97266,0.08709
514.90113,0.06006
516.82960,0.03952
518.75807,0.04755
520.68654,0.08116
522.61501,0.12424
524.54348,0.15229
526.47194,0.13234
528.40041,0.09455
530.32888,0.09219
532.25735,0.10640
534.18582,0.09642
536.11429,0.08586
538.04276,0.10561
539.97122,0.12970
541.89969,0.12402
543.82816,0.09713
545.75663,0.09483
547.68510,0.12053
549.61357,0.12324
551.54204,0.03392
553.47051,-0.07198
555.39897,-0.03476
557.32744,0.07045
559.25591,0.11240
561.18438,0.12194
563.11285,0.11774
565.04132,0.10377
566.96979,0.09158
568.89825,0.08676
570.82672,0.09425
572.75519,0.10249
574.68366,0.10891
576.61213,0.10986
578.54060,0.09579
580.46907,0.08439
582.39754,0.09791
584.32600,0.11189
586.25447,0.10529
588.18294,0.08941
590.11141,0.07166
592.03988,0.06204
593.96835,0.06900
595.89682,0.08181
597.82528,0.08661
599.75375,0.08701
601.68222,0.10120
603.61069,0.11881
605.53916,0.11494
607.46763,0.09932
609.39610,0.08296
611.32456,0.07087
613.25303,0.07308
615.18150,0.07967
617.10997,0.08155
619.03844,0.09219
620.96691,0.11242
622.89538,0.12543
624.82385,0.12896
626.75231,0.12151
628.68078,0.10067
630.60925,0.07931
632.53772,0.06923
634.46619,0.07486
636.39466,0.09190
638.32313,0.10881
640.25159,0.10800
642.18006,0.09691
644.10853,0.10374
646.03700,0.12213
647.96547,0.12857
649.89394,0.12012
651.82241,0.11452
653.75088,0.11856
655.67934,0.12001
657.60781,0.11830
659.53628,0.11616
661.46475,0.10619
663.39322,0.09239
665.32169,0.08141
667.25016,0.08474
669.17862,0.11576
671.10709,0.12632
673.03556,0.11884
674.96403,0.11593
676.89250,0.11840
678.82097,0.11885
680.74944,0.10857
682.67791,0.09465
684.60637,0.09746
686.53484,0.11947
688.46331,0.13059
690.39178,0.11919
692.32025,0.10926
694.24872,0.10872
696.17719,0.11487
698.10565,0.12643
700.03412,0.13316
701.96259,0.13204
703.89106,0.12624
705.81953,0.11527
707.74800,0.10776
709.67647,0.11578
711.60494,0.12946
713.53340,0.12617
715.46187,0.10729
717.39034,0.10098
719.31881,0.11480
721.24728,0.12532
723.17575,0.12349
725.10422,0.12034
727.03268,0.11994
728.96115,0.11949
730.88962,0.11357
732.81809,0.10411
734.74656,0.10171
736.67503,0.10681
738.60350,0.11205
740.53197,0.11398
742.46043,0.11563
744.38890,0.11928
746.31737,0.12200
748.24584,0.12734
750.17431,0.13571
752.10278,0.13698
754.03125,0.13223
755.95971,0.12867
757.88818,0.12351
759.81665,0.11560
761.74512,0.11198
763.67359,0.11385
765.60206,0.11021
767.53053,0.10021
769.45900,0.09875
771.38746,0.10785
773.31593,0.11771
775.24440,0.12553
777.17287,0.12739
779.10134,0.12371
781.02981,0.12487
782.95828,0.12655
784.88674,0.12119
786.81521,0.11800
788.74368,0.12020
790.67215,0.12158
792.60062,0.12007
794.52909,0.11767
796.45756,0.11851
798.38602,0.12289
800.31449,0.12473
802.24296,0.11991
804.17143,0.11377
806.09990,0.11023
808.02837,0.10669
809.95684,0.10261
811.88531,0.10352
813.81377,0.11235
815.74224,0.12230
817.67071,0.12820
819.59918,0.12860
821.52765,0.12424
823.45612,0.12157
825.38459,0.12237
827.31305,0.12031
829.24152,0.11352
831.16999,0.10960
833.09846,0.11419
835.02693,0.12214
836.95540,0.12542
838.88387,0.12161
840.81234,0.11742
842.74080,0.12279
844.66927,0.12887
846.59774,0.12142
848.52621,0.11188
850.45468,0.11461
852.38315,0.12097
854.31162,0.12001
856.24008,0.11904
858.16855,0.12503
860.09702,0.13215
862.02549,0.13475
863.95396,0.12911
865.88243,0.11602
867.81090,0.10672
869.73937,0.10857
871.66783,0.11459
873.59630,0.11701
875.52477,0.12000
877.45324,0.12837
879.38171,0.13642
881.31018,0.13871
883.23865,0.13529
885.16711,0.13020
887.09558,0.12966
889.02405,0.13200
890.95252,0.13275
892.88099,0.13079
894.80946,0.12485
896.73793,0.12018
898.66640,0.12619
900.59486,0.13730
902.52333,0.13980
904.45180,0.13248
906.38027,0.12152
908.30874,0.12022
910.23721,0.13077
912.16568,0.13428
914.09414,0.13170
916.02261,0.13553
917.95108,0.13879
919.87955,0.13428
921.80802,0.12817
923.73649,0.12806
925.66496,0.13376
927.59343,0.13699
929.52189,0.13154
931.45036,0.12575
933.37883,0.12833
935.30730,0.13393
937.23577,0.13528
939.16424,0.13328
941.09271,0.13193
943.02117,0.13074
944.94964,0.12792
946.87811,0.12482
948.80658,0.12396
950.73505,0.12654
952.66352,0.12969
954.59199,0.13238
956.52045,0.13574
958.44892,0.13478
960.37739,0.12845
962.30586,0.12488
964.23433,0.12882
966.16280,0.13518
968.09127,0.13786
970.01974,0.13703
971.94820,0.13402
973.87667,0.13175
975.80514,0.13248
977.73361,0.13320
979.66208,0.13485
981.59055,0.14046
983.51902,0.14482
985.44748,0.14337
987.37595,0.14125
989.30442,0.14204
991.23289,0.13981
993.16136,0.13314
995.08983,0.13026
997.01830,0.13287
998.94677,0.13397
1000.87523,0.13226
1002.80370,0.13262
1004.73217,0.13416
1006.66064,0.13554
1008.58911,0.13992
1010.51758,0.14559
1012.44605,0.14828
1014.37451,0.14364
1016.30298,0.13412
1018.23145,0.13157
1020.15992,0.13666
1022.08839,0.13770
1024.01686,0.13302
1025.94533,0.12852
1027.87380,0.12607
1029.80226,0.13085
1031.73073,0.13931
1033.65920,0.14123
1035.58767,0.13791
1037.51614,0.13439
1039.44461,0.13505
1041.37308,0.13562
1043.30154,0.13080
1045.23001,0.12856
1047.15848,0.13496
1049.08695,0.14518
1051.01542,0.14865
1052.94389,0.14226
1054.87236,0.13553
1056.80083,0.13640
1058.72929,0.14111
1060.65776,0.14192
1062.58623,0.14295
1064.51470,0.15204
1066.44317,0.16078
1068.37164,0.15992
1070.30011,0.15627
1072.22857,0.15789
1074.15704,0.16280
1076.08551,0.16168
1078.01398,0.15121
1079.94245,0.14075
1081.87092,0.13880
1083.79939,0.14239
1085.72786,0.14227
1087.65632,0.13854
1089.58479,0.13791
1091.51326,0.13903
1093.44173,0.14067
1095.37020,0.14554
1097.29867,0.14969
1099.22714,0.14891
1101.15560,0.14690
1103.08407,0.14726
1105.01254,0.14842
1106.94101,0.14491
1108.86948,0.14040
1110.79795,0.14824
1112.72642,0.16288
1114.65489,0.16596
1116.58335,0.15897
1118.51182,0.15392
1120.44029,0.15170
1122.36876,0.14835
1124.29723,0.14472
1126.22570,0.14144
1128.15417,0.13771
1130.08263,0.13856
1132.01110,0.14331
1133.93957,0.14253
1135.86804,0.13842
1137.79651,0.14015
1139.72498,0.14541
1141.65345,0.14801
1143.58191,0.14803
1145.51038,0.14682
1147.43885,0.14618
1149.36732,0.15026
1151.29579,0.15701
1153.22426,0.15874
1155.15273,0.15672
1157.08120,0.15711
1159.00966,0.15737
1160.93813,0.15476
1162.86660,0.15186
1164.79507,0.14987
1166.72354,0.15031
1168.65201,0.15232
1170.58048,0.15177
1172.50894,0.15084
1174.43741,0.15343
1176.36588,0.15595
1178.29435,0.15494
1180.22282,0.15103
1182.15129,0.14593
1184.07976,0.14265
1186.00823,0.14327
1187.93669,0.14688
1189.86516,0.14993
1191.79363,0.14980
1193.72210,0.14812
1195.65057,0.14804
1197.57904,0.14982
1199.50751,0.15142
1201.43597,0.15243
1203.36444,0.15367
1205.29291,0.15426
1207.22138,0.15284
1209.14985,0.15008
1211.07832,0.14828
1213.00679,0.14864
1214.93526,0.14965
1216.86372,0.14893
1218.79219,0.14737
1220.72066,0.14796
1222.64913,0.15084
1224.57760,0.15468
1226.50607,0.15717
1228.43454,0.15605
1230.36300,0.15291
1232.29147,0.15084
1234.21994,0.15091
1236.14841,0.15112
1238.07688,0.14995
1240.00535,0.14831
1241.93382,0.14742
1243.86229,0.14778
1245.79075,0.14848
1247.71922,0.15066
1249.64769,0.15419
1251.57616,0.15441
1253.50463,0.15281
1255.43310,0.15334
1257.36157,0.15266
1259.29003,0.14957
1261.21850,0.14849
1263.14697,0.14893
1265.07544,0.14602
1267.00391,0.14099
1268.93238,0.14098
1270.86085,0.14700
1272.78932,0.15115
1274.71778,0.14871
1276.64625,0.14559
1278.57472,0.14796
1280.50319,0.15142
1282.43166,0.15262
1284.36013,0.15509
1286.28860,0.15550
1288.21706,0.15373
1290.14553,0.15659
1292.07400,0.15947
1294.00247,0.15579
1295.93094,0.14906
1297.85941,0.14380
1299.78788,0.13600
1301.71634,0.11784
1303.64481,0.09932
1305.57328,0.10511
1307.50175,0.13437
1309.43022,0.15703
1311.35869,0.16200
1313.28716,0.16272
1315.21563,0.16380
1317.14409,0.16274
1319.07256,0.15905
1321.00103,0.15395
1322.92950,0.15300
1324.85797,0.15432
1326.78644,0.15297
1328.71491,0.15134
1330.64337,0.14818
1332.57184,0.14622
1334.50031,0.14997
1336.42878,0.15408
1338.35725,0.15604
1340.28572,0.15014
1342.21419,0.14007
1344.14266,0.13798
1346.07112,0.13947
1347.99959,0.14345
1349.92806,0.15010
1351.85653,0.15269
1353.78500,0.15276
1355.71347,0.15348
1357.64194,0.15510
1359.57040,0.15892
1361.49887,0.16448
1363.42734,0.16628
1365.35581,0.16410
1367.28428,0.16361
1369.21275,0.16388
1371.14122,0.16591
1373.06969,0.17242
1374.99815,0.17665
1376.92662,0.17364
1378.85509,0.16940
1380.78356,0.16693
1382.71203,0.16662
1384.64050,0.17039
1386.56897,0.17681
1388.49743,0.17772
1390.42590,0.17525
1392.35437,0.17995
1394.28284,0.18891
1396.21131,0.19010
1398.13978,0.18421
1400.06825,0.17872
1401.99672,0.17604
1403.92518,0.17347
1405.85365,0.16870
1407.78212,0.16499
1409.71059,0.16607
1411.63906,0.17039
1413.56753,0.17428
1415.49600,0.18169
1417.42446,0.19748
1419.35293,0.20469
1421.28140,0.19438
1423.20987,0.18777
1425.13834,0.18492
1427.06681,0.18248
1428.99528,0.18208
1430.92375,0.17808
1432.85221,0.17442
1434.78068,0.18028
1436.70915,0.18654
1438.63762,0.17960
1440.56609,0.17249
1442.49456,0.17203
1444.42303,0.17501
1446.35149,0.18004
1448.27996,0.18402
1450.20843,0.18413
1452.13690,0.18550
1454.06537,0.19447
1455.99384,0.21743
1457.92231,0.22848
1459.85077,0.20489
1461.77924,0.19198
1463.70771,0.19616
1465.63618,0.19731
1467.56465,0.18870
1469.49312,0.18896
1471.42159,0.20615
1473.35006,0.22181
1475.27852,0.21319
1477.20699,0.19781
1479.13546,0.18870
1481.06393,0.18518
1482.99240,0.18379
1484.92087,0.18749
1486.84934,0.19980
1488.77780,0.21236
1490.70627,0.20551
1492.63474,0.19311
1494.56321,0.19684
1496.49168,0.21163
1498.42015,0.21309
1500.34862,0.19947
1502.27709,0.19189
1504.20555,0.20408
1506.13402,0.24171
1508.06249,0.24904
1509.99096,0.21837
1511.91943,0.20144
1513.84790,0.20279
1515.77637,0.21706
1517.70483,0.22759
1519.63330,0.23243
1521.56177,0.23870
1523.49024,0.23230
1525.41871,0.22176
1527.34718,0.21337
1529.27565,0.20692
1531.20412,0.21081
1533.13258,0.22041
1535.06105,0.21847
1536.98952,0.22041
1538.91799,0.24773
1540.84646,0.27657
1542.77493,0.25913
1544.70340,0.22771
1546.63186,0.20438
1548.56033,0.20009
1550.48880,0.20731
1552.41727,0.21347
1554.34574,0.22083
1556.27421,0.24027
1558.20268,0.27141
1560.13115,0.24886
1562.05961,0.21465
1563.98808,0.20343
1565.91655,0.20061
1567.84502,0.20326
1569.77349,0.20421
1571.70196,0.19812
1573.63043,0.19911
1575.55889,0.20622
1577.48736,0.19990
1579.41583,0.18758
1581.34430,0.18268
1583.27277,0.18061
1585.20124,0.17699
1587.12971,0.17441
1589.05818,0.17434
1590.98664,0.17576
1592.91511,0.17886
1594.84358,0.18230
1596.77205,0.18365
1598.70052,0.18364
1600.62899,0.18418
1602.55746,0.18503
1604.48592,0.18593
1606.41439,0.18790
1608.34286,0.18842
1610.27133,0.18445
1612.19980,0.18262
1614.12827,0.19063
1616.05674,0.20442
1617.98521,0.20593
1619.91367,0.20070
1621.84214,0.20165
1623.77061,0.20183
1625.69908,0.19839
1627.62755,0.19686
1629.55602,0.19399
1631.48449,0.19433
1633.41295,0.20759
1635.34142,0.22887
1637.26989,0.22483
1639.19836,0.20748
1641.12683,0.20031
1643.05530,0.20607
1644.98377,0.22740
1646.91223,0.24905
1648.84070,0.24164
1650.76917,0.23701
1652.69764,0.24908
1654.62611,0.23571
1656.55458,0.21008
1658.48305,0.19527
1660.41152,0.19118
1662.33998,0.19644
1664.26845,0.19931
1666.19692,0.20083
1668.12539,0.21342
1670.05386,0.22778
1671.98233,0.22550
1673.91080,0.21965
1675.83926,0.21189
1677.76773,0.20645
1679.69620,0.21270
1681.62467,0.23108
1683.55314,0.25219
1685.48161,0.23889
1687.41008,0.21536
1689.33855,0.20583
1691.26701,0.20205
1693.19548,0.20697
1695.12395,0.22613
1697.05242,0.24707
1698.98089,0.25202
1700.90936,0.23605
1702.83783,0.22072
1704.76629,0.21783
1706.69476,0.21050
1708.62323,0.19788
1710.55170,0.19417
1712.48017,0.20145
1714.40864,0.21739
1716.33711,0.23577
1718.26558,0.22957
1720.19404,0.20582
1722.12251,0.19227
1724.05098,0.18749
1725.97945,0.18613
1727.90792,0.18971
1729.83639,0.19884
1731.76486,0.21300
1733.69332,0.22310
1735.62179,0.21151
1737.55026,0.20222
1739.47873,0.20422
1741.40720,0.20528
1743.33567,0.20444
1745.26414,0.20811
1747.19261,0.21638
1749.12107,0.22269
1751.04954,0.21406
1752.97801,0.19848
1754.90648,0.19271
1756.83495,0.19431
1758.76342,0.19594
1760.69189,0.19831
1762.62035,0.19740
1764.54882,0.19314
1766.47729,0.19487
1768.40576,0.20298
1770.33423,0.21350
1772.26270,0.21748
1774.19117,0.20667
1776.11964,0.19576
1778.04810,0.19334
1779.97657,0.19556
1781.90504,0.19430
1783.83351,0.19012
1785.76198,0.18770
1787.69045,0.18837
1789.61892,0.19605
1791.54738,0.20852
1793.47585,0.20965
1795.40432,0.20077
1797.33279,0.19587
1799.26126,0.19679
1801.18973,0.19603
1803.11820,0.19043
1805.04666,0.18688
1806.97513,0.18816
1808.90360,0.19064
1810.83207,0.18928
1812.76054,0.18348
1814.68901,0.18170
1816.61748,0.19055
1818.54595,0.20260
1820.47441,0.20598
1822.40288,0.20192
1824.33135,0.19823
1826.25982,0.19956
1828.18829,0.20478
1830.11676,0.20517
1832.04523,0.19576
1833.97369,0.18759
1835.90216,0.18713
1837.83063,0.18878
1839.75910,0.18750
1841.68757,0.18895
1843.61604,0.19569
1845.54451,0.19827
1847.47298,0.19373
1849.40144,0.18658
1851.32991,0.18032
1853.25838,0.17877
1855.18685,0.18071
1857.11532,0.18317
1859.04379,0.18507
1860.97226,0.18611
1862.90072,0.18722
1864.82919,0.19081
1866.75766,0.19883
1868.68613,0.20453
1870.61460,0.19871
1872.54307,0.18997
1874.47154,0.18553
1876.40001,0.18380
1878.32847,0.18327
1880.25694,0.18362
1882.18541,0.18541
1884.11388,0.18848
1886.04235,0.19076
1887.97082,0.19296
1889.89929,0.19290
1891.82775,0.18922
1893.75622,0.18807
1895.68469,0.18839
1897.61316,0.18661
1899.54163,0.18557
1901.47010,0.18618
1903.39857,0.18618
1905.32704,0.18537
1907.25550,0.18647
1909.18397,0.18860
1911.11244,0.18808
1913.04091,0.18610
1914.96938,0.18667
1916.89785,0.19043
1918.82632,0.19305
1920.75478,0.19338
1922.68325,0.19298
1924.61172,0.19021
1926.54019,0.18673
1928.46866,0.18530
1930.39713,0.18537
1932.32560,0.18528
1934.25407,0.18406
1936.18253,0.18307
1938.11100,0.18448
1940.03947,0.18760
1941.96794,0.18942
1943.89641,0.18812
1945.82488,0.18510
1947.75335,0.18231
1949.68181,0.18055
1951.61028,0.17998
1953.53875,0.18077
1955.46722,0.18224
1957.39569,0.18410
1959.32416,0.18628
1961.25263,0.18645
1963.18110,0.18539
1965.10956,0.18671
1967.03803,0.18816
1968.96650,0.18608
1970.89497,0.18389
1972.82344,0.18450
1974.75191,0.18542
1976.68038,0.18609
1978.60884,0.18759
1980.53731,0.18874
1982.46578,0.18834
1984.39425,0.18666
1986.32272,0.18556
1988.25119,0.18567
1990.17966,0.18680
1992.10812,0.18827
1994.03659,0.18870
1995.96506,0.18827
1997.89353,0.18648
1999.82200,0.18477
2001.75047,0.18551
2003.67894,0.18645
2005.60741,0.18601
2007.53587,0.18535
2009.46434,0.18529
2011.39281,0.18579
2013.32128,0.18616
2015.24975,0.18688
2017.17822,0.18745
2019.10669,0.18693
2021.03515,0.18688
2022.96362,0.18696
2024.89209,0.18486
2026.82056,0.18124
2028.74903,0.17972
2030.67750,0.18170
2032.60597,0.18455
2034.53444,0.18634
2036.46290,0.18642
2038.39137,0.18522
2040.31984,0.18516
2042.24831,0.18563
2044.17678,0.18434
2046.10525,0.18297
2048.03372,0.18321
2049.96218,0.18368
2051.89065,0.18325
2053.81912,0.18321
2055.74759,0.18428
2057.67606,0.18597
2059.60453,0.18835
2061.53300,0.18970
2063.46147,0.18790
2065.38993,0.18445
2067.31840,0.18288
2069.24687,0.18371
2071.17534,0.18479
2073.10381,0.18516
2075.03228,0.18513
2076.96075,0.18585
2078.88921,0.18701
2080.81768,0.18730
2082.74615,0.18728
2084.67462,0.18749
2086.60309,0.18764
2088.53156,0.18781
2090.46003,0.18747
2092.38850,0.18593
2094.31696,0.18462
2096.24543,0.18541
2098.17390,0.18737
2100.10237,0.18733
2102.03084,0.18521
2103.95931,0.18507
2105.88778,0.18717
2107.81624,0.18841
2109.74471,0.18864
2111.67318,0.18892
2113.60165,0.18903
2115.53012,0.18837
2117.45859,0.18823
2119.38706,0.19021
2121.31553,0.19229
2123.24399,0.19161
2125.17246,0.18896
2127.10093,0.18723
2129.02940,0.18762
2130.95787,0.18861
2132.88634,0.18838
2134.81481,0.18723
2136.74327,0.18673
2138.67174,0.18672
2140.60021,0.18632
2142.52868,0.18651
2144.45715,0.18845
2146.38562,0.19081
2148.31409,0.19125
2150.24255,0.18977
2152.17102,0.18787
2154.09949,0.18674
2156.02796,0.18630
2157.95643,0.18506
2159.88490,0.18489
2161.81337,0.18778
2163.74184,0.18940
2165.67030,0.18771
2167.59877,0.18640
2169.52724,0.18640
2171.45571,0.18673
2173.38418,0.18713
2175.31265,0.18718
2177.24112,0.18719
2179.16958,0.18723
2181.09805,0.18729
2183.02652,0.18759
2184.95499,0.18764
2186.88346,0.18747
2188.81193,0.18817
2190.74040,0.18999
2192.66887,0.19065
2194.59733,0.18878
2196.52580,0.18690
2198.45427,0.18659
2200.38274,0.18676
2202.31121,0.18732
2204.23968,0.18770
2206.16815,0.18685
2208.09661,0.18602
2210.02508,0.18544
2211.95355,0.18498
2213.88202,0.18634
2215.81049,0.18824
2217.73896,0.18837
2219.66743,0.18724
2221.59590,0.18669
2223.52436,0.18682
2225.45283,0.18573
2227.38130,0.18514
2229.30977,0.18755
2231.23824,0.19032
2233.16671,0.18970
2235.09518,0.18645
2237.02364,0.18558
2238.95211,0.18891
2240.88058,0.19143
2242.80905,0.19009
2244.73752,0.18789
2246.66599,0.18645
2248.59446,0.18543
2250.52293,0.18703
2252.45139,0.19075
2254.37986,0.19198
2256.30833,0.19065
2258.23680,0.18941
2260.16527,0.18841
2262.09374,0.18794
2264.02221,0.18801
2265.95067,0.18758
2267.87914,0.18603
2269.80761,0.18443
2271.73608,0.18459
2273.66455,0.18614
2275.59302,0.18746
2277.52149,0.18766
2279.44996,0.18745
2281.37842,0.18832
2283.30689,0.18979
2285.23536,0.18976
2287.16383,0.18814
2289.09230,0.18690
2291.02077,0.18895
2292.94924,0.19717
2294.87770,0.20428
2296.80617,0.20018
2298.73464,0.19180
2300.66311,0.18890
2302.59158,0.18857
2304.52005,0.18739
2306.44852,0.18678
2308.37699,0.18833
2310.30545,0.19137
2312.23392,0.19184
2314.16239,0.19042
2316.09086,0.19229
2318.01933,0.19430
2319.94780,0.19193
2321.87627,0.18840
2323.80473,0.18717
2325.73320,0.18609
2327.66167,0.18335
2329.59014,0.18319
2331.51861,0.18520
2333.44708,0.18460
2335.37555,0.18528
2337.30401,0.18863
2339.23248,0.19000
2341.16095,0.18894
2343.08942,0.18294
2345.01789,0.17517
2346.94636,0.17561
2348.87483,0.17931
2350.80330,0.17997
2352.73176,0.18001
2354.66023,0.18377
2356.58870,0.18422
2358.51717,0.18591
2360.44564,0.20063
2362.37411,0.20972
2364.30258,0.20180
2366.23104,0.18602
2368.15951,0.17558
2370.08798,0.17564
2372.01645,0.18020
2373.94492,0.18614
2375.87339,0.19145
2377.80186,0.19225
2379.73033,0.19010
2381.65879,0.18955
2383.58726,0.19008
2385.51573,0.18980
2387.44420,0.18949
2389.37267,0.18946
2391.30114,0.18945
2393.22961,0.19053
2395.15807,0.19176
2397.08654,0.19069
2399.01501,0.18953
2400.94348,0.19097
2402.87195,0.19231
2404.80042,0.19130
2406.72889,0.19071
2408.65736,0.19327
2410.58582,0.19600
2412.51429,0.19591
2414.44276,0.19420
2416.37123,0.19182
2418.29970,0.18986
2420.22817,0.18923
2422.15664,0.18962
2424.08510,0.19144
2426.01357,0.19382
2427.94204,0.19495
2429.87051,0.19423
2431.79898,0.19263
2433.72745,0.19115
2435.65592,0.18935
2437.58439,0.18874
2439.51285,0.18976
2441.44132,0.18992
2443.36979,0.18911
2445.29826,0.18876
2447.22673,0.18910
2449.15520,0.19173
2451.08367,0.19788
2453.01213,0.20120
2454.94060,0.19621
2456.86907,0.18938
2458.79754,0.18733
2460.72601,0.18794
2462.65448,0.18896
2464.58295,0.19092
2466.51142,0.19336
2468.43988,0.19486
2470.36835,0.19474
2472.29682,0.19443
2474.22529,0.19462
2476.15376,0.19450
2478.08223,0.19459
2480.01070,0.19519
2481.93916,0.19505
2483.86763,0.19366
2485.79610,0.19201
2487.72457,0.18990
2489.65304,0.18730
2491.58151,0.18581
2493.50998,0.18662
2495.43844,0.18894
2497.36691,0.18958
2499.29538,0.18801
2501.22385,0.18712
2503.15232,0.18832
2505.08079,0.19033
2507.00926,0.19151
2508.93773,0.19222
2510.86619,0.19289
2512.79466,0.19272
2514.72313,0.19180
2516.65160,0.19144
2518.58007,0.19165
2520.50854,0.19123
2522.43701,0.19058
2524.36547,0.19117
2526.29394,0.19268
2528.22241,0.19360
2530.15088,0.19302
2532.07935,0.19078
2534.00782,0.18868
2535.93629,0.18836
2537.86476,0.18860
2539.79322,0.18893
2541.72169,0.19002
2543.65016,0.19106
2545.57863,0.19190
2547.50710,0.19322
2549.43557,0.19436
2551.36404,0.19489
2553.29250,0.19424
2555.22097,0.19255
2557.14944,0.19061
2559.07791,0.18812
2561.00638,0.18821
2562.93485,0.19217
2564.86332,0.19480
2566.79179,0.19374
2568.72025,0.19209
2570.64872,0.19296
2572.57719,0.19471
2574.50566,0.19391
2576.43413,0.19230
2578.36260,0.19251
2580.29107,0.19292
2582.21953,0.19212
2584.14800,0.19215
2586.07647,0.19371
2588.00494,0.19467
2589.93341,0.19421
2591.86188,0.19313
2593.79035,0.19282
2595.71882,0.19368
2597.64728,0.19441
2599.57575,0.19432
2601.50422,0.19374
2603.43269,0.19287
2605.36116,0.19194
2607.28963,0.19092
2609.21810,0.18977
2611.14656,0.18924
2613.07503,0.18990
2615.00350,0.19157
2616.93197,0.19393
2618.86044,0.19626
2620.78891,0.19709
2622.71738,0.19693
2624.64585,0.19691
2626.57431,0.19570
2628.50278,0.19416
2630.43125,0.19361
2632.35972,0.19384
2634.28819,0.19528
2636.21666,0.19631
2638.14513,0.19650
2640.07359,0.19749
2642.00206,0.19873
2643.93053,0.19871
2645.85900,0.19722
2647.78747,0.19543
2649.71594,0.19479
2651.64441,0.19565
2653.57288,0.19582
2655.50134,0.19556
2657.42981,0.19767
2659.35828,0.19978
2661.28675,0.19965
2663.21522,0.19948
2665.14369,0.19859
2667.07216,0.19570
2669.00062,0.19398
2670.92909,0.19457
2672.85756,0.19437
2674.78603,0.19265
2676.71450,0.19215
2678.64297,0.19464
2680.57144,0.19741
2682.49990,0.19721
2684.42837,0.19567
2686.35684,0.19609
2688.28531,0.19853
2690.21378,0.19941
2692.14225,0.19812
2694.07072,0.19830
2695.99919,0.19954
2697.92765,0.19999
2699.85612,0.20052
2701.78459,0.19963
2703.71306,0.19736
2705.64153,0.19775
2707.57000,0.20003
2709.49847,0.20006
2711.42693,0.19841
2713.35540,0.19789
2715.28387,0.19881
2717.21234,0.20043
2719.14081,0.20277
2721.06928,0.20416
2722.99775,0.20241
2724.92622,0.19968
2726.85468,0.19734
2728.78315,0.19514
2730.71162,0.19571
2732.64009,0.19915
2734.56856,0.20210
2736.49703,0.20161
2738.42550,0.19854
2740.35396,0.19787
2742.28243,0.19954
2744.21090,0.19975
2746.13937,0.20005
2748.06784,0.20351
2749.99631,0.20766
2751.92478,0.20824
2753.85325,0.20535
2755.78171,0.20224
2757.71018,0.20214
2759.63865,0.20497
2761.56712,0.20736
2763.49559,0.20750
2765.42406,0.20695
2767.35253,0.20682
2769.28099,0.20648
2771.20946,0.20745
2773.13793,0.20949
2775.06640,0.20930
2776.99487,0.20692
2778.92334,0.20459
2780.85181,0.20412
2782.78028,0.20497
2784.70874,0.20566
2786.63721,0.20589
2788.56568,0.20627
2790.49415,0.20833
2792.42262,0.21023
2794.35109,0.20994
2796.27956,0.20943
2798.20802,0.20874
2800.13649,0.20731
2802.06496,0.20687
2803.99343,0.20815
2805.92190,0.20921
2807.85037,0.20776
2809.77884,0.20560
2811.70731,0.20582
2813.63577,0.20745
2815.56424,0.20843
2817.49271,0.20856
2819.42118,0.20808
2821.34965,0.20785
2823.27812,0.20903
2825.20659,0.21076
2827.13505,0.21157
2829.06352,0.21113
2830.99199,0.20999
2832.92046,0.21014
2834.84893,0.21163
2836.77740,0.21142
2838.70587,0.20916
2840.63433,0.20676
2842.56280,0.20624
2844.49127,0.20760
2846.41974,0.20762
2848.34821,0.20623
2850.27668,0.20623
2852.20515,0.20678
2854.13362,0.20504
2856.06208,0.20266
2857.99055,0.20353
2859.91902,0.20716
2861.84749,0.20975
2863.77596,0.20843
2865.70443,0.20534
2867.63290,0.20404
2869.56136,0.20419
2871.48983,0.20322
2873.41830,0.20032
2875.34677,0.19971
2877.27524,0.20414
2879.20371,0.20984
2881.13218,0.21138
2883.06065,0.20752
2884.98911,0.20359
2886.91758,0.20462
2888.84605,0.20849
2890.77452,0.21060
2892.70299,0.20894
2894.63146,0.20368
2896.55993,0.20037
2898.48839,0.20342
2900.41686,0.20676
2902.34533,0.20467
2904.27380,0.19929
2906.20227,0.19592
2908.13074,0.19817
2910.05921,0.20343
2911.98768,0.20577
2913.91614,0.20153
2915.84461,0.19464
2917.77308,0.19454
2919.70155,0.19964
2921.63002,0.20178
2923.55849,0.19849
2925.48696,0.18988
2927.41542,0.18600
2929.34389,0.19357
2931.27236,0.20224
2933.20083,0.20468
2935.12930,0.19797
2937.05777,0.18662
2938.98624,0.18699
2940.91471,0.19796
2942.84317,0.20509
2944.77164,0.20227
2946.70011,0.19088
2948.62858,0.18610
2950.55705,0.19502
2952.48552,0.20420
2954.41399,0.20324
2956.34245,0.18946
2958.27092,0.17891
2960.19939,0.18815
2962.12786,0.20211
2964.05633,0.20548
2965.98480,0.19984
2967.91327,0.19152
2969.84174,0.19169
2971.77020,0.20042
2973.69867,0.20942
2975.62714,0.21173
2977.55561,0.20358
2979.48408,0.19881
2981.41255,0.20510
2983.34102,0.21027
2985.26948,0.20742
2987.19795,0.19891
2989.12642,0.19619
2991.05489,0.20443
2992.98336,0.21181
2994.91183,0.21265
2996.84030,0.20879
2998.76877,0.20353
3000.69723,0.20318
3002.62570,0.20628
3004.55417,0.20709
3006.48264,0.20420
3008.41111,0.19942
3010.33958,0.19006
3012.26805,0.16525
3014.19651,0.12368
3016.12498,0.09126
3018.05345,0.10518
3019.98192,0.15851
3021.91039,0.20079
3023.83886,0.21181
3025.76733,0.20816
3027.69579,0.20513
3029.62426,0.20818
3031.55273,0.21329
3033.48120,0.21471
3035.40967,0.21260
3037.33814,0.20969
3039.26661,0.21023
3041.19508,0.21502
3043.12354,0.21799
3045.05201,0.21361
3046.98048,0.20414
3048.90895,0.20037
3050.83742,0.20491
3052.76589,0.20821
3054.69436,0.20351
3056.62282,0.19487
3058.55129,0.19671
3060.47976,0.20826
3062.40823,0.21387
3064.33670,0.20694
3066.26517,0.19418
3068.19364,0.19325
3070.12211,0.20464
3072.05057,0.21070
3073.97904,0.20375
3075.90751,0.19205
3077.83598,0.19307
3079.76445,0.20524
3081.69292,0.20889
3083.62139,0.19641
3085.54985,0.18428
3087.47832,0.19332
3089.40679,0.21281
3091.33526,0.21698
3093.26373,0.20130
3095.19220,0.18835
3097.12067,0.19614
3099.04914,0.20935
3100.97760,0.20950
3102.90607,0.19765
3104.83454,0.19090
3106.76301,0.19851
3108.69148,0.20600
3110.61995,0.19994
3112.54842,0.18891
3114.47688,0.19360
3116.40535,0.21024
3118.33382,0.21668
3120.26229,0.20849
3122.19076,0.19922
3124.11923,0.20212
3126.04770,0.21057
3127.97617,0.21199
3129.90463,0.20759
3131.83310,0.20663
3133.76157,0.21353
3135.69004,0.22034
3137.61851,0.21878
3139.54698,0.21310
3141.47545,0.21390
3143.40391,0.21964
3145.33238,0.22013
3147.26085,0.21574
3149.18932,0.21416
3151.11779,0.21642
3153.04626,0.21850
3154.97473,0.21785
3156.90320,0.21479
3158.83166,0.21293
3160.76013,0.21301
3162.68860,0.21357
3164.61707,0.21363
3166.54554,0.21167
3168.47401,0.21040
3170.40248,0.21231
3172.33094,0.21477
3174.25941,0.21555
3176.18788,0.21651
3178.11635,0.21928
3180.04482,0.22223
3181.97329,0.22333
3183.90176,0.22133
3185.83022,0.21740
3187.75869,0.21557
3189.68716,0.21673
3191.61563,0.21594
3193.54410,0.21305
3195.47257,0.21271
3197.40104,0.21410
3199.32951,0.21490
3201.25797,0.21604
3203.18644,0.21926
3205.11491,0.22263
3207.04338,0.22245
3208.97185,0.21954
3210.90032,0.21834
3212.82879,0.22029
3214.75725,0.22084
3216.68572,0.21812
3218.61419,0.21388
3220.54266,0.20981
3222.47113,0.20920
3224.39960,0.21054
3226.32807,0.21016
3228.25654,0.21016
3230.18500,0.21191
3232.11347,0.21315
3234.04194,0.21511
3235.97041,0.21919
3237.89888,0.22180
3239.82735,0.22178
3241.75582,0.22150
3243.68428,0.22151
3245.61275,0.22033
3247.54122,0.21731
3249.46969,0.21627
3251.39816,0.22066
3253.32663,0.22678
3255.25510,0.22871
3257.18357,0.22522
3259.11203,0.21792
3261.04050,0.21045
3262.96897,0.20840
3264.89744,0.21046
3266.82591,0.21133
3268.75438,0.21341
3270.68285,0.21773
3272.61131,0.21964
3274.53978,0.21947
3276.46825,0.21977
3278.39672,0.21882
3280.32519,0.21625
3282.25366,0.21640
3284.18213,0.21790
3286.11060,0.21437
3288.03906,0.21007
3289.96753,0.21231
3291.89600,0.21619
3293.82447,0.21719
3295.75294,0.21777
3297.68141,0.21685
3299.60988,0.21514
3301.53834,0.21505
3303.46681,0.21376
3305.39528,0.21136
3307.32375,0.21086
3309.25222,0.21122
3311.18069,0.21090
3313.10916,0.21021
3315.03763,0.21127
3316.96609,0.21584
3318.89456,0.21963
3320.82303,0.22016
3322.75150,0.22007
3324.67997,0.21787
3326.60844,0.21393
3328.53691,0.21297
3330.46537,0.21399
3332.39384,0.21239
3334.32231,0.20997
3336.25078,0.21105
3338.17925,0.21441
3340.10772,0.21738
3342.03619,0.21750
3343.96466,0.21481
3345.89312,0.21397
3347.82159,0.21489
3349.75006,0.21372
3351.67853,0.21178
3353.60700,0.21243
3355.53547,0.21543
3357.46394,0.21751
3359.39240,0.21763
3361.32087,0.21902
3363.24934,0.22163
3365.17781,0.22064
3367.10628,0.21725
3369.03475,0.21830
3370.96322,0.22388
3372.89168,0.22736
3374.82015,0.22605
3376.74862,0.22328
3378.67709,0.22176
3380.60556,0.22157
3382.53403,0.22120
3384.46250,0.21857
3386.39097,0.21485
3388.31943,0.21402
3390.24790,0.21653
3392.17637,0.21840
3394.10484,0.21989
3396.03331,0.22279
3397.96178,0.22310
3399.89025,0.21992
3401.81871,0.21521
3403.74718,0.21081
3405.67565,0.20924
3407.60412,0.20924
3409.53259,0.20928
3411.46106,0.20871
3413.38953,0.20696
3415.31800,0.20602
3417.24646,0.20731
3419.17493,0.21118
3421.10340,0.21591
3423.03187,0.21500
3424.96034,0.20822
3426.88881,0.20516
3428.81728,0.20860
3430.74574,0.21120
3432.67421,0.20967
3434.60268,0.20683
3436.53115,0.20462
3438.45962,0.20509
3440.38809,0.20805
3442.31656,0.20845
3444.24503,0.20741
3446.17349,0.20979
3448.10196,0.21072
3450.03043,0.20757
3451.95890,0.20466
3453.88737,0.20195
3455.81584,0.20000
3457.74431,0.20126
3459.67277,0.20510
3461.60124,0.20575
3463.52971,0.19833
3465.45818,0.18987
3467.38665,0.18961
3469.31512,0.19609
3471.24359,0.20183
3473.17206,0.20396
3475.10052,0.20340
3477.02899,0.19933
3478.95746,0.19669
3480.88593,0.20058
3482.81440,0.20311
3484.74287,0.20019
3486.67134,0.19816
3488.59980,0.19681
3490.52827,0.19390
3492.45674,0.19308
3494.38521,0.19399
3496.31368,0.19112
3498.24215,0.18762
3500.17062,0.19039
3502.09909,0.19481
3504.02755,0.19374
3505.95602,0.19050
3507.88449,0.19081
3509.81296,0.19111
3511.74143,0.18588
3513.66990,0.18018
3515.59837,0.17949
3517.52683,0.18142
3519.45530,0.18230
3521.38377,0.18323
3523.31224,0.18576
3525.24071,0.18751
3527.16918,0.18693
3529.09765,0.18428
3531.02611,0.18079
3532.95458,0.17842
3534.88305,0.17782
3536.81152,0.17752
3538.73999,0.17616
3540.66846,0.17636
3542.59693,0.18074
3544.52540,0.18670
3546.45386,0.18620
3548.38233,0.17811
3550.31080,0.17345
3552.23927,0.17484
3554.16774,0.17331
3556.09621,0.16603
3558.02468,0.15964
3559.95314,0.16033
3561.88161,0.16648
3563.81008,0.17601
3565.73855,0.18904
3567.66702,0.19002
3569.59549,0.17402
3571.52396,0.16182
3573.45243,0.15819
3575.38089,0.15895
3577.30936,0.16080
3579.23783,0.16034
3581.16630,0.16060
3583.09477,0.16740
3585.02324,0.17754
3586.95171,0.18309
3588.88017,0.17693
3590.80864,0.16874
3592.73711,0.16879
3594.66558,0.17224
3596.59405,0.17148
3598.52252,0.16778
3600.45099,0.16167
3602.37946,0.15481
3604.30792,0.15495
3606.23639,0.16391
3608.16486,0.17236
3610.09333,0.17260
3612.02180,0.17068
3613.95027,0.17112
3615.87874,0.17553
3617.80720,0.18144
3619.73567,0.17586
3621.66414,0.16071
3623.59261,0.15358
3625.52108,0.15825
3627.44955,0.17157
3629.37802,0.17777
3631.30649,0.16894
3633.23495,0.16257
3635.16342,0.15762
3637.09189,0.15025
3639.02036,0.14412
3640.94883,0.14109
3642.87730,0.14183
3644.80577,0.15117
3646.73423,0.17152
3648.66270,0.18752
3650.59117,0.17182
3652.51964,0.15220
3654.44811,0.14781
3656.37658,0.14952
3658.30505,0.14675
3660.23352,0.14321
3662.16198,0.14305
3664.09045,0.14409
3666.01892,0.14684
3667.94739,0.15583
3669.87586,0.16502
3671.80433,0.16462
3673.73280,0.17048
3675.66126,0.17560
3677.58973,0.15951
3679.51820,0.14547
3681.44667,0.14064
3683.37514,0.13969
3685.30361,0.14164
3687.23208,0.14919
3689.16055,0.15907
3691.08901,0.15545
3693.01748,0.14448
3694.94595,0.13752
3696.87442,0.13316
3698.80289,0.13277
3700.73136,0.13839
3702.65983,0.14208
3704.58829,0.14067
3706.51676,0.14206
3708.44523,0.14862
3710.37370,0.15743
3712.30217,0.15958
3714.23064,0.15314
3716.15911,0.14582
3718.08757,0.13994
3720.01604,0.13901
3721.94451,0.14408
3723.87298,0.14684
3725.80145,0.14335
3727.72992,0.14223
3729.65839,0.14997
3731.58686,0.16369
3733.51532,0.17654
3735.44379,0.17798
3737.37226,0.16483
3739.30073,0.15388
3741.22920,0.15257
3743.15767,0.15794
3745.08614,0.16181
3747.01460,0.15928
3748.94307,0.16273
3750.87154,0.17240
3752.80001,0.16454
3754.72848,0.14947
3756.65695,0.14576
3758.58542,0.14896
3760.51389,0.14502
3762.44235,0.13958
3764.37082,0.14036
3766.29929,0.14185
3768.22776,0.14256
3770.15623,0.14208
3772.08470,0.13564
3774.01317,0.12864
3775.94163,0.12821
3777.87010,0.13447
3779.79857,0.13709
3781.72704,0.13367
3783.65551,0.13402
3785.58398,0.13362
3787.51245,0.12807
3789.44092,0.12433
3791.36938,0.12368
3793.29785,0.12407
3795.22632,0.12718
3797.15479,0.13270
3799.08326,0.13916
3801.01173,0.14714
3802.94020,0.14683
3804.86866,0.14115
3806.79713,0.13829
3808.72560,0.13184
3810.65407,0.12495
3812.58254,0.12676
3814.51101,0.13866
3816.43948,0.15161
3818.36795,0.15750
3820.29641,0.16013
3822.22488,0.15119
3824.15335,0.14097
3826.08182,0.13968
3828.01029,0.13941
3829.93876,0.13824
3831.86723,0.13845
3833.79569,0.14110
3835.72416,0.15093
3837.65263,0.16321
3839.58110,0.16072
3841.50957,0.14822
3843.43804,0.13782
3845.36651,0.13070
3847.29498,0.12975
3849.22344,0.13696
3851.15191,0.15071
3853.08038,0.16204
3855.00885,0.15009
3856.93732,0.13470
3858.86579,0.12744
3860.79426,0.12643
3862.72272,0.13164
3864.65119,0.13735
3866.57966,0.14073
3868.50813,0.14528
3870.43660,0.14419
3872.36507,0.13869
3874.29354,0.13650
3876.22200,0.13474
3878.15047,0.13737
3880.07894,0.14440
3882.00741,0.14296
3883.93588,0.13667
3885.86435,0.13117
3887.79282,0.12324
3889.72129,0.12100
3891.64975,0.12637
3893.57822,0.12652
3895.50669,0.12422
3897.43516,0.13046
3899.36363,0.14108
3901.29210,0.14360
3903.22057,0.13987
3905.14903,0.13332
3907.07750,0.12397
3909.00597,0.11651
3910.93444,0.11305
3912.86291,0.11425
3914.79138,0.12070
3916.71985,0.12840
3918.64832,0.12800
3920.57678,0.12073
3922.50525,0.11755
3924.43372,0.11906
3926.36219,0.11783
3928.29066,0.11699
3930.21913,0.12107
3932.14760,0.12292
3934.07606,0.11923
3936.00453,0.11581
3937.93300,0.11381
3939.86147,0.11309
3941.78994,0.11465
3943.71841,0.11816
3945.64688,0.12236
3947.57535,0.12387
3949.50381,0.12048
3951.43228,0.11621
3953.36075,0.11357
3955.28922,0.11112
3957.21769,0.10963
3959.14616,0.11033
3961.07463,0.11034
3963.00309,0.10817
3964.93156,0.10727
3966.86003,0.10743
3968.78850,0.10510
3970.71697,0.10175
3972.64544,0.10187
3974.57391,0.10535
3976.50238,0.10743
3978.43084,0.10572
3980.35931,0.10362
3982.28778,0.10464
3984.21625,0.10709
3986.14472,0.10823
3988.07319,0.10777
3990.00166,0.10577
3991.93012,0.10311
3993.85859,0.10204
3995.78706,0.10369
3997.71553,0.10622
3999.64400,0.10707
4001.57247,0.10576
4003.50094,0.10276
4005.42941,0.09967
4007.35787,0.09974
4009.28634,0.10131
4011.21481,0.10105
4013.14328,0.10157
4015.07175,0.10276
4017.00022,0.10196
4018.92869,0.10088
4020.85715,0.10076
4022.78562,0.10178
4024.71409,0.10299
4026.64256,0.10102
4028.57103,0.09724
4030.49950,0.09548
4032.42797,0.09547
4034.35644,0.09601
4036.28490,0.09560
4038.21337,0.09452
4040.14184,0.09386
4042.07031,0.09264
4043.99878,0.09306
4045.92725,0.09546
4047.85572,0.09540
4049.78418,0.09541
4051.71265,0.09913
4053.64112,0.09993
4055.56959,0.09552
4057.49806,0.09383
4059.42653,0.09619
4061.35500,0.09722
4063.28346,0.09612
4065.21193,0.09672
4067.14040,0.09925
4069.06887,0.10009
4070.99734,0.09783
4072.92581,0.09324
4074.85428,0.09011
4076.78275,0.09181
4078.71121,0.09491
4080.63968,0.09421
4082.56815,0.09247
4084.49662,0.09533
4086.42509,0.09851
4088.35356,0.09552
4090.28203,0.08926
4092.21049,0.08454
4094.13896,0.08333
4096.06743,0.08545
4097.99590,0.08710
4099.92437,0.08635
4101.85284,0.08514
4103.78131,0.08716
4105.70978,0.09233
4107.63824,0.09458
4109.56671,0.09346
4111.49518,0.09022
4113.42365,0.08569
4115.35212,0.08592
4117.28059,0.09000
4119.20906,0.09208
4121.13752,0.09188
4123.06599,0.09084
4124.99446,0.09008
4126.92293,0.09060
4128.85140,0.09019
4130.77987,0.08700
4132.70834,0.08511
4134.63681,0.08736
4136.56527,0.09061
4138.49374,0.09241
4140.42221,0.09298
4142.35068,0.09142
4144.27915,0.08789
4146.20762,0.08371
4148.13609,0.07996
4150.06455,0.08007
4151.99302,0.08382
4153.92149,0.08626
4155.84996,0.08584
4157.77843,0.08454
4159.70690,0.08338
4161.63537,0.08076
4163.56384,0.07756
4165.49230,0.07854
4167.42077,0.08187
4169.34924,0.08143
4171.27771,0.07954
4173.20618,0.08044
4175.13465,0.08085
4177.06312,0.07645
4178.99158,0.07191
4180.92005,0.07419
4182.84852,0.07877
4184.77699,0.07907
4186.70546,0.07529
4188.63393,0.07269
4190.56240,0.07497
4192.49087,0.07586
4194.41933,0.07332
4196.34780,0.07283
4198.27627,0.07336
4200.20474,0.07279
4202.13321,0.07345
4204.06168,0.07394
4205.99015,0.07181
4207.91861,0.07151
4209.84708,0.07343
4211.77555,0.07252
4213.70402,0.07125
4215.63249,0.07216
4217.56096,0.07284
4219.48943,0.07208
4221.41789,0.07034
4223.34636,0.06799
4225.27483,0.06488
4227.20330,0.06341
4229.13177,0.06422
4231.06024,0.06489
4232.98871,0.06480
4234.91718,0.06366
4236.84564,0.06328
4238.77411,0.06555
4240.70258,0.06867
4242.63105,0.07051
4244.55952,0.06985
4246.48799,0.06776
4248.41646,0.06571
4250.34492,0.06171
4252.27339,0.05687
4254.20186,0.05629
4256.13033,0.05863
4258.05880,0.05946
4259.98727,0.05892
4261.91574,0.05941
4263.84421,0.06094
4265.77267,0.06096
4267.70114,0.06216
4269.62961,0.06741
4271.55808,0.06992
4273.48655,0.06573
4275.41502,0.06126
4277.34349,0.05979
4279.27195,0.05875
4281.20042,0.05924
4283.12889,0.06016
4285.05736,0.05756
4286.98583,0.05439
4288.91430,0.05628
4290.84277,0.06395
4292.77124,0.06852
4294.69970,0.06283
4296.62817,0.05552
4298.55664,0.05497
4300.48511,0.05638
4302.41358,0.05410
4304.34205,0.05221
4306.27052,0.05395
4308.19898,0.05408
4310.12745,0.05300
4312.05592,0.05495
4313.98439,0.05891
4315.91286,0.06107
4317.84133,0.05695
4319.76980,0.04865
4321.69827,0.04190
4323.62673,0.03955
4325.55520,0.04239
4327.48367,0.04474
4329.41214,0.04065
4331.34061,0.03520
4333.26908,0.03490
4335.19755,0.03812
4337.12601,0.04283
4339.05448,0.04730
4340.98295,0.05021
4342.91142,0.05086
4344.83989,0.04687
4346.76836,0.04175
4348.69683,0.03863
4350.62530,0.03449
4352.55376,0.02987
4354.48223,0.02820
4356.41070,0.02795
4358.33917,0.02781
4360.26764,0.03155
4362.19611,0.03665
4364.12458,0.03699
4366.05304,0.03372
4367.98151,0.03024
4369.90998,0.02990
4371.83845,0.03313
4373.76692,0.03570
4375.69539,0.03659
4377.62386,0.03813
4379.55232,0.04034
4381.48079,0.04122
4383.40926,0.03936
4385.33773,0.03548
4387.26620,0.03207
4389.19467,0.02889
4391.12314,0.02513
4393.05161,0.02420
4394.98007,0.02666
4396.90854,0.03107
4398.83701,0.03622
4400.76548,0.03840
4402.69395,0.03743
4404.62242,0.03433
4406.55089,0.02858
4408.47935,0.02265
4410.40782,0.02092
4412.33629,0.02370
4414.26476,0.02703
4416.19323,0.02877
4418.12170,0.02927
4420.05017,0.03013
4421.97864,0.03022
4423.90710,0.02782
4425.83557,0.02500
4427.76404,0.02240
4429.69251,0.02077
4431.62098,0.02168
4433.54945,0.02286
4435.47792,0.02315
4437.40638,0.02516
4439.33485,0.02715
4441.26332,0.02447
4443.19179,0.01726
4445.12026,0.01098
4447.04873,0.01311
4448.97720,0.02054
4450.90567,0.02265
4452.83413,0.01782
4454.76260,0.01271
4456.69107,0.01509
4458.61954,0.02370
4460.54801,0.02746
4462.47648,0.02399
4464.40495,0.01951
4466.33341,0.01504
4468.26188,0.01276
4470.19035,0.01597
4472.11882,0.02025
4474.04729,0.02020
4475.97576,0.01636
4477.90423,0.01683
4479.83270,0.02526
4481.76116,0.03054
4483.68963,0.02555
4485.61810,0.01696
4487.54657,0.01351
4489.47504,0.01436
4491.40351,0.01360
4493.33198,0.01421
4495.26044,0.01821
4497.18891,0.02005
4499.11738,0.01679
4501.04585,0.00943
4502.97432,0.00449
4504.90279,0.00430
4506.83126,0.00374
4508.75973,0.00314
4510.68819,0.00225
4512.61666,0.00227
4514.54513,0.00940
4516.47360,0.01709
4518.40207,0.01395
4520.33054,0.00513
4522.25901,0.00501
4524.18747,0.01165
4526.11594,0.01132
4528.04441,0.00514
4529.97288,0.00106
4531.90135,0.00312
4533.82982,0.00942
4535.75829,0.01018
4537.68676,0.00614
4539.61522,0.00530
4541.54369,0.00606
4543.47216,0.00695
4545.40063,0.01050
4547.32910,0.01197
4549.25757,0.00722
4551.18604,0.00357
4553.11450,0.00178
4555.04297,-0.00207
4556.97144,-0.00178
4558.89991,0.00227
4560.82838,0.00526
4562.75685,0.00842
4564.68532,0.00773
4566.61378,0.00157
4568.54225,-0.00111
4570.47072,0.00130
4572.39919,-0.00003
4574.32766,-0.00389
4576.25613,-0.00095
4578.18460,0.00469
4580.11307,0.00347
4582.04153,0.00138
4583.97000,0.00398
4585.89847,0.00569
4587.82694,0.00430
4589.75541,0.00045
4591.68388,-0.00030
4593.61235,0.00549
4595.54081,0.00899
4597.46928,0.00708
4599.39775,0.00360
4601.32622,0.00124
4603.25469,0.00125
4605.18316,0.00078
4607.11163,0.00286
4609.04010,0.00782
4610.96856,0.00816
4612.89703,0.00625
4614.82550,0.00603
4616.75397,0.00458
4618.68244,0.00249
4620.61091,0.00207
4622.53938,0.00323
4624.46784,0.00512
4626.39631,0.00638
4628.32478,0.00595
4630.25325,0.00255
4632.18172,-0.00260
4634.11019,-0.00220
4636.03866,0.00501
4637.96713,0.01384
4639.89559,0.02298
4641.82406,0.02568
4643.75253,0.01805
4645.68100,0.00926
4647.60947,0.00517
4649.53794,0.00284
4651.46641,-0.00212
4653.39487,-0.00881
4655.32334,-0.00939
4657.25181,-0.00179
4659.18028,0.00277
4661.10875,0.00343
4663.03722,0.00885
4664.96569,0.01278
4666.89416,0.00981
4668.82262,0.00670
4670.75109,0.00339
4672.67956,-0.00410
4674.60803,-0.00972
4676.53650,-0.00977
4678.46497,-0.00634
4680.39344,0.00055
4682.32190,0.00400
4684.25037,0.00101
4686.17884,0.00045
4688.10731,0.00693
4690.03578,0.01307
4691.96425,0.00874
4693.89272,-0.00048
4695.82119,-0.00338
4697.74965,0.00082
4699.67812,0.00952
4701.60659,0.01475
4703.53506,0.01088
4705.46353,0.00846
4707.39200,0.01404
4709.32047,0.01717
4711.24893,0.01054
4713.17740,0.00188
4715.10587,0.00184
4717.03434,0.00946
4718.96281,0.01168
4720.89128,0.00391
4722.81975,-0.00098
4724.74821,0.00404
4726.67668,0.01071
4728.60515,0.00960
4730.53362,0.00521
4732.46209,0.00351
4734.39056,-0.00064
4736.31903,-0.00542
4738.24750,-0.00376
4740.17596,0.00190
4742.10443,0.00495
4744.03290,0.00255
4745.96137,-0.00106
4747.88984,0.00026
4749.81831,0.00313
4751.74678,0.00107
4753.67524,-0.00325
4755.60371,-0.00778
4757.53218,-0.01126
4759.46065,-0.00930
4761.38912,-0.00312
4763.31759,0.00251
4765.24606,0.00790
4767.17453,0.01444
4769.10299,0.01707
4771.03146,0.01020
4772.95993,-0.00135
4774.88840,-0.00400
4776.81687,0.00148
4778.74534,-0.00107
4780.67381,-0.00895
4782.60227,-0.00808
4784.53074,-0.00033
4786.45921,0.00417
4788.38768,0.00289
4790.31615,-0.00085
4792.24462,-0.00303
4794.17309,-0.00385
4796.10156,-0.00421
4798.03002,-0.00221
4799.95849,-0.00148
4801.88696,0.00034
4803.81543,0.00629
4805.74390,0.00419
4807.67237,-0.00176
4809.60084,0.00580
4811.52930,0.02125
4813.45777,0.02769
4815.38624,0.02151
4817.31471,0.01163
4819.24318,0.00273
4821.17165,-0.00891
4823.10012,-0.01420
4825.02859,-0.01155
4826.95705,-0.01003
4828.88552,-0.00816
4830.81399,0.00072
4832.74246,0.01502
4834.67093,0.02464
4836.59940,0.02111
4838.52787,0.00581
4840.45633,-0.00360
4842.38480,0.00323
4844.31327,0.01289
4846.24174,0.01730
4848.17021,0.01520
4850.09868,0.00484
4852.02715,-0.00491
4853.95562,-0.00515
4855.88408,0.00227
4857.81255,0.01056
4859.74102,0.01502
4861.66949,0.01702
4863.59796,0.01694
4865.52643,0.01167
4867.45490,0.00333
4869.38336,-0.00181
4871.31183,-0.00167
4873.24030,0.00027
4875.16877,0.00048
4877.09724,-0.00130
4879.02571,-0.00434
4880.95418,-0.00520
4882.88265,-0.00336
4884.81111,0.00144
4886.73958,0.01360
4888.66805,0.02247
4890.59652,0.01578
4892.52499,0.00507
4894.45346,0.00338
4896.38193,0.00816
4898.31039,0.01178
4900.23886,0.01457
4902.16733,0.01636
4904.09580,0.01077
4906.02427,0.00586
4907.95274,0.00829
4909.88121,0.00886
4911.80967,0.00567
4913.73814,0.00304
4915.66661,0.00046
4917.59508,-0.00420
4919.52355,-0.00563
4921.45202,-0.00011
4923.38049,0.00329
4925.30896,0.00363
4927.23742,0.00461
4929.16589,0.00189
4931.09436,-0.00098
4933.02283,0.00459
4934.95130,0.01099
4936.87977,0.00763
4938.80824,0.00519
4940.73670,0.01120
4942.66517,0.01356
4944.59364,0.00514
4946.52211,-0.00469
4948.45058,-0.00752
4950.37905,-0.00473
4952.30752,0.00146
4954.23599,0.00721
4956.16445,0.00958
4958.09292,0.00967
4960.02139,0.00584
4961.94986,-0.00008
4963.87833,-0.00142
4965.80680,0.00083
4967.73527,0.00396
4969.66373,0.00458
4971.59220,-0.00260
4973.52067,-0.01360
4975.44914,-0.02079
4977.37761,-0.01476
4979.30608,-0.00020
4981.23455,0.00324
4983.16302,0.00049
4985.09148,0.00747
4987.01995,0.01922
4988.94842,0.02254
4990.87689,0.01602
4992.80536,0.00896
4994.73383,0.01031
4996.66230,0.02012
4998.59076,0.02557
5000.51923,0.02042
5002.44770,0.01444
5004.37617,0.01291
5006.30464,0.01354
5008.23311,0.01730
5010.16158,0.01589
5012.09005,0.00304
5014.01851,-0.00693
5015.94698,-0.00532
5017.87545,0.00125
5019.80392,0.01113
5021.73239,0.02153
5023.66086,0.02318
5025.58933,0.02003
5027.51779,0.01594
5029.44626,0.00882
5031.37473,0.00529
5033.30320,0.00738
5035.23167,0.01190
5037.16014,0.01346
5039.08861,0.01290
5041.01708,0.01643
5042.94554,0.01731
5044.87401,0.00902
5046.80248,-0.00101
5048.73095,0.00111
5050.65942,0.01372
5052.58789,0.02025
5054.51636,0.01728
5056.44482,0.01832
5058.37329,0.02942
5060.30176,0.03552
5062.23023,0.03170
5064.15870,0.03004
5066.08717,0.02471
5068.01564,0.01060
5069.94410,0.00396
5071.87257,0.01010
5073.80104,0.01694
5075.72951,0.01943
5077.65798,0.01905
5079.58645,0.01629
5081.51492,0.01429
5083.44339,0.01312
5085.37185,0.01125
5087.30032,0.01217
5089.22879,0.01633
5091.15726,0.01754
5093.08573,0.01124
5095.01420,0.00376
5096.94267,0.00354
5098.87113,0.00564
5100.79960,0.00772
5102.72807,0.01567
5104.65654,0.02385
5106.58501,0.02877
5108.51348,0.03071
5110.44195,0.02111
5112.37042,0.01105
5114.29888,0.01628
5116.22735,0.02379
5118.15582,0.02890
5120.08429,0.03582
5122.01276,0.03450
5123.94123,0.02168
5125.86970,0.01064
5127.79816,0.01544
5129.72663,0.02790
5131.65510,0.03337
5133.58357,0.03230
5135.51204,0.02380
5137.44051,0.01210
5139.36898,0.01061
5141.29745,0.02445
5143.22591,0.04701
5145.15438,0.05826
5147.08285,0.04928
5149.01132,0.03644
5150.93979,0.03146
5152.86826,0.03227
5154.79673,0.03288
5156.72519,0.03104
5158.65366,0.03203
5160.58213,0.03880
5162.51060,0.04603
5164.43907,0.05097
5166.36754,0.05068
5168.29601,0.03540
5170.22448,0.02019
5172.15294,0.02469
5174.08141,0.02941
5176.00988,0.02343
5177.93835,0.01828
5179.86682,0.01887
5181.79529,0.02426
5183.72376,0.02838
5185.65222,0.02658
5187.58069,0.03003
5189.50916,0.04330
5191.43763,0.04688
5193.36610,0.04226
5195.29457,0.04680
5197.22304,0.04407
5199.15151,0.02598
5201.07997,0.02021
5203.00844,0.03157
5204.93691,0.04343
5206.86538,0.04376
5208.79385,0.02870
5210.72232,0.01925
5212.65079,0.02854
5214.57925,0.04415
5216.50772,0.05832
5218.43619,0.06459
5220.36466,0.05717
5222.29313,0.05071
5224.22160,0.04833
5226.15007,0.03174
5228.07854,0.00542
5230.00700,-0.00643
5231.93547,-0.00059
5233.86394,0.00668
5235.79241,0.01223
5237.72088,0.02169
5239.64935,0.02311
5241.57782,0.01460
5243.50628,0.01357
5245.43475,0.02299
5247.36322,0.03445
5249.29169,0.04650
5251.22016,0.04868
5253.14863,0.03875
5255.07710,0.03669
5257.00556,0.04368
5258.93403,0.04143
5260.86250,0.02898
5262.79097,0.01906
5264.71944,0.02269
5266.64791,0.03173
5268.57638,0.02797
5270.50485,0.01513
5272.43331,0.01328
5274.36178,0.03045
5276.29025,0.05798
5278.21872,0.07277
5280.14719,0.06145
5282.07566,0.04487
5284.00413,0.04368
5285.93259,0.05060
5287.86106,0.05473
5289.78953,0.06080
5291.71800,0.06823
5293.64647,0.06528
5295.57494,0.05456
5297.50341,0.04612
5299.43188,0.04344
5301.36034,0.04842
5303.28881,0.06138
5305.21728,0.07001
5307.14575,0.05893
5309.07422,0.04197
5311.00269,0.04350
5312.93116,0.05162
5314.85962,0.04652
5316.78809,0.04175
5318.71656,0.05656
5320.64503,0.07544
5322.57350,0.08400
5324.50197,0.07743
5326.43044,0.05047
5328.35891,0.02621
5330.28737,0.02464
5332.21584,0.04072
5334.14431,0.06175
5336.07278,0.07157
5338.00125,0.07553
5339.92972,0.08316
5341.85819,0.08640
5343.78665,0.07960
5345.71512,0.06784
5347.64359,0.05894
5349.57206,0.05125
5351.50053,0.04850
5353.42900,0.05413
5355.35747,0.05378
5357.28594,0.04492
5359.21440,0.03744
5361.14287,0.03377
5363.07134,0.03997
5364.99981,0.05659
5366.92828,0.06740
5368.85675,0.06659
5370.78522,0.06820
5372.71368,0.07435
5374.64215,0.06744
5376.57062,0.04866
5378.49909,0.04456
5380.42756,0.05613
5382.35603,0.06268
5384.28450,0.05365
5386.21297,0.04349
5388.14143,0.04582
5390.06990,0.05127
5391.99837,0.05982
5393.92684,0.06732
5395.85531,0.06314
5397.78378,0.06141
5399.71225,0.06001
5401.64071,0.05470
5403.56918,0.06326
5405.49765,0.07159
5407.42612,0.05541
5409.35459,0.04427
5411.28306,0.07306
5413.21153,0.11140
5415.13999,0.11878
5417.06846,0.10670
5418.99693,0.08969
5420.92540,0.07574
5422.85387,0.07206
5424.78234,0.07743
5426.71081,0.08709
5428.63928,0.09047
5430.56774,0.08487
5432.49621,0.07802
5434.42468,0.06147
5436.35315,0.03649
5438.28162,0.02222
5440.21009,0.02588
5442.13856,0.04873
5444.06702,0.07530
5445.99549,0.08214
5447.92396,0.07441
5449.85243,0.07465
5451.78090,0.08255
5453.70937,0.09144
5455.63784,0.10420
5457.56631,0.11269
5459.49477,0.10326
5461.42324,0.08822
5463.35171,0.08205
5465.28018,0.08237
5467.20865,0.08551
5469.13712,0.08136
5471.06559,0.07939
5472.99405,0.09534
5474.92252,0.10102
5476.85099,0.08085
5478.77946,0.06640
5480.70793,0.07073
5482.63640,0.08934
5484.56487,0.10231
5486.49334,0.09892
5488.42180,0.09715
5490.35027,0.09393
5492.27874,0.07797
5494.20721,0.06821
5496.13568,0.07432
5498.06415,0.08262
5499.99262,0.07857
5501.92108,0.07660
5503.84955,0.09508
5505.77802,0.10519
5507.70649,0.09070
5509.63496,0.07922
5511.56343,0.07785
5513.49190,0.08122
5515.42037,0.08130
5517.34883,0.06687
5519.27730,0.05419
5521.20577,0.05882
5523.13424,0.07331
5525.06271,0.08143
5526.99118,0.07370
5528.91965,0.06438
5530.84811,0.06315
5532.77658,0.05928
5534.70505,0.05337
5536.63352,0.05092
5538.56199,0.06148
5540.49046,0.08724
5542.41893,0.09352
5544.34740,0.06823
5546.27586,0.05117
5548.20433,0.05658
5550.13280,0.06195
5552.06127,0.06295
5553.98974,0.06295
5555.91821,0.06556
5557.84668,0.08692
5559.77514,0.10282
5561.70361,0.07945
5563.63208,0.06047
5565.56055,0.08520
5567.48902,0.10685
5569.41749,0.09378
5571.34596,0.07424
5573.27443,0.07544
5575.20289,0.09823
5577.13136,0.10798
5579.05983,0.08669
5580.98830,0.06331
5582.91677,0.06183
5584.84524,0.07446
5586.77371,0.09578
5588.70217,0.11045
5590.63064,0.09472
5592.55911,0.07272
5594.48758,0.06676
5596.41605,0.06004
5598.34452,0.05343
5600.27299,0.05636
5602.20145,0.06463
5604.12992,0.07214
5606.05839,0.07490
5607.98686,0.08108
5609.91533,0.09420
5611.84380,0.10159
5613.77227,0.08654
5615.70074,0.06151
5617.62920,0.06456
5619.55767,0.08229
5621.48614,0.07952
5623.41461,0.07432
5625.34308,0.08606
5627.27155,0.09604
5629.20002,0.08172
5631.12848,0.05921
5633.05695,0.05163
5634.98542,0.06176
5636.91389,0.08596
5638.84236,0.09931
5640.77083,0.08955
5642.69930,0.08680
5644.62777,0.10360
5646.55623,0.11124
5648.48470,0.09106
5650.41317,0.06780
5652.34164,0.06786
5654.27011,0.08246
5656.19858,0.09869
5658.12705,0.10668
5660.05551,0.09052
5661.98398,0.06139
5663.91245,0.04459
5665.84092,0.04753
5667.76939,0.06507
5669.69786,0.07936
5671.62633,0.07771
5673.55480,0.07557
5675.48326,0.08628
5677.41173,0.09164
5679.34020,0.08092
5681.26867,0.07657
5683.19714,0.08687
5685.12561,0.08516
5687.05408,0.06471
5688.98254,0.05427
5690.91101,0.05985
5692.83948,0.06429
5694.76795,0.06971
5696.69642,0.08437
5698.62489,0.09759
5700.55336,0.09763
5702.48183,0.09285
5704.41029,0.09561
5706.33876,0.10224
5708.26723,0.09518
5710.19570,0.08279
5712.12417,0.09445
5714.05264,0.11439
5715.98111,0.10606
5717.90957,0.07952
5719.83804,0.07192
5721.76651,0.09689
5723.69498,0.11901
5725.62345,0.10582
5727.55192,0.08334
5729.48039,0.07790
5731.40886,0.07624
5733.33732,0.07199
5735.26579,0.06306
5737.19426,0.05698
5739.12273,0.06337
5741.05120,0.06053
5742.97967,0.04500
5744.90814,0.02778
5746.83660,0.01470
5748.76507,0.02822
5750.69354,0.07112
5752.62201,0.09871
5754.55048,0.08103
5756.47895,0.05392
5758.40742,0.05230
5760.33588,0.07448
5762.26435,0.11102
5764.19282,0.14066
5766.12129,0.15440
5768.04976,0.14681
5769.97823,0.10944
5771.90670,0.07817
5773.83517,0.08161
5775.76363,0.09271
5777.69210,0.08922
5779.62057,0.08342
5781.54904,0.08597
5783.47751,0.08176
5785.40598,0.07112
5787.33445,0.07567
5789.26291,0.09336
5791.19138,0.10319
5793.11985,0.08856
5795.04832,0.06681
5796.97679,0.05907
5798.90526,0.04259
5800.83373,0.02321
5802.76220,0.03698
5804.69066,0.07026
5806.61913,0.09474
5808.54760,0.11458
5810.47607,0.11720
5812.40454,0.08834
5814.33301,0.06456
5816.26148,0.07118
5818.18994,0.08527
5820.11841,0.08828
5822.04688,0.08329
5823.97535,0.06790
5825.90382,0.04258
5827.83229,0.02500
5829.76076,0.04271
5831.68923,0.09714
5833.61769,0.13780
5835.54616,0.12574
5837.47463,0.08324
5839.40310,0.05132
5841.33157,0.04572
5843.26004,0.05126
5845.18851,0.05616
5847.11697,0.05474
5849.04544,0.05731
5850.97391,0.08180
5852.90238,0.10821
5854.83085,0.11517
5856.75932,0.10748
5858.68779,0.09234
5860.61626,0.07431
5862.54472,0.07273
5864.47319,0.08172
5866.40166,0.07398
5868.33013,0.07007
5870.25860,0.08136
5872.18707,0.08501
5874.11554,0.08648
5876.04400,0.08606
5877.97247,0.07362
5879.90094,0.07916
5881.82941,0.10999
5883.75788,0.12421
5885.68635,0.11055
5887.61482,0.09470
5889.54329,0.08063
5891.47175,0.04793
5893.40022,0.01791
5895.32869,0.02760
5897.25716,0.05916
5899.18563,0.08196
5901.11410,0.08989
5903.04257,0.08449
5904.97103,0.08155
5906.89950,0.08186
5908.82797,0.06578
5910.75644,0.05528
5912.68491,0.08485
5914.61338,0.12348
5916.54185,0.13275
5918.47032,0.13821
5920.39878,0.15071
5922.32725,0.12948
5924.25572,0.08898
5926.18419,0.08048
5928.11266,0.08269
5930.04113,0.06722
5931.96960,0.06162
5933.89806,0.07415
5935.82653,0.08161
5937.75500,0.08394
5939.68347,0.08548
5941.61194,0.07025
5943.54041,0.04903
5945.46888,0.06299
5947.39734,0.09582
5949.32581,0.08938
5951.25428,0.05995
5953.18275,0.05041
5955.11122,0.04417
5957.03969,0.04397
5958.96816,0.06904
5960.89663,0.09314
5962.82509,0.08878
5964.75356,0.06956
5966.68203,0.05773
5968.61050,0.05300
5970.53897,0.05025
5972.46744,0.05505
5974.39591,0.05477
5976.32437,0.04912
5978.25284,0.04818
5980.18131,0.03402
5982.10978,0.00727
5984.03825,-0.00021
5985.96672,0.03217
5987.89519,0.07532
5989.82366,0.08579
5991.75212,0.07769
5993.68059,0.06820
5995.60906,0.04799
5997.53753,0.03647
5999.46600,0.03525
6001.39447,0.01578
6003.32294,-0.00084
6005.25140,0.02158
6007.17987,0.05227
6009.10834,0.05920
6011.03681,0.05911
6012.96528,0.06390
6014.89375,0.07350
6016.82222,0.09101
6018.75069,0.09644
6020.67915,0.07257
6022.60762,0.04562
6024.53609,0.03491
6026.46456,0.03255
6028.39303,0.04001
6030.32150,0.07519
6032.24997,0.12097
6034.17843,0.11336
6036.10690,0.06755
6038.03537,0.07485
6039.96384,0.10279
6041.89231,0.09566
6043.82078,0.07973
6045.74925,0.06514
6047.67772,0.05910
6049.60618,0.07555
6051.53465,0.09564
6053.46312,0.08882
6055.39159,0.05640
6057.32006,0.04525
6059.24853,0.06224
6061.17700,0.09304
6063.10546,0.14102
6065.03393,0.14713
6066.96240,0.08747
6068.89087,0.04637
6070.81934,0.06528
6072.74781,0.09070
6074.67628,0.09631
6076.60475,0.10540
6078.53321,0.10330
6080.46168,0.06055
6082.39015,0.02135
6084.31862,0.02593
6086.24709,0.05100
6088.17556,0.06210
6090.10403,0.05135
6092.03249,0.05108
6093.96096,0.06611
6095.88943,0.06558
6097.81790,0.05585
6099.74637,0.03705
6101.67484,0.01876
6103.60331,0.04604
6105.53177,0.09880
6107.46024,0.11971
6109.38871,0.09625
6111.31718,0.05397
6113.24565,0.04180
6115.17412,0.07911
6117.10259,0.12475
6119.03106,0.12542
6120.95952,0.09899
6122.88799,0.08587
6124.81646,0.06069
6126.74493,0.02061
6128.67340,0.02556
6130.60187,0.09078
6132.53034,0.13693
6134.45880,0.12500
6136.38727,0.09454
6138.31574,0.07768
6140.24421,0.08738
6142.17268,0.10248
6144.10115,0.08738
6146.02962,0.05517
6147.95809,0.04573
6149.88655,0.06633
6151.81502,0.08361
6153.74349,0.08719
6155.67196,0.08861
6157.60043,0.08581
6159.52890,0.08379
6161.45737,0.09093
6163.38583,0.11031
6165.31430,0.13709
6167.24277,0.13771
6169.17124,0.09388
6171.09971,0.05416
6173.02818,0.05945
6174.95665,0.07697
6176.88512,0.08099
6178.81358,0.07393
6180.74205,0.03863
6182.67052,0.00062
6184.59899,0.01654
6186.52746,0.06000
6188.45593,0.08425
6190.38440,0.09779
6192.31286,0.10775
6194.24133,0.09126
6196.16980,0.04948
6198.09827,0.03697
6200.02674,0.06256
6201.95521,0.07597
6203.88368,0.05081
6205.81215,0.01716
6207.74061,0.03222
6209.66908,0.07830
6211.59755,0.09217
6213.52602,0.08365
6215.45449,0.08028
6217.38296,0.09896
6219.31143,0.12538
6221.23989,0.09939
6223.16836,0.03949
6225.09683,0.02048
6227.02530,0.02910
6228.95377,0.02634
6230.88224,0.01596
6232.81071,0.01644
6234.73918,0.04466
6236.66764,0.07912
6238.59611,0.08035
6240.52458,0.04986
6242.45305,0.04186
6244.38152,0.08260
6246.30999,0.11030
6248.23846,0.09384
6250.16692,0.07191
6252.09539,0.06039
6254.02386,0.05846
6255.95233,0.06391
6257.88080,0.07495
6259.80927,0.09209
6261.73774,0.09815
6263.66621,0.08048
6265.59467,0.06248
6267.52314,0.07938
6269.45161,0.11473
6271.38008,0.12355
6273.30855,0.09517
6275.23702,0.06554
6277.16549,0.05294
6279.09395,0.04893
6281.02242,0.04838
6282.95089,0.03791
6284.87936,0.04245
6286.80783,0.07160
6288.73630,0.09011
6290.66477,0.09496
6292.59323,0.10097
6294.52170,0.10570
6296.45017,0.09280
6298.37864,0.05728
6300.30711,0.02060
6302.23558,0.00178
6304.16405,0.01302
6306.09252,0.04522
6308.02098,0.06592
6309.94945,0.08543
6311.87792,0.13084
6313.80639,0.15959
6315.73486,0.12471
6317.66333,0.05803
6319.59180,0.03100
6321.52026,0.06586
6323.44873,0.11195
6325.37720,0.12557
6327.30567,0.12606
6329.23414,0.12849
6331.16261,0.11299
6333.09108,0.08865
6335.01955,0.09522
6336.94801,0.11918
6338.87648,0.12438
6340.80495,0.11957
6342.73342,0.09794
6344.66189,0.06484
6346.59036,0.05222
6348.51883,0.04501
6350.44729,0.06444
6352.37576,0.12792
6354.30423,0.16000
6356.23270,0.12664
6358.16117,0.07102
6360.08964,0.05882
6362.01811,0.07510
6363.94658,0.05906
6365.87504,0.03640
6367.80351,0.04664
6369.73198,0.06517
6371.66045,0.07120
6373.58892,0.05809
6375.51739,0.05083
6377.44586,0.06776
6379.37432,0.07172
6381.30279,0.04638
6383.23126,0.03955
6385.15973,0.07016
6387.08820,0.08965
6389.01667,0.08949
6390.94514,0.07400
6392.87361,0.04885
6394.80207,0.05721
6396.73054,0.09933
6398.65901,0.13449
6400.58748,0.14109
6402.51595,0.11045
6404.44442,0.05604
6406.37289,0.01628
6408.30135,0.02331
6410.22982,0.05567
6412.15829,0.05493
6414.08676,0.02442
6416.01523,0.02143
6417.94370,0.05958
6419.87217,0.10954
6421.80064,0.14807
6423.72910,0.16084
6425.65757,0.13179
6427.58604,0.07455
6429.51451,0.02643
6431.44298,0.03031
6433.37145,0.09478
6435.29992,0.15468
6437.22838,0.14673
6439.15685,0.08957
6441.08532,0.04690
6443.01379,0.04226
6444.94226,0.07654
6446.87073,0.11334
6448.79920,0.11362
6450.72766,0.07225
6452.65613,0.02482
6454.58460,0.01616
6456.51307,0.03085
6458.44154,0.02622
6460.37001,0.01599
6462.29848,0.03225
6464.22695,0.06071
6466.15541,0.09348
6468.08388,0.13979
6470.01235,0.15239
6471.94082,0.11636
6473.86929,0.08584
6475.79776,0.08129
6477.72623,0.08286
6479.65469,0.06580
6481.58316,0.06246
6483.51163,0.07918
6485.44010,0.06075
6487.36857,0.01482
6489.29704,-0.01168
6491.22551,-0.01299
6493.15398,0.01544
6495.08244,0.07098
6497.01091,0.09787
6498.93938,0.08696
6500.86785,0.07689
6502.79632,0.07258
6504.72479,0.08088
6506.65326,0.10835
6508.58172,0.10769
6510.51019,0.05037
6512.43866,0.00045
6514.36713,0.01162
6516.29560,0.05711
6518.22407,0.10179
6520.15254,0.11060
6522.08101,0.07715
6524.00947,0.05800
6525.93794,0.07168
6527.86641,0.06012
6529.79488,0.03096
6531.72335,0.04334
6533.65182,0.09135
6535.58029,0.11047
6537.50875,0.08779
6539.43722,0.06249
6541.36569,0.05285
6543.29416,0.06248
6545.22263,0.09679
6547.15110,0.13123
6549.07957,0.13500
6551.00804,0.10813
6552.93650,0.06493
6554.86497,0.02963
6556.79344,0.03904
6558.72191,0.07322
6560.65038,0.06284
6562.57885,0.00988
6564.50732,0.00627
6566.43578,0.05918
6568.36425,0.05819
6570.29272,-0.00865
6572.22119,-0.04102
6574.14966,0.00683
6576.07813,0.09145
6578.00660,0.16105
6579.93507,0.20285
6581.86353,0.21591
6583.79200,0.17006
6585.72047,0.09370
6587.64894,0.03777
6589.57741,0.00629
6591.50588,-0.01402
6593.43435,-0.01825
6595.36281,0.02293
6597.29128,0.08279
6599.21975,0.09688
6601.14822,0.03110
6603.07669,-0.03309
6605.00516,-0.02582
6606.93363,0.00637
6608.86210,0.03969
6610.79056,0.05596
6612.71903,0.03584
6614.64750,0.02558
6616.57597,0.05068
6618.50444,0.09118
6620.43291,0.10596
6622.36138,0.08156
6624.28984,0.07017
6626.21831,0.08825
6628.14678,0.09094
6630.07525,0.09721
6632.00372,0.14934
6633.93219,0.20130
6635.86066,0.20798
6637.78912,0.17385
6639.71759,0.11460
6641.64606,0.03730
6643.57453,-0.01277
6645.50300,0.00680
6647.43147,0.03811
6649.35994,0.04021
6651.28841,0.05767
6653.21687,0.10479
6655.14534,0.14988
6657.07381,0.13127
6659.00228,0.05604
6660.93075,-0.00636
6662.85922,-0.04569
6664.78769,-0.02650
6666.71615,0.03894
6668.64462,0.06667
6670.57309,0.08099
6672.50156,0.11555
6674.43003,0.10825
6676.35850,0.07614
6678.28697,0.05041
6680.21544,0.01914
6682.14390,0.02892
6684.07237,0.08793
6686.00084,0.10322
6687.92931,0.05416
6689.85778,0.01991
6691.78625,0.04458
6693.71472,0.07828
6695.64318,0.06545
6697.57165,0.04905
6699.50012,0.08261
6701.42859,0.09692
6703.35706,0.05576
6705.28553,0.02309
6707.21400,0.02483
6709.14247,0.02238
6711.07093,0.02394
6712.99940,0.03886
6714.92787,0.03063
6716.85634,0.03713
6718.78481,0.09792
6720.71328,0.11852
6722.64175,0.07142
6724.57021,0.06837
6726.49868,0.14314
6728.42715,0.21265
6730.35562,0.17867
6732.28409,0.08277
6734.21256,0.05351
6736.14103,0.06204
6738.06950,0.02787
6739.99796,0.02414
6741.92643,0.09165
6743.85490,0.11662
6745.78337,0.07410
6747.71184,0.04680
6749.64031,0.04076
6751.56878,-0.00964
6753.49724,-0.04071
6755.42571,0.00008
6757.35418,0.02821
6759.28265,0.05212
6761.21112,0.09105
6763.13959,0.08098
6765.06806,0.04684
6766.99653,0.04781
6768.92499,0.09725
6770.85346,0.14247
6772.78193,0.13285
6774.71040,0.10138
6776.63887,0.09329
6778.56734,0.08275
6780.49581,0.04034
6782.42427,0.03408
6784.35274,0.10806
6786.28121,0.16047
6788.20968,0.10664
6790.13815,-0.00303
6792.06662,-0.06197
6793.99509,-0.03949
6795.92355,0.00249
6797.85202,0.00171
6799.78049,-0.02013
6801.70896,-0.01517
6803.63743,-0.02141
6805.56590,-0.04500
6807.49437,-0.03634
6809.42284,-0.01640
6811.35130,-0.00169
6813.27977,0.02515
6815.20824,0.04301
6817.13671,0.03296
6819.06518,0.03475
6820.99365,0.06233
6822.92212,0.07800
6824.85058,0.06076
6826.77905,0.03058
6828.70752,0.01377
6830.63599,0.04459
6832.56446,0.08723
6834.49293,0.08548
6836.42140,0.05627
6838.34987,0.04206
6840.27833,0.05407
6842.20680,0.05214
6844.13527,0.01299
6846.06374,0.01644
6847.99221,0.09298
6849.92068,0.13332
6851.84915,0.09248
6853.77761,0.02535
6855.70608,-0.03174
6857.63455,-0.05204
6859.56302,-0.06291
6861.49149,-0.09103
6863.41996,-0.10677
6865.34843,-0.11085
6867.27690,-0.10972
6869.20536,-0.05188
6871.13383,0.04902
6873.06230,0.11831
6874.99077,0.14795
6876.91924,0.14285
6878.84771,0.06744
6880.77618,0.00429
6882.70464,0.02455
6884.63311,0.01818
6886.56158,-0.04209
6888.49005,-0.05257
6890.41852,-0.01399
6892.34699,-0.00872
6894.27546,-0.00627
6896.20393,0.03064
6898.13239,0.04509
6900.06086,0.04362
6901.98933,0.05407
6903.91780,0.05206
6905.84627,0.05114
6907.77474,0.04164
6909.70321,0.01120
6911.63167,-0.00685
6913.56014,0.00283
6915.48861,0.01017
6917.41708,0.00590
6919.34555,0.02266
6921.27402,0.04117
6923.20249,0.02847
6925.13096,0.01260
6927.05942,0.03112
6928.98789,0.04299
6930.91636,-0.02071
6932.84483,-0.08031
6934.77330,-0.08262
6936.70177,-0.10987
6938.63024,-0.14714
6940.55870,-0.09701
6942.48717,-0.00551
6944.41564,0.04338
6946.34411,0.04646
6948.27258,0.02165
6950.20105,0.04841
6952.12952,0.11018
6954.05799,0.15318
6955.98645,0.17965
6957.91492,0.13006
6959.84339,0.01936
6961.77186,-0.05655
6963.70033,-0.06086
6965.62880,-0.01491
6967.55727,0.03950
6969.48573,0.08233
6971.41420,0.13501
6973.34267,0.16418
6975.27114,0.10429
6977.19961,0.02077
6979.12808,0.01199
6981.05655,0.05183
6982.98501,0.06330
6984.91348,0.03140
6986.84195,0.04977
6988.77042,0.13417
6990.69889,0.14112
6992.62736,0.09396
6994.55583,0.11964
6996.48430,0.16826
6998.41276,0.15147
7000.34123,0.09737
7002.26970,0.02612
7004.19817,-0.02533
7006.12664,-0.01284
7008.05511,0.01810
7009.98358,0.02711
7011.91204,0.07929
7013.84051,0.16574
7015.76898,0.15471
7017.69745,0.05361
7019.62592,-0.01382
7021.55439,0.02543
7023.48286,0.09811
7025.41133,0.10148
7027.33979,0.08975
7029.26826,0.09086
7031.19673,0.06208
7033.12520,0.04413
7035.05367,0.05244
7036.98214,0.05725
7038.91061,0.02594
7040.83907,-0.03689
7042.76754,-0.07537
7044.69601,-0.07111
7046.62448,-0.03758
7048.55295,0.00892
7050.48142,0.02819
7052.40989,0.04956
7054.33836,0.06629
7056.26682,0.00056
7058.19529,-0.07351
7060.12376,-0.03780
7062.05223,0.06663
7063.98070,0.16444
7065.90917,0.16238
7067.83764,0.07831
7069.76610,0.03397
7071.69457,0.06710
7073.62304,0.02962
7075.55151,-0.03832
7077.47998,0.03463
7079.40845,0.22833
7081.33692,0.33070
7083.26539,0.22341
7085.19385,0.09016
7087.12232,0.06807
7089.05079,0.11090
7090.97926,0.11942
7092.90773,0.11326
7094.83620,0.10067
7096.76467,0.05256
7098.69313,-0.00575
7100.62160,-0.03755
7102.55007,-0.03311
7104.47854,-0.00373
7106.40701,0.01501
7108.33548,0.00774
7110.26395,-0.02644
7112.19242,-0.04204
7114.12088,-0.02853
7116.04935,-0.05408
7117.97782,-0.08098
7119.90629,-0.00110
7121.83476,0.13847
7123.76323,0.19787
7125.69170,0.10150
7127.62016,-0.03761
7129.54863,-0.07158
7131.47710,0.02128
7133.40557,0.16144
7135.33404,0.21926
7137.26251,0.19059
7139.19098,0.18201
7141.11944,0.21675
7143.04791,0.14441
7144.97638,-0.07079
7146.90485,-0.10959
7148.83332,0.04758
7150.76179,0.12683
7152.69026,0.08488
7154.61873,0.04307
7156.54719,0.09962
7158.47566,0.14276
7160.40413,0.08379
7162.33260,0.02662
7164.26107,0.03778
7166.18954,0.10798
7168.11801,0.22741
7170.04647,0.28424
7171.97494,0.21251
7173.90341,0.11589
7175.83188,0.02782
7177.76035,-0.02093
7179.68882,0.02726
7181.61729,0.11431
7183.54576,0.12296
7185.47422,0.04099
7187.40269,-0.02382
7189.33116,-0.06039
7191.25963,-0.09615
7193.18810,-0.05657
7195.11657,0.03008
7197.04504,0.04381
7198.97350,-0.02508
7200.90197,-0.12635
7202.83044,-0.24147
7204.75891,-0.28836
7206.68738,-0.15848
7208.61585,-0.01500
7210.54432,0.03022
7212.47279,0.03295
7214.40125,0.02250
7216.32972,0.02910
7218.25819,0.16758
7220.18666,0.26994
7222.11513,0.17011
7224.04360,-0.00134
7225.97207,-0.06956
7227.90053,-0.01149
7229.82900,0.01280
7231.75747,-0.04506
7233.68594,-0.03024
7235.61441,0.05944
7237.54288,0.13171
7239.47135,0.18963
7241.39982,0.24283
7243.32828,0.23810
7245.25675,0.17018
7247.18522,0.12191
7249.11369,0.15752
7251.04216,0.24221
7252.97063,0.26523
7254.89910,0.19258
7256.82756,0.10960
7258.75603,0.08791
7260.68450,0.11055
7262.61297,0.04067
7264.54144,-0.02008
7266.46991,0.02704
7268.39838,0.02573
7270.32685,-0.04375
7272.25531,-0.10228
7274.18378,-0.07887
7276.11225,0.01842
7278.04072,0.07032
7279.96919,-0.00177
7281.89766,-0.03649
7283.82613,0.02529
7285.75459,0.03555
7287.68306,0.01566
7289.61153,0.07758
7291.54000,0.16031
7293.46847,0.17432
7295.39694,0.16899
7297.32541,0.14574
7299.25387,0.10022
7301.18234,0.07927
7303.11081,0.08135
7305.03928,0.03359
7306.96775,-0.03351
7308.89622,0.04179
7310.82469,0.14209
7312.75316,0.09094
7314.68162,-0.01445
7316.61009,-0.10412
7318.53856,-0.10150
7320.46703,-0.00776
7322.39550,0.04605
7324.32397,0.01699
7326.25244,-0.01076
7328.18090,-0.07414
7330.10937,-0.17571
7332.03784,-0.15779
7333.96631,-0.04385
7335.89478,0.08045
7337.82325,0.19852
7339.75172,0.22324
7341.68019,0.12889
7343.60865,0.08817
7345.53712,0.02688
7347.46559,-0.08804
7349.39406,-0.13408
7351.32253,-0.10584
7353.25100,-0.07999
7355.17947,-0.07664
7357.10793,-0.06059
7359.03640,0.01917
7360.96487,0.11947
7362.89334,0.16347
7364.82181,0.14127
7366.75028,0.09848
7368.67875,0.05955
7370.60722,0.04514
7372.53568,0.08494
7374.46415,0.13228
7376.39262,0.09991
7378.32109,0.03260
7380.24956,0.03143
7382.17803,0.06529
7384.10650,-0.03941
7386.03496,-0.16278
7387.96343,-0.04716
7389.89190,0.15441
7391.82037,0.21792
7393.74884,0.11886
7395.67731,0.00657
7397.60578,0.04222
7399.53425,0.12426
7401.46271,0.10475
7403.39118,0.02111
7405.31965,-0.06253
7407.24812,-0.14367
7409.17659,-0.17964
7411.10506,-0.17731
7413.03353,-0.20722
7414.96199,-0.21396
7416.89046,-0.11126
7418.81893,0.05832
7420.74740,0.13257
7422.67587,0.08008
7424.60434,0.04479
7426.53281,0.02384
7428.46128,-0.02902
7430.38974,0.00112
7432.31821,0.10481
7434.24668,0.14127
7436.17515,0.07559
7438.10362,-0.04199
7440.03209,-0.05911
7441.96056,0.00181
7443.88902,0.02415
7445.81749,0.03574
7447.74596,0.06678
7449.67443,0.08841
7451.60290,0.06492
7453.53137,0.00741
7455.45984,0.01060
7457.38831,0.08523
7459.31677,0.15360
7461.24524,0.18785
7463.17371,0.23613
7465.10218,0.23141
7467.03065,0.16007
7468.95912,0.14460
7470.88759,0.20276
7472.81605,0.21786
7474.74452,0.11947
7476.67299,0.03584
7478.60146,0.10777
7480.52993,0.20643
7482.45840,0.12045
7484.38687,-0.01327
7486.31533,0.01248
7488.24380,0.14856
7490.17227,0.21706
7492.10074,0.16354
7494.02921,0.09245
7495.95768,0.02974
7497.88615,-0.07624
