399.19301,-0.39419
401.12148,0.20918
403.04995,0.45129
404.97842,0.30265
406.90689,0.12790
408.83536,0.06240
410.76382,0.09289
412.69229,0.18419
414.62076,0.23471
416.54923,0.21733
418.47770,0.16897
420.40617,0.11021
422.33464,0.08378
424.26311,0.09167
426.19157,0.09860
428.12004,0.08589
430.04851,0.07947
431.97698,0.07592
433.90545,0.02156
435.83392,-0.05800
437.76239,-0.09877
439.69085,-0.07174
441.61932,0.00043
443.54779,0.01871
445.47626,-0.02697
447.40473,-0.00169
449.33320,0.08967
451.26167,0.11150
453.19013,0.07094
455.11860,0.04546
457.04707,0.07133
458.97554,0.12113
460.90401,0.13788
462.83248,0.14035
464.76095,0.11725
466.68942,0.06463
468.61788,0.06218
470.54635,0.11318
472.47482,0.11864
474.40329,0.04891
476.33176,0.03675
478.26023,0.06318
480.18870,0.08020
482.11716,0.07251
484.04563,0.04423
485.97410,0.03483
487.90257,0.05867
489.83104,0.07893
491.75951,0.08160
493.68798,0.08061
495.61645,0.07669
497.54491,0.08570
499.47338,0.11377
501.40185,0.14873
503.33032,0.17770
505.25879,0.17604
507.18726,0.13659
509.11573,0.09852
511.04419,0.09946
512.97266,0.11551
514.90113,0.11152
516.82960,0.09981
518.75807,0.09418
520.68654,0.09127
522.61501,0.10760
524.54348,0.14189
526.47194,0.16734
528.40041,0.16467
530.32888,0.12190
532.25735,0.07845
534.18582,0.08725
536.11429,0.10963
538.04276,0.10426
539.97122,0.09533
541.89969,0.09737
543.82816,0.11486
545.75663,0.13590
547.68510,0.13850
549.61357,0.12418
551.54204,0.09239
553.47051,0.05135
555.39897,0.04103
557.32744,0.06837
559.25591,0.09524
561.18438,0.10106
563.11285,0.08717
565.04132,0.07441
566.96979,0.07575
568.89825,0.07851
570.82672,0.08227
572.75519,0.08914
574.68366,0.09134
576.61213,0.08688
578.54060,0.08083
580.46907,0.08287
582.39754,0.09802
584.32600,0.11093
586.25447,0.10819
588.18294,0.09576
590.11141,0.07722
592.03988,0.06174
593.96835,0.06848
595.89682,0.08701
597.82528,0.09518
599.75375,0.10111
601.68222,0.11770
603.61069,0.13435
605.53916,0.14126
607.46763,0.13355
609.39610,0.12242
611.32456,0.12852
613.25303,0.13439
615.18150,0.11836
617.10997,0.10369
619.03844,0.10887
620.96691,0.11347
622.89538,0.10666
624.82385,0.10470
626.75231,0.11109
628.68078,0.11250
630.60925,0.10577
632.53772,0.10052
634.46619,0.10981
636.39466,0.12643
638.32313,0.13035
640.25159,0.12672
642.18006,0.12185
644.10853,0.11109
646.03700,0.10581
647.96547,0.10903
649.89394,0.10911
651.82241,0.10105
653.75088,0.09097
655.67934,0.08743
657.60781,0.09331
659.53628,0.10841
661.46475,0.11921
663.39322,0.11706
665.32169,0.11204
667.25016,0.11358
669.17862,0.12475
671.10709,0.13374
673.03556,0.13792
674.96403,0.13505
676.89250,0.12553
678.82097,0.11799
680.74944,0.10863
682.67791,0.09730
684.60637,0.10218
686.53484,0.12285
688.46331,0.13600
690.39178,0.13642
692.32025,0.13597
694.24872,0.13779
696.17719,0.13888
698.10565,0.13390
700.03412,0.11835
701.96259,0.10332
703.89106,0.10293
705.81953,0.11409
707.74800,0.12323
709.67647,0.12324
711.60494,0.12198
713.53340,0.12485
715.46187,0.12686
717.39034,0.12207
719.31881,0.10838
721.24728,0.09837
723.17575,0.10492
725.10422,0.11763
727.03268,0.12296
728.96115,0.12127
730.88962,0.11948
732.81809,0.12223
734.74656,0.12157
736.67503,0.11310
738.60350,0.10624
740.53197,0.10194
742.46043,0.09936
744.38890,0.10141
746.31737,0.10272
748.24584,0.10313
750.17431,0.10999
752.10278,0.11671
754.03125,0.11539
755.95971,0.11544
757.88818,0.11927
759.81665,0.12078
761.74512,0.12454
763.67359,0.12957
765.60206,0.12785
767.53053,0.12596
769.45900,0.12534
771.38746,0.11847
773.31593,0.11696
775.24440,0.12489
777.17287,0.13083
779.10134,0.13497
781.02981,0.13434
782.95828,0.12511
784.88674,0.12096
786.81521,0.12567
788.74368,0.12260
790.67215,0.11466
792.60062,0.11739
794.52909,0.12452
796.45756,0.12534
798.38602,0.12276
800.31449,0.11830
802.24296,0.11368
804.17143,0.11637
806.09990,0.12427
808.02837,0.12794
809.95684,0.12697
811.88531,0.12535
813.81377,0.12461
815.74224,0.12588
817.67071,0.12497
819.59918,0.11954
821.52765,0.11836
823.45612,0.12214
825.38459,0.12140
827.31305,0.11840
829.24152,0.12087
831.16999,0.12612
833.09846,0.12969
835.02693,0.13263
836.95540,0.13438
838.88387,0.13485
840.81234,0.13867
842.74080,0.14260
844.66927,0.13735
846.59774,0.12704
848.52621,0.12066
850.45468,0.11709
852.38315,0.11674
854.31162,0.12361
856.24008,0.13312
858.16855,0.13715
860.09702,0.13421
862.02549,0.12597
863.95396,0.11646
865.88243,0.11326
867.81090,0.11680
869.73937,0.12433
871.66783,0.13445
873.59630,0.13749
875.52477,0.12878
877.45324,0.11915
879.38171,0.11720
881.31018,0.12168
883.23865,0.12742
885.16711,0.12902
887.09558,0.12719
889.02405,0.12591
890.95252,0.12201
892.88099,0.11690
894.80946,0.11918
896.73793,0.12422
898.66640,0.12488
900.59486,0.12766
902.52333,0.13383
904.45180,0.13535
906.38027,0.13252
908.30874,0.13084
910.23721,0.13050
912.16568,0.12821
914.09414,0.12337
916.02261,0.12090
917.95108,0.12355
919.87955,0.12852
921.80802,0.13424
923.73649,0.13710
925.66496,0.13146
927.59343,0.12324
929.52189,0.12334
931.45036,0.12999
933.37883,0.13402
935.30730,0.13371
937.23577,0.13677
939.16424,0.14269
941.09271,0.14130
943.02117,0.13279
944.94964,0.12565
946.87811,0.12390
948.80658,0.12680
950.73505,0.13264
952.66352,0.13869
954.59199,0.14035
956.52045,0.13527
958.44892,0.12737
960.37739,0.12534
962.30586,0.13061
964.23433,0.13327
966.16280,0.12959
968.09127,0.12654
970.01974,0.12620
971.94820,0.12738
973.87667,0.13059
975.80514,0.13347
977.73361,0.13451
979.66208,0.13459
981.59055,0.13769
983.51902,0.14377
985.44748,0.14419
987.37595,0.14003
989.30442,0.13752
991.23289,0.13447
993.16136,0.13195
995.08983,0.13208
997.01830,0.13372
998.94677,0.13837
1000.87523,0.14274
1002.80370,0.14268
1004.73217,0.14204
1006.66064,0.14468
1008.58911,0.14885
1010.51758,0.14996
1012.44605,0.14731
1014.37451,0.14471
1016.30298,0.14388
1018.23145,0.14417
1020.15992,0.14520
1022.08839,0.14438
1024.01686,0.13866
1025.94533,0.12614
1027.87380,0.10805
1029.80226,0.10004
1031.73073,0.11098
1033.65920,0.12879
1035.58767,0.14266
1037.51614,0.14611
1039.44461,0.14355
1041.37308,0.14275
1043.30154,0.14164
1045.23001,0.13999
1047.15848,0.13687
1049.08695,0.13195
1051.01542,0.12963
1052.94389,0.13223
1054.87236,0.13760
1056.80083,0.13996
1058.72929,0.14121
1060.65776,0.14817
1062.58623,0.15609
1064.51470,0.15944
1066.44317,0.16146
1068.37164,0.16026
1070.30011,0.15394
1072.22857,0.14931
1074.15704,0.15013
1076.08551,0.15197
1078.01398,0.14833
1079.94245,0.14050
1081.87092,0.13565
1083.79939,0.13462
1085.72786,0.13556
1087.65632,0.13690
1089.58479,0.13477
1091.51326,0.13193
1093.44173,0.13622
1095.37020,0.14586
1097.29867,0.15051
1099.22714,0.14937
1101.15560,0.15170
1103.08407,0.15462
1105.01254,0.14818
1106.94101,0.13929
1108.86948,0.14029
1110.79795,0.14615
1112.72642,0.14719
1114.65489,0.14564
1116.58335,0.14473
1118.51182,0.14168
1120.44029,0.13457
1122.36876,0.12949
1124.29723,0.13274
1126.22570,0.13896
1128.15417,0.14151
1130.08263,0.14081
1132.01110,0.13977
1133.93957,0.14108
1135.86804,0.14316
1137.79651,0.14177
1139.72498,0.13812
1141.65345,0.13932
1143.58191,0.14570
1145.51038,0.14941
1147.43885,0.15002
1149.36732,0.15241
1151.29579,0.15662
1153.22426,0.15978
1155.15273,0.15868
1157.08120,0.15464
1159.00966,0.15297
1160.93813,0.15312
1162.86660,0.15369
1164.79507,0.15773
1166.72354,0.16067
1168.65201,0.15718
1170.58048,0.15444
1172.50894,0.15473
1174.43741,0.15314
1176.36588,0.15333
1178.29435,0.15651
1180.22282,0.15661
1182.15129,0.15407
1184.07976,0.15178
1186.00823,0.14810
1187.93669,0.14514
1189.86516,0.14684
1191.79363,0.15045
1193.72210,0.15318
1195.65057,0.15572
1197.57904,0.15619
1199.50751,0.15348
1201.43597,0.15172
1203.36444,0.15254
1205.29291,0.15356
1207.22138,0.15407
1209.14985,0.15384
1211.07832,0.15295
1213.00679,0.15233
1214.93526,0.15348
1216.86372,0.15490
1218.79219,0.15179
1220.72066,0.14696
1222.64913,0.14739
1224.57760,0.15148
1226.50607,0.15374
1228.43454,0.15391
1230.36300,0.15368
1232.29147,0.15308
1234.21994,0.15326
1236.14841,0.15473
1238.07688,0.15558
1240.00535,0.15464
1241.93382,0.15357
1243.86229,0.15366
1245.79075,0.15301
1247.71922,0.15156
1249.64769,0.15194
1251.57616,0.15409
1253.50463,0.15613
1255.43310,0.15723
1257.36157,0.15648
1259.29003,0.15446
1261.21850,0.15335
1263.14697,0.15456
1265.07544,0.15834
1267.00391,0.16024
1268.93238,0.15828
1270.86085,0.15898
1272.78932,0.16248
1274.71778,0.16340
1276.64625,0.16291
1278.57472,0.16198
1280.50319,0.16023
1282.43166,0.16094
1284.36013,0.16362
1286.28860,0.16407
1288.21706,0.16232
1290.14553,0.16135
1292.07400,0.16235
1294.00247,0.16402
1295.93094,0.16491
1297.85941,0.16510
1299.78788,0.16339
1301.71634,0.15815
1303.64481,0.15277
1305.57328,0.15299
1307.50175,0.15934
1309.43022,0.16641
1311.35869,0.17022
1313.28716,0.17061
1315.21563,0.16845
1317.14409,0.16552
1319.07256,0.16275
1321.00103,0.16190
1322.92950,0.16309
1324.85797,0.16239
1326.78644,0.16139
1328.71491,0.16411
1330.64337,0.16687
1332.57184,0.16683
1334.50031,0.16725
1336.42878,0.17026
1338.35725,0.17404
1340.28572,0.17192
1342.21419,0.16430
1344.14266,0.16015
1346.07112,0.16047
1347.99959,0.16122
1349.92806,0.16000
1351.85653,0.15858
1353.78500,0.16000
1355.71347,0.16261
1357.64194,0.16483
1359.57040,0.16824
1361.49887,0.17270
1363.42734,0.17242
1365.35581,0.16759
1367.28428,0.16565
1369.21275,0.16579
1371.14122,0.16649
1373.06969,0.16999
1374.99815,0.17284
1376.92662,0.17276
1378.85509,0.17336
1380.78356,0.17418
1382.71203,0.17488
1384.64050,0.17799
1386.56897,0.18283
1388.49743,0.18315
1390.42590,0.17945
1392.35437,0.18120
1394.28284,0.18818
1396.21131,0.18914
1398.13978,0.18364
1400.06825,0.17649
1401.99672,0.17114
1403.92518,0.17093
1405.85365,0.17148
1407.78212,0.16996
1409.71059,0.17024
1411.63906,0.17159
1413.56753,0.17296
1415.49600,0.17822
1417.42446,0.18889
1419.35293,0.19216
1421.28140,0.18259
1423.20987,0.17524
1425.13834,0.17136
1427.06681,0.17131
1428.99528,0.17640
1430.92375,0.17944
1432.85221,0.18125
1434.78068,0.18978
1436.70915,0.19460
1438.63762,0.18333
1440.56609,0.17386
1442.49456,0.17261
1444.42303,0.17570
1446.35149,0.18069
1448.27996,0.18344
1450.20843,0.18328
1452.13690,0.18580
1454.06537,0.19789
1455.99384,0.22562
1457.92231,0.23797
1459.85077,0.21256
1461.77924,0.19561
1463.70771,0.19218
1465.63618,0.18733
1467.56465,0.18038
1469.49312,0.18557
1471.42159,0.20486
1473.35006,0.21663
1475.27852,0.20520
1477.20699,0.19097
1479.13546,0.18304
1481.06393,0.18060
1482.99240,0.18201
1484.92087,0.18981
1486.84934,0.20499
1488.77780,0.21737
1490.70627,0.21055
1492.63474,0.19816
1494.56321,0.19883
1496.49168,0.20915
1498.42015,0.21021
1500.34862,0.20290
1502.27709,0.20602
1504.20555,0.23017
1506.13402,0.27575
1508.06249,0.27312
1509.99096,0.23072
1511.91943,0.20928
1513.84790,0.20877
1515.77637,0.22423
1517.70483,0.23989
1519.63330,0.24768
1521.56177,0.24985
1523.49024,0.23652
1525.41871,0.22208
1527.34718,0.21069
1529.27565,0.20255
1531.20412,0.20633
1533.13258,0.21490
1535.06105,0.21381
1536.98952,0.22264
1538.91799,0.26133
1540.84646,0.29241
1542.77493,0.26367
1544.70340,0.22543
1546.63186,0.20015
1548.56033,0.19488
1550.48880,0.19971
1552.41727,0.20498
1554.34574,0.21642
1556.27421,0.24080
1558.20268,0.27157
1560.13115,0.24305
1562.05961,0.20558
1563.98808,0.19529
1565.91655,0.19644
1567.84502,0.20493
1569.77349,0.21109
1571.70196,0.20159
1573.63043,0.19588
1575.55889,0.20206
1577.48736,0.20007
1579.41583,0.18749
1581.34430,0.17983
1583.27277,0.17921
1585.20124,0.18037
1587.12971,0.17904
1589.05818,0.17763
1590.98664,0.17940
1592.91511,0.18306
1594.84358,0.18552
1596.77205,0.18306
1598.70052,0.17827
1600.62899,0.17829
1602.55746,0.18117
1604.48592,0.18206
1606.41439,0.18305
1608.34286,0.18415
1610.27133,0.18217
1612.19980,0.18110
1614.12827,0.18879
1616.05674,0.20239
1617.98521,0.20134
1619.91367,0.19281
1621.84214,0.19474
1623.77061,0.20123
1625.69908,0.20291
1627.62755,0.20220
1629.55602,0.19835
1631.48449,0.19836
1633.41295,0.21225
1635.34142,0.23459
1637.26989,0.22980
1639.19836,0.20796
1641.12683,0.19584
1643.05530,0.19882
1644.98377,0.21805
1646.91223,0.24004
1648.84070,0.23789
1650.76917,0.23983
1652.69764,0.26186
1654.62611,0.24289
1656.55458,0.20662
1658.48305,0.19424
1660.41152,0.19899
1662.33998,0.20495
1664.26845,0.20112
1666.19692,0.20246
1668.12539,0.21742
1670.05386,0.22708
1671.98233,0.21861
1673.91080,0.21268
1675.83926,0.20999
1677.76773,0.20614
1679.69620,0.20671
1681.62467,0.21828
1683.55314,0.23932
1685.48161,0.23551
1687.41008,0.21765
1689.33855,0.20720
1691.26701,0.19989
1693.19548,0.20241
1695.12395,0.22061
1697.05242,0.23938
1698.98089,0.24121
1700.90936,0.22606
1702.83783,0.21251
1704.76629,0.21252
1706.69476,0.21289
1708.62323,0.20460
1710.55170,0.19687
1712.48017,0.19939
1714.40864,0.21620
1716.33711,0.23746
1718.26558,0.23206
1720.19404,0.20887
1722.12251,0.19585
1724.05098,0.19040
1725.97945,0.18693
1727.90792,0.18933
1729.83639,0.19711
1731.76486,0.20688
1733.69332,0.21561
1735.62179,0.21135
1737.55026,0.20613
1739.47873,0.20667
1741.40720,0.20476
1743.33567,0.20133
1745.26414,0.20404
1747.19261,0.21339
1749.12107,0.22197
1751.04954,0.21662
1752.97801,0.20164
1754.90648,0.19364
1756.83495,0.19318
1758.76342,0.19466
1760.69189,0.19818
1762.62035,0.19718
1764.54882,0.19116
1766.47729,0.19160
1768.40576,0.19951
1770.33423,0.21133
1772.26270,0.21837
1774.19117,0.20880
1776.11964,0.19614
1778.04810,0.19176
1779.97657,0.19324
1781.90504,0.19369
1783.83351,0.19285
1785.76198,0.19137
1787.69045,0.19113
1789.61892,0.19937
1791.54738,0.21267
1793.47585,0.21159
1795.40432,0.19964
1797.33279,0.19484
1799.26126,0.19887
1801.18973,0.19993
1803.11820,0.19232
1805.04666,0.18641
1806.97513,0.18662
1808.90360,0.18781
1810.83207,0.18621
1812.76054,0.18432
1814.68901,0.18568
1816.61748,0.18722
1818.54595,0.18487
1820.47441,0.18157
1822.40288,0.18298
1824.33135,0.18934
1826.25982,0.19648
1828.18829,0.20329
1830.11676,0.20350
1832.04523,0.19450
1833.97369,0.18861
1835.90216,0.18779
1837.83063,0.18704
1839.75910,0.18652
1841.68757,0.19091
1843.61604,0.19853
1845.54451,0.19751
1847.47298,0.18993
1849.40144,0.18479
1851.32991,0.18172
1853.25838,0.17880
1855.18685,0.17645
1857.11532,0.17629
1859.04379,0.17940
1860.97226,0.18402
1862.90072,0.18726
1864.82919,0.19151
1866.75766,0.19992
1868.68613,0.20289
1870.61460,0.19289
1872.54307,0.18389
1874.47154,0.18154
1876.40001,0.18101
1878.32847,0.18040
1880.25694,0.18018
1882.18541,0.18111
1884.11388,0.18413
1886.04235,0.18718
1887.97082,0.18901
1889.89929,0.18841
1891.82775,0.18577
1893.75622,0.18523
1895.68469,0.18502
1897.61316,0.18303
1899.54163,0.18189
1901.47010,0.18179
1903.39857,0.18150
1905.32704,0.18260
1907.25550,0.18619
1909.18397,0.18800
1911.11244,0.18636
1913.04091,0.18546
1914.96938,0.18722
1916.89785,0.18960
1918.82632,0.18973
1920.75478,0.18951
1922.68325,0.18888
1924.61172,0.18546
1926.54019,0.18278
1928.46866,0.18236
1930.39713,0.18207
1932.32560,0.18141
1934.25407,0.18146
1936.18253,0.18259
1938.11100,0.18350
1940.03947,0.18570
1941.96794,0.18987
1943.89641,0.19065
1945.82488,0.18720
1947.75335,0.18396
1949.68181,0.18320
1951.61028,0.18484
1953.53875,0.18679
1955.46722,0.18733
1957.39569,0.18675
1959.32416,0.18572
1961.25263,0.18459
1963.18110,0.18478
1965.10956,0.18634
1967.03803,0.18596
1968.96650,0.18326
1970.89497,0.18228
1972.82344,0.18341
1974.75191,0.18407
1976.68038,0.18390
1978.60884,0.18338
1980.53731,0.18370
1982.46578,0.18506
1984.39425,0.18668
1986.32272,0.18914
1988.25119,0.19134
1990.17966,0.19201
1992.10812,0.19072
1994.03659,0.18752
1995.96506,0.18559
1997.89353,0.18681
1999.82200,0.18914
2001.75047,0.18952
2003.67894,0.18720
2005.60741,0.18486
2007.53587,0.18474
2009.46434,0.18542
2011.39281,0.18592
2013.32128,0.18827
2015.24975,0.19222
2017.17822,0.19324
2019.10669,0.19096
2021.03515,0.18850
2022.96362,0.18604
2024.89209,0.18482
2026.82056,0.18562
2028.74903,0.18670
2030.67750,0.18662
2032.60597,0.18522
2034.53444,0.18456
2036.46290,0.18594
2038.39137,0.18779
2040.31984,0.18814
2042.24831,0.18624
2044.17678,0.18434
2046.10525,0.18542
2048.03372,0.18789
2049.96218,0.18816
2051.89065,0.18669
2053.81912,0.18626
2055.74759,0.18693
2057.67606,0.18711
2059.60453,0.18692
2061.53300,0.18709
2063.46147,0.18747
2065.38993,0.18710
2067.31840,0.18679
2069.24687,0.18732
2071.17534,0.18686
2073.10381,0.18662
2075.03228,0.18795
2076.96075,0.18820
2078.88921,0.18757
2080.81768,0.18819
2082.74615,0.18919
2084.67462,0.18921
2086.60309,0.18819
2088.53156,0.18667
2090.46003,0.18528
2092.38850,0.18375
2094.31696,0.18321
2096.24543,0.18575
2098.17390,0.18948
2100.10237,0.19062
2102.03084,0.18974
2103.95931,0.18899
2105.88778,0.18827
2107.81624,0.18849
2109.74471,0.18965
2111.67318,0.18960
2113.60165,0.18857
2115.53012,0.18787
2117.45859,0.18730
2119.38706,0.18628
2121.31553,0.18542
2123.24399,0.18590
2125.17246,0.18704
2127.10093,0.18808
2129.02940,0.18885
2130.95787,0.18822
2132.88634,0.18674
2134.81481,0.18572
2136.74327,0.18505
2138.67174,0.18505
2140.60021,0.18615
2142.52868,0.18778
2144.45715,0.18865
2146.38562,0.18812
2148.31409,0.18698
2150.24255,0.18636
2152.17102,0.18699
2154.09949,0.18849
2156.02796,0.18895
2157.95643,0.18775
2159.88490,0.18619
2161.81337,0.18589
2163.74184,0.18776
2165.67030,0.18952
2167.59877,0.18777
2169.52724,0.18450
2171.45571,0.18450
2173.38418,0.18710
2175.31265,0.18788
2177.24112,0.18601
2179.16958,0.18474
2181.09805,0.18555
2183.02652,0.18612
2184.95499,0.18565
2186.88346,0.18534
2188.81193,0.18607
2190.74040,0.18821
2192.66887,0.18929
2194.59733,0.18753
2196.52580,0.18593
2198.45427,0.18625
2200.38274,0.18583
2202.31121,0.18415
2204.23968,0.18469
2206.16815,0.18702
2208.09661,0.18787
2210.02508,0.18788
2211.95355,0.18808
2213.88202,0.18762
2215.81049,0.18611
2217.73896,0.18382
2219.66743,0.18284
2221.59590,0.18483
2223.52436,0.18731
2225.45283,0.18798
2227.38130,0.18856
2229.30977,0.18941
2231.23824,0.18881
2233.16671,0.18783
2235.09518,0.18872
2237.02364,0.19072
2238.95211,0.19158
2240.88058,0.19125
2242.80905,0.19007
2244.73752,0.18868
2246.66599,0.18865
2248.59446,0.18914
2250.52293,0.18914
2252.45139,0.18974
2254.37986,0.19113
2256.30833,0.19274
2258.23680,0.19378
2260.16527,0.19249
2262.09374,0.18990
2264.02221,0.18953
2265.95067,0.19050
2267.87914,0.18962
2269.80761,0.18772
2271.73608,0.18770
2273.66455,0.18967
2275.59302,0.19049
2277.52149,0.18915
2279.44996,0.18833
2281.37842,0.18837
2283.30689,0.18807
2285.23536,0.18813
2287.16383,0.18796
2289.09230,0.18699
2291.02077,0.18715
2292.94924,0.18840
2294.87770,0.18829
2296.80617,0.18675
2298.73464,0.18676
2300.66311,0.18883
2302.59158,0.18878
2304.52005,0.18584
2306.44852,0.18449
2308.37699,0.18580
2310.30545,0.18894
2312.23392,0.19378
2314.16239,0.19726
2316.09086,0.19622
2318.01933,0.19277
2319.94780,0.19268
2321.87627,0.19579
2323.80473,0.19648
2325.73320,0.19634
2327.66167,0.20160
2329.59014,0.20767
2331.51861,0.20554
2333.44708,0.20109
2335.37555,0.19920
2337.30401,0.19390
2339.23248,0.18566
2341.16095,0.18428
2343.08942,0.19171
2345.01789,0.19571
2346.94636,0.19334
2348.87483,0.19286
2350.80330,0.19573
2352.73176,0.19721
2354.66023,0.19428
2356.58870,0.19242
2358.51717,0.18978
2360.44564,0.18041
2362.37411,0.17523
2364.30258,0.17918
2366.23104,0.18539
2368.15951,0.19188
2370.08798,0.19624
2372.01645,0.19749
2373.94492,0.19655
2375.87339,0.19524
2377.80186,0.19403
2379.73033,0.19177
2381.65879,0.19004
2383.58726,0.18938
2385.51573,0.18896
2387.44420,0.19002
2389.37267,0.19165
2391.30114,0.19087
2393.22961,0.18833
2395.15807,0.18638
2397.08654,0.18587
2399.01501,0.18617
2400.94348,0.18611
2402.87195,0.18643
2404.80042,0.18740
2406.72889,0.18831
2408.65736,0.19011
2410.58582,0.19151
2412.51429,0.19039
2414.44276,0.18937
2416.37123,0.19058
2418.29970,0.19198
2420.22817,0.19209
2422.15664,0.19129
2424.08510,0.18977
2426.01357,0.18836
2427.94204,0.18901
2429.87051,0.19154
2431.79898,0.19353
2433.72745,0.19402
2435.65592,0.19385
2437.58439,0.19348
2439.51285,0.19245
2441.44132,0.19104
2443.36979,0.18928
2445.29826,0.18791
2447.22673,0.18930
2449.15520,0.19202
2451.08367,0.19293
2453.01213,0.19175
2454.94060,0.18900
2456.86907,0.18617
2458.79754,0.18627
2460.72601,0.19006
2462.65448,0.19358
2464.58295,0.19382
2466.51142,0.19271
2468.43988,0.19274
2470.36835,0.19283
2472.29682,0.19144
2474.22529,0.19062
2476.15376,0.19161
2478.08223,0.19251
2480.01070,0.19245
2481.93916,0.19211
2483.86763,0.19236
2485.79610,0.19350
2487.72457,0.19456
2489.65304,0.19440
2491.58151,0.19246
2493.50998,0.18938
2495.43844,0.18774
2497.36691,0.18804
2499.29538,0.18850
2501.22385,0.18984
2503.15232,0.19238
2505.08079,0.19343
2507.00926,0.19224
2508.93773,0.19144
2510.86619,0.19241
2512.79466,0.19408
2514.72313,0.19448
2516.65160,0.19231
2518.58007,0.18897
2520.50854,0.18715
2522.43701,0.18859
2524.36547,0.19182
2526.29394,0.19333
2528.22241,0.19263
2530.15088,0.19096
2532.07935,0.18963
2534.00782,0.19016
2535.93629,0.19210
2537.86476,0.19399
2539.79322,0.19489
2541.72169,0.19469
2543.65016,0.19398
2545.57863,0.19377
2547.50710,0.19433
2549.43557,0.19471
2551.36404,0.19346
2553.29250,0.19066
2555.22097,0.18934
2557.14944,0.19113
2559.07791,0.19297
2561.00638,0.19165
2562.93485,0.18948
2564.86332,0.19009
2566.79179,0.19160
2568.72025,0.19182
2570.64872,0.19184
2572.57719,0.19251
2574.50566,0.19309
2576.43413,0.19287
2578.36260,0.19257
2580.29107,0.19213
2582.21953,0.19115
2584.14800,0.19178
2586.07647,0.19375
2588.00494,0.19453
2589.93341,0.19492
2591.86188,0.19477
2593.79035,0.19357
2595.71882,0.19351
2597.64728,0.19385
2599.57575,0.19298
2601.50422,0.19338
2603.43269,0.19690
2605.36116,0.20002
2607.28963,0.19921
2609.21810,0.19645
2611.14656,0.19518
2613.07503,0.19418
2615.00350,0.19095
2616.93197,0.18852
2618.86044,0.19075
2620.78891,0.19534
2622.71738,0.19726
2624.64585,0.19624
2626.57431,0.19534
2628.50278,0.19533
2630.43125,0.19583
2632.35972,0.19607
2634.28819,0.19445
2636.21666,0.19153
2638.14513,0.19115
2640.07359,0.19451
2642.00206,0.19785
2643.93053,0.19898
2645.85900,0.19927
2647.78747,0.19922
2649.71594,0.19901
2651.64441,0.19958
2653.57288,0.19990
2655.50134,0.19941
2657.42981,0.19907
2659.35828,0.19828
2661.28675,0.19605
2663.21522,0.19355
2665.14369,0.19348
2667.07216,0.19558
2669.00062,0.19671
2670.92909,0.19529
2672.85756,0.19277
2674.78603,0.19163
2676.71450,0.19258
2678.64297,0.19457
2680.57144,0.19646
2682.49990,0.19876
2684.42837,0.20194
2686.35684,0.20283
2688.28531,0.19928
2690.21378,0.19610
2692.14225,0.19719
2694.07072,0.19904
2695.99919,0.20041
2697.92765,0.20327
2699.85612,0.20431
2701.78459,0.20078
2703.71306,0.19682
2705.64153,0.19594
2707.57000,0.19635
2709.49847,0.19537
2711.42693,0.19437
2713.35540,0.19682
2715.28387,0.20023
2717.21234,0.20056
2719.14081,0.20040
2721.06928,0.20234
2722.99775,0.20411
2724.92622,0.20338
2726.85468,0.20160
2728.78315,0.20118
2730.71162,0.20207
2732.64009,0.20368
2734.56856,0.20493
2736.49703,0.20385
2738.42550,0.20131
2740.35396,0.20077
2742.28243,0.20321
2744.21090,0.20563
2746.13937,0.20535
2748.06784,0.20352
2749.99631,0.20270
2751.92478,0.20227
2753.85325,0.20123
2755.78171,0.20173
2757.71018,0.20405
2759.63865,0.20552
2761.56712,0.20597
2763.49559,0.20641
2765.42406,0.20512
2767.35253,0.20272
2769.28099,0.20360
2771.20946,0.20667
2773.13793,0.20709
2775.06640,0.20560
2776.99487,0.20376
2778.92334,0.20145
2780.85181,0.20133
2782.78028,0.20352
2784.70874,0.20468
2786.63721,0.20390
2788.56568,0.20279
2790.49415,0.20324
2792.42262,0.20461
2794.35109,0.20554
2796.27956,0.20707
2798.20802,0.20926
2800.13649,0.21045
2802.06496,0.21020
2803.99343,0.20956
2805.92190,0.20922
2807.85037,0.20883
2809.77884,0.20943
2811.70731,0.21144
2813.63577,0.21175
2815.56424,0.20983
2817.49271,0.20868
2819.42118,0.20861
2821.34965,0.20713
2823.27812,0.20479
2825.20659,0.20534
2827.13505,0.20833
2829.06352,0.21003
2830.99199,0.20873
2832.92046,0.20593
2834.84893,0.20395
2836.77740,0.20276
2838.70587,0.20262
2840.63433,0.20407
2842.56280,0.20474
2844.49127,0.20389
2846.41974,0.20463
2848.34821,0.20643
2850.27668,0.20545
2852.20515,0.20211
2854.13362,0.19967
2856.06208,0.20023
2857.99055,0.20293
2859.91902,0.20584
2861.84749,0.20855
2863.77596,0.20970
2865.70443,0.20860
2867.63290,0.20709
2869.56136,0.20580
2871.48983,0.20445
2873.41830,0.20447
2875.34677,0.20669
2877.27524,0.20864
2879.20371,0.20769
2881.13218,0.20543
2883.06065,0.20481
2884.98911,0.20635
2886.91758,0.20839
2888.84605,0.20879
2890.77452,0.20894
2892.70299,0.21002
2894.63146,0.20883
2896.55993,0.20605
2898.48839,0.20561
2900.41686,0.20652
2902.34533,0.20635
2904.27380,0.20603
2906.20227,0.20625
2908.13074,0.20427
2910.05921,0.20007
2911.98768,0.19917
2913.91614,0.20313
2915.84461,0.20696
2917.77308,0.20702
2919.70155,0.20502
2921.63002,0.20408
2923.55849,0.20534
2925.48696,0.20814
2927.41542,0.20942
2929.34389,0.20716
2931.27236,0.20422
2933.20083,0.20478
2935.12930,0.20694
2937.05777,0.20537
2938.98624,0.20427
2940.91471,0.20872
2942.84317,0.21124
2944.77164,0.20749
2946.70011,0.20410
2948.62858,0.20510
2950.55705,0.20627
2952.48552,0.20535
2954.41399,0.20628
2956.34245,0.20913
2958.27092,0.21016
2960.19939,0.20991
2962.12786,0.21094
2964.05633,0.21189
2965.98480,0.21082
2967.91327,0.20944
2969.84174,0.20810
2971.77020,0.20647
2973.69867,0.20709
2975.62714,0.20990
2977.55561,0.21119
2979.48408,0.20944
2981.41255,0.20705
2983.34102,0.20730
2985.26948,0.20911
2987.19795,0.20951
2989.12642,0.21026
2991.05489,0.21175
2992.98336,0.21106
2994.91183,0.21012
2996.84030,0.21107
2998.76877,0.21124
3000.69723,0.21107
3002.62570,0.21292
3004.55417,0.21456
3006.48264,0.21482
3008.41111,0.21589
3010.33958,0.21462
3012.26805,0.20732
3014.19651,0.19769
3016.12498,0.19016
3018.05345,0.19119
3019.98192,0.20084
3021.91039,0.20785
3023.83886,0.21051
3025.76733,0.21231
3027.69579,0.21227
3029.62426,0.21228
3031.55273,0.21447
3033.48120,0.21782
3035.40967,0.21893
3037.33814,0.21844
3039.26661,0.22013
3041.19508,0.22091
3043.12354,0.21787
3045.05201,0.21276
3046.98048,0.20688
3048.90895,0.20493
3050.83742,0.20811
3052.76589,0.21085
3054.69436,0.21137
3056.62282,0.21027
3058.55129,0.20955
3060.47976,0.21113
3062.40823,0.21243
3064.33670,0.21041
3066.26517,0.20690
3068.19364,0.20818
3070.12211,0.21197
3072.05057,0.21101
3073.97904,0.20733
3075.90751,0.20569
3077.83598,0.20759
3079.76445,0.21003
3081.69292,0.20984
3083.62139,0.20803
3085.54985,0.20754
3087.47832,0.21077
3089.40679,0.21447
3091.33526,0.21476
3093.26373,0.21081
3095.19220,0.20663
3097.12067,0.20882
3099.04914,0.21412
3100.97760,0.21590
3102.90607,0.21344
3104.83454,0.21141
3106.76301,0.21295
3108.69148,0.21476
3110.61995,0.21524
3112.54842,0.21516
3114.47688,0.21435
3116.40535,0.21248
3118.33382,0.20984
3120.26229,0.20797
3122.19076,0.20833
3124.11923,0.21052
3126.04770,0.21245
3127.97617,0.21448
3129.90463,0.21751
3131.83310,0.21945
3133.76157,0.21872
3135.69004,0.21653
3137.61851,0.21405
3139.54698,0.21195
3141.47545,0.21149
3143.40391,0.21132
3145.33238,0.21230
3147.26085,0.21812
3149.18932,0.22494
3151.11779,0.22593
3153.04626,0.22163
3154.97473,0.21697
3156.90320,0.21390
3158.83166,0.21286
3160.76013,0.21421
3162.68860,0.21621
3164.61707,0.21872
3166.54554,0.22180
3168.47401,0.22347
3170.40248,0.22216
3172.33094,0.21818
3174.25941,0.21615
3176.18788,0.21769
3178.11635,0.21726
3180.04482,0.21474
3181.97329,0.21597
3183.90176,0.21912
3185.83022,0.21963
3187.75869,0.21890
3189.68716,0.21793
3191.61563,0.21692
3193.54410,0.21671
3195.47257,0.21573
3197.40104,0.21298
3199.32951,0.21146
3201.25797,0.21356
3203.18644,0.21593
3205.11491,0.21647
3207.04338,0.21840
3208.97185,0.22077
3210.90032,0.22009
3212.82879,0.21774
3214.75725,0.21718
3216.68572,0.21929
3218.61419,0.22081
3220.54266,0.21973
3222.47113,0.21651
3224.39960,0.21202
3226.32807,0.20937
3228.25654,0.20957
3230.18500,0.21253
3232.11347,0.21784
3234.04194,0.22098
3235.97041,0.21921
3237.89888,0.21586
3239.82735,0.21470
3241.75582,0.21458
3243.68428,0.21525
3245.61275,0.21990
3247.54122,0.22499
3249.46969,0.22295
3251.39816,0.21610
3253.32663,0.21365
3255.25510,0.21669
3257.18357,0.21954
3259.11203,0.21948
3261.04050,0.21633
3262.96897,0.21282
3264.89744,0.21349
3266.82591,0.21490
3268.75438,0.21179
3270.68285,0.20820
3272.61131,0.20845
3274.53978,0.21221
3276.46825,0.21592
3278.39672,0.21657
3280.32519,0.21708
3282.25366,0.21913
3284.18213,0.21981
3286.11060,0.21831
3288.03906,0.21683
3289.96753,0.21594
3291.89600,0.21509
3293.82447,0.21483
3295.75294,0.21448
3297.68141,0.21256
3299.60988,0.21132
3301.53834,0.21283
3303.46681,0.21327
3305.39528,0.21027
3307.32375,0.20713
3309.25222,0.20693
3311.18069,0.20927
3313.10916,0.21239
3315.03763,0.21561
3316.96609,0.21695
3318.89456,0.21521
3320.82303,0.21297
3322.75150,0.21363
3324.67997,0.21580
3326.60844,0.21474
3328.53691,0.21340
3330.46537,0.21491
3332.39384,0.21525
3334.32231,0.21536
3336.25078,0.21687
3338.17925,0.21635
3340.10772,0.21410
3342.03619,0.21406
3343.96466,0.21635
3345.89312,0.21742
3347.82159,0.21777
3349.75006,0.21900
3351.67853,0.21801
3353.60700,0.21528
3355.53547,0.21411
3357.46394,0.21427
3359.39240,0.21463
3361.32087,0.21488
3363.24934,0.21765
3365.17781,0.22287
3367.10628,0.22587
3369.03475,0.22628
3370.96322,0.22510
3372.89168,0.22339
3374.82015,0.22356
3376.74862,0.22291
3378.67709,0.22004
3380.60556,0.21762
3382.53403,0.21401
3384.46250,0.21035
3386.39097,0.21221
3388.31943,0.21771
3390.24790,0.21963
3392.17637,0.21486
3394.10484,0.20927
3396.03331,0.20986
3397.96178,0.21500
3399.89025,0.21944
3401.81871,0.22059
3403.74718,0.21878
3405.67565,0.21574
3407.60412,0.21249
3409.53259,0.21045
3411.46106,0.21165
3413.38953,0.21515
3415.31800,0.21872
3417.24646,0.22123
3419.17493,0.22143
3421.10340,0.21805
3423.03187,0.21333
3424.96034,0.21155
3426.88881,0.21086
3428.81728,0.20770
3430.74574,0.20407
3432.67421,0.20365
3434.60268,0.20574
3436.53115,0.20657
3438.45962,0.20498
3440.38809,0.20336
3442.31656,0.20493
3444.24503,0.20961
3446.17349,0.21276
3448.10196,0.20879
3450.03043,0.20078
3451.95890,0.19558
3453.88737,0.19268
3455.81584,0.19135
3457.74431,0.19272
3459.67277,0.19681
3461.60124,0.20242
3463.52971,0.20540
3465.45818,0.20452
3467.38665,0.20338
3469.31512,0.20336
3471.24359,0.20225
3473.17206,0.19831
3475.10052,0.19318
3477.02899,0.19085
3478.95746,0.19125
3480.88593,0.19001
3482.81440,0.18574
3484.74287,0.18428
3486.67134,0.18890
3488.59980,0.19292
3490.52827,0.19147
3492.45674,0.18769
3494.38521,0.18688
3496.31368,0.18810
3498.24215,0.18666
3500.17062,0.18736
3502.09909,0.19453
3504.02755,0.20002
3505.95602,0.19763
3507.88449,0.19271
3509.81296,0.18799
3511.74143,0.18238
3513.66990,0.17709
3515.59837,0.17482
3517.52683,0.17730
3519.45530,0.18202
3521.38377,0.18705
3523.31224,0.18990
3525.24071,0.18855
3527.16918,0.18693
3529.09765,0.18444
3531.02611,0.17875
3532.95458,0.17433
3534.88305,0.17437
3536.81152,0.17549
3538.73999,0.17343
3540.66846,0.17086
3542.59693,0.17335
3544.52540,0.17990
3546.45386,0.18203
3548.38233,0.17825
3550.31080,0.17488
3552.23927,0.17120
3554.16774,0.16513
3556.09621,0.16151
3558.02468,0.16399
3559.95314,0.16981
3561.88161,0.17344
3563.81008,0.17822
3565.73855,0.19008
3567.66702,0.19431
3569.59549,0.17996
3571.52396,0.16720
3573.45243,0.16501
3575.38089,0.16492
3577.30936,0.16195
3579.23783,0.16176
3581.16630,0.16396
3583.09477,0.16676
3585.02324,0.17562
3586.95171,0.18706
3588.88017,0.18099
3590.80864,0.16805
3592.73711,0.16716
3594.66558,0.17217
3596.59405,0.17222
3598.52252,0.16804
3600.45099,0.16295
3602.37946,0.15923
3604.30792,0.16027
3606.23639,0.16621
3608.16486,0.17038
3610.09333,0.16884
3612.02180,0.16737
3613.95027,0.16580
3615.87874,0.16547
3617.80720,0.17224
3619.73567,0.17493
3621.66414,0.16360
3623.59261,0.15383
3625.52108,0.15569
3627.44955,0.16810
3629.37802,0.17032
3631.30649,0.15644
3633.23495,0.14981
3635.16342,0.14780
3637.09189,0.14612
3639.02036,0.14793
3640.94883,0.15194
3642.87730,0.15543
3644.80577,0.16186
3646.73423,0.17741
3648.66270,0.19746
3650.59117,0.18831
3652.51964,0.16348
3654.44811,0.15238
3656.37658,0.15068
3658.30505,0.14660
3660.23352,0.14101
3662.16198,0.13779
3664.09045,0.13756
3666.01892,0.14141
3667.94739,0.15329
3669.87586,0.16879
3671.80433,0.17014
3673.73280,0.17111
3675.66126,0.17599
3677.58973,0.16641
3679.51820,0.15516
3681.44667,0.14758
3683.37514,0.14237
3685.30361,0.14397
3687.23208,0.15428
3689.16055,0.16547
3691.08901,0.16133
3693.01748,0.14872
3694.94595,0.14069
3696.87442,0.13807
3698.80289,0.13790
3700.73136,0.13969
3702.65983,0.14100
3704.58829,0.14032
3706.51676,0.14310
3708.44523,0.15272
3710.37370,0.16412
3712.30217,0.16020
3714.23064,0.14557
3716.15911,0.13745
3718.08757,0.13592
3720.01604,0.13736
3721.94451,0.14203
3723.87298,0.15016
3725.80145,0.15171
3727.72992,0.14271
3729.65839,0.13985
3731.58686,0.15416
3733.51532,0.17975
3735.44379,0.19219
3737.37226,0.17740
3739.30073,0.15841
3741.22920,0.14985
3743.15767,0.15263
3745.08614,0.15834
3747.01460,0.15919
3748.94307,0.16688
3750.87154,0.17582
3752.80001,0.16677
3754.72848,0.15457
3756.65695,0.14931
3758.58542,0.14751
3760.51389,0.14287
3762.44235,0.14004
3764.37082,0.14359
3766.29929,0.14656
3768.22776,0.14502
3770.15623,0.14264
3772.08470,0.13833
3774.01317,0.13235
3775.94163,0.13016
3777.87010,0.13584
3779.79857,0.14099
3781.72704,0.13737
3783.65551,0.13373
3785.58398,0.13204
3787.51245,0.12898
3789.44092,0.12866
3791.36938,0.13335
3793.29785,0.13793
3795.22632,0.13876
3797.15479,0.13907
3799.08326,0.14399
3801.01173,0.15234
3802.94020,0.15267
3804.86866,0.14589
3806.79713,0.13736
3808.72560,0.12867
3810.65407,0.12532
3812.58254,0.12718
3814.51101,0.13485
3816.43948,0.14512
3818.36795,0.15245
3820.29641,0.16277
3822.22488,0.16233
3824.15335,0.14855
3826.08182,0.13781
3828.01029,0.13029
3829.93876,0.12705
3831.86723,0.12904
3833.79569,0.13284
3835.72416,0.13815
3837.65263,0.14450
3839.58110,0.14585
3841.50957,0.14239
3843.43804,0.13627
3845.36651,0.13038
3847.29498,0.13240
3849.22344,0.14308
3851.15191,0.15830
3853.08038,0.16850
3855.00885,0.15315
3856.93732,0.13508
3858.86579,0.12814
3860.79426,0.13142
3862.72272,0.13983
3864.65119,0.14224
3866.57966,0.14260
3868.50813,0.14817
3870.43660,0.14836
3872.36507,0.14136
3874.29354,0.13448
3876.22200,0.12810
3878.15047,0.12671
3880.07894,0.12598
3882.00741,0.12104
3883.93588,0.12057
3885.86435,0.12410
3887.79282,0.12771
3889.72129,0.13330
3891.64975,0.13486
3893.57822,0.12815
3895.50669,0.12515
3897.43516,0.13057
3899.36363,0.14130
3901.29210,0.15113
3903.22057,0.15165
3905.14903,0.14003
3907.07750,0.12698
3909.00597,0.11921
3910.93444,0.11540
3912.86291,0.11584
3914.79138,0.12022
3916.71985,0.12430
3918.64832,0.12412
3920.57678,0.12270
3922.50525,0.12613
3924.43372,0.13068
3926.36219,0.12850
3928.29066,0.12461
3930.21913,0.12363
3932.14760,0.12132
3934.07606,0.11683
3936.00453,0.11416
3937.93300,0.11366
3939.86147,0.11376
3941.78994,0.11443
3943.71841,0.11350
3945.64688,0.11092
3947.57535,0.11199
3949.50381,0.11740
3951.43228,0.12017
3953.36075,0.11662
3955.28922,0.11223
3957.21769,0.11209
3959.14616,0.11253
3961.07463,0.10920
3963.00309,0.10568
3964.93156,0.10648
3966.86003,0.10786
3968.78850,0.10628
3970.71697,0.10481
3972.64544,0.10551
3974.57391,0.10523
3976.50238,0.10251
3978.43084,0.10240
3980.35931,0.10607
3982.28778,0.10821
3984.21625,0.10622
3986.14472,0.10100
3988.07319,0.09648
3990.00166,0.09893
3991.93012,0.10684
3993.85859,0.11046
3995.78706,0.10774
3997.71553,0.10615
3999.64400,0.10780
4001.57247,0.10695
4003.50094,0.10315
4005.42941,0.10086
4007.35787,0.10104
4009.28634,0.10254
4011.21481,0.10441
4013.14328,0.10741
4015.07175,0.10954
4017.00022,0.10841
4018.92869,0.10603
4020.85715,0.10316
4022.78562,0.09980
4024.71409,0.09792
4026.64256,0.09898
4028.57103,0.10053
4030.49950,0.10013
4032.42797,0.09904
4034.35644,0.09927
4036.28490,0.10081
4038.21337,0.10024
4040.14184,0.09755
4042.07031,0.09632
4043.99878,0.09823
4045.92725,0.10365
4047.85572,0.10835
4049.78418,0.10698
4051.71265,0.10226
4053.64112,0.09883
4055.56959,0.09684
4057.49806,0.09670
4059.42653,0.09766
4061.35500,0.09814
4063.28346,0.09879
4065.21193,0.09864
4067.14040,0.09729
4069.06887,0.09716
4070.99734,0.09650
4072.92581,0.09307
4074.85428,0.09171
4076.78275,0.09356
4078.71121,0.09414
4080.63968,0.09330
4082.56815,0.09326
4084.49662,0.09420
4086.42509,0.09296
4088.35356,0.08983
4090.28203,0.09100
4092.21049,0.09579
4094.13896,0.09478
4096.06743,0.08571
4097.99590,0.08064
4099.92437,0.08602
4101.85284,0.09126
4103.78131,0.09074
4105.70978,0.09045
4107.63824,0.09151
4109.56671,0.09131
4111.49518,0.09121
4113.42365,0.09247
4115.35212,0.09238
4117.28059,0.08883
4119.20906,0.08479
4121.13752,0.08442
4123.06599,0.08643
4124.99446,0.08670
4126.92293,0.08681
4128.85140,0.08796
4130.77987,0.08783
4132.70834,0.08842
4134.63681,0.08962
4136.56527,0.08828
4138.49374,0.08669
4140.42221,0.08609
4142.35068,0.08400
4144.27915,0.08172
4146.20762,0.08134
4148.13609,0.08198
4150.06455,0.08221
4151.99302,0.07992
4153.92149,0.07624
4155.84996,0.07615
4157.77843,0.07939
4159.70690,0.08234
4161.63537,0.08510
4163.56384,0.08692
4165.49230,0.08712
4167.42077,0.08597
4169.34924,0.08172
4171.27771,0.07781
4173.20618,0.07765
4175.13465,0.07632
4177.06312,0.07478
4178.99158,0.07872
4180.92005,0.08110
4182.84852,0.07536
4184.77699,0.06988
4186.70546,0.07014
4188.63393,0.07052
4190.56240,0.06926
4192.49087,0.06894
4194.41933,0.06761
4196.34780,0.06811
4198.27627,0.07442
4200.20474,0.07883
4202.13321,0.07767
4204.06168,0.07818
4205.99015,0.08046
4207.91861,0.07801
4209.84708,0.07154
4211.77555,0.06578
4213.70402,0.06237
4215.63249,0.06345
4217.56096,0.06818
4219.48943,0.07067
4221.41789,0.06843
4223.34636,0.06471
4225.27483,0.06488
4227.20330,0.06797
4229.13177,0.06854
4231.06024,0.06893
4232.98871,0.07016
4234.91718,0.06715
4236.84564,0.06290
4238.77411,0.06270
4240.70258,0.06441
4242.63105,0.06548
4244.55952,0.06530
4246.48799,0.06374
4248.41646,0.06227
4250.34492,0.06205
4252.27339,0.06191
4254.20186,0.05985
4256.13033,0.06038
4258.05880,0.06619
4259.98727,0.06661
4261.91574,0.05996
4263.84421,0.05733
4265.77267,0.05889
4267.70114,0.05924
4269.62961,0.05862
4271.55808,0.05783
4273.48655,0.05510
4275.41502,0.05059
4277.34349,0.04802
4279.27195,0.04896
4281.20042,0.05139
4283.12889,0.05375
4285.05736,0.05635
4286.98583,0.05935
4288.91430,0.05952
4290.84277,0.05550
4292.77124,0.05307
4294.69970,0.05576
4296.62817,0.05922
4298.55664,0.05943
4300.48511,0.05773
4302.41358,0.05450
4304.34205,0.05145
4306.27052,0.05400
4308.19898,0.05794
4310.12745,0.05702
4312.05592,0.05456
4313.98439,0.05244
4315.91286,0.04917
4317.84133,0.04641
4319.76980,0.04554
4321.69827,0.04377
4323.62673,0.04277
4325.55520,0.04487
4327.48367,0.04732
4329.41214,0.05012
4331.34061,0.05139
4333.26908,0.04902
4335.19755,0.04452
4337.12601,0.03949
4339.05448,0.03992
4340.98295,0.04746
4342.91142,0.05045
4344.83989,0.04122
4346.76836,0.03011
4348.69683,0.02574
4350.62530,0.02632
4352.55376,0.03382
4354.48223,0.04247
4356.41070,0.04048
4358.33917,0.03555
4360.26764,0.03785
4362.19611,0.04177
4364.12458,0.04313
4366.05304,0.04204
4367.98151,0.03865
4369.90998,0.03592
4371.83845,0.03519
4373.76692,0.03542
4375.69539,0.03576
4377.62386,0.03385
4379.55232,0.02889
4381.48079,0.02822
4383.40926,0.03416
4385.33773,0.03541
4387.26620,0.02872
4389.19467,0.02327
4391.12314,0.02346
4393.05161,0.02551
4394.98007,0.02661
4396.90854,0.02746
4398.83701,0.02694
4400.76548,0.02342
4402.69395,0.02097
4404.62242,0.02354
4406.55089,0.02802
4408.47935,0.03260
4410.40782,0.03541
4412.33629,0.03480
4414.26476,0.03345
4416.19323,0.03157
4418.12170,0.03119
4420.05017,0.03395
4421.97864,0.03392
4423.90710,0.02783
4425.83557,0.02435
4427.76404,0.02805
4429.69251,0.03144
4431.62098,0.03223
4433.54945,0.02842
4435.47792,0.01975
4437.40638,0.01501
4439.33485,0.01627
4441.26332,0.01996
4443.19179,0.02368
4445.12026,0.02310
4447.04873,0.01814
4448.97720,0.01562
4450.90567,0.01670
4452.83413,0.01807
4454.76260,0.02078
4456.69107,0.02276
4458.61954,0.02133
4460.54801,0.01944
4462.47648,0.01809
4464.40495,0.01815
4466.33341,0.02076
4468.26188,0.02012
4470.19035,0.01532
4472.11882,0.01437
4474.04729,0.01750
4475.97576,0.01806
4477.90423,0.01482
4479.83270,0.01265
4481.76116,0.01507
4483.68963,0.01915
4485.61810,0.01877
4487.54657,0.01485
4489.47504,0.01383
4491.40351,0.01493
4493.33198,0.01323
4495.26044,0.01034
4497.18891,0.01196
4499.11738,0.02049
4501.04585,0.02784
4502.97432,0.02300
4504.90279,0.01272
4506.83126,0.01089
4508.75973,0.01328
4510.68819,0.01176
4512.61666,0.01015
4514.54513,0.01106
4516.47360,0.01351
4518.40207,0.01763
4520.33054,0.01964
4522.25901,0.01736
4524.18747,0.01502
4526.11594,0.01384
4528.04441,0.01376
4529.97288,0.01653
4531.90135,0.01392
4533.82982,-0.00025
4535.75829,-0.01325
4537.68676,-0.01550
4539.61522,-0.01182
4541.54369,-0.00741
4543.47216,-0.00349
4545.40063,-0.00087
4547.32910,-0.00002
4549.25757,0.00213
4551.18604,0.00537
4553.11450,0.00672
4555.04297,0.00786
4556.97144,0.00766
4558.89991,0.00498
4560.82838,0.00590
4562.75685,0.01095
4564.68532,0.01014
4566.61378,0.00104
4568.54225,-0.00692
4570.47072,-0.00743
4572.39919,-0.00392
4574.32766,-0.00310
4576.25613,-0.00341
4578.18460,-0.00074
4580.11307,0.00203
4582.04153,0.00115
4583.97000,-0.00182
4585.89847,-0.00112
4587.82694,0.00381
4589.75541,0.00720
4591.68388,0.00903
4593.61235,0.01248
4595.54081,0.01349
4597.46928,0.00848
4599.39775,0.00323
4601.32622,0.00381
4603.25469,0.00954
4605.18316,0.01564
4607.11163,0.01403
4609.04010,0.00408
4610.96856,-0.00405
4612.89703,-0.00300
4614.82550,0.00526
4616.75397,0.00941
4618.68244,0.00596
4620.61091,0.00651
4622.53938,0.01170
4624.46784,0.01409
4626.39631,0.01466
4628.32478,0.01695
4630.25325,0.02007
4632.18172,0.01863
4634.11019,0.00944
4636.03866,-0.00057
4637.96713,-0.00128
4639.89559,0.00439
4641.82406,0.00732
4643.75253,0.00736
4645.68100,0.00505
4647.60947,-0.00083
4649.53794,-0.00406
4651.46641,0.00002
4653.39487,0.00413
4655.32334,0.00308
4657.25181,0.00410
4659.18028,0.00797
4661.10875,0.00473
4663.03722,-0.00166
4664.96569,-0.00239
4666.89416,-0.00224
4668.82262,-0.00261
4670.75109,-0.00027
4672.67956,0.00207
4674.60803,0.00366
4676.53650,0.00568
4678.46497,0.00435
4680.39344,-0.00008
4682.32190,0.00015
4684.25037,0.00442
4686.17884,0.00534
4688.10731,0.00241
4690.03578,-0.00134
4691.96425,-0.00586
4693.89272,-0.00805
4695.82119,-0.00409
4697.74965,-0.00022
4699.67812,0.00153
4701.60659,0.00946
4703.53506,0.01970
4705.46353,0.01992
4707.39200,0.01400
4709.32047,0.01100
4711.24893,0.00885
4713.17740,0.00828
4715.10587,0.01188
4717.03434,0.01152
4718.96281,0.00201
4720.89128,-0.00822
4722.81975,-0.01205
4724.74821,-0.01037
4726.67668,-0.00217
4728.60515,0.00964
4730.53362,0.01549
4732.46209,0.01310
4734.39056,0.00782
4736.31903,0.00450
4738.24750,0.00338
4740.17596,0.00442
4742.10443,0.00901
4744.03290,0.01190
4745.96137,0.00904
4747.88984,0.00660
4749.81831,0.00533
4751.74678,-0.00042
4753.67524,-0.00417
4755.60371,-0.00235
4757.53218,-0.00171
4759.46065,0.00009
4761.38912,0.00773
4763.31759,0.01458
4765.24606,0.01518
4767.17453,0.01325
4769.10299,0.00895
4771.03146,-0.00094
4772.95993,-0.00619
4774.88840,-0.00012
4776.81687,0.00659
4778.74534,0.00861
4780.67381,0.00882
4782.60227,0.00858
4784.53074,0.00512
4786.45921,-0.00442
4788.38768,-0.01527
4790.31615,-0.02047
4792.24462,-0.01707
4794.17309,-0.00717
4796.10156,0.00106
4798.03002,0.00274
4799.95849,0.00322
4801.88696,0.00631
4803.81543,0.00419
4805.74390,-0.00106
4807.67237,0.00361
4809.60084,0.00978
4811.52930,0.00621
4813.45777,0.00175
4815.38624,0.00365
4817.31471,0.00973
4819.24318,0.01729
4821.17165,0.02103
4823.10012,0.01286
4825.02859,0.00040
4826.95705,0.00007
4828.88552,0.00695
4830.81399,0.00918
4832.74246,0.00853
4834.67093,0.01046
4836.59940,0.01385
4838.52787,0.01220
4840.45633,0.00698
4842.38480,0.00446
4844.31327,0.00353
4846.24174,0.00303
4848.17021,0.00193
4850.09868,-0.00147
4852.02715,-0.00020
4853.95562,0.00801
4855.88408,0.01242
4857.81255,0.01007
4859.74102,0.00639
4861.66949,0.00340
4863.59796,0.00328
4865.52643,0.00299
4867.45490,-0.00081
4869.38336,-0.00071
4871.31183,0.00293
4873.24030,0.00223
4875.16877,-0.00191
4877.09724,-0.00529
4879.02571,-0.00260
4880.95418,0.00398
4882.88265,0.00440
4884.81111,0.00286
4886.73958,0.00515
4888.66805,0.00732
4890.59652,0.01080
4892.52499,0.01421
4894.45346,0.01121
4896.38193,0.00055
4898.31039,-0.00601
4900.23886,0.00345
4902.16733,0.01269
4904.09580,0.01060
4906.02427,0.01248
4907.95274,0.02211
4909.88121,0.02774
4911.80967,0.02136
4913.73814,0.00650
4915.66661,-0.00592
4917.59508,-0.01112
4919.52355,-0.01111
4921.45202,-0.00942
4923.38049,-0.01048
4925.30896,-0.01436
4927.23742,-0.01398
4929.16589,-0.00381
4931.09436,0.00940
4933.02283,0.01203
4934.95130,0.00659
4936.87977,0.00425
4938.80824,0.00381
4940.73670,0.00397
4942.66517,0.00887
4944.59364,0.01546
4946.52211,0.01350
4948.45058,0.00207
4950.37905,-0.00419
4952.30752,-0.00076
4954.23599,0.00286
4956.16445,0.00616
4958.09292,0.01184
4960.02139,0.01527
4961.94986,0.01034
4963.87833,0.00268
4965.80680,0.00472
4967.73527,0.01268
4969.66373,0.01596
4971.59220,0.01595
4973.52067,0.01785
4975.44914,0.02223
4977.37761,0.02793
4979.30608,0.03347
4981.23455,0.03396
4983.16302,0.02452
4985.09148,0.00969
4987.01995,0.00033
4988.94842,0.00394
4990.87689,0.01805
4992.80536,0.03151
4994.73383,0.03781
4996.66230,0.03389
4998.59076,0.01920
5000.51923,0.01026
5002.44770,0.01563
5004.37617,0.01907
5006.30464,0.01667
5008.23311,0.01626
5010.16158,0.01781
5012.09005,0.01937
5014.01851,0.01349
5015.94698,0.00173
5017.87545,-0.00062
5019.80392,0.01069
5021.73239,0.02319
5023.66086,0.02562
5025.58933,0.01827
5027.51779,0.00803
5029.44626,0.00493
5031.37473,0.00815
5033.30320,0.00713
5035.23167,0.00370
5037.16014,0.00702
5039.08861,0.01469
5041.01708,0.01544
5042.94554,0.00667
5044.87401,0.00100
5046.80248,0.00522
5048.73095,0.00892
5050.65942,0.01213
5052.58789,0.01798
5054.51636,0.01904
5056.44482,0.01967
5058.37329,0.02166
5060.30176,0.01364
5062.23023,0.00056
5064.15870,0.00157
5066.08717,0.01315
5068.01564,0.02055
5069.94410,0.02445
5071.87257,0.02372
5073.80104,0.01851
5075.72951,0.01569
5077.65798,0.01896
5079.58645,0.02761
5081.51492,0.03150
5083.44339,0.02789
5085.37185,0.02619
5087.30032,0.02769
5089.22879,0.02907
5091.15726,0.02710
5093.08573,0.02024
5095.01420,0.01376
5096.94267,0.00934
5098.87113,0.00783
5100.79960,0.01179
5102.72807,0.01546
5104.65654,0.01980
5106.58501,0.02874
5108.51348,0.03335
5110.44195,0.03211
5112.37042,0.03106
5114.29888,0.02789
5116.22735,0.02018
5118.15582,0.01069
5120.08429,0.00258
5122.01276,-0.00529
5123.94123,-0.00821
5125.86970,0.00436
5127.79816,0.02709
5129.72663,0.04440
5131.65510,0.04959
5133.58357,0.04305
5135.51204,0.03204
5137.44051,0.02563
5139.36898,0.02008
5141.29745,0.01584
5143.22591,0.02747
5145.15438,0.04784
5147.08285,0.05505
5149.01132,0.05289
5150.93979,0.05652
5152.86826,0.06265
5154.79673,0.05882
5156.72519,0.04161
5158.65366,0.02307
5160.58213,0.02142
5162.51060,0.03892
5164.43907,0.05277
5166.36754,0.04163
5168.29601,0.01591
5170.22448,0.00225
5172.15294,0.01092
5174.08141,0.02609
5176.00988,0.03449
5177.93835,0.03884
5179.86682,0.03980
5181.79529,0.03170
5183.72376,0.02065
5185.65222,0.02115
5187.58069,0.03045
5189.50916,0.03518
5191.43763,0.03057
5193.36610,0.02670
5195.29457,0.03735
5197.22304,0.05228
5199.15151,0.05358
5201.07997,0.04952
5203.00844,0.05615
5204.93691,0.06631
5206.86538,0.06198
5208.79385,0.04790
5210.72232,0.03585
5212.65079,0.02587
5214.57925,0.02059
5216.50772,0.02310
5218.43619,0.02687
5220.36466,0.02101
5222.29313,0.01116
5224.22160,0.01524
5226.15007,0.03509
5228.07854,0.04936
5230.00700,0.04714
5231.93547,0.03508
5233.86394,0.02689
5235.79241,0.02883
5237.72088,0.03035
5239.64935,0.03239
5241.57782,0.04518
5243.50628,0.05708
5245.43475,0.05649
5247.36322,0.05250
5249.29169,0.04971
5251.22016,0.04749
5253.14863,0.04562
5255.07710,0.03840
5257.00556,0.03204
5258.93403,0.04344
5260.86250,0.06553
5262.79097,0.06668
5264.71944,0.03430
5266.64791,0.00433
5268.57638,0.00909
5270.50485,0.03139
5272.43331,0.03777
5274.36178,0.03321
5276.29025,0.04074
5278.21872,0.05654
5280.14719,0.06340
5282.07566,0.06185
5284.00413,0.06821
5285.93259,0.07772
5287.86106,0.06618
5289.78953,0.04344
5291.71800,0.03456
5293.64647,0.03699
5295.57494,0.03954
5297.50341,0.04001
5299.43188,0.04041
5301.36034,0.04587
5303.28881,0.05900
5305.21728,0.06735
5307.14575,0.06430
5309.07422,0.05826
5311.00269,0.05470
5312.93116,0.05956
5314.85962,0.06591
5316.78809,0.05676
5318.71656,0.04179
5320.64503,0.04159
5322.57350,0.05389
5324.50197,0.06357
5326.43044,0.06388
5328.35891,0.06105
5330.28737,0.06026
5332.21584,0.05557
5334.14431,0.04384
5336.07278,0.03536
5338.00125,0.03709
5339.92972,0.04367
5341.85819,0.04015
5343.78665,0.01962
5345.71512,0.01183
5347.64359,0.02992
5349.57206,0.04765
5351.50053,0.05872
5353.42900,0.05897
5355.35747,0.04631
5357.28594,0.03621
5359.21440,0.03568
5361.14287,0.03999
5363.07134,0.04358
5364.99981,0.04829
5366.92828,0.05093
5368.85675,0.04419
5370.78522,0.03979
5372.71368,0.05582
5374.64215,0.07811
5376.57062,0.06884
5378.49909,0.03739
5380.42756,0.02377
5382.35603,0.02497
5384.28450,0.03223
5386.21297,0.05300
5388.14143,0.06751
5390.06990,0.06419
5391.99837,0.05692
5393.92684,0.04976
5395.85531,0.04864
5397.78378,0.05532
5399.71225,0.05884
5401.64071,0.06461
5403.56918,0.07756
5405.49765,0.08009
5407.42612,0.06584
5409.35459,0.04872
5411.28306,0.04217
5413.21153,0.04753
5415.13999,0.05291
5417.06846,0.05203
5418.99693,0.05288
5420.92540,0.05902
5422.85387,0.06104
5424.78234,0.06199
5426.71081,0.06142
5428.63928,0.04303
5430.56774,0.02408
5432.49621,0.03395
5434.42468,0.05173
5436.35315,0.05206
5438.28162,0.06154
5440.21009,0.07405
5442.13856,0.06303
5444.06702,0.05244
5445.99549,0.05153
5447.92396,0.06134
5449.85243,0.08533
5451.78090,0.09426
5453.70937,0.08374
5455.63784,0.08259
5457.56631,0.09812
5459.49477,0.09312
5461.42324,0.06211
5463.35171,0.04321
5465.28018,0.03996
5467.20865,0.03917
5469.13712,0.04591
5471.06559,0.06316
5472.99405,0.08106
5474.92252,0.08345
5476.85099,0.07161
5478.77946,0.06573
5480.70793,0.07345
5482.63640,0.09604
5484.56487,0.12080
5486.49334,0.11884
5488.42180,0.09319
5490.35027,0.07738
5492.27874,0.06917
5494.20721,0.05715
5496.13568,0.05718
5498.06415,0.07048
5499.99262,0.08043
5501.92108,0.08069
5503.84955,0.08362
5505.77802,0.08835
5507.70649,0.08464
5509.63496,0.07365
5511.56343,0.06190
5513.49190,0.06098
5515.42037,0.07038
5517.34883,0.07726
5519.27730,0.08066
5521.20577,0.08902
5523.13424,0.09593
5525.06271,0.08095
5526.99118,0.05534
5528.91965,0.04850
5530.84811,0.05281
5532.77658,0.04467
5534.70505,0.03089
5536.63352,0.03094
5538.56199,0.05075
5540.49046,0.08528
5542.41893,0.12068
5544.34740,0.13288
5546.27586,0.10849
5548.20433,0.06814
5550.13280,0.04269
5552.06127,0.03483
5553.98974,0.03963
5555.91821,0.05538
5557.84668,0.07351
5559.77514,0.08861
5561.70361,0.09243
5563.63208,0.07853
5565.56055,0.06449
5567.48902,0.06474
5569.41749,0.06960
5571.34596,0.06800
5573.27443,0.05863
5575.20289,0.04543
5577.13136,0.04100
5579.05983,0.05400
5580.98830,0.07442
5582.91677,0.08004
5584.84524,0.05910
5586.77371,0.03707
5588.70217,0.04026
5590.63064,0.05180
5592.55911,0.06816
5594.48758,0.09385
5596.41605,0.09467
5598.34452,0.06926
5600.27299,0.05944
5602.20145,0.06309
5604.12992,0.06026
5606.05839,0.06054
5607.98686,0.06529
5609.91533,0.06542
5611.84380,0.06023
5613.77227,0.05488
5615.70074,0.05411
5617.62920,0.05223
5619.55767,0.05348
5621.48614,0.06402
5623.41461,0.06556
5625.34308,0.05419
5627.27155,0.04879
5629.20002,0.04883
5631.12848,0.05069
5633.05695,0.06512
5634.98542,0.07960
5636.91389,0.06960
5638.84236,0.04912
5640.77083,0.04598
5642.69930,0.06122
5644.62777,0.07528
5646.55623,0.08531
5648.48470,0.10644
5650.41317,0.12190
5652.34164,0.11536
5654.27011,0.10516
5656.19858,0.09892
5658.12705,0.08861
5660.05551,0.07655
5661.98398,0.06447
5663.91245,0.05260
5665.84092,0.05046
5667.76939,0.06011
5669.69786,0.08026
5671.62633,0.09578
5673.55480,0.07776
5675.48326,0.03462
5677.41173,0.01116
5679.34020,0.02223
5681.26867,0.03989
5683.19714,0.05015
5685.12561,0.05717
5687.05408,0.06443
5688.98254,0.07636
5690.91101,0.08652
5692.83948,0.08845
5694.76795,0.08816
5696.69642,0.09062
5698.62489,0.09687
5700.55336,0.10958
5702.48183,0.11496
5704.41029,0.10017
5706.33876,0.09297
5708.26723,0.09560
5710.19570,0.06896
5712.12417,0.02931
5714.05264,0.02463
5715.98111,0.05118
5717.90957,0.07836
5719.83804,0.08679
5721.76651,0.07144
5723.69498,0.05043
5725.62345,0.04528
5727.55192,0.04227
5729.48039,0.02541
5731.40886,0.01532
5733.33732,0.03935
5735.26579,0.09570
5737.19426,0.13477
5739.12273,0.12872
5741.05120,0.10640
5742.97967,0.07862
5744.90814,0.04732
5746.83660,0.04738
5748.76507,0.08053
5750.69354,0.10068
5752.62201,0.08979
5754.55048,0.06747
5756.47895,0.06005
5758.40742,0.06721
5760.33588,0.07186
5762.26435,0.08124
5764.19282,0.10234
5766.12129,0.11445
5768.04976,0.10899
5769.97823,0.10559
5771.90670,0.10465
5773.83517,0.08893
5775.76363,0.07224
5777.69210,0.07117
5779.62057,0.06622
5781.54904,0.05913
5783.47751,0.07472
5785.40598,0.10026
5787.33445,0.11901
5789.26291,0.13175
5791.19138,0.13234
5793.11985,0.11475
5795.04832,0.08790
5796.97679,0.07320
5798.90526,0.07394
5800.83373,0.07396
5802.76220,0.08019
5804.69066,0.10143
5806.61913,0.10379
5808.54760,0.07496
5810.47607,0.05630
5812.40454,0.07312
5814.33301,0.09527
5816.26148,0.09318
5818.18994,0.08615
5820.11841,0.09637
5822.04688,0.12044
5823.97535,0.14576
5825.90382,0.15589
5827.83229,0.13965
5829.76076,0.09846
5831.68923,0.05360
5833.61769,0.04158
5835.54616,0.06936
5837.47463,0.09816
5839.40310,0.10443
5841.33157,0.08885
5843.26004,0.07061
5845.18851,0.07902
5847.11697,0.10819
5849.04544,0.11913
5850.97391,0.10019
5852.90238,0.08683
5854.83085,0.08967
5856.75932,0.08692
5858.68779,0.07358
5860.61626,0.07037
5862.54472,0.08210
5864.47319,0.08618
5866.40166,0.08207
5868.33013,0.08743
5870.25860,0.09712
5872.18707,0.10326
5874.11554,0.10900
5876.04400,0.11088
5877.97247,0.11121
5879.90094,0.12130
5881.82941,0.12390
5883.75788,0.10078
5885.68635,0.07857
5887.61482,0.07195
5889.54329,0.06307
5891.47175,0.05420
5893.40022,0.06618
5895.32869,0.10108
5897.25716,0.11477
5899.18563,0.08546
5901.11410,0.06303
5903.04257,0.06706
5904.97103,0.07336
5906.89950,0.09122
5908.82797,0.12537
5910.75644,0.13979
5912.68491,0.12579
5914.61338,0.11390
5916.54185,0.11560
5918.47032,0.11753
5920.39878,0.10666
5922.32725,0.09085
5924.25572,0.09545
5926.18419,0.10927
5928.11266,0.10613
5930.04113,0.10022
5931.96960,0.09890
5933.89806,0.10664
5935.82653,0.12282
5937.75500,0.11566
5939.68347,0.09351
5941.61194,0.08145
5943.54041,0.07014
5945.46888,0.06633
5947.39734,0.08614
5949.32581,0.10156
5951.25428,0.08855
5953.18275,0.07011
5955.11122,0.06700
5957.03969,0.08372
5958.96816,0.10575
5960.89663,0.11419
5962.82509,0.10531
5964.75356,0.08019
5966.68203,0.05750
5968.61050,0.05481
5970.53897,0.06737
5972.46744,0.08301
5974.39591,0.08728
5976.32437,0.08365
5978.25284,0.08703
5980.18131,0.09554
5982.10978,0.10028
5984.03825,0.08971
5985.96672,0.06627
5987.89519,0.05952
5989.82366,0.06629
5991.75212,0.07500
5993.68059,0.10198
5995.60906,0.12756
5997.53753,0.13490
5999.46600,0.14067
6001.39447,0.13815
6003.32294,0.10084
6005.25140,0.03454
6007.17987,0.00982
6009.10834,0.03791
6011.03681,0.05079
6012.96528,0.04059
6014.89375,0.04513
6016.82222,0.06837
6018.75069,0.08587
6020.67915,0.09198
6022.60762,0.08193
6024.53609,0.05127
6026.46456,0.03581
6028.39303,0.05081
6030.32150,0.07420
6032.24997,0.09911
6034.17843,0.11064
6036.10690,0.08569
6038.03537,0.05103
6039.96384,0.04296
6041.89231,0.04292
6043.82078,0.02580
6045.74925,0.01877
6047.67772,0.03653
6049.60618,0.04821
6051.53465,0.06085
6053.46312,0.08827
6055.39159,0.10329
6057.32006,0.11019
6059.24853,0.11531
6061.17700,0.09737
6063.10546,0.07657
6065.03393,0.07841
6066.96240,0.09216
6068.89087,0.10895
6070.81934,0.11989
6072.74781,0.11037
6074.67628,0.06240
6076.60475,0.01455
6078.53321,0.03001
6080.46168,0.06583
6082.39015,0.07305
6084.31862,0.08297
6086.24709,0.10291
6088.17556,0.10811
6090.10403,0.09596
6092.03249,0.06699
6093.96096,0.04020
6095.88943,0.06014
6097.81790,0.10627
6099.74637,0.12086
6101.67484,0.10082
6103.60331,0.06934
6105.53177,0.04408
6107.46024,0.04029
6109.38871,0.04938
6111.31718,0.05278
6113.24565,0.06084
6115.17412,0.06412
6117.10259,0.05264
6119.03106,0.05489
6120.95952,0.06169
6122.88799,0.06509
6124.81646,0.08585
6126.74493,0.10105
6128.67340,0.08308
6130.60187,0.05839
6132.53034,0.05722
6134.45880,0.05937
6136.38727,0.04400
6138.31574,0.03907
6140.24421,0.06901
6142.17268,0.10352
6144.10115,0.10609
6146.02962,0.07953
6147.95809,0.05335
6149.88655,0.05310
6151.81502,0.07498
6153.74349,0.09679
6155.67196,0.10336
6157.60043,0.09380
6159.52890,0.06824
6161.45737,0.05010
6163.38583,0.06136
6165.31430,0.05941
6167.24277,0.04197
6169.17124,0.06052
6171.09971,0.09572
6173.02818,0.10283
6174.95665,0.10328
6176.88512,0.10820
6178.81358,0.09505
6180.74205,0.07231
6182.67052,0.06212
6184.59899,0.06034
6186.52746,0.04432
6188.45593,0.02552
6190.38440,0.03950
6192.31286,0.07206
6194.24133,0.10475
6196.16980,0.13202
6198.09827,0.12623
6200.02674,0.08395
6201.95521,0.04752
6203.88368,0.04212
6205.81215,0.03860
6207.74061,0.01010
6209.66908,-0.01865
6211.59755,-0.02015
6213.52602,-0.00404
6215.45449,0.01558
6217.38296,0.03943
6219.31143,0.05389
6221.23989,0.02194
6223.16836,-0.02708
6225.09683,-0.02102
6227.02530,0.01997
6228.95377,0.06049
6230.88224,0.11160
6232.81071,0.16328
6234.73918,0.18328
6236.66764,0.15082
6238.59611,0.07916
6240.52458,0.02843
6242.45305,0.04296
6244.38152,0.08605
6246.30999,0.09428
6248.23846,0.07600
6250.16692,0.08358
6252.09539,0.10677
6254.02386,0.09720
6255.95233,0.06926
6257.88080,0.06391
6259.80927,0.07622
6261.73774,0.09229
6263.66621,0.10787
6265.59467,0.11296
6267.52314,0.11026
6269.45161,0.09309
6271.38008,0.07681
6273.30855,0.09229
6275.23702,0.11071
6277.16549,0.10851
6279.09395,0.11723
6281.02242,0.12451
6282.95089,0.11041
6284.87936,0.10479
6286.80783,0.12063
6288.73630,0.13215
6290.66477,0.12029
6292.59323,0.09895
6294.52170,0.09435
6296.45017,0.11918
6298.37864,0.14977
6300.30711,0.14511
6302.23558,0.11721
6304.16405,0.10429
6306.09252,0.10351
6308.02098,0.12128
6309.94945,0.13988
6311.87792,0.11997
6313.80639,0.10676
6315.73486,0.11848
6317.66333,0.11258
6319.59180,0.09250
6321.52026,0.07701
6323.44873,0.07430
6325.37720,0.04803
6327.30567,-0.01046
6329.23414,-0.03042
6331.16261,0.00184
6333.09108,0.03215
6335.01955,0.03495
6336.94801,0.03141
6338.87648,0.05890
6340.80495,0.09382
6342.73342,0.09367
6344.66189,0.08448
6346.59036,0.07962
6348.51883,0.08313
6350.44729,0.10756
6352.37576,0.10653
6354.30423,0.09391
6356.23270,0.10216
6358.16117,0.10674
6360.08964,0.11094
6362.01811,0.11162
6363.94658,0.09047
6365.87504,0.08378
6367.80351,0.10512
6369.73198,0.10475
6371.66045,0.09125
6373.58892,0.10201
6375.51739,0.11752
6377.44586,0.09468
6379.37432,0.03872
6381.30279,0.00888
6383.23126,0.04158
6385.15973,0.09851
6387.08820,0.14118
6389.01667,0.17709
6390.94514,0.18263
6392.87361,0.12651
6394.80207,0.07236
6396.73054,0.06986
6398.65901,0.07286
6400.58748,0.06849
6402.51595,0.06767
6404.44442,0.06995
6406.37289,0.07319
6408.30135,0.06341
6410.22982,0.05701
6412.15829,0.07082
6414.08676,0.08788
6416.01523,0.08042
6417.94370,0.03421
6419.87217,0.00099
6421.80064,0.02218
6423.72910,0.06753
6425.65757,0.07334
6427.58604,0.02973
6429.51451,0.00061
6431.44298,0.00033
6433.37145,-0.00588
6435.29992,-0.01394
6437.22838,-0.00989
6439.15685,0.00900
6441.08532,0.04906
6443.01379,0.08264
6444.94226,0.08103
6446.87073,0.06644
6448.79920,0.07097
6450.72766,0.10197
6452.65613,0.09722
6454.58460,0.04687
6456.51307,0.01679
6458.44154,0.02089
6460.37001,0.04263
6462.29848,0.07216
6464.22695,0.07538
6466.15541,0.04875
6468.08388,0.04676
6470.01235,0.07436
6471.94082,0.09194
6473.86929,0.10462
6475.79776,0.11048
6477.72623,0.11594
6479.65469,0.12665
6481.58316,0.12171
6483.51163,0.10159
6485.44010,0.07260
6487.36857,0.06348
6489.29704,0.10835
6491.22551,0.17080
6493.15398,0.18923
6495.08244,0.15891
6497.01091,0.10048
6498.93938,0.05775
6500.86785,0.07449
6502.79632,0.11110
6504.72479,0.12369
6506.65326,0.12526
6508.58172,0.12049
6510.51019,0.12504
6512.43866,0.14360
6514.36713,0.13167
6516.29560,0.10277
6518.22407,0.11215
6520.15254,0.11713
6522.08101,0.08663
6524.00947,0.08314
6525.93794,0.12317
6527.86641,0.14531
6529.79488,0.11348
6531.72335,0.05569
6533.65182,0.03193
6535.58029,0.03602
6537.50875,0.02889
6539.43722,0.02707
6541.36569,0.06517
6543.29416,0.09997
6545.22263,0.07128
6547.15110,0.01906
6549.07957,-0.01247
6551.00804,0.01137
6552.93650,0.08066
6554.86497,0.10679
6556.79344,0.07349
6558.72191,0.03132
6560.65038,0.02376
6562.57885,0.06007
6564.50732,0.07695
6566.43578,0.04278
6568.36425,0.03002
6570.29272,0.08240
6572.22119,0.12761
6574.14966,0.08007
6576.07813,-0.01475
6578.00660,-0.04327
6579.93507,-0.01020
6581.86353,0.00316
6583.79200,0.02108
6585.72047,0.05744
6587.64894,0.04176
6589.57741,-0.04813
6591.50588,-0.13683
6593.43435,-0.12813
6595.36281,-0.04828
6597.29128,-0.00757
6599.21975,-0.01510
6601.14822,-0.01275
6603.07669,0.03364
6605.00516,0.09382
6606.93363,0.12794
6608.86210,0.10337
6610.79056,0.03093
6612.71903,-0.00499
6614.64750,0.04781
6616.57597,0.12499
6618.50444,0.17596
6620.43291,0.19644
6622.36138,0.15170
6624.28984,0.06290
6626.21831,-0.00128
6628.14678,-0.01254
6630.07525,0.03494
6632.00372,0.07488
6633.93219,0.04930
6635.86066,-0.00060
6637.78912,-0.01974
6639.71759,-0.01096
6641.64606,0.02114
6643.57453,0.04731
6645.50300,0.03357
6647.43147,0.01042
6649.35994,-0.02330
6651.28841,-0.07141
6653.21687,-0.06006
6655.14534,0.02383
6657.07381,0.08923
6659.00228,0.10054
6660.93075,0.10624
6662.85922,0.07876
6664.78769,0.00434
6666.71615,-0.02940
6668.64462,0.01154
6670.57309,0.08538
6672.50156,0.13813
6674.43003,0.11753
6676.35850,0.06957
6678.28697,0.04291
6680.21544,0.01801
6682.14390,-0.00535
6684.07237,-0.00322
6686.00084,-0.00343
6687.92931,0.00032
6689.85778,0.04452
6691.78625,0.07179
6693.71472,0.07690
6695.64318,0.06754
6697.57165,0.02966
6699.50012,0.01951
6701.42859,0.03153
6703.35706,0.02879
6705.28553,0.02522
6707.21400,0.01945
6709.14247,-0.01298
6711.07093,-0.04882
6712.99940,-0.01998
6714.92787,0.06179
6716.85634,0.09457
6718.78481,0.06041
6720.71328,0.02031
6722.64175,0.01939
6724.57021,0.08185
6726.49868,0.13652
6728.42715,0.11321
6730.35562,0.06352
6732.28409,0.06533
6734.21256,0.11266
6736.14103,0.13487
6738.06950,0.09474
6739.99796,0.04744
6741.92643,0.05570
6743.85490,0.09019
6745.78337,0.08950
6747.71184,0.08211
6749.64031,0.11201
6751.56878,0.10599
6753.49724,0.03538
6755.42571,0.00831
6757.35418,0.04975
6759.28265,0.08763
6761.21112,0.07893
6763.13959,0.05092
6765.06806,0.05362
6766.99653,0.07537
6768.92499,0.06358
6770.85346,0.03395
6772.78193,0.02214
6774.71040,0.00704
6776.63887,0.00709
6778.56734,0.03826
6780.49581,0.04476
6782.42427,0.04610
6784.35274,0.10712
6786.28121,0.16402
6788.20968,0.13553
6790.13815,0.05621
6792.06662,-0.00945
6793.99509,-0.01549
6795.92355,0.03624
6797.85202,0.08681
6799.78049,0.10927
6801.70896,0.12088
6803.63743,0.12549
6805.56590,0.11501
6807.49437,0.11239
6809.42284,0.14098
6811.35130,0.14504
6813.27977,0.07247
6815.20824,0.02562
6817.13671,0.05055
6819.06518,0.06710
6820.99365,0.08420
6822.92212,0.12297
6824.85058,0.12947
6826.77905,0.12766
6828.70752,0.16429
6830.63599,0.16437
6832.56446,0.08245
6834.49293,0.00560
6836.42140,0.00324
6838.34987,0.07069
6840.27833,0.12966
6842.20680,0.13332
6844.13527,0.14778
6846.06374,0.20752
6847.99221,0.24259
6849.92068,0.20980
6851.84915,0.16318
6853.77761,0.12073
6855.70608,0.06489
6857.63455,0.05254
6859.56302,0.09580
6861.49149,0.11012
6863.41996,0.08713
6865.34843,0.07306
6867.27690,0.06995
6869.20536,0.09988
6871.13383,0.16099
6873.06230,0.17950
6874.99077,0.10976
6876.91924,0.05668
6878.84771,0.09098
6880.77618,0.10018
6882.70464,0.04528
6884.63311,0.03289
6886.56158,0.04597
6888.49005,0.03679
6890.41852,0.04512
6892.34699,0.03604
6894.27546,-0.03461
6896.20393,-0.07958
6898.13239,-0.08332
6900.06086,-0.10333
6901.98933,-0.10307
6903.91780,-0.03929
6905.84627,0.06927
6907.77474,0.11319
6909.70321,0.06991
6911.63167,0.04533
6913.56014,0.06121
6915.48861,0.07848
6917.41708,0.07411
6919.34555,0.04975
6921.27402,0.09019
6923.20249,0.16508
6925.13096,0.14724
6927.05942,0.07890
6928.98789,0.07173
6930.91636,0.10014
6932.84483,0.10188
6934.77330,0.09932
6936.70177,0.09031
6938.63024,0.05327
6940.55870,0.01849
6942.48717,0.00878
6944.41564,-0.01929
6946.34411,-0.02800
6948.27258,0.00152
6950.20105,0.00951
6952.12952,0.01942
6954.05799,0.04993
6955.98645,0.07451
6957.91492,0.09295
6959.84339,0.11164
6961.77186,0.15127
6963.70033,0.17741
6965.62880,0.14082
6967.55727,0.10614
6969.48573,0.14618
6971.41420,0.17722
6973.34267,0.13859
6975.27114,0.08970
6977.19961,0.04930
6979.12808,0.01233
6981.05655,0.00693
6982.98501,0.04223
6984.91348,0.06415
6986.84195,0.05976
6988.77042,0.05809
6990.69889,0.03185
6992.62736,-0.00002
6994.55583,-0.00941
6996.48430,-0.00671
6998.41276,0.01512
7000.34123,0.04223
7002.26970,0.05527
7004.19817,0.06859
7006.12664,0.09772
7008.05511,0.09554
7009.98358,0.04954
7011.91204,0.05168
7013.84051,0.08717
7015.76898,0.07946
7017.69745,0.06022
7019.62592,0.04153
7021.55439,0.01470
7023.48286,0.03581
7025.41133,0.10786
7027.33979,0.13433
7029.26826,0.09563
7031.19673,0.05536
7033.12520,0.06273
7035.05367,0.10796
7036.98214,0.10875
7038.91061,0.05249
7040.83907,0.00151
7042.76754,0.05267
7044.69601,0.16693
7046.62448,0.22026
7048.55295,0.23015
7050.48142,0.20846
7052.40989,0.15899
7054.33836,0.13289
7056.26682,0.12435
7058.19529,0.08305
7060.12376,0.06918
7062.05223,0.07641
7063.98070,0.03435
7065.90917,-0.00157
7067.83764,0.00794
7069.76610,0.04867
7071.69457,0.07889
7073.62304,0.10949
7075.55151,0.16927
7077.47998,0.18559
7079.40845,0.10620
7081.33692,0.00756
7083.26539,0.00258
7085.19385,0.03417
7087.12232,0.02856
7089.05079,-0.01064
7090.97926,-0.02427
7092.90773,0.01260
7094.83620,0.04761
7096.76467,0.04754
7098.69313,0.04186
7100.62160,0.03289
7102.55007,-0.02198
7104.47854,-0.08134
7106.40701,-0.06235
7108.33548,-0.00906
7110.26395,0.01522
7112.19242,0.03861
7114.12088,0.05822
7116.04935,-0.00204
7117.97782,-0.12390
7119.90629,-0.10931
7121.83476,-0.00306
7123.76323,0.05082
7125.69170,0.02886
7127.62016,-0.03830
7129.54863,-0.05077
7131.47710,0.00347
7133.40557,0.05498
7135.33404,0.08841
7137.26251,0.09959
7139.19098,0.08784
7141.11944,0.06450
7143.04791,0.08356
7144.97638,0.14838
7146.90485,0.12696
7148.83332,0.03536
7150.76179,-0.00186
7152.69026,0.02932
7154.61873,0.08176
7156.54719,0.12147
7158.47566,0.11013
7160.40413,0.04520
7162.33260,0.04398
7164.26107,0.12849
7166.18954,0.14321
7168.11801,0.13672
7170.04647,0.19310
7171.97494,0.15510
7173.90341,0.07834
7175.83188,0.10606
7177.76035,0.15501
7179.68882,0.11887
7181.61729,0.02664
7183.54576,0.01979
7185.47422,0.15926
7187.40269,0.27782
7189.33116,0.29498
7191.25963,0.24761
7193.18810,0.18724
7195.11657,0.09748
7197.04504,-0.05603
7198.97350,-0.14006
7200.90197,-0.08477
7202.83044,-0.02517
7204.75891,-0.05287
7206.68738,-0.06484
7208.61585,0.01579
7210.54432,0.11379
7212.47279,0.15005
7214.40125,0.12396
7216.32972,0.05878
7218.25819,-0.03581
7220.18666,-0.06417
7222.11513,0.00385
7224.04360,0.07558
7225.97207,0.08850
7227.90053,0.05850
7229.82900,-0.00648
7231.75747,-0.08322
7233.68594,-0.09081
7235.61441,-0.00003
7237.54288,0.14335
7239.47135,0.19572
7241.39982,0.07811
7243.32828,-0.07460
7245.25675,-0.04555
7247.18522,0.03578
7249.11369,0.02884
7251.04216,0.01830
7252.97063,0.07114
7254.89910,0.05801
7256.82756,0.00868
7258.75603,-0.01357
7260.68450,0.00244
7262.61297,0.04327
7264.54144,0.07131
7266.46991,0.10704
7268.39838,0.12572
7270.32685,0.05982
7272.25531,-0.02057
7274.18378,0.04601
7276.11225,0.14310
7278.04072,0.16873
7279.96919,0.11970
7281.89766,0.06407
7283.82613,0.08996
7285.75459,0.13384
7287.68306,0.08828
7289.61153,-0.01094
7291.54000,-0.04466
7293.46847,-0.01781
7295.39694,-0.00771
7297.32541,0.02505
7299.25387,0.10725
7301.18234,0.17805
7303.11081,0.18173
7305.03928,0.11509
7306.96775,0.05876
7308.89622,0.00732
7310.82469,-0.09470
7312.75316,-0.09629
7314.68162,0.01855
7316.61009,0.10328
7318.53856,0.09576
7320.46703,0.10941
7322.39550,0.13771
7324.32397,0.07340
7326.25244,-0.05327
7328.18090,-0.15404
7330.10937,-0.16839
7332.03784,-0.12407
7333.96631,-0.06877
7335.89478,-0.02368
7337.82325,0.02878
7339.75172,0.08839
7341.68019,0.00868
7343.60865,-0.08682
7345.53712,-0.06823
7347.46559,-0.08452
7349.39406,-0.20211
7351.32253,-0.22103
7353.25100,-0.05867
7355.17947,0.13695
7357.10793,0.23675
7359.03640,0.15522
7360.96487,-0.00025
7362.89334,0.06090
7364.82181,0.27292
7366.75028,0.35204
7368.67875,0.30606
7370.60722,0.22299
7372.53568,0.13057
7374.46415,0.09696
7376.39262,0.11005
7378.32109,0.06763
7380.24956,-0.00313
7382.17803,-0.07438
7384.10650,-0.13215
7386.03496,-0.15930
7387.96343,-0.10800
7389.89190,0.00846
7391.82037,0.08813
7393.74884,0.12124
7395.67731,0.14388
7397.60578,0.12058
7399.53425,0.10692
7401.46271,0.16389
7403.39118,0.20591
7405.31965,0.13147
7407.24812,0.00207
7409.17659,-0.08795
7411.10506,-0.07160
7413.03353,0.03421
7414.96199,0.11339
7416.89046,0.11899
7418.81893,0.07899
7420.74740,0.08314
7422.67587,0.12258
7424.60434,0.06738
7426.53281,-0.03806
7428.46128,-0.05991
7430.38974,0.01915
7432.31821,0.05588
7434.24668,0.04781
7436.17515,0.11191
7438.10362,0.17766
7440.03209,0.12030
7441.96056,0.07943
7443.88902,0.18415
7445.81749,0.23742
7447.74596,0.11940
7449.67443,0.03639
7451.60290,0.17801
7453.53137,0.27675
7455.45984,0.14446
7457.38831,-0.04659
7459.31677,-0.18259
7461.24524,-0.22017
7463.17371,-0.10670
7465.10218,0.09321
7467.03065,0.15157
7468.95912,0.06639
7470.88759,-0.00320
7472.81605,-0.00507
7474.74452,0.02569
7476.67299,0.05216
7478.60146,0.07953
7480.52993,0.12402
7482.45840,0.15836
7484.38687,0.11050
7486.31533,-0.01384
7488.24380,-0.06679
7490.17227,0.02950
7492.10074,0.14115
7494.02921,0.15268
7495.95768,0.09938
7497.88615,0.09581
