399.19301,0.01050
401.12148,0.21232
403.04995,0.17598
404.97842,0.04154
406.90689,0.00992
408.83536,0.07316
410.76382,0.06783
412.69229,-0.03121
414.62076,-0.10576
416.54923,-0.11889
418.47770,-0.08120
420.40617,-0.00870
422.33464,0.05811
424.26311,0.06551
426.19157,0.00790
428.12004,-0.02581
430.04851,-0.02672
431.97698,-0.04610
433.90545,-0.06657
435.83392,-0.04637
437.76239,0.02191
439.69085,0.10215
441.61932,0.14530
443.54779,0.12878
445.47626,0.03584
447.40473,-0.05975
449.33320,-0.04209
451.26167,0.02104
453.19013,0.03626
455.11860,0.04777
457.04707,0.07762
458.97554,0.05940
460.90401,0.01564
462.83248,0.04091
464.76095,0.12899
466.68942,0.16808
468.61788,0.12808
470.54635,0.08251
472.47482,0.06062
474.40329,0.04206
476.33176,0.03939
478.26023,0.05652
480.18870,0.07208
482.11716,0.07067
484.04563,0.07547
485.97410,0.08946
487.90257,0.07780
489.83104,0.04859
491.75951,0.04059
493.68798,0.06325
495.61645,0.06920
497.54491,0.03820
499.47338,0.01242
501.40185,0.02665
503.33032,0.08559
505.25879,0.14729
507.18726,0.17712
509.11573,0.16473
511.04419,0.13398
512.97266,0.12571
514.90113,0.12776
516.82960,0.11875
518.75807,0.12233
520.68654,0.12568
522.61501,0.11679
524.54348,0.12256
526.47194,0.14846
528.40041,0.16324
530.32888,0.14131
532.25735,0.09507
534.18582,0.06221
536.11429,0.05622
538.04276,0.06872
539.97122,0.10290
541.89969,0.14487
543.82816,0.13465
545.75663,0.07272
547.68510,0.04332
549.61357,0.05865
551.54204,0.07800
553.47051,0.10448
555.39897,0.11791
557.32744,0.10816
559.25591,0.11232
561.18438,0.12721
563.11285,0.13234
565.04132,0.13491
566.96979,0.13661
568.89825,0.12961
570.82672,0.11307
572.75519,0.09648
574.68366,0.08624
576.61213,0.07234
578.54060,0.06238
580.46907,0.06824
582.39754,0.08180
584.32600,0.09752
586.25447,0.10153
588.18294,0.09037
590.11141,0.08529
592.03988,0.09176
593.96835,0.09690
595.89682,0.09954
597.82528,0.11345
599.75375,0.13102
601.68222,0.13120
603.61069,0.11915
605.53916,0.11097
607.46763,0.10854
609.39610,0.10452
611.32456,0.09463
613.25303,0.08732
615.18150,0.09451
617.10997,0.10967
619.03844,0.11337
620.96691,0.10463
622.89538,0.09742
624.82385,0.09779
626.75231,0.10311
628.68078,0.10219
630.60925,0.09517
632.53772,0.09562
634.46619,0.09577
636.39466,0.08710
638.32313,0.08060
640.25159,0.08035
642.18006,0.08549
644.10853,0.09577
646.03700,0.10073
647.96547,0.09997
649.89394,0.10647
651.82241,0.11310
653.75088,0.10790
655.67934,0.09607
657.60781,0.08809
659.53628,0.08857
661.46475,0.09358
663.39322,0.10015
665.32169,0.10584
667.25016,0.10564
669.17862,0.10600
671.10709,0.11475
673.03556,0.11281
674.96403,0.09626
676.89250,0.08922
678.82097,0.10431
680.74944,0.12102
682.67791,0.12215
684.60637,0.11722
686.53484,0.11688
688.46331,0.11258
690.39178,0.10702
692.32025,0.11146
694.24872,0.11334
696.17719,0.10479
698.10565,0.10096
700.03412,0.10776
701.96259,0.11423
703.89106,0.11467
705.81953,0.11406
707.74800,0.11728
709.67647,0.12923
711.60494,0.14204
713.53340,0.13820
715.46187,0.12786
717.39034,0.12680
719.31881,0.12636
721.24728,0.12399
723.17575,0.12592
725.10422,0.12587
727.03268,0.12259
728.96115,0.11973
730.88962,0.11571
732.81809,0.11771
734.74656,0.12460
736.67503,0.12726
738.60350,0.12829
740.53197,0.12711
742.46043,0.12513
744.38890,0.12917
746.31737,0.13411
748.24584,0.13108
750.17431,0.12494
752.10278,0.12281
754.03125,0.12231
755.95971,0.12109
757.88818,0.12217
759.81665,0.12439
761.74512,0.11844
763.67359,0.10747
765.60206,0.10396
767.53053,0.10841
769.45900,0.11642
771.38746,0.12056
773.31593,0.11469
775.24440,0.10495
777.17287,0.10108
779.10134,0.10644
781.02981,0.11061
782.95828,0.10365
784.88674,0.10162
786.81521,0.11469
788.74368,0.12578
790.67215,0.12368
792.60062,0.11237
794.52909,0.10712
796.45756,0.11376
798.38602,0.11578
800.31449,0.11031
802.24296,0.11197
804.17143,0.12086
806.09990,0.12313
808.02837,0.11652
809.95684,0.11151
811.88531,0.11471
813.81377,0.12131
815.74224,0.12148
817.67071,0.11560
819.59918,0.11099
821.52765,0.10876
823.45612,0.10704
825.38459,0.10798
827.31305,0.11486
829.24152,0.12191
831.16999,0.12070
833.09846,0.11899
835.02693,0.12691
836.95540,0.13750
838.88387,0.13954
840.81234,0.12968
842.74080,0.11662
844.66927,0.10921
846.59774,0.10701
848.52621,0.11135
850.45468,0.11997
852.38315,0.12880
854.31162,0.13782
856.24008,0.13996
858.16855,0.13238
860.09702,0.12370
862.02549,0.12062
863.95396,0.12302
865.88243,0.12632
867.81090,0.13052
869.73937,0.13405
871.66783,0.13237
873.59630,0.13246
875.52477,0.13404
877.45324,0.13002
879.38171,0.12708
881.31018,0.12777
883.23865,0.12757
885.16711,0.12900
887.09558,0.13435
889.02405,0.14001
890.95252,0.14202
892.88099,0.13996
894.80946,0.13445
896.73793,0.12692
898.66640,0.12451
900.59486,0.13219
902.52333,0.14200
904.45180,0.14297
906.38027,0.13538
908.30874,0.13021
910.23721,0.13392
912.16568,0.13676
914.09414,0.12898
916.02261,0.12060
917.95108,0.12536
919.87955,0.13583
921.80802,0.13685
923.73649,0.12976
925.66496,0.12614
927.59343,0.13088
929.52189,0.13434
931.45036,0.12815
933.37883,0.12511
935.30730,0.13213
937.23577,0.13603
939.16424,0.13499
941.09271,0.13521
943.02117,0.13443
944.94964,0.13174
946.87811,0.12834
948.80658,0.12481
950.73505,0.12521
952.66352,0.12906
954.59199,0.13014
956.52045,0.12928
958.44892,0.13148
960.37739,0.13582
962.30586,0.13742
964.23433,0.13529
966.16280,0.13081
968.09127,0.12436
970.01974,0.12024
971.94820,0.12154
973.87667,0.12483
975.80514,0.12820
977.73361,0.13442
979.66208,0.14088
981.59055,0.14240
983.51902,0.13983
985.44748,0.13581
987.37595,0.13383
989.30442,0.13415
991.23289,0.13484
993.16136,0.13498
995.08983,0.13403
997.01830,0.13466
998.94677,0.13502
1000.87523,0.13110
1002.80370,0.12880
1004.73217,0.13509
1006.66064,0.14368
1008.58911,0.14581
1010.51758,0.14585
1012.44605,0.14916
1014.37451,0.14892
1016.30298,0.14017
1018.23145,0.13045
1020.15992,0.12720
1022.08839,0.13197
1024.01686,0.13689
1025.94533,0.12773
1027.87380,0.11458
1029.80226,0.11843
1031.73073,0.12808
1033.65920,0.13021
1035.58767,0.13387
1037.51614,0.14020
1039.44461,0.14222
1041.37308,0.13859
1043.30154,0.13399
1045.23001,0.13367
1047.15848,0.13521
1049.08695,0.13672
1051.01542,0.13929
1052.94389,0.13940
1054.87236,0.13843
1056.80083,0.14261
1058.72929,0.14393
1060.65776,0.13839
1062.58623,0.14058
1064.51470,0.15220
1066.44317,0.16079
1068.37164,0.16208
1070.30011,0.15815
1072.22857,0.15205
1074.15704,0.14515
1076.08551,0.14210
1078.01398,0.14686
1079.94245,0.14994
1081.87092,0.14639
1083.79939,0.14309
1085.72786,0.13969
1087.65632,0.13357
1089.58479,0.12739
1091.51326,0.12571
1093.44173,0.13228
1095.37020,0.14241
1097.29867,0.14857
1099.22714,0.14994
1101.15560,0.14797
1103.08407,0.14465
1105.01254,0.14332
1106.94101,0.14397
1108.86948,0.14488
1110.79795,0.14389
1112.72642,0.14034
1114.65489,0.13886
1116.58335,0.14068
1118.51182,0.14187
1120.44029,0.14147
1122.36876,0.14353
1124.29723,0.14996
1126.22570,0.15257
1128.15417,0.14806
1130.08263,0.14379
1132.01110,0.14078
1133.93957,0.13771
1135.86804,0.13766
1137.79651,0.13990
1139.72498,0.14181
1141.65345,0.14344
1143.58191,0.14287
1145.51038,0.13995
1147.43885,0.13969
1149.36732,0.14404
1151.29579,0.14816
1153.22426,0.14879
1155.15273,0.14922
1157.08120,0.14988
1159.00966,0.14731
1160.93813,0.14524
1162.86660,0.14790
1164.79507,0.15127
1166.72354,0.15234
1168.65201,0.15168
1170.58048,0.14952
1172.50894,0.14766
1174.43741,0.14829
1176.36588,0.15136
1178.29435,0.15417
1180.22282,0.15341
1182.15129,0.14944
1184.07976,0.14700
1186.00823,0.14661
1187.93669,0.14354
1189.86516,0.14058
1191.79363,0.14293
1193.72210,0.14736
1195.65057,0.15095
1197.57904,0.15402
1199.50751,0.15434
1201.43597,0.15075
1203.36444,0.14743
1205.29291,0.14866
1207.22138,0.15193
1209.14985,0.15296
1211.07832,0.15317
1213.00679,0.15441
1214.93526,0.15712
1216.86372,0.15946
1218.79219,0.15670
1220.72066,0.15107
1222.64913,0.14813
1224.57760,0.14737
1226.50607,0.14734
1228.43454,0.14932
1230.36300,0.15259
1232.29147,0.15467
1234.21994,0.15550
1236.14841,0.15468
1238.07688,0.15245
1240.00535,0.15124
1241.93382,0.15220
1243.86229,0.15421
1245.79075,0.15364
1247.71922,0.15093
1249.64769,0.15077
1251.57616,0.15278
1253.50463,0.15345
1255.43310,0.15280
1257.36157,0.15266
1259.29003,0.15348
1261.21850,0.15488
1263.14697,0.15636
1265.07544,0.15801
1267.00391,0.15889
1268.93238,0.15755
1270.86085,0.15588
1272.78932,0.15690
1274.71778,0.16025
1276.64625,0.16245
1278.57472,0.16179
1280.50319,0.16065
1282.43166,0.16117
1284.36013,0.16229
1286.28860,0.16292
1288.21706,0.16326
1290.14553,0.16386
1292.07400,0.16301
1294.00247,0.15809
1295.93094,0.15304
1297.85941,0.15228
1299.78788,0.15359
1301.71634,0.15380
1303.64481,0.15223
1305.57328,0.15298
1307.50175,0.15922
1309.43022,0.16602
1311.35869,0.16832
1313.28716,0.16686
1315.21563,0.16530
1317.14409,0.16649
1319.07256,0.16834
1321.00103,0.16757
1322.92950,0.16438
1324.85797,0.15956
1326.78644,0.15524
1328.71491,0.15416
1330.64337,0.15610
1332.57184,0.15934
1334.50031,0.16438
1336.42878,0.17243
1338.35725,0.17906
1340.28572,0.17638
1342.21419,0.16897
1344.14266,0.16573
1346.07112,0.16412
1347.99959,0.16094
1349.92806,0.15761
1351.85653,0.15549
1353.78500,0.15624
1355.71347,0.15928
1357.64194,0.16292
1359.57040,0.16864
1361.49887,0.17683
1363.42734,0.17978
1365.35581,0.17582
1367.28428,0.17414
1369.21275,0.17487
1371.14122,0.17587
1373.06969,0.17825
1374.99815,0.17738
1376.92662,0.17224
1378.85509,0.16756
1380.78356,0.16464
1382.71203,0.16556
1384.64050,0.17118
1386.56897,0.17658
1388.49743,0.17594
1390.42590,0.17417
1392.35437,0.17816
1394.28284,0.18651
1396.21131,0.19260
1398.13978,0.19194
1400.06825,0.18479
1401.99672,0.17944
1403.92518,0.17947
1405.85365,0.17706
1407.78212,0.17169
1409.71059,0.17042
1411.63906,0.17151
1413.56753,0.17155
1415.49600,0.17499
1417.42446,0.18728
1419.35293,0.19707
1421.28140,0.19220
1423.20987,0.18647
1425.13834,0.18353
1427.06681,0.18251
1428.99528,0.18355
1430.92375,0.18128
1432.85221,0.17828
1434.78068,0.18316
1436.70915,0.18966
1438.63762,0.18251
1440.56609,0.17272
1442.49456,0.17072
1444.42303,0.17580
1446.35149,0.18412
1448.27996,0.18845
1450.20843,0.18639
1452.13690,0.18698
1454.06537,0.19803
1455.99384,0.22089
1457.92231,0.22462
1459.85077,0.19980
1461.77924,0.18827
1463.70771,0.19059
1465.63618,0.19101
1467.56465,0.18594
1469.49312,0.18924
1471.42159,0.20367
1473.35006,0.21067
1475.27852,0.20066
1477.20699,0.19021
1479.13546,0.18485
1481.06393,0.18302
1482.99240,0.18047
1484.92087,0.18219
1486.84934,0.19756
1488.77780,0.21732
1490.70627,0.21230
1492.63474,0.19613
1494.56321,0.19583
1496.49168,0.20889
1498.42015,0.21215
1500.34862,0.20061
1502.27709,0.19527
1504.20555,0.21270
1506.13402,0.25875
1508.06249,0.26561
1509.99096,0.22795
1511.91943,0.20500
1513.84790,0.20023
1515.77637,0.21356
1517.70483,0.23138
1519.63330,0.24109
1521.56177,0.24683
1523.49024,0.23939
1525.41871,0.22625
1527.34718,0.21417
1529.27565,0.20489
1531.20412,0.20615
1533.13258,0.21302
1535.06105,0.21068
1536.98952,0.21510
1538.91799,0.24764
1540.84646,0.27998
1542.77493,0.25928
1544.70340,0.22739
1546.63186,0.20404
1548.56033,0.19633
1550.48880,0.19920
1552.41727,0.20427
1554.34574,0.21495
1556.27421,0.24022
1558.20268,0.27621
1560.13115,0.25085
1562.05961,0.21134
1563.98808,0.19891
1565.91655,0.19973
1567.84502,0.20672
1569.77349,0.20623
1571.70196,0.19547
1573.63043,0.19817
1575.55889,0.21424
1577.48736,0.21189
1579.41583,0.19471
1581.34430,0.18491
1583.27277,0.18075
1585.20124,0.17754
1587.12971,0.17483
1589.05818,0.17477
1590.98664,0.17794
1592.91511,0.18155
1594.84358,0.18374
1596.77205,0.18227
1598.70052,0.17853
1600.62899,0.17892
1602.55746,0.18235
1604.48592,0.18255
1606.41439,0.18234
1608.34286,0.18498
1610.27133,0.18562
1612.19980,0.18504
1614.12827,0.19115
1616.05674,0.20371
1617.98521,0.20312
1619.91367,0.19476
1621.84214,0.19792
1623.77061,0.20482
1625.69908,0.20290
1627.62755,0.19775
1629.55602,0.19159
1631.48449,0.18993
1633.41295,0.20248
1635.34142,0.22621
1637.26989,0.22258
1639.19836,0.20219
1641.12683,0.19394
1643.05530,0.19935
1644.98377,0.21941
1646.91223,0.24283
1648.84070,0.23905
1650.76917,0.23645
1652.69764,0.25469
1654.62611,0.24103
1656.55458,0.20992
1658.48305,0.19830
1660.41152,0.20313
1662.33998,0.21157
1664.26845,0.20935
1666.19692,0.20769
1668.12539,0.21640
1670.05386,0.22153
1671.98233,0.21511
1673.91080,0.21173
1675.83926,0.20687
1677.76773,0.20106
1679.69620,0.20571
1681.62467,0.22334
1683.55314,0.24428
1685.48161,0.23477
1687.41008,0.21470
1689.33855,0.20482
1691.26701,0.19900
1693.19548,0.20055
1695.12395,0.21532
1697.05242,0.23383
1698.98089,0.24111
1700.90936,0.23292
1702.83783,0.22059
1704.76629,0.21627
1706.69476,0.21012
1708.62323,0.20017
1710.55170,0.19640
1712.48017,0.20177
1714.40864,0.21591
1716.33711,0.22906
1718.26558,0.21796
1720.19404,0.19813
1722.12251,0.19054
1724.05098,0.18995
1725.97945,0.18970
1727.90792,0.19232
1729.83639,0.19940
1731.76486,0.21127
1733.69332,0.22251
1735.62179,0.21399
1737.55026,0.20388
1739.47873,0.20386
1741.40720,0.20458
1743.33567,0.20189
1745.26414,0.20233
1747.19261,0.21093
1749.12107,0.22014
1751.04954,0.21296
1752.97801,0.19823
1754.90648,0.19282
1756.83495,0.19377
1758.76342,0.19502
1760.69189,0.19671
1762.62035,0.19333
1764.54882,0.18738
1766.47729,0.19050
1768.40576,0.20134
1770.33423,0.21289
1772.26270,0.21626
1774.19117,0.20483
1776.11964,0.19315
1778.04810,0.18961
1779.97657,0.19225
1781.90504,0.19403
1783.83351,0.19228
1785.76198,0.19011
1787.69045,0.19192
1789.61892,0.20117
1791.54738,0.21092
1793.47585,0.20673
1795.40432,0.19541
1797.33279,0.19059
1799.26126,0.19364
1801.18973,0.19514
1803.11820,0.18873
1805.04666,0.18186
1806.97513,0.18123
1808.90360,0.18556
1810.83207,0.18756
1812.76054,0.18417
1814.68901,0.18087
1816.61748,0.17997
1818.54595,0.18012
1820.47441,0.18232
1822.40288,0.18823
1824.33135,0.19493
1826.25982,0.19879
1828.18829,0.20423
1830.11676,0.20730
1832.04523,0.19862
1833.97369,0.18872
1835.90216,0.18578
1837.83063,0.18575
1839.75910,0.18594
1841.68757,0.19126
1843.61604,0.20008
1845.54451,0.20016
1847.47298,0.19282
1849.40144,0.18641
1851.32991,0.18342
1853.25838,0.18387
1855.18685,0.18509
1857.11532,0.18568
1859.04379,0.18552
1860.97226,0.18410
1862.90072,0.18355
1864.82919,0.18813
1866.75766,0.19877
1868.68613,0.20499
1870.61460,0.19614
1872.54307,0.18618
1874.47154,0.18468
1876.40001,0.18610
1878.32847,0.18524
1880.25694,0.18335
1882.18541,0.18252
1884.11388,0.18249
1886.04235,0.18318
1887.97082,0.18561
1889.89929,0.18624
1891.82775,0.18333
1893.75622,0.18200
1895.68469,0.18210
1897.61316,0.18186
1899.54163,0.18248
1901.47010,0.18347
1903.39857,0.18526
1905.32704,0.18831
1907.25550,0.19044
1909.18397,0.18976
1911.11244,0.18656
1913.04091,0.18396
1914.96938,0.18532
1916.89785,0.18996
1918.82632,0.19253
1920.75478,0.19238
1922.68325,0.19246
1924.61172,0.18992
1926.54019,0.18466
1928.46866,0.18057
1930.39713,0.17870
1932.32560,0.17760
1934.25407,0.17718
1936.18253,0.17995
1938.11100,0.18493
1940.03947,0.18945
1941.96794,0.19144
1943.89641,0.18846
1945.82488,0.18506
1947.75335,0.18464
1949.68181,0.18450
1951.61028,0.18438
1953.53875,0.18602
1955.46722,0.18791
1957.39569,0.18717
1959.32416,0.18494
1961.25263,0.18370
1963.18110,0.18477
1965.10956,0.18883
1967.03803,0.19129
1968.96650,0.18856
1970.89497,0.18547
1972.82344,0.18511
1974.75191,0.18663
1976.68038,0.18897
1978.60884,0.18957
1980.53731,0.18753
1982.46578,0.18519
1984.39425,0.18376
1986.32272,0.18322
1988.25119,0.18456
1990.17966,0.18748
1992.10812,0.18795
1994.03659,0.18474
1995.96506,0.18205
1997.89353,0.18121
1999.82200,0.18060
2001.75047,0.18002
2003.67894,0.18019
2005.60741,0.18087
2007.53587,0.18116
2009.46434,0.18178
2011.39281,0.18298
2013.32128,0.18386
2015.24975,0.18484
2017.17822,0.18673
2019.10669,0.18831
2021.03515,0.18757
2022.96362,0.18584
2024.89209,0.18451
2026.82056,0.18355
2028.74903,0.18522
2030.67750,0.18906
2032.60597,0.19157
2034.53444,0.19110
2036.46290,0.18868
2038.39137,0.18721
2040.31984,0.18684
2042.24831,0.18597
2044.17678,0.18499
2046.10525,0.18465
2048.03372,0.18491
2049.96218,0.18574
2051.89065,0.18635
2053.81912,0.18637
2055.74759,0.18709
2057.67606,0.18815
2059.60453,0.18856
2061.53300,0.18861
2063.46147,0.18805
2065.38993,0.18609
2067.31840,0.18294
2069.24687,0.18097
2071.17534,0.18148
2073.10381,0.18256
2075.03228,0.18331
2076.96075,0.18512
2078.88921,0.18746
2080.81768,0.18800
2082.74615,0.18716
2084.67462,0.18668
2086.60309,0.18708
2088.53156,0.18821
2090.46003,0.18857
2092.38850,0.18751
2094.31696,0.18584
2096.24543,0.18413
2098.17390,0.18336
2100.10237,0.18338
2102.03084,0.18372
2103.95931,0.18447
2105.88778,0.18420
2107.81624,0.18323
2109.74471,0.18421
2111.67318,0.18666
2113.60165,0.18760
2115.53012,0.18709
2117.45859,0.18749
2119.38706,0.18892
2121.31553,0.18986
2123.24399,0.18914
2125.17246,0.18753
2127.10093,0.18702
2129.02940,0.18736
2130.95787,0.18780
2132.88634,0.18774
2134.81481,0.18561
2136.74327,0.18375
2138.67174,0.18560
2140.60021,0.18824
2142.52868,0.18814
2144.45715,0.18641
2146.38562,0.18562
2148.31409,0.18594
2150.24255,0.18557
2152.17102,0.18488
2154.09949,0.18475
2156.02796,0.18468
2157.95643,0.18497
2159.88490,0.18607
2161.81337,0.18747
2163.74184,0.18758
2165.67030,0.18607
2167.59877,0.18558
2169.52724,0.18722
2171.45571,0.18840
2173.38418,0.18849
2175.31265,0.18969
2177.24112,0.19157
2179.16958,0.19133
2181.09805,0.18870
2183.02652,0.18644
2184.95499,0.18566
2186.88346,0.18484
2188.81193,0.18374
2190.74040,0.18393
2192.66887,0.18551
2194.59733,0.18661
2196.52580,0.18605
2198.45427,0.18501
2200.38274,0.18611
2202.31121,0.18836
2204.23968,0.18828
2206.16815,0.18669
2208.09661,0.18548
2210.02508,0.18413
2211.95355,0.18322
2213.88202,0.18404
2215.81049,0.18543
2217.73896,0.18639
2219.66743,0.18743
2221.59590,0.18840
2223.52436,0.19006
2225.45283,0.19272
2227.38130,0.19423
2229.30977,0.19355
2231.23824,0.19105
2233.16671,0.18762
2235.09518,0.18602
2237.02364,0.18752
2238.95211,0.18970
2240.88058,0.19068
2242.80905,0.19046
2244.73752,0.18963
2246.66599,0.18997
2248.59446,0.19108
2250.52293,0.18994
2252.45139,0.18778
2254.37986,0.18771
2256.30833,0.18837
2258.23680,0.18830
2260.16527,0.18865
2262.09374,0.18947
2264.02221,0.18993
2265.95067,0.18950
2267.87914,0.18779
2269.80761,0.18654
2271.73608,0.18661
2273.66455,0.18623
2275.59302,0.18581
2277.52149,0.18645
2279.44996,0.18700
2281.37842,0.18720
2283.30689,0.18823
2285.23536,0.18964
2287.16383,0.18978
2289.09230,0.18817
2291.02077,0.18554
2292.94924,0.18285
2294.87770,0.18102
2296.80617,0.18153
2298.73464,0.18452
2300.66311,0.18748
2302.59158,0.18859
2304.52005,0.18820
2306.44852,0.18730
2308.37699,0.18727
2310.30545,0.18870
2312.23392,0.18966
2314.16239,0.18933
2316.09086,0.19109
2318.01933,0.19730
2319.94780,0.20244
2321.87627,0.20144
2323.80473,0.19938
2325.73320,0.19735
2327.66167,0.19400
2329.59014,0.19451
2331.51861,0.19773
2333.44708,0.19725
2335.37555,0.19409
2337.30401,0.19457
2339.23248,0.19700
2341.16095,0.19518
2343.08942,0.19332
2345.01789,0.19231
2346.94636,0.19037
2348.87483,0.19161
2350.80330,0.19617
2352.73176,0.20156
2354.66023,0.20114
2356.58870,0.19092
2358.51717,0.18822
2360.44564,0.20129
2362.37411,0.21032
2364.30258,0.21068
2366.23104,0.20953
2368.15951,0.20302
2370.08798,0.19730
2372.01645,0.19904
2373.94492,0.19819
2375.87339,0.19200
2377.80186,0.18823
2379.73033,0.18778
2381.65879,0.18713
2383.58726,0.18691
2385.51573,0.18822
2387.44420,0.18936
2389.37267,0.18909
2391.30114,0.18805
2393.22961,0.18829
2395.15807,0.19031
2397.08654,0.19168
2399.01501,0.19092
2400.94348,0.18870
2402.87195,0.18633
2404.80042,0.18577
2406.72889,0.18733
2408.65736,0.18819
2410.58582,0.18754
2412.51429,0.18718
2414.44276,0.18808
2416.37123,0.18967
2418.29970,0.18954
2420.22817,0.18759
2422.15664,0.18712
2424.08510,0.18886
2426.01357,0.19020
2427.94204,0.18985
2429.87051,0.18847
2431.79898,0.18722
2433.72745,0.18673
2435.65592,0.18576
2437.58439,0.18474
2439.51285,0.18570
2441.44132,0.18726
2443.36979,0.18742
2445.29826,0.18815
2447.22673,0.19108
2449.15520,0.19359
2451.08367,0.19370
2453.01213,0.19295
2454.94060,0.19247
2456.86907,0.19108
2458.79754,0.18804
2460.72601,0.18532
2462.65448,0.18478
2464.58295,0.18625
2466.51142,0.18914
2468.43988,0.19141
2470.36835,0.19185
2472.29682,0.19229
2474.22529,0.19286
2476.15376,0.19251
2478.08223,0.19160
2480.01070,0.19088
2481.93916,0.19141
2483.86763,0.19283
2485.79610,0.19311
2487.72457,0.19220
2489.65304,0.19307
2491.58151,0.19619
2493.50998,0.19732
2495.43844,0.19458
2497.36691,0.19174
2499.29538,0.19131
2501.22385,0.19117
2503.15232,0.19063
2505.08079,0.19045
2507.00926,0.19004
2508.93773,0.19024
2510.86619,0.19069
2512.79466,0.18908
2514.72313,0.18703
2516.65160,0.18722
2518.58007,0.18932
2520.50854,0.19252
2522.43701,0.19433
2524.36547,0.19267
2526.29394,0.19137
2528.22241,0.19340
2530.15088,0.19505
2532.07935,0.19415
2534.00782,0.19359
2535.93629,0.19406
2537.86476,0.19387
2539.79322,0.19307
2541.72169,0.19215
2543.65016,0.19137
2545.57863,0.19152
2547.50710,0.19264
2549.43557,0.19407
2551.36404,0.19614
2553.29250,0.19752
2555.22097,0.19557
2557.14944,0.19189
2559.07791,0.19002
2561.00638,0.19077
2562.93485,0.19275
2564.86332,0.19345
2566.79179,0.19148
2568.72025,0.18949
2570.64872,0.18993
2572.57719,0.19043
2574.50566,0.19049
2576.43413,0.19225
2578.36260,0.19404
2580.29107,0.19407
2582.21953,0.19313
2584.14800,0.19214
2586.07647,0.19227
2588.00494,0.19333
2589.93341,0.19311
2591.86188,0.19075
2593.79035,0.18882
2595.71882,0.18946
2597.64728,0.19054
2599.57575,0.19031
2601.50422,0.19052
2603.43269,0.19113
2605.36116,0.19117
2607.28963,0.19301
2609.21810,0.19662
2611.14656,0.19787
2613.07503,0.19486
2615.00350,0.19010
2616.93197,0.18844
2618.86044,0.19137
2620.78891,0.19491
2622.71738,0.19577
2624.64585,0.19463
2626.57431,0.19350
2628.50278,0.19365
2630.43125,0.19492
2632.35972,0.19604
2634.28819,0.19700
2636.21666,0.19779
2638.14513,0.19755
2640.07359,0.19628
2642.00206,0.19573
2643.93053,0.19717
2645.85900,0.19748
2647.78747,0.19567
2649.71594,0.19525
2651.64441,0.19602
2653.57288,0.19574
2655.50134,0.19538
2657.42981,0.19627
2659.35828,0.19708
2661.28675,0.19683
2663.21522,0.19637
2665.14369,0.19595
2667.07216,0.19528
2669.00062,0.19437
2670.92909,0.19388
2672.85756,0.19456
2674.78603,0.19545
2676.71450,0.19575
2678.64297,0.19704
2680.57144,0.19901
2682.49990,0.19924
2684.42837,0.19759
2686.35684,0.19650
2688.28531,0.19697
2690.21378,0.19743
2692.14225,0.19752
2694.07072,0.19781
2695.99919,0.19812
2697.92765,0.19759
2699.85612,0.19609
2701.78459,0.19451
2703.71306,0.19351
2705.64153,0.19439
2707.57000,0.19633
2709.49847,0.19676
2711.42693,0.19712
2713.35540,0.19921
2715.28387,0.20049
2717.21234,0.20021
2719.14081,0.20059
2721.06928,0.20059
2722.99775,0.19923
2724.92622,0.19859
2726.85468,0.19952
2728.78315,0.20044
2730.71162,0.19954
2732.64009,0.19813
2734.56856,0.19824
2736.49703,0.19862
2738.42550,0.19874
2740.35396,0.19990
2742.28243,0.20160
2744.21090,0.20237
2746.13937,0.20215
2748.06784,0.20300
2749.99631,0.20483
2751.92478,0.20363
2753.85325,0.20020
2755.78171,0.19973
2757.71018,0.20200
2759.63865,0.20331
2761.56712,0.20269
2763.49559,0.20224
2765.42406,0.20270
2767.35253,0.20214
2769.28099,0.20266
2771.20946,0.20613
2773.13793,0.20753
2775.06640,0.20541
2776.99487,0.20355
2778.92334,0.20237
2780.85181,0.20169
2782.78028,0.20286
2784.70874,0.20496
2786.63721,0.20530
2788.56568,0.20342
2790.49415,0.20081
2792.42262,0.19917
2794.35109,0.19982
2796.27956,0.20122
2798.20802,0.20252
2800.13649,0.20551
2802.06496,0.20885
2803.99343,0.20984
2805.92190,0.20868
2807.85037,0.20689
2809.77884,0.20587
2811.70731,0.20597
2813.63577,0.20719
2815.56424,0.20838
2817.49271,0.20638
2819.42118,0.20197
2821.34965,0.20032
2823.27812,0.20167
2825.20659,0.20310
2827.13505,0.20510
2829.06352,0.20779
2830.99199,0.20989
2832.92046,0.21083
2834.84893,0.20914
2836.77740,0.20590
2838.70587,0.20529
2840.63433,0.20690
2842.56280,0.20724
2844.49127,0.20727
2846.41974,0.20787
2848.34821,0.20676
2850.27668,0.20422
2852.20515,0.20276
2854.13362,0.20347
2856.06208,0.20544
2857.99055,0.20747
2859.91902,0.20997
2861.84749,0.21284
2863.77596,0.21359
2865.70443,0.21025
2867.63290,0.20696
2869.56136,0.20790
2871.48983,0.20909
2873.41830,0.20850
2875.34677,0.20978
2877.27524,0.21207
2879.20371,0.21152
2881.13218,0.20952
2883.06065,0.20966
2884.98911,0.21055
2886.91758,0.20909
2888.84605,0.20671
2890.77452,0.20692
2892.70299,0.20886
2894.63146,0.20815
2896.55993,0.20483
2898.48839,0.20337
2900.41686,0.20373
2902.34533,0.20320
2904.27380,0.20222
2906.20227,0.20210
2908.13074,0.20384
2910.05921,0.20698
2911.98768,0.20933
2913.91614,0.20901
2915.84461,0.20530
2917.77308,0.20107
2919.70155,0.20109
2921.63002,0.20559
2923.55849,0.20847
2925.48696,0.20547
2927.41542,0.20205
2929.34389,0.20246
2931.27236,0.20311
2933.20083,0.20337
2935.12930,0.20428
2937.05777,0.20477
2938.98624,0.20608
2940.91471,0.20821
2942.84317,0.20974
2944.77164,0.21011
2946.70011,0.20822
2948.62858,0.20538
2950.55705,0.20409
2952.48552,0.20266
2954.41399,0.19946
2956.34245,0.19679
2958.27092,0.19669
2960.19939,0.20029
2962.12786,0.20548
2964.05633,0.20653
2965.98480,0.20379
2967.91327,0.20339
2969.84174,0.20696
2971.77020,0.21055
2973.69867,0.21100
2975.62714,0.20900
2977.55561,0.20712
2979.48408,0.20752
2981.41255,0.20953
2983.34102,0.21050
2985.26948,0.21078
2987.19795,0.21047
2989.12642,0.20876
2991.05489,0.20972
2992.98336,0.21427
2994.91183,0.21689
2996.84030,0.21537
2998.76877,0.21283
3000.69723,0.21318
3002.62570,0.21647
3004.55417,0.21718
3006.48264,0.21273
3008.41111,0.20924
3010.33958,0.20955
3012.26805,0.20844
3014.19651,0.20080
3016.12498,0.19000
3018.05345,0.18907
3019.98192,0.20025
3021.91039,0.21038
3023.83886,0.21279
3025.76733,0.20971
3027.69579,0.20649
3029.62426,0.20794
3031.55273,0.21182
3033.48120,0.21344
3035.40967,0.21249
3037.33814,0.21115
3039.26661,0.21011
3041.19508,0.20823
3043.12354,0.20735
3045.05201,0.20851
3046.98048,0.20803
3048.90895,0.20589
3050.83742,0.20556
3052.76589,0.20813
3054.69436,0.21059
3056.62282,0.20980
3058.55129,0.20889
3060.47976,0.20974
3062.40823,0.21000
3064.33670,0.20920
3066.26517,0.20887
3068.19364,0.21122
3070.12211,0.21378
3072.05057,0.21245
3073.97904,0.20849
3075.90751,0.20576
3077.83598,0.20780
3079.76445,0.21257
3081.69292,0.21379
3083.62139,0.21057
3085.54985,0.20763
3087.47832,0.20651
3089.40679,0.20483
3091.33526,0.20452
3093.26373,0.20545
3095.19220,0.20469
3097.12067,0.20499
3099.04914,0.20769
3100.97760,0.21076
3102.90607,0.21203
3104.83454,0.21162
3106.76301,0.21262
3108.69148,0.21528
3110.61995,0.21636
3112.54842,0.21528
3114.47688,0.21561
3116.40535,0.21731
3118.33382,0.21593
3120.26229,0.21114
3122.19076,0.20802
3124.11923,0.20962
3126.04770,0.21314
3127.97617,0.21404
3129.90463,0.21383
3131.83310,0.21703
3133.76157,0.21968
3135.69004,0.21783
3137.61851,0.21322
3139.54698,0.20928
3141.47545,0.21205
3143.40391,0.21954
3145.33238,0.22373
3147.26085,0.22197
3149.18932,0.21561
3151.11779,0.21069
3153.04626,0.21284
3154.97473,0.21712
3156.90320,0.21708
3158.83166,0.21506
3160.76013,0.21542
3162.68860,0.21862
3164.61707,0.22099
3166.54554,0.22118
3168.47401,0.22182
3170.40248,0.22255
3172.33094,0.22093
3174.25941,0.21668
3176.18788,0.21413
3178.11635,0.21651
3180.04482,0.22038
3181.97329,0.22097
3183.90176,0.21864
3185.83022,0.21676
3187.75869,0.21398
3189.68716,0.20918
3191.61563,0.20726
3193.54410,0.21107
3195.47257,0.21702
3197.40104,0.21939
3199.32951,0.21827
3201.25797,0.21813
3203.18644,0.21736
3205.11491,0.21428
3207.04338,0.21275
3208.97185,0.21246
3210.90032,0.21182
3212.82879,0.21338
3214.75725,0.21571
3216.68572,0.21607
3218.61419,0.21712
3220.54266,0.21813
3222.47113,0.21682
3224.39960,0.21533
3226.32807,0.21439
3228.25654,0.21473
3230.18500,0.21551
3232.11347,0.21535
3234.04194,0.21599
3235.97041,0.21660
3237.89888,0.21699
3239.82735,0.21764
3241.75582,0.21713
3243.68428,0.21622
3245.61275,0.21525
3247.54122,0.21362
3249.46969,0.21306
3251.39816,0.21480
3253.32663,0.21514
3255.25510,0.21235
3257.18357,0.21121
3259.11203,0.21311
3261.04050,0.21392
3262.96897,0.21194
3264.89744,0.20945
3266.82591,0.20825
3268.75438,0.20916
3270.68285,0.21230
3272.61131,0.21632
3274.53978,0.22002
3276.46825,0.22023
3278.39672,0.21591
3280.32519,0.21151
3282.25366,0.20918
3284.18213,0.20926
3286.11060,0.21142
3288.03906,0.21265
3289.96753,0.21345
3291.89600,0.21627
3293.82447,0.21825
3295.75294,0.21627
3297.68141,0.21178
3299.60988,0.20784
3301.53834,0.20718
3303.46681,0.20852
3305.39528,0.20897
3307.32375,0.21109
3309.25222,0.21426
3311.18069,0.21287
3313.10916,0.20955
3315.03763,0.20963
3316.96609,0.21230
3318.89456,0.21574
3320.82303,0.21832
3322.75150,0.21934
3324.67997,0.21912
3326.60844,0.21669
3328.53691,0.21338
3330.46537,0.21174
3332.39384,0.21254
3334.32231,0.21626
3336.25078,0.21976
3338.17925,0.22046
3340.10772,0.22207
3342.03619,0.22361
3343.96466,0.21970
3345.89312,0.21454
3347.82159,0.21605
3349.75006,0.22096
3351.67853,0.22130
3353.60700,0.21777
3355.53547,0.21463
3357.46394,0.21301
3359.39240,0.21473
3361.32087,0.21872
3363.24934,0.21992
3365.17781,0.21945
3367.10628,0.22120
3369.03475,0.22392
3370.96322,0.22500
3372.89168,0.22307
3374.82015,0.21943
3376.74862,0.21836
3378.67709,0.22083
3380.60556,0.22275
3382.53403,0.22279
3384.46250,0.22124
3386.39097,0.21732
3388.31943,0.21368
3390.24790,0.21268
3392.17637,0.21515
3394.10484,0.22110
3396.03331,0.22509
3397.96178,0.22212
3399.89025,0.21742
3401.81871,0.21675
3403.74718,0.21626
3405.67565,0.21399
3407.60412,0.21314
3409.53259,0.21365
3411.46106,0.21397
3413.38953,0.21356
3415.31800,0.21313
3417.24646,0.21509
3419.17493,0.21679
3421.10340,0.21393
3423.03187,0.21098
3424.96034,0.20940
3426.88881,0.20731
3428.81728,0.20860
3430.74574,0.21270
3432.67421,0.21355
3434.60268,0.21091
3436.53115,0.20916
3438.45962,0.20851
3440.38809,0.20844
3442.31656,0.21077
3444.24503,0.21377
3446.17349,0.21545
3448.10196,0.21504
3450.03043,0.21102
3451.95890,0.20527
3453.88737,0.20164
3455.81584,0.20172
3457.74431,0.20263
3459.67277,0.20222
3461.60124,0.20168
3463.52971,0.20156
3465.45818,0.20339
3467.38665,0.20492
3469.31512,0.20269
3471.24359,0.20168
3473.17206,0.20279
3475.10052,0.20060
3477.02899,0.19507
3478.95746,0.19183
3480.88593,0.19416
3482.81440,0.19605
3484.74287,0.19428
3486.67134,0.19225
3488.59980,0.18945
3490.52827,0.18664
3492.45674,0.18800
3494.38521,0.19371
3496.31368,0.19822
3498.24215,0.19817
3500.17062,0.19711
3502.09909,0.19792
3504.02755,0.19727
3505.95602,0.19344
3507.88449,0.19143
3509.81296,0.19135
3511.74143,0.18780
3513.66990,0.18270
3515.59837,0.18169
3517.52683,0.18374
3519.45530,0.18495
3521.38377,0.18498
3523.31224,0.18347
3525.24071,0.18137
3527.16918,0.18214
3529.09765,0.18396
3531.02611,0.18291
3532.95458,0.17966
3534.88305,0.17650
3536.81152,0.17407
3538.73999,0.17071
3540.66846,0.16685
3542.59693,0.16876
3544.52540,0.17806
3546.45386,0.18316
3548.38233,0.17927
3550.31080,0.17661
3552.23927,0.17760
3554.16774,0.17497
3556.09621,0.16963
3558.02468,0.16979
3559.95314,0.17404
3561.88161,0.17574
3563.81008,0.17882
3565.73855,0.18930
3567.66702,0.19433
3569.59549,0.18275
3571.52396,0.16963
3573.45243,0.16207
3575.38089,0.16024
3577.30936,0.16309
3579.23783,0.16509
3581.16630,0.16316
3583.09477,0.16248
3585.02324,0.16885
3586.95171,0.17840
3588.88017,0.17778
3590.80864,0.17156
3592.73711,0.17022
3594.66558,0.16941
3596.59405,0.16400
3598.52252,0.16149
3600.45099,0.16423
3602.37946,0.16410
3604.30792,0.16166
3606.23639,0.16450
3608.16486,0.17104
3610.09333,0.17245
3612.02180,0.17162
3613.95027,0.17577
3615.87874,0.18208
3617.80720,0.18396
3619.73567,0.17701
3621.66414,0.16418
3623.59261,0.15479
3625.52108,0.15413
3627.44955,0.16254
3629.37802,0.16763
3631.30649,0.16056
3633.23495,0.15387
3635.16342,0.14916
3637.09189,0.14631
3639.02036,0.14588
3640.94883,0.14638
3642.87730,0.14940
3644.80577,0.15933
3646.73423,0.17802
3648.66270,0.19287
3650.59117,0.17717
3652.51964,0.15480
3654.44811,0.14683
3656.37658,0.14772
3658.30505,0.14754
3660.23352,0.14539
3662.16198,0.14281
3664.09045,0.13919
3666.01892,0.13916
3667.94739,0.15009
3669.87586,0.16455
3671.80433,0.16458
3673.73280,0.16494
3675.66126,0.16719
3677.58973,0.15406
3679.51820,0.14073
3681.44667,0.13795
3683.37514,0.14224
3685.30361,0.14827
3687.23208,0.15695
3689.16055,0.16597
3691.08901,0.16000
3693.01748,0.14553
3694.94595,0.13779
3696.87442,0.13722
3698.80289,0.14084
3700.73136,0.14494
3702.65983,0.14225
3704.58829,0.13693
3706.51676,0.13866
3708.44523,0.14947
3710.37370,0.16467
3712.30217,0.16361
3714.23064,0.14630
3716.15911,0.13613
3718.08757,0.13779
3720.01604,0.14331
3721.94451,0.14587
3723.87298,0.14897
3725.80145,0.15079
3727.72992,0.14688
3729.65839,0.14937
3731.58686,0.16596
3733.51532,0.18414
3735.44379,0.18488
3737.37226,0.17030
3739.30073,0.15733
3741.22920,0.15396
3743.15767,0.16107
3745.08614,0.16887
3747.01460,0.16980
3748.94307,0.17750
3750.87154,0.18257
3752.80001,0.16639
3754.72848,0.15162
3756.65695,0.14627
3758.58542,0.14308
3760.51389,0.13596
3762.44235,0.13095
3764.37082,0.13271
3766.29929,0.13669
3768.22776,0.13663
3770.15623,0.12987
3772.08470,0.12278
3774.01317,0.12385
3775.94163,0.13193
3777.87010,0.14029
3779.79857,0.13980
3781.72704,0.13222
3783.65551,0.12793
3785.58398,0.12703
3787.51245,0.12713
3789.44092,0.12855
3791.36938,0.12941
3793.29785,0.13399
3795.22632,0.14436
3797.15479,0.14750
3799.08326,0.14550
3801.01173,0.15040
3802.94020,0.14865
3804.86866,0.14110
3806.79713,0.13646
3808.72560,0.13046
3810.65407,0.12606
3812.58254,0.12801
3814.51101,0.13660
3816.43948,0.14483
3818.36795,0.14984
3820.29641,0.15649
3822.22488,0.15101
3824.15335,0.13951
3826.08182,0.13487
3828.01029,0.13394
3829.93876,0.13725
3831.86723,0.14255
3833.79569,0.14493
3835.72416,0.14901
3837.65263,0.15713
3839.58110,0.15779
3841.50957,0.15150
3843.43804,0.14592
3845.36651,0.13940
3847.29498,0.13530
3849.22344,0.13887
3851.15191,0.15174
3853.08038,0.16533
3855.00885,0.15195
3856.93732,0.13291
3858.86579,0.12526
3860.79426,0.13006
3862.72272,0.14423
3864.65119,0.15138
3866.57966,0.14678
3868.50813,0.14450
3870.43660,0.14461
3872.36507,0.14028
3874.29354,0.13253
3876.22200,0.12705
3878.15047,0.13017
3880.07894,0.13646
3882.00741,0.13763
3883.93588,0.14052
3885.86435,0.14231
3887.79282,0.13719
3889.72129,0.13429
3891.64975,0.13153
3893.57822,0.12341
3895.50669,0.12020
3897.43516,0.12692
3899.36363,0.13491
3901.29210,0.13387
3903.22057,0.12740
3905.14903,0.11938
3907.07750,0.11367
3909.00597,0.11259
3910.93444,0.11295
3912.86291,0.11374
3914.79138,0.11638
3916.71985,0.11986
3918.64832,0.12043
3920.57678,0.11703
3922.50525,0.11561
3924.43372,0.11837
3926.36219,0.12176
3928.29066,0.12513
3930.21913,0.12554
3932.14760,0.12105
3934.07606,0.11761
3936.00453,0.11616
3937.93300,0.11320
3939.86147,0.11080
3941.78994,0.11144
3943.71841,0.11048
3945.64688,0.10688
3947.57535,0.10630
3949.50381,0.10855
3951.43228,0.10996
3953.36075,0.11070
3955.28922,0.11159
3957.21769,0.11268
3959.14616,0.11622
3961.07463,0.12096
3963.00309,0.12139
3964.93156,0.11792
3966.86003,0.11344
3968.78850,0.11004
3970.71697,0.11106
3972.64544,0.11363
3974.57391,0.11174
3976.50238,0.10691
3978.43084,0.10410
3980.35931,0.10279
3982.28778,0.10208
3984.21625,0.10422
3986.14472,0.10701
3988.07319,0.10646
3990.00166,0.10437
3991.93012,0.10540
3993.85859,0.10946
3995.78706,0.11129
3997.71553,0.10941
3999.64400,0.10696
4001.57247,0.10561
4003.50094,0.10549
4005.42941,0.10510
4007.35787,0.10295
4009.28634,0.10047
4011.21481,0.09950
4013.14328,0.09968
4015.07175,0.10244
4017.00022,0.10808
4018.92869,0.11031
4020.85715,0.10518
4022.78562,0.09791
4024.71409,0.09467
4026.64256,0.09628
4028.57103,0.10028
4030.49950,0.10260
4032.42797,0.10125
4034.35644,0.09897
4036.28490,0.09812
4038.21337,0.09886
4040.14184,0.09950
4042.07031,0.09896
4043.99878,0.09804
4045.92725,0.09707
4047.85572,0.09634
4049.78418,0.09590
4051.71265,0.09719
4053.64112,0.09981
4055.56959,0.09947
4057.49806,0.09626
4059.42653,0.09372
4061.35500,0.09353
4063.28346,0.09595
4065.21193,0.09762
4067.14040,0.09446
4069.06887,0.08955
4070.99734,0.08881
4072.92581,0.09010
4074.85428,0.08803
4076.78275,0.08496
4078.71121,0.08401
4080.63968,0.08254
4082.56815,0.08098
4084.49662,0.08365
4086.42509,0.08964
4088.35356,0.09267
4090.28203,0.09174
4092.21049,0.09242
4094.13896,0.09737
4096.06743,0.10158
4097.99590,0.09788
4099.92437,0.08865
4101.85284,0.08482
4103.78131,0.09034
4105.70978,0.09457
4107.63824,0.09153
4109.56671,0.08968
4111.49518,0.09119
4113.42365,0.09156
4115.35212,0.08927
4117.28059,0.08454
4119.20906,0.08230
4121.13752,0.08506
4123.06599,0.08745
4124.99446,0.08650
4126.92293,0.08581
4128.85140,0.08830
4130.77987,0.09071
4132.70834,0.08808
4134.63681,0.08302
4136.56527,0.08148
4138.49374,0.08165
4140.42221,0.08077
4142.35068,0.08059
4144.27915,0.08150
4146.20762,0.08151
4148.13609,0.07817
4150.06455,0.07459
4151.99302,0.07736
4153.92149,0.08419
4155.84996,0.08657
4157.77843,0.08426
4159.70690,0.08290
4161.63537,0.08152
4163.56384,0.07853
4165.49230,0.07748
4167.42077,0.07970
4169.34924,0.08385
4171.27771,0.08629
4173.20618,0.08282
4175.13465,0.07604
4177.06312,0.07359
4178.99158,0.07748
4180.92005,0.08057
4182.84852,0.07917
4184.77699,0.07720
4186.70546,0.07543
4188.63393,0.07362
4190.56240,0.07372
4192.49087,0.07495
4194.41933,0.07458
4196.34780,0.07111
4198.27627,0.06780
4200.20474,0.06960
4202.13321,0.07510
4204.06168,0.07983
4205.99015,0.08143
4207.91861,0.07984
4209.84708,0.07624
4211.77555,0.07197
4213.70402,0.07015
4215.63249,0.06939
4217.56096,0.06693
4219.48943,0.06771
4221.41789,0.07138
4223.34636,0.07377
4225.27483,0.07642
4227.20330,0.07831
4229.13177,0.07742
4231.06024,0.07415
4232.98871,0.06951
4234.91718,0.06626
4236.84564,0.06697
4238.77411,0.06916
4240.70258,0.06839
4242.63105,0.06721
4244.55952,0.06954
4246.48799,0.07135
4248.41646,0.06960
4250.34492,0.06835
4252.27339,0.06835
4254.20186,0.06675
4256.13033,0.06515
4258.05880,0.06524
4259.98727,0.06570
4261.91574,0.06611
4263.84421,0.06530
4265.77267,0.06274
4267.70114,0.06046
4269.62961,0.05895
4271.55808,0.05786
4273.48655,0.05737
4275.41502,0.05547
4277.34349,0.05172
4279.27195,0.05026
4281.20042,0.05019
4283.12889,0.04771
4285.05736,0.04746
4286.98583,0.05095
4288.91430,0.05356
4290.84277,0.05609
4292.77124,0.05894
4294.69970,0.05959
4296.62817,0.05732
4298.55664,0.05405
4300.48511,0.05268
4302.41358,0.05009
4304.34205,0.04596
4306.27052,0.04684
4308.19898,0.04777
4310.12745,0.04526
4312.05592,0.04572
4313.98439,0.04442
4315.91286,0.04179
4317.84133,0.04763
4319.76980,0.05740
4321.69827,0.06301
4323.62673,0.06223
4325.55520,0.05564
4327.48367,0.04943
4329.41214,0.04536
4331.34061,0.04287
4333.26908,0.04433
4335.19755,0.04560
4337.12601,0.04496
4339.05448,0.04645
4340.98295,0.04449
4342.91142,0.03637
4344.83989,0.03388
4346.76836,0.04015
4348.69683,0.04359
4350.62530,0.03850
4352.55376,0.03198
4354.48223,0.03141
4356.41070,0.03459
4358.33917,0.03760
4360.26764,0.04186
4362.19611,0.04688
4364.12458,0.04679
4366.05304,0.04216
4367.98151,0.04049
4369.90998,0.04183
4371.83845,0.04203
4373.76692,0.04016
4375.69539,0.03655
4377.62386,0.03397
4379.55232,0.03326
4381.48079,0.03077
4383.40926,0.02907
4385.33773,0.03309
4387.26620,0.03729
4389.19467,0.03826
4391.12314,0.03882
4393.05161,0.03761
4394.98007,0.03697
4396.90854,0.03807
4398.83701,0.03572
4400.76548,0.03155
4402.69395,0.02864
4404.62242,0.02719
4406.55089,0.02915
4408.47935,0.03151
4410.40782,0.02907
4412.33629,0.02320
4414.26476,0.01853
4416.19323,0.01641
4418.12170,0.01692
4420.05017,0.02022
4421.97864,0.02422
4423.90710,0.02809
4425.83557,0.02988
4427.76404,0.02434
4429.69251,0.01567
4431.62098,0.01473
4433.54945,0.01986
4435.47792,0.02310
4437.40638,0.02241
4439.33485,0.01873
4441.26332,0.01585
4443.19179,0.01734
4445.12026,0.02094
4447.04873,0.02120
4448.97720,0.01754
4450.90567,0.01339
4452.83413,0.01085
4454.76260,0.01097
4456.69107,0.01346
4458.61954,0.01866
4460.54801,0.02361
4462.47648,0.02315
4464.40495,0.02134
4466.33341,0.02311
4468.26188,0.02504
4470.19035,0.02469
4472.11882,0.02376
4474.04729,0.02180
4475.97576,0.01945
4477.90423,0.01783
4479.83270,0.01448
4481.76116,0.01429
4483.68963,0.02146
4485.61810,0.02574
4487.54657,0.02179
4489.47504,0.01768
4491.40351,0.01667
4493.33198,0.01719
4495.26044,0.01866
4497.18891,0.01895
4499.11738,0.02143
4501.04585,0.02520
4502.97432,0.02082
4504.90279,0.01417
4506.83126,0.01744
4508.75973,0.02136
4510.68819,0.01414
4512.61666,0.00812
4514.54513,0.01250
4516.47360,0.01670
4518.40207,0.01546
4520.33054,0.01300
4522.25901,0.01224
4524.18747,0.01144
4526.11594,0.00965
4528.04441,0.01022
4529.97288,0.01210
4531.90135,0.01064
4533.82982,0.00782
4535.75829,0.00590
4537.68676,0.00120
4539.61522,-0.00249
4541.54369,0.00006
4543.47216,0.00359
4545.40063,0.00624
4547.32910,0.00956
4549.25757,0.00967
4551.18604,0.00626
4553.11450,0.00245
4555.04297,-0.00204
4556.97144,-0.00402
4558.89991,-0.00069
4560.82838,0.00435
4562.75685,0.01011
4564.68532,0.01741
4566.61378,0.02313
4568.54225,0.02339
4570.47072,0.01990
4572.39919,0.01632
4574.32766,0.01312
4576.25613,0.01157
4578.18460,0.01076
4580.11307,0.00717
4582.04153,0.00421
4583.97000,0.00613
4585.89847,0.00659
4587.82694,0.00027
4589.75541,-0.00563
4591.68388,-0.00375
4593.61235,0.00053
4595.54081,-0.00115
4597.46928,-0.00875
4599.39775,-0.01501
4601.32622,-0.01422
4603.25469,-0.01159
4605.18316,-0.01085
4607.11163,-0.00623
4609.04010,0.00269
4610.96856,0.00689
4612.89703,0.00336
4614.82550,-0.00108
4616.75397,-0.00452
4618.68244,-0.00767
4620.61091,-0.00731
4622.53938,-0.00223
4624.46784,0.00363
4626.39631,0.00647
4628.32478,0.00917
4630.25325,0.01402
4632.18172,0.01284
4634.11019,0.00342
4636.03866,-0.00269
4637.96713,-0.00260
4639.89559,-0.00355
4641.82406,-0.00618
4643.75253,-0.00610
4645.68100,-0.00198
4647.60947,0.00295
4649.53794,0.00604
4651.46641,0.00609
4653.39487,0.00443
4655.32334,0.00071
4657.25181,-0.00424
4659.18028,0.00001
4661.10875,0.01220
4663.03722,0.01770
4664.96569,0.01429
4666.89416,0.01179
4668.82262,0.01153
4670.75109,0.01034
4672.67956,0.00578
4674.60803,-0.00004
4676.53650,0.00059
4678.46497,0.00375
4680.39344,0.00414
4682.32190,0.00231
4684.25037,-0.00359
4686.17884,-0.00833
4688.10731,-0.00664
4690.03578,-0.00419
4691.96425,-0.00777
4693.89272,-0.01279
4695.82119,-0.01205
4697.74965,-0.00648
4699.67812,-0.00028
4701.60659,0.00226
4703.53506,-0.00119
4705.46353,-0.00372
4707.39200,0.00465
4709.32047,0.01422
4711.24893,0.01101
4713.17740,0.00420
4715.10587,0.00509
4717.03434,0.00668
4718.96281,0.00407
4720.89128,0.00379
4722.81975,0.00146
4724.74821,-0.00878
4726.67668,-0.01753
4728.60515,-0.01736
4730.53362,-0.01056
4732.46209,-0.00295
4734.39056,0.00379
4736.31903,0.00898
4738.24750,0.00813
4740.17596,0.00340
4742.10443,-0.00077
4744.03290,-0.00498
4745.96137,-0.00462
4747.88984,0.00138
4749.81831,0.00426
4751.74678,0.00317
4753.67524,0.00309
4755.60371,0.00507
4757.53218,0.00925
4759.46065,0.01239
4761.38912,0.01278
4763.31759,0.01521
4765.24606,0.01704
4767.17453,0.01202
4769.10299,0.00575
4771.03146,0.00552
4772.95993,0.00920
4774.88840,0.00796
4776.81687,0.00220
4778.74534,-0.00010
4780.67381,-0.00112
4782.60227,-0.00332
4784.53074,-0.00285
4786.45921,-0.00025
4788.38768,0.00189
4790.31615,0.00383
4792.24462,0.00461
4794.17309,0.00381
4796.10156,0.00431
4798.03002,0.00396
4799.95849,-0.00079
4801.88696,-0.00643
4803.81543,-0.01015
4805.74390,-0.00999
4807.67237,-0.00409
4809.60084,0.00318
4811.52930,0.00435
4813.45777,-0.00258
4815.38624,-0.00371
4817.31471,0.00994
4819.24318,0.02069
4821.17165,0.01812
4823.10012,0.01123
4825.02859,0.00595
4826.95705,0.00508
4828.88552,0.01093
4830.81399,0.01661
4832.74246,0.01462
4834.67093,0.00540
4836.59940,-0.00621
4838.52787,-0.00988
4840.45633,-0.00256
4842.38480,0.00379
4844.31327,0.00390
4846.24174,0.00527
4848.17021,0.01004
4850.09868,0.01296
4852.02715,0.01341
4853.95562,0.01502
4855.88408,0.01383
4857.81255,0.00639
4859.74102,0.00647
4861.66949,0.01647
4863.59796,0.02048
4865.52643,0.02133
4867.45490,0.02355
4869.38336,0.01913
4871.31183,0.01334
4873.24030,0.01289
4875.16877,0.00887
4877.09724,-0.00018
4879.02571,-0.00517
4880.95418,-0.00485
4882.88265,-0.00441
4884.81111,-0.00580
4886.73958,-0.00692
4888.66805,-0.00674
4890.59652,-0.00311
4892.52499,0.00418
4894.45346,0.01078
4896.38193,0.01351
4898.31039,0.00856
4900.23886,-0.00072
4902.16733,-0.00643
4904.09580,-0.01008
4906.02427,-0.01322
4907.95274,-0.00920
4909.88121,0.00147
4911.80967,0.00683
4913.73814,0.00330
4915.66661,-0.00308
4917.59508,-0.00765
4919.52355,-0.00457
4921.45202,0.00078
4923.38049,0.00030
4925.30896,0.00161
4927.23742,0.00478
4929.16589,0.00493
4931.09436,0.01068
4933.02283,0.02067
4934.95130,0.02384
4936.87977,0.02081
4938.80824,0.01552
4940.73670,0.00908
4942.66517,0.00398
4944.59364,0.00265
4946.52211,0.00608
4948.45058,0.01006
4950.37905,0.00856
4952.30752,0.00252
4954.23599,-0.00555
4956.16445,-0.00824
4958.09292,0.00100
4960.02139,0.00892
4961.94986,0.00878
4963.87833,0.01016
4965.80680,0.01045
4967.73527,0.00800
4969.66373,0.00627
4971.59220,0.00099
4973.52067,-0.00210
4975.44914,0.00115
4977.37761,-0.00028
4979.30608,-0.00299
4981.23455,-0.00130
4983.16302,-0.00690
4985.09148,-0.01578
4987.01995,-0.00952
4988.94842,0.01124
4990.87689,0.02828
4992.80536,0.02818
4994.73383,0.01947
4996.66230,0.01696
4998.59076,0.01720
5000.51923,0.01458
5002.44770,0.01317
5004.37617,0.01462
5006.30464,0.01233
5008.23311,0.00447
5010.16158,-0.00190
5012.09005,-0.00488
5014.01851,-0.00713
5015.94698,-0.00502
5017.87545,0.00437
5019.80392,0.01251
5021.73239,0.01313
5023.66086,0.01004
5025.58933,0.00734
5027.51779,0.00639
5029.44626,0.00751
5031.37473,0.01639
5033.30320,0.03011
5035.23167,0.03362
5037.16014,0.02773
5039.08861,0.02211
5041.01708,0.01532
5042.94554,0.00832
5044.87401,0.01271
5046.80248,0.02773
5048.73095,0.03873
5050.65942,0.04016
5052.58789,0.03174
5054.51636,0.02110
5056.44482,0.01443
5058.37329,0.00748
5060.30176,0.00760
5062.23023,0.01321
5064.15870,0.00930
5066.08717,-0.00079
5068.01564,-0.00411
5069.94410,0.00335
5071.87257,0.01156
5073.80104,0.01011
5075.72951,-0.00284
5077.65798,-0.01895
5079.58645,-0.02137
5081.51492,-0.00902
5083.44339,0.00454
5085.37185,0.01202
5087.30032,0.01535
5089.22879,0.01539
5091.15726,0.01156
5093.08573,0.00953
5095.01420,0.01072
5096.94267,0.01189
5098.87113,0.01151
5100.79960,0.00817
5102.72807,0.00656
5104.65654,0.01490
5106.58501,0.02228
5108.51348,0.01430
5110.44195,0.00944
5112.37042,0.02232
5114.29888,0.03058
5116.22735,0.01902
5118.15582,0.00786
5120.08429,0.01617
5122.01276,0.03160
5123.94123,0.03951
5125.86970,0.04137
5127.79816,0.03507
5129.72663,0.02127
5131.65510,0.01186
5133.58357,0.01137
5135.51204,0.01808
5137.44051,0.02836
5139.36898,0.03184
5141.29745,0.03059
5143.22591,0.03661
5145.15438,0.04235
5147.08285,0.04051
5149.01132,0.04234
5150.93979,0.04479
5152.86826,0.04186
5154.79673,0.03888
5156.72519,0.03106
5158.65366,0.02468
5160.58213,0.02954
5162.51060,0.03386
5164.43907,0.03103
5166.36754,0.02519
5168.29601,0.01925
5170.22448,0.01692
5172.15294,0.01677
5174.08141,0.01780
5176.00988,0.02438
5177.93835,0.03176
5179.86682,0.03734
5181.79529,0.04584
5183.72376,0.04786
5185.65222,0.04100
5187.58069,0.03901
5189.50916,0.03593
5191.43763,0.02544
5193.36610,0.01840
5195.29457,0.02084
5197.22304,0.02736
5199.15151,0.02576
5201.07997,0.02349
5203.00844,0.03089
5204.93691,0.03519
5206.86538,0.03232
5208.79385,0.02891
5210.72232,0.02430
5212.65079,0.01773
5214.57925,0.01114
5216.50772,0.00977
5218.43619,0.01821
5220.36466,0.02977
5222.29313,0.03281
5224.22160,0.03344
5226.15007,0.03763
5228.07854,0.03885
5230.00700,0.03818
5231.93547,0.03939
5233.86394,0.03968
5235.79241,0.03501
5237.72088,0.02919
5239.64935,0.02647
5241.57782,0.02684
5243.50628,0.02940
5245.43475,0.03223
5247.36322,0.03515
5249.29169,0.03634
5251.22016,0.03935
5253.14863,0.04920
5255.07710,0.05287
5257.00556,0.03997
5258.93403,0.03091
5260.86250,0.03679
5262.79097,0.04025
5264.71944,0.03917
5266.64791,0.04564
5268.57638,0.05474
5270.50485,0.05665
5272.43331,0.04893
5274.36178,0.04322
5276.29025,0.04825
5278.21872,0.05014
5280.14719,0.03628
5282.07566,0.02557
5284.00413,0.04470
5285.93259,0.07120
5287.86106,0.06486
5289.78953,0.04458
5291.71800,0.04047
5293.64647,0.04742
5295.57494,0.05582
5297.50341,0.05798
5299.43188,0.05416
5301.36034,0.04907
5303.28881,0.04299
5305.21728,0.04502
5307.14575,0.05700
5309.07422,0.06263
5311.00269,0.05836
5312.93116,0.05197
5314.85962,0.04662
5316.78809,0.04864
5318.71656,0.05385
5320.64503,0.04781
5322.57350,0.03531
5324.50197,0.03699
5326.43044,0.05580
5328.35891,0.06734
5330.28737,0.05557
5332.21584,0.03766
5334.14431,0.03782
5336.07278,0.04500
5338.00125,0.03444
5339.92972,0.02847
5341.85819,0.04906
5343.78665,0.06404
5345.71512,0.05487
5347.64359,0.05360
5349.57206,0.06235
5351.50053,0.05365
5353.42900,0.02885
5355.35747,0.01542
5357.28594,0.02540
5359.21440,0.04975
5361.14287,0.06335
5363.07134,0.06004
5364.99981,0.05686
5366.92828,0.05082
5368.85675,0.04055
5370.78522,0.03501
5372.71368,0.03171
5374.64215,0.02703
5376.57062,0.03478
5378.49909,0.05903
5380.42756,0.07487
5382.35603,0.07812
5384.28450,0.08123
5386.21297,0.07771
5388.14143,0.05976
5390.06990,0.04732
5391.99837,0.06464
5393.92684,0.09813
5395.85531,0.09608
5397.78378,0.06432
5399.71225,0.04219
5401.64071,0.04316
5403.56918,0.06704
5405.49765,0.08475
5407.42612,0.07481
5409.35459,0.06569
5411.28306,0.06990
5413.21153,0.06319
5415.13999,0.05601
5417.06846,0.06370
5418.99693,0.07644
5420.92540,0.08516
5422.85387,0.07458
5424.78234,0.05163
5426.71081,0.04275
5428.63928,0.05239
5430.56774,0.06518
5432.49621,0.07244
5434.42468,0.07328
5436.35315,0.06002
5438.28162,0.04498
5440.21009,0.04831
5442.13856,0.05774
5444.06702,0.05650
5445.99549,0.06011
5447.92396,0.07761
5449.85243,0.08658
5451.78090,0.07974
5453.70937,0.08027
5455.63784,0.10469
5457.56631,0.13620
5459.49477,0.14100
5461.42324,0.12020
5463.35171,0.09892
5465.28018,0.08521
5467.20865,0.07317
5469.13712,0.06069
5471.06559,0.04855
5472.99405,0.03933
5474.92252,0.03288
5476.85099,0.03630
5478.77946,0.06250
5480.70793,0.09501
5482.63640,0.10203
5484.56487,0.08904
5486.49334,0.08380
5488.42180,0.08235
5490.35027,0.06939
5492.27874,0.05518
5494.20721,0.05527
5496.13568,0.06171
5498.06415,0.06125
5499.99262,0.06305
5501.92108,0.07766
5503.84955,0.09073
5505.77802,0.08502
5507.70649,0.06637
5509.63496,0.05650
5511.56343,0.06562
5513.49190,0.08756
5515.42037,0.09648
5517.34883,0.07732
5519.27730,0.05412
5521.20577,0.05621
5523.13424,0.07707
5525.06271,0.09143
5526.99118,0.09504
5528.91965,0.08781
5530.84811,0.07056
5532.77658,0.05890
5534.70505,0.05837
5536.63352,0.05976
5538.56199,0.05762
5540.49046,0.05482
5542.41893,0.05369
5544.34740,0.05370
5546.27586,0.05448
5548.20433,0.06183
5550.13280,0.06940
5552.06127,0.06868
5553.98974,0.07561
5555.91821,0.09084
5557.84668,0.08805
5559.77514,0.07324
5561.70361,0.07797
5563.63208,0.10021
5565.56055,0.11324
5567.48902,0.10408
5569.41749,0.08883
5571.34596,0.08280
5573.27443,0.07696
5575.20289,0.06793
5577.13136,0.05765
5579.05983,0.05485
5580.98830,0.06920
5582.91677,0.08278
5584.84524,0.07909
5586.77371,0.07210
5588.70217,0.08153
5590.63064,0.09214
5592.55911,0.07825
5594.48758,0.04950
5596.41605,0.03513
5598.34452,0.04384
5600.27299,0.05097
5602.20145,0.04958
5604.12992,0.05850
5606.05839,0.07385
5607.98686,0.07699
5609.91533,0.06663
5611.84380,0.06615
5613.77227,0.08393
5615.70074,0.08712
5617.62920,0.07368
5619.55767,0.07305
5621.48614,0.07838
5623.41461,0.07867
5625.34308,0.08231
5627.27155,0.08530
5629.20002,0.07933
5631.12848,0.06760
5633.05695,0.05083
5634.98542,0.03652
5636.91389,0.03423
5638.84236,0.03491
5640.77083,0.04546
5642.69930,0.07076
5644.62777,0.07954
5646.55623,0.05924
5648.48470,0.04434
5650.41317,0.05818
5652.34164,0.07790
5654.27011,0.08208
5656.19858,0.08231
5658.12705,0.08550
5660.05551,0.08418
5661.98398,0.07636
5663.91245,0.07351
5665.84092,0.07770
5667.76939,0.07673
5669.69786,0.08495
5671.62633,0.10215
5673.55480,0.10057
5675.48326,0.08321
5677.41173,0.06375
5679.34020,0.06062
5681.26867,0.07307
5683.19714,0.07268
5685.12561,0.06978
5687.05408,0.08568
5688.98254,0.10080
5690.91101,0.09206
5692.83948,0.07884
5694.76795,0.08328
5696.69642,0.08937
5698.62489,0.08213
5700.55336,0.07334
5702.48183,0.06904
5704.41029,0.06344
5706.33876,0.06481
5708.26723,0.07943
5710.19570,0.08968
5712.12417,0.08972
5714.05264,0.08956
5715.98111,0.08961
5717.90957,0.09234
5719.83804,0.08956
5721.76651,0.07475
5723.69498,0.07139
5725.62345,0.08619
5727.55192,0.09115
5729.48039,0.08018
5731.40886,0.07959
5733.33732,0.09449
5735.26579,0.10445
5737.19426,0.09737
5739.12273,0.08433
5741.05120,0.07226
5742.97967,0.07066
5744.90814,0.08325
5746.83660,0.08733
5748.76507,0.08568
5750.69354,0.09626
5752.62201,0.10062
5754.55048,0.07915
5756.47895,0.05208
5758.40742,0.05891
5760.33588,0.09395
5762.26435,0.10604
5764.19282,0.08102
5766.12129,0.05945
5768.04976,0.05889
5769.97823,0.05371
5771.90670,0.04183
5773.83517,0.05599
5775.76363,0.08592
5777.69210,0.09188
5779.62057,0.07632
5781.54904,0.06705
5783.47751,0.07873
5785.40598,0.09887
5787.33445,0.11062
5789.26291,0.11686
5791.19138,0.11217
5793.11985,0.09433
5795.04832,0.07720
5796.97679,0.06305
5798.90526,0.05189
5800.83373,0.05680
5802.76220,0.07170
5804.69066,0.08187
5806.61913,0.08756
5808.54760,0.08099
5810.47607,0.07016
5812.40454,0.07365
5814.33301,0.07737
5816.26148,0.06456
5818.18994,0.05167
5820.11841,0.04478
5822.04688,0.02976
5823.97535,0.02951
5825.90382,0.05447
5827.83229,0.07771
5829.76076,0.09274
5831.68923,0.10053
5833.61769,0.09062
5835.54616,0.08287
5837.47463,0.10398
5839.40310,0.12686
5841.33157,0.12457
5843.26004,0.11226
5845.18851,0.10580
5847.11697,0.10626
5849.04544,0.09530
5850.97391,0.06690
5852.90238,0.05203
5854.83085,0.05539
5856.75932,0.05536
5858.68779,0.05326
5860.61626,0.06617
5862.54472,0.09291
5864.47319,0.10105
5866.40166,0.08041
5868.33013,0.06548
5870.25860,0.05281
5872.18707,0.01787
5874.11554,-0.01858
5876.04400,-0.02438
5877.97247,0.00028
5879.90094,0.04750
5881.82941,0.09743
5883.75788,0.11226
5885.68635,0.09047
5887.61482,0.05783
5889.54329,0.04865
5891.47175,0.08272
5893.40022,0.11528
5895.32869,0.09472
5897.25716,0.04905
5899.18563,0.04272
5901.11410,0.07166
5903.04257,0.08801
5904.97103,0.08960
5906.89950,0.09774
5908.82797,0.09958
5910.75644,0.08180
5912.68491,0.06016
5914.61338,0.06064
5916.54185,0.08983
5918.47032,0.10937
5920.39878,0.09563
5922.32725,0.07445
5924.25572,0.06569
5926.18419,0.06364
5928.11266,0.05795
5930.04113,0.06095
5931.96960,0.07676
5933.89806,0.08928
5935.82653,0.10185
5937.75500,0.11369
5939.68347,0.11011
5941.61194,0.09383
5943.54041,0.06975
5945.46888,0.03227
5947.39734,-0.00589
5949.32581,-0.01663
5951.25428,0.00433
5953.18275,0.03710
5955.11122,0.06347
5957.03969,0.07393
5958.96816,0.06681
5960.89663,0.05431
5962.82509,0.05693
5964.75356,0.06048
5966.68203,0.05008
5968.61050,0.04726
5970.53897,0.06058
5972.46744,0.08108
5974.39591,0.08840
5976.32437,0.07180
5978.25284,0.06492
5980.18131,0.07123
5982.10978,0.05475
5984.03825,0.03456
5985.96672,0.04355
5987.89519,0.04652
5989.82366,0.03435
5991.75212,0.03780
5993.68059,0.05058
5995.60906,0.05903
5997.53753,0.06108
5999.46600,0.05217
6001.39447,0.03465
6003.32294,0.03452
6005.25140,0.06289
6007.17987,0.08407
6009.10834,0.08971
6011.03681,0.10268
6012.96528,0.11616
6014.89375,0.10922
6016.82222,0.08252
6018.75069,0.06542
6020.67915,0.07432
6022.60762,0.08513
6024.53609,0.07844
6026.46456,0.05986
6028.39303,0.05429
6030.32150,0.07219
6032.24997,0.08727
6034.17843,0.07355
6036.10690,0.03333
6038.03537,0.00468
6039.96384,0.01443
6041.89231,0.03789
6043.82078,0.03941
6045.74925,0.03620
6047.67772,0.06443
6049.60618,0.11212
6051.53465,0.13167
6053.46312,0.11643
6055.39159,0.10472
6057.32006,0.09394
6059.24853,0.07311
6061.17700,0.06495
6063.10546,0.06169
6065.03393,0.06808
6066.96240,0.08887
6068.89087,0.08374
6070.81934,0.04701
6072.74781,0.01587
6074.67628,0.00730
6076.60475,0.03531
6078.53321,0.08334
6080.46168,0.10277
6082.39015,0.10493
6084.31862,0.11971
6086.24709,0.13370
6088.17556,0.12228
6090.10403,0.09627
6092.03249,0.08672
6093.96096,0.09882
6095.88943,0.12182
6097.81790,0.12518
6099.74637,0.09161
6101.67484,0.07285
6103.60331,0.09509
6105.53177,0.11048
6107.46024,0.10321
6109.38871,0.09587
6111.31718,0.09548
6113.24565,0.11045
6115.17412,0.12589
6117.10259,0.11225
6119.03106,0.08543
6120.95952,0.08012
6122.88799,0.09226
6124.81646,0.10378
6126.74493,0.11790
6128.67340,0.14297
6130.60187,0.14856
6132.53034,0.11753
6134.45880,0.08164
6136.38727,0.05405
6138.31574,0.03247
6140.24421,0.02612
6142.17268,0.03728
6144.10115,0.04818
6146.02962,0.04535
6147.95809,0.05757
6149.88655,0.08497
6151.81502,0.07377
6153.74349,0.03551
6155.67196,0.02487
6157.60043,0.04085
6159.52890,0.06595
6161.45737,0.07557
6163.38583,0.05380
6165.31430,0.03034
6167.24277,0.02401
6169.17124,0.02789
6171.09971,0.05061
6173.02818,0.08325
6174.95665,0.08299
6176.88512,0.05750
6178.81358,0.08144
6180.74205,0.14837
6182.67052,0.17487
6184.59899,0.12966
6186.52746,0.04009
6188.45593,0.00554
6190.38440,0.07036
6192.31286,0.12844
6194.24133,0.11930
6196.16980,0.08370
6198.09827,0.05517
6200.02674,0.02915
6201.95521,0.02615
6203.88368,0.05639
6205.81215,0.07215
6207.74061,0.04934
6209.66908,0.04266
6211.59755,0.09001
6213.52602,0.13015
6215.45449,0.13462
6217.38296,0.11853
6219.31143,0.07798
6221.23989,0.03721
6223.16836,0.04351
6225.09683,0.06732
6227.02530,0.05054
6228.95377,0.02500
6230.88224,0.02245
6232.81071,0.04188
6234.73918,0.07158
6236.66764,0.09756
6238.59611,0.11516
6240.52458,0.10125
6242.45305,0.06459
6244.38152,0.05450
6246.30999,0.07825
6248.23846,0.10382
6250.16692,0.11629
6252.09539,0.09464
6254.02386,0.03954
6255.95233,0.02273
6257.88080,0.05290
6259.80927,0.05301
6261.73774,0.02240
6263.66621,0.04294
6265.59467,0.11770
6267.52314,0.13420
6269.45161,0.10107
6271.38008,0.08693
6273.30855,0.07488
6275.23702,0.06406
6277.16549,0.06776
6279.09395,0.06678
6281.02242,0.05630
6282.95089,0.06456
6284.87936,0.09969
6286.80783,0.10826
6288.73630,0.05697
6290.66477,-0.00199
6292.59323,0.00824
6294.52170,0.06718
6296.45017,0.12527
6298.37864,0.17255
6300.30711,0.17400
6302.23558,0.10918
6304.16405,0.04025
6306.09252,0.01722
6308.02098,0.01266
6309.94945,0.01217
6311.87792,0.05911
6313.80639,0.13212
6315.73486,0.15196
6317.66333,0.10789
6319.59180,0.07339
6321.52026,0.08581
6323.44873,0.10012
6325.37720,0.09124
6327.30567,0.06986
6329.23414,0.05705
6331.16261,0.05920
6333.09108,0.05589
6335.01955,0.04374
6336.94801,0.04479
6338.87648,0.05750
6340.80495,0.04240
6342.73342,0.01494
6344.66189,0.02670
6346.59036,0.04856
6348.51883,0.03838
6350.44729,0.05037
6352.37576,0.08147
6354.30423,0.05668
6356.23270,0.01170
6358.16117,-0.00006
6360.08964,0.02819
6362.01811,0.08338
6363.94658,0.11248
6365.87504,0.09101
6367.80351,0.06901
6369.73198,0.07857
6371.66045,0.06886
6373.58892,0.03346
6375.51739,0.04815
6377.44586,0.07549
6379.37432,0.05550
6381.30279,0.02476
6383.23126,0.02063
6385.15973,0.05293
6387.08820,0.10455
6389.01667,0.12791
6390.94514,0.08809
6392.87361,0.01773
6394.80207,-0.00582
6396.73054,0.02776
6398.65901,0.07601
6400.58748,0.09519
6402.51595,0.08476
6404.44442,0.09642
6406.37289,0.13445
6408.30135,0.15672
6410.22982,0.13385
6412.15829,0.07501
6414.08676,0.04563
6416.01523,0.07009
6417.94370,0.07030
6419.87217,-0.00819
6421.80064,-0.08284
6423.72910,-0.08626
6425.65757,-0.02991
6427.58604,0.05022
6429.51451,0.10643
6431.44298,0.10022
6433.37145,0.07920
6435.29992,0.09917
6437.22838,0.13380
6439.15685,0.13359
6441.08532,0.11038
6443.01379,0.10863
6444.94226,0.14133
6446.87073,0.16967
6448.79920,0.15557
6450.72766,0.11830
6452.65613,0.09253
6454.58460,0.08118
6456.51307,0.07901
6458.44154,0.05819
6460.37001,0.02402
6462.29848,0.01342
6464.22695,0.02018
6466.15541,0.04244
6468.08388,0.08700
6470.01235,0.10093
6471.94082,0.05532
6473.86929,0.03722
6475.79776,0.07239
6477.72623,0.08294
6479.65469,0.07618
6481.58316,0.09878
6483.51163,0.10900
6485.44010,0.06289
6487.36857,0.01456
6489.29704,0.03944
6491.22551,0.11305
6493.15398,0.15796
6495.08244,0.14788
6497.01091,0.12085
6498.93938,0.11235
6500.86785,0.10153
6502.79632,0.07500
6504.72479,0.06440
6506.65326,0.06552
6508.58172,0.05903
6510.51019,0.06043
6512.43866,0.06484
6514.36713,0.02398
6516.29560,-0.05280
6518.22407,-0.07519
6520.15254,-0.03933
6522.08101,-0.02462
6524.00947,-0.00474
6525.93794,0.06506
6527.86641,0.10947
6529.79488,0.09968
6531.72335,0.07846
6533.65182,0.06656
6535.58029,0.06253
6537.50875,0.05816
6539.43722,0.06016
6541.36569,0.09190
6543.29416,0.13220
6545.22263,0.13252
6547.15110,0.11118
6549.07957,0.10763
6551.00804,0.10779
6552.93650,0.07346
6554.86497,0.02818
6556.79344,0.00558
6558.72191,-0.01144
6560.65038,-0.02384
6562.57885,-0.00846
6564.50732,0.01580
6566.43578,0.00203
6568.36425,-0.01818
6570.29272,0.00721
6572.22119,0.06005
6574.14966,0.11470
6576.07813,0.13395
6578.00660,0.09677
6579.93507,0.07257
6581.86353,0.09629
6583.79200,0.12689
6585.72047,0.12750
6587.64894,0.07027
6589.57741,0.00923
6591.50588,0.02576
6593.43435,0.09971
6595.36281,0.14548
6597.29128,0.10928
6599.21975,0.04439
6601.14822,0.04425
6603.07669,0.08078
6605.00516,0.11942
6606.93363,0.19490
6608.86210,0.25306
6610.79056,0.21449
6612.71903,0.07882
6614.64750,-0.04794
6616.57597,-0.05490
6618.50444,0.00791
6620.43291,0.03669
6622.36138,0.02879
6624.28984,0.03689
6626.21831,0.08109
6628.14678,0.11057
6630.07525,0.09652
6632.00372,0.05548
6633.93219,-0.00488
6635.86066,-0.02867
6637.78912,0.03200
6639.71759,0.10069
6641.64606,0.12419
6643.57453,0.11102
6645.50300,0.07907
6647.43147,0.04648
6649.35994,0.02937
6651.28841,0.05223
6653.21687,0.10653
6655.14534,0.16900
6657.07381,0.21236
6659.00228,0.16768
6660.93075,0.07573
6662.85922,0.02542
6664.78769,-0.01266
6666.71615,-0.04756
6668.64462,-0.02177
6670.57309,0.02461
6672.50156,-0.01100
6674.43003,-0.10172
6676.35850,-0.14094
6678.28697,-0.08975
6680.21544,-0.01030
6682.14390,0.04101
6684.07237,0.09110
6686.00084,0.13174
6687.92931,0.12664
6689.85778,0.10170
6691.78625,0.07334
6693.71472,0.03318
6695.64318,-0.00945
6697.57165,-0.03931
6699.50012,0.00353
6701.42859,0.13453
6703.35706,0.22528
6705.28553,0.21776
6707.21400,0.16890
6709.14247,0.11053
6711.07093,0.08479
6712.99940,0.08887
6714.92787,0.06730
6716.85634,0.02167
6718.78481,0.02509
6720.71328,0.09163
6722.64175,0.13400
6724.57021,0.10680
6726.49868,0.05126
6728.42715,0.00490
6730.35562,-0.01651
6732.28409,0.01070
6734.21256,0.07980
6736.14103,0.12699
6738.06950,0.10533
6739.99796,0.02705
6741.92643,-0.03587
6743.85490,-0.02175
6745.78337,-0.00214
6747.71184,-0.04595
6749.64031,-0.10646
6751.56878,-0.10692
6753.49724,-0.05569
6755.42571,-0.02287
6757.35418,-0.02190
6759.28265,-0.00992
6761.21112,0.01129
6763.13959,0.00776
6765.06806,-0.00402
6766.99653,0.03346
6768.92499,0.10731
6770.85346,0.15382
6772.78193,0.15102
6774.71040,0.10354
6776.63887,0.06357
6778.56734,0.07250
6780.49581,0.07155
6782.42427,0.03217
6784.35274,-0.01027
6786.28121,-0.04878
6788.20968,-0.07305
6790.13815,-0.02582
6792.06662,0.08675
6793.99509,0.14913
6795.92355,0.13715
6797.85202,0.10337
6799.78049,0.05042
6801.70896,-0.01482
6803.63743,-0.04503
6805.56590,-0.04206
6807.49437,-0.00740
6809.42284,0.05567
6811.35130,0.08689
6813.27977,0.03510
6815.20824,-0.04098
6817.13671,-0.03042
6819.06518,0.02862
6820.99365,0.03105
6822.92212,0.02243
6824.85058,0.06048
6826.77905,0.06397
6828.70752,0.01862
6830.63599,-0.00695
6832.56446,-0.01820
6834.49293,-0.03575
6836.42140,-0.02808
6838.34987,-0.01265
6840.27833,-0.03727
6842.20680,-0.06513
6844.13527,-0.01425
6846.06374,0.10958
6847.99221,0.20916
6849.92068,0.17907
6851.84915,0.04803
6853.77761,-0.05259
6855.70608,-0.04507
6857.63455,0.05161
6859.56302,0.15828
6861.49149,0.18594
6863.41996,0.15268
6865.34843,0.14629
6867.27690,0.11915
6869.20536,0.07693
6871.13383,0.08248
6873.06230,0.10660
6874.99077,0.10812
6876.91924,0.08864
6878.84771,0.07968
6880.77618,0.11975
6882.70464,0.17353
6884.63311,0.16851
6886.56158,0.08862
6888.49005,0.00863
6890.41852,0.02283
6892.34699,0.09706
6894.27546,0.13734
6896.20393,0.13955
6898.13239,0.08429
6900.06086,-0.02197
6901.98933,-0.09833
6903.91780,-0.08680
6905.84627,-0.02187
6907.77474,-0.00927
6909.70321,-0.01524
6911.63167,0.05084
6913.56014,0.16058
6915.48861,0.20627
6917.41708,0.18742
6919.34555,0.13066
6921.27402,0.01120
6923.20249,-0.06441
6925.13096,-0.03258
6927.05942,0.02389
6928.98789,0.08099
6930.91636,0.12449
6932.84483,0.09476
6934.77330,0.05717
6936.70177,0.03695
6938.63024,0.00274
6940.55870,-0.01974
6942.48717,-0.02450
6944.41564,-0.00060
6946.34411,-0.00709
6948.27258,-0.07062
6950.20105,-0.05048
6952.12952,0.01124
6954.05799,-0.00709
6955.98645,-0.03400
6957.91492,0.02943
6959.84339,0.13757
6961.77186,0.17665
6963.70033,0.11550
6965.62880,0.04530
6967.55727,0.03334
6969.48573,0.04944
6971.41420,0.05229
6973.34267,0.01300
6975.27114,-0.09175
6977.19961,-0.11006
6979.12808,-0.00863
6981.05655,0.05160
6982.98501,0.04950
6984.91348,0.05401
6986.84195,0.02372
6988.77042,-0.01784
6990.69889,0.03099
6992.62736,0.10965
6994.55583,0.10869
6996.48430,0.04815
6998.41276,0.04133
7000.34123,0.09972
7002.26970,0.12182
7004.19817,0.07800
7006.12664,0.01693
7008.05511,0.05217
7009.98358,0.18608
7011.91204,0.25699
7013.84051,0.19795
7015.76898,0.12093
7017.69745,0.08196
7019.62592,0.06386
7021.55439,0.07562
7023.48286,0.11783
7025.41133,0.13905
7027.33979,0.10453
7029.26826,0.07740
7031.19673,0.09514
7033.12520,0.10353
7035.05367,0.05807
7036.98214,0.00614
7038.91061,0.01169
7040.83907,0.03719
7042.76754,0.05476
7044.69601,0.07813
7046.62448,0.08293
7048.55295,0.07908
7050.48142,0.10717
7052.40989,0.17011
7054.33836,0.22026
7056.26682,0.15499
7058.19529,-0.00402
7060.12376,-0.03994
7062.05223,0.01934
7063.98070,0.01389
7065.90917,-0.01123
7067.83764,0.02795
7069.76610,0.08762
7071.69457,0.08280
7073.62304,0.02725
7075.55151,-0.01909
7077.47998,-0.03069
7079.40845,0.00431
7081.33692,0.03263
7083.26539,0.00903
7085.19385,0.01569
7087.12232,0.09748
7089.05079,0.18006
7090.97926,0.12648
7092.90773,-0.06105
7094.83620,-0.17024
7096.76467,-0.13147
7098.69313,-0.08691
7100.62160,-0.04853
7102.55007,0.01942
7104.47854,0.07144
7106.40701,0.10918
7108.33548,0.13386
7110.26395,0.11095
7112.19242,0.06764
7114.12088,0.05056
7116.04935,0.07172
7117.97782,0.11916
7119.90629,0.13233
7121.83476,0.10125
7123.76323,0.06912
7125.69170,0.09639
7127.62016,0.13925
7129.54863,0.08600
7131.47710,0.01329
7133.40557,0.01344
7135.33404,0.04901
7137.26251,0.06351
7139.19098,0.02216
7141.11944,-0.04624
7143.04791,-0.01594
7144.97638,0.14426
7146.90485,0.17851
7148.83332,0.04989
7150.76179,-0.00639
7152.69026,0.02399
7154.61873,0.00009
7156.54719,-0.07335
7158.47566,-0.08170
7160.40413,-0.02304
7162.33260,0.01709
7164.26107,-0.03252
7166.18954,-0.09660
7168.11801,-0.05554
7170.04647,0.00164
7171.97494,-0.02093
7173.90341,-0.05493
7175.83188,-0.01117
7177.76035,0.08665
7179.68882,0.15818
7181.61729,0.19112
7183.54576,0.13052
7185.47422,0.05163
7187.40269,0.05375
7189.33116,0.03415
7191.25963,-0.07879
7193.18810,-0.16062
7195.11657,-0.11291
7197.04504,-0.02257
7198.97350,0.04263
7200.90197,0.12603
7202.83044,0.20617
7204.75891,0.13379
7206.68738,-0.05341
7208.61585,-0.11196
7210.54432,-0.04329
7212.47279,0.00336
7214.40125,-0.01873
7216.32972,-0.00300
7218.25819,0.04039
7220.18666,0.03175
7222.11513,0.04751
7224.04360,0.09170
7225.97207,0.14972
7227.90053,0.24191
7229.82900,0.31339
7231.75747,0.26910
7233.68594,0.16588
7235.61441,0.14158
7237.54288,0.20569
7239.47135,0.24855
7241.39982,0.22463
7243.32828,0.17443
7245.25675,0.14749
7247.18522,0.12920
7249.11369,0.09282
7251.04216,0.05270
7252.97063,-0.00652
7254.89910,-0.10327
7256.82756,-0.20317
7258.75603,-0.22142
7260.68450,-0.09060
7262.61297,0.02602
7264.54144,0.06733
7266.46991,0.10968
7268.39838,0.09290
7270.32685,0.08645
7272.25531,0.21862
7274.18378,0.24898
7276.11225,0.11529
7278.04072,0.08395
7279.96919,0.26945
7281.89766,0.39557
7283.82613,0.26765
7285.75459,0.09272
7287.68306,-0.00841
7289.61153,-0.08217
7291.54000,-0.02010
7293.46847,0.18837
7295.39694,0.24566
7297.32541,0.09158
7299.25387,-0.00189
7301.18234,0.08735
7303.11081,0.22582
7305.03928,0.24887
7306.96775,0.13750
7308.89622,0.06455
7310.82469,0.20821
7312.75316,0.29004
7314.68162,0.10504
7316.61009,-0.15759
7318.53856,-0.20827
7320.46703,-0.15262
7322.39550,-0.13509
7324.32397,-0.11700
7326.25244,-0.03224
7328.18090,0.07877
7330.10937,0.08635
7332.03784,-0.01639
7333.96631,-0.03105
7335.89478,0.06986
7337.82325,0.14071
7339.75172,0.16405
7341.68019,0.21780
7343.60865,0.18143
7345.53712,0.02077
7347.46559,-0.11841
7349.39406,-0.07313
7351.32253,0.09662
7353.25100,0.22926
7355.17947,0.24337
7357.10793,0.14749
7359.03640,0.00704
7360.96487,-0.11939
7362.89334,-0.15165
7364.82181,-0.06179
7366.75028,0.01819
7368.67875,0.03049
7370.60722,0.01487
7372.53568,-0.05807
7374.46415,-0.17659
7376.39262,-0.17361
7378.32109,-0.07707
7380.24956,-0.00142
7382.17803,0.00904
7384.10650,-0.01186
7386.03496,-0.00213
7387.96343,-0.07056
7389.89190,-0.20163
7391.82037,-0.21949
7393.74884,-0.07931
7395.67731,0.10266
7397.60578,0.17062
7399.53425,0.16861
7401.46271,0.21738
7403.39118,0.23303
7405.31965,0.10648
7407.24812,0.01455
7409.17659,-0.00200
7411.10506,-0.04506
7413.03353,-0.02281
7414.96199,0.07653
7416.89046,0.11251
7418.81893,0.02707
7420.74740,-0.07046
7422.67587,-0.02267
7424.60434,0.06425
7426.53281,0.07887
7428.46128,0.11048
7430.38974,0.17199
7432.31821,0.16602
7434.24668,0.14183
7436.17515,0.12217
7438.10362,0.10581
7440.03209,0.15022
7441.96056,0.20120
7443.88902,0.21096
7445.81749,0.24205
7447.74596,0.26499
7449.67443,0.23681
7451.60290,0.12627
7453.53137,-0.06951
7455.45984,-0.22530
7457.38831,-0.31247
7459.31677,-0.33782
7461.24524,-0.21177
7463.17371,0.03470
7465.10218,0.21636
7467.03065,0.25375
7468.95912,0.25630
7470.88759,0.26050
7472.81605,0.20270
7474.74452,0.04289
7476.67299,-0.09964
7478.60146,-0.01812
7480.52993,0.20008
7482.45840,0.32931
7484.38687,0.27786
7486.31533,0.03345
7488.24380,-0.14680
7490.17227,-0.01671
7492.10074,0.16298
7494.02921,0.15962
7495.95768,0.11377
7497.88615,0.11571
