399.19301,-0.25100
401.12148,0.04198
403.04995,0.11271
404.97842,0.05292
406.90689,0.00247
408.83536,0.00040
410.76382,0.03515
412.69229,0.04899
414.62076,0.03227
416.54923,0.04250
418.47770,0.06594
420.40617,0.04085
422.33464,0.00377
424.26311,-0.00161
426.19157,0.06022
428.12004,0.16126
430.04851,0.20845
431.97698,0.15932
433.90545,0.10377
435.83392,0.08247
437.76239,0.07750
439.69085,0.09416
441.61932,0.17575
443.54779,0.27237
445.47626,0.27845
447.40473,0.22307
449.33320,0.14181
451.26167,0.10504
453.19013,0.13629
455.11860,0.14463
457.04707,0.11669
458.97554,0.11325
460.90401,0.11681
462.83248,0.10941
464.76095,0.08691
466.68942,0.04334
468.61788,0.02237
470.54635,0.01580
472.47482,0.00226
474.40329,0.08986
476.33176,0.17539
478.26023,0.15562
480.18870,0.11306
482.11716,0.07273
484.04563,0.04463
485.97410,0.04807
487.90257,0.06477
489.83104,0.07906
491.75951,0.09620
493.68798,0.10377
495.61645,0.10518
497.54491,0.11388
499.47338,0.11632
501.40185,0.11356
503.33032,0.10606
505.25879,0.07587
507.18726,0.03995
509.11573,0.04622
511.04419,0.09999
512.97266,0.14924
514.90113,0.14745
516.82960,0.12089
518.75807,0.11054
520.68654,0.09517
522.61501,0.06032
524.54348,0.04354
526.47194,0.06010
528.40041,0.06940
530.32888,0.07394
532.25735,0.08764
534.18582,0.08915
536.11429,0.07662
538.04276,0.07914
539.97122,0.11068
541.89969,0.14713
543.82816,0.15864
545.75663,0.14427
547.68510,0.11477
549.61357,0.08718
551.54204,0.09284
553.47051,0.12258
555.39897,0.12186
557.32744,0.09281
559.25591,0.08107
561.18438,0.07662
563.11285,0.05883
565.04132,0.05748
566.96979,0.09934
568.89825,0.13459
570.82672,0.12126
572.75519,0.09993
574.68366,0.09696
576.61213,0.09861
578.54060,0.09452
580.46907,0.08294
582.39754,0.08437
584.32600,0.10729
586.25447,0.11616
588.18294,0.09695
590.11141,0.08726
592.03988,0.10942
593.96835,0.13433
595.89682,0.13460
597.82528,0.12475
599.75375,0.11304
601.68222,0.09209
603.61069,0.07816
605.53916,0.08642
607.46763,0.10285
609.39610,0.10649
611.32456,0.10651
613.25303,0.11099
615.18150,0.09837
617.10997,0.07967
619.03844,0.08327
620.96691,0.09988
622.89538,0.10823
624.82385,0.10411
626.75231,0.09571
628.68078,0.08780
630.60925,0.08745
632.53772,0.09818
634.46619,0.10325
636.39466,0.09501
638.32313,0.09029
640.25159,0.09647
642.18006,0.10819
644.10853,0.12446
646.03700,0.13433
647.96547,0.12863
649.89394,0.11932
651.82241,0.11524
653.75088,0.11478
655.67934,0.11644
657.60781,0.12162
659.53628,0.12790
661.46475,0.12081
663.39322,0.10705
665.32169,0.10539
667.25016,0.11745
669.17862,0.13263
671.10709,0.13355
673.03556,0.12747
674.96403,0.11948
676.89250,0.11397
678.82097,0.11646
680.74944,0.11649
682.67791,0.10862
684.60637,0.10795
686.53484,0.11398
688.46331,0.11789
690.39178,0.12599
692.32025,0.12877
694.24872,0.12053
696.17719,0.11694
698.10565,0.11556
700.03412,0.11083
701.96259,0.11198
703.89106,0.11770
705.81953,0.11979
707.74800,0.11612
709.67647,0.10665
711.60494,0.09987
713.53340,0.10333
715.46187,0.10492
717.39034,0.09935
719.31881,0.10004
721.24728,0.10681
723.17575,0.10541
725.10422,0.09799
727.03268,0.09708
728.96115,0.10247
730.88962,0.10749
732.81809,0.11015
734.74656,0.10995
736.67503,0.10887
738.60350,0.10964
740.53197,0.11199
742.46043,0.11497
744.38890,0.12021
746.31737,0.12748
748.24584,0.13022
750.17431,0.12703
752.10278,0.12589
754.03125,0.12769
755.95971,0.12335
757.88818,0.10945
759.81665,0.09466
761.74512,0.09327
763.67359,0.10340
765.60206,0.10690
767.53053,0.10543
769.45900,0.11006
771.38746,0.11513
773.31593,0.11759
775.24440,0.12361
777.17287,0.12582
779.10134,0.11342
781.02981,0.09809
782.95828,0.09577
784.88674,0.10425
786.81521,0.11033
788.74368,0.11077
790.67215,0.11453
792.60062,0.12627
794.52909,0.13972
796.45756,0.14204
798.38602,0.13467
800.31449,0.12832
802.24296,0.12200
804.17143,0.11511
806.09990,0.11581
808.02837,0.12035
809.95684,0.11542
811.88531,0.10443
813.81377,0.10020
815.74224,0.10442
817.67071,0.10967
819.59918,0.11496
821.52765,0.12107
823.45612,0.11979
825.38459,0.11179
827.31305,0.11046
829.24152,0.11725
831.16999,0.12249
833.09846,0.12542
835.02693,0.12822
836.95540,0.12889
838.88387,0.12878
840.81234,0.12847
842.74080,0.12643
844.66927,0.12330
846.59774,0.11710
848.52621,0.10874
850.45468,0.10828
852.38315,0.11603
854.31162,0.12259
856.24008,0.12598
858.16855,0.12628
860.09702,0.12266
862.02549,0.11826
863.95396,0.11762
865.88243,0.11818
867.81090,0.10977
869.73937,0.09410
871.66783,0.09375
873.59630,0.11362
875.52477,0.12727
877.45324,0.12623
879.38171,0.12390
881.31018,0.12340
883.23865,0.12048
885.16711,0.11586
887.09558,0.11458
889.02405,0.11584
890.95252,0.11977
892.88099,0.13084
894.80946,0.13885
896.73793,0.13171
898.66640,0.12164
900.59486,0.12409
902.52333,0.13275
904.45180,0.13443
906.38027,0.13161
908.30874,0.13173
910.23721,0.13029
912.16568,0.12743
914.09414,0.13058
916.02261,0.13351
917.95108,0.13075
919.87955,0.12891
921.80802,0.12730
923.73649,0.12573
925.66496,0.12982
927.59343,0.13201
929.52189,0.12751
931.45036,0.12445
933.37883,0.12382
935.30730,0.12244
937.23577,0.12262
939.16424,0.12949
941.09271,0.14029
943.02117,0.14204
944.94964,0.13254
946.87811,0.12431
948.80658,0.12546
950.73505,0.13220
952.66352,0.13383
954.59199,0.12695
956.52045,0.12137
958.44892,0.12153
960.37739,0.12265
962.30586,0.12132
964.23433,0.12014
966.16280,0.12413
968.09127,0.12992
970.01974,0.13216
971.94820,0.13377
973.87667,0.13690
975.80514,0.13702
977.73361,0.13270
979.66208,0.12965
981.59055,0.13072
983.51902,0.13391
985.44748,0.13665
987.37595,0.13662
989.30442,0.13490
991.23289,0.13387
993.16136,0.13544
995.08983,0.14083
997.01830,0.14457
998.94677,0.13988
1000.87523,0.13097
1002.80370,0.12897
1004.73217,0.13390
1006.66064,0.13432
1008.58911,0.13010
1010.51758,0.13124
1012.44605,0.13764
1014.37451,0.14560
1016.30298,0.15424
1018.23145,0.15480
1020.15992,0.14567
1022.08839,0.13964
1024.01686,0.14022
1025.94533,0.14149
1027.87380,0.13996
1029.80226,0.13586
1031.73073,0.13403
1033.65920,0.13630
1035.58767,0.14005
1037.51614,0.14409
1039.44461,0.14572
1041.37308,0.14326
1043.30154,0.14186
1045.23001,0.14424
1047.15848,0.14489
1049.08695,0.13953
1051.01542,0.13268
1052.94389,0.13256
1054.87236,0.13945
1056.80083,0.14519
1058.72929,0.14613
1060.65776,0.14703
1062.58623,0.14999
1064.51470,0.14991
1066.44317,0.14439
1068.37164,0.14018
1070.30011,0.14291
1072.22857,0.14952
1074.15704,0.15502
1076.08551,0.15721
1078.01398,0.15724
1079.94245,0.15485
1081.87092,0.14704
1083.79939,0.13654
1085.72786,0.13049
1087.65632,0.13117
1089.58479,0.13525
1091.51326,0.13960
1093.44173,0.14217
1095.37020,0.14061
1097.29867,0.13632
1099.22714,0.13545
1101.15560,0.14106
1103.08407,0.14774
1105.01254,0.14668
1106.94101,0.13751
1108.86948,0.13284
1110.79795,0.13983
1112.72642,0.14786
1114.65489,0.14938
1116.58335,0.14834
1118.51182,0.14722
1120.44029,0.14546
1122.36876,0.14268
1124.29723,0.13992
1126.22570,0.14182
1128.15417,0.14693
1130.08263,0.14510
1132.01110,0.13915
1133.93957,0.13893
1135.86804,0.14161
1137.79651,0.14188
1139.72498,0.13963
1141.65345,0.13818
1143.58191,0.13976
1145.51038,0.14232
1147.43885,0.14685
1149.36732,0.15327
1151.29579,0.15592
1153.22426,0.15266
1155.15273,0.14596
1157.08120,0.14254
1159.00966,0.14802
1160.93813,0.15600
1162.86660,0.15745
1164.79507,0.15474
1166.72354,0.15506
1168.65201,0.15701
1170.58048,0.15654
1172.50894,0.15616
1174.43741,0.15513
1176.36588,0.15172
1178.29435,0.14889
1180.22282,0.14691
1182.15129,0.14563
1184.07976,0.14762
1186.00823,0.15205
1187.93669,0.15313
1189.86516,0.14987
1191.79363,0.14699
1193.72210,0.14501
1195.65057,0.14304
1197.57904,0.14340
1199.50751,0.14500
1201.43597,0.14594
1203.36444,0.14982
1205.29291,0.15431
1207.22138,0.15315
1209.14985,0.14892
1211.07832,0.14573
1213.00679,0.14689
1214.93526,0.15391
1216.86372,0.15895
1218.79219,0.15595
1220.72066,0.15120
1222.64913,0.15048
1224.57760,0.15093
1226.50607,0.15071
1228.43454,0.15107
1230.36300,0.15082
1232.29147,0.14991
1234.21994,0.15020
1236.14841,0.15058
1238.07688,0.14985
1240.00535,0.14992
1241.93382,0.15138
1243.86229,0.15228
1245.79075,0.15181
1247.71922,0.15196
1249.64769,0.15477
1251.57616,0.15719
1253.50463,0.15579
1255.43310,0.15375
1257.36157,0.15345
1259.29003,0.15374
1261.21850,0.15555
1263.14697,0.15748
1265.07544,0.15711
1267.00391,0.15610
1268.93238,0.15596
1270.86085,0.15719
1272.78932,0.15817
1274.71778,0.15865
1276.64625,0.16059
1278.57472,0.16222
1280.50319,0.16164
1282.43166,0.15989
1284.36013,0.15919
1286.28860,0.15819
1288.21706,0.15501
1290.14553,0.15407
1292.07400,0.15683
1294.00247,0.15876
1295.93094,0.15891
1297.85941,0.15919
1299.78788,0.15853
1301.71634,0.15618
1303.64481,0.15496
1305.57328,0.15792
1307.50175,0.16418
1309.43022,0.16907
1311.35869,0.17003
1313.28716,0.16813
1315.21563,0.16620
1317.14409,0.16526
1319.07256,0.16349
1321.00103,0.16233
1322.92950,0.16262
1324.85797,0.16185
1326.78644,0.16100
1328.71491,0.16221
1330.64337,0.16353
1332.57184,0.16290
1334.50031,0.16183
1336.42878,0.16464
1338.35725,0.17158
1340.28572,0.17243
1342.21419,0.16526
1344.14266,0.15976
1346.07112,0.15784
1347.99959,0.15830
1349.92806,0.15945
1351.85653,0.15946
1353.78500,0.15859
1355.71347,0.15688
1357.64194,0.15772
1359.57040,0.16434
1361.49887,0.17225
1363.42734,0.17174
1365.35581,0.16540
1367.28428,0.16412
1369.21275,0.16818
1371.14122,0.17404
1373.06969,0.18112
1374.99815,0.18377
1376.92662,0.17842
1378.85509,0.17262
1380.78356,0.17064
1382.71203,0.17203
1384.64050,0.17680
1386.56897,0.18123
1388.49743,0.17784
1390.42590,0.17258
1392.35437,0.17714
1394.28284,0.18975
1396.21131,0.19616
1398.13978,0.19100
1400.06825,0.18093
1401.99672,0.17520
1403.92518,0.17670
1405.85365,0.17800
1407.78212,0.17505
1409.71059,0.17282
1411.63906,0.17218
1413.56753,0.17187
1415.49600,0.17518
1417.42446,0.18572
1419.35293,0.19387
1421.28140,0.18987
1423.20987,0.18400
1425.13834,0.17748
1427.06681,0.17313
1428.99528,0.17631
1430.92375,0.18075
1432.85221,0.18344
1434.78068,0.19079
1436.70915,0.19428
1438.63762,0.18243
1440.56609,0.17139
1442.49456,0.16845
1444.42303,0.17182
1446.35149,0.17839
1448.27996,0.18259
1450.20843,0.18358
1452.13690,0.18662
1454.06537,0.19762
1455.99384,0.22142
1457.92231,0.22940
1459.85077,0.20463
1461.77924,0.19067
1463.70771,0.19167
1465.63618,0.19198
1467.56465,0.18687
1469.49312,0.18938
1471.42159,0.20412
1473.35006,0.21719
1475.27852,0.21077
1477.20699,0.19566
1479.13546,0.18481
1481.06393,0.18042
1482.99240,0.17997
1484.92087,0.18732
1486.84934,0.20346
1488.77780,0.21447
1490.70627,0.20482
1492.63474,0.19394
1494.56321,0.19723
1496.49168,0.20724
1498.42015,0.20728
1500.34862,0.19863
1502.27709,0.19641
1504.20555,0.21289
1506.13402,0.25147
1508.06249,0.25150
1509.99096,0.21998
1511.91943,0.20693
1513.84790,0.21004
1515.77637,0.22457
1517.70483,0.23699
1519.63330,0.24589
1521.56177,0.25269
1523.49024,0.23981
1525.41871,0.22481
1527.34718,0.21389
1529.27565,0.20390
1531.20412,0.20408
1533.13258,0.21009
1535.06105,0.20876
1536.98952,0.21712
1538.91799,0.25457
1540.84646,0.28909
1542.77493,0.26441
1544.70340,0.22748
1546.63186,0.20518
1548.56033,0.20179
1550.48880,0.20315
1552.41727,0.20408
1554.34574,0.21566
1556.27421,0.24145
1558.20268,0.27764
1560.13115,0.25534
1562.05961,0.21132
1563.98808,0.19417
1565.91655,0.19473
1567.84502,0.20611
1569.77349,0.21351
1571.70196,0.20672
1573.63043,0.20416
1575.55889,0.20826
1577.48736,0.20092
1579.41583,0.18879
1581.34430,0.18393
1583.27277,0.18281
1585.20124,0.18029
1587.12971,0.17636
1589.05818,0.17533
1590.98664,0.17870
1592.91511,0.18238
1594.84358,0.18141
1596.77205,0.17564
1598.70052,0.17158
1600.62899,0.17454
1602.55746,0.18156
1604.48592,0.18536
1606.41439,0.18643
1608.34286,0.18843
1610.27133,0.18904
1612.19980,0.18871
1614.12827,0.19342
1616.05674,0.20182
1617.98521,0.19831
1619.91367,0.19175
1621.84214,0.19572
1623.77061,0.20208
1625.69908,0.20366
1627.62755,0.20279
1629.55602,0.19704
1631.48449,0.19379
1633.41295,0.20454
1635.34142,0.22633
1637.26989,0.22460
1639.19836,0.20687
1641.12683,0.19812
1643.05530,0.20241
1644.98377,0.22300
1646.91223,0.24739
1648.84070,0.24398
1650.76917,0.24075
1652.69764,0.25314
1654.62611,0.23633
1656.55458,0.21076
1658.48305,0.20211
1660.41152,0.20457
1662.33998,0.20812
1664.26845,0.20280
1666.19692,0.19910
1668.12539,0.20746
1670.05386,0.21684
1671.98233,0.21444
1673.91080,0.21334
1675.83926,0.21088
1677.76773,0.20558
1679.69620,0.20915
1681.62467,0.22488
1683.55314,0.24433
1685.48161,0.23681
1687.41008,0.21845
1689.33855,0.20709
1691.26701,0.19960
1693.19548,0.20474
1695.12395,0.22776
1697.05242,0.25085
1698.98089,0.25344
1700.90936,0.23602
1702.83783,0.22140
1704.76629,0.21819
1706.69476,0.21005
1708.62323,0.19736
1710.55170,0.19357
1712.48017,0.20030
1714.40864,0.21546
1716.33711,0.23151
1718.26558,0.22211
1720.19404,0.20016
1722.12251,0.19064
1724.05098,0.18754
1725.97945,0.18553
1727.90792,0.19020
1729.83639,0.20098
1731.76486,0.21213
1733.69332,0.22024
1735.62179,0.21393
1737.55026,0.20551
1739.47873,0.20437
1741.40720,0.20615
1743.33567,0.20780
1745.26414,0.20977
1747.19261,0.21348
1749.12107,0.21707
1751.04954,0.21149
1752.97801,0.19898
1754.90648,0.19190
1756.83495,0.19166
1758.76342,0.19419
1760.69189,0.19793
1762.62035,0.19620
1764.54882,0.19093
1766.47729,0.19324
1768.40576,0.20229
1770.33423,0.21263
1772.26270,0.21442
1774.19117,0.20100
1776.11964,0.18916
1778.04810,0.18651
1779.97657,0.18884
1781.90504,0.18946
1783.83351,0.18832
1785.76198,0.18790
1787.69045,0.18958
1789.61892,0.19738
1791.54738,0.20751
1793.47585,0.20528
1795.40432,0.19553
1797.33279,0.19115
1799.26126,0.19256
1801.18973,0.19186
1803.11820,0.18588
1805.04666,0.18233
1806.97513,0.18454
1808.90360,0.18999
1810.83207,0.19335
1812.76054,0.19031
1814.68901,0.18609
1816.61748,0.18527
1818.54595,0.18574
1820.47441,0.18677
1822.40288,0.19052
1824.33135,0.19465
1826.25982,0.19592
1828.18829,0.19902
1830.11676,0.20015
1832.04523,0.19152
1833.97369,0.18397
1835.90216,0.18421
1837.83063,0.18621
1839.75910,0.18694
1841.68757,0.19309
1843.61604,0.20295
1845.54451,0.20214
1847.47298,0.19320
1849.40144,0.18602
1851.32991,0.18212
1853.25838,0.18107
1855.18685,0.18169
1857.11532,0.18318
1859.04379,0.18433
1860.97226,0.18350
1862.90072,0.18235
1864.82919,0.18623
1866.75766,0.19739
1868.68613,0.20483
1870.61460,0.19650
1872.54307,0.18536
1874.47154,0.18051
1876.40001,0.17958
1878.32847,0.18091
1880.25694,0.18299
1882.18541,0.18423
1884.11388,0.18456
1886.04235,0.18499
1887.97082,0.18755
1889.89929,0.18944
1891.82775,0.18802
1893.75622,0.18740
1895.68469,0.18755
1897.61316,0.18598
1899.54163,0.18432
1901.47010,0.18398
1903.39857,0.18464
1905.32704,0.18531
1907.25550,0.18631
1909.18397,0.18746
1911.11244,0.18642
1913.04091,0.18421
1914.96938,0.18467
1916.89785,0.18858
1918.82632,0.19242
1920.75478,0.19424
1922.68325,0.19359
1924.61172,0.18957
1926.54019,0.18544
1928.46866,0.18260
1930.39713,0.18052
1932.32560,0.18002
1934.25407,0.18050
1936.18253,0.18108
1938.11100,0.18253
1940.03947,0.18671
1941.96794,0.19231
1943.89641,0.19352
1945.82488,0.18960
1947.75335,0.18485
1949.68181,0.18235
1951.61028,0.18264
1953.53875,0.18414
1955.46722,0.18633
1957.39569,0.18808
1959.32416,0.18744
1961.25263,0.18576
1963.18110,0.18532
1965.10956,0.18661
1967.03803,0.18789
1968.96650,0.18695
1970.89497,0.18531
1972.82344,0.18511
1974.75191,0.18544
1976.68038,0.18464
1978.60884,0.18387
1980.53731,0.18469
1982.46578,0.18446
1984.39425,0.18230
1986.32272,0.18254
1988.25119,0.18631
1990.17966,0.19007
1992.10812,0.19023
1994.03659,0.18677
1995.96506,0.18410
1997.89353,0.18401
1999.82200,0.18472
2001.75047,0.18499
2003.67894,0.18456
2005.60741,0.18384
2007.53587,0.18265
2009.46434,0.18107
2011.39281,0.18124
2013.32128,0.18377
2015.24975,0.18628
2017.17822,0.18697
2019.10669,0.18611
2021.03515,0.18478
2022.96362,0.18420
2024.89209,0.18481
2026.82056,0.18532
2028.74903,0.18476
2030.67750,0.18383
2032.60597,0.18334
2034.53444,0.18368
2036.46290,0.18478
2038.39137,0.18538
2040.31984,0.18542
2042.24831,0.18654
2044.17678,0.18818
2046.10525,0.18782
2048.03372,0.18638
2049.96218,0.18610
2051.89065,0.18614
2053.81912,0.18659
2055.74759,0.18758
2057.67606,0.18713
2059.60453,0.18598
2061.53300,0.18675
2063.46147,0.18872
2065.38993,0.18869
2067.31840,0.18713
2069.24687,0.18643
2071.17534,0.18515
2073.10381,0.18286
2075.03228,0.18167
2076.96075,0.18183
2078.88921,0.18360
2080.81768,0.18610
2082.74615,0.18658
2084.67462,0.18536
2086.60309,0.18537
2088.53156,0.18727
2090.46003,0.18798
2092.38850,0.18694
2094.31696,0.18735
2096.24543,0.18930
2098.17390,0.19020
2100.10237,0.18952
2102.03084,0.18895
2103.95931,0.18874
2105.88778,0.18810
2107.81624,0.18707
2109.74471,0.18540
2111.67318,0.18487
2113.60165,0.18671
2115.53012,0.18764
2117.45859,0.18654
2119.38706,0.18644
2121.31553,0.18838
2123.24399,0.19075
2125.17246,0.19134
2127.10093,0.18934
2129.02940,0.18702
2130.95787,0.18655
2132.88634,0.18710
2134.81481,0.18700
2136.74327,0.18653
2138.67174,0.18665
2140.60021,0.18673
2142.52868,0.18691
2144.45715,0.18840
2146.38562,0.18868
2148.31409,0.18632
2150.24255,0.18504
2152.17102,0.18596
2154.09949,0.18694
2156.02796,0.18702
2157.95643,0.18657
2159.88490,0.18673
2161.81337,0.18849
2163.74184,0.19055
2165.67030,0.19110
2167.59877,0.19087
2169.52724,0.19035
2171.45571,0.18914
2173.38418,0.18767
2175.31265,0.18698
2177.24112,0.18800
2179.16958,0.19010
2181.09805,0.19171
2183.02652,0.19172
2184.95499,0.19064
2186.88346,0.18950
2188.81193,0.18772
2190.74040,0.18560
2192.66887,0.18477
2194.59733,0.18505
2196.52580,0.18606
2198.45427,0.18734
2200.38274,0.18689
2202.31121,0.18511
2204.23968,0.18461
2206.16815,0.18578
2208.09661,0.18758
2210.02508,0.18931
2211.95355,0.18999
2213.88202,0.19018
2215.81049,0.19082
2217.73896,0.19055
2219.66743,0.18921
2221.59590,0.18860
2223.52436,0.18905
2225.45283,0.18951
2227.38130,0.18936
2229.30977,0.18884
2231.23824,0.18844
2233.16671,0.18764
2235.09518,0.18585
2237.02364,0.18540
2238.95211,0.18728
2240.88058,0.18841
2242.80905,0.18839
2244.73752,0.18884
2246.66599,0.18841
2248.59446,0.18689
2250.52293,0.18662
2252.45139,0.18781
2254.37986,0.18864
2256.30833,0.18857
2258.23680,0.18856
2260.16527,0.18893
2262.09374,0.18863
2264.02221,0.18755
2265.95067,0.18768
2267.87914,0.18846
2269.80761,0.18772
2271.73608,0.18845
2273.66455,0.19216
2275.59302,0.19398
2277.52149,0.19166
2279.44996,0.18748
2281.37842,0.18398
2283.30689,0.18342
2285.23536,0.18534
2287.16383,0.18642
2289.09230,0.18610
2291.02077,0.18654
2292.94924,0.18642
2294.87770,0.18412
2296.80617,0.18470
2298.73464,0.18950
2300.66311,0.19154
2302.59158,0.19031
2304.52005,0.19060
2306.44852,0.19276
2308.37699,0.19428
2310.30545,0.19237
2312.23392,0.18831
2314.16239,0.18798
2316.09086,0.19220
2318.01933,0.19570
2319.94780,0.19463
2321.87627,0.19023
2323.80473,0.18813
2325.73320,0.18891
2327.66167,0.18906
2329.59014,0.19018
2331.51861,0.19352
2333.44708,0.19515
2335.37555,0.19328
2337.30401,0.19223
2339.23248,0.19552
2341.16095,0.20451
2343.08942,0.21082
2345.01789,0.20312
2346.94636,0.19406
2348.87483,0.19243
2350.80330,0.19297
2352.73176,0.19303
2354.66023,0.19198
2356.58870,0.18695
2358.51717,0.18377
2360.44564,0.18441
2362.37411,0.18213
2364.30258,0.18434
2366.23104,0.18314
2368.15951,0.17503
2370.08798,0.17825
2372.01645,0.18655
2373.94492,0.18761
2375.87339,0.18585
2377.80186,0.18524
2379.73033,0.18535
2381.65879,0.18482
2383.58726,0.18321
2385.51573,0.18272
2387.44420,0.18453
2389.37267,0.18659
2391.30114,0.18747
2393.22961,0.18837
2395.15807,0.18978
2397.08654,0.18982
2399.01501,0.18884
2400.94348,0.18952
2402.87195,0.19040
2404.80042,0.18837
2406.72889,0.18650
2408.65736,0.18812
2410.58582,0.18963
2412.51429,0.18791
2414.44276,0.18586
2416.37123,0.18620
2418.29970,0.18756
2420.22817,0.18885
2422.15664,0.19039
2424.08510,0.19085
2426.01357,0.18982
2427.94204,0.18872
2429.87051,0.18774
2431.79898,0.18760
2433.72745,0.18874
2435.65592,0.18881
2437.58439,0.18773
2439.51285,0.18715
2441.44132,0.18638
2443.36979,0.18571
2445.29826,0.18620
2447.22673,0.18719
2449.15520,0.18810
2451.08367,0.18966
2453.01213,0.19235
2454.94060,0.19426
2456.86907,0.19279
2458.79754,0.18975
2460.72601,0.18893
2462.65448,0.18977
2464.58295,0.19072
2466.51142,0.19226
2468.43988,0.19416
2470.36835,0.19478
2472.29682,0.19382
2474.22529,0.19280
2476.15376,0.19170
2478.08223,0.19051
2480.01070,0.18941
2481.93916,0.18781
2483.86763,0.18807
2485.79610,0.19042
2487.72457,0.19141
2489.65304,0.19056
2491.58151,0.18962
2493.50998,0.18982
2495.43844,0.19043
2497.36691,0.19003
2499.29538,0.18881
2501.22385,0.18700
2503.15232,0.18588
2505.08079,0.18670
2507.00926,0.18747
2508.93773,0.18738
2510.86619,0.18902
2512.79466,0.19215
2514.72313,0.19381
2516.65160,0.19341
2518.58007,0.19266
2520.50854,0.19293
2522.43701,0.19311
2524.36547,0.19223
2526.29394,0.19203
2528.22241,0.19323
2530.15088,0.19392
2532.07935,0.19291
2534.00782,0.19059
2535.93629,0.18811
2537.86476,0.18722
2539.79322,0.18846
2541.72169,0.19048
2543.65016,0.19197
2545.57863,0.19224
2547.50710,0.19069
2549.43557,0.18849
2551.36404,0.18866
2553.29250,0.19128
2555.22097,0.19344
2557.14944,0.19372
2559.07791,0.19219
2561.00638,0.18941
2562.93485,0.18890
2564.86332,0.19179
2566.79179,0.19303
2568.72025,0.19106
2570.64872,0.18977
2572.57719,0.19076
2574.50566,0.19207
2576.43413,0.19245
2578.36260,0.19283
2580.29107,0.19383
2582.21953,0.19523
2584.14800,0.19691
2586.07647,0.19880
2588.00494,0.19926
2589.93341,0.19720
2591.86188,0.19423
2593.79035,0.19212
2595.71882,0.19188
2597.64728,0.19269
2599.57575,0.19280
2601.50422,0.19232
2603.43269,0.19269
2605.36116,0.19343
2607.28963,0.19283
2609.21810,0.19216
2611.14656,0.19319
2613.07503,0.19419
2615.00350,0.19368
2616.93197,0.19423
2618.86044,0.19717
2620.78891,0.19937
2622.71738,0.19829
2624.64585,0.19528
2626.57431,0.19369
2628.50278,0.19449
2630.43125,0.19575
2632.35972,0.19558
2634.28819,0.19484
2636.21666,0.19613
2638.14513,0.19826
2640.07359,0.19849
2642.00206,0.19792
2643.93053,0.19785
2645.85900,0.19750
2647.78747,0.19645
2649.71594,0.19550
2651.64441,0.19696
2653.57288,0.19940
2655.50134,0.19896
2657.42981,0.19732
2659.35828,0.19566
2661.28675,0.19433
2663.21522,0.19516
2665.14369,0.19652
2667.07216,0.19777
2669.00062,0.19990
2670.92909,0.20149
2672.85756,0.20130
2674.78603,0.19963
2676.71450,0.19684
2678.64297,0.19496
2680.57144,0.19662
2682.49990,0.19850
2684.42837,0.19649
2686.35684,0.19391
2688.28531,0.19343
2690.21378,0.19319
2692.14225,0.19327
2694.07072,0.19504
2695.99919,0.19731
2697.92765,0.19838
2699.85612,0.19867
2701.78459,0.19842
2703.71306,0.19807
2705.64153,0.19903
2707.57000,0.20001
2709.49847,0.19911
2711.42693,0.19767
2713.35540,0.19815
2715.28387,0.19970
2717.21234,0.20047
2719.14081,0.20150
2721.06928,0.20206
2722.99775,0.19991
2724.92622,0.19810
2726.85468,0.20008
2728.78315,0.20198
2730.71162,0.20089
2732.64009,0.19994
2734.56856,0.20000
2736.49703,0.19985
2738.42550,0.20011
2740.35396,0.20038
2742.28243,0.19921
2744.21090,0.19751
2746.13937,0.19651
2748.06784,0.19698
2749.99631,0.20008
2751.92478,0.20312
2753.85325,0.20379
2755.78171,0.20391
2757.71018,0.20340
2759.63865,0.20213
2761.56712,0.20086
2763.49559,0.19935
2765.42406,0.19993
2767.35253,0.20314
2769.28099,0.20459
2771.20946,0.20460
2773.13793,0.20740
2775.06640,0.21011
2776.99487,0.20745
2778.92334,0.20314
2780.85181,0.20228
2782.78028,0.20214
2784.70874,0.20075
2786.63721,0.20114
2788.56568,0.20413
2790.49415,0.20642
2792.42262,0.20637
2794.35109,0.20641
2796.27956,0.20688
2798.20802,0.20536
2800.13649,0.20322
2802.06496,0.20299
2803.99343,0.20352
2805.92190,0.20320
2807.85037,0.20278
2809.77884,0.20414
2811.70731,0.20648
2813.63577,0.20712
2815.56424,0.20634
2817.49271,0.20483
2819.42118,0.20374
2821.34965,0.20491
2823.27812,0.20580
2825.20659,0.20489
2827.13505,0.20403
2829.06352,0.20400
2830.99199,0.20451
2832.92046,0.20502
2834.84893,0.20703
2836.77740,0.21035
2838.70587,0.21086
2840.63433,0.20951
2842.56280,0.21087
2844.49127,0.21289
2846.41974,0.21248
2848.34821,0.21104
2850.27668,0.20910
2852.20515,0.20717
2854.13362,0.20607
2856.06208,0.20586
2857.99055,0.20675
2859.91902,0.20681
2861.84749,0.20592
2863.77596,0.20750
2865.70443,0.20969
2867.63290,0.20726
2869.56136,0.20323
2871.48983,0.20394
2873.41830,0.20748
2875.34677,0.20881
2877.27524,0.20830
2879.20371,0.20844
2881.13218,0.20799
2883.06065,0.20570
2884.98911,0.20470
2886.91758,0.20659
2888.84605,0.20845
2890.77452,0.20712
2892.70299,0.20311
2894.63146,0.20087
2896.55993,0.20276
2898.48839,0.20562
2900.41686,0.20541
2902.34533,0.20296
2904.27380,0.20248
2906.20227,0.20427
2908.13074,0.20487
2910.05921,0.20230
2911.98768,0.19992
2913.91614,0.20137
2915.84461,0.20427
2917.77308,0.20628
2919.70155,0.20700
2921.63002,0.20649
2923.55849,0.20626
2925.48696,0.20602
2927.41542,0.20553
2929.34389,0.20668
2931.27236,0.20856
2933.20083,0.20807
2935.12930,0.20580
2937.05777,0.20475
2938.98624,0.20617
2940.91471,0.20730
2942.84317,0.20584
2944.77164,0.20453
2946.70011,0.20345
2948.62858,0.20249
2950.55705,0.20511
2952.48552,0.20909
2954.41399,0.20958
2956.34245,0.20658
2958.27092,0.20370
2960.19939,0.20360
2962.12786,0.20577
2964.05633,0.20867
2965.98480,0.21154
2967.91327,0.21384
2969.84174,0.21379
2971.77020,0.21283
2973.69867,0.21383
2975.62714,0.21217
2977.55561,0.20698
2979.48408,0.20562
2981.41255,0.20769
2983.34102,0.20843
2985.26948,0.20726
2987.19795,0.20631
2989.12642,0.20875
2991.05489,0.21255
2992.98336,0.21357
2994.91183,0.21364
2996.84030,0.21485
2998.76877,0.21552
3000.69723,0.21610
3002.62570,0.21759
3004.55417,0.21752
3006.48264,0.21475
3008.41111,0.21250
3010.33958,0.21269
3012.26805,0.20950
3014.19651,0.19901
3016.12498,0.19154
3018.05345,0.19723
3019.98192,0.20873
3021.91039,0.21561
3023.83886,0.21829
3025.76733,0.21752
3027.69579,0.21462
3029.62426,0.21484
3031.55273,0.21661
3033.48120,0.21550
3035.40967,0.21371
3037.33814,0.21312
3039.26661,0.21290
3041.19508,0.21274
3043.12354,0.21317
3045.05201,0.21457
3046.98048,0.21449
3048.90895,0.21270
3050.83742,0.21175
3052.76589,0.21087
3054.69436,0.20974
3056.62282,0.21013
3058.55129,0.21394
3060.47976,0.21883
3062.40823,0.21972
3064.33670,0.21631
3066.26517,0.21174
3068.19364,0.21058
3070.12211,0.21345
3072.05057,0.21518
3073.97904,0.21291
3075.90751,0.20961
3077.83598,0.21124
3079.76445,0.21625
3081.69292,0.21698
3083.62139,0.21203
3085.54985,0.20795
3087.47832,0.21079
3089.40679,0.21636
3091.33526,0.21813
3093.26373,0.21589
3095.19220,0.21230
3097.12067,0.21170
3099.04914,0.21283
3100.97760,0.21050
3102.90607,0.20704
3104.83454,0.20711
3106.76301,0.21024
3108.69148,0.21377
3110.61995,0.21393
3112.54842,0.21148
3114.47688,0.21217
3116.40535,0.21454
3118.33382,0.21462
3120.26229,0.21595
3122.19076,0.21804
3124.11923,0.21626
3126.04770,0.21411
3127.97617,0.21429
3129.90463,0.21514
3131.83310,0.21635
3133.76157,0.21599
3135.69004,0.21548
3137.61851,0.21702
3139.54698,0.21796
3141.47545,0.21724
3143.40391,0.21611
3145.33238,0.21543
3147.26085,0.21552
3149.18932,0.21617
3151.11779,0.21715
3153.04626,0.21768
3154.97473,0.21627
3156.90320,0.21387
3158.83166,0.21345
3160.76013,0.21440
3162.68860,0.21463
3164.61707,0.21522
3166.54554,0.21657
3168.47401,0.21649
3170.40248,0.21556
3172.33094,0.21546
3174.25941,0.21602
3176.18788,0.21894
3178.11635,0.22321
3180.04482,0.22331
3181.97329,0.22047
3183.90176,0.22043
3185.83022,0.21972
3187.75869,0.21393
3189.68716,0.20901
3191.61563,0.21023
3193.54410,0.21557
3195.47257,0.22032
3197.40104,0.22138
3199.32951,0.21936
3201.25797,0.21757
3203.18644,0.21819
3205.11491,0.21854
3207.04338,0.21622
3208.97185,0.21458
3210.90032,0.21548
3212.82879,0.21623
3214.75725,0.21594
3216.68572,0.21592
3218.61419,0.21755
3220.54266,0.21958
3222.47113,0.21973
3224.39960,0.21903
3226.32807,0.21845
3228.25654,0.21788
3230.18500,0.21725
3232.11347,0.21678
3234.04194,0.21700
3235.97041,0.21735
3237.89888,0.21767
3239.82735,0.21687
3241.75582,0.21406
3243.68428,0.21155
3245.61275,0.21086
3247.54122,0.21165
3249.46969,0.21300
3251.39816,0.21328
3253.32663,0.21356
3255.25510,0.21602
3257.18357,0.21789
3259.11203,0.21633
3261.04050,0.21335
3262.96897,0.21091
3264.89744,0.20912
3266.82591,0.20873
3268.75438,0.21157
3270.68285,0.21693
3272.61131,0.21950
3274.53978,0.21660
3276.46825,0.21326
3278.39672,0.21353
3280.32519,0.21408
3282.25366,0.21380
3284.18213,0.21578
3286.11060,0.21748
3288.03906,0.21534
3289.96753,0.21370
3291.89600,0.21535
3293.82447,0.21614
3295.75294,0.21464
3297.68141,0.21281
3299.60988,0.21290
3301.53834,0.21637
3303.46681,0.21906
3305.39528,0.21653
3307.32375,0.21153
3309.25222,0.20890
3311.18069,0.20909
3313.10916,0.20919
3315.03763,0.20801
3316.96609,0.20735
3318.89456,0.20951
3320.82303,0.21390
3322.75150,0.21687
3324.67997,0.21721
3326.60844,0.21787
3328.53691,0.21961
3330.46537,0.21977
3332.39384,0.21814
3334.32231,0.21632
3336.25078,0.21412
3338.17925,0.21215
3340.10772,0.21367
3342.03619,0.21752
3343.96466,0.21692
3345.89312,0.21250
3347.82159,0.21287
3349.75006,0.21738
3351.67853,0.21838
3353.60700,0.21796
3355.53547,0.22016
3357.46394,0.22204
3359.39240,0.22261
3361.32087,0.22206
3363.24934,0.21963
3365.17781,0.21758
3367.10628,0.21948
3369.03475,0.22441
3370.96322,0.22546
3372.89168,0.22296
3374.82015,0.22578
3376.74862,0.23097
3378.67709,0.22817
3380.60556,0.21953
3382.53403,0.21410
3384.46250,0.21424
3386.39097,0.21573
3388.31943,0.21504
3390.24790,0.21400
3392.17637,0.21493
3394.10484,0.21529
3396.03331,0.21258
3397.96178,0.21039
3399.89025,0.21254
3401.81871,0.21623
3403.74718,0.21771
3405.67565,0.21767
3407.60412,0.21783
3409.53259,0.21634
3411.46106,0.21181
3413.38953,0.20872
3415.31800,0.20942
3417.24646,0.21200
3419.17493,0.21568
3421.10340,0.21597
3423.03187,0.20994
3424.96034,0.20330
3426.88881,0.20074
3428.81728,0.20288
3430.74574,0.20696
3432.67421,0.20820
3434.60268,0.20657
3436.53115,0.20465
3438.45962,0.20324
3440.38809,0.20309
3442.31656,0.20426
3444.24503,0.20744
3446.17349,0.21210
3448.10196,0.21325
3450.03043,0.20964
3451.95890,0.20480
3453.88737,0.20041
3455.81584,0.19807
3457.74431,0.19963
3459.67277,0.20263
3461.60124,0.20256
3463.52971,0.20121
3465.45818,0.20098
3467.38665,0.20077
3469.31512,0.20179
3471.24359,0.20262
3473.17206,0.20010
3475.10052,0.19596
3477.02899,0.19330
3478.95746,0.19472
3480.88593,0.19918
3482.81440,0.20162
3484.74287,0.20283
3486.67134,0.20414
3488.59980,0.20006
3490.52827,0.19086
3492.45674,0.18618
3494.38521,0.18906
3496.31368,0.19018
3498.24215,0.18773
3500.17062,0.18878
3502.09909,0.19117
3504.02755,0.19034
3505.95602,0.18727
3507.88449,0.18499
3509.81296,0.18484
3511.74143,0.18293
3513.66990,0.17753
3515.59837,0.17497
3517.52683,0.17914
3519.45530,0.18526
3521.38377,0.18975
3523.31224,0.19233
3525.24071,0.19221
3527.16918,0.18877
3529.09765,0.18225
3531.02611,0.17839
3532.95458,0.17902
3534.88305,0.17853
3536.81152,0.17750
3538.73999,0.17967
3540.66846,0.18288
3542.59693,0.18535
3544.52540,0.18780
3546.45386,0.18892
3548.38233,0.18634
3550.31080,0.18270
3552.23927,0.17885
3554.16774,0.17257
3556.09621,0.16899
3558.02468,0.17177
3559.95314,0.17461
3561.88161,0.17410
3563.81008,0.17853
3565.73855,0.19247
3567.66702,0.19788
3569.59549,0.18417
3571.52396,0.17145
3573.45243,0.16701
3575.38089,0.16633
3577.30936,0.16543
3579.23783,0.16317
3581.16630,0.16110
3583.09477,0.16261
3585.02324,0.17056
3586.95171,0.18033
3588.88017,0.17791
3590.80864,0.17028
3592.73711,0.16894
3594.66558,0.16912
3596.59405,0.16536
3598.52252,0.16222
3600.45099,0.16119
3602.37946,0.15923
3604.30792,0.15912
3606.23639,0.16448
3608.16486,0.16942
3610.09333,0.16832
3612.02180,0.16865
3613.95027,0.17005
3615.87874,0.17188
3617.80720,0.17797
3619.73567,0.17446
3621.66414,0.15864
3623.59261,0.15001
3625.52108,0.15466
3627.44955,0.16985
3629.37802,0.17521
3631.30649,0.16111
3633.23495,0.15042
3635.16342,0.14653
3637.09189,0.14646
3639.02036,0.14750
3640.94883,0.14791
3642.87730,0.14913
3644.80577,0.15653
3646.73423,0.17365
3648.66270,0.18700
3650.59117,0.17107
3652.51964,0.15080
3654.44811,0.14467
3656.37658,0.14623
3658.30505,0.14576
3660.23352,0.14348
3662.16198,0.14157
3664.09045,0.13995
3666.01892,0.14160
3667.94739,0.15144
3669.87586,0.16301
3671.80433,0.16390
3673.73280,0.17067
3675.66126,0.18017
3677.58973,0.16732
3679.51820,0.14931
3681.44667,0.13865
3683.37514,0.13766
3685.30361,0.14492
3687.23208,0.15499
3689.16055,0.16109
3691.08901,0.15564
3693.01748,0.14403
3694.94595,0.13641
3696.87442,0.13679
3698.80289,0.14356
3700.73136,0.14931
3702.65983,0.14613
3704.58829,0.13971
3706.51676,0.14094
3708.44523,0.15331
3710.37370,0.16877
3712.30217,0.16384
3714.23064,0.14481
3716.15911,0.13522
3718.08757,0.13713
3720.01604,0.14354
3721.94451,0.14989
3723.87298,0.15682
3725.80145,0.15793
3727.72992,0.14997
3729.65839,0.14607
3731.58686,0.15476
3733.51532,0.17317
3735.44379,0.18471
3737.37226,0.17362
3739.30073,0.15715
3741.22920,0.15020
3743.15767,0.15356
3745.08614,0.15986
3747.01460,0.16241
3748.94307,0.17099
3750.87154,0.17702
3752.80001,0.15945
3754.72848,0.14282
3756.65695,0.13997
3758.58542,0.14241
3760.51389,0.14017
3762.44235,0.13808
3764.37082,0.14043
3766.29929,0.14271
3768.22776,0.14315
3770.15623,0.13992
3772.08470,0.13272
3774.01317,0.12940
3775.94163,0.13224
3777.87010,0.13696
3779.79857,0.13698
3781.72704,0.13213
3783.65551,0.12803
3785.58398,0.12648
3787.51245,0.12597
3789.44092,0.12603
3791.36938,0.12753
3793.29785,0.13082
3795.22632,0.13668
3797.15479,0.13979
3799.08326,0.13903
3801.01173,0.14079
3802.94020,0.13960
3804.86866,0.13869
3806.79713,0.14134
3808.72560,0.13866
3810.65407,0.13267
3812.58254,0.13091
3814.51101,0.13797
3816.43948,0.14876
3818.36795,0.15486
3820.29641,0.16045
3822.22488,0.15414
3824.15335,0.14102
3826.08182,0.13366
3828.01029,0.12943
3829.93876,0.13113
3831.86723,0.13889
3833.79569,0.14561
3835.72416,0.15205
3837.65263,0.16104
3839.58110,0.16332
3841.50957,0.15697
3843.43804,0.14633
3845.36651,0.13380
3847.29498,0.12809
3849.22344,0.13374
3851.15191,0.14959
3853.08038,0.16617
3855.00885,0.15433
3856.93732,0.13444
3858.86579,0.12643
3860.79426,0.13026
3862.72272,0.14047
3864.65119,0.14356
3866.57966,0.13786
3868.50813,0.13639
3870.43660,0.13946
3872.36507,0.13869
3874.29354,0.13293
3876.22200,0.12664
3878.15047,0.12743
3880.07894,0.13253
3882.00741,0.13357
3883.93588,0.13586
3885.86435,0.13496
3887.79282,0.12693
3889.72129,0.12708
3891.64975,0.13323
3893.57822,0.12948
3895.50669,0.12184
3897.43516,0.12145
3899.36363,0.13114
3901.29210,0.14603
3903.22057,0.15366
3905.14903,0.14416
3907.07750,0.12696
3909.00597,0.11732
3910.93444,0.11680
3912.86291,0.11782
3914.79138,0.11670
3916.71985,0.11625
3918.64832,0.11736
3920.57678,0.11814
3922.50525,0.11785
3924.43372,0.11596
3926.36219,0.11226
3928.29066,0.11075
3930.21913,0.11318
3932.14760,0.11416
3934.07606,0.11190
3936.00453,0.11162
3937.93300,0.11337
3939.86147,0.11460
3941.78994,0.11650
3943.71841,0.11678
3945.64688,0.11507
3947.57535,0.11832
3949.50381,0.12303
3951.43228,0.11942
3953.36075,0.11103
3955.28922,0.10517
3957.21769,0.10443
3959.14616,0.10916
3961.07463,0.11495
3963.00309,0.11559
3964.93156,0.11242
3966.86003,0.11080
3968.78850,0.11079
3970.71697,0.11066
3972.64544,0.11124
3974.57391,0.11182
3976.50238,0.10958
3978.43084,0.10525
3980.35931,0.10433
3982.28778,0.10866
3984.21625,0.11176
3986.14472,0.10875
3988.07319,0.10362
3990.00166,0.10171
3991.93012,0.10187
3993.85859,0.10199
3995.78706,0.10285
3997.71553,0.10388
3999.64400,0.10424
4001.57247,0.10493
4003.50094,0.10577
4005.42941,0.10624
4007.35787,0.10672
4009.28634,0.10431
4011.21481,0.09988
4013.14328,0.09971
4015.07175,0.10248
4017.00022,0.10246
4018.92869,0.10075
4020.85715,0.10178
4022.78562,0.10201
4024.71409,0.09701
4026.64256,0.09324
4028.57103,0.09505
4030.49950,0.09694
4032.42797,0.09752
4034.35644,0.10021
4036.28490,0.10252
4038.21337,0.10063
4040.14184,0.09783
4042.07031,0.09775
4043.99878,0.09761
4045.92725,0.09707
4047.85572,0.09991
4049.78418,0.10259
4051.71265,0.09981
4053.64112,0.09606
4055.56959,0.09778
4057.49806,0.10074
4059.42653,0.09902
4061.35500,0.09555
4063.28346,0.09439
4065.21193,0.09647
4067.14040,0.09842
4069.06887,0.09657
4070.99734,0.09469
4072.92581,0.09604
4074.85428,0.09693
4076.78275,0.09588
4078.71121,0.09618
4080.63968,0.09622
4082.56815,0.09282
4084.49662,0.08977
4086.42509,0.08966
4088.35356,0.08816
4090.28203,0.08610
4092.21049,0.08790
4094.13896,0.08935
4096.06743,0.08765
4097.99590,0.08513
4099.92437,0.08374
4101.85284,0.08606
4103.78131,0.09016
4105.70978,0.09134
4107.63824,0.08810
4109.56671,0.08214
4111.49518,0.07908
4113.42365,0.08222
4115.35212,0.08653
4117.28059,0.08874
4119.20906,0.08940
4121.13752,0.08818
4123.06599,0.08842
4124.99446,0.09058
4126.92293,0.08976
4128.85140,0.08547
4130.77987,0.08368
4132.70834,0.08634
4134.63681,0.08840
4136.56527,0.08774
4138.49374,0.08595
4140.42221,0.08504
4142.35068,0.08544
4144.27915,0.08511
4146.20762,0.08344
4148.13609,0.08452
4150.06455,0.09009
4151.99302,0.09305
4153.92149,0.08963
4155.84996,0.08411
4157.77843,0.08010
4159.70690,0.08030
4161.63537,0.08320
4163.56384,0.08318
4165.49230,0.08153
4167.42077,0.08228
4169.34924,0.08503
4171.27771,0.08837
4173.20618,0.08963
4175.13465,0.08794
4177.06312,0.08463
4178.99158,0.08152
4180.92005,0.08072
4182.84852,0.08088
4184.77699,0.07925
4186.70546,0.07509
4188.63393,0.07200
4190.56240,0.07353
4192.49087,0.07617
4194.41933,0.07681
4196.34780,0.07684
4198.27627,0.07640
4200.20474,0.07583
4202.13321,0.07532
4204.06168,0.07217
4205.99015,0.06761
4207.91861,0.06888
4209.84708,0.07653
4211.77555,0.07980
4213.70402,0.07589
4215.63249,0.07226
4217.56096,0.06991
4219.48943,0.06550
4221.41789,0.06042
4223.34636,0.06023
4225.27483,0.06334
4227.20330,0.06399
4229.13177,0.06504
4231.06024,0.06746
4232.98871,0.06909
4234.91718,0.07296
4236.84564,0.07683
4238.77411,0.07620
4240.70258,0.07247
4242.63105,0.06676
4244.55952,0.06286
4246.48799,0.06234
4248.41646,0.06057
4250.34492,0.05609
4252.27339,0.05218
4254.20186,0.05554
4256.13033,0.06438
4258.05880,0.06904
4259.98727,0.07023
4261.91574,0.07040
4263.84421,0.06725
4265.77267,0.06148
4267.70114,0.05425
4269.62961,0.04765
4271.55808,0.04545
4273.48655,0.04961
4275.41502,0.05928
4277.34349,0.06703
4279.27195,0.06689
4281.20042,0.06516
4283.12889,0.06692
4285.05736,0.06750
4286.98583,0.06528
4288.91430,0.06337
4290.84277,0.05899
4292.77124,0.05134
4294.69970,0.04871
4296.62817,0.05209
4298.55664,0.05138
4300.48511,0.04421
4302.41358,0.04048
4304.34205,0.04459
4306.27052,0.05196
4308.19898,0.05782
4310.12745,0.05668
4312.05592,0.04993
4313.98439,0.04452
4315.91286,0.04179
4317.84133,0.04181
4319.76980,0.04534
4321.69827,0.04917
4323.62673,0.04970
4325.55520,0.04881
4327.48367,0.04983
4329.41214,0.05067
4331.34061,0.04916
4333.26908,0.04752
4335.19755,0.04631
4337.12601,0.04543
4339.05448,0.04724
4340.98295,0.04827
4342.91142,0.04350
4344.83989,0.03860
4346.76836,0.03995
4348.69683,0.04344
4350.62530,0.04437
4352.55376,0.04507
4354.48223,0.04709
4356.41070,0.04824
4358.33917,0.04826
4360.26764,0.04796
4362.19611,0.04554
4364.12458,0.03894
4366.05304,0.03091
4367.98151,0.02760
4369.90998,0.02890
4371.83845,0.02993
4373.76692,0.03043
4375.69539,0.03124
4377.62386,0.03352
4379.55232,0.03681
4381.48079,0.03600
4383.40926,0.03464
4385.33773,0.03984
4387.26620,0.04458
4389.19467,0.03980
4391.12314,0.03144
4393.05161,0.02863
4394.98007,0.03068
4396.90854,0.03433
4398.83701,0.03661
4400.76548,0.03483
4402.69395,0.03109
4404.62242,0.02855
4406.55089,0.02682
4408.47935,0.02367
4410.40782,0.01793
4412.33629,0.01310
4414.26476,0.01580
4416.19323,0.02667
4418.12170,0.03500
4420.05017,0.03379
4421.97864,0.02978
4423.90710,0.02667
4425.83557,0.02316
4427.76404,0.02208
4429.69251,0.02374
4431.62098,0.02480
4433.54945,0.02333
4435.47792,0.02137
4437.40638,0.02335
4439.33485,0.02861
4441.26332,0.03134
4443.19179,0.02984
4445.12026,0.02701
4447.04873,0.02858
4448.97720,0.03591
4450.90567,0.03590
4452.83413,0.02425
4454.76260,0.01447
4456.69107,0.01055
4458.61954,0.01094
4460.54801,0.01688
4462.47648,0.02168
4464.40495,0.01735
4466.33341,0.00787
4468.26188,0.00294
4470.19035,0.00475
4472.11882,0.00985
4474.04729,0.01462
4475.97576,0.01392
4477.90423,0.00855
4479.83270,0.00624
4481.76116,0.01252
4483.68963,0.02342
4485.61810,0.02373
4487.54657,0.01234
4489.47504,0.00620
4491.40351,0.00729
4493.33198,0.00772
4495.26044,0.00893
4497.18891,0.01351
4499.11738,0.01733
4501.04585,0.01516
4502.97432,0.01119
4504.90279,0.01271
4506.83126,0.01673
4508.75973,0.01964
4510.68819,0.02179
4512.61666,0.01901
4514.54513,0.01064
4516.47360,0.00155
4518.40207,-0.00289
4520.33054,0.00189
4522.25901,0.00956
4524.18747,0.00989
4526.11594,0.00630
4528.04441,0.00956
4529.97288,0.01524
4531.90135,0.01150
4533.82982,0.00599
4535.75829,0.00827
4537.68676,0.01221
4539.61522,0.01103
4541.54369,0.00568
4543.47216,0.00281
4545.40063,0.00453
4547.32910,0.00389
4549.25757,-0.00200
4551.18604,-0.00410
4553.11450,0.00078
4555.04297,0.00420
4556.97144,0.00548
4558.89991,0.00610
4560.82838,0.00331
4562.75685,-0.00010
4564.68532,0.00125
4566.61378,0.00769
4568.54225,0.01120
4570.47072,0.00905
4572.39919,0.00892
4574.32766,0.01111
4576.25613,0.00949
4578.18460,0.00212
4580.11307,-0.00474
4582.04153,-0.00600
4583.97000,-0.00812
4585.89847,-0.00951
4587.82694,-0.00213
4589.75541,0.00535
4591.68388,0.00537
4593.61235,0.00512
4595.54081,0.00937
4597.46928,0.01478
4599.39775,0.01522
4601.32622,0.01020
4603.25469,0.00285
4605.18316,-0.00619
4607.11163,-0.00967
4609.04010,-0.00397
4610.96856,0.00006
4612.89703,0.00161
4614.82550,0.00962
4616.75397,0.01738
4618.68244,0.01682
4620.61091,0.01192
4622.53938,0.00498
4624.46784,0.00006
4626.39631,0.00170
4628.32478,0.00537
4630.25325,0.00598
4632.18172,0.00273
4634.11019,-0.00303
4636.03866,-0.00772
4637.96713,-0.00921
4639.89559,-0.00787
4641.82406,-0.00589
4643.75253,-0.00382
4645.68100,0.00169
4647.60947,0.00887
4649.53794,0.01314
4651.46641,0.01376
4653.39487,0.01227
4655.32334,0.01202
4657.25181,0.00971
4659.18028,0.00486
4661.10875,0.00531
4663.03722,0.00692
4664.96569,0.00658
4666.89416,0.00960
4668.82262,0.01095
4670.75109,0.00650
4672.67956,0.00190
4674.60803,-0.00100
4676.53650,-0.00214
4678.46497,0.00057
4680.39344,0.00497
4682.32190,0.00609
4684.25037,0.00453
4686.17884,0.00481
4688.10731,0.00554
4690.03578,0.00253
4691.96425,0.00039
4693.89272,0.00480
4695.82119,0.00844
4697.74965,0.00665
4699.67812,0.00321
4701.60659,-0.00211
4703.53506,-0.00302
4705.46353,0.00653
4707.39200,0.01418
4709.32047,0.00673
4711.24893,-0.00710
4713.17740,-0.01056
4715.10587,-0.00401
4717.03434,-0.00129
4718.96281,-0.00820
4720.89128,-0.00887
4722.81975,0.00605
4724.74821,0.01813
4726.67668,0.01641
4728.60515,0.01179
4730.53362,0.00979
4732.46209,0.00571
4734.39056,-0.00226
4736.31903,-0.00708
4738.24750,-0.00272
4740.17596,0.00686
4742.10443,0.01525
4744.03290,0.01682
4745.96137,0.01347
4747.88984,0.01097
4749.81831,0.00857
4751.74678,0.00798
4753.67524,0.00737
4755.60371,0.00311
4757.53218,0.00471
4759.46065,0.01404
4761.38912,0.02140
4763.31759,0.02605
4765.24606,0.02681
4767.17453,0.01758
4769.10299,0.00580
4771.03146,0.00069
4772.95993,0.00050
4774.88840,0.00726
4776.81687,0.01690
4778.74534,0.01467
4780.67381,0.00188
4782.60227,-0.00763
4784.53074,-0.01061
4786.45921,-0.01214
4788.38768,-0.01165
4790.31615,-0.00714
4792.24462,-0.00304
4794.17309,0.00224
4796.10156,0.00745
4798.03002,0.00704
4799.95849,0.00346
4801.88696,-0.00120
4803.81543,-0.00162
4805.74390,0.00665
4807.67237,0.01430
4809.60084,0.01293
4811.52930,0.00564
4813.45777,-0.00168
4815.38624,-0.00132
4817.31471,0.00842
4819.24318,0.01219
4821.17165,0.00520
4823.10012,-0.00035
4825.02859,-0.00005
4826.95705,0.00064
4828.88552,-0.00234
4830.81399,-0.00550
4832.74246,-0.00303
4834.67093,0.00148
4836.59940,0.00228
4838.52787,0.00184
4840.45633,0.00260
4842.38480,0.00511
4844.31327,0.00652
4846.24174,0.00413
4848.17021,0.00602
4850.09868,0.01498
4852.02715,0.01947
4853.95562,0.01571
4855.88408,0.01190
4857.81255,0.01067
4859.74102,0.00684
4861.66949,0.00172
4863.59796,0.00030
4865.52643,0.00236
4867.45490,0.00532
4869.38336,0.00386
4871.31183,0.00148
4873.24030,0.00562
4875.16877,0.00952
4877.09724,0.01066
4879.02571,0.01282
4880.95418,0.01145
4882.88265,0.00621
4884.81111,0.00162
4886.73958,0.00159
4888.66805,0.00783
4890.59652,0.01325
4892.52499,0.01246
4894.45346,0.00914
4896.38193,0.00750
4898.31039,0.00867
4900.23886,0.01078
4902.16733,0.01044
4904.09580,0.00565
4906.02427,-0.00110
4907.95274,-0.00174
4909.88121,0.01006
4911.80967,0.01926
4913.73814,0.01190
4915.66661,0.00471
4917.59508,0.00710
4919.52355,0.00574
4921.45202,-0.00298
4923.38049,-0.00838
4925.30896,-0.00943
4927.23742,-0.01022
4929.16589,-0.00547
4931.09436,0.00159
4933.02283,0.00246
4934.95130,0.00220
4936.87977,0.01024
4938.80824,0.01851
4940.73670,0.01488
4942.66517,0.00905
4944.59364,0.00680
4946.52211,0.00158
4948.45058,-0.00366
4950.37905,0.00013
4952.30752,0.01116
4954.23599,0.01670
4956.16445,0.01185
4958.09292,0.00265
4960.02139,-0.00231
4961.94986,-0.00130
4963.87833,-0.00046
4965.80680,-0.00268
4967.73527,-0.00182
4969.66373,0.00333
4971.59220,0.00522
4973.52067,0.00764
4975.44914,0.01237
4977.37761,0.01187
4979.30608,0.01439
4981.23455,0.02430
4983.16302,0.02778
4985.09148,0.02155
4987.01995,0.01282
4988.94842,0.00542
4990.87689,0.00080
4992.80536,-0.00656
4994.73383,-0.01630
4996.66230,-0.01348
4998.59076,0.00395
5000.51923,0.01739
5002.44770,0.01803
5004.37617,0.01570
5006.30464,0.01281
5008.23311,0.01022
5010.16158,0.01578
5012.09005,0.02400
5014.01851,0.02611
5015.94698,0.02299
5017.87545,0.01800
5019.80392,0.01582
5021.73239,0.01818
5023.66086,0.01617
5025.58933,0.00359
5027.51779,-0.00646
5029.44626,-0.00369
5031.37473,0.00108
5033.30320,0.00304
5035.23167,0.01387
5037.16014,0.02826
5039.08861,0.03170
5041.01708,0.02680
5042.94554,0.01766
5044.87401,0.01167
5046.80248,0.01418
5048.73095,0.01468
5050.65942,0.01559
5052.58789,0.02717
5054.51636,0.03379
5056.44482,0.02071
5058.37329,0.00504
5060.30176,0.00238
5062.23023,0.00532
5064.15870,0.00676
5066.08717,0.00718
5068.01564,0.00530
5069.94410,0.00551
5071.87257,0.01417
5073.80104,0.01673
5075.72951,0.00376
5077.65798,-0.00196
5079.58645,0.01141
5081.51492,0.02620
5083.44339,0.03345
5085.37185,0.03568
5087.30032,0.03620
5089.22879,0.04518
5091.15726,0.05583
5093.08573,0.05106
5095.01420,0.03657
5096.94267,0.02282
5098.87113,0.01113
5100.79960,0.00794
5102.72807,0.01732
5104.65654,0.02783
5106.58501,0.03055
5108.51348,0.02688
5110.44195,0.02284
5112.37042,0.02669
5114.29888,0.03258
5116.22735,0.03109
5118.15582,0.02833
5120.08429,0.03054
5122.01276,0.03095
5123.94123,0.02087
5125.86970,0.01219
5127.79816,0.02316
5129.72663,0.04171
5131.65510,0.04635
5133.58357,0.03865
5135.51204,0.02821
5137.44051,0.01980
5139.36898,0.01892
5141.29745,0.02278
5143.22591,0.02335
5145.15438,0.02242
5147.08285,0.02365
5149.01132,0.03114
5150.93979,0.04635
5152.86826,0.05683
5154.79673,0.05142
5156.72519,0.04057
5158.65366,0.04281
5160.58213,0.05084
5162.51060,0.05020
5164.43907,0.04519
5166.36754,0.03909
5168.29601,0.02497
5170.22448,0.00517
5172.15294,-0.00366
5174.08141,0.00485
5176.00988,0.02109
5177.93835,0.03711
5179.86682,0.04912
5181.79529,0.05365
5183.72376,0.05082
5185.65222,0.04146
5187.58069,0.02986
5189.50916,0.03094
5191.43763,0.04861
5193.36610,0.06173
5195.29457,0.05338
5197.22304,0.03548
5199.15151,0.03142
5201.07997,0.03828
5203.00844,0.03973
5204.93691,0.03835
5206.86538,0.04476
5208.79385,0.05468
5210.72232,0.05152
5212.65079,0.03652
5214.57925,0.02601
5216.50772,0.02237
5218.43619,0.01940
5220.36466,0.01891
5222.29313,0.02261
5224.22160,0.02406
5226.15007,0.02131
5228.07854,0.01958
5230.00700,0.02142
5231.93547,0.03000
5233.86394,0.03592
5235.79241,0.03652
5237.72088,0.04203
5239.64935,0.04474
5241.57782,0.04194
5243.50628,0.04093
5245.43475,0.04172
5247.36322,0.04229
5249.29169,0.04026
5251.22016,0.03779
5253.14863,0.03772
5255.07710,0.03935
5257.00556,0.04125
5258.93403,0.04326
5260.86250,0.04537
5262.79097,0.04408
5264.71944,0.03950
5266.64791,0.03881
5268.57638,0.04358
5270.50485,0.04607
5272.43331,0.04210
5274.36178,0.04128
5276.29025,0.05300
5278.21872,0.06704
5280.14719,0.06514
5282.07566,0.05073
5284.00413,0.04130
5285.93259,0.04168
5287.86106,0.04550
5289.78953,0.04316
5291.71800,0.02989
5293.64647,0.02639
5295.57494,0.03931
5297.50341,0.04088
5299.43188,0.02965
5301.36034,0.02894
5303.28881,0.03637
5305.21728,0.04260
5307.14575,0.04444
5309.07422,0.04229
5311.00269,0.04008
5312.93116,0.03891
5314.85962,0.04444
5316.78809,0.04407
5318.71656,0.02610
5320.64503,0.01894
5322.57350,0.03537
5324.50197,0.05264
5326.43044,0.06044
5328.35891,0.06353
5330.28737,0.06152
5332.21584,0.05949
5334.14431,0.06811
5336.07278,0.07718
5338.00125,0.06348
5339.92972,0.04648
5341.85819,0.06167
5343.78665,0.08248
5345.71512,0.07069
5347.64359,0.05192
5349.57206,0.04800
5351.50053,0.05114
5353.42900,0.05724
5355.35747,0.05842
5357.28594,0.05216
5359.21440,0.04745
5361.14287,0.05120
5363.07134,0.06577
5364.99981,0.08373
5366.92828,0.08828
5368.85675,0.07876
5370.78522,0.06846
5372.71368,0.06228
5374.64215,0.06331
5376.57062,0.07315
5378.49909,0.07799
5380.42756,0.07062
5382.35603,0.06120
5384.28450,0.05899
5386.21297,0.06368
5388.14143,0.06899
5390.06990,0.06531
5391.99837,0.06051
5393.92684,0.06808
5395.85531,0.06932
5397.78378,0.05596
5399.71225,0.04510
5401.64071,0.03793
5403.56918,0.02767
5405.49765,0.02441
5407.42612,0.03674
5409.35459,0.05184
5411.28306,0.06164
5413.21153,0.06492
5415.13999,0.06839
5417.06846,0.07660
5418.99693,0.07362
5420.92540,0.06085
5422.85387,0.05505
5424.78234,0.05333
5426.71081,0.05401
5428.63928,0.06648
5430.56774,0.08332
5432.49621,0.09787
5434.42468,0.10522
5436.35315,0.09313
5438.28162,0.07756
5440.21009,0.06298
5442.13856,0.04396
5444.06702,0.04579
5445.99549,0.07187
5447.92396,0.08779
5449.85243,0.08602
5451.78090,0.08313
5453.70937,0.07841
5455.63784,0.06710
5457.56631,0.05049
5459.49477,0.03501
5461.42324,0.03249
5463.35171,0.04708
5465.28018,0.06374
5467.20865,0.07029
5469.13712,0.08059
5471.06559,0.09738
5472.99405,0.10614
5474.92252,0.10382
5476.85099,0.08646
5478.77946,0.06700
5480.70793,0.05966
5482.63640,0.05381
5484.56487,0.04192
5486.49334,0.04149
5488.42180,0.06052
5490.35027,0.06980
5492.27874,0.05881
5494.20721,0.05753
5496.13568,0.06853
5498.06415,0.06657
5499.99262,0.05313
5501.92108,0.05339
5503.84955,0.06796
5505.77802,0.07658
5507.70649,0.06676
5509.63496,0.05559
5511.56343,0.05844
5513.49190,0.06297
5515.42037,0.07345
5517.34883,0.09183
5519.27730,0.09824
5521.20577,0.09316
5523.13424,0.08496
5525.06271,0.06941
5526.99118,0.04951
5528.91965,0.03857
5530.84811,0.03816
5532.77658,0.04872
5534.70505,0.07853
5536.63352,0.10883
5538.56199,0.10570
5540.49046,0.07995
5542.41893,0.06504
5544.34740,0.06193
5546.27586,0.05727
5548.20433,0.04239
5550.13280,0.02417
5552.06127,0.02373
5553.98974,0.04159
5555.91821,0.06612
5557.84668,0.08858
5559.77514,0.10179
5561.70361,0.10719
5563.63208,0.10717
5565.56055,0.10267
5567.48902,0.10248
5569.41749,0.11087
5571.34596,0.11147
5573.27443,0.09219
5575.20289,0.06494
5577.13136,0.05442
5579.05983,0.06131
5580.98830,0.05662
5582.91677,0.03813
5584.84524,0.03453
5586.77371,0.04248
5588.70217,0.03907
5590.63064,0.02983
5592.55911,0.02859
5594.48758,0.03696
5596.41605,0.05405
5598.34452,0.06058
5600.27299,0.05813
5602.20145,0.07586
5604.12992,0.09717
5606.05839,0.09457
5607.98686,0.07663
5609.91533,0.06253
5611.84380,0.06764
5613.77227,0.07560
5615.70074,0.07098
5617.62920,0.07946
5619.55767,0.09025
5621.48614,0.07867
5623.41461,0.07176
5625.34308,0.07249
5627.27155,0.06060
5629.20002,0.05263
5631.12848,0.06216
5633.05695,0.07701
5634.98542,0.08826
5636.91389,0.10239
5638.84236,0.11603
5640.77083,0.11263
5642.69930,0.09778
5644.62777,0.09688
5646.55623,0.10718
5648.48470,0.09597
5650.41317,0.07310
5652.34164,0.07208
5654.27011,0.08568
5656.19858,0.09685
5658.12705,0.09939
5660.05551,0.08776
5661.98398,0.08519
5663.91245,0.10956
5665.84092,0.12536
5667.76939,0.11321
5669.69786,0.09000
5671.62633,0.07814
5673.55480,0.09406
5675.48326,0.11684
5677.41173,0.11017
5679.34020,0.08668
5681.26867,0.07878
5683.19714,0.07404
5685.12561,0.06321
5687.05408,0.06533
5688.98254,0.08006
5690.91101,0.08980
5692.83948,0.08824
5694.76795,0.08570
5696.69642,0.08054
5698.62489,0.06082
5700.55336,0.04695
5702.48183,0.06282
5704.41029,0.07833
5706.33876,0.05973
5708.26723,0.03806
5710.19570,0.04159
5712.12417,0.05479
5714.05264,0.07436
5715.98111,0.09891
5717.90957,0.11291
5719.83804,0.11501
5721.76651,0.10676
5723.69498,0.08724
5725.62345,0.06557
5727.55192,0.05120
5729.48039,0.04406
5731.40886,0.03815
5733.33732,0.04063
5735.26579,0.06474
5737.19426,0.09692
5739.12273,0.10480
5741.05120,0.09243
5742.97967,0.08614
5744.90814,0.08215
5746.83660,0.08192
5748.76507,0.09271
5750.69354,0.09057
5752.62201,0.07285
5754.55048,0.07173
5756.47895,0.09025
5758.40742,0.09873
5760.33588,0.08148
5762.26435,0.06264
5764.19282,0.05597
5766.12129,0.04543
5768.04976,0.03849
5769.97823,0.04164
5771.90670,0.05111
5773.83517,0.06217
5775.76363,0.06469
5777.69210,0.07716
5779.62057,0.10360
5781.54904,0.12038
5783.47751,0.12931
5785.40598,0.12842
5787.33445,0.11325
5789.26291,0.09204
5791.19138,0.06677
5793.11985,0.04563
5795.04832,0.03630
5796.97679,0.03916
5798.90526,0.05097
5800.83373,0.06797
5802.76220,0.08014
5804.69066,0.07056
5806.61913,0.05002
5808.54760,0.04120
5810.47607,0.05338
5812.40454,0.08789
5814.33301,0.11364
5816.26148,0.10119
5818.18994,0.07628
5820.11841,0.06233
5822.04688,0.03837
5823.97535,0.02802
5825.90382,0.05836
5827.83229,0.08627
5829.76076,0.08594
5831.68923,0.07510
5833.61769,0.06173
5835.54616,0.05756
5837.47463,0.08052
5839.40310,0.10639
5841.33157,0.09446
5843.26004,0.06949
5845.18851,0.07981
5847.11697,0.10700
5849.04544,0.11665
5850.97391,0.11791
5852.90238,0.11951
5854.83085,0.11595
5856.75932,0.10658
5858.68779,0.09164
5860.61626,0.07494
5862.54472,0.07727
5864.47319,0.10661
5866.40166,0.12401
5868.33013,0.11163
5870.25860,0.08959
5872.18707,0.07366
5874.11554,0.07658
5876.04400,0.09811
5877.97247,0.12283
5879.90094,0.13773
5881.82941,0.13485
5883.75788,0.11992
5885.68635,0.11640
5887.61482,0.12286
5889.54329,0.11452
5891.47175,0.08800
5893.40022,0.05397
5895.32869,0.03842
5897.25716,0.06007
5899.18563,0.09423
5901.11410,0.11962
5903.04257,0.12934
5904.97103,0.11033
5906.89950,0.08330
5908.82797,0.07649
5910.75644,0.08161
5912.68491,0.08066
5914.61338,0.07242
5916.54185,0.06305
5918.47032,0.04425
5920.39878,0.02449
5922.32725,0.03355
5924.25572,0.07294
5926.18419,0.11582
5928.11266,0.13639
5930.04113,0.13073
5931.96960,0.11229
5933.89806,0.09343
5935.82653,0.07339
5937.75500,0.06004
5939.68347,0.06046
5941.61194,0.05807
5943.54041,0.05246
5945.46888,0.05503
5947.39734,0.05894
5949.32581,0.06190
5951.25428,0.07115
5953.18275,0.07588
5955.11122,0.07003
5957.03969,0.06716
5958.96816,0.06937
5960.89663,0.08226
5962.82509,0.09647
5964.75356,0.09572
5966.68203,0.10113
5968.61050,0.12453
5970.53897,0.13381
5972.46744,0.10149
5974.39591,0.06511
5976.32437,0.06411
5978.25284,0.06477
5980.18131,0.04300
5982.10978,0.02471
5984.03825,0.03582
5985.96672,0.05587
5987.89519,0.04727
5989.82366,0.02099
5991.75212,0.00366
5993.68059,0.00174
5995.60906,0.02428
5997.53753,0.05444
5999.46600,0.04770
6001.39447,0.01982
6003.32294,0.03592
6005.25140,0.09088
6007.17987,0.10292
6009.10834,0.07502
6011.03681,0.07702
6012.96528,0.09982
6014.89375,0.11464
6016.82222,0.12496
6018.75069,0.11581
6020.67915,0.07874
6022.60762,0.03540
6024.53609,0.01939
6026.46456,0.03909
6028.39303,0.06908
6030.32150,0.08607
6032.24997,0.08285
6034.17843,0.08364
6036.10690,0.11107
6038.03537,0.11986
6039.96384,0.09447
6041.89231,0.08118
6043.82078,0.07834
6045.74925,0.07497
6047.67772,0.07622
6049.60618,0.06632
6051.53465,0.05444
6053.46312,0.04480
6055.39159,0.03234
6057.32006,0.04505
6059.24853,0.06407
6061.17700,0.06139
6063.10546,0.06533
6065.03393,0.06736
6066.96240,0.05225
6068.89087,0.05979
6070.81934,0.09797
6072.74781,0.12725
6074.67628,0.12409
6076.60475,0.09152
6078.53321,0.05059
6080.46168,0.02859
6082.39015,0.03629
6084.31862,0.05860
6086.24709,0.07776
6088.17556,0.09022
6090.10403,0.08578
6092.03249,0.06767
6093.96096,0.06054
6095.88943,0.05946
6097.81790,0.05231
6099.74637,0.05327
6101.67484,0.06258
6103.60331,0.05864
6105.53177,0.05526
6107.46024,0.07474
6109.38871,0.09726
6111.31718,0.10902
6113.24565,0.10285
6115.17412,0.08501
6117.10259,0.09166
6119.03106,0.11446
6120.95952,0.11602
6122.88799,0.11605
6124.81646,0.13169
6126.74493,0.13674
6128.67340,0.12147
6130.60187,0.09156
6132.53034,0.04439
6134.45880,0.01741
6136.38727,0.04006
6138.31574,0.07517
6140.24421,0.08905
6142.17268,0.08470
6144.10115,0.06723
6146.02962,0.04341
6147.95809,0.02866
6149.88655,0.04029
6151.81502,0.06381
6153.74349,0.07343
6155.67196,0.07497
6157.60043,0.06456
6159.52890,0.02860
6161.45737,-0.02060
6163.38583,-0.03249
6165.31430,0.01440
6167.24277,0.07151
6169.17124,0.10306
6171.09971,0.10222
6173.02818,0.08604
6174.95665,0.07924
6176.88512,0.09083
6178.81358,0.12544
6180.74205,0.15656
6182.67052,0.13987
6184.59899,0.08862
6186.52746,0.05126
6188.45593,0.03476
6190.38440,0.03582
6192.31286,0.06026
6194.24133,0.07851
6196.16980,0.08007
6198.09827,0.08572
6200.02674,0.08883
6201.95521,0.08456
6203.88368,0.09490
6205.81215,0.10973
6207.74061,0.09254
6209.66908,0.05577
6211.59755,0.03800
6213.52602,0.04075
6215.45449,0.05579
6217.38296,0.07629
6219.31143,0.08606
6221.23989,0.10303
6223.16836,0.13471
6225.09683,0.14037
6227.02530,0.13011
6228.95377,0.12668
6230.88224,0.09852
6232.81071,0.06053
6234.73918,0.06552
6236.66764,0.10145
6238.59611,0.12828
6240.52458,0.13253
6242.45305,0.12995
6244.38152,0.14211
6246.30999,0.14268
6248.23846,0.10385
6250.16692,0.07224
6252.09539,0.07439
6254.02386,0.07107
6255.95233,0.05356
6257.88080,0.04861
6259.80927,0.06287
6261.73774,0.06644
6263.66621,0.03998
6265.59467,0.02422
6267.52314,0.06016
6269.45161,0.10317
6271.38008,0.11667
6273.30855,0.11867
6275.23702,0.11203
6277.16549,0.07801
6279.09395,0.03455
6281.02242,0.02566
6282.95089,0.07918
6284.87936,0.14788
6286.80783,0.15668
6288.73630,0.12904
6290.66477,0.09846
6292.59323,0.05718
6294.52170,0.03211
6296.45017,0.02403
6298.37864,0.01958
6300.30711,0.04713
6302.23558,0.10131
6304.16405,0.12582
6306.09252,0.09122
6308.02098,0.03210
6309.94945,0.02052
6311.87792,0.06178
6313.80639,0.10255
6315.73486,0.10809
6317.66333,0.07519
6319.59180,0.05424
6321.52026,0.07967
6323.44873,0.10944
6325.37720,0.11458
6327.30567,0.10692
6329.23414,0.09476
6331.16261,0.08267
6333.09108,0.08570
6335.01955,0.10417
6336.94801,0.10059
6338.87648,0.07051
6340.80495,0.06489
6342.73342,0.08197
6344.66189,0.07923
6346.59036,0.06382
6348.51883,0.05996
6350.44729,0.07183
6352.37576,0.08724
6354.30423,0.10750
6356.23270,0.14070
6358.16117,0.13817
6360.08964,0.07559
6362.01811,0.02731
6363.94658,0.02993
6365.87504,0.03525
6367.80351,0.03000
6369.73198,0.04433
6371.66045,0.05668
6373.58892,0.03468
6375.51739,-0.00618
6377.44586,-0.03467
6379.37432,-0.00833
6381.30279,0.05795
6383.23126,0.08528
6385.15973,0.07989
6387.08820,0.07119
6389.01667,0.04180
6390.94514,0.01276
6392.87361,0.00310
6394.80207,0.02681
6396.73054,0.04257
6398.65901,0.02322
6400.58748,0.02615
6402.51595,0.05755
6404.44442,0.05666
6406.37289,0.02572
6408.30135,0.02045
6410.22982,0.02121
6412.15829,0.00994
6414.08676,0.06156
6416.01523,0.14957
6417.94370,0.15968
6419.87217,0.09681
6421.80064,0.05250
6423.72910,0.02889
6425.65757,-0.00159
6427.58604,-0.02945
6429.51451,-0.00722
6431.44298,0.09350
6433.37145,0.18766
6435.29992,0.19380
6437.22838,0.12470
6439.15685,0.05929
6441.08532,0.05874
6443.01379,0.08032
6444.94226,0.08648
6446.87073,0.09959
6448.79920,0.09387
6450.72766,0.03630
6452.65613,-0.02359
6454.58460,-0.03497
6456.51307,-0.01871
6458.44154,-0.00365
6460.37001,0.01828
6462.29848,0.03419
6464.22695,0.03127
6466.15541,0.05025
6468.08388,0.10268
6470.01235,0.13623
6471.94082,0.12097
6473.86929,0.10036
6475.79776,0.11320
6477.72623,0.11417
6479.65469,0.06862
6481.58316,0.03522
6483.51163,0.05044
6485.44010,0.07848
6487.36857,0.07673
6489.29704,0.05065
6491.22551,0.05292
6493.15398,0.08417
6495.08244,0.09394
6497.01091,0.08990
6498.93938,0.10346
6500.86785,0.11002
6502.79632,0.06244
6504.72479,0.00735
6506.65326,0.00387
6508.58172,0.02319
6510.51019,0.05666
6512.43866,0.12865
6514.36713,0.17022
6516.29560,0.12295
6518.22407,0.05158
6520.15254,0.03825
6522.08101,0.05926
6524.00947,0.04812
6525.93794,-0.00182
6527.86641,-0.04094
6529.79488,-0.02678
6531.72335,0.02381
6533.65182,0.04868
6535.58029,0.03130
6537.50875,-0.01261
6539.43722,-0.06105
6541.36569,-0.06549
6543.29416,-0.00205
6545.22263,0.09590
6547.15110,0.17455
6549.07957,0.18140
6551.00804,0.10978
6552.93650,0.04210
6554.86497,0.02996
6556.79344,0.05545
6558.72191,0.06430
6560.65038,0.05833
6562.57885,0.07065
6564.50732,0.06254
6566.43578,0.04443
6568.36425,0.06056
6570.29272,0.06196
6572.22119,0.02371
6574.14966,-0.01253
6576.07813,0.00177
6578.00660,0.06475
6579.93507,0.11653
6581.86353,0.16283
6583.79200,0.21005
6585.72047,0.18798
6587.64894,0.10653
6589.57741,0.02636
6591.50588,-0.03506
6593.43435,-0.06890
6595.36281,-0.04965
6597.29128,-0.01021
6599.21975,-0.01322
6601.14822,-0.04076
6603.07669,-0.03249
6605.00516,-0.00943
6606.93363,-0.00482
6608.86210,0.01006
6610.79056,0.06046
6612.71903,0.07529
6614.64750,0.02122
6616.57597,-0.00524
6618.50444,0.02983
6620.43291,0.06439
6622.36138,0.07274
6624.28984,0.06533
6626.21831,0.06867
6628.14678,0.06343
6630.07525,0.01311
6632.00372,-0.03040
6633.93219,-0.03891
6635.86066,-0.02648
6637.78912,0.02439
6639.71759,0.08624
6641.64606,0.11585
6643.57453,0.13300
6645.50300,0.17270
6647.43147,0.19896
6649.35994,0.15605
6651.28841,0.07457
6653.21687,0.05213
6655.14534,0.11179
6657.07381,0.15894
6659.00228,0.17958
6660.93075,0.21024
6662.85922,0.19660
6664.78769,0.14657
6666.71615,0.09683
6668.64462,0.04805
6670.57309,0.02604
6672.50156,0.02450
6674.43003,0.00872
6676.35850,0.00312
6678.28697,0.04309
6680.21544,0.11588
6682.14390,0.14098
6684.07237,0.09145
6686.00084,0.06201
6687.92931,0.07412
6689.85778,0.07499
6691.78625,0.07217
6693.71472,0.06212
6695.64318,0.03046
6697.57165,-0.00257
6699.50012,-0.01829
6701.42859,-0.00719
6703.35706,0.02452
6705.28553,0.04878
6707.21400,0.05733
6709.14247,0.05102
6711.07093,0.03811
6712.99940,0.05133
6714.92787,0.09372
6716.85634,0.10234
6718.78481,0.06369
6720.71328,0.06130
6722.64175,0.13858
6724.57021,0.22396
6726.49868,0.22544
6728.42715,0.14950
6730.35562,0.07111
6732.28409,0.03323
6734.21256,0.02449
6736.14103,0.04137
6738.06950,0.06163
6739.99796,0.05229
6741.92643,0.04302
6743.85490,0.04429
6745.78337,0.01492
6747.71184,-0.01137
6749.64031,0.00636
6751.56878,0.04107
6753.49724,0.08229
6755.42571,0.11317
6757.35418,0.10268
6759.28265,0.06951
6761.21112,0.05652
6763.13959,0.06121
6765.06806,0.06618
6766.99653,0.05730
6768.92499,0.03411
6770.85346,0.05048
6772.78193,0.09172
6774.71040,0.07052
6776.63887,0.02285
6778.56734,0.07333
6780.49581,0.19572
6782.42427,0.24042
6784.35274,0.15787
6786.28121,0.06191
6788.20968,0.03866
6790.13815,0.06768
6792.06662,0.09602
6793.99509,0.09968
6795.92355,0.08370
6797.85202,0.05245
6799.78049,0.04108
6801.70896,0.06833
6803.63743,0.06758
6805.56590,0.01733
6807.49437,-0.00175
6809.42284,0.06272
6811.35130,0.17239
6813.27977,0.21054
6815.20824,0.16060
6817.13671,0.10242
6819.06518,0.07807
6820.99365,0.06693
6822.92212,0.04870
6824.85058,0.05264
6826.77905,0.06872
6828.70752,0.06807
6830.63599,0.07905
6832.56446,0.08044
6834.49293,0.07837
6836.42140,0.11889
6838.34987,0.10255
6840.27833,0.04228
6842.20680,0.05998
6844.13527,0.07931
6846.06374,0.03372
6847.99221,0.01735
6849.92068,0.06945
6851.84915,0.09444
6853.77761,0.06669
6855.70608,0.02654
6857.63455,0.00751
6859.56302,-0.01155
6861.49149,-0.07300
6863.41996,-0.12723
6865.34843,-0.10833
6867.27690,-0.01851
6869.20536,0.09178
6871.13383,0.12551
6873.06230,0.06730
6874.99077,0.05046
6876.91924,0.12067
6878.84771,0.18105
6880.77618,0.13239
6882.70464,0.04214
6884.63311,0.01171
6886.56158,0.04348
6888.49005,0.08671
6890.41852,0.05032
6892.34699,-0.06744
6894.27546,-0.12593
6896.20393,-0.05043
6898.13239,0.06749
6900.06086,0.09709
6901.98933,0.08071
6903.91780,0.05901
6905.84627,0.00084
6907.77474,-0.01806
6909.70321,0.02701
6911.63167,0.04927
6913.56014,0.04360
6915.48861,0.00742
6917.41708,-0.05827
6919.34555,-0.05945
6921.27402,0.00635
6923.20249,0.02981
6925.13096,0.01290
6927.05942,0.03443
6928.98789,0.10829
6930.91636,0.14698
6932.84483,0.10984
6934.77330,0.08593
6936.70177,0.09368
6938.63024,0.08789
6940.55870,0.08518
6942.48717,0.08794
6944.41564,0.07427
6946.34411,0.06156
6948.27258,0.05405
6950.20105,0.05733
6952.12952,0.07698
6954.05799,0.11698
6955.98645,0.15648
6957.91492,0.15110
6959.84339,0.10275
6961.77186,0.06680
6963.70033,0.09525
6965.62880,0.12693
6967.55727,0.08283
6969.48573,-0.01841
6971.41420,-0.07115
6973.34267,0.00742
6975.27114,0.08369
6977.19961,0.00946
6979.12808,-0.09481
6981.05655,-0.12943
6982.98501,-0.08701
6984.91348,-0.02982
6986.84195,-0.04598
6988.77042,-0.06981
6990.69889,-0.00756
6992.62736,0.06758
6994.55583,0.07387
6996.48430,0.05864
6998.41276,0.08212
7000.34123,0.07309
7002.26970,0.03103
7004.19817,0.04062
7006.12664,0.08610
7008.05511,0.10672
7009.98358,0.08182
7011.91204,0.05693
7013.84051,0.04143
7015.76898,-0.01146
7017.69745,-0.06924
7019.62592,-0.10074
7021.55439,-0.07630
7023.48286,0.03200
7025.41133,0.11340
7027.33979,0.09245
7029.26826,0.06782
7031.19673,0.10012
7033.12520,0.10529
7035.05367,0.08783
7036.98214,0.09400
7038.91061,0.08887
7040.83907,0.09733
7042.76754,0.09078
7044.69601,-0.00934
7046.62448,-0.03963
7048.55295,0.05749
7050.48142,0.03004
7052.40989,-0.11091
7054.33836,-0.10674
7056.26682,0.04058
7058.19529,0.10149
7060.12376,0.05908
7062.05223,0.04816
7063.98070,0.08851
7065.90917,0.14718
7067.83764,0.18156
7069.76610,0.15466
7071.69457,0.08037
7073.62304,0.02995
7075.55151,0.04414
7077.47998,0.08561
7079.40845,0.10313
7081.33692,0.05730
7083.26539,-0.00876
7085.19385,-0.02734
7087.12232,0.00424
7089.05079,0.08140
7090.97926,0.17234
7092.90773,0.21606
7094.83620,0.16364
7096.76467,0.06528
7098.69313,0.03920
7100.62160,0.06110
7102.55007,-0.00256
7104.47854,-0.07567
7106.40701,-0.01712
7108.33548,0.05422
7110.26395,0.03411
7112.19242,0.00934
7114.12088,0.03006
7116.04935,0.04625
7117.97782,0.03422
7119.90629,0.07136
7121.83476,0.14990
7123.76323,0.19454
7125.69170,0.19095
7127.62016,0.12660
7129.54863,0.04901
7131.47710,0.04964
7133.40557,0.11971
7135.33404,0.17862
7137.26251,0.15887
7139.19098,0.07327
7141.11944,0.00332
7143.04791,-0.02679
7144.97638,-0.03068
7146.90485,-0.04393
7148.83332,-0.02335
7150.76179,0.10492
7152.69026,0.20081
7154.61873,0.11434
7156.54719,0.01653
7158.47566,0.00073
7160.40413,-0.02284
7162.33260,-0.06434
7164.26107,-0.05808
7166.18954,0.00353
7168.11801,0.05193
7170.04647,0.05888
7171.97494,0.10184
7173.90341,0.17355
7175.83188,0.12399
7177.76035,-0.04663
7179.68882,-0.15893
7181.61729,-0.09386
7183.54576,0.10542
7185.47422,0.16872
7187.40269,0.09514
7189.33116,0.00681
7191.25963,-0.09487
7193.18810,-0.13191
7195.11657,-0.06500
7197.04504,0.00971
7198.97350,0.07329
7200.90197,0.14227
7202.83044,0.15819
7204.75891,0.11648
7206.68738,0.09000
7208.61585,0.06320
7210.54432,0.04181
7212.47279,0.05020
7214.40125,0.08132
7216.32972,0.08870
7218.25819,0.00354
7220.18666,-0.07197
7222.11513,-0.04923
7224.04360,-0.00150
7225.97207,0.00191
7227.90053,-0.01848
7229.82900,-0.01931
7231.75747,0.03606
7233.68594,0.11485
7235.61441,0.11533
7237.54288,0.04280
7239.47135,0.00266
7241.39982,0.02026
7243.32828,0.07190
7245.25675,0.08535
7247.18522,0.02826
7249.11369,-0.00643
7251.04216,0.04030
7252.97063,0.11474
7254.89910,0.08881
7256.82756,-0.02209
7258.75603,-0.13156
7260.68450,-0.15123
7262.61297,-0.01201
7264.54144,0.11791
7266.46991,0.07164
7268.39838,0.00725
7270.32685,0.04841
7272.25531,0.12147
7274.18378,0.13790
7276.11225,0.13046
7278.04072,0.11456
7279.96919,0.03379
7281.89766,-0.03339
7283.82613,0.10593
7285.75459,0.34448
7287.68306,0.42898
7289.61153,0.28822
7291.54000,0.04754
7293.46847,-0.12647
7295.39694,-0.18236
7297.32541,-0.14206
7299.25387,-0.09477
7301.18234,-0.13048
7303.11081,-0.20138
7305.03928,-0.19896
7306.96775,-0.17735
7308.89622,-0.11817
7310.82469,0.06565
7312.75316,0.14433
7314.68162,0.07548
7316.61009,0.01031
7318.53856,-0.03751
7320.46703,-0.07286
7322.39550,-0.02496
7324.32397,0.09470
7326.25244,0.24127
7328.18090,0.36242
7330.10937,0.29652
7332.03784,0.11561
7333.96631,0.01945
7335.89478,0.01063
7337.82325,0.05360
7339.75172,0.12754
7341.68019,0.14249
7343.60865,0.10248
7345.53712,0.07700
7347.46559,0.12877
7349.39406,0.19342
7351.32253,0.16451
7353.25100,0.06754
7355.17947,-0.06323
7357.10793,-0.17361
7359.03640,-0.11979
7360.96487,0.09431
7362.89334,0.25485
7364.82181,0.21898
7366.75028,0.06432
7368.67875,-0.03055
7370.60722,-0.01390
7372.53568,0.00276
7374.46415,-0.01062
7376.39262,-0.02003
7378.32109,-0.11636
7380.24956,-0.25621
7382.17803,-0.25003
7384.10650,-0.12402
7386.03496,-0.05774
7387.96343,-0.04528
7389.89190,-0.04081
7391.82037,-0.08042
7393.74884,-0.12368
7395.67731,-0.07904
7397.60578,-0.03713
7399.53425,-0.10245
7401.46271,-0.16088
7403.39118,-0.09779
7405.31965,0.03499
7407.24812,0.09181
7409.17659,0.05739
7411.10506,0.04935
7413.03353,0.13361
7414.96199,0.21253
7416.89046,0.23865
7418.81893,0.29688
7420.74740,0.27244
7422.67587,0.08058
7424.60434,-0.04669
7426.53281,0.00426
7428.46128,0.17156
7430.38974,0.28579
7432.31821,0.24952
7434.24668,0.17176
7436.17515,0.05024
7438.10362,-0.12876
7440.03209,-0.21901
7441.96056,-0.17547
7443.88902,-0.12221
7445.81749,-0.02200
7447.74596,0.13387
7449.67443,0.16715
7451.60290,0.10346
7453.53137,0.13305
7455.45984,0.19290
7457.38831,0.24769
7459.31677,0.28680
7461.24524,0.21014
7463.17371,0.13940
7465.10218,0.22178
7467.03065,0.27592
7468.95912,0.15357
7470.88759,-0.01216
7472.81605,-0.04319
7474.74452,0.02257
7476.67299,0.05849
7478.60146,0.08043
7480.52993,0.11665
7482.45840,0.12160
7484.38687,0.09495
7486.31533,-0.00745
7488.24380,-0.14241
7490.17227,-0.12625
7492.10074,-0.00038
7494.02921,0.06296
7495.95768,0.11570
7497.88615,0.23997
