399.19301,0.71419
401.12148,0.82817
403.04995,0.31740
404.97842,0.09143
406.90689,0.05789
408.83536,0.10578
410.76382,0.06492
412.69229,-0.05150
414.62076,-0.04901
416.54923,0.01799
418.47770,0.02640
420.40617,0.04190
422.33464,0.08458
424.26311,0.09708
426.19157,0.08686
428.12004,0.06483
430.04851,0.02322
431.97698,0.01149
433.90545,0.06215
435.83392,0.12086
437.76239,0.16332
439.69085,0.19056
441.61932,0.21492
443.54779,0.21871
445.47626,0.18362
447.40473,0.13792
449.33320,0.10394
451.26167,0.08025
453.19013,0.05624
455.11860,0.04585
457.04707,0.04850
458.97554,0.05489
460.90401,0.06645
462.83248,0.08535
464.76095,0.11210
466.68942,0.12717
468.61788,0.10816
470.54635,0.07587
472.47482,0.09508
474.40329,0.14433
476.33176,0.12849
478.26023,0.08991
480.18870,0.05938
482.11716,0.03772
484.04563,0.01457
485.97410,0.03865
487.90257,0.10421
489.83104,0.12447
491.75951,0.10647
493.68798,0.10459
495.61645,0.10009
497.54491,0.06205
499.47338,0.04503
501.40185,0.08132
503.33032,0.09493
505.25879,0.06291
507.18726,0.05851
509.11573,0.08755
511.04419,0.10814
512.97266,0.11245
514.90113,0.11302
516.82960,0.11517
518.75807,0.09325
520.68654,0.07431
522.61501,0.09735
524.54348,0.13556
526.47194,0.14171
528.40041,0.11208
530.32888,0.08236
532.25735,0.09085
534.18582,0.13637
536.11429,0.15313
538.04276,0.11245
539.97122,0.07753
541.89969,0.08608
543.82816,0.10033
545.75663,0.08661
547.68510,0.08207
549.61357,0.08758
551.54204,0.03489
553.47051,-0.03967
555.39897,-0.01472
557.32744,0.08779
559.25591,0.14365
561.18438,0.13578
563.11285,0.11399
565.04132,0.11160
566.96979,0.11617
568.89825,0.09829
570.82672,0.07221
572.75519,0.06344
574.68366,0.07477
576.61213,0.09630
578.54060,0.12036
580.46907,0.13371
582.39754,0.13014
584.32600,0.11998
586.25447,0.10999
588.18294,0.09761
590.11141,0.08594
592.03988,0.09888
593.96835,0.12642
595.89682,0.12668
597.82528,0.10445
599.75375,0.09655
601.68222,0.10975
603.61069,0.11875
605.53916,0.11366
607.46763,0.10438
609.39610,0.10357
611.32456,0.11022
613.25303,0.10970
615.18150,0.10269
617.10997,0.10032
619.03844,0.09919
620.96691,0.10003
622.89538,0.10637
624.82385,0.10511
626.75231,0.09928
628.68078,0.09716
630.60925,0.09453
632.53772,0.09608
634.46619,0.10121
636.39466,0.10596
638.32313,0.10918
640.25159,0.10469
642.18006,0.09323
644.10853,0.08982
646.03700,0.10266
647.96547,0.11696
649.89394,0.12326
651.82241,0.12949
653.75088,0.13260
655.67934,0.12675
657.60781,0.11914
659.53628,0.10719
661.46475,0.09374
663.39322,0.09385
665.32169,0.09718
667.25016,0.08679
669.17862,0.08430
671.10709,0.10148
673.03556,0.10666
674.96403,0.11318
676.89250,0.13746
678.82097,0.15383
680.74944,0.14659
682.67791,0.13200
684.60637,0.12497
686.53484,0.12325
688.46331,0.12000
690.39178,0.11808
692.32025,0.12073
694.24872,0.12706
696.17719,0.13050
698.10565,0.12889
700.03412,0.12434
701.96259,0.11619
703.89106,0.10691
705.81953,0.10299
707.74800,0.11615
709.67647,0.14991
711.60494,0.17777
713.53340,0.16471
715.46187,0.12586
717.39034,0.10795
719.31881,0.11527
721.24728,0.12180
723.17575,0.12222
725.10422,0.12601
727.03268,0.12987
728.96115,0.12766
730.88962,0.12459
732.81809,0.12363
734.74656,0.11906
736.67503,0.11323
738.60350,0.11290
740.53197,0.11747
742.46043,0.11808
744.38890,0.10783
746.31737,0.10325
748.24584,0.11687
750.17431,0.13075
752.10278,0.13053
754.03125,0.12432
755.95971,0.11999
757.88818,0.11518
759.81665,0.11362
761.74512,0.11840
763.67359,0.12033
765.60206,0.11508
767.53053,0.11545
769.45900,0.12699
771.38746,0.13340
773.31593,0.13223
775.24440,0.13194
777.17287,0.12509
779.10134,0.11532
781.02981,0.11379
782.95828,0.11183
784.88674,0.10692
786.81521,0.10785
788.74368,0.10884
790.67215,0.10670
792.60062,0.10740
794.52909,0.11031
796.45756,0.11385
798.38602,0.11687
800.31449,0.11846
802.24296,0.12157
804.17143,0.12630
806.09990,0.12815
808.02837,0.12507
809.95684,0.11837
811.88531,0.11304
813.81377,0.11430
815.74224,0.11921
817.67071,0.12415
819.59918,0.12643
821.52765,0.12255
823.45612,0.11862
825.38459,0.11959
827.31305,0.12070
829.24152,0.12142
831.16999,0.12203
833.09846,0.12017
835.02693,0.11895
836.95540,0.11906
838.88387,0.11858
840.81234,0.11950
842.74080,0.12331
844.66927,0.12869
846.59774,0.12998
848.52621,0.12536
850.45468,0.12008
852.38315,0.11810
854.31162,0.12088
856.24008,0.12741
858.16855,0.13238
860.09702,0.13270
862.02549,0.13166
863.95396,0.13104
865.88243,0.12783
867.81090,0.11898
869.73937,0.10867
871.66783,0.10595
873.59630,0.11207
875.52477,0.12013
877.45324,0.12451
879.38171,0.12615
881.31018,0.12871
883.23865,0.13105
885.16711,0.12795
887.09558,0.12397
889.02405,0.12683
890.95252,0.12863
892.88099,0.12560
894.80946,0.12699
896.73793,0.13132
898.66640,0.13081
900.59486,0.12770
902.52333,0.12593
904.45180,0.12671
906.38027,0.12753
908.30874,0.12581
910.23721,0.12748
912.16568,0.13206
914.09414,0.13185
916.02261,0.12948
917.95108,0.13061
919.87955,0.13375
921.80802,0.13592
923.73649,0.13647
925.66496,0.13502
927.59343,0.13093
929.52189,0.12487
931.45036,0.12234
933.37883,0.12639
935.30730,0.13018
937.23577,0.12907
939.16424,0.12872
941.09271,0.13447
943.02117,0.14056
944.94964,0.13990
946.87811,0.13531
948.80658,0.13294
950.73505,0.13346
952.66352,0.13332
954.59199,0.13403
956.52045,0.13844
958.44892,0.14039
960.37739,0.13604
962.30586,0.13175
964.23433,0.13114
966.16280,0.13328
968.09127,0.13870
970.01974,0.14318
971.94820,0.14253
973.87667,0.14213
975.80514,0.14414
977.73361,0.14362
979.66208,0.14058
981.59055,0.13575
983.51902,0.13074
985.44748,0.13072
987.37595,0.13296
989.30442,0.13224
991.23289,0.12874
993.16136,0.12633
995.08983,0.12999
997.01830,0.13707
998.94677,0.14357
1000.87523,0.14900
1002.80370,0.14853
1004.73217,0.14409
1006.66064,0.14402
1008.58911,0.14431
1010.51758,0.14014
1012.44605,0.13534
1014.37451,0.13250
1016.30298,0.13367
1018.23145,0.13693
1020.15992,0.13621
1022.08839,0.13219
1024.01686,0.13167
1025.94533,0.13226
1027.87380,0.12834
1029.80226,0.12744
1031.73073,0.13511
1033.65920,0.14418
1035.58767,0.14702
1037.51614,0.14544
1039.44461,0.14277
1041.37308,0.13711
1043.30154,0.13135
1045.23001,0.13132
1047.15848,0.13796
1049.08695,0.14325
1051.01542,0.14258
1052.94389,0.14170
1054.87236,0.14372
1056.80083,0.14575
1058.72929,0.14219
1060.65776,0.13700
1062.58623,0.13972
1064.51470,0.14623
1066.44317,0.14795
1068.37164,0.14721
1070.30011,0.14759
1072.22857,0.14860
1074.15704,0.15153
1076.08551,0.15241
1078.01398,0.14494
1079.94245,0.13623
1081.87092,0.13876
1083.79939,0.14735
1085.72786,0.14877
1087.65632,0.14383
1089.58479,0.13805
1091.51326,0.13491
1093.44173,0.13730
1095.37020,0.14357
1097.29867,0.14980
1099.22714,0.15419
1101.15560,0.15739
1103.08407,0.15677
1105.01254,0.15203
1106.94101,0.14958
1108.86948,0.14845
1110.79795,0.14291
1112.72642,0.13704
1114.65489,0.13987
1116.58335,0.14849
1118.51182,0.15067
1120.44029,0.14721
1122.36876,0.14302
1124.29723,0.13679
1126.22570,0.13519
1128.15417,0.13962
1130.08263,0.13929
1132.01110,0.13595
1133.93957,0.13819
1135.86804,0.14069
1137.79651,0.13867
1139.72498,0.13704
1141.65345,0.13748
1143.58191,0.14096
1145.51038,0.14921
1147.43885,0.15936
1149.36732,0.16352
1151.29579,0.15662
1153.22426,0.14717
1155.15273,0.14602
1157.08120,0.15071
1159.00966,0.15391
1160.93813,0.15366
1162.86660,0.15100
1164.79507,0.15022
1166.72354,0.15245
1168.65201,0.15419
1170.58048,0.15571
1172.50894,0.15783
1174.43741,0.15909
1176.36588,0.15791
1178.29435,0.15505
1180.22282,0.15279
1182.15129,0.15079
1184.07976,0.14815
1186.00823,0.14478
1187.93669,0.14236
1189.86516,0.14344
1191.79363,0.14633
1193.72210,0.14724
1195.65057,0.14694
1197.57904,0.14852
1199.50751,0.15072
1201.43597,0.15187
1203.36444,0.15309
1205.29291,0.15405
1207.22138,0.15269
1209.14985,0.14967
1211.07832,0.15009
1213.00679,0.15538
1214.93526,0.15866
1216.86372,0.15607
1218.79219,0.15244
1220.72066,0.15095
1222.64913,0.15183
1224.57760,0.15484
1226.50607,0.15647
1228.43454,0.15461
1230.36300,0.15191
1232.29147,0.15306
1234.21994,0.15613
1236.14841,0.15444
1238.07688,0.15037
1240.00535,0.14838
1241.93382,0.14819
1243.86229,0.15034
1245.79075,0.15289
1247.71922,0.15344
1249.64769,0.15461
1251.57616,0.15607
1253.50463,0.15525
1255.43310,0.15367
1257.36157,0.15169
1259.29003,0.14920
1261.21850,0.14876
1263.14697,0.15170
1265.07544,0.15569
1267.00391,0.15726
1268.93238,0.15721
1270.86085,0.15915
1272.78932,0.16189
1274.71778,0.16161
1276.64625,0.16010
1278.57472,0.16114
1280.50319,0.16407
1282.43166,0.16591
1284.36013,0.16514
1286.28860,0.16337
1288.21706,0.16342
1290.14553,0.16363
1292.07400,0.16085
1294.00247,0.15790
1295.93094,0.15749
1297.85941,0.15857
1299.78788,0.15959
1301.71634,0.15826
1303.64481,0.15516
1305.57328,0.15454
1307.50175,0.15814
1309.43022,0.16253
1311.35869,0.16578
1313.28716,0.16713
1315.21563,0.16536
1317.14409,0.16439
1319.07256,0.16533
1321.00103,0.16465
1322.92950,0.16287
1324.85797,0.16051
1326.78644,0.15743
1328.71491,0.15654
1330.64337,0.15757
1332.57184,0.15846
1334.50031,0.16062
1336.42878,0.16517
1338.35725,0.16978
1340.28572,0.16815
1342.21419,0.16259
1344.14266,0.15996
1346.07112,0.15945
1347.99959,0.15983
1349.92806,0.15976
1351.85653,0.15882
1353.78500,0.15851
1355.71347,0.15911
1357.64194,0.16101
1359.57040,0.16637
1361.49887,0.17425
1363.42734,0.17478
1365.35581,0.16833
1367.28428,0.16570
1369.21275,0.16791
1371.14122,0.17162
1373.06969,0.17618
1374.99815,0.17884
1376.92662,0.17662
1378.85509,0.17331
1380.78356,0.17069
1382.71203,0.16982
1384.64050,0.17373
1386.56897,0.18004
1388.49743,0.18081
1390.42590,0.17754
1392.35437,0.17806
1394.28284,0.18344
1396.21131,0.19006
1398.13978,0.19224
1400.06825,0.18535
1401.99672,0.17684
1403.92518,0.17440
1405.85365,0.17241
1407.78212,0.16842
1409.71059,0.16730
1411.63906,0.16731
1413.56753,0.16895
1415.49600,0.17696
1417.42446,0.19007
1419.35293,0.19435
1421.28140,0.18856
1423.20987,0.18660
1425.13834,0.18377
1427.06681,0.18043
1428.99528,0.18140
1430.92375,0.18082
1432.85221,0.17873
1434.78068,0.18302
1436.70915,0.18817
1438.63762,0.18327
1440.56609,0.17886
1442.49456,0.17828
1444.42303,0.17926
1446.35149,0.18296
1448.27996,0.18546
1450.20843,0.18445
1452.13690,0.18753
1454.06537,0.20200
1455.99384,0.22863
1457.92231,0.23422
1459.85077,0.20680
1461.77924,0.19162
1463.70771,0.18982
1465.63618,0.18706
1467.56465,0.18328
1469.49312,0.18936
1471.42159,0.20901
1473.35006,0.22626
1475.27852,0.21786
1477.20699,0.20084
1479.13546,0.18980
1481.06393,0.18369
1482.99240,0.17994
1484.92087,0.18328
1486.84934,0.19708
1488.77780,0.21131
1490.70627,0.20611
1492.63474,0.19500
1494.56321,0.19662
1496.49168,0.20634
1498.42015,0.20537
1500.34862,0.19228
1502.27709,0.18489
1504.20555,0.19569
1506.13402,0.23527
1508.06249,0.25567
1509.99096,0.23158
1511.91943,0.21474
1513.84790,0.21228
1515.77637,0.21932
1517.70483,0.22513
1519.63330,0.23182
1521.56177,0.24320
1523.49024,0.23742
1525.41871,0.22180
1527.34718,0.20919
1529.27565,0.20049
1531.20412,0.20256
1533.13258,0.21283
1535.06105,0.21252
1536.98952,0.21587
1538.91799,0.24549
1540.84646,0.27120
1542.77493,0.24983
1544.70340,0.22130
1546.63186,0.20105
1548.56033,0.19583
1550.48880,0.19894
1552.41727,0.20286
1554.34574,0.21400
1556.27421,0.23975
1558.20268,0.27447
1560.13115,0.24989
1562.05961,0.20981
1563.98808,0.19494
1565.91655,0.19327
1567.84502,0.19996
1569.77349,0.20323
1571.70196,0.19583
1573.63043,0.19784
1575.55889,0.21054
1577.48736,0.20673
1579.41583,0.19140
1581.34430,0.18332
1583.27277,0.18110
1585.20124,0.18118
1587.12971,0.18134
1589.05818,0.18115
1590.98664,0.18095
1592.91511,0.18047
1594.84358,0.17944
1596.77205,0.17685
1598.70052,0.17534
1600.62899,0.17725
1602.55746,0.17971
1604.48592,0.18059
1606.41439,0.18236
1608.34286,0.18663
1610.27133,0.18900
1612.19980,0.18922
1614.12827,0.19459
1616.05674,0.20636
1617.98521,0.20793
1619.91367,0.20237
1621.84214,0.20579
1623.77061,0.21072
1625.69908,0.20823
1627.62755,0.20415
1629.55602,0.19857
1631.48449,0.19721
1633.41295,0.21076
1635.34142,0.23537
1637.26989,0.23109
1639.19836,0.21057
1641.12683,0.20153
1643.05530,0.20611
1644.98377,0.22604
1646.91223,0.24431
1648.84070,0.23549
1650.76917,0.23547
1652.69764,0.25819
1654.62611,0.24477
1656.55458,0.21337
1658.48305,0.20091
1660.41152,0.20202
1662.33998,0.20390
1664.26845,0.19902
1666.19692,0.20072
1668.12539,0.21468
1670.05386,0.22469
1671.98233,0.21854
1673.91080,0.21447
1675.83926,0.21151
1677.76773,0.20625
1679.69620,0.21027
1681.62467,0.22844
1683.55314,0.25170
1685.48161,0.24022
1687.41008,0.21574
1689.33855,0.20591
1691.26701,0.20208
1693.19548,0.20546
1695.12395,0.22321
1697.05242,0.24504
1698.98089,0.25341
1700.90936,0.24061
1702.83783,0.22313
1704.76629,0.21754
1706.69476,0.21165
1708.62323,0.20066
1710.55170,0.19560
1712.48017,0.20231
1714.40864,0.22183
1716.33711,0.24274
1718.26558,0.23084
1720.19404,0.20307
1722.12251,0.18936
1724.05098,0.18504
1725.97945,0.18458
1727.90792,0.18964
1729.83639,0.20074
1731.76486,0.21607
1733.69332,0.22417
1735.62179,0.20987
1737.55026,0.19942
1739.47873,0.20143
1741.40720,0.20545
1743.33567,0.20670
1745.26414,0.20880
1747.19261,0.21441
1749.12107,0.21884
1751.04954,0.21131
1752.97801,0.19826
1754.90648,0.19353
1756.83495,0.19585
1758.76342,0.19773
1760.69189,0.20007
1762.62035,0.19967
1764.54882,0.19360
1766.47729,0.19292
1768.40576,0.20197
1770.33423,0.21448
1772.26270,0.21784
1774.19117,0.20597
1776.11964,0.19618
1778.04810,0.19567
1779.97657,0.19739
1781.90504,0.19384
1783.83351,0.18905
1785.76198,0.18608
1787.69045,0.18575
1789.61892,0.19353
1791.54738,0.20581
1793.47585,0.20768
1795.40432,0.20189
1797.33279,0.19893
1799.26126,0.19965
1801.18973,0.19909
1803.11820,0.19356
1805.04666,0.18758
1806.97513,0.18616
1808.90360,0.18954
1810.83207,0.19167
1812.76054,0.18757
1814.68901,0.18323
1816.61748,0.18460
1818.54595,0.18962
1820.47441,0.19210
1822.40288,0.19198
1824.33135,0.19417
1826.25982,0.19828
1828.18829,0.20259
1830.11676,0.20108
1832.04523,0.19170
1833.97369,0.18660
1835.90216,0.18680
1837.83063,0.18658
1839.75910,0.18614
1841.68757,0.19044
1843.61604,0.19872
1845.54451,0.19971
1847.47298,0.19323
1849.40144,0.18684
1851.32991,0.18249
1853.25838,0.17975
1855.18685,0.17898
1857.11532,0.18072
1859.04379,0.18204
1860.97226,0.18147
1862.90072,0.18154
1864.82919,0.18623
1866.75766,0.19700
1868.68613,0.20435
1870.61460,0.19785
1872.54307,0.18832
1874.47154,0.18495
1876.40001,0.18563
1878.32847,0.18562
1880.25694,0.18410
1882.18541,0.18371
1884.11388,0.18526
1886.04235,0.18790
1887.97082,0.19091
1889.89929,0.19073
1891.82775,0.18744
1893.75622,0.18698
1895.68469,0.18760
1897.61316,0.18494
1899.54163,0.18291
1901.47010,0.18394
1903.39857,0.18623
1905.32704,0.18849
1907.25550,0.18998
1909.18397,0.18995
1911.11244,0.18773
1913.04091,0.18599
1914.96938,0.18756
1916.89785,0.19027
1918.82632,0.19036
1920.75478,0.18981
1922.68325,0.18963
1924.61172,0.18577
1926.54019,0.18076
1928.46866,0.17929
1930.39713,0.18085
1932.32560,0.18255
1934.25407,0.18272
1936.18253,0.18298
1938.11100,0.18492
1940.03947,0.18886
1941.96794,0.19269
1943.89641,0.19240
1945.82488,0.18891
1947.75335,0.18576
1949.68181,0.18399
1951.61028,0.18393
1953.53875,0.18586
1955.46722,0.18745
1957.39569,0.18594
1959.32416,0.18379
1961.25263,0.18479
1963.18110,0.18790
1965.10956,0.19100
1967.03803,0.19196
1968.96650,0.18877
1970.89497,0.18575
1972.82344,0.18584
1974.75191,0.18671
1976.68038,0.18708
1978.60884,0.18558
1980.53731,0.18299
1982.46578,0.18278
1984.39425,0.18445
1986.32272,0.18570
1988.25119,0.18606
1990.17966,0.18621
1992.10812,0.18717
1994.03659,0.18720
1995.96506,0.18489
1997.89353,0.18271
1999.82200,0.18245
2001.75047,0.18318
2003.67894,0.18351
2005.60741,0.18318
2007.53587,0.18320
2009.46434,0.18404
2011.39281,0.18410
2013.32128,0.18341
2015.24975,0.18434
2017.17822,0.18558
2019.10669,0.18440
2021.03515,0.18248
2022.96362,0.18228
2024.89209,0.18336
2026.82056,0.18421
2028.74903,0.18478
2030.67750,0.18565
2032.60597,0.18677
2034.53444,0.18698
2036.46290,0.18599
2038.39137,0.18527
2040.31984,0.18510
2042.24831,0.18491
2044.17678,0.18407
2046.10525,0.18322
2048.03372,0.18451
2049.96218,0.18634
2051.89065,0.18649
2053.81912,0.18634
2055.74759,0.18584
2057.67606,0.18538
2059.60453,0.18712
2061.53300,0.18955
2063.46147,0.19069
2065.38993,0.19054
2067.31840,0.18881
2069.24687,0.18628
2071.17534,0.18496
2073.10381,0.18517
2075.03228,0.18523
2076.96075,0.18536
2078.88921,0.18626
2080.81768,0.18663
2082.74615,0.18608
2084.67462,0.18557
2086.60309,0.18591
2088.53156,0.18613
2090.46003,0.18516
2092.38850,0.18483
2094.31696,0.18537
2096.24543,0.18442
2098.17390,0.18238
2100.10237,0.18156
2102.03084,0.18248
2103.95931,0.18453
2105.88778,0.18735
2107.81624,0.18961
2109.74471,0.18994
2111.67318,0.18939
2113.60165,0.18928
2115.53012,0.18915
2117.45859,0.18856
2119.38706,0.18866
2121.31553,0.18960
2123.24399,0.18954
2125.17246,0.18895
2127.10093,0.18911
2129.02940,0.18896
2130.95787,0.18713
2132.88634,0.18497
2134.81481,0.18542
2136.74327,0.18747
2138.67174,0.18867
2140.60021,0.18914
2142.52868,0.18818
2144.45715,0.18620
2146.38562,0.18607
2148.31409,0.18723
2150.24255,0.18708
2152.17102,0.18634
2154.09949,0.18700
2156.02796,0.18840
2157.95643,0.18862
2159.88490,0.18808
2161.81337,0.18807
2163.74184,0.18833
2165.67030,0.18778
2167.59877,0.18623
2169.52724,0.18521
2171.45571,0.18603
2173.38418,0.18749
2175.31265,0.18702
2177.24112,0.18544
2179.16958,0.18640
2181.09805,0.18937
2183.02652,0.18962
2184.95499,0.18649
2186.88346,0.18468
2188.81193,0.18625
2190.74040,0.18863
2192.66887,0.18826
2194.59733,0.18555
2196.52580,0.18500
2198.45427,0.18672
2200.38274,0.18750
2202.31121,0.18743
2204.23968,0.18692
2206.16815,0.18634
2208.09661,0.18744
2210.02508,0.18930
2211.95355,0.19037
2213.88202,0.19077
2215.81049,0.19030
2217.73896,0.18971
2219.66743,0.18946
2221.59590,0.18927
2223.52436,0.18876
2225.45283,0.18719
2227.38130,0.18585
2229.30977,0.18580
2231.23824,0.18621
2233.16671,0.18637
2235.09518,0.18712
2237.02364,0.19002
2238.95211,0.19315
2240.88058,0.19278
2242.80905,0.19053
2244.73752,0.19037
2246.66599,0.19165
2248.59446,0.19186
2250.52293,0.19097
2252.45139,0.18988
2254.37986,0.18843
2256.30833,0.18779
2258.23680,0.18959
2260.16527,0.19118
2262.09374,0.18999
2264.02221,0.18865
2265.95067,0.18846
2267.87914,0.18705
2269.80761,0.18538
2271.73608,0.18552
2273.66455,0.18657
2275.59302,0.18808
2277.52149,0.18961
2279.44996,0.18966
2281.37842,0.18898
2283.30689,0.18954
2285.23536,0.18968
2287.16383,0.18811
2289.09230,0.18671
2291.02077,0.18590
2292.94924,0.18637
2294.87770,0.18858
2296.80617,0.19000
2298.73464,0.18937
2300.66311,0.18763
2302.59158,0.18622
2304.52005,0.18699
2306.44852,0.19009
2308.37699,0.19158
2310.30545,0.18871
2312.23392,0.18525
2314.16239,0.18519
2316.09086,0.18685
2318.01933,0.18910
2319.94780,0.19361
2321.87627,0.19862
2323.80473,0.20076
2325.73320,0.19879
2327.66167,0.19449
2329.59014,0.19369
2331.51861,0.19811
2333.44708,0.20006
2335.37555,0.19654
2337.30401,0.18905
2339.23248,0.17727
2341.16095,0.17071
2343.08942,0.17628
2345.01789,0.18334
2346.94636,0.18375
2348.87483,0.18236
2350.80330,0.18425
2352.73176,0.19338
2354.66023,0.21099
2356.58870,0.22146
2358.51717,0.21010
2360.44564,0.19647
2362.37411,0.19329
2364.30258,0.18854
2366.23104,0.18441
2368.15951,0.18493
2370.08798,0.18399
2372.01645,0.18473
2373.94492,0.19039
2375.87339,0.19572
2377.80186,0.19603
2379.73033,0.19212
2381.65879,0.18813
2383.58726,0.18675
2385.51573,0.18721
2387.44420,0.18783
2389.37267,0.18822
2391.30114,0.18844
2393.22961,0.18867
2395.15807,0.18932
2397.08654,0.19068
2399.01501,0.19125
2400.94348,0.18954
2402.87195,0.18771
2404.80042,0.18762
2406.72889,0.18862
2408.65736,0.18989
2410.58582,0.19101
2412.51429,0.19149
2414.44276,0.19071
2416.37123,0.18993
2418.29970,0.19035
2420.22817,0.19061
2422.15664,0.19022
2424.08510,0.19077
2426.01357,0.19119
2427.94204,0.18842
2429.87051,0.18493
2431.79898,0.18557
2433.72745,0.18811
2435.65592,0.18870
2437.58439,0.18918
2439.51285,0.19031
2441.44132,0.19071
2443.36979,0.19024
2445.29826,0.18921
2447.22673,0.18874
2449.15520,0.18845
2451.08367,0.18795
2453.01213,0.18873
2454.94060,0.18978
2456.86907,0.18915
2458.79754,0.18847
2460.72601,0.18937
2462.65448,0.19037
2464.58295,0.18986
2466.51142,0.18808
2468.43988,0.18678
2470.36835,0.18676
2472.29682,0.18718
2474.22529,0.18768
2476.15376,0.18784
2478.08223,0.18830
2480.01070,0.18949
2481.93916,0.18976
2483.86763,0.19011
2485.79610,0.19180
2487.72457,0.19184
2489.65304,0.18928
2491.58151,0.18653
2493.50998,0.18534
2495.43844,0.18677
2497.36691,0.19022
2499.29538,0.19288
2501.22385,0.19200
2503.15232,0.18953
2505.08079,0.18964
2507.00926,0.19200
2508.93773,0.19340
2510.86619,0.19286
2512.79466,0.19317
2514.72313,0.19374
2516.65160,0.19094
2518.58007,0.18836
2520.50854,0.19004
2522.43701,0.19186
2524.36547,0.19146
2526.29394,0.19196
2528.22241,0.19362
2530.15088,0.19416
2532.07935,0.19303
2534.00782,0.19142
2535.93629,0.19062
2537.86476,0.19048
2539.79322,0.19049
2541.72169,0.19010
2543.65016,0.18982
2545.57863,0.19024
2547.50710,0.19001
2549.43557,0.18859
2551.36404,0.18716
2553.29250,0.18797
2555.22097,0.19095
2557.14944,0.19275
2559.07791,0.19180
2561.00638,0.19007
2562.93485,0.18940
2564.86332,0.18888
2566.79179,0.18833
2568.72025,0.18880
2570.64872,0.19017
2572.57719,0.19145
2574.50566,0.19152
2576.43413,0.19034
2578.36260,0.18957
2580.29107,0.19186
2582.21953,0.19547
2584.14800,0.19537
2586.07647,0.19292
2588.00494,0.19321
2589.93341,0.19483
2591.86188,0.19392
2593.79035,0.19272
2595.71882,0.19297
2597.64728,0.19236
2599.57575,0.19065
2601.50422,0.18991
2603.43269,0.19116
2605.36116,0.19322
2607.28963,0.19478
2609.21810,0.19541
2611.14656,0.19528
2613.07503,0.19485
2615.00350,0.19509
2616.93197,0.19613
2618.86044,0.19675
2620.78891,0.19856
2622.71738,0.20143
2624.64585,0.20107
2626.57431,0.19832
2628.50278,0.19725
2630.43125,0.19738
2632.35972,0.19630
2634.28819,0.19390
2636.21666,0.19266
2638.14513,0.19420
2640.07359,0.19536
2642.00206,0.19365
2643.93053,0.19156
2645.85900,0.19156
2647.78747,0.19352
2649.71594,0.19620
2651.64441,0.19809
2653.57288,0.19810
2655.50134,0.19793
2657.42981,0.19987
2659.35828,0.20225
2661.28675,0.20186
2663.21522,0.19975
2665.14369,0.19870
2667.07216,0.19727
2669.00062,0.19536
2670.92909,0.19560
2672.85756,0.19764
2674.78603,0.19933
2676.71450,0.19922
2678.64297,0.19769
2680.57144,0.19608
2682.49990,0.19539
2684.42837,0.19610
2686.35684,0.19779
2688.28531,0.19867
2690.21378,0.19733
2692.14225,0.19556
2694.07072,0.19614
2695.99919,0.19896
2697.92765,0.20193
2699.85612,0.20313
2701.78459,0.20098
2703.71306,0.19770
2705.64153,0.19706
2707.57000,0.19770
2709.49847,0.19844
2711.42693,0.19968
2713.35540,0.20004
2715.28387,0.19997
2717.21234,0.19971
2719.14081,0.19889
2721.06928,0.19911
2722.99775,0.19861
2724.92622,0.19660
2726.85468,0.19781
2728.78315,0.20160
2730.71162,0.20221
2732.64009,0.19960
2734.56856,0.19842
2736.49703,0.19962
2738.42550,0.20072
2740.35396,0.20134
2742.28243,0.20269
2744.21090,0.20354
2746.13937,0.20179
2748.06784,0.19980
2749.99631,0.20052
2751.92478,0.20191
2753.85325,0.20145
2755.78171,0.20106
2757.71018,0.20216
2759.63865,0.20298
2761.56712,0.20281
2763.49559,0.20174
2765.42406,0.19995
2767.35253,0.19882
2769.28099,0.20013
2771.20946,0.20332
2773.13793,0.20597
2775.06640,0.20732
2776.99487,0.20751
2778.92334,0.20659
2780.85181,0.20553
2782.78028,0.20647
2784.70874,0.20927
2786.63721,0.21095
2788.56568,0.21046
2790.49415,0.20881
2792.42262,0.20811
2794.35109,0.20876
2796.27956,0.20879
2798.20802,0.20805
2800.13649,0.20732
2802.06496,0.20678
2803.99343,0.20721
2805.92190,0.20853
2807.85037,0.20885
2809.77884,0.20825
2811.70731,0.20824
2813.63577,0.20752
2815.56424,0.20587
2817.49271,0.20616
2819.42118,0.20702
2821.34965,0.20541
2823.27812,0.20372
2825.20659,0.20435
2827.13505,0.20489
2829.06352,0.20426
2830.99199,0.20511
2832.92046,0.20637
2834.84893,0.20563
2836.77740,0.20517
2838.70587,0.20714
2840.63433,0.20898
2842.56280,0.20785
2844.49127,0.20682
2846.41974,0.20817
2848.34821,0.20873
2850.27668,0.20704
2852.20515,0.20593
2854.13362,0.20739
2856.06208,0.20854
2857.99055,0.20807
2859.91902,0.20880
2861.84749,0.21128
2863.77596,0.21302
2865.70443,0.21112
2867.63290,0.20650
2869.56136,0.20445
2871.48983,0.20639
2873.41830,0.20777
2875.34677,0.20589
2877.27524,0.20320
2879.20371,0.20338
2881.13218,0.20590
2883.06065,0.20715
2884.98911,0.20662
2886.91758,0.20543
2888.84605,0.20448
2890.77452,0.20518
2892.70299,0.20692
2894.63146,0.20711
2896.55993,0.20518
2898.48839,0.20480
2900.41686,0.20738
2902.34533,0.20787
2904.27380,0.20406
2906.20227,0.20088
2908.13074,0.20092
2910.05921,0.20157
2911.98768,0.20133
2913.91614,0.20160
2915.84461,0.20280
2917.77308,0.20395
2919.70155,0.20584
2921.63002,0.20754
2923.55849,0.20744
2925.48696,0.20619
2927.41542,0.20421
2929.34389,0.20225
2931.27236,0.20189
2933.20083,0.20420
2935.12930,0.20579
2937.05777,0.20430
2938.98624,0.20326
2940.91471,0.20550
2942.84317,0.21050
2944.77164,0.21213
2946.70011,0.20594
2948.62858,0.19917
2950.55705,0.19980
2952.48552,0.20372
2954.41399,0.20394
2956.34245,0.20026
2958.27092,0.19815
2960.19939,0.20236
2962.12786,0.20820
2964.05633,0.21018
2965.98480,0.20998
2967.91327,0.21064
2969.84174,0.21337
2971.77020,0.21570
2973.69867,0.21542
2975.62714,0.21168
2977.55561,0.20737
2979.48408,0.20913
2981.41255,0.21558
2983.34102,0.21840
2985.26948,0.21529
2987.19795,0.21155
2989.12642,0.21154
2991.05489,0.21371
2992.98336,0.21484
2994.91183,0.21478
2996.84030,0.21221
2998.76877,0.20794
3000.69723,0.20726
3002.62570,0.20984
3004.55417,0.21127
3006.48264,0.21015
3008.41111,0.20919
3010.33958,0.20861
3012.26805,0.20349
3014.19651,0.19233
3016.12498,0.18152
3018.05345,0.18349
3019.98192,0.19989
3021.91039,0.21424
3023.83886,0.21769
3025.76733,0.21544
3027.69579,0.21253
3029.62426,0.21379
3031.55273,0.21790
3033.48120,0.21739
3035.40967,0.21324
3037.33814,0.21155
3039.26661,0.21428
3041.19508,0.21760
3043.12354,0.21632
3045.05201,0.21138
3046.98048,0.21009
3048.90895,0.21590
3050.83742,0.22079
3052.76589,0.21813
3054.69436,0.21143
3056.62282,0.20589
3058.55129,0.20523
3060.47976,0.20910
3062.40823,0.21213
3064.33670,0.21169
3066.26517,0.20912
3068.19364,0.20750
3070.12211,0.20910
3072.05057,0.21133
3073.97904,0.21042
3075.90751,0.20687
3077.83598,0.20643
3079.76445,0.20936
3081.69292,0.20692
3083.62139,0.19837
3085.54985,0.19497
3087.47832,0.20096
3089.40679,0.20711
3091.33526,0.20780
3093.26373,0.20373
3095.19220,0.19994
3097.12067,0.20331
3099.04914,0.20955
3100.97760,0.21143
3102.90607,0.20870
3104.83454,0.20650
3106.76301,0.20827
3108.69148,0.21088
3110.61995,0.21040
3112.54842,0.20746
3114.47688,0.20885
3116.40535,0.21395
3118.33382,0.21377
3120.26229,0.20959
3122.19076,0.20738
3124.11923,0.20671
3126.04770,0.20617
3127.97617,0.20699
3129.90463,0.20943
3131.83310,0.21163
3133.76157,0.21160
3135.69004,0.21008
3137.61851,0.21035
3139.54698,0.21335
3141.47545,0.21687
3143.40391,0.21925
3145.33238,0.21900
3147.26085,0.21535
3149.18932,0.21309
3151.11779,0.21496
3153.04626,0.21634
3154.97473,0.21576
3156.90320,0.21573
3158.83166,0.21586
3160.76013,0.21607
3162.68860,0.21779
3164.61707,0.21802
3166.54554,0.21451
3168.47401,0.21085
3170.40248,0.21146
3172.33094,0.21687
3174.25941,0.22118
3176.18788,0.22054
3178.11635,0.21773
3180.04482,0.21560
3181.97329,0.21400
3183.90176,0.21377
3185.83022,0.21831
3187.75869,0.22292
3189.68716,0.22110
3191.61563,0.21860
3193.54410,0.22027
3195.47257,0.22279
3197.40104,0.22364
3199.32951,0.22219
3201.25797,0.22104
3203.18644,0.22261
3205.11491,0.22259
3207.04338,0.21884
3208.97185,0.21453
3210.90032,0.21388
3212.82879,0.21940
3214.75725,0.22576
3216.68572,0.22663
3218.61419,0.22347
3220.54266,0.21944
3222.47113,0.21627
3224.39960,0.21528
3226.32807,0.21508
3228.25654,0.21390
3230.18500,0.21229
3232.11347,0.21133
3234.04194,0.21287
3235.97041,0.21598
3237.89888,0.21801
3239.82735,0.22034
3241.75582,0.22340
3243.68428,0.22403
3245.61275,0.22231
3247.54122,0.22031
3249.46969,0.21767
3251.39816,0.21490
3253.32663,0.21407
3255.25510,0.21533
3257.18357,0.21502
3259.11203,0.21113
3261.04050,0.20767
3262.96897,0.20849
3264.89744,0.21083
3266.82591,0.20973
3268.75438,0.20781
3270.68285,0.20990
3272.61131,0.21308
3274.53978,0.21234
3276.46825,0.20969
3278.39672,0.21049
3280.32519,0.21478
3282.25366,0.21764
3284.18213,0.21404
3286.11060,0.20833
3288.03906,0.20958
3289.96753,0.21440
3291.89600,0.21505
3293.82447,0.21347
3295.75294,0.21353
3297.68141,0.21371
3299.60988,0.21232
3301.53834,0.20890
3303.46681,0.20421
3305.39528,0.20434
3307.32375,0.21229
3309.25222,0.21988
3311.18069,0.22067
3313.10916,0.21736
3315.03763,0.21347
3316.96609,0.21218
3318.89456,0.21449
3320.82303,0.21600
3322.75150,0.21508
3324.67997,0.21542
3326.60844,0.21806
3328.53691,0.22022
3330.46537,0.22001
3332.39384,0.21849
3334.32231,0.21912
3336.25078,0.21989
3338.17925,0.21687
3340.10772,0.21463
3342.03619,0.21659
3343.96466,0.21953
3345.89312,0.21989
3347.82159,0.21750
3349.75006,0.21680
3351.67853,0.21952
3353.60700,0.22214
3355.53547,0.22157
3357.46394,0.21708
3359.39240,0.21331
3361.32087,0.21369
3363.24934,0.21565
3365.17781,0.21795
3367.10628,0.22029
3369.03475,0.22193
3370.96322,0.22401
3372.89168,0.22571
3374.82015,0.22257
3376.74862,0.21644
3378.67709,0.21419
3380.60556,0.21574
3382.53403,0.21884
3384.46250,0.22172
3386.39097,0.22118
3388.31943,0.21896
3390.24790,0.22089
3392.17637,0.22633
3394.10484,0.22677
3396.03331,0.22053
3397.96178,0.21471
3399.89025,0.21365
3401.81871,0.21532
3403.74718,0.21528
3405.67565,0.21238
3407.60412,0.20934
3409.53259,0.20789
3411.46106,0.20611
3413.38953,0.20407
3415.31800,0.20581
3417.24646,0.21266
3419.17493,0.21817
3421.10340,0.21670
3423.03187,0.21401
3424.96034,0.21455
3426.88881,0.21474
3428.81728,0.21219
3430.74574,0.21026
3432.67421,0.21208
3434.60268,0.21314
3436.53115,0.21185
3438.45962,0.21246
3440.38809,0.21450
3442.31656,0.21524
3444.24503,0.21543
3446.17349,0.21502
3448.10196,0.21260
3450.03043,0.21021
3451.95890,0.20684
3453.88737,0.20225
3455.81584,0.20065
3457.74431,0.20068
3459.67277,0.20138
3461.60124,0.20314
3463.52971,0.20234
3465.45818,0.20027
3467.38665,0.19943
3469.31512,0.19661
3471.24359,0.19256
3473.17206,0.19285
3475.10052,0.19728
3477.02899,0.20185
3478.95746,0.20366
3480.88593,0.20075
3482.81440,0.19646
3484.74287,0.19701
3486.67134,0.20064
3488.59980,0.20011
3490.52827,0.19418
3492.45674,0.18928
3494.38521,0.18915
3496.31368,0.18951
3498.24215,0.18811
3500.17062,0.18844
3502.09909,0.18997
3504.02755,0.18946
3505.95602,0.18855
3507.88449,0.18908
3509.81296,0.18796
3511.74143,0.18421
3513.66990,0.18040
3515.59837,0.17830
3517.52683,0.17794
3519.45530,0.17882
3521.38377,0.18227
3523.31224,0.18838
3525.24071,0.19456
3527.16918,0.19490
3529.09765,0.18587
3531.02611,0.17523
3532.95458,0.17104
3534.88305,0.17270
3536.81152,0.17612
3538.73999,0.17796
3540.66846,0.17857
3542.59693,0.18168
3544.52540,0.18726
3546.45386,0.18865
3548.38233,0.18431
3550.31080,0.18070
3552.23927,0.17687
3554.16774,0.16954
3556.09621,0.16437
3558.02468,0.16406
3559.95314,0.16701
3561.88161,0.17241
3563.81008,0.18265
3565.73855,0.19813
3567.66702,0.19879
3569.59549,0.17895
3571.52396,0.16418
3573.45243,0.16192
3575.38089,0.16512
3577.30936,0.16673
3579.23783,0.16708
3581.16630,0.16772
3583.09477,0.17093
3585.02324,0.18100
3586.95171,0.19232
3588.88017,0.18556
3590.80864,0.17085
3592.73711,0.16609
3594.66558,0.16755
3596.59405,0.16811
3598.52252,0.16614
3600.45099,0.16065
3602.37946,0.15527
3604.30792,0.15420
3606.23639,0.15999
3608.16486,0.16997
3610.09333,0.17248
3612.02180,0.17190
3613.95027,0.17406
3615.87874,0.17397
3617.80720,0.17450
3619.73567,0.17158
3621.66414,0.16081
3623.59261,0.15393
3625.52108,0.15758
3627.44955,0.17105
3629.37802,0.17635
3631.30649,0.16562
3633.23495,0.15921
3635.16342,0.15517
3637.09189,0.14910
3639.02036,0.14480
3640.94883,0.14412
3642.87730,0.14662
3644.80577,0.15566
3646.73423,0.17483
3648.66270,0.19495
3650.59117,0.18624
3652.51964,0.16542
3654.44811,0.15592
3656.37658,0.15194
3658.30505,0.14411
3660.23352,0.13638
3662.16198,0.13377
3664.09045,0.13546
3666.01892,0.14195
3667.94739,0.15677
3669.87586,0.16882
3671.80433,0.16288
3673.73280,0.16196
3675.66126,0.17003
3677.58973,0.16383
3679.51820,0.15090
3681.44667,0.14297
3683.37514,0.14292
3685.30361,0.15000
3687.23208,0.16155
3689.16055,0.16837
3691.08901,0.15682
3693.01748,0.14114
3694.94595,0.13380
3696.87442,0.13237
3698.80289,0.13423
3700.73136,0.13848
3702.65983,0.13997
3704.58829,0.13693
3706.51676,0.13640
3708.44523,0.14306
3710.37370,0.15277
3712.30217,0.14819
3714.23064,0.13428
3716.15911,0.12935
3718.08757,0.13263
3720.01604,0.13871
3721.94451,0.14516
3723.87298,0.14973
3725.80145,0.14966
3727.72992,0.14559
3729.65839,0.14333
3731.58686,0.15019
3733.51532,0.16790
3735.44379,0.17712
3737.37226,0.16434
3739.30073,0.14871
3741.22920,0.14233
3743.15767,0.15078
3745.08614,0.16730
3747.01460,0.17210
3748.94307,0.17618
3750.87154,0.17978
3752.80001,0.16828
3754.72848,0.15723
3756.65695,0.15548
3758.58542,0.15640
3760.51389,0.14922
3762.44235,0.14051
3764.37082,0.13878
3766.29929,0.13947
3768.22776,0.13932
3770.15623,0.13692
3772.08470,0.13080
3774.01317,0.12683
3775.94163,0.12740
3777.87010,0.13156
3779.79857,0.13518
3781.72704,0.13368
3783.65551,0.13079
3785.58398,0.12978
3787.51245,0.12752
3789.44092,0.12228
3791.36938,0.12042
3793.29785,0.12728
3795.22632,0.13952
3797.15479,0.14851
3799.08326,0.15326
3801.01173,0.15734
3802.94020,0.15311
3804.86866,0.14717
3806.79713,0.14319
3808.72560,0.13517
3810.65407,0.12892
3812.58254,0.12799
3814.51101,0.13154
3816.43948,0.13778
3818.36795,0.14527
3820.29641,0.15483
3822.22488,0.15245
3824.15335,0.14174
3826.08182,0.13774
3828.01029,0.13653
3829.93876,0.13659
3831.86723,0.14158
3833.79569,0.14947
3835.72416,0.15594
3837.65263,0.15847
3839.58110,0.15649
3841.50957,0.15223
3843.43804,0.14634
3845.36651,0.14003
3847.29498,0.13692
3849.22344,0.14095
3851.15191,0.15516
3853.08038,0.17071
3855.00885,0.15605
3856.93732,0.13376
3858.86579,0.12424
3860.79426,0.12807
3862.72272,0.13964
3864.65119,0.14381
3866.57966,0.13905
3868.50813,0.13930
3870.43660,0.14291
3872.36507,0.14112
3874.29354,0.13794
3876.22200,0.13439
3878.15047,0.13172
3880.07894,0.13092
3882.00741,0.12869
3883.93588,0.12829
3885.86435,0.12920
3887.79282,0.12877
3889.72129,0.13400
3891.64975,0.13717
3893.57822,0.12392
3895.50669,0.11345
3897.43516,0.11963
3899.36363,0.13478
3901.29210,0.14540
3903.22057,0.14720
3905.14903,0.13890
3907.07750,0.12420
3909.00597,0.11246
3910.93444,0.10833
3912.86291,0.11002
3914.79138,0.11400
3916.71985,0.11770
3918.64832,0.11914
3920.57678,0.12012
3922.50525,0.12330
3924.43372,0.12788
3926.36219,0.13002
3928.29066,0.12917
3930.21913,0.12654
3932.14760,0.12079
3934.07606,0.11497
3936.00453,0.11315
3937.93300,0.11390
3939.86147,0.11758
3941.78994,0.12195
3943.71841,0.12005
3945.64688,0.11650
3947.57535,0.11759
3949.50381,0.11990
3951.43228,0.12013
3953.36075,0.11814
3955.28922,0.11602
3957.21769,0.11492
3959.14616,0.11212
3961.07463,0.10665
3963.00309,0.10216
3964.93156,0.10145
3966.86003,0.10214
3968.78850,0.10275
3970.71697,0.10621
3972.64544,0.11043
3974.57391,0.10989
3976.50238,0.10594
3978.43084,0.10175
3980.35931,0.09838
3982.28778,0.09800
3984.21625,0.10177
3986.14472,0.10491
3988.07319,0.10364
3990.00166,0.10428
3991.93012,0.10960
3993.85859,0.11263
3995.78706,0.11031
3997.71553,0.10618
3999.64400,0.10439
4001.57247,0.10542
4003.50094,0.10578
4005.42941,0.10352
4007.35787,0.10118
4009.28634,0.10035
4011.21481,0.10105
4013.14328,0.10229
4015.07175,0.10151
4017.00022,0.10078
4018.92869,0.10269
4020.85715,0.10434
4022.78562,0.10439
4024.71409,0.10321
4026.64256,0.09999
4028.57103,0.09794
4030.49950,0.09860
4032.42797,0.09903
4034.35644,0.09986
4036.28490,0.10246
4038.21337,0.10516
4040.14184,0.10487
4042.07031,0.10049
4043.99878,0.09586
4045.92725,0.09417
4047.85572,0.09390
4049.78418,0.09595
4051.71265,0.10154
4053.64112,0.10415
4055.56959,0.10082
4057.49806,0.09802
4059.42653,0.09895
4061.35500,0.10066
4063.28346,0.10034
4065.21193,0.09808
4067.14040,0.09532
4069.06887,0.09317
4070.99734,0.09237
4072.92581,0.09320
4074.85428,0.09630
4076.78275,0.10116
4078.71121,0.10385
4080.63968,0.10139
4082.56815,0.09498
4084.49662,0.08898
4086.42509,0.08632
4088.35356,0.08689
4090.28203,0.08937
4092.21049,0.08848
4094.13896,0.08473
4096.06743,0.08560
4097.99590,0.08988
4099.92437,0.09170
4101.85284,0.09222
4103.78131,0.09633
4105.70978,0.10164
4107.63824,0.10159
4109.56671,0.09813
4111.49518,0.09679
4113.42365,0.09542
4115.35212,0.09101
4117.28059,0.08902
4119.20906,0.09200
4121.13752,0.09300
4123.06599,0.08791
4124.99446,0.08173
4126.92293,0.07999
4128.85140,0.08141
4130.77987,0.08277
4132.70834,0.08612
4134.63681,0.09109
4136.56527,0.09057
4138.49374,0.08616
4140.42221,0.08409
4142.35068,0.08282
4144.27915,0.08141
4146.20762,0.08051
4148.13609,0.07986
4150.06455,0.08080
4151.99302,0.08170
4153.92149,0.07999
4155.84996,0.07716
4157.77843,0.07379
4159.70690,0.07347
4161.63537,0.08016
4163.56384,0.08437
4165.49230,0.07879
4167.42077,0.07168
4169.34924,0.07079
4171.27771,0.07525
4173.20618,0.08029
4175.13465,0.08100
4177.06312,0.07782
4178.99158,0.07676
4180.92005,0.07777
4182.84852,0.07636
4184.77699,0.07498
4186.70546,0.07684
4188.63393,0.07887
4190.56240,0.07634
4192.49087,0.07139
4194.41933,0.07168
4196.34780,0.07496
4198.27627,0.07289
4200.20474,0.06932
4202.13321,0.06896
4204.06168,0.06876
4205.99015,0.06896
4207.91861,0.06899
4209.84708,0.07030
4211.77555,0.07624
4213.70402,0.07987
4215.63249,0.07631
4217.56096,0.07417
4219.48943,0.07832
4221.41789,0.08122
4223.34636,0.07803
4225.27483,0.07321
4227.20330,0.07159
4229.13177,0.07256
4231.06024,0.07386
4232.98871,0.07508
4234.91718,0.07444
4236.84564,0.07092
4238.77411,0.06802
4240.70258,0.06684
4242.63105,0.06426
4244.55952,0.06378
4246.48799,0.06698
4248.41646,0.06588
4250.34492,0.06122
4252.27339,0.05980
4254.20186,0.06144
4256.13033,0.06213
4258.05880,0.06028
4259.98727,0.05935
4261.91574,0.06156
4263.84421,0.06334
4265.77267,0.06277
4267.70114,0.06232
4269.62961,0.06115
4271.55808,0.05982
4273.48655,0.06250
4275.41502,0.06563
4277.34349,0.06408
4279.27195,0.06252
4281.20042,0.06359
4283.12889,0.06300
4285.05736,0.06291
4286.98583,0.06441
4288.91430,0.06231
4290.84277,0.05936
4292.77124,0.06111
4294.69970,0.06287
4296.62817,0.05967
4298.55664,0.05533
4300.48511,0.05385
4302.41358,0.05640
4304.34205,0.06161
4306.27052,0.06453
4308.19898,0.05957
4310.12745,0.05099
4312.05592,0.04911
4313.98439,0.05134
4315.91286,0.05365
4317.84133,0.05560
4319.76980,0.05103
4321.69827,0.04284
4323.62673,0.03846
4325.55520,0.03698
4327.48367,0.03932
4329.41214,0.04399
4331.34061,0.04677
4333.26908,0.05024
4335.19755,0.05343
4337.12601,0.05285
4339.05448,0.04966
4340.98295,0.04541
4342.91142,0.04147
4344.83989,0.04022
4346.76836,0.04390
4348.69683,0.04792
4350.62530,0.04613
4352.55376,0.04047
4354.48223,0.03605
4356.41070,0.03591
4358.33917,0.03858
4360.26764,0.04009
4362.19611,0.03896
4364.12458,0.03520
4366.05304,0.03336
4367.98151,0.03861
4369.90998,0.04332
4371.83845,0.04221
4373.76692,0.04163
4375.69539,0.04277
4377.62386,0.04250
4379.55232,0.04175
4381.48079,0.04259
4383.40926,0.04223
4385.33773,0.04002
4387.26620,0.03782
4389.19467,0.03349
4391.12314,0.02971
4393.05161,0.02962
4394.98007,0.02777
4396.90854,0.02211
4398.83701,0.01975
4400.76548,0.02276
4402.69395,0.02780
4404.62242,0.03313
4406.55089,0.03596
4408.47935,0.03593
4410.40782,0.03274
4412.33629,0.02730
4414.26476,0.02381
4416.19323,0.02246
4418.12170,0.02063
4420.05017,0.01856
4421.97864,0.01653
4423.90710,0.01482
4425.83557,0.02054
4427.76404,0.03438
4429.69251,0.04349
4431.62098,0.03824
4433.54945,0.02367
4435.47792,0.01632
4437.40638,0.02094
4439.33485,0.02592
4441.26332,0.02469
4443.19179,0.02179
4445.12026,0.02293
4447.04873,0.02600
4448.97720,0.02549
4450.90567,0.02554
4452.83413,0.03175
4454.76260,0.03552
4456.69107,0.02901
4458.61954,0.01866
4460.54801,0.01313
4462.47648,0.01152
4464.40495,0.01090
4466.33341,0.01389
4468.26188,0.01888
4470.19035,0.01934
4472.11882,0.01588
4474.04729,0.01373
4475.97576,0.01297
4477.90423,0.01313
4479.83270,0.01524
4481.76116,0.01683
4483.68963,0.01507
4485.61810,0.01341
4487.54657,0.01711
4489.47504,0.02115
4491.40351,0.02039
4493.33198,0.01962
4495.26044,0.02066
4497.18891,0.01878
4499.11738,0.01316
4501.04585,0.01206
4502.97432,0.01744
4504.90279,0.01755
4506.83126,0.00940
4508.75973,0.00385
4510.68819,0.00316
4512.61666,0.00552
4514.54513,0.01155
4516.47360,0.01434
4518.40207,0.01415
4520.33054,0.01740
4522.25901,0.02088
4524.18747,0.02015
4526.11594,0.01730
4528.04441,0.01356
4529.97288,0.00659
4531.90135,0.00132
4533.82982,0.00249
4535.75829,0.00658
4537.68676,0.00809
4539.61522,0.00198
4541.54369,-0.00508
4543.47216,-0.00081
4545.40063,0.01234
4547.32910,0.02072
4549.25757,0.01740
4551.18604,0.01054
4553.11450,0.01009
4555.04297,0.01326
4556.97144,0.01192
4558.89991,0.00679
4560.82838,0.00270
4562.75685,0.00000
4564.68532,-0.00013
4566.61378,0.00276
4568.54225,0.00481
4570.47072,0.00359
4572.39919,-0.00024
4574.32766,-0.00286
4576.25613,-0.00234
4578.18460,0.00022
4580.11307,0.00522
4582.04153,0.00581
4583.97000,0.00042
4585.89847,0.00152
4587.82694,0.00825
4589.75541,0.00964
4591.68388,0.00818
4593.61235,0.01160
4595.54081,0.01737
4597.46928,0.01864
4599.39775,0.01263
4601.32622,0.00158
4603.25469,-0.00621
4605.18316,-0.00465
4607.11163,0.00139
4609.04010,0.00416
4610.96856,0.00301
4612.89703,0.00245
4614.82550,0.00298
4616.75397,0.00309
4618.68244,0.00485
4620.61091,0.00796
4622.53938,0.00726
4624.46784,0.00236
4626.39631,0.00006
4628.32478,0.00114
4630.25325,0.00106
4632.18172,0.00301
4634.11019,0.00779
4636.03866,0.00885
4637.96713,0.00451
4639.89559,-0.00389
4641.82406,-0.00847
4643.75253,-0.00465
4645.68100,-0.00054
4647.60947,0.00413
4649.53794,0.00894
4651.46641,0.00753
4653.39487,0.00330
4655.32334,0.00057
4657.25181,0.00167
4659.18028,0.00568
4661.10875,0.00485
4663.03722,-0.00172
4664.96569,-0.00492
4666.89416,-0.00268
4668.82262,0.00324
4670.75109,0.01112
4672.67956,0.01217
4674.60803,0.00713
4676.53650,0.00450
4678.46497,0.00351
4680.39344,0.00297
4682.32190,0.00369
4684.25037,0.00357
4686.17884,0.00180
4688.10731,-0.00150
4690.03578,-0.00422
4691.96425,-0.00109
4693.89272,0.00802
4695.82119,0.01428
4697.74965,0.01327
4699.67812,0.01048
4701.60659,0.00670
4703.53506,0.00037
4705.46353,-0.00337
4707.39200,-0.00398
4709.32047,-0.00495
4711.24893,-0.00429
4713.17740,0.00109
4715.10587,0.00557
4717.03434,0.00299
4718.96281,0.00089
4720.89128,0.00898
4722.81975,0.01958
4724.74821,0.02108
4726.67668,0.01671
4728.60515,0.01041
4730.53362,0.00287
4732.46209,-0.00225
4734.39056,-0.00241
4736.31903,-0.00095
4738.24750,-0.00128
4740.17596,0.00011
4742.10443,0.00441
4744.03290,0.00723
4745.96137,0.00299
4747.88984,-0.00385
4749.81831,-0.00255
4751.74678,-0.00037
4753.67524,-0.00612
4755.60371,-0.00951
4757.53218,-0.00189
4759.46065,0.00818
4761.38912,0.00785
4763.31759,0.00219
4765.24606,0.00390
4767.17453,0.01044
4769.10299,0.01006
4771.03146,-0.00196
4772.95993,-0.01783
4774.88840,-0.02569
4776.81687,-0.02092
4778.74534,-0.01025
4780.67381,-0.00895
4782.60227,-0.01557
4784.53074,-0.01251
4786.45921,-0.00366
4788.38768,-0.00296
4790.31615,-0.00471
4792.24462,0.00146
4794.17309,0.01213
4796.10156,0.01684
4798.03002,0.01119
4799.95849,0.00356
4801.88696,0.00046
4803.81543,-0.00448
4805.74390,-0.00705
4807.67237,0.00232
4809.60084,0.01436
4811.52930,0.01854
4813.45777,0.01814
4815.38624,0.02029
4817.31471,0.01850
4819.24318,0.00803
4821.17165,0.00267
4823.10012,0.00725
4825.02859,0.00788
4826.95705,0.00134
4828.88552,-0.00428
4830.81399,-0.00225
4832.74246,0.00691
4834.67093,0.01066
4836.59940,0.00742
4838.52787,0.00511
4840.45633,0.00483
4842.38480,0.00416
4844.31327,-0.00039
4846.24174,-0.00387
4848.17021,-0.00046
4850.09868,-0.00009
4852.02715,-0.00896
4853.95562,-0.01448
4855.88408,-0.01307
4857.81255,-0.00955
4859.74102,-0.00383
4861.66949,-0.00153
4863.59796,-0.00388
4865.52643,0.00099
4867.45490,0.01078
4869.38336,0.01185
4871.31183,0.00983
4873.24030,0.00783
4875.16877,-0.00060
4877.09724,-0.00410
4879.02571,-0.00054
4880.95418,-0.00484
4882.88265,-0.00952
4884.81111,0.00134
4886.73958,0.01900
4888.66805,0.02516
4890.59652,0.01809
4892.52499,0.01385
4894.45346,0.01655
4896.38193,0.01531
4898.31039,0.01113
4900.23886,0.00563
4902.16733,-0.00313
4904.09580,-0.00794
4906.02427,-0.00562
4907.95274,-0.00025
4909.88121,0.00302
4911.80967,0.00338
4913.73814,0.00919
4915.66661,0.02144
4917.59508,0.02627
4919.52355,0.01785
4921.45202,0.01235
4923.38049,0.01166
4925.30896,-0.00142
4927.23742,-0.01530
4929.16589,-0.01574
4931.09436,-0.01234
4933.02283,-0.00506
4934.95130,0.00454
4936.87977,0.00466
4938.80824,-0.00133
4940.73670,-0.00292
4942.66517,-0.00085
4944.59364,-0.00253
4946.52211,-0.00507
4948.45058,-0.00123
4950.37905,0.00192
4952.30752,0.00261
4954.23599,0.00961
4956.16445,0.01708
4958.09292,0.01690
4960.02139,0.01586
4961.94986,0.01366
4963.87833,0.00040
4965.80680,-0.01078
4967.73527,-0.00306
4969.66373,0.01051
4971.59220,0.01443
4973.52067,0.01306
4975.44914,0.01845
4977.37761,0.02590
4979.30608,0.02630
4981.23455,0.02426
4983.16302,0.01736
4985.09148,0.00433
4987.01995,-0.00216
4988.94842,0.00401
4990.87689,0.01219
4992.80536,0.00839
4994.73383,-0.00039
4996.66230,0.00565
4998.59076,0.02172
5000.51923,0.02946
5002.44770,0.02932
5004.37617,0.02486
5006.30464,0.01396
5008.23311,0.00613
5010.16158,0.00503
5012.09005,0.00131
5014.01851,-0.00432
5015.94698,-0.00343
5017.87545,0.00447
5019.80392,0.01056
5021.73239,0.01098
5023.66086,0.00872
5025.58933,0.00714
5027.51779,0.00734
5029.44626,0.00462
5031.37473,0.00344
5033.30320,0.01222
5035.23167,0.02522
5037.16014,0.03369
5039.08861,0.03358
5041.01708,0.02344
5042.94554,0.01361
5044.87401,0.01698
5046.80248,0.02348
5048.73095,0.02029
5050.65942,0.01442
5052.58789,0.01282
5054.51636,0.01920
5056.44482,0.03226
5058.37329,0.03728
5060.30176,0.03074
5062.23023,0.02995
5064.15870,0.03561
5066.08717,0.03479
5068.01564,0.03113
5069.94410,0.03076
5071.87257,0.02613
5073.80104,0.01343
5075.72951,0.00250
5077.65798,0.00090
5079.58645,0.00881
5081.51492,0.02010
5083.44339,0.03000
5085.37185,0.03602
5087.30032,0.03640
5089.22879,0.03967
5091.15726,0.04358
5093.08573,0.04087
5095.01420,0.03508
5096.94267,0.02450
5098.87113,0.01246
5100.79960,0.00857
5102.72807,0.01168
5104.65654,0.01380
5106.58501,0.01255
5108.51348,0.01467
5110.44195,0.02267
5112.37042,0.02611
5114.29888,0.02395
5116.22735,0.02541
5118.15582,0.02583
5120.08429,0.02102
5122.01276,0.02000
5123.94123,0.02949
5125.86970,0.04061
5127.79816,0.03851
5129.72663,0.02446
5131.65510,0.01252
5133.58357,0.01057
5135.51204,0.01704
5137.44051,0.02828
5139.36898,0.04119
5141.29745,0.05338
5143.22591,0.05634
5145.15438,0.04799
5147.08285,0.04052
5149.01132,0.03635
5150.93979,0.03634
5152.86826,0.04035
5154.79673,0.03661
5156.72519,0.02883
5158.65366,0.02951
5160.58213,0.03812
5162.51060,0.05257
5164.43907,0.06069
5166.36754,0.05503
5168.29601,0.04869
5170.22448,0.04420
5172.15294,0.03737
5174.08141,0.03409
5176.00988,0.03374
5177.93835,0.03255
5179.86682,0.03624
5181.79529,0.04185
5183.72376,0.03922
5185.65222,0.03554
5187.58069,0.04374
5189.50916,0.05791
5191.43763,0.05458
5193.36610,0.02906
5195.29457,0.01441
5197.22304,0.02532
5199.15151,0.03747
5201.07997,0.03708
5203.00844,0.03038
5204.93691,0.02216
5206.86538,0.01974
5208.79385,0.02860
5210.72232,0.03857
5212.65079,0.04331
5214.57925,0.04427
5216.50772,0.03321
5218.43619,0.01208
5220.36466,0.00558
5222.29313,0.01618
5224.22160,0.02308
5226.15007,0.01908
5228.07854,0.01594
5230.00700,0.02430
5231.93547,0.03782
5233.86394,0.04434
5235.79241,0.04501
5237.72088,0.04234
5239.64935,0.03287
5241.57782,0.01679
5243.50628,0.00266
5245.43475,0.00709
5247.36322,0.02832
5249.29169,0.04200
5251.22016,0.04126
5253.14863,0.04204
5255.07710,0.04530
5257.00556,0.04803
5258.93403,0.05926
5260.86250,0.06686
5262.79097,0.05458
5264.71944,0.03889
5266.64791,0.02610
5268.57638,0.01201
5270.50485,0.01508
5272.43331,0.03232
5274.36178,0.03993
5276.29025,0.04026
5278.21872,0.04763
5280.14719,0.05360
5282.07566,0.04700
5284.00413,0.04146
5285.93259,0.04191
5287.86106,0.04008
5289.78953,0.04298
5291.71800,0.05797
5293.64647,0.07411
5295.57494,0.07454
5297.50341,0.05531
5299.43188,0.02958
5301.36034,0.01247
5303.28881,0.01350
5305.21728,0.03453
5307.14575,0.05786
5309.07422,0.05905
5311.00269,0.04486
5312.93116,0.03737
5314.85962,0.04061
5316.78809,0.04166
5318.71656,0.03565
5320.64503,0.03645
5322.57350,0.04605
5324.50197,0.05155
5326.43044,0.05029
5328.35891,0.04833
5330.28737,0.05158
5332.21584,0.06059
5334.14431,0.06763
5336.07278,0.06684
5338.00125,0.05795
5339.92972,0.04220
5341.85819,0.03308
5343.78665,0.04904
5345.71512,0.06957
5347.64359,0.06619
5349.57206,0.06562
5351.50053,0.07395
5353.42900,0.06510
5355.35747,0.04593
5357.28594,0.03208
5359.21440,0.01904
5361.14287,0.02404
5363.07134,0.04769
5364.99981,0.05542
5366.92828,0.04569
5368.85675,0.04382
5370.78522,0.05387
5372.71368,0.05727
5374.64215,0.05153
5376.57062,0.05319
5378.49909,0.05613
5380.42756,0.05359
5382.35603,0.04888
5384.28450,0.04816
5386.21297,0.05510
5388.14143,0.06071
5390.06990,0.06600
5391.99837,0.06921
5393.92684,0.05039
5395.85531,0.01518
5397.78378,0.00312
5399.71225,0.01927
5401.64071,0.03684
5403.56918,0.04563
5405.49765,0.05503
5407.42612,0.06435
5409.35459,0.07059
5411.28306,0.08275
5413.21153,0.09282
5415.13999,0.08377
5417.06846,0.06347
5418.99693,0.04600
5420.92540,0.03696
5422.85387,0.03561
5424.78234,0.05089
5426.71081,0.08485
5428.63928,0.10405
5430.56774,0.08226
5432.49621,0.05031
5434.42468,0.04502
5436.35315,0.06327
5438.28162,0.07229
5440.21009,0.06447
5442.13856,0.05563
5444.06702,0.05718
5445.99549,0.06392
5447.92396,0.06026
5449.85243,0.05213
5451.78090,0.05508
5453.70937,0.07342
5455.63784,0.10386
5457.56631,0.11227
5459.49477,0.09367
5461.42324,0.07877
5463.35171,0.06221
5465.28018,0.05313
5467.20865,0.06988
5469.13712,0.08403
5471.06559,0.07888
5472.99405,0.08014
5474.92252,0.08236
5476.85099,0.07206
5478.77946,0.06764
5480.70793,0.06662
5482.63640,0.06300
5484.56487,0.06913
5486.49334,0.08217
5488.42180,0.08270
5490.35027,0.07202
5492.27874,0.06496
5494.20721,0.07039
5496.13568,0.08131
5498.06415,0.07877
5499.99262,0.06547
5501.92108,0.05700
5503.84955,0.05686
5505.77802,0.05859
5507.70649,0.06506
5509.63496,0.08149
5511.56343,0.08758
5513.49190,0.07034
5515.42037,0.04695
5517.34883,0.04387
5519.27730,0.06198
5521.20577,0.07890
5523.13424,0.08013
5525.06271,0.07762
5526.99118,0.08647
5528.91965,0.08037
5530.84811,0.05939
5532.77658,0.05550
5534.70505,0.05362
5536.63352,0.04309
5538.56199,0.04046
5540.49046,0.04897
5542.41893,0.06474
5544.34740,0.07897
5546.27586,0.08261
5548.20433,0.08177
5550.13280,0.08456
5552.06127,0.08897
5553.98974,0.09062
5555.91821,0.09049
5557.84668,0.08565
5559.77514,0.07752
5561.70361,0.07687
5563.63208,0.07350
5565.56055,0.06437
5567.48902,0.06646
5569.41749,0.07101
5571.34596,0.06507
5573.27443,0.05738
5575.20289,0.05550
5577.13136,0.05657
5579.05983,0.05302
5580.98830,0.04281
5582.91677,0.04155
5584.84524,0.05713
5586.77371,0.08308
5588.70217,0.10784
5590.63064,0.10919
5592.55911,0.09009
5594.48758,0.07975
5596.41605,0.08505
5598.34452,0.08837
5600.27299,0.07902
5602.20145,0.05903
5604.12992,0.03334
5606.05839,0.01042
5607.98686,0.00544
5609.91533,0.01904
5611.84380,0.03370
5613.77227,0.04431
5615.70074,0.05500
5617.62920,0.07041
5619.55767,0.08546
5621.48614,0.08412
5623.41461,0.07328
5625.34308,0.07441
5627.27155,0.09130
5629.20002,0.10450
5631.12848,0.10006
5633.05695,0.08153
5634.98542,0.05477
5636.91389,0.03780
5638.84236,0.05264
5640.77083,0.08517
5642.69930,0.09921
5644.62777,0.09002
5646.55623,0.08421
5648.48470,0.08874
5650.41317,0.07129
5652.34164,0.03223
5654.27011,0.02262
5656.19858,0.04680
5658.12705,0.06400
5660.05551,0.06478
5661.98398,0.06503
5663.91245,0.06570
5665.84092,0.05550
5667.76939,0.04403
5669.69786,0.05250
5671.62633,0.07169
5673.55480,0.07853
5675.48326,0.06838
5677.41173,0.05038
5679.34020,0.05129
5681.26867,0.07659
5683.19714,0.09267
5685.12561,0.09057
5687.05408,0.09066
5688.98254,0.09497
5690.91101,0.08974
5692.83948,0.07691
5694.76795,0.07152
5696.69642,0.06931
5698.62489,0.05510
5700.55336,0.04169
5702.48183,0.04537
5704.41029,0.05496
5706.33876,0.06427
5708.26723,0.08268
5710.19570,0.10422
5712.12417,0.12133
5714.05264,0.13027
5715.98111,0.10976
5717.90957,0.07799
5719.83804,0.07683
5721.76651,0.08634
5723.69498,0.08568
5725.62345,0.08589
5727.55192,0.09454
5729.48039,0.11692
5731.40886,0.12496
5733.33732,0.10047
5735.26579,0.08517
5737.19426,0.09141
5739.12273,0.07979
5741.05120,0.05800
5742.97967,0.05731
5744.90814,0.07977
5746.83660,0.10884
5748.76507,0.12795
5750.69354,0.13414
5752.62201,0.12836
5754.55048,0.11324
5756.47895,0.10334
5758.40742,0.10501
5760.33588,0.10942
5762.26435,0.11619
5764.19282,0.12156
5766.12129,0.11519
5768.04976,0.10105
5769.97823,0.08971
5771.90670,0.09056
5773.83517,0.09405
5775.76363,0.08662
5777.69210,0.07135
5779.62057,0.05843
5781.54904,0.06019
5783.47751,0.06985
5785.40598,0.07967
5787.33445,0.09869
5789.26291,0.12148
5791.19138,0.13349
5793.11985,0.14002
5795.04832,0.14741
5796.97679,0.13404
5798.90526,0.09646
5800.83373,0.07736
5802.76220,0.09121
5804.69066,0.09728
5806.61913,0.08898
5808.54760,0.08868
5810.47607,0.07948
5812.40454,0.06312
5814.33301,0.05874
5816.26148,0.05891
5818.18994,0.06779
5820.11841,0.09569
5822.04688,0.12201
5823.97535,0.12595
5825.90382,0.11761
5827.83229,0.09718
5829.76076,0.05192
5831.68923,0.00958
5833.61769,0.02122
5835.54616,0.06634
5837.47463,0.07834
5839.40310,0.06237
5841.33157,0.05458
5843.26004,0.05715
5845.18851,0.05324
5847.11697,0.04082
5849.04544,0.04414
5850.97391,0.07597
5852.90238,0.10825
5854.83085,0.10714
5856.75932,0.09076
5858.68779,0.09402
5860.61626,0.09640
5862.54472,0.07785
5864.47319,0.05983
5866.40166,0.06706
5868.33013,0.09029
5870.25860,0.09369
5872.18707,0.07610
5874.11554,0.06504
5876.04400,0.06750
5877.97247,0.09074
5879.90094,0.12383
5881.82941,0.11898
5883.75788,0.07779
5885.68635,0.05243
5887.61482,0.06320
5889.54329,0.08181
5891.47175,0.08779
5893.40022,0.08758
5895.32869,0.08593
5897.25716,0.08298
5899.18563,0.08477
5901.11410,0.08965
5903.04257,0.08362
5904.97103,0.07805
5906.89950,0.08385
5908.82797,0.08267
5910.75644,0.06790
5912.68491,0.06252
5914.61338,0.07722
5916.54185,0.09113
5918.47032,0.10384
5920.39878,0.12247
5922.32725,0.13285
5924.25572,0.12238
5926.18419,0.09503
5928.11266,0.08417
5930.04113,0.09946
5931.96960,0.10062
5933.89806,0.07460
5935.82653,0.06013
5937.75500,0.07335
5939.68347,0.09278
5941.61194,0.09989
5943.54041,0.08578
5945.46888,0.05439
5947.39734,0.02247
5949.32581,0.02572
5951.25428,0.07430
5953.18275,0.11534
5955.11122,0.11700
5957.03969,0.09693
5958.96816,0.07197
5960.89663,0.06000
5962.82509,0.07313
5964.75356,0.10380
5966.68203,0.12775
5968.61050,0.11851
5970.53897,0.09947
5972.46744,0.09743
5974.39591,0.09157
5976.32437,0.08010
5978.25284,0.08752
5980.18131,0.10785
5982.10978,0.10556
5984.03825,0.06669
5985.96672,0.02153
5987.89519,0.00522
5989.82366,0.01506
5991.75212,0.04238
5993.68059,0.08661
5995.60906,0.10252
5997.53753,0.06315
5999.46600,0.02991
6001.39447,0.03325
6003.32294,0.05280
6005.25140,0.09518
6007.17987,0.13938
6009.10834,0.13649
6011.03681,0.10693
6012.96528,0.08433
6014.89375,0.06989
6016.82222,0.07013
6018.75069,0.09222
6020.67915,0.11580
6022.60762,0.12123
6024.53609,0.11688
6026.46456,0.09996
6028.39303,0.07833
6030.32150,0.07270
6032.24997,0.05983
6034.17843,0.03308
6036.10690,0.02697
6038.03537,0.04815
6039.96384,0.07586
6041.89231,0.10006
6043.82078,0.10946
6045.74925,0.08717
6047.67772,0.05503
6049.60618,0.05383
6051.53465,0.07151
6053.46312,0.08014
6055.39159,0.07723
6057.32006,0.07148
6059.24853,0.08826
6061.17700,0.12475
6063.10546,0.12476
6065.03393,0.08190
6066.96240,0.06343
6068.89087,0.06792
6070.81934,0.05454
6072.74781,0.05203
6074.67628,0.08056
6076.60475,0.09994
6078.53321,0.09120
6080.46168,0.08959
6082.39015,0.11049
6084.31862,0.11127
6086.24709,0.09026
6088.17556,0.09179
6090.10403,0.09898
6092.03249,0.07352
6093.96096,0.04484
6095.88943,0.05796
6097.81790,0.09303
6099.74637,0.10435
6101.67484,0.06927
6103.60331,0.02306
6105.53177,0.00683
6107.46024,0.02329
6109.38871,0.06721
6111.31718,0.09752
6113.24565,0.09453
6115.17412,0.08988
6117.10259,0.08886
6119.03106,0.09458
6120.95952,0.11527
6122.88799,0.13779
6124.81646,0.15954
6126.74493,0.16392
6128.67340,0.12505
6130.60187,0.07357
6132.53034,0.04895
6134.45880,0.05191
6136.38727,0.06232
6138.31574,0.06341
6140.24421,0.06611
6142.17268,0.08164
6144.10115,0.09731
6146.02962,0.08570
6147.95809,0.05330
6149.88655,0.05387
6151.81502,0.10547
6153.74349,0.14195
6155.67196,0.11202
6157.60043,0.04410
6159.52890,-0.00651
6161.45737,-0.01501
6163.38583,-0.00421
6165.31430,0.01440
6167.24277,0.04809
6169.17124,0.08102
6171.09971,0.07917
6173.02818,0.03922
6174.95665,0.00905
6176.88512,0.02476
6178.81358,0.07036
6180.74205,0.09355
6182.67052,0.07017
6184.59899,0.03047
6186.52746,0.01361
6188.45593,0.02130
6190.38440,0.02208
6192.31286,0.01560
6194.24133,0.02323
6196.16980,0.06100
6198.09827,0.09676
6200.02674,0.08759
6201.95521,0.06095
6203.88368,0.03772
6205.81215,0.01950
6207.74061,0.04043
6209.66908,0.10800
6211.59755,0.14835
6213.52602,0.12458
6215.45449,0.09661
6217.38296,0.10194
6219.31143,0.11661
6221.23989,0.11426
6223.16836,0.09713
6225.09683,0.06861
6227.02530,0.05067
6228.95377,0.05826
6230.88224,0.05471
6232.81071,0.05098
6234.73918,0.07592
6236.66764,0.08173
6238.59611,0.05561
6240.52458,0.04167
6242.45305,0.05428
6244.38152,0.06882
6246.30999,0.06126
6248.23846,0.05152
6250.16692,0.07079
6252.09539,0.07763
6254.02386,0.04593
6255.95233,0.03191
6257.88080,0.05577
6259.80927,0.07936
6261.73774,0.09416
6263.66621,0.10688
6265.59467,0.10356
6267.52314,0.08252
6269.45161,0.06678
6271.38008,0.07601
6273.30855,0.09932
6275.23702,0.11678
6277.16549,0.12356
6279.09395,0.11467
6281.02242,0.10848
6282.95089,0.10423
6284.87936,0.09553
6286.80783,0.11405
6288.73630,0.14313
6290.66477,0.13357
6292.59323,0.08639
6294.52170,0.04635
6296.45017,0.05540
6298.37864,0.11127
6300.30711,0.17004
6302.23558,0.17904
6304.16405,0.15197
6306.09252,0.14669
6308.02098,0.13264
6309.94945,0.09066
6311.87792,0.08720
6313.80639,0.10660
6315.73486,0.10721
6317.66333,0.09541
6319.59180,0.07247
6321.52026,0.07800
6323.44873,0.11573
6325.37720,0.12632
6327.30567,0.07763
6329.23414,0.00436
6331.16261,-0.01314
6333.09108,0.02226
6335.01955,0.06133
6336.94801,0.08798
6338.87648,0.09955
6340.80495,0.10576
6342.73342,0.10570
6344.66189,0.10025
6346.59036,0.10960
6348.51883,0.12342
6350.44729,0.09658
6352.37576,0.04708
6354.30423,0.03069
6356.23270,0.02792
6358.16117,0.02136
6360.08964,0.02817
6362.01811,0.03227
6363.94658,0.03530
6365.87504,0.06605
6367.80351,0.09199
6369.73198,0.09679
6371.66045,0.11238
6373.58892,0.13221
6375.51739,0.13509
6377.44586,0.12590
6379.37432,0.12933
6381.30279,0.13819
6383.23126,0.10697
6385.15973,0.07376
6387.08820,0.08022
6389.01667,0.07109
6390.94514,0.06354
6392.87361,0.09337
6394.80207,0.08808
6396.73054,0.04245
6398.65901,0.02377
6400.58748,0.03151
6402.51595,0.02466
6404.44442,0.00758
6406.37289,0.03240
6408.30135,0.10437
6410.22982,0.14843
6412.15829,0.12120
6414.08676,0.08257
6416.01523,0.10293
6417.94370,0.13184
6419.87217,0.08902
6421.80064,0.05036
6423.72910,0.06686
6425.65757,0.09143
6427.58604,0.08493
6429.51451,0.03895
6431.44298,0.00834
6433.37145,0.06376
6435.29992,0.14130
6437.22838,0.13075
6439.15685,0.06877
6441.08532,0.05908
6443.01379,0.08928
6444.94226,0.10304
6446.87073,0.08893
6448.79920,0.07944
6450.72766,0.07912
6452.65613,0.05591
6454.58460,0.04064
6456.51307,0.06729
6458.44154,0.07522
6460.37001,0.04225
6462.29848,0.03119
6464.22695,0.06517
6466.15541,0.10760
6468.08388,0.12623
6470.01235,0.13643
6471.94082,0.15586
6473.86929,0.16890
6475.79776,0.13033
6477.72623,0.05137
6479.65469,0.03869
6481.58316,0.08141
6483.51163,0.10179
6485.44010,0.13008
6487.36857,0.17470
6489.29704,0.18083
6491.22551,0.14877
6493.15398,0.10302
6495.08244,0.04981
6497.01091,0.03282
6498.93938,0.05088
6500.86785,0.05635
6502.79632,0.06282
6504.72479,0.09469
6506.65326,0.10864
6508.58172,0.07732
6510.51019,0.04299
6512.43866,0.05070
6514.36713,0.08889
6516.29560,0.09062
6518.22407,0.05647
6520.15254,0.06625
6522.08101,0.09601
6524.00947,0.08675
6525.93794,0.07704
6527.86641,0.08443
6529.79488,0.06067
6531.72335,0.03189
6533.65182,0.06623
6535.58029,0.12871
6537.50875,0.12439
6539.43722,0.08627
6541.36569,0.11479
6543.29416,0.16625
6545.22263,0.15647
6547.15110,0.12139
6549.07957,0.10926
6551.00804,0.10628
6552.93650,0.09789
6554.86497,0.09045
6556.79344,0.05706
6558.72191,0.01017
6560.65038,0.01609
6562.57885,0.06364
6564.50732,0.09973
6566.43578,0.12564
6568.36425,0.11008
6570.29272,0.04456
6572.22119,0.00644
6574.14966,-0.01520
6576.07813,-0.06545
6578.00660,-0.10028
6579.93507,-0.06948
6581.86353,0.00734
6583.79200,0.09484
6585.72047,0.16011
6587.64894,0.12762
6589.57741,0.00940
6591.50588,-0.05593
6593.43435,-0.01786
6595.36281,0.04260
6597.29128,0.09231
6599.21975,0.13680
6601.14822,0.13730
6603.07669,0.11623
6605.00516,0.11694
6606.93363,0.13601
6608.86210,0.14480
6610.79056,0.11307
6612.71903,0.07400
6614.64750,0.08332
6616.57597,0.11364
6618.50444,0.10637
6620.43291,0.08737
6622.36138,0.10341
6624.28984,0.15602
6626.21831,0.18158
6628.14678,0.11295
6630.07525,0.01918
6632.00372,0.00671
6633.93219,0.04161
6635.86066,0.08389
6637.78912,0.12088
6639.71759,0.09766
6641.64606,0.01002
6643.57453,-0.04941
6645.50300,-0.02611
6647.43147,0.02542
6649.35994,0.05337
6651.28841,0.05991
6653.21687,0.05427
6655.14534,0.04610
6657.07381,0.05506
6659.00228,0.07849
6660.93075,0.10242
6662.85922,0.13951
6664.78769,0.15683
6666.71615,0.11529
6668.64462,0.05976
6670.57309,0.05072
6672.50156,0.06747
6674.43003,0.04201
6676.35850,0.01504
6678.28697,0.05404
6680.21544,0.11426
6682.14390,0.12020
6684.07237,0.05188
6686.00084,-0.00883
6687.92931,0.00894
6689.85778,0.05735
6691.78625,0.05898
6693.71472,0.01546
6695.64318,-0.03820
6697.57165,-0.06100
6699.50012,-0.03268
6701.42859,-0.00246
6703.35706,-0.01174
6705.28553,-0.01862
6707.21400,0.01573
6709.14247,0.05284
6711.07093,0.04905
6712.99940,0.01296
6714.92787,-0.03778
6716.85634,-0.05369
6718.78481,-0.00049
6720.71328,0.06376
6722.64175,0.09429
6724.57021,0.13652
6726.49868,0.19232
6728.42715,0.18497
6730.35562,0.11347
6732.28409,0.08354
6734.21256,0.10771
6736.14103,0.12130
6738.06950,0.12165
6739.99796,0.11312
6741.92643,0.09363
6743.85490,0.07389
6745.78337,0.04227
6747.71184,0.02901
6749.64031,0.04806
6751.56878,0.04186
6753.49724,0.01270
6755.42571,0.01667
6757.35418,0.07779
6759.28265,0.14610
6761.21112,0.13089
6763.13959,0.06877
6765.06806,0.04964
6766.99653,0.07745
6768.92499,0.10478
6770.85346,0.07834
6772.78193,0.02482
6774.71040,0.01309
6776.63887,0.00775
6778.56734,-0.03250
6780.49581,-0.05460
6782.42427,-0.01139
6784.35274,0.06972
6786.28121,0.09475
6788.20968,0.05934
6790.13815,0.04318
6792.06662,0.06821
6793.99509,0.08732
6795.92355,0.09094
6797.85202,0.10971
6799.78049,0.09688
6801.70896,0.03582
6803.63743,0.02579
6805.56590,0.06384
6807.49437,0.04350
6809.42284,-0.04477
6811.35130,-0.11815
6813.27977,-0.12966
6815.20824,-0.08899
6817.13671,-0.03359
6819.06518,-0.03557
6820.99365,-0.03771
6822.92212,0.04154
6824.85058,0.10906
6826.77905,0.09036
6828.70752,0.01314
6830.63599,-0.04027
6832.56446,0.00209
6834.49293,0.04236
6836.42140,0.00767
6838.34987,0.01839
6840.27833,0.06659
6842.20680,0.05230
6844.13527,0.02969
6846.06374,0.01948
6847.99221,-0.04726
6849.92068,-0.11262
6851.84915,-0.10445
6853.77761,-0.08808
6855.70608,-0.04073
6857.63455,0.06654
6859.56302,0.10323
6861.49149,0.04102
6863.41996,0.00796
6865.34843,0.01547
6867.27690,0.00585
6869.20536,0.01069
6871.13383,0.06677
6873.06230,0.14529
6874.99077,0.16289
6876.91924,0.11867
6878.84771,0.07314
6880.77618,0.05383
6882.70464,0.03625
6884.63311,0.00669
6886.56158,-0.01405
6888.49005,0.02466
6890.41852,0.09628
6892.34699,0.10368
6894.27546,0.05251
6896.20393,-0.01289
6898.13239,-0.04262
6900.06086,0.02697
6901.98933,0.12069
6903.91780,0.12326
6905.84627,0.05499
6907.77474,0.04655
6909.70321,0.08112
6911.63167,0.06367
6913.56014,0.04100
6915.48861,0.04738
6917.41708,-0.00741
6919.34555,-0.04252
6921.27402,0.02916
6923.20249,0.05211
6925.13096,0.02169
6927.05942,0.02225
6928.98789,0.05257
6930.91636,0.07000
6932.84483,0.05341
6934.77330,0.04666
6936.70177,0.07199
6938.63024,0.10658
6940.55870,0.11348
6942.48717,0.11814
6944.41564,0.16317
6946.34411,0.17966
6948.27258,0.11548
6950.20105,0.03515
6952.12952,-0.01049
6954.05799,0.03770
6955.98645,0.13758
6957.91492,0.14180
6959.84339,0.13589
6961.77186,0.15818
6963.70033,0.13596
6965.62880,0.12776
6967.55727,0.13696
6969.48573,0.07069
6971.41420,-0.01300
6973.34267,-0.01013
6975.27114,0.02379
6977.19961,0.07807
6979.12808,0.14170
6981.05655,0.14862
6982.98501,0.12251
6984.91348,0.10825
6986.84195,0.11776
6988.77042,0.13274
6990.69889,0.10816
6992.62736,0.08960
6994.55583,0.12252
6996.48430,0.12748
6998.41276,0.09550
7000.34123,0.11562
7002.26970,0.12111
7004.19817,0.09933
7006.12664,0.08810
7008.05511,0.06804
7009.98358,0.05127
7011.91204,0.01520
7013.84051,-0.03331
7015.76898,-0.00238
7017.69745,0.09366
7019.62592,0.15628
7021.55439,0.14327
7023.48286,0.05951
7025.41133,-0.03899
7027.33979,-0.03405
7029.26826,0.04961
7031.19673,0.04092
7033.12520,0.00075
7035.05367,0.06680
7036.98214,0.15953
7038.91061,0.17185
7040.83907,0.12490
7042.76754,0.07703
7044.69601,0.05061
7046.62448,0.04062
7048.55295,0.04731
7050.48142,0.03136
7052.40989,0.02120
7054.33836,0.06848
7056.26682,0.15931
7058.19529,0.21751
7060.12376,0.19096
7062.05223,0.18342
7063.98070,0.19853
7065.90917,0.14266
7067.83764,0.07349
7069.76610,0.06919
7071.69457,0.10654
7073.62304,0.08595
7075.55151,-0.00610
7077.47998,-0.06522
7079.40845,-0.04035
7081.33692,0.01140
7083.26539,0.06267
7085.19385,0.09961
7087.12232,0.05594
7089.05079,-0.00324
7090.97926,0.03915
7092.90773,0.11322
7094.83620,0.07739
7096.76467,-0.05309
7098.69313,-0.11833
7100.62160,-0.08685
7102.55007,-0.07423
7104.47854,-0.08550
7106.40701,-0.04785
7108.33548,-0.00404
7110.26395,-0.02514
7112.19242,-0.01158
7114.12088,0.06110
7116.04935,0.04050
7117.97782,-0.12591
7119.90629,-0.24108
7121.83476,-0.21897
7123.76323,-0.13428
7125.69170,-0.02895
7127.62016,0.05651
7129.54863,0.11132
7131.47710,0.14200
7133.40557,0.11632
7135.33404,0.06679
7137.26251,0.08458
7139.19098,0.16319
7141.11944,0.19321
7143.04791,0.15310
7144.97638,0.11201
7146.90485,0.08560
7148.83332,0.05825
7150.76179,0.04442
7152.69026,0.03869
7154.61873,0.07437
7156.54719,0.14734
7158.47566,0.16121
7160.40413,0.13526
7162.33260,0.11902
7164.26107,0.06810
7166.18954,-0.03865
7168.11801,-0.07592
7170.04647,0.04259
7171.97494,0.20654
7173.90341,0.28492
7175.83188,0.24318
7177.76035,0.15902
7179.68882,0.12027
7181.61729,0.05301
7183.54576,-0.03680
7185.47422,-0.00169
7187.40269,0.05411
7189.33116,0.02026
7191.25963,-0.00970
7193.18810,-0.01532
7195.11657,-0.04133
7197.04504,-0.03867
7198.97350,-0.02395
7200.90197,-0.02557
7202.83044,0.01222
7204.75891,0.08417
7206.68738,0.07002
7208.61585,0.04725
7210.54432,0.08479
7212.47279,0.12575
7214.40125,0.16092
7216.32972,0.23431
7218.25819,0.27509
7220.18666,0.15991
7222.11513,0.02336
7224.04360,-0.00908
7225.97207,0.03326
7227.90053,0.01492
7229.82900,-0.10316
7231.75747,-0.20619
7233.68594,-0.17124
7235.61441,-0.04706
7237.54288,0.08722
7239.47135,0.16850
7241.39982,0.17697
7243.32828,0.12437
7245.25675,0.12171
7247.18522,0.18076
7249.11369,0.19191
7251.04216,0.16878
7252.97063,0.16108
7254.89910,0.06557
7256.82756,-0.10708
7258.75603,-0.20794
7260.68450,-0.10231
7262.61297,0.02174
7264.54144,0.02230
7266.46991,0.07046
7268.39838,0.07365
7270.32685,-0.04806
7272.25531,-0.11955
7274.18378,-0.00562
7276.11225,0.10811
7278.04072,0.10328
7279.96919,0.01751
7281.89766,-0.01108
7283.82613,0.01254
7285.75459,-0.04327
7287.68306,-0.13214
7289.61153,-0.10666
7291.54000,-0.01558
7293.46847,0.03166
7295.39694,0.06154
7297.32541,0.00628
7299.25387,-0.13868
7301.18234,-0.21764
7303.11081,-0.12951
7305.03928,0.04316
7306.96775,0.10320
7308.89622,-0.02637
7310.82469,-0.11656
7312.75316,-0.02961
7314.68162,0.09452
7316.61009,0.14073
7318.53856,0.15243
7320.46703,0.18233
7322.39550,0.19060
7324.32397,0.15778
7326.25244,0.09276
7328.18090,0.02078
7330.10937,-0.02587
7332.03784,-0.01307
7333.96631,0.08594
7335.89478,0.23398
7337.82325,0.35104
7339.75172,0.31910
7341.68019,0.18759
7343.60865,0.15458
7345.53712,0.17074
7347.46559,0.15904
7349.39406,0.13280
7351.32253,0.12803
7353.25100,0.11486
7355.17947,0.06323
7357.10793,-0.03246
7359.03640,-0.05883
7360.96487,0.05181
7362.89334,0.14093
7364.82181,0.10892
7366.75028,0.02130
7368.67875,0.00273
7370.60722,0.00524
7372.53568,-0.02508
7374.46415,0.01157
7376.39262,0.07814
7378.32109,0.05820
7380.24956,0.03742
7382.17803,0.03453
7384.10650,0.01036
7386.03496,-0.04942
7387.96343,-0.11480
7389.89190,-0.18068
7391.82037,-0.27184
7393.74884,-0.28710
7395.67731,-0.11200
7397.60578,0.07761
7399.53425,0.10654
7401.46271,0.09879
7403.39118,0.17084
7405.31965,0.24389
7407.24812,0.21888
7409.17659,0.10249
7411.10506,-0.02776
7413.03353,-0.04572
7414.96199,0.05847
7416.89046,0.13654
7418.81893,0.08044
7420.74740,0.07986
7422.67587,0.15180
7424.60434,0.15979
7426.53281,0.10505
7428.46128,0.02731
7430.38974,0.01713
7432.31821,0.10574
7434.24668,0.19067
7436.17515,0.20710
7438.10362,0.18300
7440.03209,0.18774
7441.96056,0.22459
7443.88902,0.27918
7445.81749,0.32116
7447.74596,0.30598
7449.67443,0.22763
7451.60290,0.12792
7453.53137,0.08726
7455.45984,0.08368
7457.38831,0.10286
7459.31677,0.18111
7461.24524,0.20164
7463.17371,0.13661
7465.10218,0.05761
7467.03065,-0.04763
7468.95912,-0.05764
7470.88759,0.07808
7472.81605,0.15694
7474.74452,0.09350
7476.67299,0.04704
7478.60146,0.09846
7480.52993,0.17080
7482.45840,0.14972
7484.38687,0.04272
7486.31533,-0.06393
7488.24380,-0.08524
7490.17227,-0.00081
7492.10074,0.10059
7494.02921,0.15380
7495.95768,0.16489
7497.88615,0.12771
