399.19301,-0.33077
401.12148,-0.11818
403.04995,-0.00777
404.97842,-0.07116
406.90689,-0.07329
408.83536,0.01439
410.76382,0.17261
412.69229,0.35103
414.62076,0.47406
416.54923,0.49570
418.47770,0.33758
420.40617,0.15482
422.33464,0.14126
424.26311,0.17188
426.19157,0.20312
428.12004,0.23128
430.04851,0.23216
431.97698,0.18952
433.90545,0.12844
435.83392,0.08586
437.76239,0.04980
439.69085,-0.01564
441.61932,-0.06761
443.54779,-0.00058
445.47626,0.11428
447.40473,0.17318
449.33320,0.17071
451.26167,0.11514
453.19013,0.06877
455.11860,0.04487
457.04707,-0.00595
458.97554,-0.04983
460.90401,-0.02752
462.83248,0.04176
464.76095,0.09943
466.68942,0.10985
468.61788,0.10898
470.54635,0.13394
472.47482,0.18812
474.40329,0.19554
476.33176,0.09050
478.26023,-0.01716
480.18870,-0.05137
482.11716,0.00363
484.04563,0.08722
485.97410,0.14885
487.90257,0.18403
489.83104,0.18112
491.75951,0.14878
493.68798,0.09119
495.61645,0.02293
497.54491,-0.00422
499.47338,0.01534
501.40185,0.05256
503.33032,0.09559
505.25879,0.12305
507.18726,0.12239
509.11573,0.08576
511.04419,0.03100
512.97266,0.00832
514.90113,0.03028
516.82960,0.05191
518.75807,0.02971
520.68654,0.00026
522.61501,0.03027
524.54348,0.10246
526.47194,0.14498
528.40041,0.13615
530.32888,0.10317
532.25735,0.08291
534.18582,0.08920
536.11429,0.09011
538.04276,0.06467
539.97122,0.05653
541.89969,0.08137
543.82816,0.10690
545.75663,0.12408
547.68510,0.12536
549.61357,0.11993
551.54204,0.13198
553.47051,0.13447
555.39897,0.10463
557.32744,0.07179
559.25591,0.07494
561.18438,0.11710
563.11285,0.15408
565.04132,0.15469
566.96979,0.14331
568.89825,0.12888
570.82672,0.09323
572.75519,0.05109
574.68366,0.03114
576.61213,0.04389
578.54060,0.07812
580.46907,0.10814
582.39754,0.12261
584.32600,0.13561
586.25447,0.14559
588.18294,0.13555
590.11141,0.11520
592.03988,0.10705
593.96835,0.10251
595.89682,0.08772
597.82528,0.07244
599.75375,0.07212
601.68222,0.09204
603.61069,0.10919
605.53916,0.11107
607.46763,0.11141
609.39610,0.11171
611.32456,0.11404
613.25303,0.11490
615.18150,0.09829
617.10997,0.07510
619.03844,0.06845
620.96691,0.07381
622.89538,0.08189
624.82385,0.09354
626.75231,0.10347
628.68078,0.10559
630.60925,0.09964
632.53772,0.08944
634.46619,0.08642
636.39466,0.09307
638.32313,0.10593
640.25159,0.12405
642.18006,0.13527
644.10853,0.13654
646.03700,0.13637
647.96547,0.13401
649.89394,0.12583
651.82241,0.11121
653.75088,0.09659
655.67934,0.09654
657.60781,0.11452
659.53628,0.13176
661.46475,0.13483
663.39322,0.13280
665.32169,0.13760
667.25016,0.15590
669.17862,0.16007
671.10709,0.13349
673.03556,0.11517
674.96403,0.10572
676.89250,0.09807
678.82097,0.09891
680.74944,0.11044
682.67791,0.12751
684.60637,0.13271
686.53484,0.12137
688.46331,0.11532
690.39178,0.11426
692.32025,0.10471
694.24872,0.09400
696.17719,0.09779
698.10565,0.11770
700.03412,0.13912
701.96259,0.14738
703.89106,0.14298
705.81953,0.13318
707.74800,0.11848
709.67647,0.11081
711.60494,0.11350
713.53340,0.11365
715.46187,0.11470
717.39034,0.11792
719.31881,0.11735
721.24728,0.11943
723.17575,0.12848
725.10422,0.13651
727.03268,0.13482
728.96115,0.12403
730.88962,0.11433
732.81809,0.11206
734.74656,0.11262
736.67503,0.11490
738.60350,0.12381
740.53197,0.13198
742.46043,0.12718
744.38890,0.11388
746.31737,0.10561
748.24584,0.10684
750.17431,0.10782
752.10278,0.10280
754.03125,0.10259
755.95971,0.11117
757.88818,0.12226
759.81665,0.13570
761.74512,0.14613
763.67359,0.14279
765.60206,0.13074
767.53053,0.12306
769.45900,0.11925
771.38746,0.11514
773.31593,0.11695
775.24440,0.12489
777.17287,0.12808
779.10134,0.12931
781.02981,0.13727
782.95828,0.13981
784.88674,0.12995
786.81521,0.12397
788.74368,0.12205
790.67215,0.11656
792.60062,0.11583
794.52909,0.11803
796.45756,0.12088
798.38602,0.13018
800.31449,0.13410
802.24296,0.12168
804.17143,0.10890
806.09990,0.10593
808.02837,0.10472
809.95684,0.10413
811.88531,0.10705
813.81377,0.11430
815.74224,0.11697
817.67071,0.11028
819.59918,0.10989
821.52765,0.11837
823.45612,0.12225
825.38459,0.11514
827.31305,0.10348
829.24152,0.09719
831.16999,0.09861
833.09846,0.10670
835.02693,0.11770
836.95540,0.13017
838.88387,0.13742
840.81234,0.13270
842.74080,0.12764
844.66927,0.12860
846.59774,0.12869
848.52621,0.12778
850.45468,0.12797
852.38315,0.12980
854.31162,0.13525
856.24008,0.14190
858.16855,0.14404
860.09702,0.14105
862.02549,0.13388
863.95396,0.12346
865.88243,0.11601
867.81090,0.11131
869.73937,0.10724
871.66783,0.11207
873.59630,0.12280
875.52477,0.12595
877.45324,0.12455
879.38171,0.12642
881.31018,0.12595
883.23865,0.12431
885.16711,0.12825
887.09558,0.12822
889.02405,0.11980
890.95252,0.11601
892.88099,0.12412
894.80946,0.13817
896.73793,0.14815
898.66640,0.15002
900.59486,0.14587
902.52333,0.13649
904.45180,0.12202
906.38027,0.11125
908.30874,0.11297
910.23721,0.12252
912.16568,0.13213
914.09414,0.13977
916.02261,0.14485
917.95108,0.14493
919.87955,0.13993
921.80802,0.13315
923.73649,0.12641
925.66496,0.12232
927.59343,0.12275
929.52189,0.12390
931.45036,0.12504
933.37883,0.12915
935.30730,0.13338
937.23577,0.13672
939.16424,0.13930
941.09271,0.13665
943.02117,0.13105
944.94964,0.12720
946.87811,0.12414
948.80658,0.12255
950.73505,0.12450
952.66352,0.12860
954.59199,0.13078
956.52045,0.12984
958.44892,0.13066
960.37739,0.13272
962.30586,0.12716
964.23433,0.11686
966.16280,0.11371
968.09127,0.11757
970.01974,0.12227
971.94820,0.12553
973.87667,0.12738
975.80514,0.13034
977.73361,0.13666
979.66208,0.14008
981.59055,0.13344
983.51902,0.12452
985.44748,0.12219
987.37595,0.12492
989.30442,0.13053
991.23289,0.13527
993.16136,0.13663
995.08983,0.13893
997.01830,0.14111
998.94677,0.13737
1000.87523,0.13200
1002.80370,0.12907
1004.73217,0.12521
1006.66064,0.12715
1008.58911,0.14044
1010.51758,0.15241
1012.44605,0.15480
1014.37451,0.15153
1016.30298,0.14552
1018.23145,0.13934
1020.15992,0.13555
1022.08839,0.13332
1024.01686,0.12853
1025.94533,0.11819
1027.87380,0.10632
1029.80226,0.10639
1031.73073,0.12194
1033.65920,0.13700
1035.58767,0.14369
1037.51614,0.14432
1039.44461,0.14109
1041.37308,0.14062
1043.30154,0.14559
1045.23001,0.14936
1047.15848,0.14597
1049.08695,0.14022
1051.01542,0.14197
1052.94389,0.15196
1054.87236,0.15789
1056.80083,0.15304
1058.72929,0.14687
1060.65776,0.14463
1062.58623,0.14182
1064.51470,0.14022
1066.44317,0.14651
1068.37164,0.15407
1070.30011,0.15479
1072.22857,0.15632
1074.15704,0.15766
1076.08551,0.14989
1078.01398,0.13882
1079.94245,0.13492
1081.87092,0.14137
1083.79939,0.14826
1085.72786,0.14536
1087.65632,0.14235
1089.58479,0.14761
1091.51326,0.15237
1093.44173,0.15195
1095.37020,0.15037
1097.29867,0.14699
1099.22714,0.14108
1101.15560,0.13727
1103.08407,0.13890
1105.01254,0.14485
1106.94101,0.15073
1108.86948,0.15296
1110.79795,0.15180
1112.72642,0.15082
1114.65489,0.15080
1116.58335,0.14803
1118.51182,0.14412
1120.44029,0.14418
1122.36876,0.14535
1124.29723,0.14290
1126.22570,0.13977
1128.15417,0.13732
1130.08263,0.13261
1132.01110,0.12848
1133.93957,0.12948
1135.86804,0.13212
1137.79651,0.13114
1139.72498,0.13139
1141.65345,0.13653
1143.58191,0.14256
1145.51038,0.14889
1147.43885,0.15614
1149.36732,0.15940
1151.29579,0.15432
1153.22426,0.14769
1155.15273,0.14683
1157.08120,0.14691
1159.00966,0.14372
1160.93813,0.14066
1162.86660,0.14093
1164.79507,0.14412
1166.72354,0.14765
1168.65201,0.15120
1170.58048,0.15469
1172.50894,0.15566
1174.43741,0.15481
1176.36588,0.15483
1178.29435,0.15435
1180.22282,0.15238
1182.15129,0.15092
1184.07976,0.14983
1186.00823,0.14932
1187.93669,0.15106
1189.86516,0.15355
1191.79363,0.15407
1193.72210,0.15350
1195.65057,0.15386
1197.57904,0.15282
1199.50751,0.14857
1201.43597,0.14435
1203.36444,0.14468
1205.29291,0.14835
1207.22138,0.14985
1209.14985,0.15091
1211.07832,0.15279
1213.00679,0.15103
1214.93526,0.14609
1216.86372,0.14196
1218.79219,0.14178
1220.72066,0.14605
1222.64913,0.15249
1224.57760,0.15757
1226.50607,0.15957
1228.43454,0.15972
1230.36300,0.15927
1232.29147,0.15854
1234.21994,0.15574
1236.14841,0.15098
1238.07688,0.14836
1240.00535,0.14936
1241.93382,0.15227
1243.86229,0.15477
1245.79075,0.15491
1247.71922,0.15377
1249.64769,0.15317
1251.57616,0.15132
1253.50463,0.14808
1255.43310,0.14776
1257.36157,0.14995
1259.29003,0.15083
1261.21850,0.15236
1263.14697,0.15732
1265.07544,0.16209
1267.00391,0.16231
1268.93238,0.16090
1270.86085,0.16204
1272.78932,0.16176
1274.71778,0.15770
1276.64625,0.15660
1278.57472,0.15902
1280.50319,0.15909
1282.43166,0.15994
1284.36013,0.16438
1286.28860,0.16773
1288.21706,0.16827
1290.14553,0.16627
1292.07400,0.16291
1294.00247,0.16143
1295.93094,0.16117
1297.85941,0.15903
1299.78788,0.15475
1301.71634,0.14997
1303.64481,0.14702
1305.57328,0.14853
1307.50175,0.15404
1309.43022,0.15920
1311.35869,0.16192
1313.28716,0.16280
1315.21563,0.16123
1317.14409,0.16013
1319.07256,0.16216
1321.00103,0.16424
1322.92950,0.16473
1324.85797,0.16362
1326.78644,0.16126
1328.71491,0.15841
1330.64337,0.15547
1332.57184,0.15539
1334.50031,0.15933
1336.42878,0.16715
1338.35725,0.17655
1340.28572,0.17450
1342.21419,0.16178
1344.14266,0.15602
1346.07112,0.15852
1347.99959,0.16024
1349.92806,0.15832
1351.85653,0.15663
1353.78500,0.15772
1355.71347,0.15815
1357.64194,0.15795
1359.57040,0.16355
1361.49887,0.17465
1363.42734,0.17796
1365.35581,0.17068
1367.28428,0.16551
1369.21275,0.16545
1371.14122,0.16878
1373.06969,0.17405
1374.99815,0.17366
1376.92662,0.16842
1378.85509,0.16687
1380.78356,0.16666
1382.71203,0.16645
1384.64050,0.17167
1386.56897,0.18007
1388.49743,0.18021
1390.42590,0.17384
1392.35437,0.17281
1394.28284,0.17904
1396.21131,0.18551
1398.13978,0.18607
1400.06825,0.17985
1401.99672,0.17494
1403.92518,0.17629
1405.85365,0.17675
1407.78212,0.17232
1409.71059,0.16812
1411.63906,0.16697
1413.56753,0.17084
1415.49600,0.18159
1417.42446,0.19579
1419.35293,0.19988
1421.28140,0.19218
1423.20987,0.18588
1425.13834,0.18014
1427.06681,0.17584
1428.99528,0.17696
1430.92375,0.17995
1432.85221,0.18381
1434.78068,0.19296
1436.70915,0.19950
1438.63762,0.19396
1440.56609,0.18731
1442.49456,0.18262
1444.42303,0.18153
1446.35149,0.18506
1448.27996,0.18536
1450.20843,0.18261
1452.13690,0.18542
1454.06537,0.19769
1455.99384,0.22079
1457.92231,0.22720
1459.85077,0.20399
1461.77924,0.19201
1463.70771,0.19529
1465.63618,0.19599
1467.56465,0.18729
1469.49312,0.18701
1471.42159,0.20145
1473.35006,0.21237
1475.27852,0.20491
1477.20699,0.19509
1479.13546,0.18938
1481.06393,0.18655
1482.99240,0.18570
1484.92087,0.19155
1486.84934,0.20658
1488.77780,0.21782
1490.70627,0.20702
1492.63474,0.19324
1494.56321,0.19586
1496.49168,0.21104
1498.42015,0.21684
1500.34862,0.20797
1502.27709,0.20630
1504.20555,0.22672
1506.13402,0.27046
1508.06249,0.27008
1509.99096,0.22993
1511.91943,0.20862
1513.84790,0.20928
1515.77637,0.22680
1517.70483,0.24177
1519.63330,0.24708
1521.56177,0.24946
1523.49024,0.23991
1525.41871,0.22716
1527.34718,0.21344
1529.27565,0.20247
1531.20412,0.20498
1533.13258,0.21511
1535.06105,0.21675
1536.98952,0.22412
1538.91799,0.26030
1540.84646,0.29479
1542.77493,0.26661
1544.70340,0.22720
1546.63186,0.20156
1548.56033,0.19370
1550.48880,0.19639
1552.41727,0.20113
1554.34574,0.21066
1556.27421,0.23480
1558.20268,0.27250
1560.13115,0.25065
1562.05961,0.21217
1563.98808,0.19865
1565.91655,0.19591
1567.84502,0.19999
1569.77349,0.20203
1571.70196,0.19536
1573.63043,0.19612
1575.55889,0.20699
1577.48736,0.20527
1579.41583,0.19184
1581.34430,0.18442
1583.27277,0.18191
1585.20124,0.17937
1587.12971,0.17729
1589.05818,0.17745
1590.98664,0.17884
1592.91511,0.18198
1594.84358,0.18643
1596.77205,0.18654
1598.70052,0.18324
1600.62899,0.18113
1602.55746,0.18005
1604.48592,0.18018
1606.41439,0.18228
1608.34286,0.18478
1610.27133,0.18515
1612.19980,0.18542
1614.12827,0.19265
1616.05674,0.20702
1617.98521,0.20830
1619.91367,0.20006
1621.84214,0.20033
1623.77061,0.20257
1625.69908,0.19924
1627.62755,0.19620
1629.55602,0.19335
1631.48449,0.19471
1633.41295,0.20926
1635.34142,0.23245
1637.26989,0.22734
1639.19836,0.20499
1641.12683,0.19264
1643.05530,0.19517
1644.98377,0.21482
1646.91223,0.23891
1648.84070,0.23873
1650.76917,0.24228
1652.69764,0.26580
1654.62611,0.24639
1656.55458,0.20955
1658.48305,0.19713
1660.41152,0.20090
1662.33998,0.20404
1664.26845,0.19705
1666.19692,0.19530
1668.12539,0.20775
1670.05386,0.22034
1671.98233,0.21871
1673.91080,0.21616
1675.83926,0.21123
1677.76773,0.20602
1679.69620,0.21299
1681.62467,0.23512
1683.55314,0.25906
1685.48161,0.24360
1687.41008,0.21864
1689.33855,0.20891
1691.26701,0.20453
1693.19548,0.20867
1695.12395,0.22727
1697.05242,0.24694
1698.98089,0.25324
1700.90936,0.24029
1702.83783,0.22269
1704.76629,0.21669
1706.69476,0.20904
1708.62323,0.19712
1710.55170,0.19247
1712.48017,0.19890
1714.40864,0.21800
1716.33711,0.24043
1718.26558,0.23208
1720.19404,0.20669
1722.12251,0.19390
1724.05098,0.19012
1725.97945,0.19049
1727.90792,0.19540
1729.83639,0.20401
1731.76486,0.21734
1733.69332,0.22739
1735.62179,0.21679
1737.55026,0.20721
1739.47873,0.20492
1741.40720,0.20184
1743.33567,0.19944
1745.26414,0.20110
1747.19261,0.20837
1749.12107,0.21556
1751.04954,0.20970
1752.97801,0.19817
1754.90648,0.19523
1756.83495,0.19663
1758.76342,0.19523
1760.69189,0.19482
1762.62035,0.19199
1764.54882,0.18658
1766.47729,0.18916
1768.40576,0.20117
1770.33423,0.21647
1772.26270,0.22174
1774.19117,0.20884
1776.11964,0.19498
1778.04810,0.19041
1779.97657,0.19309
1781.90504,0.19275
1783.83351,0.18752
1785.76198,0.18373
1787.69045,0.18515
1789.61892,0.19494
1791.54738,0.20853
1793.47585,0.20983
1795.40432,0.20169
1797.33279,0.19875
1799.26126,0.20129
1801.18973,0.19895
1803.11820,0.18973
1805.04666,0.18338
1806.97513,0.18380
1808.90360,0.18894
1810.83207,0.19267
1812.76054,0.18899
1814.68901,0.18372
1816.61748,0.18333
1818.54595,0.18412
1820.47441,0.18382
1822.40288,0.18763
1824.33135,0.19376
1826.25982,0.19567
1828.18829,0.19882
1830.11676,0.20086
1832.04523,0.19249
1833.97369,0.18394
1835.90216,0.18260
1837.83063,0.18363
1839.75910,0.18432
1841.68757,0.19144
1843.61604,0.20344
1845.54451,0.20296
1847.47298,0.19276
1849.40144,0.18604
1851.32991,0.18385
1853.25838,0.18478
1855.18685,0.18604
1857.11532,0.18537
1859.04379,0.18485
1860.97226,0.18504
1862.90072,0.18567
1864.82919,0.18949
1866.75766,0.19690
1868.68613,0.20110
1870.61460,0.19589
1872.54307,0.18877
1874.47154,0.18537
1876.40001,0.18398
1878.32847,0.18276
1880.25694,0.18273
1882.18541,0.18423
1884.11388,0.18527
1886.04235,0.18698
1887.97082,0.19204
1889.89929,0.19527
1891.82775,0.19264
1893.75622,0.19044
1895.68469,0.18926
1897.61316,0.18480
1899.54163,0.17973
1901.47010,0.17830
1903.39857,0.18066
1905.32704,0.18522
1907.25550,0.18992
1909.18397,0.19130
1911.11244,0.18784
1913.04091,0.18428
1914.96938,0.18605
1916.89785,0.19109
1918.82632,0.19230
1920.75478,0.19075
1922.68325,0.19077
1924.61172,0.18947
1926.54019,0.18614
1928.46866,0.18463
1930.39713,0.18475
1932.32560,0.18366
1934.25407,0.18240
1936.18253,0.18305
1938.11100,0.18475
1940.03947,0.18787
1941.96794,0.19223
1943.89641,0.19398
1945.82488,0.19246
1947.75335,0.18904
1949.68181,0.18534
1951.61028,0.18458
1953.53875,0.18593
1955.46722,0.18625
1957.39569,0.18537
1959.32416,0.18571
1961.25263,0.18748
1963.18110,0.18787
1965.10956,0.18729
1967.03803,0.18724
1968.96650,0.18641
1970.89497,0.18512
1972.82344,0.18498
1974.75191,0.18489
1976.68038,0.18426
1978.60884,0.18550
1980.53731,0.18833
1982.46578,0.19023
1984.39425,0.19069
1986.32272,0.18898
1988.25119,0.18650
1990.17966,0.18786
1992.10812,0.19072
1994.03659,0.18908
1995.96506,0.18703
1997.89353,0.18831
1999.82200,0.18841
2001.75047,0.18582
2003.67894,0.18429
2005.60741,0.18494
2007.53587,0.18538
2009.46434,0.18474
2011.39281,0.18445
2013.32128,0.18571
2015.24975,0.18840
2017.17822,0.18992
2019.10669,0.18906
2021.03515,0.18849
2022.96362,0.18896
2024.89209,0.18853
2026.82056,0.18680
2028.74903,0.18600
2030.67750,0.18722
2032.60597,0.18775
2034.53444,0.18569
2036.46290,0.18417
2038.39137,0.18626
2040.31984,0.18930
2042.24831,0.19005
2044.17678,0.19001
2046.10525,0.19103
2048.03372,0.19110
2049.96218,0.18837
2051.89065,0.18552
2053.81912,0.18423
2055.74759,0.18394
2057.67606,0.18444
2059.60453,0.18414
2061.53300,0.18388
2063.46147,0.18597
2065.38993,0.18801
2067.31840,0.18694
2069.24687,0.18507
2071.17534,0.18445
2073.10381,0.18381
2075.03228,0.18458
2076.96075,0.18705
2078.88921,0.18722
2080.81768,0.18502
2082.74615,0.18482
2084.67462,0.18783
2086.60309,0.19065
2088.53156,0.19040
2090.46003,0.18776
2092.38850,0.18530
2094.31696,0.18473
2096.24543,0.18545
2098.17390,0.18567
2100.10237,0.18528
2102.03084,0.18573
2103.95931,0.18674
2105.88778,0.18697
2107.81624,0.18698
2109.74471,0.18759
2111.67318,0.18863
2113.60165,0.18894
2115.53012,0.18787
2117.45859,0.18791
2119.38706,0.19037
2121.31553,0.19187
2123.24399,0.18974
2125.17246,0.18611
2127.10093,0.18444
2129.02940,0.18477
2130.95787,0.18565
2132.88634,0.18652
2134.81481,0.18700
2136.74327,0.18723
2138.67174,0.18701
2140.60021,0.18654
2142.52868,0.18620
2144.45715,0.18526
2146.38562,0.18379
2148.31409,0.18273
2150.24255,0.18239
2152.17102,0.18193
2154.09949,0.18219
2156.02796,0.18478
2157.95643,0.18731
2159.88490,0.18754
2161.81337,0.18783
2163.74184,0.18966
2165.67030,0.18991
2167.59877,0.18705
2169.52724,0.18497
2171.45571,0.18582
2173.38418,0.18661
2175.31265,0.18614
2177.24112,0.18692
2179.16958,0.18899
2181.09805,0.19027
2183.02652,0.19130
2184.95499,0.19242
2186.88346,0.19212
2188.81193,0.19090
2190.74040,0.18996
2192.66887,0.18902
2194.59733,0.18839
2196.52580,0.18848
2198.45427,0.18854
2200.38274,0.18812
2202.31121,0.18820
2204.23968,0.18841
2206.16815,0.18701
2208.09661,0.18549
2210.02508,0.18546
2211.95355,0.18532
2213.88202,0.18457
2215.81049,0.18518
2217.73896,0.18795
2219.66743,0.19071
2221.59590,0.19122
2223.52436,0.18944
2225.45283,0.18718
2227.38130,0.18651
2229.30977,0.18716
2231.23824,0.18798
2233.16671,0.18856
2235.09518,0.18758
2237.02364,0.18569
2238.95211,0.18617
2240.88058,0.18829
2242.80905,0.18933
2244.73752,0.19066
2246.66599,0.19180
2248.59446,0.19054
2250.52293,0.18857
2252.45139,0.18736
2254.37986,0.18760
2256.30833,0.18963
2258.23680,0.19114
2260.16527,0.19021
2262.09374,0.18811
2264.02221,0.18678
2265.95067,0.18618
2267.87914,0.18677
2269.80761,0.18812
2271.73608,0.18891
2273.66455,0.18982
2275.59302,0.19000
2277.52149,0.18876
2279.44996,0.18772
2281.37842,0.18723
2283.30689,0.18716
2285.23536,0.18824
2287.16383,0.18928
2289.09230,0.18902
2291.02077,0.18894
2292.94924,0.19049
2294.87770,0.19310
2296.80617,0.19300
2298.73464,0.19001
2300.66311,0.18899
2302.59158,0.18795
2304.52005,0.18548
2306.44852,0.18621
2308.37699,0.18896
2310.30545,0.19059
2312.23392,0.19167
2314.16239,0.19234
2316.09086,0.19228
2318.01933,0.19122
2319.94780,0.19036
2321.87627,0.19124
2323.80473,0.19272
2325.73320,0.19656
2327.66167,0.20317
2329.59014,0.20479
2331.51861,0.20056
2333.44708,0.19985
2335.37555,0.20382
2337.30401,0.20790
2339.23248,0.21036
2341.16095,0.21226
2343.08942,0.21086
2345.01789,0.20121
2346.94636,0.19167
2348.87483,0.18733
2350.80330,0.18460
2352.73176,0.18515
2354.66023,0.19118
2356.58870,0.18746
2358.51717,0.17228
2360.44564,0.17473
2362.37411,0.18496
2364.30258,0.18235
2366.23104,0.18559
2368.15951,0.19553
2370.08798,0.19919
2372.01645,0.19731
2373.94492,0.19299
2375.87339,0.18977
2377.80186,0.18861
2379.73033,0.18860
2381.65879,0.18891
2383.58726,0.18875
2385.51573,0.18872
2387.44420,0.18862
2389.37267,0.18712
2391.30114,0.18548
2393.22961,0.18695
2395.15807,0.19079
2397.08654,0.19179
2399.01501,0.18911
2400.94348,0.18673
2402.87195,0.18578
2404.80042,0.18633
2406.72889,0.18802
2408.65736,0.18810
2410.58582,0.18729
2412.51429,0.18891
2414.44276,0.19189
2416.37123,0.19236
2418.29970,0.18965
2420.22817,0.18750
2422.15664,0.18810
2424.08510,0.18923
2426.01357,0.18923
2427.94204,0.19014
2429.87051,0.19206
2431.79898,0.19224
2433.72745,0.19133
2435.65592,0.19097
2437.58439,0.19072
2439.51285,0.19014
2441.44132,0.18943
2443.36979,0.18935
2445.29826,0.18947
2447.22673,0.18862
2449.15520,0.18805
2451.08367,0.18906
2453.01213,0.18989
2454.94060,0.19013
2456.86907,0.19069
2458.79754,0.19022
2460.72601,0.18977
2462.65448,0.19143
2464.58295,0.19279
2466.51142,0.19167
2468.43988,0.18954
2470.36835,0.18926
2472.29682,0.19153
2474.22529,0.19377
2476.15376,0.19397
2478.08223,0.19179
2480.01070,0.18908
2481.93916,0.18890
2483.86763,0.19021
2485.79610,0.19112
2487.72457,0.19163
2489.65304,0.19114
2491.58151,0.19072
2493.50998,0.19173
2495.43844,0.19221
2497.36691,0.19072
2499.29538,0.18920
2501.22385,0.18948
2503.15232,0.19138
2505.08079,0.19319
2507.00926,0.19363
2508.93773,0.19338
2510.86619,0.19289
2512.79466,0.19146
2514.72313,0.18975
2516.65160,0.18928
2518.58007,0.18886
2520.50854,0.18815
2522.43701,0.18924
2524.36547,0.19020
2526.29394,0.18959
2528.22241,0.19041
2530.15088,0.19277
2532.07935,0.19465
2534.00782,0.19484
2535.93629,0.19313
2537.86476,0.19181
2539.79322,0.19173
2541.72169,0.19238
2543.65016,0.19318
2545.57863,0.19173
2547.50710,0.18901
2549.43557,0.18903
2551.36404,0.19077
2553.29250,0.19163
2555.22097,0.19289
2557.14944,0.19435
2559.07791,0.19435
2561.00638,0.19450
2562.93485,0.19495
2564.86332,0.19370
2566.79179,0.19137
2568.72025,0.19053
2570.64872,0.19228
2572.57719,0.19451
2574.50566,0.19560
2576.43413,0.19578
2578.36260,0.19559
2580.29107,0.19532
2582.21953,0.19511
2584.14800,0.19622
2586.07647,0.19725
2588.00494,0.19559
2589.93341,0.19405
2591.86188,0.19563
2593.79035,0.19725
2595.71882,0.19633
2597.64728,0.19454
2599.57575,0.19290
2601.50422,0.19265
2603.43269,0.19373
2605.36116,0.19253
2607.28963,0.19034
2609.21810,0.19169
2611.14656,0.19475
2613.07503,0.19652
2615.00350,0.19891
2616.93197,0.20054
2618.86044,0.19768
2620.78891,0.19348
2622.71738,0.19216
2624.64585,0.19309
2626.57431,0.19437
2628.50278,0.19558
2630.43125,0.19675
2632.35972,0.19634
2634.28819,0.19435
2636.21666,0.19314
2638.14513,0.19366
2640.07359,0.19619
2642.00206,0.19870
2643.93053,0.19688
2645.85900,0.19255
2647.78747,0.19192
2649.71594,0.19573
2651.64441,0.19984
2653.57288,0.20039
2655.50134,0.19837
2657.42981,0.19761
2659.35828,0.19760
2661.28675,0.19724
2663.21522,0.19824
2665.14369,0.19929
2667.07216,0.19865
2669.00062,0.19824
2670.92909,0.19939
2672.85756,0.20071
2674.78603,0.19966
2676.71450,0.19697
2678.64297,0.19628
2680.57144,0.19656
2682.49990,0.19656
2684.42837,0.19857
2686.35684,0.20066
2688.28531,0.19993
2690.21378,0.19802
2692.14225,0.19675
2694.07072,0.19551
2695.99919,0.19503
2697.92765,0.19754
2699.85612,0.20061
2701.78459,0.20091
2703.71306,0.20076
2705.64153,0.20195
2707.57000,0.20269
2709.49847,0.20230
2711.42693,0.20105
2713.35540,0.19883
2715.28387,0.19726
2717.21234,0.19731
2719.14081,0.19728
2721.06928,0.19685
2722.99775,0.19799
2724.92622,0.20010
2726.85468,0.20042
2728.78315,0.20008
2730.71162,0.20043
2732.64009,0.19978
2734.56856,0.19980
2736.49703,0.20208
2738.42550,0.20328
2740.35396,0.20175
2742.28243,0.19930
2744.21090,0.19741
2746.13937,0.19653
2748.06784,0.19719
2749.99631,0.19961
2751.92478,0.20156
2753.85325,0.20175
2755.78171,0.20223
2757.71018,0.20365
2759.63865,0.20429
2761.56712,0.20358
2763.49559,0.20380
2765.42406,0.20621
2767.35253,0.20717
2769.28099,0.20340
2771.20946,0.19967
2773.13793,0.20065
2775.06640,0.20131
2776.99487,0.19915
2778.92334,0.19953
2780.85181,0.20297
2782.78028,0.20461
2784.70874,0.20454
2786.63721,0.20488
2788.56568,0.20385
2790.49415,0.20251
2792.42262,0.20433
2794.35109,0.20776
2796.27956,0.20906
2798.20802,0.20789
2800.13649,0.20618
2802.06496,0.20535
2803.99343,0.20556
2805.92190,0.20592
2807.85037,0.20667
2809.77884,0.20835
2811.70731,0.20970
2813.63577,0.20834
2815.56424,0.20420
2817.49271,0.20264
2819.42118,0.20636
2821.34965,0.20964
2823.27812,0.20824
2825.20659,0.20518
2827.13505,0.20369
2829.06352,0.20336
2830.99199,0.20375
2832.92046,0.20479
2834.84893,0.20555
2836.77740,0.20568
2838.70587,0.20569
2840.63433,0.20645
2842.56280,0.20865
2844.49127,0.21062
2846.41974,0.20922
2848.34821,0.20612
2850.27668,0.20545
2852.20515,0.20708
2854.13362,0.20783
2856.06208,0.20577
2857.99055,0.20344
2859.91902,0.20524
2861.84749,0.21000
2863.77596,0.21185
2865.70443,0.20990
2867.63290,0.20699
2869.56136,0.20429
2871.48983,0.20271
2873.41830,0.20102
2875.34677,0.20042
2877.27524,0.20467
2879.20371,0.21051
2881.13218,0.21206
2883.06065,0.20946
2884.98911,0.20574
2886.91758,0.20279
2888.84605,0.20179
2890.77452,0.20278
2892.70299,0.20571
2894.63146,0.20799
2896.55993,0.20722
2898.48839,0.20656
2900.41686,0.20657
2902.34533,0.20636
2904.27380,0.20706
2906.20227,0.20756
2908.13074,0.20693
2910.05921,0.20546
2911.98768,0.20469
2913.91614,0.20482
2915.84461,0.20388
2917.77308,0.20355
2919.70155,0.20567
2921.63002,0.20723
2923.55849,0.20525
2925.48696,0.20193
2927.41542,0.20284
2929.34389,0.20609
2931.27236,0.20588
2933.20083,0.20359
2935.12930,0.20088
2937.05777,0.19934
2938.98624,0.20265
2940.91471,0.20728
2942.84317,0.20802
2944.77164,0.20601
2946.70011,0.20325
2948.62858,0.20117
2950.55705,0.20159
2952.48552,0.20350
2954.41399,0.20352
2956.34245,0.20076
2958.27092,0.20160
2960.19939,0.20922
2962.12786,0.21462
2964.05633,0.21361
2965.98480,0.21128
2967.91327,0.21021
2969.84174,0.20978
2971.77020,0.20908
2973.69867,0.20881
2975.62714,0.20862
2977.55561,0.20814
2979.48408,0.20919
2981.41255,0.21115
2983.34102,0.21263
2985.26948,0.21149
2987.19795,0.20594
2989.12642,0.20287
2991.05489,0.20758
2992.98336,0.21282
2994.91183,0.21405
2996.84030,0.21460
2998.76877,0.21460
3000.69723,0.21302
3002.62570,0.21209
3004.55417,0.21329
3006.48264,0.21485
3008.41111,0.21452
3010.33958,0.21163
3012.26805,0.20498
3014.19651,0.19237
3016.12498,0.17906
3018.05345,0.17978
3019.98192,0.19656
3021.91039,0.21186
3023.83886,0.21532
3025.76733,0.21244
3027.69579,0.20998
3029.62426,0.21024
3031.55273,0.21219
3033.48120,0.21354
3035.40967,0.21424
3037.33814,0.21517
3039.26661,0.21752
3041.19508,0.21938
3043.12354,0.21708
3045.05201,0.21331
3046.98048,0.21127
3048.90895,0.21011
3050.83742,0.20941
3052.76589,0.20994
3054.69436,0.21005
3056.62282,0.20798
3058.55129,0.20733
3060.47976,0.20943
3062.40823,0.21120
3064.33670,0.21095
3066.26517,0.20890
3068.19364,0.20870
3070.12211,0.21229
3072.05057,0.21605
3073.97904,0.21521
3075.90751,0.21163
3077.83598,0.21228
3079.76445,0.21528
3081.69292,0.21433
3083.62139,0.20864
3085.54985,0.20211
3087.47832,0.20058
3089.40679,0.20418
3091.33526,0.20837
3093.26373,0.20833
3095.19220,0.20526
3097.12067,0.20653
3099.04914,0.21047
3100.97760,0.20926
3102.90607,0.20444
3104.83454,0.20507
3106.76301,0.21085
3108.69148,0.21392
3110.61995,0.21236
3112.54842,0.20961
3114.47688,0.21114
3116.40535,0.21494
3118.33382,0.21464
3120.26229,0.21228
3122.19076,0.21179
3124.11923,0.21271
3126.04770,0.21235
3127.97617,0.21295
3129.90463,0.21758
3131.83310,0.22127
3133.76157,0.21990
3135.69004,0.21559
3137.61851,0.21135
3139.54698,0.21029
3141.47545,0.21326
3143.40391,0.21491
3145.33238,0.21153
3147.26085,0.20716
3149.18932,0.20717
3151.11779,0.21271
3153.04626,0.21889
3154.97473,0.21945
3156.90320,0.21591
3158.83166,0.21407
3160.76013,0.21437
3162.68860,0.21515
3164.61707,0.21799
3166.54554,0.22232
3168.47401,0.22379
3170.40248,0.22088
3172.33094,0.21730
3174.25941,0.21755
3176.18788,0.22013
3178.11635,0.21946
3180.04482,0.21563
3181.97329,0.21446
3183.90176,0.21765
3185.83022,0.21986
3187.75869,0.21768
3189.68716,0.21552
3191.61563,0.21753
3193.54410,0.22240
3195.47257,0.22504
3197.40104,0.22160
3199.32951,0.21626
3201.25797,0.21401
3203.18644,0.21336
3205.11491,0.21265
3207.04338,0.21183
3208.97185,0.21088
3210.90032,0.21238
3212.82879,0.21746
3214.75725,0.22011
3216.68572,0.21883
3218.61419,0.21784
3220.54266,0.21365
3222.47113,0.20896
3224.39960,0.21179
3226.32807,0.21680
3228.25654,0.21889
3230.18500,0.21941
3232.11347,0.21835
3234.04194,0.21731
3235.97041,0.21523
3237.89888,0.21049
3239.82735,0.20852
3241.75582,0.21129
3243.68428,0.21229
3245.61275,0.21028
3247.54122,0.21082
3249.46969,0.21407
3251.39816,0.21670
3253.32663,0.21768
3255.25510,0.21636
3257.18357,0.21244
3259.11203,0.20948
3261.04050,0.21322
3262.96897,0.22051
3264.89744,0.22301
3266.82591,0.22110
3268.75438,0.21958
3270.68285,0.22059
3272.61131,0.22178
3274.53978,0.21913
3276.46825,0.21425
3278.39672,0.21148
3280.32519,0.21025
3282.25366,0.20758
3284.18213,0.20588
3286.11060,0.20893
3288.03906,0.21502
3289.96753,0.21896
3291.89600,0.21689
3293.82447,0.21184
3295.75294,0.20899
3297.68141,0.21042
3299.60988,0.21415
3301.53834,0.21493
3303.46681,0.21273
3305.39528,0.21061
3307.32375,0.21019
3309.25222,0.21200
3311.18069,0.21342
3313.10916,0.21358
3315.03763,0.21315
3316.96609,0.21173
3318.89456,0.21098
3320.82303,0.21091
3322.75150,0.21112
3324.67997,0.21274
3326.60844,0.21496
3328.53691,0.21699
3330.46537,0.21894
3332.39384,0.22069
3334.32231,0.22163
3336.25078,0.22123
3338.17925,0.21859
3340.10772,0.21484
3342.03619,0.21301
3343.96466,0.21116
3345.89312,0.20809
3347.82159,0.20728
3349.75006,0.20953
3351.67853,0.21304
3353.60700,0.21610
3355.53547,0.21733
3357.46394,0.21734
3359.39240,0.21783
3361.32087,0.21764
3363.24934,0.21717
3365.17781,0.21896
3367.10628,0.22222
3369.03475,0.22487
3370.96322,0.22367
3372.89168,0.21919
3374.82015,0.21641
3376.74862,0.21542
3378.67709,0.21504
3380.60556,0.21559
3382.53403,0.21613
3384.46250,0.21648
3386.39097,0.21650
3388.31943,0.21735
3390.24790,0.22089
3392.17637,0.22297
3394.10484,0.21970
3396.03331,0.21714
3397.96178,0.21737
3399.89025,0.21522
3401.81871,0.21353
3403.74718,0.21651
3405.67565,0.22200
3407.60412,0.22388
3409.53259,0.21732
3411.46106,0.20942
3413.38953,0.20908
3415.31800,0.21227
3417.24646,0.21374
3419.17493,0.21572
3421.10340,0.21595
3423.03187,0.21071
3424.96034,0.20551
3426.88881,0.20609
3428.81728,0.21153
3430.74574,0.21541
3432.67421,0.21405
3434.60268,0.20979
3436.53115,0.20430
3438.45962,0.20036
3440.38809,0.20189
3442.31656,0.20700
3444.24503,0.21069
3446.17349,0.21247
3448.10196,0.21223
3450.03043,0.20740
3451.95890,0.20013
3453.88737,0.19646
3455.81584,0.19818
3457.74431,0.20127
3459.67277,0.20227
3461.60124,0.20173
3463.52971,0.20129
3465.45818,0.19904
3467.38665,0.19358
3469.31512,0.19102
3471.24359,0.19538
3473.17206,0.19846
3475.10052,0.19522
3477.02899,0.19279
3478.95746,0.19542
3480.88593,0.20003
3482.81440,0.20090
3484.74287,0.19818
3486.67134,0.19698
3488.59980,0.19594
3490.52827,0.19346
3492.45674,0.19129
3494.38521,0.19065
3496.31368,0.19138
3498.24215,0.19093
3500.17062,0.19141
3502.09909,0.19427
3504.02755,0.19402
3505.95602,0.19147
3507.88449,0.19142
3509.81296,0.19176
3511.74143,0.18800
3513.66990,0.18179
3515.59837,0.17729
3517.52683,0.17473
3519.45530,0.17523
3521.38377,0.17905
3523.31224,0.18268
3525.24071,0.18590
3527.16918,0.18783
3529.09765,0.18265
3531.02611,0.17254
3532.95458,0.16920
3534.88305,0.17515
3536.81152,0.18042
3538.73999,0.17873
3540.66846,0.17471
3542.59693,0.17595
3544.52540,0.18366
3546.45386,0.18784
3548.38233,0.18432
3550.31080,0.18092
3552.23927,0.17900
3554.16774,0.17644
3556.09621,0.17344
3558.02468,0.17144
3559.95314,0.17315
3561.88161,0.17687
3563.81008,0.18198
3565.73855,0.18901
3567.66702,0.18531
3569.59549,0.17053
3571.52396,0.16311
3573.45243,0.16478
3575.38089,0.16657
3577.30936,0.16442
3579.23783,0.16252
3581.16630,0.16345
3583.09477,0.16634
3585.02324,0.17236
3586.95171,0.18041
3588.88017,0.17854
3590.80864,0.17123
3592.73711,0.17103
3594.66558,0.17321
3596.59405,0.17041
3598.52252,0.16901
3600.45099,0.17278
3602.37946,0.17415
3604.30792,0.17130
3606.23639,0.17119
3608.16486,0.17451
3610.09333,0.17621
3612.02180,0.17628
3613.95027,0.17490
3615.87874,0.17419
3617.80720,0.17847
3619.73567,0.17967
3621.66414,0.16845
3623.59261,0.15725
3625.52108,0.15747
3627.44955,0.17073
3629.37802,0.17890
3631.30649,0.16753
3633.23495,0.15803
3635.16342,0.15571
3637.09189,0.15459
3639.02036,0.14987
3640.94883,0.14438
3642.87730,0.14454
3644.80577,0.15465
3646.73423,0.17627
3648.66270,0.19314
3650.59117,0.17723
3652.51964,0.15903
3654.44811,0.15567
3656.37658,0.15513
3658.30505,0.14775
3660.23352,0.14117
3662.16198,0.13859
3664.09045,0.13758
3666.01892,0.14107
3667.94739,0.15135
3669.87586,0.16025
3671.80433,0.16185
3673.73280,0.16928
3675.66126,0.17454
3677.58973,0.16137
3679.51820,0.14900
3681.44667,0.14232
3683.37514,0.13845
3685.30361,0.13889
3687.23208,0.14579
3689.16055,0.15624
3691.08901,0.15572
3693.01748,0.14538
3694.94595,0.13685
3696.87442,0.13331
3698.80289,0.13626
3700.73136,0.14471
3702.65983,0.14908
3704.58829,0.14612
3706.51676,0.14536
3708.44523,0.15235
3710.37370,0.16432
3712.30217,0.16308
3714.23064,0.14918
3716.15911,0.14181
3718.08757,0.14338
3720.01604,0.15169
3721.94451,0.16065
3723.87298,0.15940
3725.80145,0.15085
3727.72992,0.14725
3729.65839,0.15153
3731.58686,0.16142
3733.51532,0.17021
3735.44379,0.16719
3737.37226,0.15599
3739.30073,0.14994
3741.22920,0.15355
3743.15767,0.16497
3745.08614,0.17108
3747.01460,0.16736
3748.94307,0.17023
3750.87154,0.17324
3752.80001,0.16146
3754.72848,0.15446
3756.65695,0.15957
3758.58542,0.16358
3760.51389,0.15382
3762.44235,0.14259
3764.37082,0.13948
3766.29929,0.14061
3768.22776,0.14247
3770.15623,0.14012
3772.08470,0.13260
3774.01317,0.13071
3775.94163,0.13577
3777.87010,0.14172
3779.79857,0.14443
3781.72704,0.14221
3783.65551,0.13704
3785.58398,0.13001
3787.51245,0.12496
3789.44092,0.12449
3791.36938,0.12678
3793.29785,0.13257
3795.22632,0.14165
3797.15479,0.14765
3799.08326,0.14846
3801.01173,0.14935
3802.94020,0.14758
3804.86866,0.14427
3806.79713,0.14116
3808.72560,0.13311
3810.65407,0.12843
3812.58254,0.13360
3814.51101,0.14432
3816.43948,0.15229
3818.36795,0.15589
3820.29641,0.15937
3822.22488,0.15164
3824.15335,0.13875
3826.08182,0.13167
3828.01029,0.12837
3829.93876,0.13037
3831.86723,0.13678
3833.79569,0.14233
3835.72416,0.14649
3837.65263,0.15205
3839.58110,0.15558
3841.50957,0.15133
3843.43804,0.14211
3845.36651,0.13333
3847.29498,0.12898
3849.22344,0.13159
3851.15191,0.14549
3853.08038,0.16920
3855.00885,0.16592
3856.93732,0.14532
3858.86579,0.13414
3860.79426,0.13514
3862.72272,0.14217
3864.65119,0.14062
3866.57966,0.13304
3868.50813,0.13420
3870.43660,0.14082
3872.36507,0.14338
3874.29354,0.14092
3876.22200,0.13406
3878.15047,0.13047
3880.07894,0.13079
3882.00741,0.13059
3883.93588,0.13350
3885.86435,0.13309
3887.79282,0.12542
3889.72129,0.12195
3891.64975,0.12235
3893.57822,0.12136
3895.50669,0.12285
3897.43516,0.12756
3899.36363,0.13178
3901.29210,0.13392
3903.22057,0.13229
3905.14903,0.12370
3907.07750,0.11564
3909.00597,0.11534
3910.93444,0.11860
3912.86291,0.12013
3914.79138,0.12223
3916.71985,0.12602
3918.64832,0.12670
3920.57678,0.12410
3922.50525,0.12176
3924.43372,0.11889
3926.36219,0.11691
3928.29066,0.12102
3930.21913,0.12904
3932.14760,0.13115
3934.07606,0.12355
3936.00453,0.11429
3937.93300,0.10898
3939.86147,0.10897
3941.78994,0.11197
3943.71841,0.11090
3945.64688,0.10899
3947.57535,0.11355
3949.50381,0.11738
3951.43228,0.11491
3953.36075,0.11263
3955.28922,0.11167
3957.21769,0.10911
3959.14616,0.10687
3961.07463,0.10713
3963.00309,0.10925
3964.93156,0.11215
3966.86003,0.11470
3968.78850,0.11687
3970.71697,0.11767
3972.64544,0.11492
3974.57391,0.11146
3976.50238,0.11025
3978.43084,0.10772
3980.35931,0.10381
3982.28778,0.10287
3984.21625,0.10362
3986.14472,0.10346
3988.07319,0.10411
3990.00166,0.10626
3991.93012,0.10747
3993.85859,0.10668
3995.78706,0.10388
3997.71553,0.09931
3999.64400,0.09687
4001.57247,0.09899
4003.50094,0.10256
4005.42941,0.10410
4007.35787,0.10444
4009.28634,0.10539
4011.21481,0.10454
4013.14328,0.10271
4015.07175,0.10251
4017.00022,0.10195
4018.92869,0.10070
4020.85715,0.09782
4022.78562,0.09322
4024.71409,0.09251
4026.64256,0.09717
4028.57103,0.10180
4030.49950,0.10365
4032.42797,0.10397
4034.35644,0.10443
4036.28490,0.10580
4038.21337,0.10602
4040.14184,0.10270
4042.07031,0.09739
4043.99878,0.09490
4045.92725,0.09792
4047.85572,0.10178
4049.78418,0.10302
4051.71265,0.10340
4053.64112,0.10166
4055.56959,0.09671
4057.49806,0.09258
4059.42653,0.09308
4061.35500,0.09842
4063.28346,0.10398
4065.21193,0.10348
4067.14040,0.09771
4069.06887,0.09332
4070.99734,0.09231
4072.92581,0.09156
4074.85428,0.08977
4076.78275,0.08769
4078.71121,0.08612
4080.63968,0.08563
4082.56815,0.08694
4084.49662,0.09051
4086.42509,0.09458
4088.35356,0.09759
4090.28203,0.09939
4092.21049,0.09994
4094.13896,0.09954
4096.06743,0.09693
4097.99590,0.09145
4099.92437,0.08632
4101.85284,0.08614
4103.78131,0.09078
4105.70978,0.09311
4107.63824,0.09131
4109.56671,0.09196
4111.49518,0.09465
4113.42365,0.09369
4115.35212,0.09037
4117.28059,0.08947
4119.20906,0.09201
4121.13752,0.09380
4123.06599,0.08979
4124.99446,0.08214
4126.92293,0.07852
4128.85140,0.08191
4130.77987,0.08603
4132.70834,0.08544
4134.63681,0.08331
4136.56527,0.08398
4138.49374,0.08678
4140.42221,0.08820
4142.35068,0.08639
4144.27915,0.08258
4146.20762,0.07846
4148.13609,0.07620
4150.06455,0.07869
4151.99302,0.08379
4153.92149,0.08490
4155.84996,0.08054
4157.77843,0.07432
4159.70690,0.07258
4161.63537,0.07753
4163.56384,0.08116
4165.49230,0.08008
4167.42077,0.08032
4169.34924,0.08402
4171.27771,0.08645
4173.20618,0.08448
4175.13465,0.07983
4177.06312,0.07566
4178.99158,0.07401
4180.92005,0.07347
4182.84852,0.07261
4184.77699,0.07521
4186.70546,0.08038
4188.63393,0.07832
4190.56240,0.06998
4192.49087,0.06558
4194.41933,0.06460
4196.34780,0.06438
4198.27627,0.06812
4200.20474,0.07557
4202.13321,0.08206
4204.06168,0.08419
4205.99015,0.08208
4207.91861,0.07938
4209.84708,0.07761
4211.77555,0.07432
4213.70402,0.07006
4215.63249,0.06664
4217.56096,0.06542
4219.48943,0.06926
4221.41789,0.07592
4223.34636,0.07922
4225.27483,0.07788
4227.20330,0.07269
4229.13177,0.06653
4231.06024,0.06518
4232.98871,0.06771
4234.91718,0.07020
4236.84564,0.06995
4238.77411,0.06700
4240.70258,0.06766
4242.63105,0.07202
4244.55952,0.07317
4246.48799,0.06934
4248.41646,0.06455
4250.34492,0.06450
4252.27339,0.06818
4254.20186,0.06883
4256.13033,0.06625
4258.05880,0.06388
4259.98727,0.06184
4261.91574,0.06201
4263.84421,0.06466
4265.77267,0.06655
4267.70114,0.06639
4269.62961,0.06302
4271.55808,0.05686
4273.48655,0.05259
4275.41502,0.05255
4277.34349,0.05266
4279.27195,0.05202
4281.20042,0.05456
4283.12889,0.05851
4285.05736,0.05978
4286.98583,0.06082
4288.91430,0.06393
4290.84277,0.06224
4292.77124,0.05323
4294.69970,0.04888
4296.62817,0.05276
4298.55664,0.05325
4300.48511,0.04787
4302.41358,0.04383
4304.34205,0.04467
4306.27052,0.04838
4308.19898,0.04855
4310.12745,0.04471
4312.05592,0.04255
4313.98439,0.04268
4315.91286,0.04381
4317.84133,0.04593
4319.76980,0.04821
4321.69827,0.04926
4323.62673,0.04752
4325.55520,0.04351
4327.48367,0.04150
4329.41214,0.04531
4331.34061,0.05113
4333.26908,0.05252
4335.19755,0.04999
4337.12601,0.04663
4339.05448,0.04487
4340.98295,0.04582
4342.91142,0.04676
4344.83989,0.04562
4346.76836,0.04357
4348.69683,0.04214
4350.62530,0.04100
4352.55376,0.03984
4354.48223,0.03978
4356.41070,0.04150
4358.33917,0.04552
4360.26764,0.04810
4362.19611,0.04465
4364.12458,0.03936
4366.05304,0.03844
4367.98151,0.04053
4369.90998,0.04138
4371.83845,0.04035
4373.76692,0.03970
4375.69539,0.04053
4377.62386,0.03936
4379.55232,0.03535
4381.48079,0.03438
4383.40926,0.03801
4385.33773,0.04150
4387.26620,0.03955
4389.19467,0.03375
4391.12314,0.03240
4393.05161,0.03566
4394.98007,0.03804
4396.90854,0.04058
4398.83701,0.04502
4400.76548,0.04641
4402.69395,0.04160
4404.62242,0.03421
4406.55089,0.02640
4408.47935,0.01906
4410.40782,0.01538
4412.33629,0.01657
4414.26476,0.02241
4416.19323,0.03084
4418.12170,0.03590
4420.05017,0.03466
4421.97864,0.02952
4423.90710,0.02328
4425.83557,0.01561
4427.76404,0.00748
4429.69251,0.00626
4431.62098,0.01406
4433.54945,0.02389
4435.47792,0.03033
4437.40638,0.03074
4439.33485,0.02631
4441.26332,0.02183
4443.19179,0.01917
4445.12026,0.01911
4447.04873,0.02194
4448.97720,0.02385
4450.90567,0.02284
4452.83413,0.02151
4454.76260,0.02275
4456.69107,0.02572
4458.61954,0.02637
4460.54801,0.02421
4462.47648,0.02074
4464.40495,0.01654
4466.33341,0.01164
4468.26188,0.00753
4470.19035,0.00796
4472.11882,0.00799
4474.04729,0.00388
4475.97576,0.00392
4477.90423,0.01058
4479.83270,0.01861
4481.76116,0.02578
4483.68963,0.03008
4485.61810,0.02715
4487.54657,0.02031
4489.47504,0.01973
4491.40351,0.02209
4493.33198,0.01805
4495.26044,0.01362
4497.18891,0.01663
4499.11738,0.02054
4501.04585,0.01774
4502.97432,0.01244
4504.90279,0.00976
4506.83126,0.00984
4508.75973,0.01248
4510.68819,0.01420
4512.61666,0.01326
4514.54513,0.01446
4516.47360,0.01939
4518.40207,0.02274
4520.33054,0.01713
4522.25901,0.00566
4524.18747,-0.00031
4526.11594,0.00060
4528.04441,0.00507
4529.97288,0.01067
4531.90135,0.01354
4533.82982,0.01377
4535.75829,0.01346
4537.68676,0.01319
4539.61522,0.01336
4541.54369,0.01310
4543.47216,0.01129
4545.40063,0.00894
4547.32910,0.00506
4549.25757,0.00018
4551.18604,-0.00138
4553.11450,-0.00187
4555.04297,-0.00342
4556.97144,0.00127
4558.89991,0.01195
4560.82838,0.01684
4562.75685,0.01570
4564.68532,0.01401
4566.61378,0.00869
4568.54225,0.00541
4570.47072,0.01011
4572.39919,0.01141
4574.32766,0.00509
4576.25613,0.00461
4578.18460,0.01412
4580.11307,0.01961
4582.04153,0.01560
4583.97000,0.01216
4585.89847,0.01052
4587.82694,0.00762
4589.75541,0.00753
4591.68388,0.00836
4593.61235,0.00474
4595.54081,0.00026
4597.46928,-0.00189
4599.39775,-0.00825
4601.32622,-0.01842
4603.25469,-0.02105
4605.18316,-0.01458
4607.11163,-0.00806
4609.04010,-0.00698
4610.96856,-0.00667
4612.89703,-0.00276
4614.82550,0.00077
4616.75397,0.00239
4618.68244,0.00165
4620.61091,-0.00094
4622.53938,0.00065
4624.46784,0.00706
4626.39631,0.01244
4628.32478,0.01534
4630.25325,0.01649
4632.18172,0.01562
4634.11019,0.01618
4636.03866,0.01622
4637.96713,0.01104
4639.89559,0.00442
4641.82406,0.00059
4643.75253,0.00150
4645.68100,0.00638
4647.60947,0.00956
4649.53794,0.00859
4651.46641,0.00768
4653.39487,0.01135
4655.32334,0.01733
4657.25181,0.02001
4659.18028,0.01789
4661.10875,0.01177
4663.03722,0.00513
4664.96569,0.00214
4666.89416,0.00185
4668.82262,0.00254
4670.75109,0.00694
4672.67956,0.01857
4674.60803,0.02984
4676.53650,0.02927
4678.46497,0.02388
4680.39344,0.02149
4682.32190,0.01504
4684.25037,0.00538
4686.17884,-0.00078
4688.10731,-0.00359
4690.03578,-0.00207
4691.96425,0.00297
4693.89272,0.00681
4695.82119,0.00913
4697.74965,0.00893
4699.67812,0.00406
4701.60659,0.00016
4703.53506,0.00307
4705.46353,0.00716
4707.39200,0.00411
4709.32047,-0.00497
4711.24893,-0.01596
4713.17740,-0.02206
4715.10587,-0.01469
4717.03434,-0.00204
4718.96281,0.00226
4720.89128,-0.00077
4722.81975,-0.00581
4724.74821,-0.00636
4726.67668,-0.00133
4728.60515,0.00501
4730.53362,0.00977
4732.46209,0.00726
4734.39056,0.00180
4736.31903,0.00706
4738.24750,0.01835
4740.17596,0.01593
4742.10443,-0.00349
4744.03290,-0.01492
4745.96137,-0.00222
4747.88984,0.01329
4749.81831,0.00985
4751.74678,0.00049
4753.67524,0.00248
4755.60371,0.00796
4757.53218,0.00768
4759.46065,0.00714
4761.38912,0.00815
4763.31759,0.00167
4765.24606,-0.00886
4767.17453,-0.00812
4769.10299,-0.00408
4771.03146,-0.00731
4772.95993,-0.00736
4774.88840,-0.00404
4776.81687,-0.00127
4778.74534,0.00421
4780.67381,0.00850
4782.60227,0.00875
4784.53074,0.00768
4786.45921,0.00717
4788.38768,0.00535
4790.31615,0.00068
4792.24462,-0.00099
4794.17309,0.00505
4796.10156,0.00965
4798.03002,0.00397
4799.95849,0.00039
4801.88696,0.01398
4803.81543,0.03478
4805.74390,0.03817
4807.67237,0.01842
4809.60084,-0.00607
4811.52930,-0.01865
4813.45777,-0.01672
4815.38624,-0.01051
4817.31471,-0.00972
4819.24318,-0.00526
4821.17165,0.00719
4823.10012,0.01470
4825.02859,0.01419
4826.95705,0.01271
4828.88552,0.01131
4830.81399,0.01123
4832.74246,0.01446
4834.67093,0.01544
4836.59940,0.01037
4838.52787,0.00417
4840.45633,0.00044
4842.38480,0.00090
4844.31327,0.00821
4846.24174,0.01370
4848.17021,0.00676
4850.09868,-0.00110
4852.02715,0.00404
4853.95562,0.01365
4855.88408,0.01601
4857.81255,0.01118
4859.74102,0.00437
4861.66949,0.00369
4863.59796,0.01011
4865.52643,0.00883
4867.45490,-0.00227
4869.38336,-0.00550
4871.31183,-0.00155
4873.24030,0.00022
4875.16877,0.00434
4877.09724,0.00787
4879.02571,0.00397
4880.95418,-0.00265
4882.88265,-0.00597
4884.81111,-0.00166
4886.73958,0.01036
4888.66805,0.01452
4890.59652,0.00348
4892.52499,-0.00581
4894.45346,-0.00861
4896.38193,-0.01124
4898.31039,-0.00914
4900.23886,-0.00233
4902.16733,0.00293
4904.09580,0.00394
4906.02427,0.00345
4907.95274,0.00599
4909.88121,0.00850
4911.80967,0.00646
4913.73814,0.00051
4915.66661,-0.00221
4917.59508,0.00751
4919.52355,0.01886
4921.45202,0.01906
4923.38049,0.01744
4925.30896,0.01919
4927.23742,0.02143
4929.16589,0.02005
4931.09436,0.01280
4933.02283,0.00756
4934.95130,0.00769
4936.87977,0.00584
4938.80824,0.00014
4940.73670,0.00044
4942.66517,0.00604
4944.59364,0.00338
4946.52211,-0.00598
4948.45058,-0.00903
4950.37905,-0.00731
4952.30752,-0.00725
4954.23599,-0.00255
4956.16445,0.00466
4958.09292,0.00694
4960.02139,0.00909
4961.94986,0.01328
4963.87833,0.01724
4965.80680,0.01933
4967.73527,0.02094
4969.66373,0.02329
4971.59220,0.02234
4973.52067,0.02031
4975.44914,0.02188
4977.37761,0.02046
4979.30608,0.00762
4981.23455,-0.00570
4983.16302,-0.00024
4985.09148,0.01300
4987.01995,0.01112
4988.94842,0.00454
4990.87689,0.00956
4992.80536,0.01543
4994.73383,0.01237
4996.66230,0.00698
4998.59076,0.00849
5000.51923,0.01481
5002.44770,0.01816
5004.37617,0.01584
5006.30464,0.00921
5008.23311,0.00553
5010.16158,0.00856
5012.09005,0.01692
5014.01851,0.02936
5015.94698,0.03470
5017.87545,0.02774
5019.80392,0.02438
5021.73239,0.02684
5023.66086,0.01843
5025.58933,0.00413
5027.51779,-0.00158
5029.44626,-0.00168
5031.37473,-0.00288
5033.30320,-0.01009
5035.23167,-0.02176
5037.16014,-0.02521
5039.08861,-0.01306
5041.01708,0.00684
5042.94554,0.02161
5044.87401,0.02063
5046.80248,0.00628
5048.73095,-0.00430
5050.65942,-0.00522
5052.58789,-0.00070
5054.51636,0.00944
5056.44482,0.02084
5058.37329,0.02288
5060.30176,0.01418
5062.23023,0.00552
5064.15870,0.00355
5066.08717,0.00878
5068.01564,0.01698
5069.94410,0.01570
5071.87257,0.00638
5073.80104,0.00606
5075.72951,0.01534
5077.65798,0.02191
5079.58645,0.01922
5081.51492,0.01683
5083.44339,0.02677
5085.37185,0.03418
5087.30032,0.02631
5089.22879,0.01637
5091.15726,0.01223
5093.08573,0.00968
5095.01420,0.01512
5096.94267,0.03089
5098.87113,0.03473
5100.79960,0.02629
5102.72807,0.03106
5104.65654,0.03765
5106.58501,0.02669
5108.51348,0.01307
5110.44195,0.00972
5112.37042,0.01150
5114.29888,0.01408
5116.22735,0.01670
5118.15582,0.01410
5120.08429,0.00747
5122.01276,0.01154
5123.94123,0.02773
5125.86970,0.03773
5127.79816,0.03554
5129.72663,0.03221
5131.65510,0.03124
5133.58357,0.03428
5135.51204,0.04395
5137.44051,0.05255
5139.36898,0.05407
5141.29745,0.05016
5143.22591,0.04518
5145.15438,0.04124
5147.08285,0.03430
5149.01132,0.02506
5150.93979,0.02542
5152.86826,0.03464
5154.79673,0.03957
5156.72519,0.04457
5158.65366,0.05179
5160.58213,0.05105
5162.51060,0.04148
5164.43907,0.02551
5166.36754,0.00920
5168.29601,0.00238
5170.22448,0.00631
5172.15294,0.01228
5174.08141,0.01805
5176.00988,0.02537
5177.93835,0.03030
5179.86682,0.02803
5181.79529,0.01716
5183.72376,0.01301
5185.65222,0.02602
5187.58069,0.03611
5189.50916,0.02666
5191.43763,0.00624
5193.36610,-0.00560
5195.29457,0.00451
5197.22304,0.03139
5199.15151,0.05153
5201.07997,0.05929
5203.00844,0.06742
5204.93691,0.06550
5206.86538,0.04804
5208.79385,0.04684
5210.72232,0.06552
5212.65079,0.07135
5214.57925,0.05740
5216.50772,0.04475
5218.43619,0.03446
5220.36466,0.01598
5222.29313,0.00563
5224.22160,0.01182
5226.15007,0.01826
5228.07854,0.02145
5230.00700,0.02900
5231.93547,0.03831
5233.86394,0.04385
5235.79241,0.04235
5237.72088,0.03896
5239.64935,0.03819
5241.57782,0.03344
5243.50628,0.02794
5245.43475,0.03213
5247.36322,0.04169
5249.29169,0.05006
5251.22016,0.05797
5253.14863,0.06638
5255.07710,0.06939
5257.00556,0.05672
5258.93403,0.03609
5260.86250,0.03297
5262.79097,0.04295
5264.71944,0.03658
5266.64791,0.02689
5268.57638,0.03049
5270.50485,0.03536
5272.43331,0.03352
5274.36178,0.02611
5276.29025,0.02324
5278.21872,0.03128
5280.14719,0.04199
5282.07566,0.04443
5284.00413,0.03554
5285.93259,0.03052
5287.86106,0.04105
5289.78953,0.05473
5291.71800,0.06269
5293.64647,0.06327
5295.57494,0.05445
5297.50341,0.04496
5299.43188,0.04140
5301.36034,0.04252
5303.28881,0.04876
5305.21728,0.05292
5307.14575,0.04997
5309.07422,0.05094
5311.00269,0.06461
5312.93116,0.08398
5314.85962,0.08590
5316.78809,0.05960
5318.71656,0.03204
5320.64503,0.01854
5322.57350,0.01071
5324.50197,0.01230
5326.43044,0.03102
5328.35891,0.05627
5330.28737,0.06927
5332.21584,0.06888
5334.14431,0.06432
5336.07278,0.06425
5338.00125,0.06744
5339.92972,0.06147
5341.85819,0.04722
5343.78665,0.03710
5345.71512,0.04013
5347.64359,0.05488
5349.57206,0.07120
5351.50053,0.07383
5353.42900,0.06193
5355.35747,0.05292
5357.28594,0.04900
5359.21440,0.04481
5361.14287,0.04156
5363.07134,0.03910
5364.99981,0.04346
5366.92828,0.06178
5368.85675,0.08120
5370.78522,0.08351
5372.71368,0.06643
5374.64215,0.04007
5376.57062,0.02620
5378.49909,0.03951
5380.42756,0.06066
5382.35603,0.06609
5384.28450,0.05587
5386.21297,0.05269
5388.14143,0.05897
5390.06990,0.05625
5391.99837,0.04833
5393.92684,0.05587
5395.85531,0.08073
5397.78378,0.09451
5399.71225,0.08498
5401.64071,0.07008
5403.56918,0.06406
5405.49765,0.06654
5407.42612,0.07720
5409.35459,0.08646
5411.28306,0.07998
5413.21153,0.06677
5415.13999,0.05588
5417.06846,0.04575
5418.99693,0.04222
5420.92540,0.03854
5422.85387,0.03500
5424.78234,0.04296
5426.71081,0.05787
5428.63928,0.07010
5430.56774,0.07677
5432.49621,0.08142
5434.42468,0.07027
5436.35315,0.04295
5438.28162,0.02826
5440.21009,0.03273
5442.13856,0.05443
5444.06702,0.08525
5445.99549,0.11019
5447.92396,0.12404
5449.85243,0.12134
5451.78090,0.10164
5453.70937,0.08632
5455.63784,0.07859
5457.56631,0.05993
5459.49477,0.04646
5461.42324,0.05586
5463.35171,0.06618
5465.28018,0.06370
5467.20865,0.06442
5469.13712,0.07923
5471.06559,0.08705
5472.99405,0.07164
5474.92252,0.04949
5476.85099,0.05156
5478.77946,0.07550
5480.70793,0.08579
5482.63640,0.07668
5484.56487,0.07444
5486.49334,0.08081
5488.42180,0.08049
5490.35027,0.06569
5492.27874,0.03732
5494.20721,0.01996
5496.13568,0.02398
5498.06415,0.03126
5499.99262,0.04550
5501.92108,0.06728
5503.84955,0.07104
5505.77802,0.06513
5507.70649,0.06989
5509.63496,0.07025
5511.56343,0.05954
5513.49190,0.05118
5515.42037,0.04985
5517.34883,0.05541
5519.27730,0.07253
5521.20577,0.08671
5523.13424,0.08841
5525.06271,0.09554
5526.99118,0.10686
5528.91965,0.10511
5530.84811,0.08767
5532.77658,0.07080
5534.70505,0.06693
5536.63352,0.06321
5538.56199,0.05294
5540.49046,0.05008
5542.41893,0.05699
5544.34740,0.06586
5546.27586,0.07395
5548.20433,0.07647
5550.13280,0.07706
5552.06127,0.07082
5553.98974,0.05627
5555.91821,0.05626
5557.84668,0.06119
5559.77514,0.05704
5561.70361,0.06693
5563.63208,0.08783
5565.56055,0.09325
5567.48902,0.08637
5569.41749,0.07970
5571.34596,0.06729
5573.27443,0.04719
5575.20289,0.02427
5577.13136,0.01238
5579.05983,0.03173
5580.98830,0.06723
5582.91677,0.07229
5584.84524,0.05707
5586.77371,0.06211
5588.70217,0.06746
5590.63064,0.05587
5592.55911,0.06055
5594.48758,0.08989
5596.41605,0.11316
5598.34452,0.10729
5600.27299,0.08896
5602.20145,0.08702
5604.12992,0.09703
5606.05839,0.10283
5607.98686,0.09994
5609.91533,0.08022
5611.84380,0.05687
5613.77227,0.05708
5615.70074,0.05784
5617.62920,0.03490
5619.55767,0.02058
5621.48614,0.03790
5623.41461,0.06718
5625.34308,0.08719
5627.27155,0.07953
5629.20002,0.06041
5631.12848,0.06618
5633.05695,0.08842
5634.98542,0.10057
5636.91389,0.09083
5638.84236,0.07621
5640.77083,0.08083
5642.69930,0.09773
5644.62777,0.09534
5646.55623,0.07232
5648.48470,0.06183
5650.41317,0.06240
5652.34164,0.06304
5654.27011,0.05619
5656.19858,0.04186
5658.12705,0.04981
5660.05551,0.08282
5661.98398,0.10719
5663.91245,0.10595
5665.84092,0.10110
5667.76939,0.10235
5669.69786,0.08637
5671.62633,0.06315
5673.55480,0.06741
5675.48326,0.09127
5677.41173,0.10630
5679.34020,0.11140
5681.26867,0.11750
5683.19714,0.12377
5685.12561,0.12577
5687.05408,0.12467
5688.98254,0.11536
5690.91101,0.09534
5692.83948,0.08051
5694.76795,0.08455
5696.69642,0.09679
5698.62489,0.08528
5700.55336,0.05609
5702.48183,0.05247
5704.41029,0.07412
5706.33876,0.09547
5708.26723,0.10727
5710.19570,0.10435
5712.12417,0.09562
5714.05264,0.08805
5715.98111,0.06552
5717.90957,0.04481
5719.83804,0.06957
5721.76651,0.11562
5723.69498,0.12045
5725.62345,0.08831
5727.55192,0.06368
5729.48039,0.05777
5731.40886,0.06241
5733.33732,0.07438
5735.26579,0.08494
5737.19426,0.08576
5739.12273,0.08716
5741.05120,0.10452
5742.97967,0.12281
5744.90814,0.11572
5746.83660,0.08110
5748.76507,0.04679
5750.69354,0.04820
5752.62201,0.06819
5754.55048,0.06386
5756.47895,0.04253
5758.40742,0.03943
5760.33588,0.06302
5762.26435,0.08206
5764.19282,0.07696
5766.12129,0.06150
5768.04976,0.05985
5769.97823,0.08083
5771.90670,0.10034
5773.83517,0.11794
5775.76363,0.14250
5777.69210,0.13600
5779.62057,0.09279
5781.54904,0.06296
5783.47751,0.06014
5785.40598,0.06323
5787.33445,0.06943
5789.26291,0.08128
5791.19138,0.08352
5793.11985,0.07348
5795.04832,0.07324
5796.97679,0.08980
5798.90526,0.10527
5800.83373,0.11437
5802.76220,0.12991
5804.69066,0.14703
5806.61913,0.14095
5808.54760,0.10724
5810.47607,0.07567
5812.40454,0.06793
5814.33301,0.06384
5816.26148,0.06410
5818.18994,0.08143
5820.11841,0.07601
5822.04688,0.04335
5823.97535,0.03770
5825.90382,0.05077
5827.83229,0.04559
5829.76076,0.04893
5831.68923,0.07790
5833.61769,0.08817
5835.54616,0.07607
5837.47463,0.07526
5839.40310,0.07388
5841.33157,0.06129
5843.26004,0.05352
5845.18851,0.04371
5847.11697,0.03265
5849.04544,0.03689
5850.97391,0.04273
5852.90238,0.04599
5854.83085,0.06610
5856.75932,0.09554
5858.68779,0.11374
5860.61626,0.12589
5862.54472,0.14313
5864.47319,0.14295
5866.40166,0.10046
5868.33013,0.04483
5870.25860,0.01427
5872.18707,0.00775
5874.11554,0.01762
5876.04400,0.03839
5877.97247,0.04843
5879.90094,0.04699
5881.82941,0.06575
5883.75788,0.09251
5885.68635,0.09177
5887.61482,0.08583
5889.54329,0.09688
5891.47175,0.10446
5893.40022,0.09786
5895.32869,0.08001
5897.25716,0.06613
5899.18563,0.06882
5901.11410,0.07340
5903.04257,0.07362
5904.97103,0.07870
5906.89950,0.08770
5908.82797,0.08815
5910.75644,0.08745
5912.68491,0.11576
5914.61338,0.14511
5916.54185,0.12844
5918.47032,0.10154
5920.39878,0.11065
5922.32725,0.14333
5924.25572,0.17027
5926.18419,0.15388
5928.11266,0.10403
5930.04113,0.10401
5931.96960,0.15312
5933.89806,0.16141
5935.82653,0.11761
5937.75500,0.08100
5939.68347,0.06210
5941.61194,0.04820
5943.54041,0.04251
5945.46888,0.04651
5947.39734,0.06899
5949.32581,0.11079
5951.25428,0.13511
5953.18275,0.11695
5955.11122,0.08649
5957.03969,0.07568
5958.96816,0.07999
5960.89663,0.08869
5962.82509,0.09746
5964.75356,0.11079
5966.68203,0.12847
5968.61050,0.13349
5970.53897,0.12022
5972.46744,0.10083
5974.39591,0.08318
5976.32437,0.06511
5978.25284,0.06143
5980.18131,0.08343
5982.10978,0.10775
5984.03825,0.11082
5985.96672,0.09682
5987.89519,0.08188
5989.82366,0.07896
5991.75212,0.09166
5993.68059,0.08581
5995.60906,0.04629
5997.53753,0.03757
5999.46600,0.07371
6001.39447,0.09912
6003.32294,0.10353
6005.25140,0.10731
6007.17987,0.10428
6009.10834,0.10478
6011.03681,0.11506
6012.96528,0.11034
6014.89375,0.09838
6016.82222,0.09462
6018.75069,0.08231
6020.67915,0.05717
6022.60762,0.04472
6024.53609,0.05999
6026.46456,0.08898
6028.39303,0.10325
6030.32150,0.09855
6032.24997,0.10786
6034.17843,0.13266
6036.10690,0.14225
6038.03537,0.13985
6039.96384,0.12266
6041.89231,0.08218
6043.82078,0.06894
6045.74925,0.09319
6047.67772,0.10562
6049.60618,0.10669
6051.53465,0.10206
6053.46312,0.08552
6055.39159,0.08055
6057.32006,0.09306
6059.24853,0.10379
6061.17700,0.10684
6063.10546,0.11007
6065.03393,0.11038
6066.96240,0.09323
6068.89087,0.06479
6070.81934,0.05106
6072.74781,0.05203
6074.67628,0.04802
6076.60475,0.05061
6078.53321,0.06960
6080.46168,0.08663
6082.39015,0.09480
6084.31862,0.10501
6086.24709,0.12040
6088.17556,0.12262
6090.10403,0.11231
6092.03249,0.09517
6093.96096,0.04926
6095.88943,0.00040
6097.81790,-0.00474
6099.74637,0.02693
6101.67484,0.07716
6103.60331,0.11351
6105.53177,0.10171
6107.46024,0.06495
6109.38871,0.05437
6111.31718,0.07203
6113.24565,0.07674
6115.17412,0.05651
6117.10259,0.05085
6119.03106,0.09396
6120.95952,0.13812
6122.88799,0.13446
6124.81646,0.11212
6126.74493,0.09857
6128.67340,0.08315
6130.60187,0.06937
6132.53034,0.06752
6134.45880,0.06393
6136.38727,0.06951
6138.31574,0.10499
6140.24421,0.13184
6142.17268,0.10757
6144.10115,0.07471
6146.02962,0.08957
6147.95809,0.12124
6149.88655,0.12037
6151.81502,0.10905
6153.74349,0.11072
6155.67196,0.09934
6157.60043,0.08075
6159.52890,0.06724
6161.45737,0.04708
6163.38583,0.02362
6165.31430,0.01065
6167.24277,0.02723
6169.17124,0.07692
6171.09971,0.11750
6173.02818,0.12608
6174.95665,0.12637
6176.88512,0.11066
6178.81358,0.08596
6180.74205,0.08290
6182.67052,0.09560
6184.59899,0.11883
6186.52746,0.13499
6188.45593,0.11026
6190.38440,0.06772
6192.31286,0.04814
6194.24133,0.04886
6196.16980,0.05503
6198.09827,0.04731
6200.02674,0.03240
6201.95521,0.04306
6203.88368,0.05115
6205.81215,0.02910
6207.74061,0.00719
6209.66908,-0.00973
6211.59755,-0.01839
6213.52602,-0.01133
6215.45449,0.00078
6217.38296,0.00443
6219.31143,0.01104
6221.23989,0.04406
6223.16836,0.09028
6225.09683,0.10800
6227.02530,0.07299
6228.95377,0.03045
6230.88224,0.03529
6232.81071,0.07924
6234.73918,0.12088
6236.66764,0.12809
6238.59611,0.11649
6240.52458,0.13154
6242.45305,0.15183
6244.38152,0.11038
6246.30999,0.04573
6248.23846,0.02921
6250.16692,0.03969
6252.09539,0.06936
6254.02386,0.11751
6255.95233,0.12153
6257.88080,0.06962
6259.80927,0.03697
6261.73774,0.05490
6263.66621,0.08082
6265.59467,0.09204
6267.52314,0.10427
6269.45161,0.10890
6271.38008,0.09929
6273.30855,0.09327
6275.23702,0.11721
6277.16549,0.16076
6279.09395,0.16785
6281.02242,0.13870
6282.95089,0.12622
6284.87936,0.11485
6286.80783,0.07117
6288.73630,0.05634
6290.66477,0.08833
6292.59323,0.07776
6294.52170,0.02713
6296.45017,0.01484
6298.37864,0.04870
6300.30711,0.09055
6302.23558,0.09045
6304.16405,0.04293
6306.09252,0.03668
6308.02098,0.11110
6309.94945,0.18234
6311.87792,0.17328
6313.80639,0.12432
6315.73486,0.10346
6317.66333,0.08911
6319.59180,0.08803
6321.52026,0.12459
6323.44873,0.12654
6325.37720,0.07691
6327.30567,0.03146
6329.23414,0.00684
6331.16261,-0.00039
6333.09108,0.01492
6335.01955,0.04258
6336.94801,0.06261
6338.87648,0.06832
6340.80495,0.06632
6342.73342,0.07418
6344.66189,0.07425
6346.59036,0.05707
6348.51883,0.05620
6350.44729,0.06581
6352.37576,0.08156
6354.30423,0.11240
6356.23270,0.11179
6358.16117,0.05542
6360.08964,0.01231
6362.01811,0.02205
6363.94658,0.04621
6365.87504,0.06028
6367.80351,0.06724
6369.73198,0.09699
6371.66045,0.12357
6373.58892,0.09843
6375.51739,0.07685
6377.44586,0.08768
6379.37432,0.09414
6381.30279,0.08244
6383.23126,0.06517
6385.15973,0.05370
6387.08820,0.02562
6389.01667,-0.02340
6390.94514,-0.04958
6392.87361,-0.00901
6394.80207,0.08711
6396.73054,0.16077
6398.65901,0.16182
6400.58748,0.11115
6402.51595,0.07567
6404.44442,0.07809
6406.37289,0.07764
6408.30135,0.06061
6410.22982,0.06118
6412.15829,0.07332
6414.08676,0.04857
6416.01523,-0.00962
6417.94370,-0.01998
6419.87217,0.04558
6421.80064,0.10342
6423.72910,0.11694
6425.65757,0.11123
6427.58604,0.10905
6429.51451,0.07892
6431.44298,0.00540
6433.37145,-0.04302
6435.29992,-0.01104
6437.22838,0.06769
6439.15685,0.11258
6441.08532,0.12793
6443.01379,0.14212
6444.94226,0.15300
6446.87073,0.16210
6448.79920,0.14417
6450.72766,0.09556
6452.65613,0.06042
6454.58460,0.06417
6456.51307,0.09288
6458.44154,0.12497
6460.37001,0.13296
6462.29848,0.08929
6464.22695,0.03010
6466.15541,0.02295
6468.08388,0.07390
6470.01235,0.12375
6471.94082,0.13515
6473.86929,0.14202
6475.79776,0.14318
6477.72623,0.11467
6479.65469,0.09041
6481.58316,0.07509
6483.51163,0.05172
6485.44010,0.05217
6487.36857,0.09756
6489.29704,0.13048
6491.22551,0.09743
6493.15398,0.04409
6495.08244,0.00054
6497.01091,-0.03097
6498.93938,-0.03565
6500.86785,-0.03753
6502.79632,-0.03093
6504.72479,-0.00204
6506.65326,0.01806
6508.58172,0.03401
6510.51019,0.07022
6512.43866,0.07585
6514.36713,0.03888
6516.29560,0.03257
6518.22407,0.04403
6520.15254,0.03995
6522.08101,0.04598
6524.00947,0.05617
6525.93794,0.03905
6527.86641,0.00953
6529.79488,0.01745
6531.72335,0.06201
6533.65182,0.07724
6535.58029,0.04254
6537.50875,0.00945
6539.43722,0.00506
6541.36569,-0.00403
6543.29416,-0.02270
6545.22263,-0.00679
6547.15110,0.02434
6549.07957,0.03460
6551.00804,0.04085
6552.93650,0.05455
6554.86497,0.04795
6556.79344,0.02558
6558.72191,0.02309
6560.65038,0.03535
6562.57885,0.05195
6564.50732,0.08903
6566.43578,0.13493
6568.36425,0.16717
6570.29272,0.20447
6572.22119,0.26260
6574.14966,0.29589
6576.07813,0.26503
6578.00660,0.19655
6579.93507,0.14058
6581.86353,0.11402
6583.79200,0.11505
6585.72047,0.11878
6587.64894,0.09897
6589.57741,0.09454
6591.50588,0.12716
6593.43435,0.13154
6595.36281,0.07747
6597.29128,0.04042
6599.21975,0.04758
6601.14822,0.04637
6603.07669,0.01652
6605.00516,-0.00336
6606.93363,0.01401
6608.86210,0.06731
6610.79056,0.11078
6612.71903,0.11311
6614.64750,0.09370
6616.57597,0.02913
6618.50444,-0.04843
6620.43291,-0.04118
6622.36138,-0.00833
6624.28984,-0.04451
6626.21831,-0.06036
6628.14678,0.03987
6630.07525,0.12805
6632.00372,0.10718
6633.93219,0.06381
6635.86066,-0.00360
6637.78912,-0.05419
6639.71759,0.00043
6641.64606,0.07968
6643.57453,0.09048
6645.50300,0.04651
6647.43147,0.01071
6649.35994,0.02168
6651.28841,0.06187
6653.21687,0.09521
6655.14534,0.09925
6657.07381,0.08268
6659.00228,0.06365
6660.93075,0.03466
6662.85922,0.02821
6664.78769,0.07166
6666.71615,0.12067
6668.64462,0.13015
6670.57309,0.09618
6672.50156,0.02735
6674.43003,-0.02114
6676.35850,0.02621
6678.28697,0.12844
6680.21544,0.19958
6682.14390,0.20767
6684.07237,0.15909
6686.00084,0.13345
6687.92931,0.14186
6689.85778,0.10773
6691.78625,0.03976
6693.71472,-0.01950
6695.64318,-0.01292
6697.57165,0.06363
6699.50012,0.07352
6701.42859,0.01781
6703.35706,0.04546
6705.28553,0.12018
6707.21400,0.12490
6709.14247,0.09118
6711.07093,0.07498
6712.99940,0.09005
6714.92787,0.10012
6716.85634,0.05261
6718.78481,0.00475
6720.71328,0.00917
6722.64175,0.02277
6724.57021,0.04508
6726.49868,0.10063
6728.42715,0.15823
6730.35562,0.16449
6732.28409,0.13238
6734.21256,0.09983
6736.14103,0.03981
6738.06950,-0.01175
6739.99796,0.00538
6741.92643,0.04576
6743.85490,0.08079
6745.78337,0.12294
6747.71184,0.13077
6749.64031,0.10021
6751.56878,0.07505
6753.49724,0.05965
6755.42571,0.04423
6757.35418,0.01237
6759.28265,-0.02873
6761.21112,-0.02588
6763.13959,-0.00908
6765.06806,-0.00544
6766.99653,0.03141
6768.92499,0.06390
6770.85346,0.07772
6772.78193,0.12502
6774.71040,0.15354
6776.63887,0.09948
6778.56734,0.04859
6780.49581,0.06214
6782.42427,0.09640
6784.35274,0.12534
6786.28121,0.14866
6788.20968,0.16128
6790.13815,0.15874
6792.06662,0.12773
6793.99509,0.10287
6795.92355,0.11544
6797.85202,0.12273
6799.78049,0.07797
6801.70896,-0.00783
6803.63743,-0.07284
6805.56590,-0.06526
6807.49437,-0.00610
6809.42284,0.02074
6811.35130,0.00254
6813.27977,0.01329
6815.20824,0.02476
6817.13671,-0.00242
6819.06518,-0.00013
6820.99365,0.05565
6822.92212,0.11845
6824.85058,0.13623
6826.77905,0.13019
6828.70752,0.11417
6830.63599,0.08520
6832.56446,0.07223
6834.49293,0.07193
6836.42140,0.04782
6838.34987,-0.02434
6840.27833,-0.09265
6842.20680,-0.07460
6844.13527,0.00278
6846.06374,0.05052
6847.99221,0.03907
6849.92068,-0.00027
6851.84915,-0.04136
6853.77761,-0.05028
6855.70608,-0.00382
6857.63455,0.04950
6859.56302,0.09042
6861.49149,0.12715
6863.41996,0.14045
6865.34843,0.15227
6867.27690,0.15167
6869.20536,0.10556
6871.13383,0.02506
6873.06230,-0.06206
6874.99077,-0.09355
6876.91924,-0.05751
6878.84771,0.00742
6880.77618,0.05647
6882.70464,0.03295
6884.63311,-0.02859
6886.56158,-0.02186
6888.49005,0.06820
6890.41852,0.15896
6892.34699,0.15588
6894.27546,0.10809
6896.20393,0.14213
6898.13239,0.17463
6900.06086,0.09625
6901.98933,0.01754
6903.91780,0.00680
6905.84627,0.02666
6907.77474,0.04428
6909.70321,0.06387
6911.63167,0.05470
6913.56014,0.01312
6915.48861,-0.01636
6917.41708,-0.06305
6919.34555,-0.12358
6921.27402,-0.09582
6923.20249,-0.00688
6925.13096,0.08757
6927.05942,0.15912
6928.98789,0.15576
6930.91636,0.11364
6932.84483,0.07571
6934.77330,0.00821
6936.70177,-0.04336
6938.63024,-0.03088
6940.55870,0.02879
6942.48717,0.06887
6944.41564,0.04602
6946.34411,0.00578
6948.27258,-0.00608
6950.20105,-0.01698
6952.12952,-0.01593
6954.05799,0.00439
6955.98645,0.00316
6957.91492,0.01620
6959.84339,0.03187
6961.77186,0.01988
6963.70033,-0.00704
6965.62880,-0.03453
6967.55727,-0.01801
6969.48573,0.04275
6971.41420,0.11324
6973.34267,0.14779
6975.27114,0.09766
6977.19961,0.05162
6979.12808,0.04052
6981.05655,0.06560
6982.98501,0.10578
6984.91348,0.10358
6986.84195,0.06704
6988.77042,0.00069
6990.69889,-0.05838
6992.62736,-0.05397
6994.55583,-0.01566
6996.48430,0.06255
6998.41276,0.17993
7000.34123,0.24165
7002.26970,0.23075
7004.19817,0.14171
7006.12664,-0.02896
7008.05511,-0.12531
7009.98358,-0.10324
7011.91204,-0.08866
7013.84051,-0.06990
7015.76898,-0.02800
7017.69745,-0.02906
7019.62592,-0.02193
7021.55439,0.03859
7023.48286,0.09502
7025.41133,0.13547
7027.33979,0.15644
7029.26826,0.08913
7031.19673,-0.02301
7033.12520,-0.04749
7035.05367,0.04408
7036.98214,0.12969
7038.91061,0.15399
7040.83907,0.15958
7042.76754,0.11148
7044.69601,0.00030
7046.62448,-0.05676
7048.55295,-0.03459
7050.48142,0.02342
7052.40989,0.08075
7054.33836,0.08882
7056.26682,0.06449
7058.19529,0.04465
7060.12376,0.03168
7062.05223,0.01463
7063.98070,-0.00314
7065.90917,0.01878
7067.83764,0.10143
7069.76610,0.17087
7071.69457,0.08307
7073.62304,-0.04503
7075.55151,-0.03271
7077.47998,0.04947
7079.40845,0.11795
7081.33692,0.16103
7083.26539,0.15033
7085.19385,0.06168
7087.12232,-0.07542
7089.05079,-0.14321
7090.97926,-0.09676
7092.90773,-0.01989
7094.83620,0.05605
7096.76467,0.14495
7098.69313,0.19614
7100.62160,0.17679
7102.55007,0.14402
7104.47854,0.12236
7106.40701,0.08662
7108.33548,0.03250
7110.26395,-0.03189
7112.19242,-0.09431
7114.12088,-0.08064
7116.04935,0.04723
7117.97782,0.19673
7119.90629,0.24581
7121.83476,0.23491
7123.76323,0.19160
7125.69170,0.11580
7127.62016,0.04277
7129.54863,0.00968
7131.47710,0.02427
7133.40557,0.05472
7135.33404,0.11307
7137.26251,0.22968
7139.19098,0.31336
7141.11944,0.27976
7143.04791,0.23447
7144.97638,0.20484
7146.90485,0.12954
7148.83332,0.09846
7150.76179,0.17125
7152.69026,0.30002
7154.61873,0.27479
7156.54719,0.05472
7158.47566,-0.07227
7160.40413,-0.00914
7162.33260,0.10546
7164.26107,0.11544
7166.18954,-0.02068
7168.11801,-0.15707
7170.04647,-0.11143
7171.97494,0.03044
7173.90341,0.03410
7175.83188,-0.05785
7177.76035,-0.04028
7179.68882,0.02991
7181.61729,-0.05837
7183.54576,-0.19946
7185.47422,-0.16591
7187.40269,-0.08055
7189.33116,-0.06421
7191.25963,-0.07716
7193.18810,-0.01451
7195.11657,0.03944
7197.04504,0.02803
7198.97350,0.07042
7200.90197,0.15475
7202.83044,0.18801
7204.75891,0.12127
7206.68738,-0.01208
7208.61585,-0.05659
7210.54432,0.03777
7212.47279,0.16017
7214.40125,0.19272
7216.32972,0.12597
7218.25819,0.06281
7220.18666,0.05727
7222.11513,-0.01857
7224.04360,-0.09812
7225.97207,-0.02380
7227.90053,0.06373
7229.82900,0.05546
7231.75747,0.09829
7233.68594,0.12874
7235.61441,0.06773
7237.54288,0.02408
7239.47135,0.03267
7241.39982,0.02546
7243.32828,-0.01133
7245.25675,-0.00769
7247.18522,0.01884
7249.11369,0.01613
7251.04216,-0.01693
7252.97063,-0.05295
7254.89910,-0.01707
7256.82756,0.04987
7258.75603,0.06681
7260.68450,-0.00698
7262.61297,-0.06917
7264.54144,0.01366
7266.46991,0.12049
7268.39838,0.15693
7270.32685,0.14859
7272.25531,0.08526
7274.18378,0.02293
7276.11225,0.01097
7278.04072,0.00168
7279.96919,0.03401
7281.89766,0.11343
7283.82613,0.14496
7285.75459,0.13714
7287.68306,0.05319
7289.61153,-0.07820
7291.54000,-0.07256
7293.46847,0.06426
7295.39694,0.15604
7297.32541,0.17715
7299.25387,0.15557
7301.18234,0.03848
7303.11081,-0.11185
7305.03928,-0.10338
7306.96775,0.01340
7308.89622,-0.03405
7310.82469,-0.16434
7312.75316,-0.07254
7314.68162,0.17001
7316.61009,0.33951
7318.53856,0.33774
7320.46703,0.20992
7322.39550,0.02155
7324.32397,-0.05324
7326.25244,-0.03136
7328.18090,-0.04545
7330.10937,-0.02323
7332.03784,0.03806
7333.96631,0.06359
7335.89478,0.09524
7337.82325,0.14610
7339.75172,0.16595
7341.68019,0.12509
7343.60865,0.07732
7345.53712,0.05161
7347.46559,0.12177
7349.39406,0.19452
7351.32253,0.15181
7353.25100,0.06702
7355.17947,-0.04247
7357.10793,-0.15860
7359.03640,-0.15208
7360.96487,-0.02519
7362.89334,0.08226
7364.82181,0.10024
7366.75028,0.06128
7368.67875,0.03194
7370.60722,0.07345
7372.53568,0.14992
7374.46415,0.12219
7376.39262,-0.05594
7378.32109,-0.14502
7380.24956,-0.07941
7382.17803,0.03265
7384.10650,0.07455
7386.03496,0.03485
7387.96343,0.00940
7389.89190,0.05522
7391.82037,0.08618
7393.74884,0.01414
7395.67731,-0.04143
7397.60578,0.06793
7399.53425,0.17465
7401.46271,0.14384
7403.39118,0.09085
7405.31965,0.02752
7407.24812,-0.12496
7409.17659,-0.23061
7411.10506,-0.14880
7413.03353,-0.00758
7414.96199,0.04636
7416.89046,0.06450
7418.81893,0.11520
7420.74740,0.14477
7422.67587,0.16999
7424.60434,0.16631
7426.53281,0.09339
7428.46128,0.03006
7430.38974,0.03984
7432.31821,0.01055
7434.24668,-0.11638
7436.17515,-0.22168
7438.10362,-0.23400
7440.03209,-0.21029
7441.96056,-0.13955
7443.88902,-0.00243
7445.81749,0.10267
7447.74596,0.11410
7449.67443,0.05312
7451.60290,0.00610
7453.53137,0.01237
7455.45984,-0.01307
7457.38831,-0.10451
7459.31677,-0.12140
7461.24524,0.06236
7463.17371,0.12151
7465.10218,-0.03355
7467.03065,-0.12696
7468.95912,-0.10608
7470.88759,-0.04883
7472.81605,0.03728
7474.74452,0.15061
7476.67299,0.24090
7478.60146,0.25160
7480.52993,0.20306
7482.45840,0.06341
7484.38687,-0.08742
7486.31533,-0.13578
7488.24380,-0.10202
7490.17227,-0.04980
7492.10074,-0.03979
7494.02921,-0.04031
7495.95768,0.01186
7497.88615,0.08727
