399.19301,0.51854
401.12148,0.81041
403.04995,0.19224
404.97842,-0.14793
406.90689,-0.01435
408.83536,0.27161
410.76382,0.33267
412.69229,0.08715
414.62076,-0.11504
416.54923,-0.10478
418.47770,-0.03316
420.40617,-0.06327
422.33464,-0.03943
424.26311,0.07419
426.19157,0.10339
428.12004,-0.01230
430.04851,-0.12999
431.97698,-0.02299
433.90545,0.18696
435.83392,0.17306
437.76239,0.00492
439.69085,-0.01044
441.61932,0.22581
443.54779,0.36683
445.47626,0.16758
447.40473,-0.07019
449.33320,-0.05965
451.26167,0.05692
453.19013,0.06437
455.11860,0.01804
457.04707,0.02121
458.97554,0.04037
460.90401,-0.01472
462.83248,-0.08581
464.76095,-0.03034
466.68942,0.09105
468.61788,0.11525
470.54635,0.05544
472.47482,0.11578
474.40329,0.41699
476.33176,0.46127
478.26023,0.28737
480.18870,0.13584
482.11716,0.05470
484.04563,0.06461
485.97410,0.10951
487.90257,0.11486
489.83104,0.11664
491.75951,0.15258
493.68798,0.13767
495.61645,0.03963
497.54491,-0.00513
499.47338,0.07096
501.40185,0.15524
503.33032,0.13667
505.25879,0.06567
507.18726,0.05793
509.11573,0.10835
511.04419,0.10886
512.97266,0.05995
514.90113,0.05124
516.82960,0.09337
518.75807,0.09869
520.68654,0.05175
522.61501,0.05583
524.54348,0.14781
526.47194,0.19537
528.40041,0.12160
530.32888,0.03963
532.25735,0.05048
534.18582,0.11312
536.11429,0.13169
538.04276,0.09683
539.97122,0.07518
541.89969,0.09017
543.82816,0.09137
545.75663,0.05745
547.68510,0.05289
549.61357,0.10649
551.54204,0.17257
553.47051,0.18637
555.39897,0.12144
557.32744,0.07860
559.25591,0.10640
561.18438,0.10240
563.11285,0.05712
565.04132,0.04832
566.96979,0.09561
568.89825,0.14184
570.82672,0.13726
572.75519,0.12407
574.68366,0.13954
576.61213,0.13270
578.54060,0.08969
580.46907,0.07356
582.39754,0.10538
584.32600,0.13278
586.25447,0.10436
588.18294,0.05358
590.11141,0.06138
592.03988,0.12447
593.96835,0.15617
595.89682,0.12750
597.82528,0.09856
599.75375,0.10396
601.68222,0.11779
603.61069,0.11057
605.53916,0.08994
607.46763,0.09308
609.39610,0.11629
611.32456,0.11176
613.25303,0.07508
615.18150,0.06611
617.10997,0.10599
619.03844,0.13155
620.96691,0.11190
622.89538,0.09026
624.82385,0.10174
626.75231,0.13138
628.68078,0.13427
630.60925,0.10913
632.53772,0.10334
634.46619,0.12127
636.39466,0.12212
638.32313,0.09995
640.25159,0.08753
642.18006,0.10484
644.10853,0.12106
646.03700,0.09354
647.96547,0.04886
649.89394,0.05901
651.82241,0.10659
653.75088,0.11606
655.67934,0.09543
657.60781,0.09756
659.53628,0.11872
661.46475,0.12235
663.39322,0.10061
665.32169,0.08115
667.25016,0.09336
669.17862,0.11524
671.10709,0.10795
673.03556,0.11602
674.96403,0.15014
676.89250,0.16502
678.82097,0.12917
680.74944,0.08787
682.67791,0.09484
684.60637,0.13227
686.53484,0.14596
688.46331,0.12511
690.39178,0.10620
692.32025,0.10516
694.24872,0.11104
696.17719,0.11251
698.10565,0.11337
700.03412,0.12738
701.96259,0.13942
703.89106,0.12051
705.81953,0.09214
707.74800,0.10051
709.67647,0.13301
711.60494,0.14355
713.53340,0.12428
715.46187,0.10451
717.39034,0.10610
719.31881,0.11502
721.24728,0.11217
723.17575,0.10795
725.10422,0.11559
727.03268,0.12309
728.96115,0.11204
730.88962,0.09583
732.81809,0.10403
734.74656,0.12715
736.67503,0.13054
738.60350,0.11235
740.53197,0.10473
742.46043,0.12300
744.38890,0.14068
746.31737,0.13309
748.24584,0.11785
750.17431,0.12221
752.10278,0.13410
754.03125,0.12889
755.95971,0.11445
757.88818,0.11128
759.81665,0.12182
761.74512,0.12744
763.67359,0.11486
765.60206,0.10351
767.53053,0.11449
769.45900,0.12589
771.38746,0.11103
773.31593,0.09488
775.24440,0.10898
777.17287,0.13624
779.10134,0.14464
781.02981,0.13238
782.95828,0.11823
784.88674,0.11740
786.81521,0.12369
788.74368,0.12093
790.67215,0.11732
792.60062,0.12098
794.52909,0.12015
796.45756,0.11106
798.38602,0.10356
800.31449,0.11123
802.24296,0.12972
804.17143,0.13551
806.09990,0.12650
808.02837,0.12287
809.95684,0.13056
811.88531,0.13426
813.81377,0.12996
815.74224,0.13217
817.67071,0.14227
819.59918,0.13916
821.52765,0.11204
823.45612,0.08950
825.38459,0.10462
827.31305,0.13459
829.24152,0.13393
831.16999,0.11388
833.09846,0.11225
835.02693,0.12607
836.95540,0.12945
838.88387,0.11836
840.81234,0.10678
842.74080,0.10737
844.66927,0.11694
846.59774,0.12235
848.52621,0.12440
850.45468,0.13302
852.38315,0.14141
854.31162,0.13094
856.24008,0.10835
858.16855,0.10826
860.09702,0.13632
862.02549,0.15093
863.95396,0.13329
865.88243,0.11547
867.81090,0.12066
869.73937,0.13282
871.66783,0.13403
873.59630,0.13174
875.52477,0.13558
877.45324,0.13734
879.38171,0.12293
881.31018,0.10271
883.23865,0.10561
885.16711,0.12590
887.09558,0.13194
889.02405,0.11735
890.95252,0.10197
892.88099,0.10419
894.80946,0.11649
896.73793,0.11766
898.66640,0.10658
900.59486,0.10285
902.52333,0.11321
904.45180,0.11952
906.38027,0.12019
908.30874,0.12840
910.23721,0.13934
912.16568,0.14162
914.09414,0.13183
916.02261,0.12273
917.95108,0.12846
919.87955,0.13519
921.80802,0.12388
923.73649,0.10845
925.66496,0.11169
927.59343,0.12703
929.52189,0.13476
931.45036,0.13212
933.37883,0.12930
935.30730,0.12978
937.23577,0.12923
939.16424,0.12833
941.09271,0.13222
943.02117,0.14081
944.94964,0.14531
946.87811,0.13796
948.80658,0.12604
950.73505,0.12576
952.66352,0.13839
954.59199,0.14410
956.52045,0.13447
958.44892,0.12742
960.37739,0.13051
962.30586,0.13189
964.23433,0.12648
966.16280,0.12325
968.09127,0.13070
970.01974,0.13923
971.94820,0.13085
973.87667,0.11427
975.80514,0.11638
977.73361,0.13435
979.66208,0.14275
981.59055,0.13572
983.51902,0.12662
985.44748,0.12682
987.37595,0.13552
989.30442,0.14190
991.23289,0.14018
993.16136,0.13696
995.08983,0.13694
997.01830,0.13379
998.94677,0.12667
1000.87523,0.12584
1002.80370,0.13337
1004.73217,0.13551
1006.66064,0.12353
1008.58911,0.11376
1010.51758,0.12359
1012.44605,0.13902
1014.37451,0.13787
1016.30298,0.12785
1018.23145,0.13000
1020.15992,0.14002
1022.08839,0.14145
1024.01686,0.13740
1025.94533,0.14093
1027.87380,0.14903
1029.80226,0.14463
1031.73073,0.12937
1033.65920,0.12508
1035.58767,0.13718
1037.51614,0.14799
1039.44461,0.14463
1041.37308,0.13778
1043.30154,0.13883
1045.23001,0.14139
1047.15848,0.13795
1049.08695,0.13131
1051.01542,0.13302
1052.94389,0.14472
1054.87236,0.14847
1056.80083,0.14021
1058.72929,0.13946
1060.65776,0.15339
1062.58623,0.16201
1064.51470,0.14831
1066.44317,0.12944
1068.37164,0.13278
1070.30011,0.15284
1072.22857,0.16167
1074.15704,0.15233
1076.08551,0.14489
1078.01398,0.15284
1079.94245,0.16392
1081.87092,0.16100
1083.79939,0.15231
1085.72786,0.15057
1087.65632,0.14677
1089.58479,0.13485
1091.51326,0.12780
1093.44173,0.13868
1095.37020,0.15713
1097.29867,0.16003
1099.22714,0.15026
1101.15560,0.14953
1103.08407,0.15886
1105.01254,0.16282
1106.94101,0.15613
1108.86948,0.14690
1110.79795,0.14675
1112.72642,0.15260
1114.65489,0.14950
1116.58335,0.14137
1118.51182,0.14530
1120.44029,0.15709
1122.36876,0.15860
1124.29723,0.14937
1126.22570,0.14495
1128.15417,0.14980
1130.08263,0.15128
1132.01110,0.14585
1133.93957,0.14421
1135.86804,0.14757
1137.79651,0.14822
1139.72498,0.14572
1141.65345,0.14410
1143.58191,0.14776
1145.51038,0.15646
1147.43885,0.15875
1149.36732,0.15259
1151.29579,0.15252
1153.22426,0.16134
1155.15273,0.16545
1157.08120,0.15618
1159.00966,0.14485
1160.93813,0.14836
1162.86660,0.16001
1164.79507,0.16210
1166.72354,0.15646
1168.65201,0.15456
1170.58048,0.15521
1172.50894,0.15268
1174.43741,0.14883
1176.36588,0.14858
1178.29435,0.15321
1180.22282,0.15626
1182.15129,0.15219
1184.07976,0.14691
1186.00823,0.14832
1187.93669,0.15343
1189.86516,0.15337
1191.79363,0.14774
1193.72210,0.14470
1195.65057,0.14924
1197.57904,0.15339
1199.50751,0.14784
1201.43597,0.14379
1203.36444,0.15096
1205.29291,0.15550
1207.22138,0.14943
1209.14985,0.14495
1211.07832,0.14836
1213.00679,0.15109
1214.93526,0.14698
1216.86372,0.14196
1218.79219,0.14469
1220.72066,0.15263
1222.64913,0.15510
1224.57760,0.15132
1226.50607,0.15112
1228.43454,0.15664
1230.36300,0.15920
1232.29147,0.15420
1234.21994,0.14936
1236.14841,0.15372
1238.07688,0.16099
1240.00535,0.15845
1241.93382,0.15036
1243.86229,0.15019
1245.79075,0.15649
1247.71922,0.15729
1249.64769,0.15047
1251.57616,0.14608
1253.50463,0.15014
1255.43310,0.15610
1257.36157,0.15539
1259.29003,0.14940
1261.21850,0.14676
1263.14697,0.14922
1265.07544,0.15121
1267.00391,0.15198
1268.93238,0.15573
1270.86085,0.16121
1272.78932,0.15996
1274.71778,0.15126
1276.64625,0.14827
1278.57472,0.15712
1280.50319,0.16569
1282.43166,0.16504
1284.36013,0.16203
1286.28860,0.16342
1288.21706,0.16505
1290.14553,0.16104
1292.07400,0.15418
1294.00247,0.15058
1295.93094,0.15215
1297.85941,0.15483
1299.78788,0.15355
1301.71634,0.14994
1303.64481,0.14642
1305.57328,0.14463
1307.50175,0.14686
1309.43022,0.15175
1311.35869,0.15902
1313.28716,0.16744
1315.21563,0.17049
1317.14409,0.16573
1319.07256,0.16018
1321.00103,0.15993
1322.92950,0.15984
1324.85797,0.15625
1326.78644,0.15572
1328.71491,0.16017
1330.64337,0.16087
1332.57184,0.15608
1334.50031,0.15486
1336.42878,0.16270
1338.35725,0.17455
1340.28572,0.17259
1342.21419,0.15586
1344.14266,0.14622
1346.07112,0.14915
1347.99959,0.15507
1349.92806,0.15688
1351.85653,0.15651
1353.78500,0.15826
1355.71347,0.15939
1357.64194,0.15901
1359.57040,0.16323
1361.49887,0.17451
1363.42734,0.18129
1365.35581,0.17498
1367.28428,0.16578
1369.21275,0.16326
1371.14122,0.16990
1373.06969,0.17955
1374.99815,0.18059
1376.92662,0.17290
1378.85509,0.16701
1380.78356,0.16433
1382.71203,0.16311
1384.64050,0.16649
1386.56897,0.17457
1388.49743,0.17874
1390.42590,0.17514
1392.35437,0.17363
1394.28284,0.18095
1396.21131,0.18963
1398.13978,0.18965
1400.06825,0.17958
1401.99672,0.17110
1403.92518,0.17516
1405.85365,0.18192
1407.78212,0.17840
1409.71059,0.17202
1411.63906,0.17020
1413.56753,0.17117
1415.49600,0.17411
1417.42446,0.18075
1419.35293,0.18778
1421.28140,0.19171
1423.20987,0.19189
1425.13834,0.18397
1427.06681,0.17794
1428.99528,0.18423
1430.92375,0.19113
1432.85221,0.18907
1434.78068,0.18684
1436.70915,0.18596
1438.63762,0.18045
1440.56609,0.17596
1442.49456,0.17536
1444.42303,0.17819
1446.35149,0.18519
1448.27996,0.18991
1450.20843,0.18725
1452.13690,0.18727
1454.06537,0.20036
1455.99384,0.22785
1457.92231,0.23218
1459.85077,0.20225
1461.77924,0.18821
1463.70771,0.19082
1465.63618,0.19034
1467.56465,0.18226
1469.49312,0.18543
1471.42159,0.20873
1473.35006,0.22763
1475.27852,0.21235
1477.20699,0.19270
1479.13546,0.18665
1481.06393,0.18673
1482.99240,0.18370
1484.92087,0.18409
1486.84934,0.19920
1488.77780,0.22046
1490.70627,0.21584
1492.63474,0.19652
1494.56321,0.19290
1496.49168,0.20541
1498.42015,0.20970
1500.34862,0.19978
1502.27709,0.19739
1504.20555,0.21584
1506.13402,0.25719
1508.06249,0.25878
1509.99096,0.22210
1511.91943,0.20483
1513.84790,0.20996
1515.77637,0.22594
1517.70483,0.23161
1519.63330,0.23302
1521.56177,0.24326
1523.49024,0.24057
1525.41871,0.22679
1527.34718,0.21209
1529.27565,0.20248
1531.20412,0.20588
1533.13258,0.21424
1535.06105,0.21265
1536.98952,0.22348
1538.91799,0.27260
1540.84646,0.31100
1542.77493,0.26826
1544.70340,0.22436
1546.63186,0.20385
1548.56033,0.20109
1550.48880,0.20268
1552.41727,0.20334
1554.34574,0.21249
1556.27421,0.23721
1558.20268,0.26831
1560.13115,0.24072
1562.05961,0.20828
1563.98808,0.20301
1565.91655,0.20467
1567.84502,0.20674
1569.77349,0.20797
1571.70196,0.20507
1573.63043,0.20754
1575.55889,0.21352
1577.48736,0.20520
1579.41583,0.19334
1581.34430,0.18858
1583.27277,0.18503
1585.20124,0.18001
1587.12971,0.17741
1589.05818,0.17912
1590.98664,0.18066
1592.91511,0.18047
1594.84358,0.18089
1596.77205,0.18204
1598.70052,0.18367
1600.62899,0.18401
1602.55746,0.18222
1604.48592,0.18311
1606.41439,0.18884
1608.34286,0.19101
1610.27133,0.18370
1612.19980,0.17932
1614.12827,0.19056
1616.05674,0.21037
1617.98521,0.20861
1619.91367,0.19599
1621.84214,0.19764
1623.77061,0.20550
1625.69908,0.20495
1627.62755,0.20104
1629.55602,0.19818
1631.48449,0.20011
1633.41295,0.21287
1635.34142,0.22884
1637.26989,0.21934
1639.19836,0.20608
1641.12683,0.20355
1643.05530,0.20558
1644.98377,0.21636
1646.91223,0.23391
1648.84070,0.23572
1650.76917,0.23957
1652.69764,0.25768
1654.62611,0.23894
1656.55458,0.20734
1658.48305,0.19620
1660.41152,0.19996
1662.33998,0.20723
1664.26845,0.20611
1666.19692,0.20620
1668.12539,0.21719
1670.05386,0.22536
1671.98233,0.22134
1673.91080,0.22010
1675.83926,0.21445
1677.76773,0.20472
1679.69620,0.20755
1681.62467,0.22537
1683.55314,0.24257
1685.48161,0.22873
1687.41008,0.21182
1689.33855,0.20542
1691.26701,0.19981
1693.19548,0.20081
1695.12395,0.21656
1697.05242,0.23933
1698.98089,0.25309
1700.90936,0.24410
1702.83783,0.22619
1704.76629,0.21983
1706.69476,0.21471
1708.62323,0.20486
1710.55170,0.19780
1712.48017,0.19947
1714.40864,0.21411
1716.33711,0.23385
1718.26558,0.22488
1720.19404,0.19958
1722.12251,0.19071
1724.05098,0.19260
1725.97945,0.19167
1727.90792,0.19039
1729.83639,0.19746
1731.76486,0.21533
1733.69332,0.23026
1735.62179,0.21586
1737.55026,0.20073
1739.47873,0.20218
1741.40720,0.20645
1743.33567,0.20350
1745.26414,0.20408
1747.19261,0.21659
1749.12107,0.22937
1751.04954,0.21973
1752.97801,0.19877
1754.90648,0.19141
1756.83495,0.19690
1758.76342,0.20204
1760.69189,0.20255
1762.62035,0.19796
1764.54882,0.19240
1766.47729,0.19295
1768.40576,0.19855
1770.33423,0.20894
1772.26270,0.21790
1774.19117,0.20999
1776.11964,0.19581
1778.04810,0.18890
1779.97657,0.19068
1781.90504,0.19439
1783.83351,0.19345
1785.76198,0.18817
1787.69045,0.18714
1789.61892,0.19727
1791.54738,0.20976
1793.47585,0.20677
1795.40432,0.19589
1797.33279,0.19245
1799.26126,0.19688
1801.18973,0.19844
1803.11820,0.19040
1805.04666,0.18275
1806.97513,0.18374
1808.90360,0.19015
1810.83207,0.19241
1812.76054,0.18782
1814.68901,0.18469
1816.61748,0.18454
1818.54595,0.18237
1820.47441,0.17940
1822.40288,0.18266
1824.33135,0.19190
1826.25982,0.19728
1828.18829,0.19973
1830.11676,0.20130
1832.04523,0.19589
1833.97369,0.18797
1835.90216,0.18341
1837.83063,0.18427
1839.75910,0.19003
1841.68757,0.19935
1843.61604,0.20546
1845.54451,0.19899
1847.47298,0.18984
1849.40144,0.18529
1851.32991,0.18181
1853.25838,0.17795
1855.18685,0.17640
1857.11532,0.18013
1859.04379,0.18596
1860.97226,0.18676
1862.90072,0.18457
1864.82919,0.18870
1866.75766,0.19946
1868.68613,0.20342
1870.61460,0.19417
1872.54307,0.18676
1874.47154,0.18584
1876.40001,0.18418
1878.32847,0.17932
1880.25694,0.17772
1882.18541,0.18270
1884.11388,0.18738
1886.04235,0.18767
1887.97082,0.18874
1889.89929,0.19107
1891.82775,0.19061
1893.75622,0.18951
1895.68469,0.18773
1897.61316,0.18450
1899.54163,0.18428
1901.47010,0.18537
1903.39857,0.18282
1905.32704,0.18140
1907.25550,0.18634
1909.18397,0.19088
1911.11244,0.18750
1913.04091,0.18201
1914.96938,0.18373
1916.89785,0.19154
1918.82632,0.19553
1920.75478,0.19397
1922.68325,0.19186
1924.61172,0.18844
1926.54019,0.18431
1928.46866,0.18202
1930.39713,0.18283
1932.32560,0.18693
1934.25407,0.18905
1936.18253,0.18471
1938.11100,0.18018
1940.03947,0.18345
1941.96794,0.19138
1943.89641,0.19266
1945.82488,0.18692
1947.75335,0.18273
1949.68181,0.18311
1951.61028,0.18606
1953.53875,0.18724
1955.46722,0.18591
1957.39569,0.18511
1959.32416,0.18585
1961.25263,0.18572
1963.18110,0.18404
1965.10956,0.18647
1967.03803,0.19249
1968.96650,0.19330
1970.89497,0.18880
1972.82344,0.18536
1974.75191,0.18606
1976.68038,0.18860
1978.60884,0.18821
1980.53731,0.18441
1982.46578,0.18198
1984.39425,0.18307
1986.32272,0.18531
1988.25119,0.18775
1990.17966,0.19133
1992.10812,0.19369
1994.03659,0.19065
1995.96506,0.18547
1997.89353,0.18383
1999.82200,0.18490
2001.75047,0.18546
2003.67894,0.18407
2005.60741,0.18205
2007.53587,0.18247
2009.46434,0.18489
2011.39281,0.18557
2013.32128,0.18428
2015.24975,0.18644
2017.17822,0.19224
2019.10669,0.19266
2021.03515,0.18703
2022.96362,0.18453
2024.89209,0.18717
2026.82056,0.18853
2028.74903,0.18508
2030.67750,0.18141
2032.60597,0.18397
2034.53444,0.18980
2036.46290,0.19096
2038.39137,0.18846
2040.31984,0.18740
2042.24831,0.18681
2044.17678,0.18468
2046.10525,0.18388
2048.03372,0.18709
2049.96218,0.19084
2051.89065,0.19070
2053.81912,0.18827
2055.74759,0.18688
2057.67606,0.18672
2059.60453,0.18705
2061.53300,0.18728
2063.46147,0.18721
2065.38993,0.18797
2067.31840,0.18982
2069.24687,0.18986
2071.17534,0.18692
2073.10381,0.18463
2075.03228,0.18525
2076.96075,0.18598
2078.88921,0.18364
2080.81768,0.18118
2082.74615,0.18259
2084.67462,0.18605
2086.60309,0.18768
2088.53156,0.18570
2090.46003,0.18336
2092.38850,0.18464
2094.31696,0.18698
2096.24543,0.18737
2098.17390,0.18716
2100.10237,0.18799
2102.03084,0.18993
2103.95931,0.19104
2105.88778,0.18954
2107.81624,0.18791
2109.74471,0.18848
2111.67318,0.18819
2113.60165,0.18504
2115.53012,0.18352
2117.45859,0.18590
2119.38706,0.18804
2121.31553,0.18761
2123.24399,0.18666
2125.17246,0.18768
2127.10093,0.18990
2129.02940,0.18999
2130.95787,0.18818
2132.88634,0.18861
2134.81481,0.19051
2136.74327,0.18884
2138.67174,0.18559
2140.60021,0.18679
2142.52868,0.19152
2144.45715,0.19314
2146.38562,0.18911
2148.31409,0.18555
2150.24255,0.18710
2152.17102,0.18933
2154.09949,0.18859
2156.02796,0.18663
2157.95643,0.18565
2159.88490,0.18725
2161.81337,0.18960
2163.74184,0.18968
2165.67030,0.18896
2167.59877,0.18916
2169.52724,0.18890
2171.45571,0.18704
2173.38418,0.18493
2175.31265,0.18527
2177.24112,0.18823
2179.16958,0.18944
2181.09805,0.18758
2183.02652,0.18734
2184.95499,0.18937
2186.88346,0.18939
2188.81193,0.18694
2190.74040,0.18531
2192.66887,0.18517
2194.59733,0.18534
2196.52580,0.18561
2198.45427,0.18577
2200.38274,0.18591
2202.31121,0.18597
2204.23968,0.18488
2206.16815,0.18335
2208.09661,0.18433
2210.02508,0.18816
2211.95355,0.19090
2213.88202,0.18928
2215.81049,0.18589
2217.73896,0.18569
2219.66743,0.18752
2221.59590,0.18755
2223.52436,0.18641
2225.45283,0.18697
2227.38130,0.18996
2229.30977,0.19223
2231.23824,0.19130
2233.16671,0.18999
2235.09518,0.19077
2237.02364,0.19080
2238.95211,0.18769
2240.88058,0.18470
2242.80905,0.18543
2244.73752,0.18774
2246.66599,0.18737
2248.59446,0.18487
2250.52293,0.18413
2252.45139,0.18502
2254.37986,0.18502
2256.30833,0.18560
2258.23680,0.18876
2260.16527,0.19272
2262.09374,0.19360
2264.02221,0.18986
2265.95067,0.18566
2267.87914,0.18595
2269.80761,0.18955
2271.73608,0.19111
2273.66455,0.18940
2275.59302,0.18886
2277.52149,0.19021
2279.44996,0.18865
2281.37842,0.18570
2283.30689,0.18744
2285.23536,0.19112
2287.16383,0.19018
2289.09230,0.18614
2291.02077,0.18606
2292.94924,0.19253
2294.87770,0.19814
2296.80617,0.19473
2298.73464,0.18771
2300.66311,0.18711
2302.59158,0.19165
2304.52005,0.19447
2306.44852,0.19352
2308.37699,0.19121
2310.30545,0.18933
2312.23392,0.18738
2314.16239,0.18563
2316.09086,0.18683
2318.01933,0.19348
2319.94780,0.20223
2321.87627,0.20335
2323.80473,0.19671
2325.73320,0.19681
2327.66167,0.20561
2329.59014,0.21017
2331.51861,0.20359
2333.44708,0.19195
2335.37555,0.18764
2337.30401,0.18981
2339.23248,0.18607
2341.16095,0.18087
2343.08942,0.18595
2345.01789,0.19317
2346.94636,0.19176
2348.87483,0.18614
2350.80330,0.18544
2352.73176,0.19433
2354.66023,0.19905
2356.58870,0.18783
2358.51717,0.17642
2360.44564,0.17963
2362.37411,0.19502
2364.30258,0.20382
2366.23104,0.20063
2368.15951,0.19714
2370.08798,0.19543
2372.01645,0.19163
2373.94492,0.19122
2375.87339,0.19598
2377.80186,0.19882
2379.73033,0.19663
2381.65879,0.19160
2383.58726,0.18916
2385.51573,0.19138
2387.44420,0.19243
2389.37267,0.18882
2391.30114,0.18555
2393.22961,0.18676
2395.15807,0.18950
2397.08654,0.18950
2399.01501,0.18767
2400.94348,0.18765
2402.87195,0.18889
2404.80042,0.18800
2406.72889,0.18630
2408.65736,0.18668
2410.58582,0.18788
2412.51429,0.18868
2414.44276,0.18943
2416.37123,0.18988
2418.29970,0.18982
2420.22817,0.18966
2422.15664,0.18897
2424.08510,0.18742
2426.01357,0.18774
2427.94204,0.19105
2429.87051,0.19339
2431.79898,0.19176
2433.72745,0.18876
2435.65592,0.18800
2437.58439,0.18814
2439.51285,0.18681
2441.44132,0.18651
2443.36979,0.18953
2445.29826,0.19243
2447.22673,0.19173
2449.15520,0.18898
2451.08367,0.18857
2453.01213,0.19061
2454.94060,0.19047
2456.86907,0.18859
2458.79754,0.18881
2460.72601,0.19073
2462.65448,0.19188
2464.58295,0.19047
2466.51142,0.18836
2468.43988,0.18933
2470.36835,0.19173
2472.29682,0.19138
2474.22529,0.18834
2476.15376,0.18747
2478.08223,0.19110
2480.01070,0.19371
2481.93916,0.19197
2483.86763,0.18966
2485.79610,0.18964
2487.72457,0.19070
2489.65304,0.19088
2491.58151,0.19076
2493.50998,0.19185
2495.43844,0.19317
2497.36691,0.19196
2499.29538,0.18920
2501.22385,0.18930
2503.15232,0.19186
2505.08079,0.19196
2507.00926,0.18840
2508.93773,0.18606
2510.86619,0.18909
2512.79466,0.19448
2514.72313,0.19639
2516.65160,0.19449
2518.58007,0.19293
2520.50854,0.19269
2522.43701,0.19178
2524.36547,0.19056
2526.29394,0.19029
2528.22241,0.19143
2530.15088,0.19275
2532.07935,0.19107
2534.00782,0.18805
2535.93629,0.18913
2537.86476,0.19312
2539.79322,0.19370
2541.72169,0.19060
2543.65016,0.18916
2545.57863,0.19090
2547.50710,0.19224
2549.43557,0.19053
2551.36404,0.18962
2553.29250,0.19293
2555.22097,0.19496
2557.14944,0.19151
2559.07791,0.18831
2561.00638,0.19130
2562.93485,0.19679
2564.86332,0.19718
2566.79179,0.19323
2568.72025,0.19223
2570.64872,0.19518
2572.57719,0.19617
2574.50566,0.19376
2576.43413,0.19151
2578.36260,0.19137
2580.29107,0.19330
2582.21953,0.19413
2584.14800,0.19184
2586.07647,0.19019
2588.00494,0.19122
2589.93341,0.19253
2591.86188,0.19178
2593.79035,0.19138
2595.71882,0.19493
2597.64728,0.19671
2599.57575,0.19210
2601.50422,0.18868
2603.43269,0.19137
2605.36116,0.19472
2607.28963,0.19481
2609.21810,0.19484
2611.14656,0.19690
2613.07503,0.19802
2615.00350,0.19609
2616.93197,0.19270
2618.86044,0.19147
2620.78891,0.19384
2622.71738,0.19595
2624.64585,0.19529
2626.57431,0.19436
2628.50278,0.19564
2630.43125,0.19866
2632.35972,0.20016
2634.28819,0.19813
2636.21666,0.19523
2638.14513,0.19461
2640.07359,0.19493
2642.00206,0.19386
2643.93053,0.19245
2645.85900,0.19274
2647.78747,0.19422
2649.71594,0.19477
2651.64441,0.19450
2653.57288,0.19504
2655.50134,0.19579
2657.42981,0.19510
2659.35828,0.19399
2661.28675,0.19474
2663.21522,0.19684
2665.14369,0.19767
2667.07216,0.19654
2669.00062,0.19577
2670.92909,0.19561
2672.85756,0.19408
2674.78603,0.19277
2676.71450,0.19352
2678.64297,0.19606
2680.57144,0.19884
2682.49990,0.19851
2684.42837,0.19553
2686.35684,0.19493
2688.28531,0.19782
2690.21378,0.19993
2692.14225,0.19865
2694.07072,0.19689
2695.99919,0.19779
2697.92765,0.20000
2699.85612,0.20136
2701.78459,0.20104
2703.71306,0.20041
2705.64153,0.20114
2707.57000,0.20097
2709.49847,0.19928
2711.42693,0.19946
2713.35540,0.20191
2715.28387,0.20281
2717.21234,0.20006
2719.14081,0.19778
2721.06928,0.19956
2722.99775,0.20087
2724.92622,0.19829
2726.85468,0.19612
2728.78315,0.19638
2730.71162,0.19788
2732.64009,0.20033
2734.56856,0.20098
2736.49703,0.19952
2738.42550,0.20009
2740.35396,0.20243
2742.28243,0.20213
2744.21090,0.20036
2746.13937,0.20180
2748.06784,0.20345
2749.99631,0.20058
2751.92478,0.19710
2753.85325,0.19868
2755.78171,0.20318
2757.71018,0.20482
2759.63865,0.20464
2761.56712,0.20654
2763.49559,0.20790
2765.42406,0.20580
2767.35253,0.20189
2769.28099,0.19907
2771.20946,0.20023
2773.13793,0.20348
2775.06640,0.20375
2776.99487,0.20173
2778.92334,0.20214
2780.85181,0.20445
2782.78028,0.20365
2784.70874,0.20108
2786.63721,0.20224
2788.56568,0.20669
2790.49415,0.20936
2792.42262,0.20860
2794.35109,0.20744
2796.27956,0.20730
2798.20802,0.20663
2800.13649,0.20424
2802.06496,0.20162
2803.99343,0.20139
2805.92190,0.20328
2807.85037,0.20441
2809.77884,0.20320
2811.70731,0.20162
2813.63577,0.20198
2815.56424,0.20359
2817.49271,0.20578
2819.42118,0.20802
2821.34965,0.20797
2823.27812,0.20614
2825.20659,0.20615
2827.13505,0.20755
2829.06352,0.20762
2830.99199,0.20636
2832.92046,0.20507
2834.84893,0.20478
2836.77740,0.20604
2838.70587,0.20907
2840.63433,0.21057
2842.56280,0.20701
2844.49127,0.20405
2846.41974,0.20693
2848.34821,0.21086
2850.27668,0.21160
2852.20515,0.21044
2854.13362,0.20973
2856.06208,0.21081
2857.99055,0.21171
2859.91902,0.21002
2861.84749,0.20886
2863.77596,0.20942
2865.70443,0.20816
2867.63290,0.20512
2869.56136,0.20337
2871.48983,0.20543
2873.41830,0.20967
2875.34677,0.21124
2877.27524,0.20863
2879.20371,0.20599
2881.13218,0.20800
2883.06065,0.21127
2884.98911,0.21044
2886.91758,0.20848
2888.84605,0.21016
2890.77452,0.21316
2892.70299,0.21142
2894.63146,0.20559
2896.55993,0.20393
2898.48839,0.20746
2900.41686,0.20790
2902.34533,0.20337
2904.27380,0.20061
2906.20227,0.20316
2908.13074,0.20691
2910.05921,0.20732
2911.98768,0.20570
2913.91614,0.20567
2915.84461,0.20687
2917.77308,0.20673
2919.70155,0.20632
2921.63002,0.20773
2923.55849,0.20913
2925.48696,0.20741
2927.41542,0.20504
2929.34389,0.20505
2931.27236,0.20546
2933.20083,0.20411
2935.12930,0.19955
2937.05777,0.19452
2938.98624,0.19564
2940.91471,0.20226
2942.84317,0.20699
2944.77164,0.20705
2946.70011,0.20564
2948.62858,0.20497
2950.55705,0.20482
2952.48552,0.20531
2954.41399,0.20583
2956.34245,0.20394
2958.27092,0.20060
2960.19939,0.19895
2962.12786,0.20021
2964.05633,0.20556
2965.98480,0.21084
2967.91327,0.21115
2969.84174,0.21106
2971.77020,0.21360
2973.69867,0.21446
2975.62714,0.21013
2977.55561,0.20353
2979.48408,0.20433
2981.41255,0.21305
2983.34102,0.21699
2985.26948,0.21144
2987.19795,0.20440
2989.12642,0.20512
2991.05489,0.21317
2992.98336,0.21749
2994.91183,0.21496
2996.84030,0.21414
2998.76877,0.21613
3000.69723,0.21368
3002.62570,0.20772
3004.55417,0.20737
3006.48264,0.21311
3008.41111,0.21498
3010.33958,0.20713
3012.26805,0.19199
3014.19651,0.17408
3016.12498,0.16138
3018.05345,0.16645
3019.98192,0.18838
3021.91039,0.21091
3023.83886,0.22180
3025.76733,0.21808
3027.69579,0.20857
3029.62426,0.20571
3031.55273,0.21020
3033.48120,0.21479
3035.40967,0.21398
3037.33814,0.20957
3039.26661,0.20890
3041.19508,0.21306
3043.12354,0.21565
3045.05201,0.21314
3046.98048,0.20925
3048.90895,0.20997
3050.83742,0.21177
3052.76589,0.20773
3054.69436,0.20165
3056.62282,0.19943
3058.55129,0.20264
3060.47976,0.20816
3062.40823,0.21168
3064.33670,0.21327
3066.26517,0.21419
3068.19364,0.21487
3070.12211,0.21410
3072.05057,0.21335
3073.97904,0.21230
3075.90751,0.20732
3077.83598,0.20490
3079.76445,0.20875
3081.69292,0.21123
3083.62139,0.20734
3085.54985,0.20092
3087.47832,0.20131
3089.40679,0.21017
3091.33526,0.21683
3093.26373,0.21071
3095.19220,0.20150
3097.12067,0.20558
3099.04914,0.21530
3100.97760,0.21644
3102.90607,0.21019
3104.83454,0.20846
3106.76301,0.21555
3108.69148,0.21866
3110.61995,0.20871
3112.54842,0.19770
3114.47688,0.20163
3116.40535,0.21427
3118.33382,0.21811
3120.26229,0.21146
3122.19076,0.20662
3124.11923,0.20972
3126.04770,0.21285
3127.97617,0.20972
3129.90463,0.20549
3131.83310,0.20875
3133.76157,0.21740
3135.69004,0.22045
3137.61851,0.21771
3139.54698,0.21758
3141.47545,0.22081
3143.40391,0.22184
3145.33238,0.21797
3147.26085,0.21376
3149.18932,0.21553
3151.11779,0.22050
3153.04626,0.22192
3154.97473,0.21930
3156.90320,0.21742
3158.83166,0.21891
3160.76013,0.22029
3162.68860,0.22001
3164.61707,0.22150
3166.54554,0.22429
3168.47401,0.22346
3170.40248,0.21903
3172.33094,0.21539
3174.25941,0.21529
3176.18788,0.21790
3178.11635,0.21814
3180.04482,0.21479
3181.97329,0.21395
3183.90176,0.21719
3185.83022,0.21887
3187.75869,0.21751
3189.68716,0.21690
3191.61563,0.21844
3193.54410,0.22097
3195.47257,0.22177
3197.40104,0.22055
3199.32951,0.22061
3201.25797,0.21968
3203.18644,0.21567
3205.11491,0.21379
3207.04338,0.21644
3208.97185,0.21957
3210.90032,0.21876
3212.82879,0.21517
3214.75725,0.21425
3216.68572,0.21816
3218.61419,0.22207
3220.54266,0.22118
3222.47113,0.21935
3224.39960,0.22022
3226.32807,0.22215
3228.25654,0.22416
3230.18500,0.22414
3232.11347,0.22314
3234.04194,0.22327
3235.97041,0.21977
3237.89888,0.21290
3239.82735,0.21185
3241.75582,0.21741
3243.68428,0.22186
3245.61275,0.22218
3247.54122,0.22016
3249.46969,0.22043
3251.39816,0.22502
3253.32663,0.22648
3255.25510,0.22173
3257.18357,0.21933
3259.11203,0.21968
3261.04050,0.21592
3262.96897,0.21140
3264.89744,0.21256
3266.82591,0.21729
3268.75438,0.21814
3270.68285,0.21422
3272.61131,0.21238
3274.53978,0.21538
3276.46825,0.21941
3278.39672,0.22004
3280.32519,0.21721
3282.25366,0.21470
3284.18213,0.21507
3286.11060,0.21437
3288.03906,0.20986
3289.96753,0.20844
3291.89600,0.21189
3293.82447,0.21354
3295.75294,0.21102
3297.68141,0.20773
3299.60988,0.20970
3301.53834,0.21505
3303.46681,0.21412
3305.39528,0.20770
3307.32375,0.20524
3309.25222,0.20874
3311.18069,0.21260
3313.10916,0.21375
3315.03763,0.21462
3316.96609,0.21641
3318.89456,0.21672
3320.82303,0.21466
3322.75150,0.21404
3324.67997,0.21732
3326.60844,0.21982
3328.53691,0.21730
3330.46537,0.21382
3332.39384,0.21595
3334.32231,0.22235
3336.25078,0.22515
3338.17925,0.22023
3340.10772,0.21441
3342.03619,0.21646
3343.96466,0.22111
3345.89312,0.21943
3347.82159,0.21558
3349.75006,0.21647
3351.67853,0.21974
3353.60700,0.21982
3355.53547,0.21705
3357.46394,0.21837
3359.39240,0.22601
3361.32087,0.22934
3363.24934,0.22198
3365.17781,0.21436
3367.10628,0.21594
3369.03475,0.22207
3370.96322,0.22396
3372.89168,0.22217
3374.82015,0.22252
3376.74862,0.22304
3378.67709,0.21958
3380.60556,0.21600
3382.53403,0.21759
3384.46250,0.22231
3386.39097,0.22319
3388.31943,0.22026
3390.24790,0.22038
3392.17637,0.22288
3394.10484,0.22227
3396.03331,0.21803
3397.96178,0.21507
3399.89025,0.22001
3401.81871,0.22841
3403.74718,0.22898
3405.67565,0.22193
3407.60412,0.21651
3409.53259,0.21762
3411.46106,0.21810
3413.38953,0.21077
3415.31800,0.20397
3417.24646,0.20611
3419.17493,0.21187
3421.10340,0.21150
3423.03187,0.20393
3424.96034,0.19978
3426.88881,0.20280
3428.81728,0.20620
3430.74574,0.20858
3432.67421,0.21150
3434.60268,0.21338
3436.53115,0.21251
3438.45962,0.20900
3440.38809,0.20585
3442.31656,0.20599
3444.24503,0.20880
3446.17349,0.20866
3448.10196,0.20343
3450.03043,0.20058
3451.95890,0.20046
3453.88737,0.19717
3455.81584,0.19338
3457.74431,0.19472
3459.67277,0.20099
3461.60124,0.20468
3463.52971,0.20052
3465.45818,0.19577
3467.38665,0.19558
3469.31512,0.19546
3471.24359,0.19223
3473.17206,0.18760
3475.10052,0.18702
3477.02899,0.19242
3478.95746,0.19743
3480.88593,0.19770
3482.81440,0.19534
3484.74287,0.19371
3486.67134,0.19223
3488.59980,0.18843
3490.52827,0.18489
3492.45674,0.18537
3494.38521,0.18791
3496.31368,0.18858
3498.24215,0.18955
3500.17062,0.19717
3502.09909,0.20686
3504.02755,0.20282
3505.95602,0.18890
3507.88449,0.18506
3509.81296,0.19039
3511.74143,0.18900
3513.66990,0.18175
3515.59837,0.17964
3517.52683,0.18235
3519.45530,0.18420
3521.38377,0.18383
3523.31224,0.18245
3525.24071,0.18408
3527.16918,0.18735
3529.09765,0.18383
3531.02611,0.17520
3532.95458,0.17111
3534.88305,0.17447
3536.81152,0.17935
3538.73999,0.17877
3540.66846,0.17606
3542.59693,0.17827
3544.52540,0.18360
3546.45386,0.18419
3548.38233,0.18104
3550.31080,0.18207
3552.23927,0.18436
3554.16774,0.17853
3556.09621,0.16833
3558.02468,0.16485
3559.95314,0.16975
3561.88161,0.17636
3563.81008,0.18403
3565.73855,0.19651
3567.66702,0.20118
3569.59549,0.18779
3571.52396,0.17316
3573.45243,0.16545
3575.38089,0.16450
3577.30936,0.16863
3579.23783,0.17020
3581.16630,0.16532
3583.09477,0.16278
3585.02324,0.17019
3586.95171,0.18092
3588.88017,0.17868
3590.80864,0.17137
3592.73711,0.17166
3594.66558,0.17360
3596.59405,0.16843
3598.52252,0.16189
3600.45099,0.16110
3602.37946,0.16317
3604.30792,0.16567
3606.23639,0.17103
3608.16486,0.17628
3610.09333,0.17643
3612.02180,0.17387
3613.95027,0.16888
3615.87874,0.16712
3617.80720,0.17364
3619.73567,0.17452
3621.66414,0.16313
3623.59261,0.15393
3625.52108,0.15411
3627.44955,0.16677
3629.37802,0.17496
3631.30649,0.16116
3633.23495,0.15038
3635.16342,0.14896
3637.09189,0.14963
3639.02036,0.14698
3640.94883,0.14282
3642.87730,0.14476
3644.80577,0.15524
3646.73423,0.16992
3648.66270,0.18040
3650.59117,0.17455
3652.51964,0.16416
3654.44811,0.16084
3656.37658,0.15755
3658.30505,0.14892
3660.23352,0.14343
3662.16198,0.14159
3664.09045,0.13921
3666.01892,0.13904
3667.94739,0.14842
3669.87586,0.16226
3671.80433,0.16379
3673.73280,0.16576
3675.66126,0.16986
3677.58973,0.16069
3679.51820,0.14814
3681.44667,0.13839
3683.37514,0.13445
3685.30361,0.14056
3687.23208,0.15795
3689.16055,0.17326
3691.08901,0.16325
3693.01748,0.14564
3694.94595,0.13791
3696.87442,0.13668
3698.80289,0.13752
3700.73136,0.14019
3702.65983,0.14284
3704.58829,0.14422
3706.51676,0.14571
3708.44523,0.14963
3710.37370,0.15928
3712.30217,0.15846
3714.23064,0.14124
3716.15911,0.13258
3718.08757,0.13629
3720.01604,0.14223
3721.94451,0.14661
3723.87298,0.14996
3725.80145,0.14825
3727.72992,0.14303
3729.65839,0.14320
3731.58686,0.15064
3733.51532,0.16092
3735.44379,0.17006
3737.37226,0.16970
3739.30073,0.15955
3741.22920,0.15097
3743.15767,0.15614
3745.08614,0.17313
3747.01460,0.17433
3748.94307,0.16631
3750.87154,0.15911
3752.80001,0.14926
3754.72848,0.14368
3756.65695,0.14462
3758.58542,0.14673
3760.51389,0.14482
3762.44235,0.14060
3764.37082,0.13708
3766.29929,0.13568
3768.22776,0.13990
3770.15623,0.14405
3772.08470,0.13727
3774.01317,0.12766
3775.94163,0.12532
3777.87010,0.13031
3779.79857,0.13435
3781.72704,0.13335
3783.65551,0.13360
3785.58398,0.13501
3787.51245,0.13300
3789.44092,0.12784
3791.36938,0.12404
3793.29785,0.12620
3795.22632,0.13424
3797.15479,0.14404
3799.08326,0.15472
3801.01173,0.16532
3802.94020,0.16196
3804.86866,0.15256
3806.79713,0.14469
3808.72560,0.13252
3810.65407,0.12473
3812.58254,0.12628
3814.51101,0.13151
3816.43948,0.13401
3818.36795,0.13939
3820.29641,0.15423
3822.22488,0.15866
3824.15335,0.14621
3826.08182,0.13705
3828.01029,0.13637
3829.93876,0.14051
3831.86723,0.14249
3833.79569,0.13991
3835.72416,0.14430
3837.65263,0.16084
3839.58110,0.16475
3841.50957,0.14906
3843.43804,0.13492
3845.36651,0.12799
3847.29498,0.12631
3849.22344,0.13030
3851.15191,0.14324
3853.08038,0.16626
3855.00885,0.16601
3856.93732,0.14508
3858.86579,0.13164
3860.79426,0.13298
3862.72272,0.14494
3864.65119,0.14725
3866.57966,0.13741
3868.50813,0.13759
3870.43660,0.14478
3872.36507,0.14035
3874.29354,0.13071
3876.22200,0.12496
3878.15047,0.12688
3880.07894,0.13390
3882.00741,0.13361
3883.93588,0.12704
3885.86435,0.12140
3887.79282,0.11978
3889.72129,0.12361
3891.64975,0.12657
3893.57822,0.12496
3895.50669,0.12757
3897.43516,0.13391
3899.36363,0.13463
3901.29210,0.13006
3903.22057,0.13205
3905.14903,0.13451
3907.07750,0.12633
3909.00597,0.11542
3910.93444,0.11164
3912.86291,0.11572
3914.79138,0.11951
3916.71985,0.11845
3918.64832,0.11894
3920.57678,0.12503
3922.50525,0.12910
3924.43372,0.12259
3926.36219,0.11419
3928.29066,0.11803
3930.21913,0.12624
3932.14760,0.12421
3934.07606,0.11395
3936.00453,0.10713
3937.93300,0.10814
3939.86147,0.11364
3941.78994,0.11771
3943.71841,0.11734
3945.64688,0.11752
3947.57535,0.12004
3949.50381,0.11580
3951.43228,0.10772
3953.36075,0.10990
3955.28922,0.11783
3957.21769,0.11753
3959.14616,0.11014
3961.07463,0.10615
3963.00309,0.10779
3964.93156,0.10921
3966.86003,0.10805
3968.78850,0.10808
3970.71697,0.11115
3972.64544,0.11432
3974.57391,0.11417
3976.50238,0.10982
3978.43084,0.10428
3980.35931,0.10149
3982.28778,0.09991
3984.21625,0.09935
3986.14472,0.10340
3988.07319,0.10803
3990.00166,0.10822
3991.93012,0.10478
3993.85859,0.10102
3995.78706,0.10124
3997.71553,0.10199
3999.64400,0.09893
4001.57247,0.09843
4003.50094,0.10305
4005.42941,0.10564
4007.35787,0.10384
4009.28634,0.10082
4011.21481,0.09988
4013.14328,0.10356
4015.07175,0.10717
4017.00022,0.10324
4018.92869,0.09568
4020.85715,0.09502
4022.78562,0.09957
4024.71409,0.09929
4026.64256,0.09605
4028.57103,0.09734
4030.49950,0.10048
4032.42797,0.09994
4034.35644,0.09592
4036.28490,0.09511
4038.21337,0.10165
4040.14184,0.10658
4042.07031,0.10260
4043.99878,0.09756
4045.92725,0.10009
4047.85572,0.10525
4049.78418,0.10351
4051.71265,0.09665
4053.64112,0.09445
4055.56959,0.09836
4057.49806,0.09909
4059.42653,0.09384
4061.35500,0.09100
4063.28346,0.09431
4065.21193,0.09801
4067.14040,0.09533
4069.06887,0.08828
4070.99734,0.08576
4072.92581,0.08729
4074.85428,0.08544
4076.78275,0.08240
4078.71121,0.08360
4080.63968,0.08649
4082.56815,0.08843
4084.49662,0.09004
4086.42509,0.09234
4088.35356,0.09449
4090.28203,0.09135
4092.21049,0.08373
4094.13896,0.08085
4096.06743,0.08674
4097.99590,0.09379
4099.92437,0.09290
4101.85284,0.08858
4103.78131,0.09188
4105.70978,0.10049
4107.63824,0.10121
4109.56671,0.09312
4111.49518,0.08894
4113.42365,0.09179
4115.35212,0.09355
4117.28059,0.08957
4119.20906,0.08426
4121.13752,0.08572
4123.06599,0.09121
4124.99446,0.09151
4126.92293,0.08604
4128.85140,0.08119
4130.77987,0.08074
4132.70834,0.08092
4134.63681,0.07981
4136.56527,0.08025
4138.49374,0.08228
4140.42221,0.08409
4142.35068,0.08301
4144.27915,0.08086
4146.20762,0.08365
4148.13609,0.08991
4150.06455,0.09292
4151.99302,0.08940
4153.92149,0.08259
4155.84996,0.07984
4157.77843,0.08073
4159.70690,0.07860
4161.63537,0.07841
4163.56384,0.08557
4165.49230,0.09023
4167.42077,0.08648
4169.34924,0.07987
4171.27771,0.07615
4173.20618,0.07610
4175.13465,0.07608
4177.06312,0.07588
4178.99158,0.07778
4180.92005,0.07829
4182.84852,0.07613
4184.77699,0.07578
4186.70546,0.07564
4188.63393,0.07341
4190.56240,0.07219
4192.49087,0.07030
4194.41933,0.06651
4196.34780,0.06652
4198.27627,0.07284
4200.20474,0.07886
4202.13321,0.07678
4204.06168,0.07063
4205.99015,0.07089
4207.91861,0.07668
4209.84708,0.07855
4211.77555,0.07531
4213.70402,0.07439
4215.63249,0.07791
4217.56096,0.07927
4219.48943,0.07422
4221.41789,0.06828
4223.34636,0.06825
4225.27483,0.06968
4227.20330,0.06763
4229.13177,0.06855
4231.06024,0.07367
4232.98871,0.07424
4234.91718,0.06858
4236.84564,0.06437
4238.77411,0.06532
4240.70258,0.06582
4242.63105,0.06159
4244.55952,0.05710
4246.48799,0.05799
4248.41646,0.06323
4250.34492,0.06795
4252.27339,0.06922
4254.20186,0.06688
4256.13033,0.06598
4258.05880,0.06979
4259.98727,0.06985
4261.91574,0.06096
4263.84421,0.05471
4265.77267,0.05837
4267.70114,0.06311
4269.62961,0.06392
4271.55808,0.06400
4273.48655,0.06349
4275.41502,0.06295
4277.34349,0.06348
4279.27195,0.06329
4281.20042,0.06435
4283.12889,0.06605
4285.05736,0.06039
4286.98583,0.05060
4288.91430,0.04835
4290.84277,0.05190
4292.77124,0.05353
4294.69970,0.05311
4296.62817,0.05424
4298.55664,0.05781
4300.48511,0.05753
4302.41358,0.05165
4304.34205,0.04867
4306.27052,0.04836
4308.19898,0.04686
4310.12745,0.04767
4312.05592,0.05136
4313.98439,0.05481
4315.91286,0.05571
4317.84133,0.05331
4319.76980,0.04684
4321.69827,0.04218
4323.62673,0.04678
4325.55520,0.05234
4327.48367,0.04893
4329.41214,0.04301
4331.34061,0.04538
4333.26908,0.05190
4335.19755,0.05135
4337.12601,0.04591
4339.05448,0.04270
4340.98295,0.04388
4342.91142,0.04684
4344.83989,0.04384
4346.76836,0.03732
4348.69683,0.03870
4350.62530,0.04272
4352.55376,0.03630
4354.48223,0.02809
4356.41070,0.03117
4358.33917,0.03816
4360.26764,0.03921
4362.19611,0.03704
4364.12458,0.03776
4366.05304,0.03822
4367.98151,0.03468
4369.90998,0.03111
4371.83845,0.03104
4373.76692,0.03699
4375.69539,0.04099
4377.62386,0.03254
4379.55232,0.02190
4381.48079,0.02194
4383.40926,0.02788
4385.33773,0.02902
4387.26620,0.02611
4389.19467,0.02859
4391.12314,0.03729
4393.05161,0.04134
4394.98007,0.03328
4396.90854,0.02377
4398.83701,0.02488
4400.76548,0.02961
4402.69395,0.02900
4404.62242,0.02476
4406.55089,0.02416
4408.47935,0.03083
4410.40782,0.03567
4412.33629,0.03258
4414.26476,0.02783
4416.19323,0.02584
4418.12170,0.02442
4420.05017,0.02137
4421.97864,0.02113
4423.90710,0.02523
4425.83557,0.02656
4427.76404,0.02266
4429.69251,0.01935
4431.62098,0.02204
4433.54945,0.02752
4435.47792,0.02871
4437.40638,0.02732
4439.33485,0.02809
4441.26332,0.02612
4443.19179,0.01657
4445.12026,0.00840
4447.04873,0.00889
4448.97720,0.01133
4450.90567,0.01095
4452.83413,0.01045
4454.76260,0.01140
4456.69107,0.01338
4458.61954,0.01483
4460.54801,0.01286
4462.47648,0.00935
4464.40495,0.01107
4466.33341,0.01526
4468.26188,0.01375
4470.19035,0.01115
4472.11882,0.01451
4474.04729,0.01945
4475.97576,0.02030
4477.90423,0.01867
4479.83270,0.02032
4481.76116,0.02475
4483.68963,0.02478
4485.61810,0.02080
4487.54657,0.01813
4489.47504,0.01608
4491.40351,0.01451
4493.33198,0.01319
4495.26044,0.00824
4497.18891,0.00651
4499.11738,0.01661
4501.04585,0.02372
4502.97432,0.01255
4504.90279,-0.00284
4506.83126,-0.00298
4508.75973,0.00744
4510.68819,0.01240
4512.61666,0.00717
4514.54513,0.00127
4516.47360,0.00418
4518.40207,0.00963
4520.33054,0.00922
4522.25901,0.00904
4524.18747,0.01410
4526.11594,0.01539
4528.04441,0.00714
4529.97288,-0.00005
4531.90135,0.00170
4533.82982,0.00521
4535.75829,0.00416
4537.68676,-0.00017
4539.61522,-0.00141
4541.54369,0.00547
4543.47216,0.01167
4545.40063,0.00794
4547.32910,0.00130
4549.25757,0.00033
4551.18604,0.00126
4553.11450,-0.00127
4555.04297,-0.00293
4556.97144,0.00080
4558.89991,0.00550
4560.82838,0.00546
4562.75685,0.00371
4564.68532,0.00714
4566.61378,0.01140
4568.54225,0.00768
4570.47072,0.00003
4572.39919,-0.00126
4574.32766,0.00388
4576.25613,0.00702
4578.18460,0.00661
4580.11307,0.00698
4582.04153,0.00713
4583.97000,0.00640
4585.89847,0.00793
4587.82694,0.01146
4589.75541,0.01361
4591.68388,0.01179
4593.61235,0.00941
4595.54081,0.01080
4597.46928,0.01305
4599.39775,0.01286
4601.32622,0.00830
4603.25469,-0.00027
4605.18316,-0.00436
4607.11163,-0.00082
4609.04010,0.00333
4610.96856,0.00878
4612.89703,0.01435
4614.82550,0.01320
4616.75397,0.00950
4618.68244,0.00496
4620.61091,-0.00076
4622.53938,-0.00015
4624.46784,0.00683
4626.39631,0.01302
4628.32478,0.01300
4630.25325,0.00776
4632.18172,0.00588
4634.11019,0.01070
4636.03866,0.01252
4637.96713,0.00736
4639.89559,0.00590
4641.82406,0.01186
4643.75253,0.01242
4645.68100,0.00160
4647.60947,-0.00565
4649.53794,-0.00059
4651.46641,0.00271
4653.39487,-0.00564
4655.32334,-0.01748
4657.25181,-0.01651
4659.18028,0.00101
4661.10875,0.01404
4663.03722,0.00896
4664.96569,0.00155
4666.89416,0.00549
4668.82262,0.01100
4670.75109,0.00548
4672.67956,-0.00220
4674.60803,0.00115
4676.53650,0.00556
4678.46497,0.00065
4680.39344,-0.00377
4682.32190,0.00107
4684.25037,0.00855
4686.17884,0.00349
4688.10731,-0.00896
4690.03578,-0.00496
4691.96425,0.01077
4693.89272,0.01778
4695.82119,0.01648
4697.74965,0.01096
4699.67812,0.00416
4701.60659,0.00394
4703.53506,0.00420
4705.46353,-0.00489
4707.39200,-0.01110
4709.32047,-0.00315
4711.24893,0.00409
4713.17740,-0.00284
4715.10587,-0.01298
4717.03434,-0.01094
4718.96281,0.00249
4720.89128,0.01228
4722.81975,0.01167
4724.74821,0.01292
4726.67668,0.01941
4728.60515,0.01892
4730.53362,0.01347
4732.46209,0.01188
4734.39056,0.01281
4736.31903,0.01267
4738.24750,0.00647
4740.17596,-0.00107
4742.10443,0.00254
4744.03290,0.01211
4745.96137,0.01178
4747.88984,0.00004
4749.81831,-0.00667
4751.74678,0.00033
4753.67524,0.01054
4755.60371,0.01492
4757.53218,0.01562
4759.46065,0.01830
4761.38912,0.01848
4763.31759,0.01117
4765.24606,0.00223
4767.17453,-0.00708
4769.10299,-0.01718
4771.03146,-0.01918
4772.95993,-0.00888
4774.88840,0.00377
4776.81687,0.00893
4778.74534,0.00610
4780.67381,-0.00274
4782.60227,-0.00809
4784.53074,0.00096
4786.45921,0.00994
4788.38768,0.00141
4790.31615,-0.01033
4792.24462,-0.00871
4794.17309,-0.00537
4796.10156,-0.01230
4798.03002,-0.01664
4799.95849,-0.00737
4801.88696,0.00323
4803.81543,0.00753
4805.74390,0.01197
4807.67237,0.01577
4809.60084,0.01655
4811.52930,0.01465
4813.45777,0.00439
4815.38624,-0.00862
4817.31471,-0.00682
4819.24318,0.00174
4821.17165,-0.00112
4823.10012,-0.00928
4825.02859,-0.01139
4826.95705,-0.00607
4828.88552,-0.00276
4830.81399,-0.01043
4832.74246,-0.01724
4834.67093,-0.01186
4836.59940,-0.00157
4838.52787,0.00665
4840.45633,0.00861
4842.38480,0.00658
4844.31327,0.00830
4846.24174,0.00881
4848.17021,0.00605
4850.09868,0.00734
4852.02715,0.00662
4853.95562,-0.00021
4855.88408,-0.00327
4857.81255,-0.00029
4859.74102,-0.00078
4861.66949,-0.00768
4863.59796,-0.01340
4865.52643,-0.01359
4867.45490,-0.01245
4869.38336,-0.00696
4871.31183,0.01076
4873.24030,0.02561
4875.16877,0.02061
4877.09724,0.00783
4879.02571,0.00045
4880.95418,-0.00230
4882.88265,-0.00037
4884.81111,0.00626
4886.73958,0.01644
4888.66805,0.02614
4890.59652,0.02622
4892.52499,0.02108
4894.45346,0.02223
4896.38193,0.02660
4898.31039,0.02144
4900.23886,0.00418
4902.16733,-0.00644
4904.09580,0.00029
4906.02427,0.01033
4907.95274,0.01128
4909.88121,0.00721
4911.80967,0.00697
4913.73814,0.00721
4915.66661,0.00116
4917.59508,-0.00460
4919.52355,-0.00131
4921.45202,0.00959
4923.38049,0.01738
4925.30896,0.01529
4927.23742,0.00896
4929.16589,0.00477
4931.09436,0.00285
4933.02283,0.00076
4934.95130,-0.00011
4936.87977,0.00229
4938.80824,0.00293
4940.73670,0.00291
4942.66517,0.01024
4944.59364,0.01592
4946.52211,0.00672
4948.45058,-0.00732
4950.37905,-0.01123
4952.30752,-0.00060
4954.23599,0.01295
4956.16445,0.01074
4958.09292,0.00036
4960.02139,0.00066
4961.94986,0.01008
4963.87833,0.01212
4965.80680,0.00293
4967.73527,-0.00091
4969.66373,0.00815
4971.59220,0.01962
4973.52067,0.02308
4975.44914,0.01839
4977.37761,0.01469
4979.30608,0.01594
4981.23455,0.00864
4983.16302,-0.00652
4985.09148,-0.00657
4987.01995,0.00777
4988.94842,0.01422
4990.87689,0.00498
4992.80536,-0.00384
4994.73383,0.00038
4996.66230,0.00753
4998.59076,0.00757
5000.51923,0.00727
5002.44770,0.01400
5004.37617,0.01797
5006.30464,0.01458
5008.23311,0.01408
5010.16158,0.01721
5012.09005,0.02202
5014.01851,0.02708
5015.94698,0.02437
5017.87545,0.01684
5019.80392,0.01779
5021.73239,0.02495
5023.66086,0.02262
5025.58933,0.01374
5027.51779,0.01568
5029.44626,0.02128
5031.37473,0.01176
5033.30320,-0.00429
5035.23167,-0.00250
5037.16014,0.01677
5039.08861,0.03064
5041.01708,0.02874
5042.94554,0.01565
5044.87401,0.00164
5046.80248,-0.00212
5048.73095,-0.00371
5050.65942,-0.00942
5052.58789,-0.00112
5054.51636,0.01951
5056.44482,0.02343
5058.37329,0.01252
5060.30176,0.01301
5062.23023,0.02266
5064.15870,0.02149
5066.08717,0.00676
5068.01564,-0.00233
5069.94410,0.00912
5071.87257,0.02565
5073.80104,0.02522
5075.72951,0.01490
5077.65798,0.01785
5079.58645,0.03451
5081.51492,0.03810
5083.44339,0.02471
5085.37185,0.02133
5087.30032,0.03187
5089.22879,0.03249
5091.15726,0.01625
5093.08573,0.00381
5095.01420,0.00753
5096.94267,0.01421
5098.87113,0.01143
5100.79960,0.00761
5102.72807,0.01515
5104.65654,0.02274
5106.58501,0.01115
5108.51348,-0.00668
5110.44195,-0.00671
5112.37042,0.00621
5114.29888,0.01693
5116.22735,0.02075
5118.15582,0.02475
5120.08429,0.03688
5122.01276,0.04313
5123.94123,0.03404
5125.86970,0.02595
5127.79816,0.02769
5129.72663,0.03140
5131.65510,0.03477
5133.58357,0.03945
5135.51204,0.03927
5137.44051,0.03205
5139.36898,0.02085
5141.29745,0.01100
5143.22591,0.01410
5145.15438,0.02848
5147.08285,0.03430
5149.01132,0.02540
5150.93979,0.01590
5152.86826,0.01611
5154.79673,0.02538
5156.72519,0.03682
5158.65366,0.04014
5160.58213,0.03494
5162.51060,0.03178
5164.43907,0.02855
5166.36754,0.01545
5168.29601,0.00819
5170.22448,0.02045
5172.15294,0.03406
5174.08141,0.02987
5176.00988,0.01483
5177.93835,0.00916
5179.86682,0.01470
5181.79529,0.01961
5183.72376,0.01988
5185.65222,0.01856
5187.58069,0.02503
5189.50916,0.03694
5191.43763,0.03837
5193.36610,0.02851
5195.29457,0.02517
5197.22304,0.03243
5199.15151,0.03447
5201.07997,0.03050
5203.00844,0.03734
5204.93691,0.05855
5206.86538,0.06367
5208.79385,0.03757
5210.72232,0.02365
5212.65079,0.03506
5214.57925,0.04113
5216.50772,0.03296
5218.43619,0.02888
5220.36466,0.03423
5222.29313,0.04137
5224.22160,0.04108
5226.15007,0.03097
5228.07854,0.03253
5230.00700,0.05223
5231.93547,0.06069
5233.86394,0.03521
5235.79241,0.00644
5237.72088,0.01080
5239.64935,0.02936
5241.57782,0.03430
5243.50628,0.03418
5245.43475,0.04909
5247.36322,0.06420
5249.29169,0.04656
5251.22016,0.01463
5253.14863,0.01356
5255.07710,0.04537
5257.00556,0.06584
5258.93403,0.05191
5260.86250,0.02667
5262.79097,0.01494
5264.71944,0.02513
5266.64791,0.04963
5268.57638,0.06217
5270.50485,0.05366
5272.43331,0.04986
5274.36178,0.05850
5276.29025,0.06038
5278.21872,0.05116
5280.14719,0.03830
5282.07566,0.02908
5284.00413,0.02984
5285.93259,0.04000
5287.86106,0.05714
5289.78953,0.06548
5291.71800,0.04946
5293.64647,0.03229
5295.57494,0.03021
5297.50341,0.03449
5299.43188,0.03799
5301.36034,0.04111
5303.28881,0.04590
5305.21728,0.04804
5307.14575,0.04289
5309.07422,0.03200
5311.00269,0.02546
5312.93116,0.03215
5314.85962,0.04514
5316.78809,0.05036
5318.71656,0.05130
5320.64503,0.05473
5322.57350,0.05688
5324.50197,0.05804
5326.43044,0.05125
5328.35891,0.04234
5330.28737,0.05604
5332.21584,0.07073
5334.14431,0.05386
5336.07278,0.03378
5338.00125,0.03923
5339.92972,0.05382
5341.85819,0.06235
5343.78665,0.06653
5345.71512,0.07451
5347.64359,0.09004
5349.57206,0.09283
5351.50053,0.07203
5353.42900,0.05192
5355.35747,0.05715
5357.28594,0.08136
5359.21440,0.10021
5361.14287,0.09027
5363.07134,0.06099
5364.99981,0.04328
5366.92828,0.04754
5368.85675,0.05507
5370.78522,0.05542
5372.71368,0.05782
5374.64215,0.06244
5376.57062,0.06320
5378.49909,0.06348
5380.42756,0.06821
5382.35603,0.07020
5384.28450,0.06428
5386.21297,0.05697
5388.14143,0.05337
5390.06990,0.05856
5391.99837,0.06127
5393.92684,0.04236
5395.85531,0.02495
5397.78378,0.03845
5399.71225,0.06031
5401.64071,0.06421
5403.56918,0.06017
5405.49765,0.07095
5407.42612,0.09016
5409.35459,0.08494
5411.28306,0.05888
5413.21153,0.05002
5415.13999,0.06239
5417.06846,0.07186
5418.99693,0.07016
5420.92540,0.06529
5422.85387,0.06017
5424.78234,0.05646
5426.71081,0.05952
5428.63928,0.06672
5430.56774,0.08365
5432.49621,0.10410
5434.42468,0.09267
5436.35315,0.05322
5438.28162,0.03542
5440.21009,0.04133
5442.13856,0.04289
5444.06702,0.03967
5445.99549,0.04168
5447.92396,0.04576
5449.85243,0.05154
5451.78090,0.05519
5453.70937,0.05986
5455.63784,0.07093
5457.56631,0.06582
5459.49477,0.03556
5461.42324,0.00862
5463.35171,0.00645
5465.28018,0.02928
5467.20865,0.06818
5469.13712,0.10428
5471.06559,0.11146
5472.99405,0.09843
5474.92252,0.08909
5476.85099,0.07235
5478.77946,0.04502
5480.70793,0.04747
5482.63640,0.07765
5484.56487,0.08092
5486.49334,0.05951
5488.42180,0.06388
5490.35027,0.09382
5492.27874,0.10455
5494.20721,0.09025
5496.13568,0.07973
5498.06415,0.08205
5499.99262,0.09460
5501.92108,0.10040
5503.84955,0.08485
5505.77802,0.06206
5507.70649,0.05489
5509.63496,0.06278
5511.56343,0.07137
5513.49190,0.07546
5515.42037,0.07135
5517.34883,0.06711
5519.27730,0.08043
5521.20577,0.10389
5523.13424,0.10909
5525.06271,0.07969
5526.99118,0.03831
5528.91965,0.02644
5530.84811,0.04641
5532.77658,0.06122
5534.70505,0.06157
5536.63352,0.06796
5538.56199,0.08188
5540.49046,0.08094
5542.41893,0.06565
5544.34740,0.06815
5546.27586,0.08996
5548.20433,0.09237
5550.13280,0.07085
5552.06127,0.06301
5553.98974,0.08493
5555.91821,0.10728
5557.84668,0.09806
5559.77514,0.07346
5561.70361,0.06428
5563.63208,0.06815
5565.56055,0.07322
5567.48902,0.07457
5569.41749,0.06759
5571.34596,0.06932
5573.27443,0.09458
5575.20289,0.10553
5577.13136,0.07962
5579.05983,0.06096
5580.98830,0.07142
5582.91677,0.08041
5584.84524,0.07144
5586.77371,0.05432
5588.70217,0.04389
5590.63064,0.05119
5592.55911,0.06004
5594.48758,0.04424
5596.41605,0.02020
5598.34452,0.02185
5600.27299,0.04105
5602.20145,0.05500
5604.12992,0.05708
5606.05839,0.05303
5607.98686,0.05691
5609.91533,0.06650
5611.84380,0.06396
5613.77227,0.05746
5615.70074,0.07134
5617.62920,0.09109
5619.55767,0.08627
5621.48614,0.06285
5623.41461,0.05758
5625.34308,0.08730
5627.27155,0.11729
5629.20002,0.11834
5631.12848,0.10797
5633.05695,0.09500
5634.98542,0.07510
5636.91389,0.06083
5638.84236,0.06381
5640.77083,0.08008
5642.69930,0.09126
5644.62777,0.08654
5646.55623,0.08048
5648.48470,0.08249
5650.41317,0.08540
5652.34164,0.07681
5654.27011,0.04997
5656.19858,0.03393
5658.12705,0.06013
5660.05551,0.09779
5661.98398,0.09550
5663.91245,0.06211
5665.84092,0.04213
5667.76939,0.04437
5669.69786,0.04297
5671.62633,0.04185
5673.55480,0.06273
5675.48326,0.08491
5677.41173,0.07862
5679.34020,0.05233
5681.26867,0.04033
5683.19714,0.06160
5685.12561,0.08963
5687.05408,0.09809
5688.98254,0.09648
5690.91101,0.09522
5692.83948,0.09131
5694.76795,0.07963
5696.69642,0.06095
5698.62489,0.04699
5700.55336,0.04458
5702.48183,0.04988
5704.41029,0.05032
5706.33876,0.04392
5708.26723,0.04660
5710.19570,0.05874
5712.12417,0.06578
5714.05264,0.06665
5715.98111,0.07633
5717.90957,0.09012
5719.83804,0.07658
5721.76651,0.04838
5723.69498,0.05823
5725.62345,0.09011
5727.55192,0.08450
5729.48039,0.05545
5731.40886,0.05816
5733.33732,0.08706
5735.26579,0.09176
5737.19426,0.06520
5739.12273,0.05660
5741.05120,0.07722
5742.97967,0.10366
5744.90814,0.11406
5746.83660,0.10485
5748.76507,0.10251
5750.69354,0.11018
5752.62201,0.10292
5754.55048,0.08603
5756.47895,0.08518
5758.40742,0.10514
5760.33588,0.11576
5762.26435,0.09907
5764.19282,0.08772
5766.12129,0.10580
5768.04976,0.13093
5769.97823,0.12762
5771.90670,0.09924
5773.83517,0.09257
5775.76363,0.09868
5777.69210,0.07042
5779.62057,0.03931
5781.54904,0.06138
5783.47751,0.11081
5785.40598,0.13365
5787.33445,0.13363
5789.26291,0.12578
5791.19138,0.09879
5793.11985,0.08072
5795.04832,0.08158
5796.97679,0.06687
5798.90526,0.05318
5800.83373,0.07222
5802.76220,0.10008
5804.69066,0.09712
5806.61913,0.07587
5808.54760,0.07485
5810.47607,0.08343
5812.40454,0.06695
5814.33301,0.03610
5816.26148,0.03356
5818.18994,0.06619
5820.11841,0.09408
5822.04688,0.09811
5823.97535,0.10573
5825.90382,0.12149
5827.83229,0.13486
5829.76076,0.14927
5831.68923,0.14873
5833.61769,0.12806
5835.54616,0.10405
5837.47463,0.07560
5839.40310,0.05722
5841.33157,0.05854
5843.26004,0.04479
5845.18851,0.02655
5847.11697,0.04674
5849.04544,0.08998
5850.97391,0.11908
5852.90238,0.12599
5854.83085,0.11391
5856.75932,0.09359
5858.68779,0.08522
5860.61626,0.09522
5862.54472,0.09549
5864.47319,0.07117
5866.40166,0.06847
5868.33013,0.10447
5870.25860,0.11066
5872.18707,0.07168
5874.11554,0.04818
5876.04400,0.04840
5877.97247,0.04639
5879.90094,0.04791
5881.82941,0.06155
5883.75788,0.09030
5885.68635,0.11135
5887.61482,0.08843
5889.54329,0.04961
5891.47175,0.04873
5893.40022,0.07759
5895.32869,0.10797
5897.25716,0.11863
5899.18563,0.10585
5901.11410,0.09608
5903.04257,0.09122
5904.97103,0.07948
5906.89950,0.07376
5908.82797,0.08414
5910.75644,0.09383
5912.68491,0.06776
5914.61338,0.02560
5916.54185,0.03868
5918.47032,0.08882
5920.39878,0.09587
5922.32725,0.05686
5924.25572,0.03188
5926.18419,0.06635
5928.11266,0.11665
5930.04113,0.11410
5931.96960,0.08109
5933.89806,0.07348
5935.82653,0.09536
5937.75500,0.09738
5939.68347,0.07275
5941.61194,0.06400
5943.54041,0.08269
5945.46888,0.11342
5947.39734,0.13326
5949.32581,0.12098
5951.25428,0.10482
5953.18275,0.11720
5955.11122,0.12649
5957.03969,0.11116
5958.96816,0.09657
5960.89663,0.08928
5962.82509,0.07282
5964.75356,0.05784
5966.68203,0.05649
5968.61050,0.06482
5970.53897,0.07229
5972.46744,0.06053
5974.39591,0.04688
5976.32437,0.06006
5978.25284,0.07308
5980.18131,0.06438
5982.10978,0.06892
5984.03825,0.09750
5985.96672,0.10873
5987.89519,0.09842
5989.82366,0.07763
5991.75212,0.06333
5993.68059,0.09171
5995.60906,0.12770
5997.53753,0.12090
5999.46600,0.10309
6001.39447,0.10584
6003.32294,0.12200
6005.25140,0.12154
6007.17987,0.08525
6009.10834,0.06141
6011.03681,0.08744
6012.96528,0.10731
6014.89375,0.08445
6016.82222,0.06610
6018.75069,0.08951
6020.67915,0.10680
6022.60762,0.08900
6024.53609,0.07499
6026.46456,0.07173
6028.39303,0.07083
6030.32150,0.07751
6032.24997,0.08354
6034.17843,0.09835
6036.10690,0.14549
6038.03537,0.18495
6039.96384,0.15362
6041.89231,0.09382
6043.82078,0.08265
6045.74925,0.09365
6047.67772,0.07111
6049.60618,0.03962
6051.53465,0.05059
6053.46312,0.10843
6055.39159,0.16606
6057.32006,0.14290
6059.24853,0.07845
6061.17700,0.07886
6063.10546,0.10177
6065.03393,0.07543
6066.96240,0.03936
6068.89087,0.05223
6070.81934,0.11067
6072.74781,0.13352
6074.67628,0.10350
6076.60475,0.09661
6078.53321,0.11204
6080.46168,0.09182
6082.39015,0.05088
6084.31862,0.04847
6086.24709,0.08638
6088.17556,0.10587
6090.10403,0.10071
6092.03249,0.11244
6093.96096,0.14017
6095.88943,0.15773
6097.81790,0.15342
6099.74637,0.12458
6101.67484,0.09214
6103.60331,0.06646
6105.53177,0.02897
6107.46024,-0.00426
6109.38871,0.00133
6111.31718,0.03444
6113.24565,0.05285
6115.17412,0.03411
6117.10259,0.00637
6119.03106,0.01813
6120.95952,0.05034
6122.88799,0.05874
6124.81646,0.05600
6126.74493,0.06387
6128.67340,0.08604
6130.60187,0.09885
6132.53034,0.08194
6134.45880,0.07017
6136.38727,0.07911
6138.31574,0.07163
6140.24421,0.04761
6142.17268,0.04281
6144.10115,0.05191
6146.02962,0.05532
6147.95809,0.05026
6149.88655,0.04212
6151.81502,0.04756
6153.74349,0.05722
6155.67196,0.04271
6157.60043,0.01952
6159.52890,0.02376
6161.45737,0.06195
6163.38583,0.10083
6165.31430,0.08751
6167.24277,0.04355
6169.17124,0.03562
6171.09971,0.05746
6173.02818,0.07528
6174.95665,0.08787
6176.88512,0.09992
6178.81358,0.11447
6180.74205,0.12970
6182.67052,0.13497
6184.59899,0.12616
6186.52746,0.11732
6188.45593,0.11621
6190.38440,0.11713
6192.31286,0.12746
6194.24133,0.13751
6196.16980,0.12052
6198.09827,0.09052
6200.02674,0.07219
6201.95521,0.06744
6203.88368,0.08277
6205.81215,0.08571
6207.74061,0.04656
6209.66908,0.01701
6211.59755,0.03506
6213.52602,0.06834
6215.45449,0.09690
6217.38296,0.12617
6219.31143,0.16022
6221.23989,0.16680
6223.16836,0.12504
6225.09683,0.07418
6227.02530,0.04629
6228.95377,0.04376
6230.88224,0.04999
6232.81071,0.04845
6234.73918,0.04090
6236.66764,0.03811
6238.59611,0.06044
6240.52458,0.09946
6242.45305,0.13378
6244.38152,0.16302
6246.30999,0.16347
6248.23846,0.11462
6250.16692,0.06022
6252.09539,0.04711
6254.02386,0.05985
6255.95233,0.06556
6257.88080,0.04357
6259.80927,0.02531
6261.73774,0.05833
6263.66621,0.09626
6265.59467,0.05781
6267.52314,-0.00844
6269.45161,0.00264
6271.38008,0.08335
6273.30855,0.14669
6275.23702,0.13913
6277.16549,0.12969
6279.09395,0.14487
6281.02242,0.11123
6282.95089,0.04929
6284.87936,0.04661
6286.80783,0.07256
6288.73630,0.06249
6290.66477,0.02351
6292.59323,0.00361
6294.52170,0.04213
6296.45017,0.08844
6298.37864,0.08478
6300.30711,0.06825
6302.23558,0.09010
6304.16405,0.14172
6306.09252,0.16422
6308.02098,0.14455
6309.94945,0.14303
6311.87792,0.15759
6313.80639,0.13415
6315.73486,0.10528
6317.66333,0.11436
6319.59180,0.14184
6321.52026,0.15913
6323.44873,0.13357
6325.37720,0.06157
6327.30567,-0.01335
6329.23414,-0.03513
6331.16261,-0.00413
6333.09108,0.01881
6335.01955,0.04410
6336.94801,0.09503
6338.87648,0.10882
6340.80495,0.06481
6342.73342,0.00986
6344.66189,-0.03166
6346.59036,-0.04524
6348.51883,-0.03909
6350.44729,-0.01897
6352.37576,0.03415
6354.30423,0.10525
6356.23270,0.14903
6358.16117,0.12001
6360.08964,0.05199
6362.01811,0.02766
6363.94658,0.06665
6365.87504,0.11760
6367.80351,0.08651
6369.73198,0.00730
6371.66045,-0.00334
6373.58892,0.04471
6375.51739,0.08240
6377.44586,0.08616
6379.37432,0.08370
6381.30279,0.10791
6383.23126,0.12664
6385.15973,0.10615
6387.08820,0.09185
6389.01667,0.12041
6390.94514,0.13427
6392.87361,0.07017
6394.80207,0.02525
6396.73054,0.06459
6398.65901,0.08412
6400.58748,0.02587
6402.51595,-0.02581
6404.44442,-0.00500
6406.37289,0.03435
6408.30135,0.02766
6410.22982,-0.01582
6412.15829,-0.01088
6414.08676,0.06083
6416.01523,0.10364
6417.94370,0.06032
6419.87217,-0.01031
6421.80064,-0.00943
6423.72910,0.05351
6425.65757,0.08623
6427.58604,0.06430
6429.51451,0.06596
6431.44298,0.11246
6433.37145,0.11411
6435.29992,0.04682
6437.22838,0.01219
6439.15685,0.07021
6441.08532,0.13124
6443.01379,0.12117
6444.94226,0.07938
6446.87073,0.08028
6448.79920,0.10261
6450.72766,0.08709
6452.65613,0.06375
6454.58460,0.08804
6456.51307,0.11672
6458.44154,0.09009
6460.37001,0.03812
6462.29848,0.01113
6464.22695,0.03318
6466.15541,0.07153
6468.08388,0.06377
6470.01235,0.02990
6471.94082,0.03577
6473.86929,0.07629
6475.79776,0.09771
6477.72623,0.09081
6479.65469,0.09332
6481.58316,0.08963
6483.51163,0.06186
6485.44010,0.04613
6487.36857,0.05600
6489.29704,0.08233
6491.22551,0.10645
6493.15398,0.08573
6495.08244,0.02544
6497.01091,-0.00124
6498.93938,0.03812
6500.86785,0.06853
6502.79632,0.03491
6504.72479,0.03059
6506.65326,0.06527
6508.58172,0.04491
6510.51019,-0.01174
6512.43866,-0.00494
6514.36713,0.06565
6516.29560,0.09477
6518.22407,0.05576
6520.15254,0.05825
6522.08101,0.11701
6524.00947,0.12326
6525.93794,0.06934
6527.86641,0.03670
6529.79488,0.03954
6531.72335,0.07987
6533.65182,0.11743
6535.58029,0.09139
6537.50875,0.05119
6539.43722,0.08354
6541.36569,0.14425
6543.29416,0.11239
6545.22263,0.00740
6547.15110,-0.02053
6549.07957,0.04720
6551.00804,0.07969
6552.93650,0.05436
6554.86497,0.08308
6556.79344,0.15746
6558.72191,0.16627
6560.65038,0.09722
6562.57885,0.06057
6564.50732,0.08821
6566.43578,0.10740
6568.36425,0.08413
6570.29272,0.04588
6572.22119,0.02788
6574.14966,0.03490
6576.07813,0.04789
6578.00660,0.05167
6579.93507,0.03935
6581.86353,0.02057
6583.79200,0.00121
6585.72047,-0.00585
6587.64894,0.03245
6589.57741,0.09437
6591.50588,0.11091
6593.43435,0.07130
6595.36281,0.05442
6597.29128,0.07419
6599.21975,0.06321
6601.14822,0.04708
6603.07669,0.06070
6605.00516,0.05366
6606.93363,0.03884
6608.86210,0.06953
6610.79056,0.12115
6612.71903,0.14793
6614.64750,0.15751
6616.57597,0.13634
6618.50444,0.08056
6620.43291,0.03979
6622.36138,0.03865
6624.28984,0.07352
6626.21831,0.09649
6628.14678,0.09031
6630.07525,0.11482
6632.00372,0.15601
6633.93219,0.13754
6635.86066,0.08424
6637.78912,0.07212
6639.71759,0.09548
6641.64606,0.14322
6643.57453,0.19362
6645.50300,0.18633
6647.43147,0.14893
6649.35994,0.12962
6651.28841,0.11402
6653.21687,0.12187
6655.14534,0.16994
6657.07381,0.22850
6659.00228,0.26059
6660.93075,0.24105
6662.85922,0.18032
6664.78769,0.12606
6666.71615,0.07924
6668.64462,0.01055
6670.57309,-0.01274
6672.50156,0.07513
6674.43003,0.15664
6676.35850,0.12278
6678.28697,0.02844
6680.21544,-0.03051
6682.14390,-0.02258
6684.07237,0.01657
6686.00084,0.01531
6687.92931,-0.03534
6689.85778,-0.04024
6691.78625,0.01191
6693.71472,0.04213
6695.64318,0.06301
6697.57165,0.11267
6699.50012,0.15155
6701.42859,0.14396
6703.35706,0.07568
6705.28553,-0.00719
6707.21400,-0.01291
6709.14247,-0.00511
6711.07093,-0.05011
6712.99940,-0.06351
6714.92787,-0.00311
6716.85634,0.08160
6718.78481,0.11883
6720.71328,0.09849
6722.64175,0.09816
6724.57021,0.13727
6726.49868,0.14189
6728.42715,0.07707
6730.35562,0.00673
6732.28409,0.00239
6734.21256,0.03416
6736.14103,0.05543
6738.06950,0.05127
6739.99796,0.05667
6741.92643,0.09114
6743.85490,0.07246
6745.78337,-0.01165
6747.71184,-0.06400
6749.64031,-0.03454
6751.56878,-0.02066
6753.49724,-0.05802
6755.42571,-0.05415
6757.35418,-0.01727
6759.28265,0.03161
6761.21112,0.07634
6763.13959,0.04700
6765.06806,0.02723
6766.99653,0.07689
6768.92499,0.09351
6770.85346,0.04950
6772.78193,0.00467
6774.71040,-0.03258
6776.63887,-0.06091
6778.56734,-0.06739
6780.49581,-0.03885
6782.42427,0.04426
6784.35274,0.11857
6786.28121,0.08998
6788.20968,0.01023
6790.13815,-0.01336
6792.06662,0.03997
6793.99509,0.10460
6795.92355,0.10374
6797.85202,0.06417
6799.78049,0.04995
6801.70896,0.06487
6803.63743,0.09399
6805.56590,0.09896
6807.49437,0.07895
6809.42284,0.05643
6811.35130,0.01624
6813.27977,-0.00693
6815.20824,0.02046
6817.13671,0.05555
6819.06518,0.07996
6820.99365,0.08809
6822.92212,0.05229
6824.85058,0.01694
6826.77905,0.01664
6828.70752,-0.00055
6830.63599,-0.01868
6832.56446,0.03957
6834.49293,0.11583
6836.42140,0.09518
6838.34987,0.03718
6840.27833,0.06281
6842.20680,0.11460
6844.13527,0.08491
6846.06374,-0.00353
6847.99221,-0.05584
6849.92068,-0.01705
6851.84915,0.07751
6853.77761,0.15334
6855.70608,0.16253
6857.63455,0.11246
6859.56302,0.01077
6861.49149,-0.08875
6863.41996,-0.06338
6865.34843,0.05315
6867.27690,0.13791
6869.20536,0.10642
6871.13383,0.00424
6873.06230,-0.00499
6874.99077,0.08344
6876.91924,0.10741
6878.84771,0.04884
6880.77618,0.01865
6882.70464,0.06356
6884.63311,0.12397
6886.56158,0.14422
6888.49005,0.11670
6890.41852,0.07635
6892.34699,0.05768
6894.27546,0.07627
6896.20393,0.07294
6898.13239,0.01115
6900.06086,-0.01147
6901.98933,0.01497
6903.91780,-0.00538
6905.84627,-0.03829
6907.77474,0.03733
6909.70321,0.11265
6911.63167,0.06024
6913.56014,0.02244
6915.48861,0.12591
6917.41708,0.21595
6919.34555,0.16563
6921.27402,0.11044
6923.20249,0.13473
6925.13096,0.14744
6927.05942,0.08776
6928.98789,0.01490
6930.91636,0.06614
6932.84483,0.15117
6934.77330,0.07261
6936.70177,-0.05849
6938.63024,-0.10939
6940.55870,-0.07388
6942.48717,0.02194
6944.41564,0.11081
6946.34411,0.10450
6948.27258,0.05005
6950.20105,0.05899
6952.12952,0.10538
6954.05799,0.13729
6955.98645,0.13160
6957.91492,0.07166
6959.84339,0.02145
6961.77186,0.01477
6963.70033,0.01167
6965.62880,0.02586
6967.55727,0.05659
6969.48573,0.07330
6971.41420,0.13006
6973.34267,0.24631
6975.27114,0.29794
6977.19961,0.19836
6979.12808,0.05151
6981.05655,0.02786
6982.98501,0.13831
6984.91348,0.16242
6986.84195,0.01155
6988.77042,-0.12427
6990.69889,-0.10265
6992.62736,-0.03451
6994.55583,-0.04341
6996.48430,-0.10427
6998.41276,-0.09581
7000.34123,0.02562
7002.26970,0.11054
7004.19817,0.11406
7006.12664,0.13556
7008.05511,0.17679
7009.98358,0.17130
7011.91204,0.09520
7013.84051,-0.00769
7015.76898,-0.06374
7017.69745,-0.07529
7019.62592,-0.03248
7021.55439,0.01850
7023.48286,0.01096
7025.41133,0.00232
7027.33979,-0.00097
7029.26826,-0.04690
7031.19673,-0.02207
7033.12520,0.09571
7035.05367,0.13394
7036.98214,0.05533
7038.91061,0.00404
7040.83907,-0.00175
7042.76754,-0.00624
7044.69601,-0.01897
7046.62448,-0.03314
7048.55295,-0.02119
7050.48142,0.02474
7052.40989,0.06033
7054.33836,0.03003
7056.26682,-0.03100
7058.19529,-0.01027
7060.12376,0.03066
7062.05223,-0.01244
7063.98070,-0.04804
7065.90917,0.02565
7067.83764,0.14954
7069.76610,0.18513
7071.69457,0.11059
7073.62304,0.08836
7075.55151,0.08544
7077.47998,0.04370
7079.40845,0.03165
7081.33692,0.02861
7083.26539,0.00041
7085.19385,0.03926
7087.12232,0.12291
7089.05079,0.13822
7090.97926,0.12521
7092.90773,0.14042
7094.83620,0.11626
7096.76467,0.02366
7098.69313,-0.08654
7100.62160,-0.11087
7102.55007,-0.06487
7104.47854,-0.05504
7106.40701,-0.07211
7108.33548,-0.01226
7110.26395,0.07584
7112.19242,0.08850
7114.12088,0.04788
7116.04935,0.05930
7117.97782,0.16006
7119.90629,0.19839
7121.83476,0.10974
7123.76323,-0.00016
7125.69170,-0.06200
7127.62016,-0.01247
7129.54863,0.09765
7131.47710,0.15853
7133.40557,0.20783
7135.33404,0.26071
7137.26251,0.23491
7139.19098,0.10016
7141.11944,-0.06843
7143.04791,-0.09533
7144.97638,0.04934
7146.90485,0.11341
7148.83332,0.04922
7150.76179,0.00065
7152.69026,-0.01286
7154.61873,0.01174
7156.54719,0.04404
7158.47566,0.05199
7160.40413,0.07466
7162.33260,0.09482
7164.26107,0.01529
7166.18954,-0.12584
7168.11801,-0.13274
7170.04647,0.04355
7171.97494,0.17910
7173.90341,0.12532
7175.83188,0.03616
7177.76035,0.08247
7179.68882,0.17951
7181.61729,0.12040
7183.54576,-0.04269
7185.47422,-0.04477
7187.40269,0.00869
7189.33116,-0.01729
7191.25963,-0.00750
7193.18810,0.11634
7195.11657,0.20180
7197.04504,0.14931
7198.97350,0.04528
7200.90197,0.00890
7202.83044,0.08466
7204.75891,0.21014
7206.68738,0.19813
7208.61585,0.10610
7210.54432,0.02912
7212.47279,-0.05348
7214.40125,-0.15871
7216.32972,-0.24681
7218.25819,-0.19053
7220.18666,-0.05730
7222.11513,0.01797
7224.04360,0.09354
7225.97207,0.17335
7227.90053,0.24163
7229.82900,0.29318
7231.75747,0.19217
7233.68594,0.00876
7235.61441,-0.05378
7237.54288,-0.03408
7239.47135,-0.02238
7241.39982,0.03284
7243.32828,0.14998
7245.25675,0.18200
7247.18522,0.12086
7249.11369,0.04347
7251.04216,-0.00465
7252.97063,0.01721
7254.89910,0.09830
7256.82756,0.13055
7258.75603,0.09283
7260.68450,0.07800
7262.61297,0.12972
7264.54144,0.09342
7266.46991,0.01768
7268.39838,0.07804
7270.32685,0.23610
7272.25531,0.27248
7274.18378,0.17601
7276.11225,0.16469
7278.04072,0.20859
7279.96919,0.24654
7281.89766,0.26024
7283.82613,0.23511
7285.75459,0.23113
7287.68306,0.22349
7289.61153,0.12176
7291.54000,-0.01798
7293.46847,-0.07943
7295.39694,-0.04325
7297.32541,0.01959
7299.25387,-0.01732
7301.18234,-0.11678
7303.11081,-0.11855
7305.03928,-0.07619
7306.96775,-0.11618
7308.89622,-0.10456
7310.82469,0.00777
7312.75316,0.05448
7314.68162,0.02227
7316.61009,-0.01000
7318.53856,-0.03459
7320.46703,-0.11279
7322.39550,-0.18880
7324.32397,-0.14601
7326.25244,0.01876
7328.18090,0.23224
7330.10937,0.34322
7332.03784,0.28916
7333.96631,0.20488
7335.89478,0.19339
7337.82325,0.25344
7339.75172,0.23961
7341.68019,0.07197
7343.60865,-0.01790
7345.53712,0.03656
7347.46559,0.17535
7349.39406,0.23004
7351.32253,0.13271
7353.25100,0.06705
7355.17947,0.14683
7357.10793,0.19628
7359.03640,0.10598
7360.96487,0.08639
7362.89334,0.16146
7364.82181,0.20218
7366.75028,0.17297
7368.67875,0.12591
7370.60722,0.06674
7372.53568,-0.02670
7374.46415,-0.05276
7376.39262,0.02751
7378.32109,-0.00248
7380.24956,-0.08095
7382.17803,-0.02643
7384.10650,0.15655
7386.03496,0.30280
7387.96343,0.20609
7389.89190,-0.04141
7391.82037,-0.16428
7393.74884,-0.11258
7395.67731,-0.00246
7397.60578,0.02127
7399.53425,-0.03235
7401.46271,0.02875
7403.39118,0.25748
7405.31965,0.36359
7407.24812,0.20105
7409.17659,0.00236
7411.10506,-0.05742
7413.03353,-0.01256
7414.96199,0.02571
7416.89046,0.00377
7418.81893,-0.09202
7420.74740,-0.12376
7422.67587,-0.04348
7424.60434,-0.00704
7426.53281,-0.02289
7428.46128,0.00863
7430.38974,0.07467
7432.31821,0.09161
7434.24668,0.08108
7436.17515,0.05827
7438.10362,0.10847
7440.03209,0.19346
7441.96056,0.09610
7443.88902,-0.07765
7445.81749,-0.07524
7447.74596,0.02723
7449.67443,0.03270
7451.60290,-0.00950
7453.53137,0.05053
7455.45984,0.06441
7457.38831,-0.02567
7459.31677,-0.08793
7461.24524,-0.07935
7463.17371,-0.08253
7465.10218,-0.04828
7467.03065,0.04299
7468.95912,0.12674
7470.88759,0.15434
7472.81605,0.12465
7474.74452,0.07388
7476.67299,0.03006
7478.60146,0.10986
7480.52993,0.20705
7482.45840,0.05046
7484.38687,-0.09893
7486.31533,0.02657
7488.24380,0.21603
7490.17227,0.16447
7492.10074,0.01518
7494.02921,0.03921
7495.95768,0.12143
7497.88615,0.04270
