399.19301,0.36029
401.12148,0.65189
403.04995,0.33872
404.97842,0.01502
406.90689,-0.12269
408.83536,-0.17133
410.76382,-0.14442
412.69229,-0.05127
414.62076,0.01586
416.54923,0.01297
418.47770,0.00744
420.40617,0.05765
422.33464,0.05303
424.26311,0.03330
426.19157,0.08134
428.12004,0.10716
430.04851,0.05841
431.97698,0.01696
433.90545,0.03415
435.83392,0.10418
437.76239,0.17625
439.69085,0.17881
441.61932,0.14337
443.54779,0.17171
445.47626,0.22489
447.40473,0.19839
449.33320,0.10724
451.26167,0.05129
453.19013,0.08019
455.11860,0.14286
457.04707,0.14936
458.97554,0.07758
460.90401,0.02866
462.83248,0.06739
464.76095,0.12560
466.68942,0.12877
468.61788,0.12205
470.54635,0.16286
472.47482,0.29866
474.40329,0.42932
476.33176,0.33168
478.26023,0.20577
480.18870,0.13923
482.11716,0.08332
484.04563,0.02723
485.97410,0.01072
487.90257,0.04702
489.83104,0.09144
491.75951,0.09672
493.68798,0.06536
495.61645,0.03532
497.54491,0.04261
499.47338,0.06631
501.40185,0.07086
503.33032,0.05518
505.25879,0.03665
507.18726,0.04516
509.11573,0.07755
511.04419,0.09089
512.97266,0.09078
514.90113,0.10235
516.82960,0.11747
518.75807,0.12177
520.68654,0.11773
522.61501,0.11777
524.54348,0.11357
526.47194,0.08829
528.40041,0.07691
530.32888,0.09594
532.25735,0.11956
534.18582,0.13924
536.11429,0.15130
538.04276,0.14484
539.97122,0.12580
541.89969,0.11429
543.82816,0.12403
545.75663,0.12990
547.68510,0.11370
549.61357,0.09692
551.54204,0.07455
553.47051,0.03999
555.39897,0.03404
557.32744,0.07259
559.25591,0.11032
561.18438,0.11301
563.11285,0.09688
565.04132,0.09127
566.96979,0.09782
568.89825,0.09743
570.82672,0.08700
572.75519,0.08032
574.68366,0.08352
576.61213,0.09062
578.54060,0.09932
580.46907,0.10420
582.39754,0.08969
584.32600,0.07794
586.25447,0.09342
588.18294,0.10687
590.11141,0.10374
592.03988,0.10425
593.96835,0.10786
595.89682,0.09433
597.82528,0.06796
599.75375,0.06103
601.68222,0.07225
603.61069,0.06714
605.53916,0.06037
607.46763,0.07911
609.39610,0.09964
611.32456,0.10439
613.25303,0.10223
615.18150,0.10377
617.10997,0.11213
619.03844,0.11137
620.96691,0.09291
622.89538,0.07378
624.82385,0.07243
626.75231,0.09205
628.68078,0.11604
630.60925,0.12708
632.53772,0.12065
634.46619,0.10616
636.39466,0.10170
638.32313,0.10394
640.25159,0.10733
642.18006,0.11530
644.10853,0.12016
646.03700,0.12627
647.96547,0.14017
649.89394,0.14506
651.82241,0.13323
653.75088,0.12068
655.67934,0.11734
657.60781,0.11977
659.53628,0.12175
661.46475,0.11539
663.39322,0.10368
665.32169,0.09586
667.25016,0.09212
669.17862,0.09119
671.10709,0.09236
673.03556,0.09412
674.96403,0.09744
676.89250,0.09988
678.82097,0.09624
680.74944,0.09179
682.67791,0.09544
684.60637,0.11009
686.53484,0.12698
688.46331,0.12221
690.39178,0.10450
692.32025,0.10443
694.24872,0.11632
696.17719,0.12098
698.10565,0.11864
700.03412,0.11816
701.96259,0.11843
703.89106,0.11452
705.81953,0.11434
707.74800,0.12190
709.67647,0.12326
711.60494,0.11544
713.53340,0.10975
715.46187,0.11029
717.39034,0.11525
719.31881,0.12024
721.24728,0.12201
723.17575,0.11860
725.10422,0.11541
727.03268,0.11969
728.96115,0.12041
730.88962,0.11290
732.81809,0.11084
734.74656,0.11651
736.67503,0.11658
738.60350,0.10898
740.53197,0.10594
742.46043,0.10654
744.38890,0.10411
746.31737,0.10404
748.24584,0.10951
750.17431,0.11994
752.10278,0.13321
754.03125,0.13764
755.95971,0.12650
757.88818,0.11403
759.81665,0.11444
761.74512,0.11860
763.67359,0.11389
765.60206,0.10799
767.53053,0.10950
769.45900,0.11349
771.38746,0.11612
773.31593,0.11817
775.24440,0.11887
777.17287,0.11838
779.10134,0.12140
781.02981,0.12820
782.95828,0.13102
784.88674,0.12608
786.81521,0.12016
788.74368,0.11951
790.67215,0.12015
792.60062,0.12022
794.52909,0.12412
796.45756,0.12862
798.38602,0.12643
800.31449,0.11915
802.24296,0.11269
804.17143,0.11103
806.09990,0.11616
808.02837,0.12201
809.95684,0.11918
811.88531,0.10922
813.81377,0.10158
815.74224,0.10455
817.67071,0.11477
819.59918,0.11977
821.52765,0.11804
823.45612,0.11825
825.38459,0.12162
827.31305,0.12315
829.24152,0.12623
831.16999,0.13172
833.09846,0.12981
835.02693,0.11836
836.95540,0.10715
838.88387,0.10614
840.81234,0.11352
842.74080,0.11851
844.66927,0.11597
846.59774,0.11316
848.52621,0.11890
850.45468,0.12882
852.38315,0.13760
854.31162,0.14328
856.24008,0.13919
858.16855,0.12578
860.09702,0.11348
862.02549,0.11434
863.95396,0.12813
865.88243,0.13563
867.81090,0.12684
869.73937,0.11869
871.66783,0.12294
873.59630,0.12813
875.52477,0.12540
877.45324,0.12136
879.38171,0.11935
881.31018,0.11598
883.23865,0.11665
885.16711,0.12214
887.09558,0.12348
889.02405,0.12233
890.95252,0.12416
892.88099,0.12741
894.80946,0.13069
896.73793,0.13474
898.66640,0.13689
900.59486,0.13265
902.52333,0.12404
904.45180,0.11879
906.38027,0.11911
908.30874,0.12017
910.23721,0.12112
912.16568,0.12617
914.09414,0.13402
916.02261,0.13758
917.95108,0.13417
919.87955,0.12652
921.80802,0.11810
923.73649,0.11297
925.66496,0.11292
927.59343,0.11657
929.52189,0.12180
931.45036,0.12811
933.37883,0.13414
935.30730,0.13641
937.23577,0.13640
939.16424,0.13733
941.09271,0.13866
943.02117,0.13957
944.94964,0.13851
946.87811,0.13328
948.80658,0.12841
950.73505,0.13271
952.66352,0.14233
954.59199,0.14456
956.52045,0.13904
958.44892,0.13330
960.37739,0.13069
962.30586,0.13085
964.23433,0.12931
966.16280,0.12554
968.09127,0.12673
970.01974,0.13407
971.94820,0.13773
973.87667,0.13417
975.80514,0.13011
977.73361,0.12774
979.66208,0.12834
981.59055,0.13401
983.51902,0.14054
985.44748,0.14321
987.37595,0.14114
989.30442,0.13669
991.23289,0.13464
993.16136,0.13768
995.08983,0.13933
997.01830,0.13641
998.94677,0.13703
1000.87523,0.14111
1002.80370,0.14250
1004.73217,0.13927
1006.66064,0.13275
1008.58911,0.12996
1010.51758,0.13397
1012.44605,0.13843
1014.37451,0.13777
1016.30298,0.13430
1018.23145,0.13412
1020.15992,0.13554
1022.08839,0.13455
1024.01686,0.13294
1025.94533,0.13080
1027.87380,0.12733
1029.80226,0.12617
1031.73073,0.13027
1033.65920,0.13456
1035.58767,0.13518
1037.51614,0.13593
1039.44461,0.13735
1041.37308,0.13918
1043.30154,0.14175
1045.23001,0.14346
1047.15848,0.14765
1049.08695,0.15634
1051.01542,0.16111
1052.94389,0.15388
1054.87236,0.14226
1056.80083,0.13654
1058.72929,0.13719
1060.65776,0.14314
1062.58623,0.14966
1064.51470,0.15048
1066.44317,0.14589
1068.37164,0.13873
1070.30011,0.13665
1072.22857,0.14405
1074.15704,0.14930
1076.08551,0.14951
1078.01398,0.15318
1079.94245,0.15384
1081.87092,0.14883
1083.79939,0.14635
1085.72786,0.14304
1087.65632,0.13781
1089.58479,0.13826
1091.51326,0.14052
1093.44173,0.14022
1095.37020,0.14447
1097.29867,0.15456
1099.22714,0.16306
1101.15560,0.16487
1103.08407,0.16144
1105.01254,0.15912
1106.94101,0.15831
1108.86948,0.15760
1110.79795,0.16000
1112.72642,0.16025
1114.65489,0.15307
1116.58335,0.14493
1118.51182,0.14087
1120.44029,0.13909
1122.36876,0.13940
1124.29723,0.14298
1126.22570,0.14613
1128.15417,0.14537
1130.08263,0.14134
1132.01110,0.13762
1133.93957,0.13782
1135.86804,0.14031
1137.79651,0.14272
1139.72498,0.14500
1141.65345,0.14818
1143.58191,0.15124
1145.51038,0.15140
1147.43885,0.15051
1149.36732,0.14860
1151.29579,0.14558
1153.22426,0.14661
1155.15273,0.15149
1157.08120,0.15559
1159.00966,0.15711
1160.93813,0.15578
1162.86660,0.15253
1164.79507,0.15099
1166.72354,0.15385
1168.65201,0.15622
1170.58048,0.15374
1172.50894,0.15102
1174.43741,0.15078
1176.36588,0.14972
1178.29435,0.14683
1180.22282,0.14426
1182.15129,0.14425
1184.07976,0.14878
1186.00823,0.15464
1187.93669,0.15379
1189.86516,0.14927
1191.79363,0.15034
1193.72210,0.15244
1195.65057,0.14929
1197.57904,0.14671
1199.50751,0.14982
1201.43597,0.15514
1203.36444,0.15828
1205.29291,0.15801
1207.22138,0.15416
1209.14985,0.14866
1211.07832,0.14464
1213.00679,0.14456
1214.93526,0.14843
1216.86372,0.15089
1218.79219,0.14990
1220.72066,0.15044
1222.64913,0.15343
1224.57760,0.15560
1226.50607,0.15546
1228.43454,0.15380
1230.36300,0.15340
1232.29147,0.15503
1234.21994,0.15538
1236.14841,0.15298
1238.07688,0.15076
1240.00535,0.15139
1241.93382,0.15408
1243.86229,0.15583
1245.79075,0.15518
1247.71922,0.15432
1249.64769,0.15352
1251.57616,0.15039
1253.50463,0.14801
1255.43310,0.14872
1257.36157,0.14990
1259.29003,0.15190
1261.21850,0.15454
1263.14697,0.15513
1265.07544,0.15389
1267.00391,0.15304
1268.93238,0.15299
1270.86085,0.15362
1272.78932,0.15462
1274.71778,0.15395
1276.64625,0.15333
1278.57472,0.15406
1280.50319,0.15185
1282.43166,0.14954
1284.36013,0.15318
1286.28860,0.15754
1288.21706,0.15866
1290.14553,0.16039
1292.07400,0.16208
1294.00247,0.16025
1295.93094,0.15560
1297.85941,0.15236
1299.78788,0.15079
1301.71634,0.14609
1303.64481,0.13939
1305.57328,0.14026
1307.50175,0.15132
1309.43022,0.16241
1311.35869,0.16709
1313.28716,0.16627
1315.21563,0.16359
1317.14409,0.16335
1319.07256,0.16287
1321.00103,0.16100
1322.92950,0.16131
1324.85797,0.16090
1326.78644,0.15840
1328.71491,0.15696
1330.64337,0.15471
1332.57184,0.15406
1334.50031,0.15881
1336.42878,0.16615
1338.35725,0.17401
1340.28572,0.17282
1342.21419,0.16245
1344.14266,0.15653
1346.07112,0.15453
1347.99959,0.15416
1349.92806,0.15668
1351.85653,0.15856
1353.78500,0.15910
1355.71347,0.16027
1357.64194,0.16233
1359.57040,0.16578
1361.49887,0.16924
1363.42734,0.16713
1365.35581,0.16202
1367.28428,0.16163
1369.21275,0.16453
1371.14122,0.16947
1373.06969,0.17767
1374.99815,0.18077
1376.92662,0.17581
1378.85509,0.17188
1380.78356,0.17082
1382.71203,0.17159
1384.64050,0.17593
1386.56897,0.18200
1388.49743,0.18125
1390.42590,0.17640
1392.35437,0.17963
1394.28284,0.19026
1396.21131,0.19507
1398.13978,0.19077
1400.06825,0.18324
1401.99672,0.17879
1403.92518,0.17977
1405.85365,0.17906
1407.78212,0.17424
1409.71059,0.17235
1411.63906,0.17361
1413.56753,0.17530
1415.49600,0.18141
1417.42446,0.19385
1419.35293,0.19762
1421.28140,0.18761
1423.20987,0.18151
1425.13834,0.17870
1427.06681,0.17754
1428.99528,0.18223
1430.92375,0.18488
1432.85221,0.18214
1434.78068,0.18390
1436.70915,0.18637
1438.63762,0.17999
1440.56609,0.17369
1442.49456,0.17228
1444.42303,0.17559
1446.35149,0.18074
1448.27996,0.18123
1450.20843,0.17851
1452.13690,0.18044
1454.06537,0.19046
1455.99384,0.21120
1457.92231,0.22146
1459.85077,0.20391
1461.77924,0.19327
1463.70771,0.19498
1465.63618,0.19376
1467.56465,0.18584
1469.49312,0.18736
1471.42159,0.20300
1473.35006,0.21438
1475.27852,0.20662
1477.20699,0.19587
1479.13546,0.18881
1481.06393,0.18425
1482.99240,0.18206
1484.92087,0.18739
1486.84934,0.20176
1488.77780,0.21544
1490.70627,0.21124
1492.63474,0.19917
1494.56321,0.19896
1496.49168,0.20863
1498.42015,0.20887
1500.34862,0.19621
1502.27709,0.18662
1504.20555,0.19508
1506.13402,0.23602
1508.06249,0.25622
1509.99096,0.22698
1511.91943,0.20768
1513.84790,0.20745
1515.77637,0.22040
1517.70483,0.23422
1519.63330,0.24757
1521.56177,0.25603
1523.49024,0.24095
1525.41871,0.22250
1527.34718,0.20964
1529.27565,0.20289
1531.20412,0.20875
1533.13258,0.21916
1535.06105,0.21844
1536.98952,0.22455
1538.91799,0.25885
1540.84646,0.28869
1542.77493,0.26068
1544.70340,0.22385
1546.63186,0.20133
1548.56033,0.19713
1550.48880,0.20035
1552.41727,0.20321
1554.34574,0.21280
1556.27421,0.23362
1558.20268,0.25791
1560.13115,0.23346
1562.05961,0.20367
1563.98808,0.19559
1565.91655,0.19475
1567.84502,0.19998
1569.77349,0.20707
1571.70196,0.20356
1573.63043,0.20356
1575.55889,0.21259
1577.48736,0.20667
1579.41583,0.19041
1581.34430,0.18392
1583.27277,0.18419
1585.20124,0.18338
1587.12971,0.18114
1589.05818,0.17998
1590.98664,0.18010
1592.91511,0.18113
1594.84358,0.18192
1596.77205,0.17990
1598.70052,0.17662
1600.62899,0.17652
1602.55746,0.17968
1604.48592,0.18270
1606.41439,0.18531
1608.34286,0.18783
1610.27133,0.18776
1612.19980,0.18745
1614.12827,0.19380
1616.05674,0.20549
1617.98521,0.20370
1619.91367,0.19556
1621.84214,0.19901
1623.77061,0.20527
1625.69908,0.20332
1627.62755,0.19962
1629.55602,0.19455
1631.48449,0.19255
1633.41295,0.20358
1635.34142,0.22411
1637.26989,0.21937
1639.19836,0.20137
1641.12683,0.19497
1643.05530,0.20121
1644.98377,0.22145
1646.91223,0.24330
1648.84070,0.24036
1650.76917,0.24248
1652.69764,0.26282
1654.62611,0.24474
1656.55458,0.21286
1658.48305,0.20132
1660.41152,0.20455
1662.33998,0.20953
1664.26845,0.20365
1666.19692,0.20210
1668.12539,0.21553
1670.05386,0.22394
1671.98233,0.21543
1673.91080,0.21312
1675.83926,0.21364
1677.76773,0.21111
1679.69620,0.21578
1681.62467,0.23245
1683.55314,0.25514
1685.48161,0.24772
1687.41008,0.22501
1689.33855,0.21220
1691.26701,0.20510
1693.19548,0.20692
1695.12395,0.22174
1697.05242,0.23836
1698.98089,0.24334
1700.90936,0.23369
1702.83783,0.22221
1704.76629,0.21994
1706.69476,0.21444
1708.62323,0.20251
1710.55170,0.19628
1712.48017,0.19999
1714.40864,0.21438
1716.33711,0.23419
1718.26558,0.22899
1720.19404,0.20572
1722.12251,0.19357
1724.05098,0.18925
1725.97945,0.18715
1727.90792,0.19067
1729.83639,0.20039
1731.76486,0.21324
1733.69332,0.21893
1735.62179,0.20650
1737.55026,0.20054
1739.47873,0.20633
1741.40720,0.21014
1743.33567,0.20812
1745.26414,0.20725
1747.19261,0.21043
1749.12107,0.21261
1751.04954,0.20402
1752.97801,0.19270
1754.90648,0.19022
1756.83495,0.19387
1758.76342,0.19918
1760.69189,0.20381
1762.62035,0.19921
1764.54882,0.19045
1766.47729,0.19090
1768.40576,0.19978
1770.33423,0.21323
1772.26270,0.22064
1774.19117,0.20967
1776.11964,0.19751
1778.04810,0.19465
1779.97657,0.19504
1781.90504,0.19144
1783.83351,0.18759
1785.76198,0.18728
1787.69045,0.19061
1789.61892,0.20062
1791.54738,0.21312
1793.47585,0.21194
1795.40432,0.20038
1797.33279,0.19314
1799.26126,0.19505
1801.18973,0.19975
1803.11820,0.19694
1805.04666,0.19155
1806.97513,0.19082
1808.90360,0.19284
1810.83207,0.19178
1812.76054,0.18645
1814.68901,0.18327
1816.61748,0.18377
1818.54595,0.18436
1820.47441,0.18544
1822.40288,0.18969
1824.33135,0.19479
1826.25982,0.19644
1828.18829,0.19912
1830.11676,0.20026
1832.04523,0.19289
1833.97369,0.18717
1835.90216,0.18718
1837.83063,0.18784
1839.75910,0.18913
1841.68757,0.19408
1843.61604,0.19943
1845.54451,0.19843
1847.47298,0.19375
1849.40144,0.18902
1851.32991,0.18595
1853.25838,0.18528
1855.18685,0.18380
1857.11532,0.18145
1859.04379,0.18136
1860.97226,0.18354
1862.90072,0.18661
1864.82919,0.19174
1866.75766,0.20116
1868.68613,0.20743
1870.61460,0.19967
1872.54307,0.18879
1874.47154,0.18484
1876.40001,0.18467
1878.32847,0.18403
1880.25694,0.18384
1882.18541,0.18443
1884.11388,0.18407
1886.04235,0.18379
1887.97082,0.18577
1889.89929,0.18690
1891.82775,0.18571
1893.75622,0.18697
1895.68469,0.18819
1897.61316,0.18625
1899.54163,0.18567
1901.47010,0.18637
1903.39857,0.18595
1905.32704,0.18591
1907.25550,0.18650
1909.18397,0.18667
1911.11244,0.18600
1913.04091,0.18392
1914.96938,0.18354
1916.89785,0.18769
1918.82632,0.19144
1920.75478,0.19266
1922.68325,0.19340
1924.61172,0.19080
1926.54019,0.18596
1928.46866,0.18282
1930.39713,0.18150
1932.32560,0.18031
1934.25407,0.17934
1936.18253,0.18036
1938.11100,0.18325
1940.03947,0.18718
1941.96794,0.19045
1943.89641,0.18943
1945.82488,0.18482
1947.75335,0.18044
1949.68181,0.17864
1951.61028,0.17979
1953.53875,0.18273
1955.46722,0.18549
1957.39569,0.18536
1959.32416,0.18235
1961.25263,0.18076
1963.18110,0.18322
1965.10956,0.18671
1967.03803,0.18837
1968.96650,0.18907
1970.89497,0.18906
1972.82344,0.18706
1974.75191,0.18323
1976.68038,0.18064
1978.60884,0.18070
1980.53731,0.18060
1982.46578,0.18008
1984.39425,0.18175
1986.32272,0.18510
1988.25119,0.18790
1990.17966,0.18903
1992.10812,0.18829
1994.03659,0.18684
1995.96506,0.18626
1997.89353,0.18583
1999.82200,0.18380
2001.75047,0.18106
2003.67894,0.18067
2005.60741,0.18234
2007.53587,0.18326
2009.46434,0.18420
2011.39281,0.18612
2013.32128,0.18709
2015.24975,0.18718
2017.17822,0.18824
2019.10669,0.18997
2021.03515,0.18983
2022.96362,0.18733
2024.89209,0.18552
2026.82056,0.18484
2028.74903,0.18303
2030.67750,0.18095
2032.60597,0.18033
2034.53444,0.18050
2036.46290,0.18190
2038.39137,0.18515
2040.31984,0.18746
2042.24831,0.18752
2044.17678,0.18750
2046.10525,0.18820
2048.03372,0.18885
2049.96218,0.18845
2051.89065,0.18619
2053.81912,0.18395
2055.74759,0.18397
2057.67606,0.18455
2059.60453,0.18358
2061.53300,0.18280
2063.46147,0.18437
2065.38993,0.18675
2067.31840,0.18763
2069.24687,0.18728
2071.17534,0.18706
2073.10381,0.18754
2075.03228,0.18687
2076.96075,0.18502
2078.88921,0.18544
2080.81768,0.18772
2082.74615,0.18827
2084.67462,0.18719
2086.60309,0.18676
2088.53156,0.18749
2090.46003,0.18841
2092.38850,0.18805
2094.31696,0.18695
2096.24543,0.18691
2098.17390,0.18756
2100.10237,0.18792
2102.03084,0.18782
2103.95931,0.18805
2105.88778,0.18833
2107.81624,0.18763
2109.74471,0.18694
2111.67318,0.18773
2113.60165,0.19078
2115.53012,0.19331
2117.45859,0.19222
2119.38706,0.19024
2121.31553,0.18984
2123.24399,0.18986
2125.17246,0.18969
2127.10093,0.19032
2129.02940,0.19189
2130.95787,0.19236
2132.88634,0.19143
2134.81481,0.19104
2136.74327,0.19141
2138.67174,0.19147
2140.60021,0.19000
2142.52868,0.18817
2144.45715,0.18876
2146.38562,0.19028
2148.31409,0.18992
2150.24255,0.18894
2152.17102,0.18928
2154.09949,0.18922
2156.02796,0.18775
2157.95643,0.18722
2159.88490,0.18772
2161.81337,0.18781
2163.74184,0.18753
2165.67030,0.18706
2167.59877,0.18701
2169.52724,0.18773
2171.45571,0.18845
2173.38418,0.18871
2175.31265,0.18898
2177.24112,0.18975
2179.16958,0.19069
2181.09805,0.19085
2183.02652,0.18990
2184.95499,0.18886
2186.88346,0.18879
2188.81193,0.18932
2190.74040,0.18925
2192.66887,0.18854
2194.59733,0.18798
2196.52580,0.18723
2198.45427,0.18548
2200.38274,0.18384
2202.31121,0.18456
2204.23968,0.18719
2206.16815,0.18872
2208.09661,0.18856
2210.02508,0.18834
2211.95355,0.18826
2213.88202,0.18764
2215.81049,0.18714
2217.73896,0.18776
2219.66743,0.18855
2221.59590,0.18840
2223.52436,0.18805
2225.45283,0.18879
2227.38130,0.18988
2229.30977,0.19055
2231.23824,0.19103
2233.16671,0.18994
2235.09518,0.18835
2237.02364,0.18910
2238.95211,0.19088
2240.88058,0.19119
2242.80905,0.19134
2244.73752,0.19299
2246.66599,0.19297
2248.59446,0.19015
2250.52293,0.18921
2252.45139,0.19115
2254.37986,0.19229
2256.30833,0.19121
2258.23680,0.18933
2260.16527,0.18893
2262.09374,0.19030
2264.02221,0.19134
2265.95067,0.19077
2267.87914,0.18936
2269.80761,0.18901
2271.73608,0.18907
2273.66455,0.18822
2275.59302,0.18763
2277.52149,0.18688
2279.44996,0.18494
2281.37842,0.18391
2283.30689,0.18583
2285.23536,0.18913
2287.16383,0.19144
2289.09230,0.19220
2291.02077,0.19209
2292.94924,0.19271
2294.87770,0.19515
2296.80617,0.19679
2298.73464,0.19493
2300.66311,0.19184
2302.59158,0.18965
2304.52005,0.18848
2306.44852,0.18989
2308.37699,0.19381
2310.30545,0.19474
2312.23392,0.18940
2314.16239,0.18453
2316.09086,0.18579
2318.01933,0.18937
2319.94780,0.19160
2321.87627,0.19439
2323.80473,0.19700
2325.73320,0.19599
2327.66167,0.19148
2329.59014,0.18576
2331.51861,0.18412
2333.44708,0.18699
2335.37555,0.18857
2337.30401,0.19037
2339.23248,0.19624
2341.16095,0.19881
2343.08942,0.19493
2345.01789,0.19491
2346.94636,0.19770
2348.87483,0.19884
2350.80330,0.20037
2352.73176,0.20061
2354.66023,0.19526
2356.58870,0.18763
2358.51717,0.18155
2360.44564,0.17803
2362.37411,0.18062
2364.30258,0.18915
2366.23104,0.19669
2368.15951,0.19845
2370.08798,0.19548
2372.01645,0.19160
2373.94492,0.18985
2375.87339,0.19001
2377.80186,0.19176
2379.73033,0.19384
2381.65879,0.19380
2383.58726,0.19179
2385.51573,0.18953
2387.44420,0.18760
2389.37267,0.18634
2391.30114,0.18630
2393.22961,0.18676
2395.15807,0.18770
2397.08654,0.18939
2399.01501,0.19010
2400.94348,0.18984
2402.87195,0.19015
2404.80042,0.19019
2406.72889,0.18901
2408.65736,0.18749
2410.58582,0.18615
2412.51429,0.18567
2414.44276,0.18778
2416.37123,0.19063
2418.29970,0.19034
2420.22817,0.18816
2422.15664,0.18705
2424.08510,0.18791
2426.01357,0.18970
2427.94204,0.19018
2429.87051,0.18986
2431.79898,0.18901
2433.72745,0.18808
2435.65592,0.18918
2437.58439,0.19096
2439.51285,0.19126
2441.44132,0.19050
2443.36979,0.18994
2445.29826,0.19057
2447.22673,0.19150
2449.15520,0.19031
2451.08367,0.18837
2453.01213,0.18904
2454.94060,0.18989
2456.86907,0.18848
2458.79754,0.18699
2460.72601,0.18662
2462.65448,0.18706
2464.58295,0.18801
2466.51142,0.18835
2468.43988,0.18774
2470.36835,0.18799
2472.29682,0.19009
2474.22529,0.19205
2476.15376,0.19241
2478.08223,0.19247
2480.01070,0.19319
2481.93916,0.19361
2483.86763,0.19230
2485.79610,0.19009
2487.72457,0.18971
2489.65304,0.19091
2491.58151,0.19080
2493.50998,0.18954
2495.43844,0.18841
2497.36691,0.18692
2499.29538,0.18610
2501.22385,0.18760
2503.15232,0.19135
2505.08079,0.19507
2507.00926,0.19574
2508.93773,0.19458
2510.86619,0.19422
2512.79466,0.19476
2514.72313,0.19547
2516.65160,0.19524
2518.58007,0.19423
2520.50854,0.19363
2522.43701,0.19372
2524.36547,0.19395
2526.29394,0.19369
2528.22241,0.19308
2530.15088,0.19326
2532.07935,0.19434
2534.00782,0.19476
2535.93629,0.19389
2537.86476,0.19256
2539.79322,0.19114
2541.72169,0.18998
2543.65016,0.19054
2545.57863,0.19271
2547.50710,0.19331
2549.43557,0.19149
2551.36404,0.19078
2553.29250,0.19289
2555.22097,0.19521
2557.14944,0.19463
2559.07791,0.19251
2561.00638,0.19320
2562.93485,0.19551
2564.86332,0.19560
2566.79179,0.19490
2568.72025,0.19550
2570.64872,0.19557
2572.57719,0.19404
2574.50566,0.19286
2576.43413,0.19214
2578.36260,0.18984
2580.29107,0.18788
2582.21953,0.18899
2584.14800,0.19081
2586.07647,0.19271
2588.00494,0.19598
2589.93341,0.19775
2591.86188,0.19660
2593.79035,0.19472
2595.71882,0.19362
2597.64728,0.19343
2599.57575,0.19289
2601.50422,0.19218
2603.43269,0.19351
2605.36116,0.19564
2607.28963,0.19519
2609.21810,0.19355
2611.14656,0.19382
2613.07503,0.19473
2615.00350,0.19457
2616.93197,0.19480
2618.86044,0.19565
2620.78891,0.19501
2622.71738,0.19373
2624.64585,0.19382
2626.57431,0.19335
2628.50278,0.19117
2630.43125,0.19036
2632.35972,0.19234
2634.28819,0.19385
2636.21666,0.19253
2638.14513,0.19151
2640.07359,0.19398
2642.00206,0.19653
2643.93053,0.19578
2645.85900,0.19443
2647.78747,0.19475
2649.71594,0.19540
2651.64441,0.19552
2653.57288,0.19578
2655.50134,0.19650
2657.42981,0.19641
2659.35828,0.19501
2661.28675,0.19366
2663.21522,0.19347
2665.14369,0.19421
2667.07216,0.19410
2669.00062,0.19334
2670.92909,0.19409
2672.85756,0.19589
2674.78603,0.19628
2676.71450,0.19506
2678.64297,0.19682
2680.57144,0.20205
2682.49990,0.20382
2684.42837,0.20127
2686.35684,0.20022
2688.28531,0.20126
2690.21378,0.19997
2692.14225,0.19584
2694.07072,0.19306
2695.99919,0.19494
2697.92765,0.19938
2699.85612,0.20177
2701.78459,0.20159
2703.71306,0.20047
2705.64153,0.20015
2707.57000,0.20200
2709.49847,0.20373
2711.42693,0.20329
2713.35540,0.20300
2715.28387,0.20302
2717.21234,0.20161
2719.14081,0.20128
2721.06928,0.20370
2722.99775,0.20577
2724.92622,0.20424
2726.85468,0.20119
2728.78315,0.20083
2730.71162,0.20203
2732.64009,0.20250
2734.56856,0.20285
2736.49703,0.20277
2738.42550,0.20173
2740.35396,0.20119
2742.28243,0.20125
2744.21090,0.20015
2746.13937,0.19785
2748.06784,0.19663
2749.99631,0.19822
2751.92478,0.20048
2753.85325,0.20162
2755.78171,0.20356
2757.71018,0.20566
2759.63865,0.20485
2761.56712,0.20279
2763.49559,0.20281
2765.42406,0.20422
2767.35253,0.20555
2769.28099,0.20651
2771.20946,0.20710
2773.13793,0.20736
2775.06640,0.20648
2776.99487,0.20442
2778.92334,0.20252
2780.85181,0.20153
2782.78028,0.20121
2784.70874,0.20096
2786.63721,0.20053
2788.56568,0.20129
2790.49415,0.20339
2792.42262,0.20441
2794.35109,0.20393
2796.27956,0.20329
2798.20802,0.20331
2800.13649,0.20416
2802.06496,0.20473
2803.99343,0.20359
2805.92190,0.20229
2807.85037,0.20323
2809.77884,0.20439
2811.70731,0.20397
2813.63577,0.20365
2815.56424,0.20439
2817.49271,0.20574
2819.42118,0.20705
2821.34965,0.20720
2823.27812,0.20644
2825.20659,0.20619
2827.13505,0.20628
2829.06352,0.20711
2830.99199,0.20977
2832.92046,0.21238
2834.84893,0.21288
2836.77740,0.21161
2838.70587,0.20927
2840.63433,0.20649
2842.56280,0.20473
2844.49127,0.20440
2846.41974,0.20366
2848.34821,0.20205
2850.27668,0.20203
2852.20515,0.20462
2854.13362,0.20743
2856.06208,0.20938
2857.99055,0.21060
2859.91902,0.20992
2861.84749,0.20764
2863.77596,0.20628
2865.70443,0.20657
2867.63290,0.20730
2869.56136,0.20885
2871.48983,0.21034
2873.41830,0.20886
2875.34677,0.20580
2877.27524,0.20589
2879.20371,0.20951
2881.13218,0.21070
2883.06065,0.20715
2884.98911,0.20466
2886.91758,0.20617
2888.84605,0.20809
2890.77452,0.20678
2892.70299,0.20280
2894.63146,0.20114
2896.55993,0.20418
2898.48839,0.20652
2900.41686,0.20494
2902.34533,0.20323
2904.27380,0.20194
2906.20227,0.20060
2908.13074,0.20259
2910.05921,0.20622
2911.98768,0.20788
2913.91614,0.20745
2915.84461,0.20450
2917.77308,0.20097
2919.70155,0.20026
2921.63002,0.20264
2923.55849,0.20500
2925.48696,0.20151
2927.41542,0.19461
2929.34389,0.19451
2931.27236,0.19930
2933.20083,0.19968
2935.12930,0.19619
2937.05777,0.19452
2938.98624,0.19712
2940.91471,0.19974
2942.84317,0.19858
2944.77164,0.19585
2946.70011,0.19416
2948.62858,0.19616
2950.55705,0.20052
2952.48552,0.20422
2954.41399,0.20474
2956.34245,0.19676
2958.27092,0.18895
2960.19939,0.19491
2962.12786,0.20625
2964.05633,0.21017
2965.98480,0.20737
2967.91327,0.20408
2969.84174,0.20576
2971.77020,0.21039
2973.69867,0.21197
2975.62714,0.20947
2977.55561,0.20506
2979.48408,0.20288
2981.41255,0.20459
2983.34102,0.20791
2985.26948,0.21052
2987.19795,0.20924
2989.12642,0.20761
2991.05489,0.21164
2992.98336,0.21627
2994.91183,0.21611
2996.84030,0.21404
2998.76877,0.21312
3000.69723,0.21256
3002.62570,0.21172
3004.55417,0.21095
3006.48264,0.20877
3008.41111,0.20592
3010.33958,0.20147
3012.26805,0.18784
3014.19651,0.16264
3016.12498,0.14259
3018.05345,0.15228
3019.98192,0.18564
3021.91039,0.21034
3023.83886,0.21541
3025.76733,0.21206
3027.69579,0.20862
3029.62426,0.20904
3031.55273,0.21230
3033.48120,0.21290
3035.40967,0.21084
3037.33814,0.21015
3039.26661,0.21266
3041.19508,0.21522
3043.12354,0.21317
3045.05201,0.20777
3046.98048,0.20322
3048.90895,0.20321
3050.83742,0.20751
3052.76589,0.21098
3054.69436,0.20890
3056.62282,0.20283
3058.55129,0.20174
3060.47976,0.20669
3062.40823,0.21055
3064.33670,0.21013
3066.26517,0.20734
3068.19364,0.20919
3070.12211,0.21396
3072.05057,0.21200
3073.97904,0.20259
3075.90751,0.19547
3077.83598,0.20127
3079.76445,0.21411
3081.69292,0.21748
3083.62139,0.20648
3085.54985,0.19469
3087.47832,0.19748
3089.40679,0.20824
3091.33526,0.21131
3093.26373,0.20462
3095.19220,0.19937
3097.12067,0.20331
3099.04914,0.20917
3100.97760,0.20715
3102.90607,0.19795
3104.83454,0.19500
3106.76301,0.20285
3108.69148,0.20908
3110.61995,0.20779
3112.54842,0.20534
3114.47688,0.20844
3116.40535,0.21507
3118.33382,0.21778
3120.26229,0.21413
3122.19076,0.21137
3124.11923,0.21466
3126.04770,0.21722
3127.97617,0.21525
3129.90463,0.21162
3131.83310,0.21029
3133.76157,0.21388
3135.69004,0.21658
3137.61851,0.21236
3139.54698,0.20713
3141.47545,0.20838
3143.40391,0.21331
3145.33238,0.21649
3147.26085,0.21672
3149.18932,0.21689
3151.11779,0.21978
3153.04626,0.22179
3154.97473,0.22014
3156.90320,0.21968
3158.83166,0.22276
3160.76013,0.22551
3162.68860,0.22735
3164.61707,0.22836
3166.54554,0.22559
3168.47401,0.22026
3170.40248,0.21721
3172.33094,0.21756
3174.25941,0.21809
3176.18788,0.21761
3178.11635,0.21757
3180.04482,0.21830
3181.97329,0.21860
3183.90176,0.21837
3185.83022,0.21945
3187.75869,0.22036
3189.68716,0.21743
3191.61563,0.21254
3193.54410,0.21166
3195.47257,0.21638
3197.40104,0.22216
3199.32951,0.22478
3201.25797,0.22326
3203.18644,0.22096
3205.11491,0.22072
3207.04338,0.22018
3208.97185,0.21841
3210.90032,0.21700
3212.82879,0.21752
3214.75725,0.21806
3216.68572,0.21571
3218.61419,0.21469
3220.54266,0.21631
3222.47113,0.21724
3224.39960,0.21682
3226.32807,0.21536
3228.25654,0.21651
3230.18500,0.22040
3232.11347,0.21997
3234.04194,0.21626
3235.97041,0.21489
3237.89888,0.21449
3239.82735,0.21405
3241.75582,0.21481
3243.68428,0.21528
3245.61275,0.21326
3247.54122,0.21323
3249.46969,0.21993
3251.39816,0.22519
3253.32663,0.22170
3255.25510,0.21645
3257.18357,0.21610
3259.11203,0.21772
3261.04050,0.21857
3262.96897,0.21858
3264.89744,0.21811
3266.82591,0.21739
3268.75438,0.21516
3270.68285,0.21269
3272.61131,0.21079
3274.53978,0.21120
3276.46825,0.21551
3278.39672,0.21710
3280.32519,0.21230
3282.25366,0.20648
3284.18213,0.20398
3286.11060,0.20435
3288.03906,0.20779
3289.96753,0.21303
3291.89600,0.21525
3293.82447,0.21460
3295.75294,0.21482
3297.68141,0.21567
3299.60988,0.21468
3301.53834,0.21269
3303.46681,0.21137
3305.39528,0.21139
3307.32375,0.21450
3309.25222,0.21792
3311.18069,0.21566
3313.10916,0.21230
3315.03763,0.21580
3316.96609,0.21924
3318.89456,0.21567
3320.82303,0.21150
3322.75150,0.21132
3324.67997,0.21393
3326.60844,0.21772
3328.53691,0.21881
3330.46537,0.21634
3332.39384,0.21499
3334.32231,0.21488
3336.25078,0.21549
3338.17925,0.22018
3340.10772,0.22472
3342.03619,0.22409
3343.96466,0.22188
3345.89312,0.22003
3347.82159,0.21877
3349.75006,0.22104
3351.67853,0.22485
3353.60700,0.22718
3355.53547,0.22858
3357.46394,0.22739
3359.39240,0.22549
3361.32087,0.22563
3363.24934,0.22435
3365.17781,0.22164
3367.10628,0.22149
3369.03475,0.22294
3370.96322,0.22401
3372.89168,0.22692
3374.82015,0.23074
3376.74862,0.22795
3378.67709,0.21726
3380.60556,0.21067
3382.53403,0.21495
3384.46250,0.21988
3386.39097,0.21853
3388.31943,0.21473
3390.24790,0.21115
3392.17637,0.20972
3394.10484,0.21139
3396.03331,0.21360
3397.96178,0.21366
3399.89025,0.21284
3401.81871,0.21453
3403.74718,0.21655
3405.67565,0.21506
3407.60412,0.21323
3409.53259,0.21500
3411.46106,0.21653
3413.38953,0.21461
3415.31800,0.21279
3417.24646,0.21253
3419.17493,0.21263
3421.10340,0.21261
3423.03187,0.21065
3424.96034,0.20800
3426.88881,0.20854
3428.81728,0.21363
3430.74574,0.21884
3432.67421,0.21611
3434.60268,0.20706
3436.53115,0.20154
3438.45962,0.20190
3440.38809,0.20415
3442.31656,0.20589
3444.24503,0.20680
3446.17349,0.20823
3448.10196,0.20957
3450.03043,0.20766
3451.95890,0.20377
3453.88737,0.20277
3455.81584,0.20571
3457.74431,0.20681
3459.67277,0.20355
3461.60124,0.20135
3463.52971,0.20213
3465.45818,0.20284
3467.38665,0.20303
3469.31512,0.20440
3471.24359,0.20576
3473.17206,0.20383
3475.10052,0.19904
3477.02899,0.19458
3478.95746,0.19381
3480.88593,0.19772
3482.81440,0.20124
3484.74287,0.20039
3486.67134,0.19683
3488.59980,0.19134
3490.52827,0.18559
3492.45674,0.18335
3494.38521,0.18491
3496.31368,0.18696
3498.24215,0.18884
3500.17062,0.19301
3502.09909,0.19608
3504.02755,0.19232
3505.95602,0.18720
3507.88449,0.18616
3509.81296,0.18566
3511.74143,0.18417
3513.66990,0.18289
3515.59837,0.18157
3517.52683,0.18099
3519.45530,0.18190
3521.38377,0.18438
3523.31224,0.18714
3525.24071,0.18834
3527.16918,0.18871
3529.09765,0.18744
3531.02611,0.18266
3532.95458,0.17732
3534.88305,0.17672
3536.81152,0.17895
3538.73999,0.17787
3540.66846,0.17658
3542.59693,0.17962
3544.52540,0.18351
3546.45386,0.18312
3548.38233,0.18010
3550.31080,0.17958
3552.23927,0.17961
3554.16774,0.17513
3556.09621,0.17030
3558.02468,0.16996
3559.95314,0.17272
3561.88161,0.17846
3563.81008,0.18784
3565.73855,0.19673
3567.66702,0.19163
3569.59549,0.17377
3571.52396,0.16311
3573.45243,0.16263
3575.38089,0.16520
3577.30936,0.16599
3579.23783,0.16526
3581.16630,0.16527
3583.09477,0.16732
3585.02324,0.17289
3586.95171,0.17928
3588.88017,0.17498
3590.80864,0.16552
3592.73711,0.16332
3594.66558,0.16692
3596.59405,0.16898
3598.52252,0.16887
3600.45099,0.16716
3602.37946,0.16242
3604.30792,0.15984
3606.23639,0.16446
3608.16486,0.17044
3610.09333,0.17212
3612.02180,0.17364
3613.95027,0.17174
3615.87874,0.16781
3617.80720,0.17076
3619.73567,0.17223
3621.66414,0.16350
3623.59261,0.15909
3625.52108,0.16821
3627.44955,0.18703
3629.37802,0.18938
3631.30649,0.16981
3633.23495,0.15701
3635.16342,0.14942
3637.09189,0.14343
3639.02036,0.14140
3640.94883,0.14276
3642.87730,0.14613
3644.80577,0.15557
3646.73423,0.17722
3648.66270,0.19788
3650.59117,0.18038
3652.51964,0.15445
3654.44811,0.14843
3656.37658,0.15216
3658.30505,0.14967
3660.23352,0.14469
3662.16198,0.14254
3664.09045,0.14169
3666.01892,0.14490
3667.94739,0.15696
3669.87586,0.17048
3671.80433,0.17089
3673.73280,0.17412
3675.66126,0.18173
3677.58973,0.17080
3679.51820,0.15239
3681.44667,0.14074
3683.37514,0.13849
3685.30361,0.14161
3687.23208,0.14769
3689.16055,0.15372
3691.08901,0.14874
3693.01748,0.13802
3694.94595,0.13353
3696.87442,0.13712
3698.80289,0.14451
3700.73136,0.14986
3702.65983,0.14716
3704.58829,0.14093
3706.51676,0.14200
3708.44523,0.15225
3710.37370,0.16469
3712.30217,0.16558
3714.23064,0.15616
3716.15911,0.15005
3718.08757,0.15089
3720.01604,0.15495
3721.94451,0.15707
3723.87298,0.15541
3725.80145,0.14999
3727.72992,0.14449
3729.65839,0.14341
3731.58686,0.14872
3733.51532,0.16514
3735.44379,0.18163
3737.37226,0.17351
3739.30073,0.15814
3741.22920,0.15370
3743.15767,0.15937
3745.08614,0.16696
3747.01460,0.17201
3748.94307,0.18241
3750.87154,0.18752
3752.80001,0.16978
3754.72848,0.15320
3756.65695,0.14805
3758.58542,0.14409
3760.51389,0.13301
3762.44235,0.12667
3764.37082,0.12989
3766.29929,0.13452
3768.22776,0.13779
3770.15623,0.13693
3772.08470,0.12885
3774.01317,0.12449
3775.94163,0.12885
3777.87010,0.13765
3779.79857,0.14095
3781.72704,0.13594
3783.65551,0.13364
3785.58398,0.13392
3787.51245,0.13179
3789.44092,0.13043
3791.36938,0.12962
3793.29785,0.12877
3795.22632,0.13300
3797.15479,0.14215
3799.08326,0.15114
3801.01173,0.15850
3802.94020,0.15311
3804.86866,0.14283
3806.79713,0.13764
3808.72560,0.12975
3810.65407,0.12344
3812.58254,0.12599
3814.51101,0.13548
3816.43948,0.14823
3818.36795,0.15924
3820.29641,0.16356
3822.22488,0.15167
3824.15335,0.13700
3826.08182,0.13036
3828.01029,0.12876
3829.93876,0.13099
3831.86723,0.13472
3833.79569,0.13720
3835.72416,0.14105
3837.65263,0.15009
3839.58110,0.15618
3841.50957,0.15007
3843.43804,0.13781
3845.36651,0.12884
3847.29498,0.12722
3849.22344,0.13342
3851.15191,0.15039
3853.08038,0.16665
3855.00885,0.15141
3856.93732,0.13616
3858.86579,0.13232
3860.79426,0.13269
3862.72272,0.13519
3864.65119,0.13693
3866.57966,0.13827
3868.50813,0.14196
3870.43660,0.13875
3872.36507,0.13073
3874.29354,0.13053
3876.22200,0.13027
3878.15047,0.12980
3880.07894,0.13522
3882.00741,0.14088
3883.93588,0.14430
3885.86435,0.14216
3887.79282,0.13360
3889.72129,0.13244
3891.64975,0.13915
3893.57822,0.13880
3895.50669,0.13261
3897.43516,0.13078
3899.36363,0.13486
3901.29210,0.13996
3903.22057,0.14126
3905.14903,0.13357
3907.07750,0.12021
3909.00597,0.11244
3910.93444,0.11217
3912.86291,0.11269
3914.79138,0.11147
3916.71985,0.11292
3918.64832,0.11795
3920.57678,0.12146
3922.50525,0.12190
3924.43372,0.12082
3926.36219,0.11918
3928.29066,0.11735
3930.21913,0.11527
3932.14760,0.11313
3934.07606,0.11120
3936.00453,0.11121
3937.93300,0.11426
3939.86147,0.11678
3941.78994,0.11567
3943.71841,0.11369
3945.64688,0.11434
3947.57535,0.11753
3949.50381,0.11955
3951.43228,0.11585
3953.36075,0.11001
3955.28922,0.10772
3957.21769,0.10840
3959.14616,0.10903
3961.07463,0.10881
3963.00309,0.10876
3964.93156,0.10905
3966.86003,0.10877
3968.78850,0.10841
3970.71697,0.10911
3972.64544,0.11091
3974.57391,0.11320
3976.50238,0.11251
3978.43084,0.10753
3980.35931,0.10426
3982.28778,0.10513
3984.21625,0.10746
3986.14472,0.10971
3988.07319,0.10962
3990.00166,0.10748
3991.93012,0.10555
3993.85859,0.10515
3995.78706,0.10708
3997.71553,0.10884
3999.64400,0.10784
4001.57247,0.10540
4003.50094,0.10417
4005.42941,0.10354
4007.35787,0.10181
4009.28634,0.10156
4011.21481,0.10361
4013.14328,0.10373
4015.07175,0.10127
4017.00022,0.09920
4018.92869,0.09787
4020.85715,0.09812
4022.78562,0.10074
4024.71409,0.10409
4026.64256,0.10684
4028.57103,0.10524
4030.49950,0.09927
4032.42797,0.09571
4034.35644,0.09715
4036.28490,0.10054
4038.21337,0.10185
4040.14184,0.10040
4042.07031,0.09824
4043.99878,0.09683
4045.92725,0.09746
4047.85572,0.09941
4049.78418,0.10062
4051.71265,0.09849
4053.64112,0.09375
4055.56959,0.09209
4057.49806,0.09409
4059.42653,0.09573
4061.35500,0.09706
4063.28346,0.09913
4065.21193,0.09889
4067.14040,0.09612
4069.06887,0.09521
4070.99734,0.09531
4072.92581,0.09338
4074.85428,0.09066
4076.78275,0.08922
4078.71121,0.09098
4080.63968,0.09463
4082.56815,0.09569
4084.49662,0.09445
4086.42509,0.09333
4088.35356,0.09300
4090.28203,0.09348
4092.21049,0.09181
4094.13896,0.08785
4096.06743,0.08615
4097.99590,0.08773
4099.92437,0.09078
4101.85284,0.09334
4103.78131,0.09488
4105.70978,0.09537
4107.63824,0.09271
4109.56671,0.08955
4111.49518,0.09075
4113.42365,0.09424
4115.35212,0.09562
4117.28059,0.09511
4119.20906,0.09418
4121.13752,0.09161
4123.06599,0.08959
4124.99446,0.08949
4126.92293,0.08657
4128.85140,0.08218
4130.77987,0.08159
4132.70834,0.08434
4134.63681,0.08783
4136.56527,0.08936
4138.49374,0.08876
4140.42221,0.09060
4142.35068,0.09660
4144.27915,0.10056
4146.20762,0.09765
4148.13609,0.09172
4150.06455,0.08620
4151.99302,0.08012
4153.92149,0.07685
4155.84996,0.07867
4157.77843,0.07880
4159.70690,0.07458
4161.63537,0.07510
4163.56384,0.08217
4165.49230,0.08528
4167.42077,0.08264
4169.34924,0.08040
4171.27771,0.07956
4173.20618,0.07743
4175.13465,0.07220
4177.06312,0.06824
4178.99158,0.07046
4180.92005,0.07595
4182.84852,0.08090
4184.77699,0.08395
4186.70546,0.08249
4188.63393,0.07704
4190.56240,0.07309
4192.49087,0.07292
4194.41933,0.07518
4196.34780,0.07966
4198.27627,0.08432
4200.20474,0.08522
4202.13321,0.08270
4204.06168,0.07947
4205.99015,0.07616
4207.91861,0.07235
4209.84708,0.07104
4211.77555,0.07407
4213.70402,0.07594
4215.63249,0.07486
4217.56096,0.07354
4219.48943,0.07432
4221.41789,0.07943
4223.34636,0.08360
4225.27483,0.07989
4227.20330,0.07216
4229.13177,0.06866
4231.06024,0.06809
4232.98871,0.06549
4234.91718,0.06304
4236.84564,0.06236
4238.77411,0.06169
4240.70258,0.06101
4242.63105,0.06216
4244.55952,0.06440
4246.48799,0.06428
4248.41646,0.06311
4250.34492,0.06293
4252.27339,0.06259
4254.20186,0.06345
4256.13033,0.06373
4258.05880,0.06223
4259.98727,0.06139
4261.91574,0.05805
4263.84421,0.05383
4265.77267,0.05440
4267.70114,0.05681
4269.62961,0.05688
4271.55808,0.05446
4273.48655,0.05173
4275.41502,0.05282
4277.34349,0.05673
4279.27195,0.05696
4281.20042,0.05448
4283.12889,0.05499
4285.05736,0.05787
4286.98583,0.05992
4288.91430,0.05628
4290.84277,0.04732
4292.77124,0.04355
4294.69970,0.04613
4296.62817,0.04746
4298.55664,0.04780
4300.48511,0.04804
4302.41358,0.04817
4304.34205,0.05038
4306.27052,0.05268
4308.19898,0.05244
4310.12745,0.05360
4312.05592,0.05874
4313.98439,0.05828
4315.91286,0.04762
4317.84133,0.04090
4319.76980,0.04700
4321.69827,0.05503
4323.62673,0.05484
4325.55520,0.04862
4327.48367,0.04486
4329.41214,0.04970
4331.34061,0.05717
4333.26908,0.05704
4335.19755,0.05106
4337.12601,0.04664
4339.05448,0.04312
4340.98295,0.03867
4342.91142,0.03796
4344.83989,0.04207
4346.76836,0.04611
4348.69683,0.04686
4350.62530,0.04538
4352.55376,0.04423
4354.48223,0.04227
4356.41070,0.03875
4358.33917,0.03928
4360.26764,0.04395
4362.19611,0.04586
4364.12458,0.04599
4366.05304,0.04657
4367.98151,0.04556
4369.90998,0.04308
4371.83845,0.03839
4373.76692,0.03144
4375.69539,0.02643
4377.62386,0.02757
4379.55232,0.03304
4381.48079,0.03651
4383.40926,0.03358
4385.33773,0.02740
4387.26620,0.02658
4389.19467,0.03087
4391.12314,0.03207
4393.05161,0.03133
4394.98007,0.03348
4396.90854,0.03683
4398.83701,0.03722
4400.76548,0.03215
4402.69395,0.02742
4404.62242,0.02958
4406.55089,0.03602
4408.47935,0.03891
4410.40782,0.03389
4412.33629,0.02793
4414.26476,0.02567
4416.19323,0.02313
4418.12170,0.02023
4420.05017,0.02047
4421.97864,0.02194
4423.90710,0.01971
4425.83557,0.01783
4427.76404,0.02449
4429.69251,0.03485
4431.62098,0.03681
4433.54945,0.03209
4435.47792,0.02976
4437.40638,0.02774
4439.33485,0.02010
4441.26332,0.01229
4443.19179,0.01292
4445.12026,0.01717
4447.04873,0.01751
4448.97720,0.01773
4450.90567,0.02249
4452.83413,0.02372
4454.76260,0.01447
4456.69107,0.00727
4458.61954,0.01260
4460.54801,0.01840
4462.47648,0.01261
4464.40495,0.00553
4466.33341,0.00852
4468.26188,0.01522
4470.19035,0.02005
4472.11882,0.02333
4474.04729,0.02144
4475.97576,0.01662
4477.90423,0.01546
4479.83270,0.01751
4481.76116,0.02038
4483.68963,0.01919
4485.61810,0.01217
4487.54657,0.00840
4489.47504,0.01288
4491.40351,0.01846
4493.33198,0.01602
4495.26044,0.00850
4497.18891,0.00701
4499.11738,0.01347
4501.04585,0.01999
4502.97432,0.01910
4504.90279,0.01170
4506.83126,0.00706
4508.75973,0.00837
4510.68819,0.01007
4512.61666,0.00831
4514.54513,0.00395
4516.47360,0.00240
4518.40207,0.00660
4520.33054,0.01020
4522.25901,0.00830
4524.18747,0.00778
4526.11594,0.01059
4528.04441,0.00888
4529.97288,0.00473
4531.90135,0.00482
4533.82982,0.00659
4535.75829,0.00533
4537.68676,0.00187
4539.61522,-0.00046
4541.54369,0.00013
4543.47216,0.00304
4545.40063,0.00553
4547.32910,0.00704
4549.25757,0.00770
4551.18604,0.00733
4553.11450,0.00758
4555.04297,0.00682
4556.97144,0.00476
4558.89991,0.00633
4560.82838,0.00927
4562.75685,0.00953
4564.68532,0.01033
4566.61378,0.00960
4568.54225,0.00411
4570.47072,0.00034
4572.39919,0.00275
4574.32766,0.00586
4576.25613,0.00598
4578.18460,0.00604
4580.11307,0.00717
4582.04153,0.00956
4583.97000,0.01353
4585.89847,0.01771
4587.82694,0.01816
4589.75541,0.01330
4591.68388,0.00918
4593.61235,0.00679
4595.54081,0.00501
4597.46928,0.00774
4599.39775,0.00874
4601.32622,0.00346
4603.25469,0.00149
4605.18316,0.00493
4607.11163,0.00702
4609.04010,0.00674
4610.96856,0.00687
4612.89703,0.00993
4614.82550,0.01059
4616.75397,0.00532
4618.68244,0.00425
4620.61091,0.01046
4622.53938,0.01479
4624.46784,0.01192
4626.39631,0.00437
4628.32478,0.00307
4630.25325,0.01274
4632.18172,0.01739
4634.11019,0.00844
4636.03866,0.00117
4637.96713,0.00274
4639.89559,0.00571
4641.82406,0.00181
4643.75253,-0.00753
4645.68100,-0.00856
4647.60947,-0.00109
4649.53794,0.00071
4651.46641,-0.00092
4653.39487,0.00483
4655.32334,0.01230
4657.25181,0.01254
4659.18028,0.00844
4661.10875,0.00475
4663.03722,0.00293
4664.96569,-0.00076
4666.89416,-0.00610
4668.82262,-0.00517
4670.75109,0.00109
4672.67956,0.00731
4674.60803,0.01135
4676.53650,0.01045
4678.46497,0.00602
4680.39344,0.00342
4682.32190,0.00407
4684.25037,0.00517
4686.17884,0.00492
4688.10731,0.00472
4690.03578,0.00582
4691.96425,0.00499
4693.89272,0.00190
4695.82119,-0.00037
4697.74965,-0.00124
4699.67812,0.00081
4701.60659,0.00705
4703.53506,0.01489
4705.46353,0.01741
4707.39200,0.01413
4709.32047,0.01095
4711.24893,0.00781
4713.17740,0.00475
4715.10587,0.00356
4717.03434,0.00383
4718.96281,0.00458
4720.89128,0.00585
4722.81975,0.00761
4724.74821,0.00506
4726.67668,-0.00134
4728.60515,-0.00269
4730.53362,0.00092
4732.46209,0.00393
4734.39056,0.00514
4736.31903,0.00346
4738.24750,0.00062
4740.17596,0.00309
4742.10443,0.01223
4744.03290,0.01846
4745.96137,0.01320
4747.88984,0.00288
4749.81831,-0.00023
4751.74678,0.00165
4753.67524,-0.00010
4755.60371,-0.00158
4757.53218,0.00230
4759.46065,0.00703
4761.38912,0.01135
4763.31759,0.01652
4765.24606,0.01880
4767.17453,0.01806
4769.10299,0.01569
4771.03146,0.01219
4772.95993,0.00954
4774.88840,0.00636
4776.81687,0.00302
4778.74534,0.00441
4780.67381,0.00946
4782.60227,0.00743
4784.53074,-0.00136
4786.45921,-0.00319
4788.38768,0.00458
4790.31615,0.01342
4792.24462,0.01632
4794.17309,0.01516
4796.10156,0.01409
4798.03002,0.00814
4799.95849,-0.00330
4801.88696,-0.00880
4803.81543,-0.00318
4805.74390,0.00701
4807.67237,0.01411
4809.60084,0.01530
4811.52930,0.01134
4813.45777,0.00203
4815.38624,-0.00353
4817.31471,-0.00110
4819.24318,-0.00246
4821.17165,-0.00447
4823.10012,-0.00138
4825.02859,-0.00098
4826.95705,-0.00220
4828.88552,0.00279
4830.81399,0.00501
4832.74246,-0.00591
4834.67093,-0.01699
4836.59940,-0.01588
4838.52787,-0.01176
4840.45633,-0.01319
4842.38480,-0.01065
4844.31327,-0.00021
4846.24174,0.00321
4848.17021,-0.00118
4850.09868,0.00088
4852.02715,0.01265
4853.95562,0.02335
4855.88408,0.02261
4857.81255,0.01440
4859.74102,0.01060
4861.66949,0.01292
4863.59796,0.01864
4865.52643,0.02133
4867.45490,0.01246
4869.38336,-0.00032
4871.31183,-0.00543
4873.24030,-0.00358
4875.16877,0.00413
4877.09724,0.01292
4879.02571,0.01377
4880.95418,0.00751
4882.88265,0.00426
4884.81111,0.00286
4886.73958,-0.00120
4888.66805,-0.00305
4890.59652,-0.00261
4892.52499,-0.00532
4894.45346,-0.00219
4896.38193,0.00911
4898.31039,0.01308
4900.23886,0.00538
4902.16733,-0.00372
4904.09580,-0.00446
4906.02427,0.00415
4907.95274,0.01320
4909.88121,0.01597
4911.80967,0.01213
4913.73814,0.00466
4915.66661,-0.00069
4917.59508,-0.00004
4919.52355,0.00364
4921.45202,0.00065
4923.38049,-0.00673
4925.30896,0.00068
4927.23742,0.02052
4929.16589,0.02819
4931.09436,0.01651
4933.02283,0.00148
4934.95130,-0.00120
4936.87977,0.00617
4938.80824,0.01219
4940.73670,0.00996
4942.66517,0.00030
4944.59364,-0.01102
4946.52211,-0.01523
4948.45058,-0.01025
4950.37905,-0.00556
4952.30752,-0.00038
4954.23599,0.00762
4956.16445,0.00651
4958.09292,-0.00128
4960.02139,-0.00500
4961.94986,-0.00632
4963.87833,-0.00089
4965.80680,0.01493
4967.73527,0.02237
4969.66373,0.01079
4971.59220,-0.00778
4973.52067,-0.01912
4975.44914,-0.00982
4977.37761,0.01602
4979.30608,0.03350
4981.23455,0.03735
4983.16302,0.04449
4985.09148,0.05297
4987.01995,0.04726
4988.94842,0.03087
4990.87689,0.01583
4992.80536,0.00684
4994.73383,0.00421
4996.66230,0.00721
4998.59076,0.01369
5000.51923,0.01861
5002.44770,0.02062
5004.37617,0.01955
5006.30464,0.01549
5008.23311,0.01204
5010.16158,0.00981
5012.09005,0.00870
5014.01851,0.01030
5015.94698,0.01511
5017.87545,0.02283
5019.80392,0.02511
5021.73239,0.01578
5023.66086,0.00657
5025.58933,0.00456
5027.51779,0.00756
5029.44626,0.01486
5031.37473,0.01525
5033.30320,0.00328
5035.23167,-0.00709
5037.16014,-0.00699
5039.08861,-0.00235
5041.01708,-0.00081
5042.94554,-0.00031
5044.87401,0.00584
5046.80248,0.01391
5048.73095,0.01621
5050.65942,0.01479
5052.58789,0.01359
5054.51636,0.01202
5056.44482,0.00888
5058.37329,0.00931
5060.30176,0.01526
5062.23023,0.01336
5064.15870,0.00058
5066.08717,-0.00618
5068.01564,0.00278
5069.94410,0.01574
5071.87257,0.01664
5073.80104,0.01238
5075.72951,0.01627
5077.65798,0.01879
5079.58645,0.01513
5081.51492,0.02033
5083.44339,0.03200
5085.37185,0.03255
5087.30032,0.02839
5089.22879,0.02910
5091.15726,0.02141
5093.08573,0.00599
5095.01420,-0.00014
5096.94267,0.00957
5098.87113,0.02554
5100.79960,0.03007
5102.72807,0.02411
5104.65654,0.02288
5106.58501,0.02331
5108.51348,0.01753
5110.44195,0.02318
5112.37042,0.04201
5114.29888,0.04570
5116.22735,0.03510
5118.15582,0.02164
5120.08429,0.00762
5122.01276,0.00710
5123.94123,0.01841
5125.86970,0.02434
5127.79816,0.02465
5129.72663,0.02690
5131.65510,0.02339
5133.58357,0.01256
5135.51204,0.01091
5137.44051,0.01949
5139.36898,0.02412
5141.29745,0.01982
5143.22591,0.01594
5145.15438,0.02046
5147.08285,0.02284
5149.01132,0.01726
5150.93979,0.01563
5152.86826,0.02479
5154.79673,0.03818
5156.72519,0.04699
5158.65366,0.05049
5160.58213,0.05267
5162.51060,0.05228
5164.43907,0.04652
5166.36754,0.04107
5168.29601,0.03642
5170.22448,0.02812
5172.15294,0.02503
5174.08141,0.02450
5176.00988,0.01575
5177.93835,0.00856
5179.86682,0.01245
5181.79529,0.02236
5183.72376,0.02395
5185.65222,0.01647
5187.58069,0.02221
5189.50916,0.03912
5191.43763,0.04750
5193.36610,0.04600
5195.29457,0.03750
5197.22304,0.02563
5199.15151,0.02087
5201.07997,0.02453
5203.00844,0.02869
5204.93691,0.03043
5206.86538,0.02739
5208.79385,0.01871
5210.72232,0.01665
5212.65079,0.02699
5214.57925,0.03539
5216.50772,0.02750
5218.43619,0.01554
5220.36466,0.01775
5222.29313,0.02391
5224.22160,0.02508
5226.15007,0.03287
5228.07854,0.05105
5230.00700,0.06284
5231.93547,0.06287
5233.86394,0.06152
5235.79241,0.05485
5237.72088,0.04130
5239.64935,0.03460
5241.57782,0.03220
5243.50628,0.02598
5245.43475,0.02817
5247.36322,0.04017
5249.29169,0.04139
5251.22016,0.03095
5253.14863,0.02708
5255.07710,0.03253
5257.00556,0.02995
5258.93403,0.01505
5260.86250,0.00431
5262.79097,0.00889
5264.71944,0.01962
5266.64791,0.02042
5268.57638,0.02519
5270.50485,0.04394
5272.43331,0.05467
5274.36178,0.05003
5276.29025,0.03918
5278.21872,0.03001
5280.14719,0.03226
5282.07566,0.04620
5284.00413,0.05878
5285.93259,0.05769
5287.86106,0.05042
5289.78953,0.04489
5291.71800,0.03388
5293.64647,0.02362
5295.57494,0.02073
5297.50341,0.02040
5299.43188,0.02444
5301.36034,0.03228
5303.28881,0.04142
5305.21728,0.04824
5307.14575,0.04723
5309.07422,0.04808
5311.00269,0.05051
5312.93116,0.04215
5314.85962,0.03686
5316.78809,0.05264
5318.71656,0.07158
5320.64503,0.07162
5322.57350,0.06084
5324.50197,0.05517
5326.43044,0.05940
5328.35891,0.06364
5330.28737,0.05953
5332.21584,0.05715
5334.14431,0.05931
5336.07278,0.04850
5338.00125,0.02837
5339.92972,0.03098
5341.85819,0.04383
5343.78665,0.04136
5345.71512,0.03932
5347.64359,0.04967
5349.57206,0.06107
5351.50053,0.06680
5353.42900,0.06596
5355.35747,0.06149
5357.28594,0.06198
5359.21440,0.07088
5361.14287,0.07966
5363.07134,0.08050
5364.99981,0.07475
5366.92828,0.06539
5368.85675,0.05339
5370.78522,0.05112
5372.71368,0.06086
5374.64215,0.06705
5376.57062,0.07039
5378.49909,0.07053
5380.42756,0.06810
5382.35603,0.07144
5384.28450,0.07649
5386.21297,0.07682
5388.14143,0.06599
5390.06990,0.04368
5391.99837,0.02205
5393.92684,0.01689
5395.85531,0.02636
5397.78378,0.03587
5399.71225,0.04414
5401.64071,0.05324
5403.56918,0.05761
5405.49765,0.05698
5407.42612,0.06699
5409.35459,0.08194
5411.28306,0.08271
5413.21153,0.07819
5415.13999,0.07169
5417.06846,0.06319
5418.99693,0.06160
5420.92540,0.06090
5422.85387,0.04768
5424.78234,0.02230
5426.71081,0.00748
5428.63928,0.01910
5430.56774,0.03855
5432.49621,0.04920
5434.42468,0.05339
5436.35315,0.05398
5438.28162,0.05100
5440.21009,0.04667
5442.13856,0.05266
5444.06702,0.06976
5445.99549,0.07315
5447.92396,0.05569
5449.85243,0.04580
5451.78090,0.04820
5453.70937,0.05090
5455.63784,0.05763
5457.56631,0.05928
5459.49477,0.04044
5461.42324,0.01791
5463.35171,0.01717
5465.28018,0.04096
5467.20865,0.07571
5469.13712,0.10197
5471.06559,0.10721
5472.99405,0.10175
5474.92252,0.09555
5476.85099,0.08026
5478.77946,0.06159
5480.70793,0.05360
5482.63640,0.04699
5484.56487,0.04300
5486.49334,0.05637
5488.42180,0.07559
5490.35027,0.07953
5492.27874,0.07329
5494.20721,0.07813
5496.13568,0.08750
5498.06415,0.08093
5499.99262,0.06035
5501.92108,0.05107
5503.84955,0.06208
5505.77802,0.06524
5507.70649,0.05092
5509.63496,0.05178
5511.56343,0.07175
5513.49190,0.08528
5515.42037,0.08347
5517.34883,0.08092
5519.27730,0.09457
5521.20577,0.10846
5523.13424,0.10376
5525.06271,0.08593
5526.99118,0.06067
5528.91965,0.04476
5530.84811,0.05068
5532.77658,0.06340
5534.70505,0.07418
5536.63352,0.08223
5538.56199,0.08374
5540.49046,0.08201
5542.41893,0.08041
5544.34740,0.08536
5546.27586,0.10171
5548.20433,0.11144
5550.13280,0.10940
5552.06127,0.10339
5553.98974,0.08788
5555.91821,0.06989
5557.84668,0.06492
5559.77514,0.07567
5561.70361,0.08484
5563.63208,0.07618
5565.56055,0.06375
5567.48902,0.06033
5569.41749,0.05655
5571.34596,0.04889
5573.27443,0.05032
5575.20289,0.06781
5577.13136,0.08172
5579.05983,0.07912
5580.98830,0.07150
5582.91677,0.06857
5584.84524,0.07162
5586.77371,0.08076
5588.70217,0.09296
5590.63064,0.09878
5592.55911,0.09071
5594.48758,0.06952
5596.41605,0.04972
5598.34452,0.05796
5600.27299,0.08001
5602.20145,0.07812
5604.12992,0.06364
5606.05839,0.05764
5607.98686,0.05198
5609.91533,0.04145
5611.84380,0.04021
5613.77227,0.05459
5615.70074,0.06962
5617.62920,0.07850
5619.55767,0.08485
5621.48614,0.08420
5623.41461,0.08526
5625.34308,0.09805
5627.27155,0.09453
5629.20002,0.06533
5631.12848,0.04709
5633.05695,0.05363
5634.98542,0.07200
5636.91389,0.09115
5638.84236,0.09523
5640.77083,0.08048
5642.69930,0.07666
5644.62777,0.09148
5646.55623,0.09003
5648.48470,0.06999
5650.41317,0.06940
5652.34164,0.08355
5654.27011,0.08561
5656.19858,0.08671
5658.12705,0.09207
5660.05551,0.08616
5661.98398,0.07739
5663.91245,0.07459
5665.84092,0.06721
5667.76939,0.06755
5669.69786,0.08433
5671.62633,0.09441
5673.55480,0.09565
5675.48326,0.11162
5677.41173,0.12808
5679.34020,0.11848
5681.26867,0.10216
5683.19714,0.08947
5685.12561,0.07170
5687.05408,0.05059
5688.98254,0.03477
5690.91101,0.03403
5692.83948,0.03587
5694.76795,0.03052
5696.69642,0.03494
5698.62489,0.06274
5700.55336,0.09349
5702.48183,0.09471
5704.41029,0.06651
5706.33876,0.03581
5708.26723,0.02501
5710.19570,0.04043
5712.12417,0.07490
5714.05264,0.10505
5715.98111,0.10684
5717.90957,0.08506
5719.83804,0.07622
5721.76651,0.08481
5723.69498,0.07426
5725.62345,0.05544
5727.55192,0.06003
5729.48039,0.08315
5731.40886,0.10326
5733.33732,0.10252
5735.26579,0.07853
5737.19426,0.05829
5739.12273,0.06361
5741.05120,0.07553
5742.97967,0.08090
5744.90814,0.08341
5746.83660,0.07913
5748.76507,0.07857
5750.69354,0.08236
5752.62201,0.07027
5754.55048,0.05483
5756.47895,0.04653
5758.40742,0.04200
5760.33588,0.05677
5762.26435,0.08960
5764.19282,0.11337
5766.12129,0.11118
5768.04976,0.10186
5769.97823,0.10430
5771.90670,0.10424
5773.83517,0.09740
5775.76363,0.09794
5777.69210,0.10974
5779.62057,0.11872
5781.54904,0.10288
5783.47751,0.07146
5785.40598,0.06976
5787.33445,0.09387
5789.26291,0.08573
5791.19138,0.05551
5793.11985,0.05569
5795.04832,0.07562
5796.97679,0.06981
5798.90526,0.05732
5800.83373,0.08024
5802.76220,0.11019
5804.69066,0.10861
5806.61913,0.09168
5808.54760,0.08925
5810.47607,0.09636
5812.40454,0.09902
5814.33301,0.10013
5816.26148,0.09623
5818.18994,0.08190
5820.11841,0.05925
5822.04688,0.04061
5823.97535,0.04308
5825.90382,0.06348
5827.83229,0.07917
5829.76076,0.07193
5831.68923,0.05131
5833.61769,0.03391
5835.54616,0.02650
5837.47463,0.02691
5839.40310,0.03658
5841.33157,0.06169
5843.26004,0.08523
5845.18851,0.08862
5847.11697,0.07101
5849.04544,0.03948
5850.97391,0.01799
5852.90238,0.02262
5854.83085,0.04749
5856.75932,0.07008
5858.68779,0.07693
5860.61626,0.08389
5862.54472,0.09481
5864.47319,0.09844
5866.40166,0.09964
5868.33013,0.09408
5870.25860,0.07164
5872.18707,0.04604
5874.11554,0.03070
5876.04400,0.04053
5877.97247,0.07173
5879.90094,0.09237
5881.82941,0.09878
5883.75788,0.09941
5885.68635,0.10082
5887.61482,0.11349
5889.54329,0.12486
5891.47175,0.12342
5893.40022,0.11668
5895.32869,0.10352
5897.25716,0.08125
5899.18563,0.05265
5901.11410,0.02024
5903.04257,0.00942
5904.97103,0.04022
5906.89950,0.09208
5908.82797,0.12115
5910.75644,0.10245
5912.68491,0.07543
5914.61338,0.07573
5916.54185,0.09470
5918.47032,0.11941
5920.39878,0.12530
5922.32725,0.10913
5924.25572,0.10186
5926.18419,0.09875
5928.11266,0.08089
5930.04113,0.05378
5931.96960,0.03428
5933.89806,0.03672
5935.82653,0.04602
5937.75500,0.05407
5939.68347,0.05998
5941.61194,0.05279
5943.54041,0.05006
5945.46888,0.05814
5947.39734,0.05562
5949.32581,0.04683
5951.25428,0.05668
5953.18275,0.07977
5955.11122,0.09734
5957.03969,0.09867
5958.96816,0.06494
5960.89663,0.03216
5962.82509,0.05761
5964.75356,0.09756
5966.68203,0.09378
5968.61050,0.06358
5970.53897,0.04475
5972.46744,0.05746
5974.39591,0.09159
5976.32437,0.09661
5978.25284,0.06127
5980.18131,0.04058
5982.10978,0.05451
5984.03825,0.05911
5985.96672,0.04560
5987.89519,0.03769
5989.82366,0.04107
5991.75212,0.05943
5993.68059,0.08166
5995.60906,0.09145
5997.53753,0.08777
5999.46600,0.07238
6001.39447,0.05302
6003.32294,0.05092
6005.25140,0.07422
6007.17987,0.09965
6009.10834,0.10317
6011.03681,0.09223
6012.96528,0.09590
6014.89375,0.11620
6016.82222,0.13503
6018.75069,0.14049
6020.67915,0.11799
6022.60762,0.08233
6024.53609,0.05698
6026.46456,0.03039
6028.39303,0.01796
6030.32150,0.03404
6032.24997,0.02648
6034.17843,-0.00898
6036.10690,-0.01342
6038.03537,0.00574
6039.96384,0.00595
6041.89231,0.02415
6043.82078,0.09065
6045.74925,0.12941
6047.67772,0.10396
6049.60618,0.08221
6051.53465,0.09142
6053.46312,0.09731
6055.39159,0.09285
6057.32006,0.07227
6059.24853,0.05267
6061.17700,0.06379
6063.10546,0.07657
6065.03393,0.07318
6066.96240,0.07767
6068.89087,0.08581
6070.81934,0.07671
6072.74781,0.05796
6074.67628,0.05535
6076.60475,0.06078
6078.53321,0.05046
6080.46168,0.04088
6082.39015,0.04532
6084.31862,0.04373
6086.24709,0.03539
6088.17556,0.04275
6090.10403,0.05843
6092.03249,0.05732
6093.96096,0.05693
6095.88943,0.08332
6097.81790,0.10724
6099.74637,0.10930
6101.67484,0.10590
6103.60331,0.10974
6105.53177,0.12653
6107.46024,0.14288
6109.38871,0.13729
6111.31718,0.10891
6113.24565,0.08378
6115.17412,0.08488
6117.10259,0.09067
6119.03106,0.08124
6120.95952,0.08119
6122.88799,0.10908
6124.81646,0.15099
6126.74493,0.16275
6128.67340,0.12396
6130.60187,0.08264
6132.53034,0.06392
6134.45880,0.05625
6136.38727,0.07370
6138.31574,0.09750
6140.24421,0.09035
6142.17268,0.09174
6144.10115,0.12244
6146.02962,0.13632
6147.95809,0.12590
6149.88655,0.11132
6151.81502,0.09896
6153.74349,0.08278
6155.67196,0.08251
6157.60043,0.10914
6159.52890,0.10788
6161.45737,0.06110
6163.38583,0.03939
6165.31430,0.05650
6167.24277,0.07086
6169.17124,0.08208
6171.09971,0.09574
6173.02818,0.10952
6174.95665,0.11724
6176.88512,0.12234
6178.81358,0.13178
6180.74205,0.11677
6182.67052,0.08690
6184.59899,0.09691
6186.52746,0.14326
6188.45593,0.17368
6190.38440,0.16850
6192.31286,0.13783
6194.24133,0.08854
6196.16980,0.05795
6198.09827,0.07032
6200.02674,0.10012
6201.95521,0.10954
6203.88368,0.08800
6205.81215,0.07552
6207.74061,0.08152
6209.66908,0.09587
6211.59755,0.12706
6213.52602,0.13346
6215.45449,0.10901
6217.38296,0.09056
6219.31143,0.08532
6221.23989,0.09958
6223.16836,0.12278
6225.09683,0.12547
6227.02530,0.10318
6228.95377,0.07175
6230.88224,0.05718
6232.81071,0.06962
6234.73918,0.07731
6236.66764,0.05729
6238.59611,0.04612
6240.52458,0.07250
6242.45305,0.09524
6244.38152,0.08706
6246.30999,0.06245
6248.23846,0.03824
6250.16692,0.03811
6252.09539,0.04060
6254.02386,0.02240
6255.95233,0.02321
6257.88080,0.04941
6259.80927,0.07333
6261.73774,0.09510
6263.66621,0.10547
6265.59467,0.09139
6267.52314,0.08208
6269.45161,0.09739
6271.38008,0.10129
6273.30855,0.08113
6275.23702,0.07910
6277.16549,0.08877
6279.09395,0.07954
6281.02242,0.07950
6282.95089,0.09482
6284.87936,0.09414
6286.80783,0.08636
6288.73630,0.08952
6290.66477,0.09913
6292.59323,0.11431
6294.52170,0.10684
6296.45017,0.07622
6298.37864,0.06794
6300.30711,0.06289
6302.23558,0.02740
6304.16405,0.00725
6306.09252,0.01238
6308.02098,-0.00038
6309.94945,-0.00300
6311.87792,0.02292
6313.80639,0.02873
6315.73486,0.00651
6317.66333,-0.02300
6319.59180,0.00364
6321.52026,0.09512
6323.44873,0.11792
6325.37720,0.05870
6327.30567,0.02945
6329.23414,0.05575
6331.16261,0.08382
6333.09108,0.08867
6335.01955,0.09296
6336.94801,0.08465
6338.87648,0.04923
6340.80495,0.02681
6342.73342,0.03388
6344.66189,0.04897
6346.59036,0.06116
6348.51883,0.08935
6350.44729,0.15148
6352.37576,0.18326
6354.30423,0.13330
6356.23270,0.07248
6358.16117,0.06800
6360.08964,0.09029
6362.01811,0.10625
6363.94658,0.12303
6365.87504,0.12195
6367.80351,0.09072
6369.73198,0.05691
6371.66045,0.06253
6373.58892,0.11174
6375.51739,0.14161
6377.44586,0.11259
6379.37432,0.06800
6381.30279,0.07164
6383.23126,0.10258
6385.15973,0.08737
6387.08820,0.04749
6389.01667,0.04160
6390.94514,0.06661
6392.87361,0.06685
6394.80207,0.03129
6396.73054,0.02239
6398.65901,0.04940
6400.58748,0.06991
6402.51595,0.05772
6404.44442,0.02391
6406.37289,0.01252
6408.30135,0.05189
6410.22982,0.08674
6412.15829,0.08439
6414.08676,0.08562
6416.01523,0.10093
6417.94370,0.10767
6419.87217,0.08943
6421.80064,0.05801
6423.72910,0.03145
6425.65757,0.02248
6427.58604,0.03120
6429.51451,0.03280
6431.44298,0.03200
6433.37145,0.06749
6435.29992,0.12490
6437.22838,0.15462
6439.15685,0.14855
6441.08532,0.13649
6443.01379,0.11874
6444.94226,0.08722
6446.87073,0.04734
6448.79920,0.01828
6450.72766,0.02130
6452.65613,0.04452
6454.58460,0.06437
6456.51307,0.07100
6458.44154,0.07184
6460.37001,0.07356
6462.29848,0.06598
6464.22695,0.05472
6466.15541,0.04017
6468.08388,-0.00051
6470.01235,-0.05466
6471.94082,-0.05868
6473.86929,-0.00176
6475.79776,0.04139
6477.72623,0.03551
6479.65469,0.02987
6481.58316,0.03653
6483.51163,0.02032
6485.44010,0.00164
6487.36857,0.01326
6489.29704,0.02826
6491.22551,0.03498
6493.15398,0.04889
6495.08244,0.06567
6497.01091,0.08010
6498.93938,0.06072
6500.86785,0.01603
6502.79632,0.00048
6504.72479,0.01602
6506.65326,0.05579
6508.58172,0.09117
6510.51019,0.07710
6512.43866,0.06106
6514.36713,0.08375
6516.29560,0.08558
6518.22407,0.05856
6520.15254,0.04926
6522.08101,0.07061
6524.00947,0.09377
6525.93794,0.07714
6527.86641,0.04993
6529.79488,0.04382
6531.72335,0.05758
6533.65182,0.07454
6535.58029,0.06680
6537.50875,0.04985
6539.43722,0.03394
6541.36569,0.00415
6543.29416,-0.03016
6545.22263,-0.03058
6547.15110,0.01457
6549.07957,0.06816
6551.00804,0.09349
6552.93650,0.08803
6554.86497,0.04442
6556.79344,-0.01241
6558.72191,-0.01436
6560.65038,0.02930
6562.57885,0.04576
6564.50732,0.02413
6566.43578,0.01557
6568.36425,0.02761
6570.29272,0.03453
6572.22119,0.03874
6574.14966,0.02826
6576.07813,0.02669
6578.00660,0.05128
6579.93507,0.04704
6581.86353,0.02648
6583.79200,0.02578
6585.72047,0.03055
6587.64894,0.06753
6589.57741,0.09616
6591.50588,0.04353
6593.43435,-0.02107
6595.36281,-0.01806
6597.29128,0.02318
6599.21975,0.07555
6601.14822,0.08673
6603.07669,0.03322
6605.00516,-0.02358
6606.93363,-0.02992
6608.86210,0.04439
6610.79056,0.15850
6612.71903,0.21266
6614.64750,0.17509
6616.57597,0.11638
6618.50444,0.08463
6620.43291,0.08867
6622.36138,0.13211
6624.28984,0.15270
6626.21831,0.09886
6628.14678,0.02700
6630.07525,0.02316
6632.00372,0.06284
6633.93219,0.05625
6635.86066,0.03144
6637.78912,0.07667
6639.71759,0.15150
6641.64606,0.16837
6643.57453,0.09150
6645.50300,-0.00498
6647.43147,-0.01432
6649.35994,0.04741
6651.28841,0.10508
6653.21687,0.09044
6655.14534,0.02295
6657.07381,0.02615
6659.00228,0.09200
6660.93075,0.11653
6662.85922,0.12966
6664.78769,0.14986
6666.71615,0.13051
6668.64462,0.09322
6670.57309,0.08183
6672.50156,0.07143
6674.43003,0.05075
6676.35850,0.03152
6678.28697,0.03055
6680.21544,0.08077
6682.14390,0.14137
6684.07237,0.13274
6686.00084,0.06787
6687.92931,0.02722
6689.85778,0.06455
6691.78625,0.14371
6693.71472,0.19679
6695.64318,0.19981
6697.57165,0.16956
6699.50012,0.12639
6701.42859,0.06774
6703.35706,0.02300
6705.28553,0.05759
6707.21400,0.12075
6709.14247,0.07480
6711.07093,-0.01666
6712.99940,-0.03656
6714.92787,0.00619
6716.85634,0.05672
6718.78481,0.08811
6720.71328,0.10492
6722.64175,0.08742
6724.57021,0.05727
6726.49868,0.02805
6728.42715,-0.02276
6730.35562,-0.02934
6732.28409,0.02753
6734.21256,0.07491
6736.14103,0.10250
6738.06950,0.10624
6739.99796,0.06308
6741.92643,0.01802
6743.85490,0.03876
6745.78337,0.08912
6747.71184,0.10415
6749.64031,0.08004
6751.56878,0.05452
6753.49724,0.03261
6755.42571,0.00451
6757.35418,-0.02110
6759.28265,-0.01871
6761.21112,0.02087
6763.13959,0.04583
6765.06806,0.02663
6766.99653,-0.02206
6768.92499,-0.05096
6770.85346,-0.02714
6772.78193,0.00927
6774.71040,0.01633
6776.63887,0.01194
6778.56734,0.04324
6780.49581,0.09194
6782.42427,0.13221
6784.35274,0.17255
6786.28121,0.16237
6788.20968,0.09860
6790.13815,0.07016
6792.06662,0.07816
6793.99509,0.04522
6795.92355,0.00795
6797.85202,0.03211
6799.78049,0.06135
6801.70896,0.03450
6803.63743,-0.00401
6805.56590,0.00661
6807.49437,0.05920
6809.42284,0.08935
6811.35130,0.05423
6813.27977,-0.01442
6815.20824,-0.07489
6817.13671,-0.09074
6819.06518,-0.08609
6820.99365,-0.09089
6822.92212,-0.03752
6824.85058,0.04431
6826.77905,0.09461
6828.70752,0.14468
6830.63599,0.14843
6832.56446,0.09214
6834.49293,0.04569
6836.42140,0.05743
6838.34987,0.08153
6840.27833,0.04400
6842.20680,-0.01654
6844.13527,-0.06077
6846.06374,-0.06087
6847.99221,0.03233
6849.92068,0.12974
6851.84915,0.13433
6853.77761,0.11513
6855.70608,0.09909
6857.63455,0.06564
6859.56302,0.02542
6861.49149,-0.01241
6863.41996,-0.03191
6865.34843,0.00372
6867.27690,0.06837
6869.20536,0.08678
6871.13383,0.09061
6873.06230,0.10114
6874.99077,0.03763
6876.91924,-0.06430
6878.84771,-0.08729
6880.77618,-0.02746
6882.70464,0.01328
6884.63311,-0.00576
6886.56158,-0.05492
6888.49005,-0.06133
6890.41852,-0.00429
6892.34699,0.03911
6894.27546,0.04623
6896.20393,0.06835
6898.13239,0.07083
6900.06086,0.00661
6901.98933,-0.05302
6903.91780,-0.06023
6905.84627,-0.03043
6907.77474,0.03003
6909.70321,0.09741
6911.63167,0.11695
6913.56014,0.05680
6915.48861,-0.00162
6917.41708,0.03257
6919.34555,0.08029
6921.27402,0.05661
6923.20249,0.03952
6925.13096,0.06560
6927.05942,0.09843
6928.98789,0.09962
6930.91636,0.07061
6932.84483,0.05333
6934.77330,0.05262
6936.70177,0.03258
6938.63024,-0.00239
6940.55870,-0.00325
6942.48717,0.00557
6944.41564,-0.00725
6946.34411,0.03294
6948.27258,0.10433
6950.20105,0.10194
6952.12952,0.07686
6954.05799,0.10019
6955.98645,0.06633
6957.91492,-0.05622
6959.84339,-0.10543
6961.77186,-0.04435
6963.70033,0.01569
6965.62880,0.02947
6967.55727,0.04299
6969.48573,0.06066
6971.41420,0.01895
6973.34267,-0.02617
6975.27114,-0.01636
6977.19961,-0.01500
6979.12808,-0.01136
6981.05655,-0.00116
6982.98501,-0.03103
6984.91348,-0.05264
6986.84195,0.00035
6988.77042,0.06785
6990.69889,0.11371
6992.62736,0.17218
6994.55583,0.18429
6996.48430,0.09451
6998.41276,0.02260
7000.34123,0.06697
7002.26970,0.12170
7004.19817,0.09503
7006.12664,0.04847
7008.05511,0.08405
7009.98358,0.13818
7011.91204,0.08786
7013.84051,-0.05138
7015.76898,-0.08354
7017.69745,0.03804
7019.62592,0.13278
7021.55439,0.13187
7023.48286,0.10193
7025.41133,0.05157
7027.33979,0.00265
7029.26826,-0.00289
7031.19673,0.01947
7033.12520,0.04055
7035.05367,0.05873
7036.98214,0.03450
7038.91061,-0.05621
7040.83907,-0.14630
7042.76754,-0.13219
7044.69601,-0.01588
7046.62448,0.04478
7048.55295,0.06266
7050.48142,0.13868
7052.40989,0.16651
7054.33836,0.09927
7056.26682,0.07474
7058.19529,0.09830
7060.12376,0.06501
7062.05223,0.00530
7063.98070,-0.00892
7065.90917,0.04098
7067.83764,0.09064
7069.76610,0.07104
7071.69457,0.01613
7073.62304,-0.00731
7075.55151,0.00873
7077.47998,0.07103
7079.40845,0.16963
7081.33692,0.19180
7083.26539,0.07953
7085.19385,-0.03294
7087.12232,-0.10056
7089.05079,-0.10865
7090.97926,-0.06234
7092.90773,-0.04006
7094.83620,-0.02974
7096.76467,0.02467
7098.69313,0.08723
7100.62160,0.11046
7102.55007,0.04909
7104.47854,-0.05513
7106.40701,-0.02133
7108.33548,0.08266
7110.26395,0.09105
7112.19242,0.05914
7114.12088,0.03796
7116.04935,0.07137
7117.97782,0.20329
7119.90629,0.24406
7121.83476,0.11273
7123.76323,-0.00033
7125.69170,-0.03284
7127.62016,-0.01160
7129.54863,0.07986
7131.47710,0.14745
7133.40557,0.12291
7135.33404,0.10455
7137.26251,0.10421
7139.19098,0.04974
7141.11944,0.02336
7143.04791,0.09921
7144.97638,0.18039
7146.90485,0.19475
7148.83332,0.13529
7150.76179,0.05626
7152.69026,0.06069
7154.61873,0.09136
7156.54719,0.07880
7158.47566,0.12384
7160.40413,0.18541
7162.33260,0.16864
7164.26107,0.14310
7166.18954,0.17226
7168.11801,0.22890
7170.04647,0.25993
7171.97494,0.20124
7173.90341,0.09569
7175.83188,0.01069
7177.76035,-0.01075
7179.68882,0.08513
7181.61729,0.23192
7183.54576,0.21813
7185.47422,0.11890
7187.40269,0.15466
7189.33116,0.24672
7191.25963,0.23372
7193.18810,0.09104
7195.11657,-0.03652
7197.04504,-0.05677
7198.97350,0.01736
7200.90197,0.11777
7202.83044,0.16637
7204.75891,0.10686
7206.68738,0.00509
7208.61585,-0.03841
7210.54432,-0.00565
7212.47279,0.04332
7214.40125,0.03509
7216.32972,0.03003
7218.25819,0.08679
7220.18666,0.13755
7222.11513,0.20771
7224.04360,0.27601
7225.97207,0.23534
7227.90053,0.06760
7229.82900,-0.05808
7231.75747,0.01697
7233.68594,0.08409
7235.61441,0.04769
7237.54288,0.06086
7239.47135,0.12121
7241.39982,0.16143
7243.32828,0.18008
7245.25675,0.18028
7247.18522,0.15239
7249.11369,0.11510
7251.04216,0.14304
7252.97063,0.18300
7254.89910,0.08101
7256.82756,0.00991
7258.75603,0.07815
7260.68450,0.16005
7262.61297,0.13298
7264.54144,0.05366
7266.46991,-0.01151
7268.39838,0.00013
7270.32685,0.08145
7272.25531,0.12325
7274.18378,0.07921
7276.11225,0.04676
7278.04072,0.03478
7279.96919,0.03240
7281.89766,0.01664
7283.82613,-0.01629
7285.75459,0.02839
7287.68306,0.11056
7289.61153,0.09300
7291.54000,-0.00578
7293.46847,-0.08933
7295.39694,-0.11847
7297.32541,-0.05461
7299.25387,0.04379
7301.18234,0.06251
7303.11081,-0.03819
7305.03928,-0.15574
7306.96775,-0.16743
7308.89622,-0.03305
7310.82469,0.14563
7312.75316,0.16718
7314.68162,0.05334
7316.61009,0.00095
7318.53856,0.05327
7320.46703,0.05789
7322.39550,0.02170
7324.32397,-0.03967
7326.25244,-0.14185
7328.18090,-0.18512
7330.10937,-0.07685
7332.03784,0.04440
7333.96631,0.10581
7335.89478,0.13833
7337.82325,0.12068
7339.75172,0.01500
7341.68019,0.01444
7343.60865,0.16772
7345.53712,0.20897
7347.46559,0.10931
7349.39406,0.10527
7351.32253,0.16789
7353.25100,0.19632
7355.17947,0.23055
7357.10793,0.30088
7359.03640,0.37906
7360.96487,0.35173
7362.89334,0.23970
7364.82181,0.09555
7366.75028,-0.04650
7368.67875,-0.08521
7370.60722,-0.02194
7372.53568,0.03741
7374.46415,0.03241
7376.39262,0.03100
7378.32109,0.07281
7380.24956,0.04971
7382.17803,0.02472
7384.10650,0.10205
7386.03496,0.16232
7387.96343,0.15002
7389.89190,0.15913
7391.82037,0.13035
7393.74884,0.01091
7395.67731,-0.02293
7397.60578,0.06216
7399.53425,0.09727
7401.46271,0.11759
7403.39118,0.16835
7405.31965,0.15983
7407.24812,0.08335
7409.17659,-0.00260
7411.10506,-0.02491
7413.03353,0.02628
7414.96199,0.04956
7416.89046,0.02278
7418.81893,0.04796
7420.74740,0.09639
7422.67587,0.07418
7424.60434,0.06770
7426.53281,0.11037
7428.46128,0.10944
7430.38974,-0.01013
7432.31821,-0.09197
7434.24668,-0.04857
7436.17515,0.04221
7438.10362,0.12369
7440.03209,0.15409
7441.96056,0.08771
7443.88902,-0.01473
7445.81749,-0.02313
7447.74596,0.00465
7449.67443,-0.05992
7451.60290,-0.14817
7453.53137,-0.12002
7455.45984,-0.04837
7457.38831,0.01704
7459.31677,0.14005
7461.24524,0.27376
7463.17371,0.33011
7465.10218,0.31078
7467.03065,0.20545
7468.95912,0.10434
7470.88759,0.08254
7472.81605,0.11711
7474.74452,0.11689
7476.67299,0.09733
7478.60146,0.08325
7480.52993,-0.01813
7482.45840,-0.16578
7484.38687,-0.25362
7486.31533,-0.27865
7488.24380,-0.16276
7490.17227,0.08578
7492.10074,0.25427
7494.02921,0.25919
7495.95768,0.22591
7497.88615,0.20454
