399.19301,0.86273
401.12148,0.44638
403.04995,0.23591
404.97842,0.21503
406.90689,0.11330
408.83536,-0.04415
410.76382,-0.02802
412.69229,0.14699
414.62076,0.22491
416.54923,0.18485
418.47770,0.12887
420.40617,0.11128
422.33464,0.08332
424.26311,0.07707
426.19157,0.13329
428.12004,0.14986
430.04851,0.06175
431.97698,0.00882
433.90545,0.09137
435.83392,0.15611
437.76239,0.13954
439.69085,0.10737
441.61932,0.09116
443.54779,0.05088
445.47626,0.01389
447.40473,0.05590
449.33320,0.11564
451.26167,0.10757
453.19013,0.05456
455.11860,-0.00161
457.04707,-0.01528
458.97554,0.02674
460.90401,0.05939
462.83248,0.06680
464.76095,0.05889
466.68942,0.01476
468.61788,-0.02416
470.54635,0.02967
472.47482,0.15221
474.40329,0.14813
476.33176,0.02304
478.26023,-0.01948
480.18870,0.02852
482.11716,0.09881
484.04563,0.12788
485.97410,0.12143
487.90257,0.10925
489.83104,0.09248
491.75951,0.06132
493.68798,0.04750
495.61645,0.05697
497.54491,0.03669
499.47338,-0.01227
501.40185,-0.00972
503.33032,0.06849
505.25879,0.12169
507.18726,0.11015
509.11573,0.10169
511.04419,0.11694
512.97266,0.10493
514.90113,0.06293
516.82960,0.05580
518.75807,0.08706
520.68654,0.09601
522.61501,0.07899
524.54348,0.07113
526.47194,0.08434
528.40041,0.07373
530.32888,0.03882
532.25735,0.04601
534.18582,0.10516
536.11429,0.15748
538.04276,0.16768
539.97122,0.14677
541.89969,0.12115
543.82816,0.10349
545.75663,0.09512
547.68510,0.10108
549.61357,0.11402
551.54204,0.16979
553.47051,0.25091
555.39897,0.23181
557.32744,0.12829
559.25591,0.07530
561.18438,0.09280
563.11285,0.11553
565.04132,0.11062
566.96979,0.11152
568.89825,0.12462
570.82672,0.10671
572.75519,0.06549
574.68366,0.05488
576.61213,0.08582
578.54060,0.10978
580.46907,0.10313
582.39754,0.08984
584.32600,0.09172
586.25447,0.09220
588.18294,0.07448
590.11141,0.06770
592.03988,0.09798
593.96835,0.12895
595.89682,0.12777
597.82528,0.11633
599.75375,0.11391
601.68222,0.10458
603.61069,0.07872
605.53916,0.06591
607.46763,0.08584
609.39610,0.10880
611.32456,0.10698
613.25303,0.10324
615.18150,0.11764
617.10997,0.12146
619.03844,0.10197
620.96691,0.09116
622.89538,0.10172
624.82385,0.11014
626.75231,0.10608
628.68078,0.10295
630.60925,0.10536
632.53772,0.10322
634.46619,0.09489
636.39466,0.09273
638.32313,0.09858
640.25159,0.09975
642.18006,0.09383
644.10853,0.09657
646.03700,0.11430
647.96547,0.12560
649.89394,0.11602
651.82241,0.11218
653.75088,0.12238
655.67934,0.11514
657.60781,0.09366
659.53628,0.09025
661.46475,0.09909
663.39322,0.09750
665.32169,0.09208
667.25016,0.10283
669.17862,0.11983
671.10709,0.11177
673.03556,0.10317
674.96403,0.11141
676.89250,0.12850
678.82097,0.13278
680.74944,0.12299
682.67791,0.11646
684.60637,0.11505
686.53484,0.11011
688.46331,0.10268
690.39178,0.09660
692.32025,0.09686
694.24872,0.10758
696.17719,0.11803
698.10565,0.11790
700.03412,0.11239
701.96259,0.10697
703.89106,0.10490
705.81953,0.11122
707.74800,0.12202
709.67647,0.12690
711.60494,0.12567
713.53340,0.12380
715.46187,0.12205
717.39034,0.12171
719.31881,0.12166
721.24728,0.11735
723.17575,0.11242
725.10422,0.11214
727.03268,0.11709
728.96115,0.12611
730.88962,0.12926
732.81809,0.11903
734.74656,0.10605
736.67503,0.10438
738.60350,0.11496
740.53197,0.12811
742.46043,0.13330
744.38890,0.12859
746.31737,0.12240
748.24584,0.12354
750.17431,0.12749
752.10278,0.12355
754.03125,0.11647
755.95971,0.11850
757.88818,0.12513
759.81665,0.12257
761.74512,0.10806
763.67359,0.09670
765.60206,0.10116
767.53053,0.10713
769.45900,0.10464
771.38746,0.10760
773.31593,0.11668
775.24440,0.12042
777.17287,0.12068
779.10134,0.12460
781.02981,0.13162
782.95828,0.13409
784.88674,0.13301
786.81521,0.13536
788.74368,0.13334
790.67215,0.12161
792.60062,0.11474
794.52909,0.12094
796.45756,0.12669
798.38602,0.12354
800.31449,0.11598
802.24296,0.11088
804.17143,0.11309
806.09990,0.11486
808.02837,0.11156
809.95684,0.11422
811.88531,0.12204
813.81377,0.12214
815.74224,0.11907
817.67071,0.12418
819.59918,0.13044
821.52765,0.12815
823.45612,0.12159
825.38459,0.11902
827.31305,0.12134
829.24152,0.12152
831.16999,0.11837
833.09846,0.12148
835.02693,0.12978
836.95540,0.13003
838.88387,0.12388
840.81234,0.12322
842.74080,0.12905
844.66927,0.13325
846.59774,0.13225
848.52621,0.13031
850.45468,0.12846
852.38315,0.12480
854.31162,0.12142
856.24008,0.12166
858.16855,0.12671
860.09702,0.13356
862.02549,0.13746
863.95396,0.13407
865.88243,0.12867
867.81090,0.13805
869.73937,0.15715
871.66783,0.15651
873.59630,0.13537
875.52477,0.12198
877.45324,0.12272
879.38171,0.12327
881.31018,0.12079
883.23865,0.12511
885.16711,0.13507
887.09558,0.13623
889.02405,0.12873
890.95252,0.12383
892.88099,0.12263
894.80946,0.12056
896.73793,0.12070
898.66640,0.12872
900.59486,0.13787
902.52333,0.13832
904.45180,0.13218
906.38027,0.12781
908.30874,0.12710
910.23721,0.12726
912.16568,0.12904
914.09414,0.13302
916.02261,0.13510
917.95108,0.13086
919.87955,0.12567
921.80802,0.13022
923.73649,0.13698
925.66496,0.12959
927.59343,0.11798
929.52189,0.12014
931.45036,0.12818
933.37883,0.13149
935.30730,0.13219
937.23577,0.13383
939.16424,0.13764
941.09271,0.13794
943.02117,0.13462
944.94964,0.13586
946.87811,0.13545
948.80658,0.12951
950.73505,0.13034
952.66352,0.13906
954.59199,0.14550
956.52045,0.14294
958.44892,0.13329
960.37739,0.12751
962.30586,0.12937
964.23433,0.12988
966.16280,0.12623
968.09127,0.12774
970.01974,0.13472
971.94820,0.13655
973.87667,0.13395
975.80514,0.13403
977.73361,0.13531
979.66208,0.13538
981.59055,0.13595
983.51902,0.13617
985.44748,0.13510
987.37595,0.13790
989.30442,0.14405
991.23289,0.14450
993.16136,0.13959
995.08983,0.13814
997.01830,0.14254
998.94677,0.14628
1000.87523,0.14307
1002.80370,0.13684
1004.73217,0.13657
1006.66064,0.14109
1008.58911,0.14232
1010.51758,0.14207
1012.44605,0.14430
1014.37451,0.14431
1016.30298,0.14292
1018.23145,0.14511
1020.15992,0.14741
1022.08839,0.14383
1024.01686,0.13958
1025.94533,0.15101
1027.87380,0.17280
1029.80226,0.17162
1031.73073,0.14561
1033.65920,0.12872
1035.58767,0.12947
1037.51614,0.13210
1039.44461,0.13285
1041.37308,0.13711
1043.30154,0.14039
1045.23001,0.13820
1047.15848,0.13874
1049.08695,0.14632
1051.01542,0.15019
1052.94389,0.14348
1054.87236,0.13950
1056.80083,0.14595
1058.72929,0.14872
1060.65776,0.14169
1062.58623,0.13675
1064.51470,0.14082
1066.44317,0.14479
1068.37164,0.14015
1070.30011,0.13597
1072.22857,0.14158
1074.15704,0.14894
1076.08551,0.14788
1078.01398,0.13917
1079.94245,0.13456
1081.87092,0.14022
1083.79939,0.14305
1085.72786,0.13710
1087.65632,0.13672
1089.58479,0.14578
1091.51326,0.15231
1093.44173,0.15343
1095.37020,0.15425
1097.29867,0.15462
1099.22714,0.15342
1101.15560,0.15318
1103.08407,0.15358
1105.01254,0.15002
1106.94101,0.14386
1108.86948,0.13938
1110.79795,0.13879
1112.72642,0.14363
1114.65489,0.14828
1116.58335,0.14698
1118.51182,0.14320
1120.44029,0.14109
1122.36876,0.14176
1124.29723,0.14241
1126.22570,0.13902
1128.15417,0.13628
1130.08263,0.13660
1132.01110,0.13514
1133.93957,0.13194
1135.86804,0.13050
1137.79651,0.13590
1139.72498,0.14667
1141.65345,0.15102
1143.58191,0.14620
1145.51038,0.14501
1147.43885,0.15236
1149.36732,0.15780
1151.29579,0.15693
1153.22426,0.15459
1155.15273,0.15241
1157.08120,0.15043
1159.00966,0.15129
1160.93813,0.15366
1162.86660,0.15484
1164.79507,0.15483
1166.72354,0.15124
1168.65201,0.14695
1170.58048,0.14613
1172.50894,0.14521
1174.43741,0.14342
1176.36588,0.14488
1178.29435,0.14973
1180.22282,0.15301
1182.15129,0.15313
1184.07976,0.15080
1186.00823,0.14644
1187.93669,0.14540
1189.86516,0.14777
1191.79363,0.14768
1193.72210,0.14620
1195.65057,0.14540
1197.57904,0.14517
1199.50751,0.14793
1201.43597,0.15299
1203.36444,0.15459
1205.29291,0.15151
1207.22138,0.15114
1209.14985,0.15655
1211.07832,0.16037
1213.00679,0.15686
1214.93526,0.15012
1216.86372,0.14654
1218.79219,0.14566
1220.72066,0.14716
1222.64913,0.15161
1224.57760,0.15394
1226.50607,0.15144
1228.43454,0.14852
1230.36300,0.14925
1232.29147,0.15154
1234.21994,0.15275
1236.14841,0.15341
1238.07688,0.15393
1240.00535,0.15397
1241.93382,0.15242
1243.86229,0.15068
1245.79075,0.15101
1247.71922,0.15259
1249.64769,0.15287
1251.57616,0.15015
1253.50463,0.14824
1255.43310,0.15077
1257.36157,0.15335
1259.29003,0.15168
1261.21850,0.14889
1263.14697,0.14980
1265.07544,0.15428
1267.00391,0.15739
1268.93238,0.15667
1270.86085,0.15594
1272.78932,0.15593
1274.71778,0.15523
1276.64625,0.15659
1278.57472,0.15799
1280.50319,0.15510
1282.43166,0.15365
1284.36013,0.15691
1286.28860,0.15818
1288.21706,0.15776
1290.14553,0.16005
1292.07400,0.16069
1294.00247,0.15635
1295.93094,0.15159
1297.85941,0.15027
1299.78788,0.14825
1301.71634,0.13881
1303.64481,0.12734
1305.57328,0.12952
1307.50175,0.14468
1309.43022,0.15613
1311.35869,0.16138
1313.28716,0.16551
1315.21563,0.16628
1317.14409,0.16587
1319.07256,0.16687
1321.00103,0.16610
1322.92950,0.16352
1324.85797,0.16000
1326.78644,0.15689
1328.71491,0.15689
1330.64337,0.15569
1332.57184,0.15301
1334.50031,0.15524
1336.42878,0.16103
1338.35725,0.16526
1340.28572,0.16137
1342.21419,0.15806
1344.14266,0.16415
1346.07112,0.16447
1347.99959,0.15731
1349.92806,0.15572
1351.85653,0.15659
1353.78500,0.15497
1355.71347,0.15400
1357.64194,0.15739
1359.57040,0.16589
1361.49887,0.17431
1363.42734,0.17394
1365.35581,0.16901
1367.28428,0.16680
1369.21275,0.16484
1371.14122,0.16609
1373.06969,0.17355
1374.99815,0.17691
1376.92662,0.17067
1378.85509,0.16412
1380.78356,0.16133
1382.71203,0.16220
1384.64050,0.16767
1386.56897,0.17558
1388.49743,0.17871
1390.42590,0.17670
1392.35437,0.17854
1394.28284,0.18667
1396.21131,0.19293
1398.13978,0.19125
1400.06825,0.18267
1401.99672,0.17507
1403.92518,0.17382
1405.85365,0.17425
1407.78212,0.17330
1409.71059,0.17398
1411.63906,0.17497
1413.56753,0.17575
1415.49600,0.18196
1417.42446,0.19283
1419.35293,0.19383
1421.28140,0.18674
1423.20987,0.18380
1425.13834,0.17982
1427.06681,0.17656
1428.99528,0.17845
1430.92375,0.18051
1432.85221,0.18359
1434.78068,0.19219
1436.70915,0.19540
1438.63762,0.18565
1440.56609,0.17909
1442.49456,0.17803
1444.42303,0.17919
1446.35149,0.18240
1448.27996,0.18404
1450.20843,0.18154
1452.13690,0.18076
1454.06537,0.19112
1455.99384,0.21634
1457.92231,0.22323
1459.85077,0.19957
1461.77924,0.18977
1463.70771,0.19439
1465.63618,0.19355
1467.56465,0.18563
1469.49312,0.19134
1471.42159,0.21409
1473.35006,0.22637
1475.27852,0.21151
1477.20699,0.19600
1479.13546,0.18841
1481.06393,0.18482
1482.99240,0.18289
1484.92087,0.18736
1486.84934,0.20210
1488.77780,0.21812
1490.70627,0.21325
1492.63474,0.20014
1494.56321,0.20059
1496.49168,0.20859
1498.42015,0.20457
1500.34862,0.19281
1502.27709,0.19228
1504.20555,0.21244
1506.13402,0.25578
1508.06249,0.26410
1509.99096,0.23065
1511.91943,0.20848
1513.84790,0.20419
1515.77637,0.21608
1517.70483,0.22938
1519.63330,0.23828
1521.56177,0.24608
1523.49024,0.23977
1525.41871,0.22904
1527.34718,0.21658
1529.27565,0.20416
1531.20412,0.20542
1533.13258,0.21521
1535.06105,0.21271
1536.98952,0.21320
1538.91799,0.23860
1540.84646,0.26391
1542.77493,0.24518
1544.70340,0.21796
1546.63186,0.19944
1548.56033,0.19408
1550.48880,0.19692
1552.41727,0.20436
1554.34574,0.21734
1556.27421,0.23892
1558.20268,0.27099
1560.13115,0.25048
1562.05961,0.21341
1563.98808,0.20098
1565.91655,0.19958
1567.84502,0.20475
1569.77349,0.20811
1571.70196,0.20013
1573.63043,0.19959
1575.55889,0.21119
1577.48736,0.20698
1579.41583,0.18950
1581.34430,0.18101
1583.27277,0.17991
1585.20124,0.17944
1587.12971,0.17894
1589.05818,0.18009
1590.98664,0.18115
1592.91511,0.18025
1594.84358,0.17899
1596.77205,0.17926
1598.70052,0.18111
1600.62899,0.18306
1602.55746,0.18425
1604.48592,0.18466
1606.41439,0.18404
1608.34286,0.18295
1610.27133,0.18246
1612.19980,0.18443
1614.12827,0.19156
1616.05674,0.20244
1617.98521,0.20427
1619.91367,0.20233
1621.84214,0.20694
1623.77061,0.20810
1625.69908,0.20305
1627.62755,0.19947
1629.55602,0.19472
1631.48449,0.19349
1633.41295,0.20537
1635.34142,0.22727
1637.26989,0.22316
1639.19836,0.20379
1641.12683,0.19627
1643.05530,0.20174
1644.98377,0.22029
1646.91223,0.23935
1648.84070,0.23497
1650.76917,0.23540
1652.69764,0.25246
1654.62611,0.23705
1656.55458,0.20896
1658.48305,0.20027
1660.41152,0.20837
1662.33998,0.21672
1664.26845,0.20923
1666.19692,0.20648
1668.12539,0.22059
1670.05386,0.22882
1671.98233,0.21815
1673.91080,0.21190
1675.83926,0.20786
1677.76773,0.20315
1679.69620,0.20892
1681.62467,0.22935
1683.55314,0.25172
1685.48161,0.23681
1687.41008,0.21297
1689.33855,0.20359
1691.26701,0.20018
1693.19548,0.20426
1695.12395,0.22097
1697.05242,0.23990
1698.98089,0.24418
1700.90936,0.23185
1702.83783,0.22019
1704.76629,0.21748
1706.69476,0.21110
1708.62323,0.19951
1710.55170,0.19388
1712.48017,0.19876
1714.40864,0.21439
1716.33711,0.23245
1718.26558,0.22352
1720.19404,0.19889
1722.12251,0.18800
1724.05098,0.18756
1725.97945,0.18882
1727.90792,0.19197
1729.83639,0.19963
1731.76486,0.21419
1733.69332,0.22676
1735.62179,0.21470
1737.55026,0.20124
1739.47873,0.19998
1741.40720,0.20348
1743.33567,0.20658
1745.26414,0.20957
1747.19261,0.21501
1749.12107,0.22001
1751.04954,0.21211
1752.97801,0.19851
1754.90648,0.19410
1756.83495,0.19529
1758.76342,0.19481
1760.69189,0.19435
1762.62035,0.19211
1764.54882,0.18906
1766.47729,0.19257
1768.40576,0.20372
1770.33423,0.21979
1772.26270,0.22509
1774.19117,0.20691
1776.11964,0.19104
1778.04810,0.18889
1779.97657,0.19152
1781.90504,0.18957
1783.83351,0.18601
1785.76198,0.18456
1787.69045,0.18642
1789.61892,0.19574
1791.54738,0.20841
1793.47585,0.20906
1795.40432,0.20124
1797.33279,0.19685
1799.26126,0.19681
1801.18973,0.19713
1803.11820,0.19327
1805.04666,0.18786
1806.97513,0.18684
1808.90360,0.19098
1810.83207,0.19310
1812.76054,0.18852
1814.68901,0.18445
1816.61748,0.18476
1818.54595,0.18545
1820.47441,0.18441
1822.40288,0.18622
1824.33135,0.19220
1826.25982,0.19552
1828.18829,0.19821
1830.11676,0.19958
1832.04523,0.19327
1833.97369,0.18888
1835.90216,0.18957
1837.83063,0.18935
1839.75910,0.18885
1841.68757,0.19339
1843.61604,0.20040
1845.54451,0.19945
1847.47298,0.19240
1849.40144,0.18608
1851.32991,0.18221
1853.25838,0.18080
1855.18685,0.18021
1857.11532,0.17918
1859.04379,0.17874
1860.97226,0.18105
1862.90072,0.18566
1864.82919,0.19134
1866.75766,0.19836
1868.68613,0.20189
1870.61460,0.19578
1872.54307,0.18719
1874.47154,0.18231
1876.40001,0.18163
1878.32847,0.18373
1880.25694,0.18501
1882.18541,0.18440
1884.11388,0.18460
1886.04235,0.18746
1887.97082,0.19249
1889.89929,0.19336
1891.82775,0.18705
1893.75622,0.18219
1895.68469,0.18214
1897.61316,0.18344
1899.54163,0.18472
1901.47010,0.18517
1903.39857,0.18443
1905.32704,0.18390
1907.25550,0.18486
1909.18397,0.18633
1911.11244,0.18617
1913.04091,0.18555
1914.96938,0.18755
1916.89785,0.19147
1918.82632,0.19278
1920.75478,0.19274
1922.68325,0.19331
1924.61172,0.19060
1926.54019,0.18643
1928.46866,0.18438
1930.39713,0.18343
1932.32560,0.18306
1934.25407,0.18317
1936.18253,0.18301
1938.11100,0.18322
1940.03947,0.18617
1941.96794,0.19085
1943.89641,0.19151
1945.82488,0.18885
1947.75335,0.18691
1949.68181,0.18641
1951.61028,0.18779
1953.53875,0.18842
1955.46722,0.18664
1957.39569,0.18591
1959.32416,0.18667
1961.25263,0.18625
1963.18110,0.18657
1965.10956,0.19072
1967.03803,0.19354
1968.96650,0.18967
1970.89497,0.18538
1972.82344,0.18600
1974.75191,0.18980
1976.68038,0.19383
1978.60884,0.19460
1980.53731,0.19109
1982.46578,0.18741
1984.39425,0.18705
1986.32272,0.18835
1988.25119,0.18890
1990.17966,0.18924
1992.10812,0.18912
1994.03659,0.18738
1995.96506,0.18616
1997.89353,0.18723
1999.82200,0.18776
2001.75047,0.18634
2003.67894,0.18517
2005.60741,0.18327
2007.53587,0.18074
2009.46434,0.18111
2011.39281,0.18368
2013.32128,0.18575
2015.24975,0.18783
2017.17822,0.18998
2019.10669,0.18964
2021.03515,0.18714
2022.96362,0.18580
2024.89209,0.18623
2026.82056,0.18712
2028.74903,0.18795
2030.67750,0.18855
2032.60597,0.18865
2034.53444,0.18744
2036.46290,0.18542
2038.39137,0.18497
2040.31984,0.18585
2042.24831,0.18587
2044.17678,0.18589
2046.10525,0.18691
2048.03372,0.18757
2049.96218,0.18745
2051.89065,0.18696
2053.81912,0.18674
2055.74759,0.18633
2057.67606,0.18436
2059.60453,0.18375
2061.53300,0.18649
2063.46147,0.18844
2065.38993,0.18789
2067.31840,0.18714
2069.24687,0.18668
2071.17534,0.18578
2073.10381,0.18414
2075.03228,0.18294
2076.96075,0.18362
2078.88921,0.18508
2080.81768,0.18695
2082.74615,0.18900
2084.67462,0.18799
2086.60309,0.18513
2088.53156,0.18501
2090.46003,0.18581
2092.38850,0.18524
2094.31696,0.18555
2096.24543,0.18759
2098.17390,0.18988
2100.10237,0.19117
2102.03084,0.19124
2103.95931,0.19063
2105.88778,0.18958
2107.81624,0.18855
2109.74471,0.18856
2111.67318,0.18835
2113.60165,0.18699
2115.53012,0.18674
2117.45859,0.18737
2119.38706,0.18644
2121.31553,0.18486
2123.24399,0.18444
2125.17246,0.18460
2127.10093,0.18539
2129.02940,0.18665
2130.95787,0.18690
2132.88634,0.18802
2134.81481,0.19092
2136.74327,0.19130
2138.67174,0.18889
2140.60021,0.18762
2142.52868,0.18757
2144.45715,0.18777
2146.38562,0.18823
2148.31409,0.18773
2150.24255,0.18688
2152.17102,0.18708
2154.09949,0.18657
2156.02796,0.18455
2157.95643,0.18307
2159.88490,0.18349
2161.81337,0.18611
2163.74184,0.18888
2165.67030,0.18958
2167.59877,0.18995
2169.52724,0.18991
2171.45571,0.18744
2173.38418,0.18493
2175.31265,0.18498
2177.24112,0.18664
2179.16958,0.18839
2181.09805,0.18922
2183.02652,0.18907
2184.95499,0.18792
2186.88346,0.18604
2188.81193,0.18615
2190.74040,0.18909
2192.66887,0.19124
2194.59733,0.18993
2196.52580,0.18787
2198.45427,0.18825
2200.38274,0.18883
2202.31121,0.18767
2204.23968,0.18710
2206.16815,0.18794
2208.09661,0.18860
2210.02508,0.18862
2211.95355,0.18835
2213.88202,0.18855
2215.81049,0.18915
2217.73896,0.18912
2219.66743,0.18890
2221.59590,0.18862
2223.52436,0.18747
2225.45283,0.18585
2227.38130,0.18563
2229.30977,0.18758
2231.23824,0.18899
2233.16671,0.18832
2235.09518,0.18767
2237.02364,0.18818
2238.95211,0.18818
2240.88058,0.18685
2242.80905,0.18660
2244.73752,0.18879
2246.66599,0.19025
2248.59446,0.18932
2250.52293,0.18879
2252.45139,0.18931
2254.37986,0.18916
2256.30833,0.18843
2258.23680,0.18748
2260.16527,0.18651
2262.09374,0.18688
2264.02221,0.18875
2265.95067,0.19028
2267.87914,0.18976
2269.80761,0.18812
2271.73608,0.18796
2273.66455,0.18811
2275.59302,0.18683
2277.52149,0.18634
2279.44996,0.18747
2281.37842,0.18837
2283.30689,0.18888
2285.23536,0.18947
2287.16383,0.18965
2289.09230,0.18977
2291.02077,0.18963
2292.94924,0.18934
2294.87770,0.19099
2296.80617,0.19250
2298.73464,0.19090
2300.66311,0.18990
2302.59158,0.19151
2304.52005,0.19278
2306.44852,0.19219
2308.37699,0.18994
2310.30545,0.18887
2312.23392,0.19072
2314.16239,0.19224
2316.09086,0.19244
2318.01933,0.19415
2319.94780,0.19659
2321.87627,0.19479
2323.80473,0.19100
2325.73320,0.19203
2327.66167,0.19716
2329.59014,0.20158
2331.51861,0.20160
2333.44708,0.19861
2335.37555,0.19446
2337.30401,0.18780
2339.23248,0.18297
2341.16095,0.18929
2343.08942,0.20236
2345.01789,0.20465
2346.94636,0.19814
2348.87483,0.19658
2350.80330,0.20036
2352.73176,0.20080
2354.66023,0.19231
2356.58870,0.18370
2358.51717,0.18279
2360.44564,0.18918
2362.37411,0.19414
2364.30258,0.19028
2366.23104,0.18552
2368.15951,0.18596
2370.08798,0.19031
2372.01645,0.19548
2373.94492,0.19672
2375.87339,0.19441
2377.80186,0.19113
2379.73033,0.18886
2381.65879,0.18916
2383.58726,0.18989
2385.51573,0.18905
2387.44420,0.18775
2389.37267,0.18747
2391.30114,0.18858
2393.22961,0.18967
2395.15807,0.18872
2397.08654,0.18715
2399.01501,0.18719
2400.94348,0.18771
2402.87195,0.18770
2404.80042,0.18735
2406.72889,0.18771
2408.65736,0.18939
2410.58582,0.19026
2412.51429,0.19013
2414.44276,0.19127
2416.37123,0.19269
2418.29970,0.19142
2420.22817,0.18871
2422.15664,0.18927
2424.08510,0.19199
2426.01357,0.19147
2427.94204,0.18859
2429.87051,0.18726
2431.79898,0.18752
2433.72745,0.18783
2435.65592,0.18803
2437.58439,0.18825
2439.51285,0.18827
2441.44132,0.18849
2443.36979,0.18880
2445.29826,0.18948
2447.22673,0.19046
2449.15520,0.18959
2451.08367,0.18825
2453.01213,0.18884
2454.94060,0.18952
2456.86907,0.18881
2458.79754,0.18720
2460.72601,0.18529
2462.65448,0.18445
2464.58295,0.18564
2466.51142,0.18801
2468.43988,0.19011
2470.36835,0.19076
2472.29682,0.19055
2474.22529,0.19029
2476.15376,0.19001
2478.08223,0.19107
2480.01070,0.19259
2481.93916,0.19231
2483.86763,0.19171
2485.79610,0.19246
2487.72457,0.19405
2489.65304,0.19457
2491.58151,0.19262
2493.50998,0.18993
2495.43844,0.18923
2497.36691,0.19110
2499.29538,0.19247
2501.22385,0.19084
2503.15232,0.18921
2505.08079,0.19050
2507.00926,0.19227
2508.93773,0.19115
2510.86619,0.18889
2512.79466,0.18944
2514.72313,0.19196
2516.65160,0.19338
2518.58007,0.19351
2520.50854,0.19228
2522.43701,0.19057
2524.36547,0.19213
2526.29394,0.19576
2528.22241,0.19676
2530.15088,0.19480
2532.07935,0.19153
2534.00782,0.18947
2535.93629,0.19056
2537.86476,0.19270
2539.79322,0.19374
2541.72169,0.19376
2543.65016,0.19261
2545.57863,0.19113
2547.50710,0.19086
2549.43557,0.19201
2551.36404,0.19358
2553.29250,0.19387
2555.22097,0.19300
2557.14944,0.19199
2559.07791,0.19007
2561.00638,0.18843
2562.93485,0.18949
2564.86332,0.19103
2566.79179,0.19150
2568.72025,0.19251
2570.64872,0.19349
2572.57719,0.19343
2574.50566,0.19244
2576.43413,0.19144
2578.36260,0.19194
2580.29107,0.19362
2582.21953,0.19433
2584.14800,0.19260
2586.07647,0.19016
2588.00494,0.18978
2589.93341,0.19117
2591.86188,0.19210
2593.79035,0.19160
2595.71882,0.19113
2597.64728,0.19277
2599.57575,0.19461
2601.50422,0.19398
2603.43269,0.19336
2605.36116,0.19428
2607.28963,0.19463
2609.21810,0.19469
2611.14656,0.19569
2613.07503,0.19603
2615.00350,0.19505
2616.93197,0.19419
2618.86044,0.19439
2620.78891,0.19511
2622.71738,0.19541
2624.64585,0.19599
2626.57431,0.19675
2628.50278,0.19601
2630.43125,0.19458
2632.35972,0.19460
2634.28819,0.19575
2636.21666,0.19705
2638.14513,0.19780
2640.07359,0.19640
2642.00206,0.19328
2643.93053,0.19185
2645.85900,0.19390
2647.78747,0.19643
2649.71594,0.19683
2651.64441,0.19690
2653.57288,0.19722
2655.50134,0.19571
2657.42981,0.19398
2659.35828,0.19521
2661.28675,0.19696
2663.21522,0.19698
2665.14369,0.19687
2667.07216,0.19718
2669.00062,0.19752
2670.92909,0.19723
2672.85756,0.19627
2674.78603,0.19574
2676.71450,0.19565
2678.64297,0.19549
2680.57144,0.19632
2682.49990,0.19732
2684.42837,0.19605
2686.35684,0.19436
2688.28531,0.19453
2690.21378,0.19646
2692.14225,0.19872
2694.07072,0.19917
2695.99919,0.19845
2697.92765,0.19860
2699.85612,0.20004
2701.78459,0.20099
2703.71306,0.20022
2705.64153,0.19935
2707.57000,0.19951
2709.49847,0.19979
2711.42693,0.20048
2713.35540,0.20264
2715.28387,0.20425
2717.21234,0.20298
2719.14081,0.20051
2721.06928,0.19930
2722.99775,0.19950
2724.92622,0.20013
2726.85468,0.20087
2728.78315,0.20134
2730.71162,0.20010
2732.64009,0.19848
2734.56856,0.19956
2736.49703,0.20156
2738.42550,0.20147
2740.35396,0.20035
2742.28243,0.19877
2744.21090,0.19659
2746.13937,0.19610
2748.06784,0.19856
2749.99631,0.20176
2751.92478,0.20378
2753.85325,0.20531
2755.78171,0.20583
2757.71018,0.20354
2759.63865,0.20064
2761.56712,0.20168
2763.49559,0.20688
2765.42406,0.21203
2767.35253,0.21462
2769.28099,0.21395
2771.20946,0.20889
2773.13793,0.20266
2775.06640,0.20033
2776.99487,0.20131
2778.92334,0.20220
2780.85181,0.20219
2782.78028,0.20241
2784.70874,0.20327
2786.63721,0.20407
2788.56568,0.20597
2790.49415,0.20934
2792.42262,0.20974
2794.35109,0.20604
2796.27956,0.20367
2798.20802,0.20519
2800.13649,0.20832
2802.06496,0.21025
2803.99343,0.20882
2805.92190,0.20603
2807.85037,0.20559
2809.77884,0.20536
2811.70731,0.20375
2813.63577,0.20382
2815.56424,0.20530
2817.49271,0.20440
2819.42118,0.20167
2821.34965,0.20185
2823.27812,0.20359
2825.20659,0.20289
2827.13505,0.20312
2829.06352,0.20544
2830.99199,0.20620
2832.92046,0.20611
2834.84893,0.20627
2836.77740,0.20622
2838.70587,0.20627
2840.63433,0.20649
2842.56280,0.20746
2844.49127,0.20845
2846.41974,0.20847
2848.34821,0.20855
2850.27668,0.20861
2852.20515,0.20815
2854.13362,0.20905
2856.06208,0.21196
2857.99055,0.21328
2859.91902,0.21176
2861.84749,0.21020
2863.77596,0.20808
2865.70443,0.20521
2867.63290,0.20471
2869.56136,0.20679
2871.48983,0.20916
2873.41830,0.20984
2875.34677,0.20937
2877.27524,0.20994
2879.20371,0.21083
2881.13218,0.20920
2883.06065,0.20482
2884.98911,0.20295
2886.91758,0.20599
2888.84605,0.20917
2890.77452,0.20934
2892.70299,0.20671
2894.63146,0.20359
2896.55993,0.20258
2898.48839,0.20340
2900.41686,0.20562
2902.34533,0.20797
2904.27380,0.20728
2906.20227,0.20317
2908.13074,0.19941
2910.05921,0.19931
2911.98768,0.20218
2913.91614,0.20259
2915.84461,0.19799
2917.77308,0.19537
2919.70155,0.19910
2921.63002,0.20467
2923.55849,0.20631
2925.48696,0.20310
2927.41542,0.20149
2929.34389,0.20500
2931.27236,0.20873
2933.20083,0.20843
2935.12930,0.20358
2937.05777,0.19839
2938.98624,0.20006
2940.91471,0.20594
2942.84317,0.20715
2944.77164,0.20156
2946.70011,0.19321
2948.62858,0.19160
2950.55705,0.19932
2952.48552,0.20758
2954.41399,0.21054
2956.34245,0.20468
2958.27092,0.19565
2960.19939,0.19603
2962.12786,0.20278
2964.05633,0.20474
2965.98480,0.19968
2967.91327,0.19588
2969.84174,0.20202
2971.77020,0.21164
2973.69867,0.21442
2975.62714,0.20986
2977.55561,0.20258
2979.48408,0.20120
2981.41255,0.20725
2983.34102,0.21144
2985.26948,0.20977
2987.19795,0.20596
2989.12642,0.20530
2991.05489,0.20863
2992.98336,0.21132
2994.91183,0.21162
2996.84030,0.21087
2998.76877,0.21147
3000.69723,0.21324
3002.62570,0.21184
3004.55417,0.20868
3006.48264,0.20710
3008.41111,0.20517
3010.33958,0.19899
3012.26805,0.18154
3014.19651,0.15014
3016.12498,0.12404
3018.05345,0.13451
3019.98192,0.17615
3021.91039,0.20854
3023.83886,0.21674
3025.76733,0.21407
3027.69579,0.21061
3029.62426,0.20957
3031.55273,0.21021
3033.48120,0.21200
3035.40967,0.21388
3037.33814,0.21181
3039.26661,0.20860
3041.19508,0.21043
3043.12354,0.21414
3045.05201,0.21374
3046.98048,0.21147
3048.90895,0.21224
3050.83742,0.21312
3052.76589,0.21182
3054.69436,0.20866
3056.62282,0.20174
3058.55129,0.19884
3060.47976,0.20582
3062.40823,0.21348
3064.33670,0.21112
3066.26517,0.20137
3068.19364,0.20068
3070.12211,0.21058
3072.05057,0.21562
3073.97904,0.20961
3075.90751,0.20069
3077.83598,0.20180
3079.76445,0.21111
3081.69292,0.21449
3083.62139,0.20523
3085.54985,0.19428
3087.47832,0.19608
3089.40679,0.20495
3091.33526,0.20968
3093.26373,0.20744
3095.19220,0.20384
3097.12067,0.20607
3099.04914,0.21016
3100.97760,0.20955
3102.90607,0.20280
3104.83454,0.19961
3106.76301,0.20628
3108.69148,0.21208
3110.61995,0.21086
3112.54842,0.20781
3114.47688,0.20854
3116.40535,0.21188
3118.33382,0.21075
3120.26229,0.20341
3122.19076,0.19914
3124.11923,0.20414
3126.04770,0.21023
3127.97617,0.20991
3129.90463,0.20632
3131.83310,0.20646
3133.76157,0.21172
3135.69004,0.21744
3137.61851,0.21848
3139.54698,0.21429
3141.47545,0.21286
3143.40391,0.21732
3145.33238,0.21972
3147.26085,0.21628
3149.18932,0.21269
3151.11779,0.21325
3153.04626,0.21573
3154.97473,0.21783
3156.90320,0.21949
3158.83166,0.22117
3160.76013,0.22194
3162.68860,0.22047
3164.61707,0.21903
3166.54554,0.21927
3168.47401,0.21795
3170.40248,0.21405
3172.33094,0.21238
3174.25941,0.21370
3176.18788,0.21531
3178.11635,0.21723
3180.04482,0.21870
3181.97329,0.21944
3183.90176,0.21992
3185.83022,0.21984
3187.75869,0.21931
3189.68716,0.21927
3191.61563,0.21934
3193.54410,0.21878
3195.47257,0.22080
3197.40104,0.22506
3199.32951,0.22574
3201.25797,0.22141
3203.18644,0.21683
3205.11491,0.21512
3207.04338,0.21466
3208.97185,0.21573
3210.90032,0.21767
3212.82879,0.21911
3214.75725,0.22091
3216.68572,0.22089
3218.61419,0.21848
3220.54266,0.21712
3222.47113,0.21712
3224.39960,0.21468
3226.32807,0.21079
3228.25654,0.21207
3230.18500,0.21705
3232.11347,0.21800
3234.04194,0.21584
3235.97041,0.21514
3237.89888,0.21592
3239.82735,0.21790
3241.75582,0.21906
3243.68428,0.21875
3245.61275,0.22120
3247.54122,0.22513
3249.46969,0.22465
3251.39816,0.21990
3253.32663,0.21533
3255.25510,0.21386
3257.18357,0.21438
3259.11203,0.21450
3261.04050,0.21376
3262.96897,0.21066
3264.89744,0.20719
3266.82591,0.20896
3268.75438,0.21385
3270.68285,0.21517
3272.61131,0.21471
3274.53978,0.21779
3276.46825,0.22049
3278.39672,0.21917
3280.32519,0.21708
3282.25366,0.21468
3284.18213,0.21068
3286.11060,0.20811
3288.03906,0.21022
3289.96753,0.21350
3291.89600,0.21413
3293.82447,0.21563
3295.75294,0.22000
3297.68141,0.22158
3299.60988,0.21860
3301.53834,0.21666
3303.46681,0.21656
3305.39528,0.21502
3307.32375,0.21179
3309.25222,0.20932
3311.18069,0.21033
3313.10916,0.21420
3315.03763,0.21806
3316.96609,0.21895
3318.89456,0.21580
3320.82303,0.21101
3322.75150,0.20864
3324.67997,0.21237
3326.60844,0.21961
3328.53691,0.22295
3330.46537,0.22171
3332.39384,0.22004
3334.32231,0.21930
3336.25078,0.21918
3338.17925,0.21991
3340.10772,0.22122
3342.03619,0.21945
3343.96466,0.21431
3345.89312,0.21302
3347.82159,0.21690
3349.75006,0.22000
3351.67853,0.22048
3353.60700,0.21937
3355.53547,0.21843
3357.46394,0.21828
3359.39240,0.21838
3361.32087,0.22192
3363.24934,0.22737
3365.17781,0.22761
3367.10628,0.22418
3369.03475,0.22280
3370.96322,0.22314
3372.89168,0.22345
3374.82015,0.22263
3376.74862,0.22084
3378.67709,0.22039
3380.60556,0.21967
3382.53403,0.21621
3384.46250,0.21192
3386.39097,0.21060
3388.31943,0.21289
3390.24790,0.21368
3392.17637,0.21224
3394.10484,0.21365
3396.03331,0.21770
3397.96178,0.22032
3399.89025,0.22064
3401.81871,0.21905
3403.74718,0.21699
3405.67565,0.21741
3407.60412,0.21905
3409.53259,0.21981
3411.46106,0.21978
3413.38953,0.21888
3415.31800,0.21736
3417.24646,0.21703
3419.17493,0.21919
3421.10340,0.21998
3423.03187,0.21784
3424.96034,0.21542
3426.88881,0.21268
3428.81728,0.21079
3430.74574,0.21069
3432.67421,0.20947
3434.60268,0.20785
3436.53115,0.20910
3438.45962,0.20868
3440.38809,0.20452
3442.31656,0.20304
3444.24503,0.20520
3446.17349,0.20733
3448.10196,0.20674
3450.03043,0.20375
3451.95890,0.20175
3453.88737,0.20116
3455.81584,0.20024
3457.74431,0.19982
3459.67277,0.20094
3461.60124,0.19993
3463.52971,0.19563
3465.45818,0.19235
3467.38665,0.19100
3469.31512,0.19259
3471.24359,0.19779
3473.17206,0.20239
3475.10052,0.20513
3477.02899,0.20728
3478.95746,0.20800
3480.88593,0.20686
3482.81440,0.20473
3484.74287,0.20254
3486.67134,0.19934
3488.59980,0.19558
3490.52827,0.19345
3492.45674,0.19181
3494.38521,0.18961
3496.31368,0.18896
3498.24215,0.19076
3500.17062,0.19316
3502.09909,0.19394
3504.02755,0.19048
3505.95602,0.18562
3507.88449,0.18511
3509.81296,0.18704
3511.74143,0.18714
3513.66990,0.18512
3515.59837,0.18235
3517.52683,0.18083
3519.45530,0.18243
3521.38377,0.18825
3523.31224,0.19308
3525.24071,0.19137
3527.16918,0.18886
3529.09765,0.18702
3531.02611,0.18158
3532.95458,0.17670
3534.88305,0.17530
3536.81152,0.17252
3538.73999,0.16699
3540.66846,0.16595
3542.59693,0.17258
3544.52540,0.18066
3546.45386,0.18266
3548.38233,0.17958
3550.31080,0.17723
3552.23927,0.17570
3554.16774,0.17330
3556.09621,0.17097
3558.02468,0.17034
3559.95314,0.17283
3561.88161,0.17851
3563.81008,0.18811
3565.73855,0.19817
3567.66702,0.19342
3569.59549,0.17744
3571.52396,0.16882
3573.45243,0.16599
3575.38089,0.16344
3577.30936,0.16179
3579.23783,0.16130
3581.16630,0.16247
3583.09477,0.16904
3585.02324,0.18302
3586.95171,0.19534
3588.88017,0.18701
3590.80864,0.17014
3592.73711,0.16473
3594.66558,0.16956
3596.59405,0.17210
3598.52252,0.16953
3600.45099,0.16723
3602.37946,0.16498
3604.30792,0.16458
3606.23639,0.17067
3608.16486,0.17746
3610.09333,0.17663
3612.02180,0.17588
3613.95027,0.17757
3615.87874,0.17750
3617.80720,0.17773
3619.73567,0.17294
3621.66414,0.16111
3623.59261,0.15619
3625.52108,0.16374
3627.44955,0.17742
3629.37802,0.17709
3631.30649,0.16301
3633.23495,0.15491
3635.16342,0.15045
3637.09189,0.14804
3639.02036,0.14774
3640.94883,0.14675
3642.87730,0.14685
3644.80577,0.15455
3646.73423,0.17297
3648.66270,0.19032
3650.59117,0.17851
3652.51964,0.15720
3654.44811,0.14826
3656.37658,0.14656
3658.30505,0.14158
3660.23352,0.13586
3662.16198,0.13493
3664.09045,0.13770
3666.01892,0.14305
3667.94739,0.15232
3669.87586,0.16032
3671.80433,0.16237
3673.73280,0.17072
3675.66126,0.17895
3677.58973,0.16959
3679.51820,0.15507
3681.44667,0.14224
3683.37514,0.13638
3685.30361,0.14007
3687.23208,0.15150
3689.16055,0.16413
3691.08901,0.15724
3693.01748,0.13933
3694.94595,0.13137
3696.87442,0.13215
3698.80289,0.13494
3700.73136,0.13988
3702.65983,0.14350
3704.58829,0.14210
3706.51676,0.14208
3708.44523,0.14811
3710.37370,0.15824
3712.30217,0.16121
3714.23064,0.15210
3716.15911,0.14232
3718.08757,0.13939
3720.01604,0.14315
3721.94451,0.14743
3723.87298,0.14822
3725.80145,0.14651
3727.72992,0.14546
3729.65839,0.14818
3731.58686,0.15602
3733.51532,0.16694
3735.44379,0.17167
3737.37226,0.16403
3739.30073,0.15493
3741.22920,0.15462
3743.15767,0.16679
3745.08614,0.17823
3747.01460,0.17512
3748.94307,0.17788
3750.87154,0.18369
3752.80001,0.16734
3754.72848,0.15106
3756.65695,0.15143
3758.58542,0.15716
3760.51389,0.14988
3762.44235,0.13668
3764.37082,0.13099
3766.29929,0.13296
3768.22776,0.13866
3770.15623,0.14173
3772.08470,0.13700
3774.01317,0.13178
3775.94163,0.13188
3777.87010,0.13616
3779.79857,0.13769
3781.72704,0.13573
3783.65551,0.13668
3785.58398,0.13695
3787.51245,0.13328
3789.44092,0.12873
3791.36938,0.12666
3793.29785,0.13080
3795.22632,0.13940
3797.15479,0.14487
3799.08326,0.14922
3801.01173,0.15658
3802.94020,0.15404
3804.86866,0.14788
3806.79713,0.14574
3808.72560,0.13984
3810.65407,0.13389
3812.58254,0.13545
3814.51101,0.14432
3816.43948,0.15043
3818.36795,0.15292
3820.29641,0.15945
3822.22488,0.15251
3824.15335,0.13765
3826.08182,0.13186
3828.01029,0.13172
3829.93876,0.13417
3831.86723,0.13835
3833.79569,0.14287
3835.72416,0.15128
3837.65263,0.16200
3839.58110,0.15960
3841.50957,0.14713
3843.43804,0.13839
3845.36651,0.13174
3847.29498,0.12794
3849.22344,0.13362
3851.15191,0.14963
3853.08038,0.16482
3855.00885,0.15558
3856.93732,0.13965
3858.86579,0.12977
3860.79426,0.12768
3862.72272,0.13476
3864.65119,0.14206
3866.57966,0.14332
3868.50813,0.14652
3870.43660,0.15097
3872.36507,0.14879
3874.29354,0.14100
3876.22200,0.13152
3878.15047,0.12675
3880.07894,0.12876
3882.00741,0.13305
3883.93588,0.13435
3885.86435,0.12880
3887.79282,0.12228
3889.72129,0.12448
3891.64975,0.12905
3893.57822,0.12573
3895.50669,0.12345
3897.43516,0.12881
3899.36363,0.13514
3901.29210,0.13686
3903.22057,0.13668
3905.14903,0.13131
3907.07750,0.12307
3909.00597,0.11790
3910.93444,0.11384
3912.86291,0.11215
3914.79138,0.11714
3916.71985,0.12395
3918.64832,0.12445
3920.57678,0.12092
3922.50525,0.11851
3924.43372,0.11755
3926.36219,0.11586
3928.29066,0.11468
3930.21913,0.11655
3932.14760,0.11793
3934.07606,0.11516
3936.00453,0.11249
3937.93300,0.11248
3939.86147,0.11360
3941.78994,0.11586
3943.71841,0.11716
3945.64688,0.11402
3947.57535,0.10833
3949.50381,0.10488
3951.43228,0.10711
3953.36075,0.11141
3955.28922,0.11311
3957.21769,0.11335
3959.14616,0.11272
3961.07463,0.10876
3963.00309,0.10373
3964.93156,0.10368
3966.86003,0.10670
3968.78850,0.10758
3970.71697,0.10777
3972.64544,0.10737
3974.57391,0.10565
3976.50238,0.10448
3978.43084,0.10260
3980.35931,0.10050
3982.28778,0.10049
3984.21625,0.10144
3986.14472,0.10222
3988.07319,0.10265
3990.00166,0.10398
3991.93012,0.10593
3993.85859,0.10364
3995.78706,0.09758
3997.71553,0.09545
3999.64400,0.09980
4001.57247,0.10398
4003.50094,0.10288
4005.42941,0.10096
4007.35787,0.10060
4009.28634,0.09923
4011.21481,0.09918
4013.14328,0.10104
4015.07175,0.10375
4017.00022,0.10737
4018.92869,0.10644
4020.85715,0.10008
4022.78562,0.09696
4024.71409,0.09948
4026.64256,0.10163
4028.57103,0.10195
4030.49950,0.10426
4032.42797,0.10614
4034.35644,0.10087
4036.28490,0.09281
4038.21337,0.09219
4040.14184,0.09630
4042.07031,0.09754
4043.99878,0.09855
4045.92725,0.10238
4047.85572,0.10238
4049.78418,0.09627
4051.71265,0.09178
4053.64112,0.09206
4055.56959,0.09411
4057.49806,0.09644
4059.42653,0.09900
4061.35500,0.10219
4063.28346,0.10484
4065.21193,0.10255
4067.14040,0.09668
4069.06887,0.09362
4070.99734,0.09303
4072.92581,0.09160
4074.85428,0.09118
4076.78275,0.09291
4078.71121,0.09157
4080.63968,0.08809
4082.56815,0.09029
4084.49662,0.09560
4086.42509,0.09615
4088.35356,0.09281
4090.28203,0.09093
4092.21049,0.09060
4094.13896,0.09032
4096.06743,0.09001
4097.99590,0.08830
4099.92437,0.08618
4101.85284,0.08670
4103.78131,0.09052
4105.70978,0.09296
4107.63824,0.09140
4109.56671,0.09054
4111.49518,0.09262
4113.42365,0.09458
4115.35212,0.09276
4117.28059,0.08829
4119.20906,0.08637
4121.13752,0.08838
4123.06599,0.09091
4124.99446,0.09193
4126.92293,0.09237
4128.85140,0.09062
4130.77987,0.08820
4132.70834,0.08935
4134.63681,0.09010
4136.56527,0.08828
4138.49374,0.08684
4140.42221,0.08601
4142.35068,0.08504
4144.27915,0.08272
4146.20762,0.08090
4148.13609,0.08199
4150.06455,0.08384
4151.99302,0.08376
4153.92149,0.08023
4155.84996,0.07655
4157.77843,0.07627
4159.70690,0.07600
4161.63537,0.07567
4163.56384,0.07681
4165.49230,0.07426
4167.42077,0.06998
4169.34924,0.07108
4171.27771,0.07588
4173.20618,0.07882
4175.13465,0.07583
4177.06312,0.06820
4178.99158,0.06450
4180.92005,0.06939
4182.84852,0.07615
4184.77699,0.07847
4186.70546,0.07988
4188.63393,0.08224
4190.56240,0.08076
4192.49087,0.07499
4194.41933,0.07123
4196.34780,0.07278
4198.27627,0.07414
4200.20474,0.07003
4202.13321,0.06558
4204.06168,0.06678
4205.99015,0.06998
4207.91861,0.07343
4209.84708,0.08038
4211.77555,0.08422
4213.70402,0.07750
4215.63249,0.06691
4217.56096,0.06339
4219.48943,0.06776
4221.41789,0.07188
4223.34636,0.07230
4225.27483,0.07225
4227.20330,0.07184
4229.13177,0.06967
4231.06024,0.06851
4232.98871,0.06986
4234.91718,0.07090
4236.84564,0.06971
4238.77411,0.06452
4240.70258,0.05875
4242.63105,0.06041
4244.55952,0.06652
4246.48799,0.06920
4248.41646,0.06814
4250.34492,0.06541
4252.27339,0.06280
4254.20186,0.06346
4256.13033,0.06516
4258.05880,0.06134
4259.98727,0.05311
4261.91574,0.04883
4263.84421,0.05327
4265.77267,0.06178
4267.70114,0.06510
4269.62961,0.06206
4271.55808,0.05960
4273.48655,0.05786
4275.41502,0.05380
4277.34349,0.05365
4279.27195,0.05990
4281.20042,0.06297
4283.12889,0.06026
4285.05736,0.05925
4286.98583,0.06010
4288.91430,0.05981
4290.84277,0.05994
4292.77124,0.06056
4294.69970,0.06146
4296.62817,0.06256
4298.55664,0.06248
4300.48511,0.06041
4302.41358,0.05814
4304.34205,0.05945
4306.27052,0.06229
4308.19898,0.06129
4310.12745,0.05629
4312.05592,0.04841
4313.98439,0.04224
4315.91286,0.04342
4317.84133,0.04782
4319.76980,0.05054
4321.69827,0.05144
4323.62673,0.05062
4325.55520,0.04948
4327.48367,0.04837
4329.41214,0.04857
4331.34061,0.05173
4333.26908,0.05379
4335.19755,0.05032
4337.12601,0.04467
4339.05448,0.04335
4340.98295,0.04580
4342.91142,0.04572
4344.83989,0.04374
4346.76836,0.04682
4348.69683,0.05123
4350.62530,0.04994
4352.55376,0.04730
4354.48223,0.04879
4356.41070,0.05203
4358.33917,0.04959
4360.26764,0.04189
4362.19611,0.03867
4364.12458,0.04017
4366.05304,0.03991
4367.98151,0.04021
4369.90998,0.04462
4371.83845,0.04734
4373.76692,0.04435
4375.69539,0.04206
4377.62386,0.04099
4379.55232,0.03669
4381.48079,0.03515
4383.40926,0.03720
4385.33773,0.03526
4387.26620,0.02906
4389.19467,0.02200
4391.12314,0.01745
4393.05161,0.01764
4394.98007,0.02211
4396.90854,0.02815
4398.83701,0.03072
4400.76548,0.02903
4402.69395,0.02652
4404.62242,0.02478
4406.55089,0.02579
4408.47935,0.02904
4410.40782,0.02915
4412.33629,0.02523
4414.26476,0.02144
4416.19323,0.02095
4418.12170,0.02282
4420.05017,0.02517
4421.97864,0.02902
4423.90710,0.03076
4425.83557,0.02913
4427.76404,0.02785
4429.69251,0.02504
4431.62098,0.02246
4433.54945,0.02327
4435.47792,0.02186
4437.40638,0.01685
4439.33485,0.01679
4441.26332,0.02422
4443.19179,0.02989
4445.12026,0.02782
4447.04873,0.02226
4448.97720,0.02000
4450.90567,0.02162
4452.83413,0.01944
4454.76260,0.01137
4456.69107,0.00866
4458.61954,0.01451
4460.54801,0.01726
4462.47648,0.01267
4464.40495,0.00959
4466.33341,0.01577
4468.26188,0.02382
4470.19035,0.02382
4472.11882,0.02103
4474.04729,0.01860
4475.97576,0.01202
4477.90423,0.00675
4479.83270,0.01146
4481.76116,0.02076
4483.68963,0.02482
4485.61810,0.02294
4487.54657,0.01972
4489.47504,0.01718
4491.40351,0.01350
4493.33198,0.01015
4495.26044,0.00749
4497.18891,0.00403
4499.11738,0.00411
4501.04585,0.00732
4502.97432,0.00743
4504.90279,0.00454
4506.83126,0.00290
4508.75973,0.00488
4510.68819,0.01089
4512.61666,0.01667
4514.54513,0.01796
4516.47360,0.01748
4518.40207,0.01814
4520.33054,0.01759
4522.25901,0.01197
4524.18747,0.00524
4526.11594,0.00639
4528.04441,0.00990
4529.97288,0.00572
4531.90135,-0.00005
4533.82982,-0.00049
4535.75829,0.00259
4537.68676,0.00585
4539.61522,0.00860
4541.54369,0.01217
4543.47216,0.01221
4545.40063,0.00744
4547.32910,0.00454
4549.25757,0.00564
4551.18604,0.00740
4553.11450,0.00694
4555.04297,0.00519
4556.97144,0.00378
4558.89991,0.00107
4560.82838,-0.00008
4562.75685,0.00396
4564.68532,0.00484
4566.61378,-0.00063
4568.54225,-0.00197
4570.47072,0.00089
4572.39919,0.00159
4574.32766,0.00297
4576.25613,0.00587
4578.18460,0.00651
4580.11307,0.00720
4582.04153,0.00798
4583.97000,0.00533
4585.89847,0.00515
4587.82694,0.00781
4589.75541,0.00576
4591.68388,0.00449
4593.61235,0.01142
4595.54081,0.01968
4597.46928,0.02257
4599.39775,0.02231
4601.32622,0.01752
4603.25469,0.00636
4605.18316,-0.00344
4607.11163,-0.00481
4609.04010,0.00179
4610.96856,0.00950
4612.89703,0.01305
4614.82550,0.01309
4616.75397,0.01052
4618.68244,0.00697
4620.61091,0.00244
4622.53938,-0.00161
4624.46784,-0.00026
4626.39631,0.00270
4628.32478,-0.00016
4630.25325,-0.00484
4632.18172,-0.00307
4634.11019,0.00775
4636.03866,0.01685
4637.96713,0.01425
4639.89559,0.00641
4641.82406,-0.00050
4643.75253,-0.00260
4645.68100,0.00396
4647.60947,0.01230
4649.53794,0.01495
4651.46641,0.01073
4653.39487,0.00420
4655.32334,0.00474
4657.25181,0.01347
4659.18028,0.01897
4661.10875,0.01339
4663.03722,0.00638
4664.96569,0.00575
4666.89416,0.00569
4668.82262,0.00223
4670.75109,0.00032
4672.67956,0.00139
4674.60803,0.00118
4676.53650,-0.00184
4678.46497,-0.00164
4680.39344,0.00245
4682.32190,-0.00015
4684.25037,-0.00753
4686.17884,-0.00806
4688.10731,-0.00377
4690.03578,-0.00007
4691.96425,0.00144
4693.89272,0.00026
4695.82119,-0.00079
4697.74965,-0.00545
4699.67812,-0.01228
4701.60659,-0.01134
4703.53506,-0.00465
4705.46353,0.00191
4707.39200,0.00403
4709.32047,0.00266
4711.24893,0.00712
4713.17740,0.01503
4715.10587,0.01687
4717.03434,0.01358
4718.96281,0.01089
4720.89128,0.01112
4722.81975,0.01466
4724.74821,0.01689
4726.67668,0.01078
4728.60515,0.00098
4730.53362,-0.00579
4732.46209,-0.01161
4734.39056,-0.01237
4736.31903,-0.00324
4738.24750,0.00339
4740.17596,0.00306
4742.10443,0.00373
4744.03290,-0.00109
4745.96137,-0.01413
4747.88984,-0.02072
4749.81831,-0.01324
4751.74678,-0.00147
4753.67524,0.00724
4755.60371,0.01099
4757.53218,0.00878
4759.46065,0.00323
4761.38912,-0.00116
4763.31759,-0.00067
4765.24606,0.00087
4767.17453,-0.00196
4769.10299,-0.00316
4771.03146,-0.00109
4772.95993,-0.00100
4774.88840,0.00084
4776.81687,0.00399
4778.74534,0.00326
4780.67381,0.00073
4782.60227,-0.00006
4784.53074,0.00208
4786.45921,0.00464
4788.38768,0.00405
4790.31615,-0.00060
4792.24462,-0.00678
4794.17309,-0.01031
4796.10156,-0.01012
4798.03002,-0.00542
4799.95849,0.00642
4801.88696,0.01592
4803.81543,0.01150
4805.74390,0.00266
4807.67237,0.00187
4809.60084,0.00539
4811.52930,0.00288
4813.45777,-0.00439
4815.38624,-0.00809
4817.31471,-0.00788
4819.24318,-0.00586
4821.17165,-0.00078
4823.10012,0.00719
4825.02859,0.01075
4826.95705,0.00721
4828.88552,0.00684
4830.81399,0.01022
4832.74246,0.01039
4834.67093,0.01283
4836.59940,0.01743
4838.52787,0.01129
4840.45633,0.00114
4842.38480,0.00306
4844.31327,0.00848
4846.24174,0.00310
4848.17021,-0.00552
4850.09868,-0.00300
4852.02715,0.00348
4853.95562,-0.00138
4855.88408,-0.01188
4857.81255,-0.01330
4859.74102,-0.00634
4861.66949,-0.00285
4863.59796,-0.00363
4865.52643,-0.00274
4867.45490,0.00059
4869.38336,0.00466
4871.31183,0.00559
4873.24030,0.00529
4875.16877,0.00795
4877.09724,0.00964
4879.02571,0.01062
4880.95418,0.01436
4882.88265,0.01664
4884.81111,0.01536
4886.73958,0.01172
4888.66805,0.00686
4890.59652,0.00222
4892.52499,-0.00430
4894.45346,-0.00645
4896.38193,0.00306
4898.31039,0.01328
4900.23886,0.01036
4902.16733,-0.00226
4904.09580,-0.00721
4906.02427,-0.00081
4907.95274,-0.00013
4909.88121,-0.00747
4911.80967,-0.00421
4913.73814,0.01116
4915.66661,0.01804
4917.59508,0.01085
4919.52355,0.00538
4921.45202,0.00561
4923.38049,0.00247
4925.30896,-0.00111
4927.23742,0.00243
4929.16589,0.00910
4931.09436,0.01386
4933.02283,0.01434
4934.95130,0.01005
4936.87977,0.00436
4938.80824,-0.00076
4940.73670,-0.00250
4942.66517,0.00010
4944.59364,0.00298
4946.52211,0.00588
4948.45058,0.01009
4950.37905,0.01348
4952.30752,0.01207
4954.23599,0.01101
4956.16445,0.01447
4958.09292,0.01151
4960.02139,0.00299
4961.94986,-0.00067
4963.87833,-0.00262
4965.80680,-0.00843
4967.73527,-0.01636
4969.66373,-0.01959
4971.59220,-0.01410
4973.52067,-0.00642
4975.44914,-0.00120
4977.37761,0.00216
4979.30608,0.00310
4981.23455,0.00386
4983.16302,0.00883
4985.09148,0.01934
4987.01995,0.02424
4988.94842,0.01298
4990.87689,-0.00146
4992.80536,-0.00794
4994.73383,-0.00853
4996.66230,-0.00627
4998.59076,-0.00566
5000.51923,-0.00301
5002.44770,0.00448
5004.37617,0.00992
5006.30464,0.00717
5008.23311,-0.00091
5010.16158,-0.00429
5012.09005,0.00042
5014.01851,0.00918
5015.94698,0.01780
5017.87545,0.01642
5019.80392,0.00547
5021.73239,0.00725
5023.66086,0.02419
5025.58933,0.03243
5027.51779,0.02942
5029.44626,0.02928
5031.37473,0.03268
5033.30320,0.03469
5035.23167,0.03308
5037.16014,0.02697
5039.08861,0.01723
5041.01708,0.00601
5042.94554,0.00064
5044.87401,0.00582
5046.80248,0.01463
5048.73095,0.02033
5050.65942,0.02216
5052.58789,0.02382
5054.51636,0.02624
5056.44482,0.02733
5058.37329,0.03116
5060.30176,0.03354
5062.23023,0.02626
5064.15870,0.01557
5066.08717,0.01225
5068.01564,0.01437
5069.94410,0.00842
5071.87257,0.00239
5073.80104,0.01474
5075.72951,0.02621
5077.65798,0.01712
5079.58645,0.01274
5081.51492,0.02670
5083.44339,0.03570
5085.37185,0.02955
5087.30032,0.02091
5089.22879,0.02355
5091.15726,0.02966
5093.08573,0.02549
5095.01420,0.02299
5096.94267,0.02862
5098.87113,0.03045
5100.79960,0.02454
5102.72807,0.01658
5104.65654,0.01292
5106.58501,0.01250
5108.51348,0.01401
5110.44195,0.01284
5112.37042,0.00241
5114.29888,-0.00532
5116.22735,-0.00622
5118.15582,-0.00527
5120.08429,0.00593
5122.01276,0.02233
5123.94123,0.02973
5125.86970,0.02865
5127.79816,0.02446
5129.72663,0.02044
5131.65510,0.02266
5133.58357,0.02961
5135.51204,0.03220
5137.44051,0.02994
5139.36898,0.02420
5141.29745,0.02006
5143.22591,0.02223
5145.15438,0.02003
5147.08285,0.01116
5149.01132,0.01230
5150.93979,0.02180
5152.86826,0.02351
5154.79673,0.02449
5156.72519,0.03606
5158.65366,0.04834
5160.58213,0.04700
5162.51060,0.03880
5164.43907,0.03924
5166.36754,0.04219
5168.29601,0.03974
5170.22448,0.03346
5172.15294,0.02556
5174.08141,0.02302
5176.00988,0.03509
5177.93835,0.05054
5179.86682,0.04544
5181.79529,0.03328
5183.72376,0.03843
5185.65222,0.05235
5187.58069,0.05516
5189.50916,0.04747
5191.43763,0.04647
5193.36610,0.04933
5195.29457,0.04082
5197.22304,0.02682
5199.15151,0.02076
5201.07997,0.02164
5203.00844,0.02462
5204.93691,0.03150
5206.86538,0.04040
5208.79385,0.03996
5210.72232,0.02542
5212.65079,0.00847
5214.57925,0.00762
5216.50772,0.02067
5218.43619,0.02914
5220.36466,0.03181
5222.29313,0.03224
5224.22160,0.02496
5226.15007,0.01591
5228.07854,0.01819
5230.00700,0.02886
5231.93547,0.03775
5233.86394,0.03622
5235.79241,0.02502
5237.72088,0.02136
5239.64935,0.02632
5241.57782,0.03041
5243.50628,0.03847
5245.43475,0.04525
5247.36322,0.04193
5249.29169,0.03182
5251.22016,0.02936
5253.14863,0.04447
5255.07710,0.06260
5257.00556,0.06199
5258.93403,0.04678
5260.86250,0.03919
5262.79097,0.04387
5264.71944,0.04832
5266.64791,0.05249
5268.57638,0.05783
5270.50485,0.05536
5272.43331,0.04644
5274.36178,0.04323
5276.29025,0.04730
5278.21872,0.05333
5280.14719,0.05836
5282.07566,0.06130
5284.00413,0.05879
5285.93259,0.05110
5287.86106,0.04774
5289.78953,0.04927
5291.71800,0.04609
5293.64647,0.04051
5295.57494,0.04438
5297.50341,0.05232
5299.43188,0.04824
5301.36034,0.03798
5303.28881,0.03759
5305.21728,0.04204
5307.14575,0.04376
5309.07422,0.04743
5311.00269,0.04887
5312.93116,0.04535
5314.85962,0.04569
5316.78809,0.04548
5318.71656,0.03461
5320.64503,0.02578
5322.57350,0.02981
5324.50197,0.04009
5326.43044,0.05045
5328.35891,0.05004
5330.28737,0.04276
5332.21584,0.04344
5334.14431,0.04231
5336.07278,0.03641
5338.00125,0.04087
5339.92972,0.05314
5341.85819,0.06480
5343.78665,0.08037
5345.71512,0.08767
5347.64359,0.07710
5349.57206,0.06889
5351.50053,0.06794
5353.42900,0.05740
5355.35747,0.04195
5357.28594,0.03894
5359.21440,0.04113
5361.14287,0.03981
5363.07134,0.04047
5364.99981,0.05136
5366.92828,0.06433
5368.85675,0.06300
5370.78522,0.05202
5372.71368,0.04518
5374.64215,0.04132
5376.57062,0.03153
5378.49909,0.02431
5380.42756,0.03817
5382.35603,0.05822
5384.28450,0.04949
5386.21297,0.02624
5388.14143,0.03237
5390.06990,0.05915
5391.99837,0.08662
5393.92684,0.09784
5395.85531,0.08643
5397.78378,0.07118
5399.71225,0.06600
5401.64071,0.07169
5403.56918,0.07204
5405.49765,0.06366
5407.42612,0.05958
5409.35459,0.06024
5411.28306,0.06353
5413.21153,0.06254
5415.13999,0.05230
5417.06846,0.03887
5418.99693,0.03308
5420.92540,0.04376
5422.85387,0.06017
5424.78234,0.06864
5426.71081,0.06688
5428.63928,0.06221
5430.56774,0.06602
5432.49621,0.07413
5434.42468,0.07458
5436.35315,0.06458
5438.28162,0.05947
5440.21009,0.06469
5442.13856,0.06716
5444.06702,0.05837
5445.99549,0.03943
5447.92396,0.02767
5449.85243,0.03523
5451.78090,0.05191
5453.70937,0.07227
5455.63784,0.08180
5457.56631,0.06542
5459.49477,0.04409
5461.42324,0.04118
5463.35171,0.05452
5465.28018,0.06639
5467.20865,0.06530
5469.13712,0.05471
5471.06559,0.04560
5472.99405,0.04406
5474.92252,0.04977
5476.85099,0.06353
5478.77946,0.07936
5480.70793,0.09024
5482.63640,0.09478
5484.56487,0.09144
5486.49334,0.08594
5488.42180,0.08570
5490.35027,0.08981
5492.27874,0.09543
5494.20721,0.09672
5496.13568,0.08900
5498.06415,0.06490
5499.99262,0.03150
5501.92108,0.01596
5503.84955,0.02434
5505.77802,0.04944
5507.70649,0.07438
5509.63496,0.07880
5511.56343,0.07577
5513.49190,0.07985
5515.42037,0.07977
5517.34883,0.06999
5519.27730,0.05739
5521.20577,0.04624
5523.13424,0.04567
5525.06271,0.05918
5526.99118,0.07079
5528.91965,0.07539
5530.84811,0.08339
5532.77658,0.08589
5534.70505,0.08199
5536.63352,0.08774
5538.56199,0.08861
5540.49046,0.07537
5542.41893,0.06323
5544.34740,0.05697
5546.27586,0.06225
5548.20433,0.07639
5550.13280,0.07801
5552.06127,0.06248
5553.98974,0.05142
5555.91821,0.06045
5557.84668,0.08074
5559.77514,0.09122
5561.70361,0.08004
5563.63208,0.06517
5565.56055,0.06910
5567.48902,0.08219
5569.41749,0.08627
5571.34596,0.07939
5573.27443,0.07216
5575.20289,0.07710
5577.13136,0.08641
5579.05983,0.08247
5580.98830,0.06986
5582.91677,0.06490
5584.84524,0.07160
5586.77371,0.08565
5588.70217,0.09874
5590.63064,0.10314
5592.55911,0.08742
5594.48758,0.05622
5596.41605,0.03901
5598.34452,0.04336
5600.27299,0.05440
5602.20145,0.06241
5604.12992,0.07156
5606.05839,0.09016
5607.98686,0.10953
5609.91533,0.12293
5611.84380,0.12339
5613.77227,0.09995
5615.70074,0.07995
5617.62920,0.09276
5619.55767,0.12299
5621.48614,0.14080
5623.41461,0.12805
5625.34308,0.09416
5627.27155,0.07403
5629.20002,0.08273
5631.12848,0.09856
5633.05695,0.10306
5634.98542,0.09844
5636.91389,0.09064
5638.84236,0.08175
5640.77083,0.07400
5642.69930,0.08132
5644.62777,0.10655
5646.55623,0.11691
5648.48470,0.09984
5650.41317,0.08696
5652.34164,0.09983
5654.27011,0.11399
5656.19858,0.10210
5658.12705,0.07651
5660.05551,0.05031
5661.98398,0.03806
5663.91245,0.05218
5665.84092,0.07417
5667.76939,0.08282
5669.69786,0.07762
5671.62633,0.07462
5673.55480,0.07371
5675.48326,0.06753
5677.41173,0.07044
5679.34020,0.07141
5681.26867,0.05796
5683.19714,0.05786
5685.12561,0.07134
5687.05408,0.07209
5688.98254,0.06742
5690.91101,0.07924
5692.83948,0.09386
5694.76795,0.08713
5696.69642,0.07163
5698.62489,0.07447
5700.55336,0.08590
5702.48183,0.07795
5704.41029,0.06126
5706.33876,0.05769
5708.26723,0.05743
5710.19570,0.04462
5712.12417,0.02310
5714.05264,0.01421
5715.98111,0.02334
5717.90957,0.02762
5719.83804,0.01685
5721.76651,0.00934
5723.69498,0.01180
5725.62345,0.01378
5727.55192,0.01969
5729.48039,0.03341
5731.40886,0.05324
5733.33732,0.08186
5735.26579,0.10595
5737.19426,0.11692
5739.12273,0.12589
5741.05120,0.12512
5742.97967,0.11104
5744.90814,0.10201
5746.83660,0.09682
5748.76507,0.08434
5750.69354,0.07351
5752.62201,0.06778
5754.55048,0.05688
5756.47895,0.05283
5758.40742,0.06268
5760.33588,0.07029
5762.26435,0.07381
5764.19282,0.08168
5766.12129,0.08769
5768.04976,0.08091
5769.97823,0.07080
5771.90670,0.08117
5773.83517,0.10870
5775.76363,0.11737
5777.69210,0.09551
5779.62057,0.07582
5781.54904,0.07161
5783.47751,0.07296
5785.40598,0.08531
5787.33445,0.10147
5789.26291,0.09175
5791.19138,0.06038
5793.11985,0.05399
5795.04832,0.07372
5796.97679,0.07560
5798.90526,0.06301
5800.83373,0.05398
5802.76220,0.03389
5804.69066,0.02164
5806.61913,0.03646
5808.54760,0.05079
5810.47607,0.06448
5812.40454,0.08090
5814.33301,0.08692
5816.26148,0.08168
5818.18994,0.05711
5820.11841,0.01933
5822.04688,-0.00128
5823.97535,0.00920
5825.90382,0.03297
5827.83229,0.05482
5829.76076,0.07382
5831.68923,0.08271
5833.61769,0.08154
5835.54616,0.08350
5837.47463,0.08904
5839.40310,0.08921
5841.33157,0.08342
5843.26004,0.07110
5845.18851,0.06241
5847.11697,0.07475
5849.04544,0.09211
5850.97391,0.09247
5852.90238,0.08928
5854.83085,0.09002
5856.75932,0.09346
5858.68779,0.10342
5860.61626,0.10844
5862.54472,0.09694
5864.47319,0.07607
5866.40166,0.06166
5868.33013,0.06816
5870.25860,0.08323
5872.18707,0.08041
5874.11554,0.06279
5876.04400,0.04975
5877.97247,0.03825
5879.90094,0.01521
5881.82941,0.01110
5883.75788,0.05716
5885.68635,0.09955
5887.61482,0.09113
5889.54329,0.07199
5891.47175,0.06520
5893.40022,0.05763
5895.32869,0.06130
5897.25716,0.08444
5899.18563,0.10620
5901.11410,0.10005
5903.04257,0.06066
5904.97103,0.02349
5906.89950,0.02278
5908.82797,0.03560
5910.75644,0.03367
5912.68491,0.03746
5914.61338,0.05361
5916.54185,0.06554
5918.47032,0.06707
5920.39878,0.06723
5922.32725,0.08361
5924.25572,0.09869
5926.18419,0.09323
5928.11266,0.09208
5930.04113,0.09503
5931.96960,0.06662
5933.89806,0.02025
5935.82653,0.00661
5937.75500,0.02397
5939.68347,0.05043
5941.61194,0.08804
5943.54041,0.11843
5945.46888,0.12626
5947.39734,0.12202
5949.32581,0.09693
5951.25428,0.06312
5953.18275,0.06326
5955.11122,0.07980
5957.03969,0.07004
5958.96816,0.04857
5960.89663,0.05261
5962.82509,0.06621
5964.75356,0.06118
5966.68203,0.04253
5968.61050,0.02988
5970.53897,0.04708
5972.46744,0.09068
5974.39591,0.12180
5976.32437,0.10684
5978.25284,0.06213
5980.18131,0.03037
5982.10978,0.02937
5984.03825,0.06233
5985.96672,0.09643
5987.89519,0.08564
5989.82366,0.05989
5991.75212,0.06534
5993.68059,0.09399
5995.60906,0.12033
5997.53753,0.13183
5999.46600,0.13687
6001.39447,0.14445
6003.32294,0.14608
6005.25140,0.12644
6007.17987,0.08910
6009.10834,0.06493
6011.03681,0.06603
6012.96528,0.08229
6014.89375,0.10360
6016.82222,0.11200
6018.75069,0.11018
6020.67915,0.09705
6022.60762,0.06047
6024.53609,0.03452
6026.46456,0.03655
6028.39303,0.02960
6030.32150,0.01420
6032.24997,0.02711
6034.17843,0.05171
6036.10690,0.07054
6038.03537,0.10152
6039.96384,0.14017
6041.89231,0.15996
6043.82078,0.13823
6045.74925,0.09653
6047.67772,0.09158
6049.60618,0.13547
6051.53465,0.16748
6053.46312,0.15343
6055.39159,0.10697
6057.32006,0.06577
6059.24853,0.05162
6061.17700,0.04600
6063.10546,0.05780
6065.03393,0.08776
6066.96240,0.10893
6068.89087,0.12070
6070.81934,0.12839
6072.74781,0.12782
6074.67628,0.11239
6076.60475,0.09363
6078.53321,0.07802
6080.46168,0.04101
6082.39015,-0.01028
6084.31862,-0.01955
6086.24709,0.02402
6088.17556,0.05690
6090.10403,0.06559
6092.03249,0.08405
6093.96096,0.10115
6095.88943,0.10823
6097.81790,0.11801
6099.74637,0.12325
6101.67484,0.11159
6103.60331,0.07670
6105.53177,0.04411
6107.46024,0.04654
6109.38871,0.06631
6111.31718,0.07858
6113.24565,0.08279
6115.17412,0.08558
6117.10259,0.10236
6119.03106,0.11906
6120.95952,0.10116
6122.88799,0.07619
6124.81646,0.07825
6126.74493,0.09354
6128.67340,0.10533
6130.60187,0.09378
6132.53034,0.05383
6134.45880,0.02560
6136.38727,0.03226
6138.31574,0.05522
6140.24421,0.07658
6142.17268,0.10364
6144.10115,0.13418
6146.02962,0.13168
6147.95809,0.08938
6149.88655,0.04880
6151.81502,0.04605
6153.74349,0.06504
6155.67196,0.06294
6157.60043,0.05527
6159.52890,0.08752
6161.45737,0.13798
6163.38583,0.16013
6165.31430,0.17242
6167.24277,0.19167
6169.17124,0.18179
6171.09971,0.13119
6173.02818,0.07511
6174.95665,0.04451
6176.88512,0.04690
6178.81358,0.06556
6180.74205,0.08352
6182.67052,0.10967
6184.59899,0.13568
6186.52746,0.11767
6188.45593,0.07181
6190.38440,0.07144
6192.31286,0.10261
6194.24133,0.12558
6196.16980,0.14230
6198.09827,0.15612
6200.02674,0.15082
6201.95521,0.11393
6203.88368,0.06961
6205.81215,0.05524
6207.74061,0.06795
6209.66908,0.06071
6211.59755,0.02225
6213.52602,0.03326
6215.45449,0.08803
6217.38296,0.09337
6219.31143,0.05580
6221.23989,0.03888
6223.16836,0.04687
6225.09683,0.05431
6227.02530,0.07088
6228.95377,0.09208
6230.88224,0.07559
6232.81071,0.02976
6234.73918,-0.00330
6236.66764,0.00352
6238.59611,0.05897
6240.52458,0.10877
6242.45305,0.09796
6244.38152,0.06456
6246.30999,0.05702
6248.23846,0.06518
6250.16692,0.06496
6252.09539,0.04937
6254.02386,0.03160
6255.95233,0.02230
6257.88080,0.02408
6259.80927,0.03406
6261.73774,0.03697
6263.66621,0.02539
6265.59467,0.02271
6267.52314,0.03550
6269.45161,0.04908
6271.38008,0.08082
6273.30855,0.11713
6275.23702,0.11519
6277.16549,0.11080
6279.09395,0.14140
6281.02242,0.16101
6282.95089,0.14586
6284.87936,0.12130
6286.80783,0.11214
6288.73630,0.12157
6290.66477,0.11024
6292.59323,0.07044
6294.52170,0.04301
6296.45017,0.04477
6298.37864,0.07788
6300.30711,0.11776
6302.23558,0.11688
6304.16405,0.07415
6306.09252,0.03501
6308.02098,0.00989
6309.94945,0.00545
6311.87792,0.03930
6313.80639,0.06784
6315.73486,0.07707
6317.66333,0.09484
6319.59180,0.08442
6321.52026,0.04088
6323.44873,0.04205
6325.37720,0.08728
6327.30567,0.10392
6329.23414,0.06796
6331.16261,0.02379
6333.09108,0.00514
6335.01955,-0.01958
6336.94801,-0.04038
6338.87648,-0.00768
6340.80495,0.04799
6342.73342,0.07512
6344.66189,0.07426
6346.59036,0.06426
6348.51883,0.05771
6350.44729,0.04452
6352.37576,0.04367
6354.30423,0.06609
6356.23270,0.05290
6358.16117,0.00088
6360.08964,-0.01915
6362.01811,-0.01417
6363.94658,-0.04444
6365.87504,-0.07156
6367.80351,-0.01954
6369.73198,0.06232
6371.66045,0.08291
6373.58892,0.03326
6375.51739,-0.00810
6377.44586,0.00899
6379.37432,0.05918
6381.30279,0.09842
6383.23126,0.10414
6385.15973,0.10004
6387.08820,0.09107
6389.01667,0.06396
6390.94514,0.06012
6392.87361,0.10700
6394.80207,0.13219
6396.73054,0.08520
6398.65901,0.03037
6400.58748,0.01206
6402.51595,0.00592
6404.44442,0.02173
6406.37289,0.08519
6408.30135,0.13695
6410.22982,0.13442
6412.15829,0.12316
6414.08676,0.12777
6416.01523,0.10462
6417.94370,0.04050
6419.87217,0.01452
6421.80064,0.03940
6423.72910,0.06325
6425.65757,0.06702
6427.58604,0.04165
6429.51451,0.02690
6431.44298,0.05054
6433.37145,0.05354
6435.29992,0.04452
6437.22838,0.05032
6439.15685,0.01536
6441.08532,-0.04029
6443.01379,-0.05853
6444.94226,-0.04280
6446.87073,-0.01396
6448.79920,0.01670
6450.72766,0.04828
6452.65613,0.06823
6454.58460,0.07626
6456.51307,0.09483
6458.44154,0.09905
6460.37001,0.08922
6462.29848,0.10699
6464.22695,0.11722
6466.15541,0.08949
6468.08388,0.04557
6470.01235,0.01038
6471.94082,0.02692
6473.86929,0.06981
6475.79776,0.10223
6477.72623,0.13418
6479.65469,0.14910
6481.58316,0.11378
6483.51163,0.03719
6485.44010,-0.00739
6487.36857,0.00555
6489.29704,0.03057
6491.22551,0.03143
6493.15398,0.02053
6495.08244,0.03962
6497.01091,0.08464
6498.93938,0.09928
6500.86785,0.06701
6502.79632,0.04442
6504.72479,0.06354
6506.65326,0.09828
6508.58172,0.10692
6510.51019,0.08284
6512.43866,0.06366
6514.36713,0.05819
6516.29560,0.04738
6518.22407,0.04247
6520.15254,0.07036
6522.08101,0.12092
6524.00947,0.14446
6525.93794,0.11500
6527.86641,0.05995
6529.79488,-0.01894
6531.72335,-0.07439
6533.65182,-0.02975
6535.58029,0.05096
6537.50875,0.07815
6539.43722,0.07831
6541.36569,0.10922
6543.29416,0.13100
6545.22263,0.08086
6547.15110,0.01006
6549.07957,-0.01230
6551.00804,0.01704
6552.93650,0.03136
6554.86497,0.03225
6556.79344,0.05829
6558.72191,0.07533
6560.65038,0.07932
6562.57885,0.12162
6564.50732,0.15749
6566.43578,0.11826
6568.36425,0.08294
6570.29272,0.05971
6572.22119,0.01075
6574.14966,0.00976
6576.07813,0.03710
6578.00660,0.02318
6579.93507,0.00163
6581.86353,-0.00832
6583.79200,-0.02214
6585.72047,-0.01635
6587.64894,0.01445
6589.57741,0.06652
6591.50588,0.11929
6593.43435,0.11173
6595.36281,0.07022
6597.29128,0.07362
6599.21975,0.06470
6601.14822,0.01865
6603.07669,0.04820
6605.00516,0.10298
6606.93363,0.06558
6608.86210,0.01733
6610.79056,0.03179
6612.71903,0.05648
6614.64750,0.10411
6616.57597,0.20062
6618.50444,0.24538
6620.43291,0.16142
6622.36138,0.02702
6624.28984,-0.03929
6626.21831,-0.03599
6628.14678,-0.01923
6630.07525,-0.00006
6632.00372,0.03158
6633.93219,0.06976
6635.86066,0.07046
6637.78912,-0.00494
6639.71759,-0.07527
6641.64606,-0.04411
6643.57453,0.05136
6645.50300,0.09553
6647.43147,0.06371
6649.35994,0.02332
6651.28841,0.00804
6653.21687,0.01619
6655.14534,0.03073
6657.07381,0.02599
6659.00228,0.02849
6660.93075,0.04001
6662.85922,0.04247
6664.78769,0.04220
6666.71615,0.02309
6668.64462,0.02727
6670.57309,0.05714
6672.50156,0.02309
6674.43003,-0.00643
6676.35850,0.04481
6678.28697,0.07840
6680.21544,0.08351
6682.14390,0.12498
6684.07237,0.16691
6686.00084,0.17055
6687.92931,0.17192
6689.85778,0.19104
6691.78625,0.17584
6693.71472,0.12684
6695.64318,0.12949
6697.57165,0.19174
6699.50012,0.20040
6701.42859,0.15961
6703.35706,0.15341
6705.28553,0.15247
6707.21400,0.11023
6709.14247,0.06532
6711.07093,0.08207
6712.99940,0.14126
6714.92787,0.14623
6716.85634,0.06993
6718.78481,0.00841
6720.71328,0.02365
6722.64175,0.03765
6724.57021,0.00108
6726.49868,-0.02807
6728.42715,-0.02515
6730.35562,0.00360
6732.28409,0.02232
6734.21256,0.00975
6736.14103,0.01695
6738.06950,0.04404
6739.99796,0.07067
6741.92643,0.09794
6743.85490,0.07225
6745.78337,0.04592
6747.71184,0.09709
6749.64031,0.16593
6751.56878,0.19964
6753.49724,0.19826
6755.42571,0.17286
6757.35418,0.13627
6759.28265,0.06971
6761.21112,-0.01047
6763.13959,-0.03004
6765.06806,0.02213
6766.99653,0.09357
6768.92499,0.13476
6770.85346,0.09687
6772.78193,0.01057
6774.71040,-0.01450
6776.63887,0.01174
6778.56734,-0.00207
6780.49581,-0.02487
6782.42427,-0.01209
6784.35274,0.01658
6786.28121,0.07752
6788.20968,0.12965
6790.13815,0.07722
6792.06662,0.00919
6793.99509,0.04192
6795.92355,0.07399
6797.85202,0.03975
6799.78049,0.00643
6801.70896,0.03037
6803.63743,0.07344
6805.56590,0.08470
6807.49437,0.07104
6809.42284,0.04386
6811.35130,0.03401
6813.27977,0.04413
6815.20824,0.04261
6817.13671,0.05155
6819.06518,0.06081
6820.99365,0.05207
6822.92212,0.06336
6824.85058,0.09340
6826.77905,0.11095
6828.70752,0.11581
6830.63599,0.09577
6832.56446,0.06205
6834.49293,0.00910
6836.42140,-0.05699
6838.34987,-0.04443
6840.27833,0.02450
6842.20680,0.07573
6844.13527,0.10274
6846.06374,0.08290
6847.99221,0.02372
6849.92068,-0.00655
6851.84915,0.02561
6853.77761,0.06931
6855.70608,0.04965
6857.63455,-0.02240
6859.56302,-0.10030
6861.49149,-0.15264
6863.41996,-0.10674
6865.34843,0.00494
6867.27690,0.06644
6869.20536,0.03762
6871.13383,-0.01060
6873.06230,0.00610
6874.99077,0.02834
6876.91924,-0.02559
6878.84771,-0.05516
6880.77618,0.01155
6882.70464,0.03649
6884.63311,-0.01073
6886.56158,-0.01091
6888.49005,0.03561
6890.41852,0.05998
6892.34699,0.08779
6894.27546,0.10449
6896.20393,0.07874
6898.13239,0.06342
6900.06086,0.07276
6901.98933,0.09394
6903.91780,0.12307
6905.84627,0.11020
6907.77474,0.05557
6909.70321,0.01780
6911.63167,0.00580
6913.56014,-0.03678
6915.48861,-0.06971
6917.41708,-0.01332
6919.34555,0.04794
6921.27402,0.07629
6923.20249,0.11494
6925.13096,0.10502
6927.05942,0.03270
6928.98789,-0.04174
6930.91636,-0.08222
6932.84483,-0.10996
6934.77330,-0.09870
6936.70177,-0.03015
6938.63024,0.06257
6940.55870,0.12133
6942.48717,0.07651
6944.41564,0.01301
6946.34411,0.04628
6948.27258,0.09509
6950.20105,0.06985
6952.12952,0.05660
6954.05799,0.07102
6955.98645,0.04561
6957.91492,0.02779
6959.84339,0.05433
6961.77186,0.06302
6963.70033,0.02385
6965.62880,-0.00060
6967.55727,0.04030
6969.48573,0.11220
6971.41420,0.14199
6973.34267,0.10089
6975.27114,0.03018
6977.19961,-0.00160
6979.12808,-0.00578
6981.05655,-0.04789
6982.98501,-0.10186
6984.91348,-0.06280
6986.84195,-0.00258
6988.77042,-0.02321
6990.69889,-0.01445
6992.62736,0.05797
6994.55583,0.07844
6996.48430,0.02781
6998.41276,0.00792
7000.34123,0.08317
7002.26970,0.16465
7004.19817,0.15638
7006.12664,0.09231
7008.05511,0.05309
7009.98358,0.04284
7011.91204,0.00909
7013.84051,-0.03046
7015.76898,-0.01648
7017.69745,0.01745
7019.62592,0.03576
7021.55439,0.02194
7023.48286,-0.04800
7025.41133,-0.10533
7027.33979,-0.04714
7029.26826,0.07961
7031.19673,0.13199
7033.12520,0.11794
7035.05367,0.10748
7036.98214,0.09430
7038.91061,0.05549
7040.83907,0.03954
7042.76754,0.06076
7044.69601,0.05820
7046.62448,0.03112
7048.55295,-0.01851
7050.48142,-0.09592
7052.40989,-0.12413
7054.33836,-0.05477
7056.26682,0.00038
7058.19529,-0.03742
7060.12376,-0.05963
7062.05223,-0.01723
7063.98070,0.05995
7065.90917,0.14837
7067.83764,0.20959
7069.76610,0.18467
7071.69457,0.07581
7073.62304,-0.00156
7075.55151,0.00818
7077.47998,0.00933
7079.40845,-0.06688
7081.33692,-0.05538
7083.26539,0.10287
7085.19385,0.13828
7087.12232,0.03344
7089.05079,-0.02935
7090.97926,-0.03228
7092.90773,-0.01494
7094.83620,0.03638
7096.76467,0.06622
7098.69313,0.03502
7100.62160,0.01422
7102.55007,0.02222
7104.47854,0.01994
7106.40701,0.02335
7108.33548,0.01610
7110.26395,0.01571
7112.19242,0.09907
7114.12088,0.18614
7116.04935,0.16081
7117.97782,0.05847
7119.90629,0.00535
7121.83476,0.00845
7123.76323,-0.00685
7125.69170,-0.04695
7127.62016,-0.06864
7129.54863,-0.06936
7131.47710,-0.07126
7133.40557,-0.07687
7135.33404,-0.07862
7137.26251,-0.06608
7139.19098,-0.01213
7141.11944,0.08323
7143.04791,0.13947
7144.97638,0.11726
7146.90485,0.12888
7148.83332,0.20659
7150.76179,0.27198
7152.69026,0.29980
7154.61873,0.23563
7156.54719,0.14913
7158.47566,0.16002
7160.40413,0.17412
7162.33260,0.13554
7164.26107,0.10998
7166.18954,0.08097
7168.11801,0.01357
7170.04647,-0.09609
7171.97494,-0.11636
7173.90341,0.06197
7175.83188,0.23793
7177.76035,0.22414
7179.68882,0.13119
7181.61729,0.09289
7183.54576,0.13945
7185.47422,0.22756
7187.40269,0.29094
7189.33116,0.24701
7191.25963,0.06071
7193.18810,-0.11099
7195.11657,-0.10411
7197.04504,0.02996
7198.97350,0.12850
7200.90197,0.14045
7202.83044,0.11443
7204.75891,0.10060
7206.68738,0.14334
7208.61585,0.15877
7210.54432,0.09908
7212.47279,0.07794
7214.40125,0.15176
7216.32972,0.19359
7218.25819,0.08426
7220.18666,-0.03953
7222.11513,-0.05284
7224.04360,-0.03106
7225.97207,-0.00367
7227.90053,0.09350
7229.82900,0.14466
7231.75747,-0.00381
7233.68594,-0.15399
7235.61441,-0.20885
7237.54288,-0.19374
7239.47135,-0.13160
7241.39982,-0.11767
7243.32828,-0.06360
7245.25675,0.05977
7247.18522,0.06216
7249.11369,0.01789
7251.04216,0.12444
7252.97063,0.23284
7254.89910,0.10126
7256.82756,-0.00639
7258.75603,0.03723
7260.68450,0.13294
7262.61297,0.10965
7264.54144,0.02454
7266.46991,0.07954
7268.39838,0.19157
7270.32685,0.22263
7272.25531,0.14586
7274.18378,0.00698
7276.11225,-0.06095
7278.04072,-0.00742
7279.96919,0.13468
7281.89766,0.17064
7283.82613,0.05745
7285.75459,-0.00947
7287.68306,0.01231
7289.61153,0.05642
7291.54000,0.11509
7293.46847,0.16601
7295.39694,0.17970
7297.32541,0.17257
7299.25387,0.09470
7301.18234,-0.05243
7303.11081,-0.14278
7305.03928,-0.10450
7306.96775,0.07941
7308.89622,0.25613
7310.82469,0.14417
7312.75316,-0.03852
7314.68162,-0.02044
7316.61009,0.13810
7318.53856,0.21873
7320.46703,0.21341
7322.39550,0.13885
7324.32397,0.05650
7326.25244,0.10406
7328.18090,0.25506
7330.10937,0.27327
7332.03784,0.07685
7333.96631,-0.07160
7335.89478,-0.09542
7337.82325,-0.09426
7339.75172,-0.09636
7341.68019,0.00613
7343.60865,0.15587
7345.53712,0.21701
7347.46559,0.21226
7349.39406,0.12977
7351.32253,-0.00136
7353.25100,0.02510
7355.17947,0.25495
7357.10793,0.43127
7359.03640,0.34659
7360.96487,0.17996
7362.89334,-0.01919
7364.82181,-0.16989
7366.75028,-0.08930
7368.67875,0.11714
7370.60722,0.28190
7372.53568,0.38117
7374.46415,0.34824
7376.39262,0.14132
7378.32109,0.02645
7380.24956,0.00408
7382.17803,-0.04312
7384.10650,-0.08483
7386.03496,-0.11295
7387.96343,-0.16634
7389.89190,-0.16911
7391.82037,-0.11237
7393.74884,-0.03074
7395.67731,0.05083
7397.60578,0.09235
7399.53425,0.12695
7401.46271,0.15422
7403.39118,0.11753
7405.31965,0.04404
7407.24812,-0.00949
7409.17659,-0.07035
7411.10506,-0.13295
7413.03353,-0.08935
7414.96199,0.04239
7416.89046,0.09891
7418.81893,0.05361
7420.74740,0.02585
7422.67587,-0.08246
7424.60434,-0.22022
7426.53281,-0.22121
7428.46128,-0.09216
7430.38974,0.01467
7432.31821,-0.04639
7434.24668,-0.16676
7436.17515,-0.13520
7438.10362,0.04641
7440.03209,0.14374
7441.96056,0.08416
7443.88902,0.07113
7445.81749,0.11584
7447.74596,0.09373
7449.67443,0.08417
7451.60290,0.11841
7453.53137,0.04841
7455.45984,-0.01560
7457.38831,0.06488
7459.31677,0.21068
7461.24524,0.20857
7463.17371,0.09677
7465.10218,0.05993
7467.03065,0.13835
7468.95912,0.23081
7470.88759,0.25943
7472.81605,0.22976
7474.74452,0.20420
7476.67299,0.19990
7478.60146,0.17044
7480.52993,0.15650
7482.45840,0.13552
7484.38687,0.03466
7486.31533,-0.01372
7488.24380,0.01746
7490.17227,0.02099
7492.10074,-0.00039
7494.02921,-0.00506
7495.95768,0.02211
7497.88615,0.11020
