399.19301,2.78960
401.12148,-0.10914
403.04995,-0.12283
404.97842,-0.19046
406.90689,-0.27663
408.83536,-0.21904
410.76382,-0.12200
412.69229,-0.08560
414.62076,-0.06784
416.54923,-0.02313
418.47770,0.09670
420.40617,0.17427
422.33464,0.18320
424.26311,0.23846
426.19157,0.25344
428.12004,0.16117
430.04851,0.04605
431.97698,-0.00742
433.90545,0.00172
435.83392,0.03544
437.76239,0.07374
439.69085,0.10941
441.61932,0.10231
443.54779,0.04702
445.47626,-0.00595
447.40473,-0.05266
449.33320,-0.04103
451.26167,0.03788
453.19013,0.09266
455.11860,0.12920
457.04707,0.15160
458.97554,0.08773
460.90401,0.02475
462.83248,0.02363
464.76095,0.04815
466.68942,0.09048
468.61788,0.12727
470.54635,0.16552
472.47482,0.24941
474.40329,0.27784
476.33176,0.16548
478.26023,0.07298
480.18870,0.04539
482.11716,0.08163
484.04563,0.13953
485.97410,0.13740
487.90257,0.09238
489.83104,0.10080
491.75951,0.14840
493.68798,0.14344
495.61645,0.09774
497.54491,0.07578
499.47338,0.06737
501.40185,0.05330
503.33032,0.05941
505.25879,0.08900
507.18726,0.11436
509.11573,0.10414
511.04419,0.07945
512.97266,0.06607
514.90113,0.04894
516.82960,0.04378
518.75807,0.06658
520.68654,0.08571
522.61501,0.09947
524.54348,0.11986
526.47194,0.12616
528.40041,0.10321
530.32888,0.07681
532.25735,0.06451
534.18582,0.05290
536.11429,0.04342
538.04276,0.06467
539.97122,0.11100
541.89969,0.13484
543.82816,0.11513
545.75663,0.09097
547.68510,0.08436
549.61357,0.06526
551.54204,0.02334
553.47051,0.00587
555.39897,0.03405
557.32744,0.06879
559.25591,0.08373
561.18438,0.08207
563.11285,0.07246
565.04132,0.05789
566.96979,0.04587
568.89825,0.05724
570.82672,0.06835
572.75519,0.06093
574.68366,0.06243
576.61213,0.07625
578.54060,0.08915
580.46907,0.10076
582.39754,0.11173
584.32600,0.11832
586.25447,0.11546
588.18294,0.10634
590.11141,0.09895
592.03988,0.09847
593.96835,0.09444
595.89682,0.08481
597.82528,0.09579
599.75375,0.12129
601.68222,0.11999
603.61069,0.10139
605.53916,0.10558
607.46763,0.11437
609.39610,0.10705
611.32456,0.10492
613.25303,0.11371
615.18150,0.12160
617.10997,0.12343
619.03844,0.11652
620.96691,0.10732
622.89538,0.10715
624.82385,0.11277
626.75231,0.10804
628.68078,0.10044
630.60925,0.10766
632.53772,0.11790
634.46619,0.12165
636.39466,0.11866
638.32313,0.10740
640.25159,0.09725
642.18006,0.09044
644.10853,0.08607
646.03700,0.09110
647.96547,0.09852
649.89394,0.09425
651.82241,0.08287
653.75088,0.07683
655.67934,0.08011
657.60781,0.08889
659.53628,0.09809
661.46475,0.10607
663.39322,0.10910
665.32169,0.10484
667.25016,0.09839
669.17862,0.10139
671.10709,0.10853
673.03556,0.10557
674.96403,0.09959
676.89250,0.10615
678.82097,0.11793
680.74944,0.12133
682.67791,0.11760
684.60637,0.11423
686.53484,0.12168
688.46331,0.13213
690.39178,0.12752
692.32025,0.11189
694.24872,0.10028
696.17719,0.10049
698.10565,0.11233
700.03412,0.12413
701.96259,0.12040
703.89106,0.10321
705.81953,0.08948
707.74800,0.08905
709.67647,0.10267
711.60494,0.12409
713.53340,0.13328
715.46187,0.12075
717.39034,0.11102
719.31881,0.12092
721.24728,0.13092
723.17575,0.12665
725.10422,0.12266
727.03268,0.12578
728.96115,0.12597
730.88962,0.11808
732.81809,0.10787
734.74656,0.10555
736.67503,0.11244
738.60350,0.12019
740.53197,0.12404
742.46043,0.12603
744.38890,0.12381
746.31737,0.11573
748.24584,0.11346
750.17431,0.12233
752.10278,0.12604
754.03125,0.11510
755.95971,0.10409
757.88818,0.09944
759.81665,0.09383
761.74512,0.09375
763.67359,0.10387
765.60206,0.11064
767.53053,0.11052
769.45900,0.11444
771.38746,0.12065
773.31593,0.11872
775.24440,0.11030
777.17287,0.10332
779.10134,0.10043
781.02981,0.10348
782.95828,0.10977
784.88674,0.11307
786.81521,0.11540
788.74368,0.11950
790.67215,0.12336
792.60062,0.12409
794.52909,0.11852
796.45756,0.10853
798.38602,0.10334
800.31449,0.10847
802.24296,0.11848
804.17143,0.12492
806.09990,0.12328
808.02837,0.11685
809.95684,0.10985
811.88531,0.09859
813.81377,0.08827
815.74224,0.08904
817.67071,0.09537
819.59918,0.10014
821.52765,0.10458
823.45612,0.11224
825.38459,0.12133
827.31305,0.11857
829.24152,0.10538
831.16999,0.10428
833.09846,0.11729
835.02693,0.12251
836.95540,0.11707
838.88387,0.11534
840.81234,0.11794
842.74080,0.11931
844.66927,0.11925
846.59774,0.11879
848.52621,0.12130
850.45468,0.12906
852.38315,0.13375
854.31162,0.13147
856.24008,0.12999
858.16855,0.12955
860.09702,0.12466
862.02549,0.11788
863.95396,0.11805
865.88243,0.12425
867.81090,0.11784
869.73937,0.09549
871.66783,0.09301
873.59630,0.12065
875.52477,0.14124
877.45324,0.14516
879.38171,0.14592
881.31018,0.14403
883.23865,0.13969
885.16711,0.13377
887.09558,0.12942
889.02405,0.12891
890.95252,0.12720
892.88099,0.12195
894.80946,0.11938
896.73793,0.12210
898.66640,0.12154
900.59486,0.11639
902.52333,0.11536
904.45180,0.11945
906.38027,0.12322
908.30874,0.12559
910.23721,0.12801
912.16568,0.12799
914.09414,0.12714
916.02261,0.12866
917.95108,0.12756
919.87955,0.12779
921.80802,0.13408
923.73649,0.13740
925.66496,0.13635
927.59343,0.13605
929.52189,0.13435
931.45036,0.12905
933.37883,0.12430
935.30730,0.12272
937.23577,0.12181
939.16424,0.12266
941.09271,0.12587
943.02117,0.12732
944.94964,0.12698
946.87811,0.12703
948.80658,0.12650
950.73505,0.12597
952.66352,0.12609
954.59199,0.12656
956.52045,0.12997
958.44892,0.13668
960.37739,0.14190
962.30586,0.14118
964.23433,0.13467
966.16280,0.12516
968.09127,0.11827
970.01974,0.11845
971.94820,0.12270
973.87667,0.12699
975.80514,0.12793
977.73361,0.12539
979.66208,0.12545
981.59055,0.12996
983.51902,0.13570
985.44748,0.13965
987.37595,0.14134
989.30442,0.14308
991.23289,0.14326
993.16136,0.13887
995.08983,0.13561
997.01830,0.13559
998.94677,0.13125
1000.87523,0.12704
1002.80370,0.13099
1004.73217,0.13633
1006.66064,0.13862
1008.58911,0.13903
1010.51758,0.13386
1012.44605,0.12903
1014.37451,0.13433
1016.30298,0.14116
1018.23145,0.13938
1020.15992,0.13269
1022.08839,0.12835
1024.01686,0.13079
1025.94533,0.13546
1027.87380,0.13456
1029.80226,0.13139
1031.73073,0.12997
1033.65920,0.12845
1035.58767,0.13188
1037.51614,0.13877
1039.44461,0.14171
1041.37308,0.14531
1043.30154,0.14940
1045.23001,0.14728
1047.15848,0.14044
1049.08695,0.13607
1051.01542,0.14016
1052.94389,0.14858
1054.87236,0.15217
1056.80083,0.15074
1058.72929,0.14760
1060.65776,0.14399
1062.58623,0.14479
1064.51470,0.15147
1066.44317,0.15763
1068.37164,0.15932
1070.30011,0.15695
1072.22857,0.15368
1074.15704,0.15162
1076.08551,0.14910
1078.01398,0.14975
1079.94245,0.15423
1081.87092,0.15312
1083.79939,0.14650
1085.72786,0.14188
1087.65632,0.13786
1089.58479,0.13286
1091.51326,0.13407
1093.44173,0.14337
1095.37020,0.15193
1097.29867,0.15505
1099.22714,0.15417
1101.15560,0.15275
1103.08407,0.15236
1105.01254,0.14945
1106.94101,0.14546
1108.86948,0.14453
1110.79795,0.14701
1112.72642,0.15074
1114.65489,0.15011
1116.58335,0.14552
1118.51182,0.14409
1120.44029,0.14397
1122.36876,0.14122
1124.29723,0.14163
1126.22570,0.14513
1128.15417,0.14410
1130.08263,0.14098
1132.01110,0.14070
1133.93957,0.14214
1135.86804,0.14545
1137.79651,0.14570
1139.72498,0.14017
1141.65345,0.14059
1143.58191,0.14913
1145.51038,0.15547
1147.43885,0.15750
1149.36732,0.15676
1151.29579,0.15386
1153.22426,0.15144
1155.15273,0.15305
1157.08120,0.15806
1159.00966,0.15992
1160.93813,0.15684
1162.86660,0.15349
1164.79507,0.15271
1166.72354,0.15495
1168.65201,0.15932
1170.58048,0.16170
1172.50894,0.15903
1174.43741,0.15666
1176.36588,0.15848
1178.29435,0.15756
1180.22282,0.15157
1182.15129,0.14756
1184.07976,0.14786
1186.00823,0.14973
1187.93669,0.15215
1189.86516,0.15297
1191.79363,0.15089
1193.72210,0.15125
1195.65057,0.15611
1197.57904,0.15908
1199.50751,0.15617
1201.43597,0.15206
1203.36444,0.15413
1205.29291,0.16030
1207.22138,0.16146
1209.14985,0.15731
1211.07832,0.15530
1213.00679,0.15752
1214.93526,0.15886
1216.86372,0.15574
1218.79219,0.15123
1220.72066,0.15155
1222.64913,0.15692
1224.57760,0.16084
1226.50607,0.16056
1228.43454,0.15852
1230.36300,0.15729
1232.29147,0.15827
1234.21994,0.15931
1236.14841,0.15670
1238.07688,0.15146
1240.00535,0.14833
1241.93382,0.14890
1243.86229,0.15011
1245.79075,0.14996
1247.71922,0.15283
1249.64769,0.15954
1251.57616,0.16014
1253.50463,0.15436
1255.43310,0.15290
1257.36157,0.15409
1259.29003,0.15142
1261.21850,0.14956
1263.14697,0.15222
1265.07544,0.15322
1267.00391,0.14984
1268.93238,0.14707
1270.86085,0.14851
1272.78932,0.15107
1274.71778,0.15036
1276.64625,0.15093
1278.57472,0.15667
1280.50319,0.15979
1282.43166,0.15687
1284.36013,0.15416
1286.28860,0.15277
1288.21706,0.15262
1290.14553,0.15581
1292.07400,0.15842
1294.00247,0.15614
1295.93094,0.15085
1297.85941,0.14560
1299.78788,0.13861
1301.71634,0.12524
1303.64481,0.11039
1305.57328,0.11352
1307.50175,0.13864
1309.43022,0.15910
1311.35869,0.16283
1313.28716,0.16327
1315.21563,0.16379
1317.14409,0.16303
1319.07256,0.16415
1321.00103,0.16482
1322.92950,0.16415
1324.85797,0.16141
1326.78644,0.15718
1328.71491,0.15633
1330.64337,0.15448
1332.57184,0.15135
1334.50031,0.15272
1336.42878,0.15411
1338.35725,0.15375
1340.28572,0.15027
1342.21419,0.14656
1344.14266,0.14910
1346.07112,0.15071
1347.99959,0.15064
1349.92806,0.15408
1351.85653,0.15631
1353.78500,0.15604
1355.71347,0.15605
1357.64194,0.15685
1359.57040,0.16162
1361.49887,0.17244
1363.42734,0.17922
1365.35581,0.17427
1367.28428,0.16743
1369.21275,0.16774
1371.14122,0.17500
1373.06969,0.18277
1374.99815,0.18345
1376.92662,0.17725
1378.85509,0.17224
1380.78356,0.17014
1382.71203,0.17054
1384.64050,0.17465
1386.56897,0.17870
1388.49743,0.17785
1390.42590,0.17567
1392.35437,0.17702
1394.28284,0.18169
1396.21131,0.18396
1398.13978,0.17991
1400.06825,0.17369
1401.99672,0.17348
1403.92518,0.18021
1405.85365,0.18423
1407.78212,0.18132
1409.71059,0.17774
1411.63906,0.17485
1413.56753,0.17504
1415.49600,0.18186
1417.42446,0.19009
1419.35293,0.18908
1421.28140,0.18208
1423.20987,0.17849
1425.13834,0.17774
1427.06681,0.17820
1428.99528,0.17995
1430.92375,0.18143
1432.85221,0.18147
1434.78068,0.18385
1436.70915,0.18679
1438.63762,0.18241
1440.56609,0.17648
1442.49456,0.17484
1444.42303,0.17747
1446.35149,0.18069
1448.27996,0.18085
1450.20843,0.18083
1452.13690,0.18398
1454.06537,0.18967
1455.99384,0.19709
1457.92231,0.19628
1459.85077,0.18775
1461.77924,0.18512
1463.70771,0.18573
1465.63618,0.18333
1467.56465,0.18033
1469.49312,0.18487
1471.42159,0.19779
1473.35006,0.20255
1475.27852,0.19180
1477.20699,0.18416
1479.13546,0.18128
1481.06393,0.17961
1482.99240,0.17959
1484.92087,0.18282
1486.84934,0.19202
1488.77780,0.20331
1490.70627,0.20171
1492.63474,0.19284
1494.56321,0.18855
1496.49168,0.18921
1498.42015,0.19093
1500.34862,0.18947
1502.27709,0.18845
1504.20555,0.19348
1506.13402,0.20692
1508.06249,0.21282
1509.99096,0.20487
1511.91943,0.19676
1513.84790,0.19364
1515.77637,0.19760
1517.70483,0.20377
1519.63330,0.20865
1521.56177,0.20897
1523.49024,0.20295
1525.41871,0.19955
1527.34718,0.19736
1529.27565,0.19472
1531.20412,0.19449
1533.13258,0.19635
1535.06105,0.19806
1536.98952,0.20150
1538.91799,0.20869
1540.84646,0.21274
1542.77493,0.20750
1544.70340,0.19866
1546.63186,0.19093
1548.56033,0.18959
1550.48880,0.19371
1552.41727,0.19810
1554.34574,0.20249
1556.27421,0.21180
1558.20268,0.22633
1560.13115,0.21546
1562.05961,0.19608
1563.98808,0.18802
1565.91655,0.18773
1567.84502,0.19302
1569.77349,0.19949
1571.70196,0.20195
1573.63043,0.20410
1575.55889,0.20492
1577.48736,0.19770
1579.41583,0.18946
1581.34430,0.18580
1583.27277,0.18583
1585.20124,0.18632
1587.12971,0.18577
1589.05818,0.18549
1590.98664,0.18611
1592.91511,0.18764
1594.84358,0.18861
1596.77205,0.18760
1598.70052,0.18596
1600.62899,0.18540
1602.55746,0.18698
1604.48592,0.18965
1606.41439,0.19161
1608.34286,0.19272
1610.27133,0.19209
1612.19980,0.19114
1614.12827,0.19451
1616.05674,0.20084
1617.98521,0.20028
1619.91367,0.19813
1621.84214,0.20069
1623.77061,0.20144
1625.69908,0.19752
1627.62755,0.19315
1629.55602,0.19038
1631.48449,0.19322
1633.41295,0.20210
1635.34142,0.20999
1637.26989,0.20455
1639.19836,0.19672
1641.12683,0.19437
1643.05530,0.19673
1644.98377,0.20609
1646.91223,0.21832
1648.84070,0.21818
1650.76917,0.21738
1652.69764,0.22158
1654.62611,0.21312
1656.55458,0.20182
1658.48305,0.19716
1660.41152,0.19513
1662.33998,0.19061
1664.26845,0.18940
1666.19692,0.19706
1668.12539,0.20683
1670.05386,0.20958
1671.98233,0.20904
1673.91080,0.21257
1675.83926,0.21229
1677.76773,0.20794
1679.69620,0.20905
1681.62467,0.21785
1683.55314,0.22733
1685.48161,0.21915
1687.41008,0.20765
1689.33855,0.20315
1691.26701,0.20028
1693.19548,0.20009
1695.12395,0.20794
1697.05242,0.22177
1698.98089,0.23024
1700.90936,0.22494
1702.83783,0.21504
1704.76629,0.21010
1706.69476,0.20528
1708.62323,0.20042
1710.55170,0.19760
1712.48017,0.19840
1714.40864,0.20540
1716.33711,0.21319
1718.26558,0.20909
1720.19404,0.19900
1722.12251,0.19123
1724.05098,0.18672
1725.97945,0.18693
1727.90792,0.19102
1729.83639,0.19688
1731.76486,0.20228
1733.69332,0.20360
1735.62179,0.19979
1737.55026,0.19835
1739.47873,0.20119
1741.40720,0.20477
1743.33567,0.20415
1745.26414,0.20146
1747.19261,0.20210
1749.12107,0.20459
1751.04954,0.20135
1752.97801,0.19611
1754.90648,0.19549
1756.83495,0.19648
1758.76342,0.19445
1760.69189,0.19079
1762.62035,0.18825
1764.54882,0.18978
1766.47729,0.19608
1768.40576,0.20350
1770.33423,0.20933
1772.26270,0.21092
1774.19117,0.20336
1776.11964,0.19453
1778.04810,0.19176
1779.97657,0.19361
1781.90504,0.19360
1783.83351,0.19216
1785.76198,0.19301
1787.69045,0.19463
1789.61892,0.19595
1791.54738,0.19752
1793.47585,0.19747
1795.40432,0.19512
1797.33279,0.19322
1799.26126,0.19231
1801.18973,0.19131
1803.11820,0.19061
1805.04666,0.19077
1806.97513,0.19128
1808.90360,0.19279
1810.83207,0.19463
1812.76054,0.19335
1814.68901,0.19039
1816.61748,0.18860
1818.54595,0.18677
1820.47441,0.18490
1822.40288,0.18724
1824.33135,0.19276
1826.25982,0.19494
1828.18829,0.19596
1830.11676,0.19686
1832.04523,0.19339
1833.97369,0.18911
1835.90216,0.18811
1837.83063,0.18937
1839.75910,0.18945
1841.68757,0.19049
1843.61604,0.19380
1845.54451,0.19414
1847.47298,0.19413
1849.40144,0.19599
1851.32991,0.19523
1853.25838,0.19198
1855.18685,0.18882
1857.11532,0.18614
1859.04379,0.18524
1860.97226,0.18763
1862.90072,0.19091
1864.82919,0.19237
1866.75766,0.19443
1868.68613,0.19695
1870.61460,0.19450
1872.54307,0.18967
1874.47154,0.18734
1876.40001,0.18770
1878.32847,0.18782
1880.25694,0.18655
1882.18541,0.18640
1884.11388,0.18817
1886.04235,0.19063
1887.97082,0.19412
1889.89929,0.19691
1891.82775,0.19746
1893.75622,0.19809
1895.68469,0.19724
1897.61316,0.19344
1899.54163,0.19094
1901.47010,0.19164
1903.39857,0.19415
1905.32704,0.19719
1907.25550,0.19858
1909.18397,0.19676
1911.11244,0.19341
1913.04091,0.19155
1914.96938,0.19249
1916.89785,0.19491
1918.82632,0.19616
1920.75478,0.19605
1922.68325,0.19537
1924.61172,0.19322
1926.54019,0.19036
1928.46866,0.18853
1930.39713,0.18828
1932.32560,0.18841
1934.25407,0.18807
1936.18253,0.18847
1938.11100,0.19042
1940.03947,0.19306
1941.96794,0.19429
1943.89641,0.19305
1945.82488,0.19162
1947.75335,0.19182
1949.68181,0.19277
1951.61028,0.19241
1953.53875,0.19036
1955.46722,0.18819
1957.39569,0.18805
1959.32416,0.18951
1961.25263,0.19012
1963.18110,0.19110
1965.10956,0.19359
1967.03803,0.19527
1968.96650,0.19549
1970.89497,0.19524
1972.82344,0.19488
1974.75191,0.19521
1976.68038,0.19704
1978.60884,0.19987
1980.53731,0.20049
1982.46578,0.19698
1984.39425,0.19320
1986.32272,0.19158
1988.25119,0.19068
1990.17966,0.19119
1992.10812,0.19310
1994.03659,0.19386
1995.96506,0.19432
1997.89353,0.19573
1999.82200,0.19574
2001.75047,0.19342
2003.67894,0.19220
2005.60741,0.19378
2007.53587,0.19530
2009.46434,0.19431
2011.39281,0.19231
2013.32128,0.19280
2015.24975,0.19555
2017.17822,0.19684
2019.10669,0.19525
2021.03515,0.19228
2022.96362,0.19020
2024.89209,0.19007
2026.82056,0.19126
2028.74903,0.19344
2030.67750,0.19631
2032.60597,0.19827
2034.53444,0.19664
2036.46290,0.19276
2038.39137,0.19133
2040.31984,0.19170
2042.24831,0.19148
2044.17678,0.19173
2046.10525,0.19241
2048.03372,0.19349
2049.96218,0.19468
2051.89065,0.19376
2053.81912,0.19194
2055.74759,0.19276
2057.67606,0.19581
2059.60453,0.19770
2061.53300,0.19723
2063.46147,0.19612
2065.38993,0.19623
2067.31840,0.19725
2069.24687,0.19684
2071.17534,0.19458
2073.10381,0.19338
2075.03228,0.19479
2076.96075,0.19618
2078.88921,0.19688
2080.81768,0.19941
2082.74615,0.20227
2084.67462,0.20142
2086.60309,0.19715
2088.53156,0.19341
2090.46003,0.19210
2092.38850,0.19310
2094.31696,0.19596
2096.24543,0.19764
2098.17390,0.19711
2100.10237,0.19759
2102.03084,0.19970
2103.95931,0.20076
2105.88778,0.19968
2107.81624,0.19880
2109.74471,0.20002
2111.67318,0.20110
2113.60165,0.19974
2115.53012,0.19753
2117.45859,0.19627
2119.38706,0.19565
2121.31553,0.19540
2123.24399,0.19542
2125.17246,0.19644
2127.10093,0.19748
2129.02940,0.19583
2130.95787,0.19312
2132.88634,0.19260
2134.81481,0.19524
2136.74327,0.20014
2138.67174,0.20318
2140.60021,0.20281
2142.52868,0.20222
2144.45715,0.20172
2146.38562,0.19925
2148.31409,0.19548
2150.24255,0.19378
2152.17102,0.19656
2154.09949,0.20047
2156.02796,0.20003
2157.95643,0.19630
2159.88490,0.19426
2161.81337,0.19486
2163.74184,0.19598
2165.67030,0.19727
2167.59877,0.19806
2169.52724,0.19722
2171.45571,0.19605
2173.38418,0.19515
2175.31265,0.19423
2177.24112,0.19431
2179.16958,0.19542
2181.09805,0.19689
2183.02652,0.19848
2184.95499,0.19912
2186.88346,0.19810
2188.81193,0.19727
2190.74040,0.19838
2192.66887,0.19993
2194.59733,0.19966
2196.52580,0.19762
2198.45427,0.19554
2200.38274,0.19454
2202.31121,0.19404
2204.23968,0.19348
2206.16815,0.19326
2208.09661,0.19360
2210.02508,0.19408
2211.95355,0.19494
2213.88202,0.19615
2215.81049,0.19682
2217.73896,0.19753
2219.66743,0.19838
2221.59590,0.19843
2223.52436,0.19856
2225.45283,0.19927
2227.38130,0.19910
2229.30977,0.19829
2231.23824,0.19837
2233.16671,0.19801
2235.09518,0.19628
2237.02364,0.19546
2238.95211,0.19682
2240.88058,0.19845
2242.80905,0.19875
2244.73752,0.19928
2246.66599,0.19999
2248.59446,0.19835
2250.52293,0.19581
2252.45139,0.19490
2254.37986,0.19532
2256.30833,0.19729
2258.23680,0.19868
2260.16527,0.19698
2262.09374,0.19500
2264.02221,0.19496
2265.95067,0.19606
2267.87914,0.19698
2269.80761,0.19659
2271.73608,0.19550
2273.66455,0.19493
2275.59302,0.19503
2277.52149,0.19541
2279.44996,0.19574
2281.37842,0.19649
2283.30689,0.19818
2285.23536,0.19988
2287.16383,0.19937
2289.09230,0.19596
2291.02077,0.19219
2292.94924,0.18924
2294.87770,0.18684
2296.80617,0.18581
2298.73464,0.18641
2300.66311,0.18825
2302.59158,0.18985
2304.52005,0.19004
2306.44852,0.18766
2308.37699,0.18384
2310.30545,0.18209
2312.23392,0.18070
2314.16239,0.17811
2316.09086,0.17654
2318.01933,0.17692
2319.94780,0.17792
2321.87627,0.17754
2323.80473,0.17676
2325.73320,0.17692
2327.66167,0.17716
2329.59014,0.17513
2331.51861,0.17075
2333.44708,0.16714
2335.37555,0.16294
2337.30401,0.15869
2339.23248,0.15748
2341.16095,0.15636
2343.08942,0.15923
2345.01789,0.16728
2346.94636,0.17125
2348.87483,0.17353
2350.80330,0.17557
2352.73176,0.17129
2354.66023,0.16043
2356.58870,0.15330
2358.51717,0.14970
2360.44564,0.14326
2362.37411,0.13928
2364.30258,0.14362
2366.23104,0.14767
2368.15951,0.14683
2370.08798,0.15049
2372.01645,0.15933
2373.94492,0.16810
2375.87339,0.17598
2377.80186,0.18396
2379.73033,0.19129
2381.65879,0.19650
2383.58726,0.20073
2385.51573,0.20355
2387.44420,0.20257
2389.37267,0.19878
2391.30114,0.19667
2393.22961,0.19753
2395.15807,0.19707
2397.08654,0.19583
2399.01501,0.19731
2400.94348,0.19892
2402.87195,0.20006
2404.80042,0.20312
2406.72889,0.20608
2408.65736,0.20510
2410.58582,0.20065
2412.51429,0.19711
2414.44276,0.19613
2416.37123,0.19616
2418.29970,0.19671
2420.22817,0.19847
2422.15664,0.19986
2424.08510,0.19848
2426.01357,0.19566
2427.94204,0.19457
2429.87051,0.19723
2431.79898,0.20098
2433.72745,0.20102
2435.65592,0.19852
2437.58439,0.19726
2439.51285,0.19758
2441.44132,0.19821
2443.36979,0.19910
2445.29826,0.20110
2447.22673,0.20258
2449.15520,0.20169
2451.08367,0.20424
2453.01213,0.21354
2454.94060,0.21837
2456.86907,0.21148
2458.79754,0.20278
2460.72601,0.20015
2462.65448,0.19894
2464.58295,0.19740
2466.51142,0.19781
2468.43988,0.19829
2470.36835,0.19827
2472.29682,0.19921
2474.22529,0.20120
2476.15376,0.20250
2478.08223,0.20230
2480.01070,0.20141
2481.93916,0.19931
2483.86763,0.19798
2485.79610,0.19940
2487.72457,0.20095
2489.65304,0.20183
2491.58151,0.20255
2493.50998,0.20225
2495.43844,0.20243
2497.36691,0.20411
2499.29538,0.20565
2501.22385,0.20601
2503.15232,0.20604
2505.08079,0.20671
2507.00926,0.20665
2508.93773,0.20495
2510.86619,0.20304
2512.79466,0.20208
2514.72313,0.20235
2516.65160,0.20324
2518.58007,0.20331
2520.50854,0.20197
2522.43701,0.20084
2524.36547,0.20172
2526.29394,0.20422
2528.22241,0.20559
2530.15088,0.20394
2532.07935,0.20136
2534.00782,0.20027
2535.93629,0.20002
2537.86476,0.19996
2539.79322,0.20125
2541.72169,0.20353
2543.65016,0.20410
2545.57863,0.20244
2547.50710,0.20080
2549.43557,0.20065
2551.36404,0.20209
2553.29250,0.20371
2555.22097,0.20395
2557.14944,0.20271
2559.07791,0.20121
2561.00638,0.20257
2562.93485,0.20567
2564.86332,0.20555
2566.79179,0.20401
2568.72025,0.20508
2570.64872,0.20820
2572.57719,0.21077
2574.50566,0.21081
2576.43413,0.21020
2578.36260,0.20969
2580.29107,0.20692
2582.21953,0.20310
2584.14800,0.20125
2586.07647,0.20145
2588.00494,0.20070
2589.93341,0.19851
2591.86188,0.19897
2593.79035,0.20176
2595.71882,0.20300
2597.64728,0.20259
2599.57575,0.20127
2601.50422,0.20047
2603.43269,0.20253
2605.36116,0.20656
2607.28963,0.20886
2609.21810,0.20580
2611.14656,0.20022
2613.07503,0.19734
2615.00350,0.19749
2616.93197,0.20116
2618.86044,0.20540
2620.78891,0.20699
2622.71738,0.20854
2624.64585,0.20981
2626.57431,0.20821
2628.50278,0.20475
2630.43125,0.20399
2632.35972,0.20738
2634.28819,0.20963
2636.21666,0.20934
2638.14513,0.20990
2640.07359,0.20978
2642.00206,0.20792
2643.93053,0.20686
2645.85900,0.20537
2647.78747,0.20224
2649.71594,0.20081
2651.64441,0.20353
2653.57288,0.20738
2655.50134,0.20873
2657.42981,0.20773
2659.35828,0.20576
2661.28675,0.20479
2663.21522,0.20655
2665.14369,0.21008
2667.07216,0.21309
2669.00062,0.21483
2670.92909,0.21503
2672.85756,0.21302
2674.78603,0.21037
2676.71450,0.20990
2678.64297,0.21117
2680.57144,0.21110
2682.49990,0.21019
2684.42837,0.21106
2686.35684,0.21226
2688.28531,0.21196
2690.21378,0.21177
2692.14225,0.21201
2694.07072,0.21178
2695.99919,0.21137
2697.92765,0.21087
2699.85612,0.21047
2701.78459,0.20948
2703.71306,0.20833
2705.64153,0.20841
2707.57000,0.20889
2709.49847,0.20913
2711.42693,0.21010
2713.35540,0.21222
2715.28387,0.21316
2717.21234,0.21094
2719.14081,0.20821
2721.06928,0.20838
2722.99775,0.21023
2724.92622,0.21069
2726.85468,0.21116
2728.78315,0.21374
2730.71162,0.21509
2732.64009,0.21289
2734.56856,0.21138
2736.49703,0.21292
2738.42550,0.21441
2740.35396,0.21389
2742.28243,0.21302
2744.21090,0.21442
2746.13937,0.21720
2748.06784,0.21836
2749.99631,0.21809
2751.92478,0.21764
2753.85325,0.21674
2755.78171,0.21532
2757.71018,0.21416
2759.63865,0.21503
2761.56712,0.21669
2763.49559,0.21605
2765.42406,0.21537
2767.35253,0.21611
2769.28099,0.21630
2771.20946,0.21570
2773.13793,0.21459
2775.06640,0.21401
2776.99487,0.21458
2778.92334,0.21553
2780.85181,0.21583
2782.78028,0.21427
2784.70874,0.21214
2786.63721,0.21226
2788.56568,0.21511
2790.49415,0.21759
2792.42262,0.21811
2794.35109,0.21894
2796.27956,0.21886
2798.20802,0.21643
2800.13649,0.21516
2802.06496,0.21627
2803.99343,0.21826
2805.92190,0.21988
2807.85037,0.22043
2809.77884,0.21970
2811.70731,0.21733
2813.63577,0.21612
2815.56424,0.21777
2817.49271,0.21909
2819.42118,0.21865
2821.34965,0.21784
2823.27812,0.21896
2825.20659,0.22076
2827.13505,0.21931
2829.06352,0.21704
2830.99199,0.21695
2832.92046,0.21756
2834.84893,0.21957
2836.77740,0.22277
2838.70587,0.22341
2840.63433,0.22120
2842.56280,0.21958
2844.49127,0.22047
2846.41974,0.22271
2848.34821,0.22325
2850.27668,0.22143
2852.20515,0.22023
2854.13362,0.22111
2856.06208,0.22233
2857.99055,0.22243
2859.91902,0.22308
2861.84749,0.22404
2863.77596,0.22093
2865.70443,0.21742
2867.63290,0.21936
2869.56136,0.22190
2871.48983,0.22070
2873.41830,0.21796
2875.34677,0.21790
2877.27524,0.22095
2879.20371,0.22309
2881.13218,0.22281
2883.06065,0.22035
2884.98911,0.21791
2886.91758,0.21880
2888.84605,0.22023
2890.77452,0.22006
2892.70299,0.22012
2894.63146,0.21668
2896.55993,0.21047
2898.48839,0.21007
2900.41686,0.21371
2902.34533,0.21410
2904.27380,0.21087
2906.20227,0.20852
2908.13074,0.21091
2910.05921,0.21613
2911.98768,0.21906
2913.91614,0.21504
2915.84461,0.20453
2917.77308,0.19965
2919.70155,0.20711
2921.63002,0.21569
2923.55849,0.21310
2925.48696,0.19856
2927.41542,0.18950
2929.34389,0.19831
2931.27236,0.21110
2933.20083,0.21632
2935.12930,0.21096
2937.05777,0.19829
2938.98624,0.19621
2940.91471,0.20657
2942.84317,0.21288
2944.77164,0.20869
2946.70011,0.20007
2948.62858,0.20059
2950.55705,0.20984
2952.48552,0.21335
2954.41399,0.20888
2956.34245,0.19748
2958.27092,0.18903
2960.19939,0.19888
2962.12786,0.21499
2964.05633,0.21946
2965.98480,0.21237
2967.91327,0.20445
2969.84174,0.20907
2971.77020,0.21997
2973.69867,0.22216
2975.62714,0.21420
2977.55561,0.20245
2979.48408,0.20141
2981.41255,0.21419
2983.34102,0.22462
2985.26948,0.22346
2987.19795,0.21324
2989.12642,0.20744
2991.05489,0.21523
2992.98336,0.22664
2994.91183,0.23253
2996.84030,0.23146
2998.76877,0.22590
3000.69723,0.22298
3002.62570,0.22469
3004.55417,0.22638
3006.48264,0.22316
3008.41111,0.21241
3010.33958,0.19468
3012.26805,0.16737
3014.19651,0.12789
3016.12498,0.09850
3018.05345,0.11575
3019.98192,0.16939
3021.91039,0.21049
3023.83886,0.22452
3025.76733,0.22545
3027.69579,0.22127
3029.62426,0.22049
3031.55273,0.22529
3033.48120,0.22822
3035.40967,0.22616
3037.33814,0.22059
3039.26661,0.21813
3041.19508,0.22370
3043.12354,0.22904
3045.05201,0.22497
3046.98048,0.21759
3048.90895,0.21899
3050.83742,0.22556
3052.76589,0.22578
3054.69436,0.21673
3056.62282,0.20505
3058.55129,0.20631
3060.47976,0.22028
3062.40823,0.22800
3064.33670,0.22019
3066.26517,0.20757
3068.19364,0.20954
3070.12211,0.22248
3072.05057,0.22797
3073.97904,0.22061
3075.90751,0.20913
3077.83598,0.20893
3079.76445,0.21794
3081.69292,0.22097
3083.62139,0.21289
3085.54985,0.20428
3087.47832,0.20961
3089.40679,0.22201
3091.33526,0.22421
3093.26373,0.21166
3095.19220,0.20312
3097.12067,0.21631
3099.04914,0.23367
3100.97760,0.23130
3102.90607,0.21110
3104.83454,0.20016
3106.76301,0.21078
3108.69148,0.22144
3110.61995,0.21704
3112.54842,0.20604
3114.47688,0.20676
3116.40535,0.21867
3118.33382,0.22271
3120.26229,0.21508
3122.19076,0.20984
3124.11923,0.21630
3126.04770,0.22441
3127.97617,0.22218
3129.90463,0.21424
3131.83310,0.21403
3133.76157,0.22314
3135.69004,0.22865
3137.61851,0.22418
3139.54698,0.21803
3141.47545,0.22046
3143.40391,0.22848
3145.33238,0.23186
3147.26085,0.22625
3149.18932,0.21957
3151.11779,0.22235
3153.04626,0.23089
3154.97473,0.23625
3156.90320,0.23594
3158.83166,0.23249
3160.76013,0.23025
3162.68860,0.23142
3164.61707,0.23432
3166.54554,0.23777
3168.47401,0.24041
3170.40248,0.23933
3172.33094,0.23676
3174.25941,0.23547
3176.18788,0.23480
3178.11635,0.23416
3180.04482,0.23427
3181.97329,0.23556
3183.90176,0.23685
3185.83022,0.23701
3187.75869,0.23212
3189.68716,0.22565
3191.61563,0.22665
3193.54410,0.22871
3195.47257,0.22481
3197.40104,0.22404
3199.32951,0.23009
3201.25797,0.23387
3203.18644,0.23321
3205.11491,0.23419
3207.04338,0.23573
3208.97185,0.23290
3210.90032,0.22998
3212.82879,0.23055
3214.75725,0.23054
3216.68572,0.22917
3218.61419,0.22806
3220.54266,0.22869
3222.47113,0.23123
3224.39960,0.23219
3226.32807,0.23134
3228.25654,0.23050
3230.18500,0.23096
3232.11347,0.23396
3234.04194,0.23492
3235.97041,0.22907
3237.89888,0.22198
3239.82735,0.21890
3241.75582,0.21798
3243.68428,0.22232
3245.61275,0.23144
3247.54122,0.23460
3249.46969,0.22915
3251.39816,0.22363
3253.32663,0.22527
3255.25510,0.23018
3257.18357,0.23262
3259.11203,0.23301
3261.04050,0.23207
3262.96897,0.23191
3264.89744,0.23153
3266.82591,0.22916
3268.75438,0.22812
3270.68285,0.22711
3272.61131,0.22370
3274.53978,0.22183
3276.46825,0.22374
3278.39672,0.22656
3280.32519,0.22770
3282.25366,0.22772
3284.18213,0.22695
3286.11060,0.22476
3288.03906,0.22323
3289.96753,0.22379
3291.89600,0.22393
3293.82447,0.22267
3295.75294,0.22340
3297.68141,0.22567
3299.60988,0.22558
3301.53834,0.22622
3303.46681,0.22953
3305.39528,0.23187
3307.32375,0.23292
3309.25222,0.23240
3311.18069,0.22955
3313.10916,0.22742
3315.03763,0.22653
3316.96609,0.22596
3318.89456,0.22722
3320.82303,0.22743
3322.75150,0.22583
3324.67997,0.23032
3326.60844,0.23884
3328.53691,0.23943
3330.46537,0.23451
3332.39384,0.23288
3334.32231,0.23321
3336.25078,0.23291
3338.17925,0.23190
3340.10772,0.23133
3342.03619,0.23136
3343.96466,0.23214
3345.89312,0.23501
3347.82159,0.23759
3349.75006,0.23767
3351.67853,0.23559
3353.60700,0.23363
3355.53547,0.23228
3357.46394,0.23017
3359.39240,0.22962
3361.32087,0.22975
3363.24934,0.22731
3365.17781,0.22616
3367.10628,0.23122
3369.03475,0.23667
3370.96322,0.23590
3372.89168,0.23335
3374.82015,0.23434
3376.74862,0.23674
3378.67709,0.23451
3380.60556,0.22766
3382.53403,0.22353
3384.46250,0.22570
3386.39097,0.23043
3388.31943,0.23158
3390.24790,0.22693
3392.17637,0.22177
3394.10484,0.22363
3396.03331,0.23146
3397.96178,0.23679
3399.89025,0.23385
3401.81871,0.22927
3403.74718,0.23395
3405.67565,0.24004
3407.60412,0.23409
3409.53259,0.22304
3411.46106,0.21667
3413.38953,0.21417
3415.31800,0.21589
3417.24646,0.22149
3419.17493,0.22745
3421.10340,0.23063
3423.03187,0.23016
3424.96034,0.22818
3426.88881,0.22532
3428.81728,0.22225
3430.74574,0.22280
3432.67421,0.22755
3434.60268,0.22878
3436.53115,0.22504
3438.45962,0.22340
3440.38809,0.22242
3442.31656,0.22030
3444.24503,0.21976
3446.17349,0.21859
3448.10196,0.21717
3450.03043,0.21881
3451.95890,0.21965
3453.88737,0.21623
3455.81584,0.21289
3457.74431,0.21096
3459.67277,0.20777
3461.60124,0.20684
3463.52971,0.21075
3465.45818,0.21449
3467.38665,0.21474
3469.31512,0.21333
3471.24359,0.21187
3473.17206,0.21093
3475.10052,0.21095
3477.02899,0.21054
3478.95746,0.20940
3480.88593,0.20954
3482.81440,0.21085
3484.74287,0.21110
3486.67134,0.20820
3488.59980,0.20497
3490.52827,0.20679
3492.45674,0.20928
3494.38521,0.20728
3496.31368,0.20427
3498.24215,0.20356
3500.17062,0.20305
3502.09909,0.20053
3504.02755,0.19767
3505.95602,0.19663
3507.88449,0.19867
3509.81296,0.19985
3511.74143,0.19378
3513.66990,0.18744
3515.59837,0.18889
3517.52683,0.19334
3519.45530,0.19521
3521.38377,0.19311
3523.31224,0.18789
3525.24071,0.18507
3527.16918,0.18709
3529.09765,0.19056
3531.02611,0.19138
3532.95458,0.18815
3534.88305,0.18486
3536.81152,0.18538
3538.73999,0.18733
3540.66846,0.18855
3542.59693,0.19058
3544.52540,0.19212
3546.45386,0.19092
3548.38233,0.18775
3550.31080,0.18307
3552.23927,0.17931
3554.16774,0.17794
3556.09621,0.17592
3558.02468,0.17283
3559.95314,0.17224
3561.88161,0.17631
3563.81008,0.18205
3565.73855,0.18517
3567.66702,0.18237
3569.59549,0.17626
3571.52396,0.17154
3573.45243,0.16743
3575.38089,0.16505
3577.30936,0.16666
3579.23783,0.16817
3581.16630,0.16635
3583.09477,0.16601
3585.02324,0.17124
3586.95171,0.17566
3588.88017,0.16989
3590.80864,0.16405
3592.73711,0.16500
3594.66558,0.16851
3596.59405,0.17127
3598.52252,0.17184
3600.45099,0.16842
3602.37946,0.16313
3604.30792,0.15986
3606.23639,0.15996
3608.16486,0.16258
3610.09333,0.16439
3612.02180,0.16556
3613.95027,0.16898
3615.87874,0.17338
3617.80720,0.17600
3619.73567,0.17214
3621.66414,0.16221
3623.59261,0.15630
3625.52108,0.15760
3627.44955,0.16372
3629.37802,0.16664
3631.30649,0.15789
3633.23495,0.14890
3635.16342,0.14780
3637.09189,0.15166
3639.02036,0.15291
3640.94883,0.15143
3642.87730,0.15351
3644.80577,0.15879
3646.73423,0.16256
3648.66270,0.16622
3650.59117,0.16800
3652.51964,0.16280
3654.44811,0.15763
3656.37658,0.15474
3658.30505,0.15121
3660.23352,0.14763
3662.16198,0.14546
3664.09045,0.14589
3666.01892,0.15062
3667.94739,0.15823
3669.87586,0.16227
3671.80433,0.15949
3673.73280,0.15895
3675.66126,0.15976
3677.58973,0.15416
3679.51820,0.14697
3681.44667,0.14170
3683.37514,0.13922
3685.30361,0.13944
3687.23208,0.14171
3689.16055,0.14556
3691.08901,0.14714
3693.01748,0.14472
3694.94595,0.14096
3696.87442,0.13796
3698.80289,0.13817
3700.73136,0.14097
3702.65983,0.14178
3704.58829,0.14188
3706.51676,0.14547
3708.44523,0.15139
3710.37370,0.15331
3712.30217,0.14467
3714.23064,0.13634
3716.15911,0.13623
3718.08757,0.14487
3720.01604,0.15742
3721.94451,0.15998
3723.87298,0.15013
3725.80145,0.13749
3727.72992,0.13151
3729.65839,0.13425
3731.58686,0.13835
3733.51532,0.14353
3735.44379,0.15026
3737.37226,0.14851
3739.30073,0.14486
3741.22920,0.14505
3743.15767,0.14793
3745.08614,0.15382
3747.01460,0.15779
3748.94307,0.15834
3750.87154,0.15508
3752.80001,0.14461
3754.72848,0.13755
3756.65695,0.13938
3758.58542,0.14525
3760.51389,0.14706
3762.44235,0.14459
3764.37082,0.14467
3766.29929,0.14897
3768.22776,0.14978
3770.15623,0.14355
3772.08470,0.13679
3774.01317,0.13280
3775.94163,0.13099
3777.87010,0.13372
3779.79857,0.13805
3781.72704,0.13696
3783.65551,0.13423
3785.58398,0.13188
3787.51245,0.12813
3789.44092,0.12652
3791.36938,0.12843
3793.29785,0.13161
3795.22632,0.13646
3797.15479,0.14291
3799.08326,0.14908
3801.01173,0.15347
3802.94020,0.15156
3804.86866,0.14780
3806.79713,0.14618
3808.72560,0.14319
3810.65407,0.13860
3812.58254,0.13670
3814.51101,0.13904
3816.43948,0.14212
3818.36795,0.14572
3820.29641,0.15205
3822.22488,0.14963
3824.15335,0.13912
3826.08182,0.13459
3828.01029,0.13820
3829.93876,0.14238
3831.86723,0.14340
3833.79569,0.14564
3835.72416,0.15020
3837.65263,0.15297
3839.58110,0.15223
3841.50957,0.14811
3843.43804,0.13889
3845.36651,0.12914
3847.29498,0.12741
3849.22344,0.13348
3851.15191,0.14153
3853.08038,0.14946
3855.00885,0.14946
3856.93732,0.14077
3858.86579,0.13358
3860.79426,0.12991
3862.72272,0.12913
3864.65119,0.13020
3866.57966,0.13101
3868.50813,0.13542
3870.43660,0.14255
3872.36507,0.14259
3874.29354,0.13684
3876.22200,0.13141
3878.15047,0.12906
3880.07894,0.12627
3882.00741,0.12131
3883.93588,0.11958
3885.86435,0.11998
3887.79282,0.12036
3889.72129,0.12364
3891.64975,0.12759
3893.57822,0.12593
3895.50669,0.12399
3897.43516,0.12644
3899.36363,0.12784
3901.29210,0.12334
3903.22057,0.11922
3905.14903,0.11851
3907.07750,0.11801
3909.00597,0.11738
3910.93444,0.11870
3912.86291,0.12377
3914.79138,0.12817
3916.71985,0.12598
3918.64832,0.12300
3920.57678,0.12512
3922.50525,0.12552
3924.43372,0.12064
3926.36219,0.11725
3928.29066,0.11900
3930.21913,0.12123
3932.14760,0.12024
3934.07606,0.11809
3936.00453,0.11594
3937.93300,0.11244
3939.86147,0.10992
3941.78994,0.10927
3943.71841,0.11001
3945.64688,0.11519
3947.57535,0.12408
3949.50381,0.13193
3951.43228,0.13407
3953.36075,0.12990
3955.28922,0.12218
3957.21769,0.11466
3959.14616,0.11050
3961.07463,0.10987
3963.00309,0.11358
3964.93156,0.11997
3966.86003,0.12182
3968.78850,0.11854
3970.71697,0.11472
3972.64544,0.11180
3974.57391,0.11232
3976.50238,0.11480
3978.43084,0.11496
3980.35931,0.11482
3982.28778,0.11628
3984.21625,0.11777
3986.14472,0.11694
3988.07319,0.11404
3990.00166,0.11059
3991.93012,0.10522
3993.85859,0.10014
3995.78706,0.10103
3997.71553,0.10766
3999.64400,0.11210
4001.57247,0.11051
4003.50094,0.11012
4005.42941,0.11336
4007.35787,0.11412
4009.28634,0.11120
4011.21481,0.10687
4013.14328,0.10388
4015.07175,0.10336
4017.00022,0.10202
4018.92869,0.10003
4020.85715,0.10073
4022.78562,0.10446
4024.71409,0.10860
4026.64256,0.10874
4028.57103,0.10498
4030.49950,0.10220
4032.42797,0.10277
4034.35644,0.10584
4036.28490,0.10860
4038.21337,0.10699
4040.14184,0.10101
4042.07031,0.09645
4043.99878,0.09865
4045.92725,0.10557
4047.85572,0.10763
4049.78418,0.10071
4051.71265,0.09255
4053.64112,0.09142
4055.56959,0.09575
4057.49806,0.09660
4059.42653,0.09140
4061.35500,0.08805
4063.28346,0.09224
4065.21193,0.09934
4067.14040,0.10051
4069.06887,0.09349
4070.99734,0.08697
4072.92581,0.09023
4074.85428,0.09989
4076.78275,0.10515
4078.71121,0.10341
4080.63968,0.09968
4082.56815,0.09580
4084.49662,0.09331
4086.42509,0.09590
4088.35356,0.10116
4090.28203,0.10299
4092.21049,0.10089
4094.13896,0.09901
4096.06743,0.09725
4097.99590,0.09433
4099.92437,0.09299
4101.85284,0.09297
4103.78131,0.09294
4105.70978,0.09224
4107.63824,0.08967
4109.56671,0.08815
4111.49518,0.09068
4113.42365,0.09478
4115.35212,0.09498
4117.28059,0.09173
4119.20906,0.09099
4121.13752,0.09398
4123.06599,0.09728
4124.99446,0.09725
4126.92293,0.09346
4128.85140,0.08980
4130.77987,0.08792
4132.70834,0.08504
4134.63681,0.08139
4136.56527,0.08020
4138.49374,0.08032
4140.42221,0.07948
4142.35068,0.08011
4144.27915,0.08407
4146.20762,0.08843
4148.13609,0.08880
4150.06455,0.08372
4151.99302,0.07750
4153.92149,0.07709
4155.84996,0.08331
4157.77843,0.08924
4159.70690,0.08893
4161.63537,0.08477
4163.56384,0.08235
4165.49230,0.08309
4167.42077,0.08430
4169.34924,0.08323
4171.27771,0.08050
4173.20618,0.07655
4175.13465,0.07223
4177.06312,0.07136
4178.99158,0.07321
4180.92005,0.07453
4182.84852,0.07596
4184.77699,0.07795
4186.70546,0.07710
4188.63393,0.07209
4190.56240,0.06735
4192.49087,0.06517
4194.41933,0.06539
4196.34780,0.06848
4198.27627,0.07440
4200.20474,0.07848
4202.13321,0.07296
4204.06168,0.06471
4205.99015,0.06592
4207.91861,0.07167
4209.84708,0.07254
4211.77555,0.06706
4213.70402,0.06050
4215.63249,0.06065
4217.56096,0.06504
4219.48943,0.06701
4221.41789,0.06968
4223.34636,0.07429
4225.27483,0.07655
4227.20330,0.07591
4229.13177,0.07296
4231.06024,0.06823
4232.98871,0.06339
4234.91718,0.06167
4236.84564,0.06340
4238.77411,0.06454
4240.70258,0.06462
4242.63105,0.06383
4244.55952,0.06012
4246.48799,0.05552
4248.41646,0.05483
4250.34492,0.05858
4252.27339,0.06356
4254.20186,0.06515
4256.13033,0.06233
4258.05880,0.05972
4259.98727,0.05642
4261.91574,0.05138
4263.84421,0.05117
4265.77267,0.05634
4267.70114,0.05837
4269.62961,0.05293
4271.55808,0.04635
4273.48655,0.04743
4275.41502,0.05578
4277.34349,0.06124
4279.27195,0.06029
4281.20042,0.05832
4283.12889,0.05606
4285.05736,0.05515
4286.98583,0.05901
4288.91430,0.06311
4290.84277,0.06061
4292.77124,0.05308
4294.69970,0.04862
4296.62817,0.05097
4298.55664,0.05607
4300.48511,0.05614
4302.41358,0.04956
4304.34205,0.04515
4306.27052,0.04742
4308.19898,0.05067
4310.12745,0.05052
4312.05592,0.04843
4313.98439,0.04698
4315.91286,0.04647
4317.84133,0.04907
4319.76980,0.05435
4321.69827,0.05580
4323.62673,0.05248
4325.55520,0.04700
4327.48367,0.04166
4329.41214,0.03902
4331.34061,0.03827
4333.26908,0.03824
4335.19755,0.04018
4337.12601,0.04420
4339.05448,0.04449
4340.98295,0.03968
4342.91142,0.04004
4344.83989,0.04727
4346.76836,0.04694
4348.69683,0.03609
4350.62530,0.02803
4352.55376,0.02656
4354.48223,0.02791
4356.41070,0.03021
4358.33917,0.03096
4360.26764,0.03074
4362.19611,0.03166
4364.12458,0.03379
4366.05304,0.03503
4367.98151,0.03695
4369.90998,0.04123
4371.83845,0.04186
4373.76692,0.03755
4375.69539,0.03267
4377.62386,0.02672
4379.55232,0.02002
4381.48079,0.02067
4383.40926,0.02768
4385.33773,0.02766
4387.26620,0.02306
4389.19467,0.02440
4391.12314,0.02691
4393.05161,0.02559
4394.98007,0.02613
4396.90854,0.03062
4398.83701,0.03257
4400.76548,0.02874
4402.69395,0.02512
4404.62242,0.02477
4406.55089,0.02078
4408.47935,0.01379
4410.40782,0.01204
4412.33629,0.01613
4414.26476,0.02213
4416.19323,0.02501
4418.12170,0.02083
4420.05017,0.01377
4421.97864,0.01201
4423.90710,0.01657
4425.83557,0.02295
4427.76404,0.02577
4429.69251,0.02374
4431.62098,0.02223
4433.54945,0.02043
4435.47792,0.01345
4437.40638,0.00645
4439.33485,0.00855
4441.26332,0.01489
4443.19179,0.01441
4445.12026,0.01073
4447.04873,0.01081
4448.97720,0.01537
4450.90567,0.02303
4452.83413,0.02531
4454.76260,0.01851
4456.69107,0.01146
4458.61954,0.01071
4460.54801,0.01361
4462.47648,0.01260
4464.40495,0.00764
4466.33341,0.00641
4468.26188,0.00900
4470.19035,0.01189
4472.11882,0.01529
4474.04729,0.01850
4475.97576,0.02027
4477.90423,0.02043
4479.83270,0.01841
4481.76116,0.01501
4483.68963,0.01122
4485.61810,0.00642
4487.54657,0.00303
4489.47504,0.00255
4491.40351,0.00297
4493.33198,0.00396
4495.26044,0.00429
4497.18891,0.00286
4499.11738,0.00389
4501.04585,0.00966
4502.97432,0.01828
4504.90279,0.02732
4506.83126,0.02837
4508.75973,0.02012
4510.68819,0.01126
4512.61666,0.00373
4514.54513,0.00039
4516.47360,0.00185
4518.40207,0.00355
4520.33054,0.00425
4522.25901,0.00071
4524.18747,-0.00338
4526.11594,-0.00157
4528.04441,0.00287
4529.97288,0.00772
4531.90135,0.01162
4533.82982,0.01286
4535.75829,0.01311
4537.68676,0.01335
4539.61522,0.01277
4541.54369,0.00966
4543.47216,0.00661
4545.40063,0.00531
4547.32910,0.00202
4549.25757,0.00137
4551.18604,0.00546
4553.11450,0.00649
4555.04297,0.00878
4556.97144,0.01451
4558.89991,0.01245
4560.82838,0.00522
4562.75685,0.00139
4564.68532,0.00292
4566.61378,0.01062
4568.54225,0.01437
4570.47072,0.00990
4572.39919,0.00830
4574.32766,0.00890
4576.25613,0.00577
4578.18460,0.00075
4580.11307,-0.00079
4582.04153,0.00595
4583.97000,0.01422
4585.89847,0.01801
4587.82694,0.01798
4589.75541,0.01102
4591.68388,0.00126
4593.61235,-0.00139
4595.54081,0.00197
4597.46928,0.00328
4599.39775,0.00069
4601.32622,-0.00120
4603.25469,-0.00066
4605.18316,0.00148
4607.11163,0.00568
4609.04010,0.00987
4610.96856,0.00889
4612.89703,0.00412
4614.82550,0.00300
4616.75397,0.00454
4618.68244,0.00381
4620.61091,0.00323
4622.53938,0.00463
4624.46784,0.00393
4626.39631,0.00016
4628.32478,-0.00240
4630.25325,-0.00304
4632.18172,-0.00212
4634.11019,0.00047
4636.03866,0.00267
4637.96713,0.00480
4639.89559,0.00428
4641.82406,-0.00350
4643.75253,-0.01128
4645.68100,-0.00891
4647.60947,0.00045
4649.53794,0.00774
4651.46641,0.00820
4653.39487,0.00282
4655.32334,-0.00181
4657.25181,0.00210
4659.18028,0.00947
4661.10875,0.00827
4663.03722,0.00252
4664.96569,0.00065
4666.89416,0.00354
4668.82262,0.00836
4670.75109,0.00639
4672.67956,-0.00147
4674.60803,-0.00513
4676.53650,-0.00328
4678.46497,-0.00008
4680.39344,0.00348
4682.32190,0.00532
4684.25037,0.00317
4686.17884,-0.00118
4688.10731,-0.00520
4690.03578,-0.00654
4691.96425,-0.00505
4693.89272,-0.00419
4695.82119,-0.00336
4697.74965,-0.00235
4699.67812,-0.00395
4701.60659,-0.00101
4703.53506,0.01081
4705.46353,0.02319
4707.39200,0.02675
4709.32047,0.01924
4711.24893,0.01103
4713.17740,0.00978
4715.10587,0.01207
4717.03434,0.01583
4718.96281,0.01783
4720.89128,0.01574
4722.81975,0.01368
4724.74821,0.01102
4726.67668,0.00455
4728.60515,-0.00069
4730.53362,-0.00123
4732.46209,0.00170
4734.39056,0.00320
4736.31903,0.00128
4738.24750,0.00403
4740.17596,0.01236
4742.10443,0.01339
4744.03290,0.00196
4745.96137,-0.00589
4747.88984,0.00484
4749.81831,0.02052
4751.74678,0.02470
4753.67524,0.02290
4755.60371,0.02023
4757.53218,0.01332
4759.46065,0.00188
4761.38912,-0.00702
4763.31759,-0.00643
4765.24606,-0.00028
4767.17453,0.00245
4769.10299,0.00376
4771.03146,0.00967
4772.95993,0.01264
4774.88840,0.00598
4776.81687,0.00080
4778.74534,0.00754
4780.67381,0.01613
4782.60227,0.01459
4784.53074,0.00894
4786.45921,0.00631
4788.38768,0.00638
4790.31615,0.00770
4792.24462,0.01088
4794.17309,0.01670
4796.10156,0.01400
4798.03002,0.00131
4799.95849,-0.00294
4801.88696,-0.00090
4803.81543,-0.00219
4805.74390,0.00518
4807.67237,0.01900
4809.60084,0.01876
4811.52930,0.00831
4813.45777,0.00409
4815.38624,0.00713
4817.31471,0.01094
4819.24318,0.01011
4821.17165,0.00897
4823.10012,0.00933
4825.02859,0.00252
4826.95705,-0.00429
4828.88552,0.00078
4830.81399,0.00978
4832.74246,0.01025
4834.67093,0.00575
4836.59940,0.00988
4838.52787,0.02095
4840.45633,0.02477
4842.38480,0.01718
4844.31327,0.00671
4846.24174,0.00312
4848.17021,0.00275
4850.09868,-0.00335
4852.02715,-0.00553
4853.95562,0.00308
4855.88408,0.01073
4857.81255,0.01255
4859.74102,0.01146
4861.66949,0.01032
4863.59796,0.01156
4865.52643,0.01123
4867.45490,0.00581
4869.38336,0.00121
4871.31183,-0.00178
4873.24030,-0.00581
4875.16877,-0.00360
4877.09724,0.00321
4879.02571,0.00798
4880.95418,0.01178
4882.88265,0.01266
4884.81111,0.01000
4886.73958,0.00788
4888.66805,0.00461
4890.59652,-0.00088
4892.52499,-0.00088
4894.45346,0.00815
4896.38193,0.01898
4898.31039,0.02358
4900.23886,0.02395
4902.16733,0.02139
4904.09580,0.01372
4906.02427,0.00915
4907.95274,0.01154
4909.88121,0.01298
4911.80967,0.01065
4913.73814,0.00740
4915.66661,0.00292
4917.59508,0.00300
4919.52355,0.01054
4921.45202,0.01085
4923.38049,0.00412
4925.30896,0.00441
4927.23742,0.00500
4929.16589,-0.00139
4931.09436,-0.00512
4933.02283,-0.00151
4934.95130,0.00558
4936.87977,0.00937
4938.80824,0.00537
4940.73670,0.00002
4942.66517,-0.00263
4944.59364,-0.00306
4946.52211,0.00036
4948.45058,0.00661
4950.37905,0.01391
4952.30752,0.01559
4954.23599,0.00690
4956.16445,0.00446
4958.09292,0.01779
4960.02139,0.02458
4961.94986,0.01411
4963.87833,0.00059
4965.80680,-0.00785
4967.73527,-0.00647
4969.66373,0.00275
4971.59220,0.00661
4973.52067,0.00176
4975.44914,-0.00196
4977.37761,0.00338
4979.30608,0.01157
4981.23455,0.00597
4983.16302,-0.00188
4985.09148,0.01441
4987.01995,0.03618
4988.94842,0.03346
4990.87689,0.02097
4992.80536,0.01667
4994.73383,0.01269
4996.66230,0.00710
4998.59076,0.00369
5000.51923,0.00649
5002.44770,0.01514
5004.37617,0.01699
5006.30464,0.01085
5008.23311,0.00187
5010.16158,-0.01276
5012.09005,-0.02031
5014.01851,-0.00294
5015.94698,0.01963
5017.87545,0.01453
5019.80392,-0.00465
5021.73239,-0.00545
5023.66086,0.00982
5025.58933,0.02015
5027.51779,0.01893
5029.44626,0.01305
5031.37473,0.01037
5033.30320,0.01464
5035.23167,0.02146
5037.16014,0.02269
5039.08861,0.01415
5041.01708,0.00279
5042.94554,0.00325
5044.87401,0.01365
5046.80248,0.01485
5048.73095,0.00410
5050.65942,-0.00074
5052.58789,0.00352
5054.51636,0.00261
5056.44482,-0.00112
5058.37329,0.00947
5060.30176,0.03100
5062.23023,0.04096
5064.15870,0.02911
5066.08717,0.01121
5068.01564,0.00704
5069.94410,0.01315
5071.87257,0.02144
5073.80104,0.02816
5075.72951,0.02808
5077.65798,0.02671
5079.58645,0.03170
5081.51492,0.03440
5083.44339,0.02494
5085.37185,0.01370
5087.30032,0.01304
5089.22879,0.01552
5091.15726,0.01234
5093.08573,0.01274
5095.01420,0.02129
5096.94267,0.02664
5098.87113,0.02327
5100.79960,0.01533
5102.72807,0.00979
5104.65654,0.01026
5106.58501,0.01688
5108.51348,0.02492
5110.44195,0.02756
5112.37042,0.02628
5114.29888,0.01882
5116.22735,0.01041
5118.15582,0.01410
5120.08429,0.02172
5122.01276,0.02709
5123.94123,0.03645
5125.86970,0.04644
5127.79816,0.05219
5129.72663,0.05294
5131.65510,0.04916
5133.58357,0.04000
5135.51204,0.02436
5137.44051,0.01670
5139.36898,0.02538
5141.29745,0.03652
5143.22591,0.03618
5145.15438,0.01563
5147.08285,-0.00252
5149.01132,0.01529
5150.93979,0.04016
5152.86826,0.03059
5154.79673,0.01301
5156.72519,0.01776
5158.65366,0.02160
5160.58213,0.01143
5162.51060,0.00441
5164.43907,0.00460
5166.36754,0.00702
5168.29601,0.01961
5170.22448,0.04150
5172.15294,0.04819
5174.08141,0.03856
5176.00988,0.03864
5177.93835,0.04323
5179.86682,0.03766
5181.79529,0.03690
5183.72376,0.04178
5185.65222,0.03658
5187.58069,0.02943
5189.50916,0.03468
5191.43763,0.04504
5193.36610,0.04723
5195.29457,0.04109
5197.22304,0.03165
5199.15151,0.02460
5201.07997,0.02802
5203.00844,0.04220
5204.93691,0.04824
5206.86538,0.03413
5208.79385,0.02747
5210.72232,0.03849
5212.65079,0.04641
5214.57925,0.04666
5216.50772,0.04408
5218.43619,0.03742
5220.36466,0.03368
5222.29313,0.03933
5224.22160,0.04926
5226.15007,0.05192
5228.07854,0.04065
5230.00700,0.02861
5231.93547,0.01988
5233.86394,0.01537
5235.79241,0.02371
5237.72088,0.03151
5239.64935,0.02856
5241.57782,0.02305
5243.50628,0.01988
5245.43475,0.02694
5247.36322,0.03933
5249.29169,0.04206
5251.22016,0.04484
5253.14863,0.05548
5255.07710,0.05732
5257.00556,0.04359
5258.93403,0.03391
5260.86250,0.03331
5262.79097,0.02399
5264.71944,0.00870
5266.64791,0.00321
5268.57638,0.00396
5270.50485,0.01152
5272.43331,0.03236
5274.36178,0.05314
5276.29025,0.05725
5278.21872,0.04849
5280.14719,0.04309
5282.07566,0.05276
5284.00413,0.06898
5285.93259,0.07839
5287.86106,0.07436
5289.78953,0.05803
5291.71800,0.04727
5293.64647,0.04055
5295.57494,0.02804
5297.50341,0.02754
5299.43188,0.04342
5301.36034,0.04849
5303.28881,0.03088
5305.21728,0.01087
5307.14575,0.00511
5309.07422,0.01957
5311.00269,0.04774
5312.93116,0.06317
5314.85962,0.05952
5316.78809,0.06480
5318.71656,0.08588
5320.64503,0.10199
5322.57350,0.10098
5324.50197,0.08157
5326.43044,0.06037
5328.35891,0.05381
5330.28737,0.04993
5332.21584,0.04737
5334.14431,0.05131
5336.07278,0.04976
5338.00125,0.05195
5339.92972,0.06237
5341.85819,0.05541
5343.78665,0.03522
5345.71512,0.03415
5347.64359,0.04775
5349.57206,0.05987
5351.50053,0.07928
5353.42900,0.08990
5355.35747,0.07655
5357.28594,0.06599
5359.21440,0.06358
5361.14287,0.05873
5363.07134,0.05656
5364.99981,0.05212
5366.92828,0.04143
5368.85675,0.04763
5370.78522,0.06602
5372.71368,0.07127
5374.64215,0.06244
5376.57062,0.05795
5378.49909,0.08017
5380.42756,0.11224
5382.35603,0.12729
5384.28450,0.12147
5386.21297,0.10502
5388.14143,0.09460
5390.06990,0.09661
5391.99837,0.09865
5393.92684,0.08474
5395.85531,0.06061
5397.78378,0.04388
5399.71225,0.04389
5401.64071,0.05007
5403.56918,0.04147
5405.49765,0.02909
5407.42612,0.03186
5409.35459,0.03380
5411.28306,0.02245
5413.21153,0.01878
5415.13999,0.03142
5417.06846,0.04431
5418.99693,0.05952
5420.92540,0.07339
5422.85387,0.06797
5424.78234,0.05586
5426.71081,0.05957
5428.63928,0.07818
5430.56774,0.08853
5432.49621,0.06561
5434.42468,0.02455
5436.35315,0.01642
5438.28162,0.05128
5440.21009,0.09013
5442.13856,0.10267
5444.06702,0.08470
5445.99549,0.05098
5447.92396,0.03536
5449.85243,0.04407
5451.78090,0.05493
5453.70937,0.06324
5455.63784,0.07652
5457.56631,0.08613
5459.49477,0.07886
5461.42324,0.08171
5463.35171,0.10579
5465.28018,0.11500
5467.20865,0.09793
5469.13712,0.06735
5471.06559,0.03589
5472.99405,0.02855
5474.92252,0.05225
5476.85099,0.07424
5478.77946,0.07638
5480.70793,0.07055
5482.63640,0.06853
5484.56487,0.06982
5486.49334,0.06459
5488.42180,0.05627
5490.35027,0.05720
5492.27874,0.06431
5494.20721,0.06643
5496.13568,0.07246
5498.06415,0.07580
5499.99262,0.05638
5501.92108,0.04076
5503.84955,0.05468
5505.77802,0.07532
5507.70649,0.08616
5509.63496,0.09735
5511.56343,0.10579
5513.49190,0.09877
5515.42037,0.08534
5517.34883,0.07493
5519.27730,0.06192
5521.20577,0.05208
5523.13424,0.06093
5525.06271,0.07668
5526.99118,0.07077
5528.91965,0.04718
5530.84811,0.03421
5532.77658,0.04594
5534.70505,0.06065
5536.63352,0.05508
5538.56199,0.05394
5540.49046,0.07204
5542.41893,0.07747
5544.34740,0.06791
5546.27586,0.07361
5548.20433,0.09171
5550.13280,0.09191
5552.06127,0.07412
5553.98974,0.06998
5555.91821,0.08226
5557.84668,0.09131
5559.77514,0.09546
5561.70361,0.09403
5563.63208,0.08715
5565.56055,0.08721
5567.48902,0.09740
5569.41749,0.09736
5571.34596,0.07672
5573.27443,0.04858
5575.20289,0.03338
5577.13136,0.04878
5579.05983,0.08195
5580.98830,0.09776
5582.91677,0.08823
5584.84524,0.08142
5586.77371,0.08872
5588.70217,0.09754
5590.63064,0.09517
5592.55911,0.07972
5594.48758,0.07939
5596.41605,0.10051
5598.34452,0.10286
5600.27299,0.08534
5602.20145,0.07018
5604.12992,0.05992
5606.05839,0.06398
5607.98686,0.07735
5609.91533,0.08178
5611.84380,0.07366
5613.77227,0.05985
5615.70074,0.05388
5617.62920,0.06132
5619.55767,0.06901
5621.48614,0.06975
5623.41461,0.07395
5625.34308,0.07565
5627.27155,0.05895
5629.20002,0.04816
5631.12848,0.06451
5633.05695,0.08075
5634.98542,0.07758
5636.91389,0.07706
5638.84236,0.09077
5640.77083,0.09466
5642.69930,0.08218
5644.62777,0.07469
5646.55623,0.08587
5648.48470,0.10631
5650.41317,0.10613
5652.34164,0.07655
5654.27011,0.05172
5656.19858,0.04797
5658.12705,0.05593
5660.05551,0.07341
5661.98398,0.08931
5663.91245,0.08645
5665.84092,0.06703
5667.76939,0.05684
5669.69786,0.06792
5671.62633,0.07289
5673.55480,0.06255
5675.48326,0.06488
5677.41173,0.07896
5679.34020,0.08623
5681.26867,0.08744
5683.19714,0.07759
5685.12561,0.06290
5687.05408,0.05667
5688.98254,0.05625
5690.91101,0.05472
5692.83948,0.05498
5694.76795,0.06873
5696.69642,0.08331
5698.62489,0.07890
5700.55336,0.07868
5702.48183,0.10144
5704.41029,0.12003
5706.33876,0.10943
5708.26723,0.07820
5710.19570,0.05743
5712.12417,0.05537
5714.05264,0.04908
5715.98111,0.05412
5717.90957,0.07538
5719.83804,0.07356
5721.76651,0.05807
5723.69498,0.05467
5725.62345,0.06247
5727.55192,0.07544
5729.48039,0.08413
5731.40886,0.08394
5733.33732,0.07119
5735.26579,0.05725
5737.19426,0.06331
5739.12273,0.07136
5741.05120,0.06735
5742.97967,0.07567
5744.90814,0.09091
5746.83660,0.09460
5748.76507,0.10053
5750.69354,0.10390
5752.62201,0.09140
5754.55048,0.07567
5756.47895,0.06383
5758.40742,0.07159
5760.33588,0.09540
5762.26435,0.09512
5764.19282,0.08109
5766.12129,0.08881
5768.04976,0.09372
5769.97823,0.09363
5771.90670,0.10805
5773.83517,0.11415
5775.76363,0.12087
5777.69210,0.14838
5779.62057,0.16352
5781.54904,0.14089
5783.47751,0.10821
5785.40598,0.10311
5787.33445,0.11924
5789.26291,0.12627
5791.19138,0.10583
5793.11985,0.08472
5795.04832,0.09494
5796.97679,0.09933
5798.90526,0.07758
5800.83373,0.05849
5802.76220,0.04940
5804.69066,0.04074
5806.61913,0.03409
5808.54760,0.03039
5810.47607,0.02525
5812.40454,0.03532
5814.33301,0.06545
5816.26148,0.09679
5818.18994,0.11115
5820.11841,0.09967
5822.04688,0.09147
5823.97535,0.10581
5825.90382,0.11359
5827.83229,0.09762
5829.76076,0.08250
5831.68923,0.07767
5833.61769,0.06487
5835.54616,0.06597
5837.47463,0.08581
5839.40310,0.09188
5841.33157,0.08873
5843.26004,0.09026
5845.18851,0.10085
5847.11697,0.11462
5849.04544,0.11115
5850.97391,0.09667
5852.90238,0.08550
5854.83085,0.07894
5856.75932,0.07655
5858.68779,0.06522
5860.61626,0.05565
5862.54472,0.07624
5864.47319,0.09825
5866.40166,0.08434
5868.33013,0.06472
5870.25860,0.05839
5872.18707,0.05186
5874.11554,0.04849
5876.04400,0.04947
5877.97247,0.06671
5879.90094,0.09934
5881.82941,0.10355
5883.75788,0.08938
5885.68635,0.09032
5887.61482,0.08749
5889.54329,0.07924
5891.47175,0.08285
5893.40022,0.08823
5895.32869,0.08621
5897.25716,0.08453
5899.18563,0.08607
5901.11410,0.08404
5903.04257,0.08068
5904.97103,0.08086
5906.89950,0.08365
5908.82797,0.09697
5910.75644,0.12422
5912.68491,0.13870
5914.61338,0.12276
5916.54185,0.09548
5918.47032,0.07279
5920.39878,0.05638
5922.32725,0.04556
5924.25572,0.04846
5926.18419,0.06330
5928.11266,0.06847
5930.04113,0.06951
5931.96960,0.08302
5933.89806,0.09883
5935.82653,0.10329
5937.75500,0.08681
5939.68347,0.06623
5941.61194,0.08203
5943.54041,0.11674
5945.46888,0.12354
5947.39734,0.10047
5949.32581,0.07790
5951.25428,0.08622
5953.18275,0.10054
5955.11122,0.10574
5957.03969,0.12074
5958.96816,0.12461
5960.89663,0.10021
5962.82509,0.07180
5964.75356,0.06296
5966.68203,0.07080
5968.61050,0.06821
5970.53897,0.04995
5972.46744,0.04379
5974.39591,0.05596
5976.32437,0.06277
5978.25284,0.06436
5980.18131,0.06974
5982.10978,0.06728
5984.03825,0.07181
5985.96672,0.10105
5987.89519,0.11168
5989.82366,0.09202
5991.75212,0.08156
5993.68059,0.07971
5995.60906,0.08272
5997.53753,0.08211
5999.46600,0.05407
6001.39447,0.02336
6003.32294,0.01712
6005.25140,0.02516
6007.17987,0.03858
6009.10834,0.05854
6011.03681,0.07356
6012.96528,0.07572
6014.89375,0.08503
6016.82222,0.10216
6018.75069,0.09672
6020.67915,0.06870
6022.60762,0.04596
6024.53609,0.03989
6026.46456,0.04603
6028.39303,0.04545
6030.32150,0.02633
6032.24997,0.02901
6034.17843,0.08884
6036.10690,0.15969
6038.03537,0.17932
6039.96384,0.16459
6041.89231,0.14428
6043.82078,0.12393
6045.74925,0.11103
6047.67772,0.08410
6049.60618,0.04619
6051.53465,0.04110
6053.46312,0.07989
6055.39159,0.10877
6057.32006,0.06291
6059.24853,0.01418
6061.17700,0.03492
6063.10546,0.07660
6065.03393,0.11504
6066.96240,0.15735
6068.89087,0.17940
6070.81934,0.17689
6072.74781,0.17244
6074.67628,0.16021
6076.60475,0.12537
6078.53321,0.09648
6080.46168,0.10954
6082.39015,0.13382
6084.31862,0.11837
6086.24709,0.07451
6088.17556,0.05209
6090.10403,0.06167
6092.03249,0.09205
6093.96096,0.13822
6095.88943,0.16191
6097.81790,0.14512
6099.74637,0.10939
6101.67484,0.08561
6103.60331,0.09290
6105.53177,0.09331
6107.46024,0.06876
6109.38871,0.06438
6111.31718,0.09215
6113.24565,0.10550
6115.17412,0.08834
6117.10259,0.06555
6119.03106,0.05893
6120.95952,0.05516
6122.88799,0.04848
6124.81646,0.08683
6126.74493,0.16200
6128.67340,0.18874
6130.60187,0.13645
6132.53034,0.08041
6134.45880,0.07710
6136.38727,0.08364
6138.31574,0.07339
6140.24421,0.07037
6142.17268,0.06560
6144.10115,0.04272
6146.02962,0.04037
6147.95809,0.06254
6149.88655,0.06711
6151.81502,0.05964
6153.74349,0.06254
6155.67196,0.08585
6157.60043,0.11713
6159.52890,0.11073
6161.45737,0.06802
6163.38583,0.03896
6165.31430,0.04442
6167.24277,0.07052
6169.17124,0.10003
6171.09971,0.12243
6173.02818,0.13269
6174.95665,0.13924
6176.88512,0.14930
6178.81358,0.14010
6180.74205,0.11107
6182.67052,0.10275
6184.59899,0.12428
6186.52746,0.14029
6188.45593,0.10514
6190.38440,0.04405
6192.31286,0.02502
6194.24133,0.03678
6196.16980,0.04620
6198.09827,0.06355
6200.02674,0.07681
6201.95521,0.08095
6203.88368,0.07679
6205.81215,0.05085
6207.74061,0.03010
6209.66908,0.00367
6211.59755,-0.01742
6213.52602,0.02211
6215.45449,0.07563
6217.38296,0.09601
6219.31143,0.10119
6221.23989,0.10443
6223.16836,0.10875
6225.09683,0.14070
6227.02530,0.19116
6228.95377,0.18498
6230.88224,0.12920
6232.81071,0.11040
6234.73918,0.11179
6236.66764,0.07121
6238.59611,0.02775
6240.52458,0.04133
6242.45305,0.09105
6244.38152,0.11370
6246.30999,0.10950
6248.23846,0.12746
6250.16692,0.15958
6252.09539,0.16079
6254.02386,0.14206
6255.95233,0.12672
6257.88080,0.09717
6259.80927,0.06033
6261.73774,0.06003
6263.66621,0.10342
6265.59467,0.14230
6267.52314,0.13809
6269.45161,0.11981
6271.38008,0.11257
6273.30855,0.11139
6275.23702,0.10000
6277.16549,0.07224
6279.09395,0.08091
6281.02242,0.12539
6282.95089,0.15020
6284.87936,0.16286
6286.80783,0.16479
6288.73630,0.14548
6290.66477,0.13636
6292.59323,0.15857
6294.52170,0.18542
6296.45017,0.18055
6298.37864,0.15813
6300.30711,0.14458
6302.23558,0.12911
6304.16405,0.11046
6306.09252,0.09758
6308.02098,0.10020
6309.94945,0.12897
6311.87792,0.13093
6313.80639,0.08748
6315.73486,0.05173
6317.66333,0.03712
6319.59180,0.05704
6321.52026,0.08055
6323.44873,0.06214
6325.37720,0.04651
6327.30567,0.05817
6329.23414,0.07690
6331.16261,0.07831
6333.09108,0.06282
6335.01955,0.06304
6336.94801,0.09778
6338.87648,0.13521
6340.80495,0.12059
6342.73342,0.07885
6344.66189,0.06829
6346.59036,0.07897
6348.51883,0.08450
6350.44729,0.07163
6352.37576,0.04741
6354.30423,0.06225
6356.23270,0.10526
6358.16117,0.12675
6360.08964,0.13080
6362.01811,0.16313
6363.94658,0.21708
6365.87504,0.20551
6367.80351,0.12198
6369.73198,0.06773
6371.66045,0.08751
6373.58892,0.15308
6375.51739,0.19233
6377.44586,0.16449
6379.37432,0.11066
6381.30279,0.10137
6383.23126,0.11544
6385.15973,0.08569
6387.08820,0.04871
6389.01667,0.05390
6390.94514,0.08567
6392.87361,0.08970
6394.80207,0.06404
6396.73054,0.03935
6398.65901,0.00879
6400.58748,-0.00162
6402.51595,0.04814
6404.44442,0.13361
6406.37289,0.18670
6408.30135,0.18299
6410.22982,0.13404
6412.15829,0.03049
6414.08676,-0.06746
6416.01523,-0.08780
6417.94370,-0.02920
6419.87217,0.05311
6421.80064,0.10191
6423.72910,0.13016
6425.65757,0.12842
6427.58604,0.06925
6429.51451,0.00560
6431.44298,0.00848
6433.37145,0.08145
6435.29992,0.13410
6437.22838,0.11111
6439.15685,0.08667
6441.08532,0.09119
6443.01379,0.08239
6444.94226,0.05285
6446.87073,0.02461
6448.79920,0.04323
6450.72766,0.09095
6452.65613,0.09327
6454.58460,0.07252
6456.51307,0.08847
6458.44154,0.11628
6460.37001,0.09903
6462.29848,0.05285
6464.22695,0.01531
6466.15541,-0.02045
6468.08388,-0.06184
6470.01235,-0.06796
6471.94082,0.00074
6473.86929,0.08075
6475.79776,0.10086
6477.72623,0.08140
6479.65469,0.07188
6481.58316,0.06194
6483.51163,0.05267
6485.44010,0.06086
6487.36857,0.04808
6489.29704,0.03052
6491.22551,0.06293
6493.15398,0.10218
6495.08244,0.08265
6497.01091,0.02910
6498.93938,0.01075
6500.86785,0.05456
6502.79632,0.12202
6504.72479,0.16124
6506.65326,0.15154
6508.58172,0.11120
6510.51019,0.07729
6512.43866,0.07339
6514.36713,0.08431
6516.29560,0.08271
6518.22407,0.08429
6520.15254,0.10435
6522.08101,0.09015
6524.00947,0.02322
6525.93794,-0.00245
6527.86641,0.04198
6529.79488,0.10158
6531.72335,0.16039
6533.65182,0.18576
6535.58029,0.13703
6537.50875,0.04319
6539.43722,-0.02778
6541.36569,-0.02967
6543.29416,0.03009
6545.22263,0.09698
6547.15110,0.14761
6549.07957,0.17131
6551.00804,0.13141
6552.93650,0.05151
6554.86497,0.00374
6556.79344,0.02392
6558.72191,0.08001
6560.65038,0.11190
6562.57885,0.07903
6564.50732,0.02873
6566.43578,0.04001
6568.36425,0.05017
6570.29272,0.02672
6572.22119,0.05294
6574.14966,0.09574
6576.07813,0.05937
6578.00660,-0.01751
6579.93507,-0.01091
6581.86353,0.06899
6583.79200,0.08055
6585.72047,0.05167
6587.64894,0.08913
6589.57741,0.12789
6591.50588,0.12026
6593.43435,0.08863
6595.36281,0.06681
6597.29128,0.10052
6599.21975,0.12642
6601.14822,0.08383
6603.07669,0.03235
6605.00516,0.00285
6606.93363,-0.00363
6608.86210,0.01345
6610.79056,0.03764
6612.71903,0.06798
6614.64750,0.09845
6616.57597,0.11621
6618.50444,0.09973
6620.43291,0.07371
6622.36138,0.08277
6624.28984,0.11883
6626.21831,0.15240
6628.14678,0.14956
6630.07525,0.10748
6632.00372,0.08476
6633.93219,0.11410
6635.86066,0.18154
6637.78912,0.21354
6639.71759,0.14518
6641.64606,0.01479
6643.57453,-0.06248
6645.50300,-0.02906
6647.43147,0.02669
6649.35994,0.04118
6651.28841,0.08547
6653.21687,0.16739
6655.14534,0.19949
6657.07381,0.15548
6659.00228,0.06136
6660.93075,-0.02458
6662.85922,-0.04119
6664.78769,-0.01508
6666.71615,0.00813
6668.64462,0.03124
6670.57309,0.06154
6672.50156,0.09260
6674.43003,0.15919
6676.35850,0.22146
6678.28697,0.17957
6680.21544,0.08192
6682.14390,0.02993
6684.07237,0.04173
6686.00084,0.09209
6687.92931,0.13479
6689.85778,0.12959
6691.78625,0.11645
6693.71472,0.11880
6695.64318,0.07250
6697.57165,-0.02560
6699.50012,-0.06629
6701.42859,-0.04005
6703.35706,0.00084
6705.28553,0.03712
6707.21400,0.04363
6709.14247,0.04285
6711.07093,0.05783
6712.99940,0.08789
6714.92787,0.14398
6716.85634,0.16496
6718.78481,0.10190
6720.71328,0.04273
6722.64175,0.05651
6724.57021,0.08482
6726.49868,0.07585
6728.42715,0.03686
6730.35562,-0.00255
6732.28409,-0.00310
6734.21256,0.02148
6736.14103,0.02770
6738.06950,0.04976
6739.99796,0.07650
6741.92643,0.03722
6743.85490,-0.00314
6745.78337,-0.00409
6747.71184,-0.00590
6749.64031,-0.01895
6751.56878,-0.01276
6753.49724,0.04905
6755.42571,0.09444
6757.35418,0.07430
6759.28265,0.04313
6761.21112,0.03440
6763.13959,0.02431
6765.06806,-0.01451
6766.99653,-0.05994
6768.92499,-0.06281
6770.85346,-0.01394
6772.78193,0.05513
6774.71040,0.09997
6776.63887,0.07556
6778.56734,0.02752
6780.49581,0.02323
6782.42427,0.04735
6784.35274,0.07986
6786.28121,0.09234
6788.20968,0.04371
6790.13815,-0.02285
6792.06662,-0.00422
6793.99509,0.09103
6795.92355,0.16550
6797.85202,0.18240
6799.78049,0.18078
6801.70896,0.19060
6803.63743,0.19961
6805.56590,0.19787
6807.49437,0.16547
6809.42284,0.06280
6811.35130,-0.05806
6813.27977,-0.06426
6815.20824,0.02093
6817.13671,0.09375
6819.06518,0.11683
6820.99365,0.08843
6822.92212,0.06438
6824.85058,0.11547
6826.77905,0.15898
6828.70752,0.09935
6830.63599,0.00261
6832.56446,-0.03420
6834.49293,-0.06841
6836.42140,-0.11308
6838.34987,-0.09871
6840.27833,-0.03849
6842.20680,0.03364
6844.13527,0.07936
6846.06374,0.09402
6847.99221,0.14156
6849.92068,0.17514
6851.84915,0.12256
6853.77761,0.07035
6855.70608,0.03735
6857.63455,-0.02638
6859.56302,-0.09499
6861.49149,-0.14491
6863.41996,-0.14334
6865.34843,-0.04522
6867.27690,0.10118
6869.20536,0.17798
6871.13383,0.13722
6873.06230,0.01710
6874.99077,-0.05011
6876.91924,-0.03496
6878.84771,-0.01704
6880.77618,-0.00118
6882.70464,0.04350
6884.63311,0.07630
6886.56158,0.08222
6888.49005,0.05218
6890.41852,-0.01122
6892.34699,-0.03380
6894.27546,-0.00785
6896.20393,0.01744
6898.13239,0.06498
6900.06086,0.12596
6901.98933,0.12453
6903.91780,0.08883
6905.84627,0.11720
6907.77474,0.12162
6909.70321,0.04716
6911.63167,0.02896
6913.56014,0.06956
6915.48861,0.06623
6917.41708,0.04131
6919.34555,0.03780
6921.27402,0.05232
6923.20249,0.08365
6925.13096,0.08310
6927.05942,0.02476
6928.98789,0.00438
6930.91636,0.09686
6932.84483,0.19737
6934.77330,0.21296
6936.70177,0.17404
6938.63024,0.08546
6940.55870,-0.00986
6942.48717,-0.01425
6944.41564,0.00167
6946.34411,-0.05080
6948.27258,-0.11452
6950.20105,-0.14415
6952.12952,-0.16632
6954.05799,-0.13377
6955.98645,-0.02523
6957.91492,0.01049
6959.84339,-0.05440
6961.77186,-0.07696
6963.70033,-0.01944
6965.62880,0.03392
6967.55727,0.04045
6969.48573,0.04359
6971.41420,0.07343
6973.34267,0.04443
6975.27114,-0.02964
6977.19961,-0.01631
6979.12808,0.04898
6981.05655,0.08772
6982.98501,0.10587
6984.91348,0.12350
6986.84195,0.14043
6988.77042,0.10836
6990.69889,0.01928
6992.62736,-0.01439
6994.55583,0.06135
6996.48430,0.19107
6998.41276,0.24261
7000.34123,0.16978
7002.26970,0.11520
7004.19817,0.09937
7006.12664,0.06851
7008.05511,0.06088
7009.98358,0.04257
7011.91204,-0.01418
7013.84051,-0.03536
7015.76898,0.01679
7017.69745,0.08346
7019.62592,0.12617
7021.55439,0.14623
7023.48286,0.14501
7025.41133,0.14043
7027.33979,0.16020
7029.26826,0.16977
7031.19673,0.16850
7033.12520,0.19515
7035.05367,0.18618
7036.98214,0.10876
7038.91061,0.01547
7040.83907,-0.06184
7042.76754,-0.07127
7044.69601,-0.01307
7046.62448,0.05447
7048.55295,0.10174
7050.48142,0.11852
7052.40989,0.12843
7054.33836,0.16181
7056.26682,0.20673
7058.19529,0.16539
7060.12376,0.02398
7062.05223,-0.07937
7063.98070,-0.07198
7065.90917,-0.02396
7067.83764,0.00759
7069.76610,0.03562
7071.69457,0.07663
7073.62304,0.12709
7075.55151,0.09910
7077.47998,0.01438
7079.40845,-0.01103
7081.33692,0.00772
7083.26539,0.03711
7085.19385,0.12208
7087.12232,0.20809
7089.05079,0.18705
7090.97926,0.06272
7092.90773,-0.04203
7094.83620,-0.04306
7096.76467,0.01638
7098.69313,0.06907
7100.62160,0.06646
7102.55007,0.03258
7104.47854,0.01171
7106.40701,-0.02120
7108.33548,-0.05366
7110.26395,-0.01180
7112.19242,0.02579
7114.12088,-0.04322
7116.04935,-0.13550
7117.97782,-0.14340
7119.90629,-0.07344
7121.83476,-0.02692
7123.76323,-0.07124
7125.69170,-0.14125
7127.62016,-0.13460
7129.54863,-0.05388
7131.47710,0.05391
7133.40557,0.16024
7135.33404,0.19375
7137.26251,0.13985
7139.19098,0.03034
7141.11944,-0.03905
7143.04791,0.01538
7144.97638,0.09067
7146.90485,0.09617
7148.83332,0.08016
7150.76179,0.06981
7152.69026,0.07276
7154.61873,0.02858
7156.54719,-0.01075
7158.47566,0.06669
7160.40413,0.15208
7162.33260,0.18078
7164.26107,0.22262
7166.18954,0.24688
7168.11801,0.18984
7170.04647,0.16148
7171.97494,0.19285
7173.90341,0.11607
7175.83188,-0.06952
7177.76035,-0.13789
7179.68882,-0.02156
7181.61729,0.12601
7183.54576,0.13980
7185.47422,0.04224
7187.40269,-0.01136
7189.33116,-0.03924
7191.25963,-0.05763
7193.18810,-0.01556
7195.11657,0.02054
7197.04504,0.05600
7198.97350,0.10652
7200.90197,0.11476
7202.83044,0.07975
7204.75891,-0.01228
7206.68738,-0.08702
7208.61585,-0.06537
7210.54432,-0.03799
7212.47279,-0.02132
7214.40125,0.04519
7216.32972,0.17938
7218.25819,0.27133
7220.18666,0.19709
7222.11513,0.05892
7224.04360,-0.05385
7225.97207,-0.00928
7227.90053,0.18487
7229.82900,0.27652
7231.75747,0.20589
7233.68594,0.14727
7235.61441,0.11369
7237.54288,0.08367
7239.47135,0.11350
7241.39982,0.15691
7243.32828,0.11716
7245.25675,0.01637
7247.18522,-0.03376
7249.11369,0.00277
7251.04216,0.02727
7252.97063,0.02557
7254.89910,0.11096
7256.82756,0.13182
7258.75603,0.04868
7260.68450,0.01668
7262.61297,0.05449
7264.54144,0.05070
7266.46991,-0.00707
7268.39838,-0.06131
7270.32685,0.00044
7272.25531,0.12700
7274.18378,0.16195
7276.11225,0.15244
7278.04072,0.15990
7279.96919,0.15496
7281.89766,0.11171
7283.82613,0.11881
7285.75459,0.10334
7287.68306,0.01963
7289.61153,-0.05284
7291.54000,-0.07920
7293.46847,0.00159
7295.39694,0.12739
7297.32541,0.14687
7299.25387,0.05804
7301.18234,-0.07842
7303.11081,-0.15011
7305.03928,-0.05863
7306.96775,0.09500
7308.89622,0.09604
7310.82469,0.00904
7312.75316,0.07007
7314.68162,0.20078
7316.61009,0.22591
7318.53856,0.14686
7320.46703,0.06559
7322.39550,0.03130
7324.32397,0.08990
7326.25244,0.16760
7328.18090,0.18038
7330.10937,0.13051
7332.03784,0.10037
7333.96631,0.11420
7335.89478,0.11824
7337.82325,0.09705
7339.75172,0.07146
7341.68019,0.03815
7343.60865,-0.02943
7345.53712,-0.07778
7347.46559,0.00404
7349.39406,0.14970
7351.32253,0.16985
7353.25100,0.05628
7355.17947,-0.05970
7357.10793,-0.07309
7359.03640,0.03409
7360.96487,0.06589
7362.89334,-0.07693
7364.82181,-0.20741
7366.75028,-0.17847
7368.67875,-0.03008
7370.60722,0.10011
7372.53568,0.17359
7374.46415,0.26205
7376.39262,0.30132
7378.32109,0.24517
7380.24956,0.19903
7382.17803,0.20868
7384.10650,0.24300
7386.03496,0.29250
7387.96343,0.36190
7389.89190,0.41733
7391.82037,0.44159
7393.74884,0.42811
7395.67731,0.42346
7397.60578,0.35919
7399.53425,0.21835
7401.46271,0.13512
7403.39118,0.02301
7405.31965,-0.17669
7407.24812,-0.24426
7409.17659,-0.13196
7411.10506,0.02731
7413.03353,0.12357
7414.96199,0.15345
7416.89046,0.09765
7418.81893,-0.00868
7420.74740,0.03478
7422.67587,0.04480
7424.60434,-0.07794
7426.53281,-0.10547
7428.46128,0.03682
7430.38974,0.20691
7432.31821,0.21271
7434.24668,0.09376
7436.17515,-0.01264
7438.10362,-0.00762
7440.03209,0.07414
7441.96056,0.12181
7443.88902,0.11320
7445.81749,0.12391
7447.74596,0.15695
7449.67443,0.07443
7451.60290,-0.01136
7453.53137,0.10102
7455.45984,0.18807
7457.38831,0.17427
7459.31677,0.14898
7461.24524,0.11398
7463.17371,-0.02876
7465.10218,-0.20406
7467.03065,-0.17916
7468.95912,-0.02380
7470.88759,0.04710
7472.81605,0.00063
7474.74452,0.00813
7476.67299,0.12160
7478.60146,0.13947
7480.52993,-0.07836
7482.45840,-0.30567
7484.38687,-0.33432
7486.31533,-0.21192
7488.24380,0.00894
7490.17227,0.22306
7492.10074,0.26353
7494.02921,0.15286
7495.95768,0.04076
7497.88615,0.01256
