399.19301,-0.30942
401.12148,0.21655
403.04995,0.24490
404.97842,0.23752
406.90689,0.27308
408.83536,0.29269
410.76382,0.29178
412.69229,0.25917
414.62076,0.19884
416.54923,0.19202
418.47770,0.29508
420.40617,0.38993
422.33464,0.35805
424.26311,0.26917
426.19157,0.16522
428.12004,0.07623
430.04851,0.03416
431.97698,0.07088
433.90545,0.11455
435.83392,0.09470
437.76239,0.05339
439.69085,0.03634
441.61932,0.06448
443.54779,0.08541
445.47626,0.03485
447.40473,0.00109
449.33320,0.00555
451.26167,-0.00410
453.19013,0.00101
455.11860,0.03433
457.04707,0.06273
458.97554,0.07035
460.90401,0.06330
462.83248,0.04947
464.76095,0.04406
466.68942,0.04134
468.61788,0.04318
470.54635,0.09056
472.47482,0.18643
474.40329,0.22193
476.33176,0.16227
478.26023,0.08924
480.18870,0.01543
482.11716,-0.02222
484.04563,-0.00196
485.97410,0.04202
487.90257,0.05916
489.83104,0.03696
491.75951,0.02541
493.68798,0.03507
495.61645,0.03168
497.54491,0.02798
499.47338,0.04390
501.40185,0.06454
503.33032,0.08640
505.25879,0.10357
507.18726,0.08964
509.11573,0.06920
511.04419,0.07992
512.97266,0.09304
514.90113,0.10043
516.82960,0.12662
518.75807,0.14980
520.68654,0.15601
522.61501,0.15426
524.54348,0.14364
526.47194,0.13484
528.40041,0.12266
530.32888,0.10405
532.25735,0.08881
534.18582,0.07514
536.11429,0.06533
538.04276,0.05729
539.97122,0.05700
541.89969,0.07460
543.82816,0.08603
545.75663,0.08017
547.68510,0.06663
549.61357,0.05706
551.54204,0.08362
553.47051,0.13781
555.39897,0.16504
557.32744,0.14028
559.25591,0.08893
561.18438,0.05000
563.11285,0.05456
565.04132,0.09027
566.96979,0.10826
568.89825,0.10756
570.82672,0.11138
572.75519,0.11601
574.68366,0.12981
576.61213,0.13557
578.54060,0.10714
580.46907,0.07530
582.39754,0.06683
584.32600,0.07440
586.25447,0.09067
588.18294,0.10319
590.11141,0.09709
592.03988,0.07948
593.96835,0.07708
595.89682,0.09041
597.82528,0.09535
599.75375,0.09534
601.68222,0.10421
603.61069,0.10608
605.53916,0.09876
607.46763,0.10256
609.39610,0.11074
611.32456,0.10611
613.25303,0.09609
615.18150,0.09540
617.10997,0.10009
619.03844,0.10608
620.96691,0.11014
622.89538,0.10335
624.82385,0.09891
626.75231,0.10786
628.68078,0.11523
630.60925,0.11417
632.53772,0.11156
634.46619,0.11530
636.39466,0.11787
638.32313,0.10286
640.25159,0.09286
642.18006,0.10579
644.10853,0.10754
646.03700,0.09075
647.96547,0.08512
649.89394,0.09014
651.82241,0.08581
653.75088,0.07494
655.67934,0.06866
657.60781,0.06885
659.53628,0.07599
661.46475,0.08918
663.39322,0.09260
665.32169,0.08552
667.25016,0.09608
669.17862,0.12444
671.10709,0.12406
673.03556,0.10873
674.96403,0.09077
676.89250,0.08436
678.82097,0.09886
680.74944,0.11062
682.67791,0.10007
684.60637,0.08363
686.53484,0.08160
688.46331,0.09007
690.39178,0.09161
692.32025,0.08167
694.24872,0.07474
696.17719,0.08481
698.10565,0.10480
700.03412,0.11840
701.96259,0.11676
703.89106,0.10628
705.81953,0.10376
707.74800,0.10634
709.67647,0.10664
711.60494,0.11045
713.53340,0.11507
715.46187,0.11745
717.39034,0.12127
719.31881,0.12189
721.24728,0.11780
723.17575,0.11588
725.10422,0.11490
727.03268,0.11363
728.96115,0.11298
730.88962,0.11564
732.81809,0.12464
734.74656,0.12895
736.67503,0.12396
738.60350,0.11623
740.53197,0.10547
742.46043,0.09883
744.38890,0.10288
746.31737,0.10910
748.24584,0.11321
750.17431,0.11525
752.10278,0.11027
754.03125,0.10053
755.95971,0.09859
757.88818,0.10955
759.81665,0.12144
761.74512,0.12196
763.67359,0.11302
765.60206,0.10759
767.53053,0.11422
769.45900,0.12459
771.38746,0.12659
773.31593,0.12022
775.24440,0.10954
777.17287,0.10126
779.10134,0.10326
781.02981,0.11186
782.95828,0.12171
784.88674,0.13154
786.81521,0.13585
788.74368,0.13085
790.67215,0.11978
792.60062,0.10726
794.52909,0.10036
796.45756,0.10590
798.38602,0.11967
800.31449,0.12743
802.24296,0.12244
804.17143,0.11735
806.09990,0.11923
808.02837,0.12038
809.95684,0.11938
811.88531,0.11931
813.81377,0.12012
815.74224,0.12294
817.67071,0.12735
819.59918,0.13093
821.52765,0.13344
823.45612,0.13168
825.38459,0.12547
827.31305,0.12137
829.24152,0.12214
831.16999,0.12818
833.09846,0.13308
835.02693,0.12748
836.95540,0.11649
838.88387,0.11322
840.81234,0.11727
842.74080,0.11394
844.66927,0.10483
846.59774,0.10525
848.52621,0.10897
850.45468,0.10687
852.38315,0.10829
854.31162,0.11613
856.24008,0.12006
858.16855,0.11874
860.09702,0.11840
862.02549,0.11901
863.95396,0.12015
865.88243,0.12466
867.81090,0.13899
869.73937,0.16234
871.66783,0.17068
873.59630,0.15233
875.52477,0.13011
877.45324,0.11959
879.38171,0.11690
881.31018,0.11915
883.23865,0.12314
885.16711,0.12543
887.09558,0.12685
889.02405,0.12661
890.95252,0.12154
892.88099,0.11436
894.80946,0.11017
896.73793,0.11047
898.66640,0.11542
900.59486,0.12264
902.52333,0.12776
904.45180,0.12784
906.38027,0.12508
908.30874,0.12459
910.23721,0.12337
912.16568,0.11848
914.09414,0.11982
916.02261,0.12866
917.95108,0.13063
919.87955,0.12269
921.80802,0.11670
923.73649,0.12145
925.66496,0.13156
927.59343,0.13605
929.52189,0.13267
931.45036,0.12668
933.37883,0.12289
935.30730,0.12260
937.23577,0.12583
939.16424,0.12781
941.09271,0.12461
943.02117,0.12433
944.94964,0.13087
946.87811,0.13404
948.80658,0.13001
950.73505,0.12893
952.66352,0.13468
954.59199,0.14018
956.52045,0.14076
958.44892,0.13719
960.37739,0.13305
962.30586,0.12821
964.23433,0.12179
966.16280,0.12035
968.09127,0.12420
970.01974,0.12595
971.94820,0.12403
973.87667,0.12309
975.80514,0.12659
977.73361,0.13141
979.66208,0.13538
981.59055,0.13774
983.51902,0.13422
985.44748,0.12827
987.37595,0.12588
989.30442,0.12433
991.23289,0.12316
993.16136,0.12349
995.08983,0.12410
997.01830,0.12871
998.94677,0.13674
1000.87523,0.14187
1002.80370,0.14113
1004.73217,0.13285
1006.66064,0.12438
1008.58911,0.12593
1010.51758,0.13293
1012.44605,0.13801
1014.37451,0.14037
1016.30298,0.14111
1018.23145,0.14255
1020.15992,0.14118
1022.08839,0.13642
1024.01686,0.13524
1025.94533,0.13396
1027.87380,0.12817
1029.80226,0.12308
1031.73073,0.12184
1033.65920,0.12608
1035.58767,0.13268
1037.51614,0.13481
1039.44461,0.13295
1041.37308,0.13082
1043.30154,0.13306
1045.23001,0.14026
1047.15848,0.14619
1049.08695,0.15026
1051.01542,0.15291
1052.94389,0.14960
1054.87236,0.14592
1056.80083,0.15040
1058.72929,0.15577
1060.65776,0.15814
1062.58623,0.16144
1064.51470,0.15943
1066.44317,0.15341
1068.37164,0.15323
1070.30011,0.15430
1072.22857,0.15107
1074.15704,0.14898
1076.08551,0.14703
1078.01398,0.14097
1079.94245,0.13807
1081.87092,0.14062
1083.79939,0.14140
1085.72786,0.13986
1087.65632,0.13979
1089.58479,0.14123
1091.51326,0.13980
1093.44173,0.13603
1095.37020,0.13904
1097.29867,0.14910
1099.22714,0.15663
1101.15560,0.15965
1103.08407,0.15969
1105.01254,0.15698
1106.94101,0.15472
1108.86948,0.15313
1110.79795,0.15004
1112.72642,0.14713
1114.65489,0.14863
1116.58335,0.15368
1118.51182,0.15342
1120.44029,0.14717
1122.36876,0.14409
1124.29723,0.14595
1126.22570,0.14906
1128.15417,0.15030
1130.08263,0.14495
1132.01110,0.13707
1133.93957,0.13735
1135.86804,0.14225
1137.79651,0.14520
1139.72498,0.14981
1141.65345,0.15378
1143.58191,0.15401
1145.51038,0.15578
1147.43885,0.15849
1149.36732,0.15699
1151.29579,0.15397
1153.22426,0.15176
1155.15273,0.15150
1157.08120,0.15483
1159.00966,0.15768
1160.93813,0.15884
1162.86660,0.15997
1164.79507,0.15895
1166.72354,0.15438
1168.65201,0.14993
1170.58048,0.14836
1172.50894,0.14626
1174.43741,0.14349
1176.36588,0.14281
1178.29435,0.14228
1180.22282,0.14237
1182.15129,0.14581
1184.07976,0.14932
1186.00823,0.14967
1187.93669,0.15027
1189.86516,0.15383
1191.79363,0.15756
1193.72210,0.15736
1195.65057,0.15280
1197.57904,0.14861
1199.50751,0.14962
1201.43597,0.15424
1203.36444,0.15789
1205.29291,0.15916
1207.22138,0.15940
1209.14985,0.15928
1211.07832,0.15891
1213.00679,0.15916
1214.93526,0.15938
1216.86372,0.15839
1218.79219,0.15478
1220.72066,0.14895
1222.64913,0.14663
1224.57760,0.15051
1226.50607,0.15591
1228.43454,0.15903
1230.36300,0.15990
1232.29147,0.15930
1234.21994,0.15764
1236.14841,0.15509
1238.07688,0.15266
1240.00535,0.15179
1241.93382,0.15237
1243.86229,0.15249
1245.79075,0.15278
1247.71922,0.15570
1249.64769,0.15887
1251.57616,0.15967
1253.50463,0.15931
1255.43310,0.15898
1257.36157,0.15820
1259.29003,0.15658
1261.21850,0.15689
1263.14697,0.15936
1265.07544,0.15989
1267.00391,0.15905
1268.93238,0.15892
1270.86085,0.15850
1272.78932,0.15755
1274.71778,0.15551
1276.64625,0.15349
1278.57472,0.15315
1280.50319,0.15232
1282.43166,0.15241
1284.36013,0.15618
1286.28860,0.16144
1288.21706,0.16575
1290.14553,0.16621
1292.07400,0.16399
1294.00247,0.16237
1295.93094,0.16000
1297.85941,0.15835
1299.78788,0.15799
1301.71634,0.15525
1303.64481,0.15231
1305.57328,0.15425
1307.50175,0.16052
1309.43022,0.16651
1311.35869,0.16890
1313.28716,0.16765
1315.21563,0.16585
1317.14409,0.16597
1319.07256,0.16643
1321.00103,0.16503
1322.92950,0.16291
1324.85797,0.16094
1326.78644,0.15878
1328.71491,0.15919
1330.64337,0.16154
1332.57184,0.16170
1334.50031,0.16059
1336.42878,0.16251
1338.35725,0.16792
1340.28572,0.17129
1342.21419,0.17013
1344.14266,0.16212
1346.07112,0.15397
1347.99959,0.15832
1349.92806,0.16466
1351.85653,0.16420
1353.78500,0.16447
1355.71347,0.16580
1357.64194,0.16645
1359.57040,0.16741
1361.49887,0.16981
1363.42734,0.17336
1365.35581,0.17534
1367.28428,0.17452
1369.21275,0.17169
1371.14122,0.16905
1373.06969,0.16740
1374.99815,0.16746
1376.92662,0.16833
1378.85509,0.16761
1380.78356,0.16653
1382.71203,0.16815
1384.64050,0.17074
1386.56897,0.17031
1388.49743,0.16823
1390.42590,0.16901
1392.35437,0.17351
1394.28284,0.17880
1396.21131,0.18099
1398.13978,0.17968
1400.06825,0.17598
1401.99672,0.17510
1403.92518,0.17787
1405.85365,0.17759
1407.78212,0.17437
1409.71059,0.17232
1411.63906,0.17239
1413.56753,0.17674
1415.49600,0.18325
1417.42446,0.18726
1419.35293,0.18428
1421.28140,0.17658
1423.20987,0.17105
1425.13834,0.16944
1427.06681,0.17143
1428.99528,0.17544
1430.92375,0.17855
1432.85221,0.17884
1434.78068,0.17889
1436.70915,0.18007
1438.63762,0.18016
1440.56609,0.17848
1442.49456,0.17639
1444.42303,0.17620
1446.35149,0.17750
1448.27996,0.17781
1450.20843,0.17743
1452.13690,0.17880
1454.06537,0.18439
1455.99384,0.19493
1457.92231,0.19809
1459.85077,0.19008
1461.77924,0.18694
1463.70771,0.18903
1465.63618,0.19019
1467.56465,0.18777
1469.49312,0.18808
1471.42159,0.19498
1473.35006,0.20019
1475.27852,0.19374
1477.20699,0.18569
1479.13546,0.18249
1481.06393,0.18258
1482.99240,0.18367
1484.92087,0.18691
1486.84934,0.19320
1488.77780,0.19856
1490.70627,0.19638
1492.63474,0.19242
1494.56321,0.19483
1496.49168,0.20114
1498.42015,0.19938
1500.34862,0.18546
1502.27709,0.16731
1504.20555,0.15886
1506.13402,0.18304
1508.06249,0.21369
1509.99096,0.20323
1511.91943,0.19333
1513.84790,0.19431
1515.77637,0.20359
1517.70483,0.21334
1519.63330,0.21581
1521.56177,0.21378
1523.49024,0.21003
1525.41871,0.20593
1527.34718,0.20079
1529.27565,0.19626
1531.20412,0.19585
1533.13258,0.19889
1535.06105,0.20033
1536.98952,0.20536
1538.91799,0.22343
1540.84646,0.23932
1542.77493,0.22737
1544.70340,0.20991
1546.63186,0.19791
1548.56033,0.19389
1550.48880,0.19458
1552.41727,0.19859
1554.34574,0.20631
1556.27421,0.21723
1558.20268,0.22835
1560.13115,0.21338
1562.05961,0.19645
1563.98808,0.19080
1565.91655,0.18930
1567.84502,0.19054
1569.77349,0.19286
1571.70196,0.19405
1573.63043,0.19682
1575.55889,0.19941
1577.48736,0.19612
1579.41583,0.19092
1581.34430,0.18650
1583.27277,0.18397
1585.20124,0.18496
1587.12971,0.18667
1589.05818,0.18672
1590.98664,0.18652
1592.91511,0.18797
1594.84358,0.18882
1596.77205,0.18519
1598.70052,0.18065
1600.62899,0.18203
1602.55746,0.18809
1604.48592,0.19137
1606.41439,0.19020
1608.34286,0.18685
1610.27133,0.18390
1612.19980,0.18555
1614.12827,0.19210
1616.05674,0.19995
1617.98521,0.20026
1619.91367,0.19631
1621.84214,0.19687
1623.77061,0.20025
1625.69908,0.20280
1627.62755,0.20348
1629.55602,0.20021
1631.48449,0.19847
1633.41295,0.20427
1635.34142,0.21587
1637.26989,0.21861
1639.19836,0.21187
1641.12683,0.20498
1643.05530,0.20301
1644.98377,0.21055
1646.91223,0.22050
1648.84070,0.21863
1650.76917,0.22050
1652.69764,0.23093
1654.62611,0.21909
1656.55458,0.20111
1658.48305,0.19510
1660.41152,0.19812
1662.33998,0.20230
1664.26845,0.20010
1666.19692,0.19990
1668.12539,0.20754
1670.05386,0.21457
1671.98233,0.21225
1673.91080,0.20909
1675.83926,0.20702
1677.76773,0.20437
1679.69620,0.20473
1681.62467,0.21170
1683.55314,0.22120
1685.48161,0.21572
1687.41008,0.20702
1689.33855,0.20385
1691.26701,0.20086
1693.19548,0.20087
1695.12395,0.20836
1697.05242,0.21800
1698.98089,0.22017
1700.90936,0.21631
1702.83783,0.21335
1704.76629,0.21104
1706.69476,0.20474
1708.62323,0.19619
1710.55170,0.19076
1712.48017,0.19185
1714.40864,0.20133
1716.33711,0.21458
1718.26558,0.21337
1720.19404,0.20179
1722.12251,0.19499
1724.05098,0.19169
1725.97945,0.18980
1727.90792,0.19052
1729.83639,0.19418
1731.76486,0.20087
1733.69332,0.20498
1735.62179,0.19832
1737.55026,0.19405
1739.47873,0.19526
1741.40720,0.19697
1743.33567,0.19833
1745.26414,0.20117
1747.19261,0.20757
1749.12107,0.21359
1751.04954,0.20853
1752.97801,0.19796
1754.90648,0.19398
1756.83495,0.19516
1758.76342,0.19492
1760.69189,0.19279
1762.62035,0.19099
1764.54882,0.19159
1766.47729,0.19471
1768.40576,0.19793
1770.33423,0.20221
1772.26270,0.20675
1774.19117,0.20356
1776.11964,0.19637
1778.04810,0.19234
1779.97657,0.19268
1781.90504,0.19393
1783.83351,0.19420
1785.76198,0.19410
1787.69045,0.19463
1789.61892,0.19735
1791.54738,0.20056
1793.47585,0.19958
1795.40432,0.19606
1797.33279,0.19414
1799.26126,0.19465
1801.18973,0.19544
1803.11820,0.19318
1805.04666,0.18962
1806.97513,0.18895
1808.90360,0.19080
1810.83207,0.19105
1812.76054,0.18941
1814.68901,0.18896
1816.61748,0.18909
1818.54595,0.18726
1820.47441,0.18512
1822.40288,0.18748
1824.33135,0.19341
1826.25982,0.19605
1828.18829,0.19679
1830.11676,0.19885
1832.04523,0.19810
1833.97369,0.19555
1835.90216,0.19406
1837.83063,0.19301
1839.75910,0.19319
1841.68757,0.19662
1843.61604,0.20064
1845.54451,0.19966
1847.47298,0.19541
1849.40144,0.19172
1851.32991,0.19016
1853.25838,0.18973
1855.18685,0.18800
1857.11532,0.18644
1859.04379,0.18647
1860.97226,0.18630
1862.90072,0.18639
1864.82919,0.18949
1866.75766,0.19625
1868.68613,0.20185
1870.61460,0.19954
1872.54307,0.19366
1874.47154,0.19099
1876.40001,0.19166
1878.32847,0.19267
1880.25694,0.19327
1882.18541,0.19369
1884.11388,0.19374
1886.04235,0.19403
1887.97082,0.19537
1889.89929,0.19597
1891.82775,0.19431
1893.75622,0.19352
1895.68469,0.19332
1897.61316,0.19085
1899.54163,0.18825
1901.47010,0.18852
1903.39857,0.19112
1905.32704,0.19375
1907.25550,0.19522
1909.18397,0.19452
1911.11244,0.19176
1913.04091,0.19009
1914.96938,0.19126
1916.89785,0.19328
1918.82632,0.19307
1920.75478,0.19187
1922.68325,0.19116
1924.61172,0.18917
1926.54019,0.18738
1928.46866,0.18787
1930.39713,0.18994
1932.32560,0.19253
1934.25407,0.19465
1936.18253,0.19507
1938.11100,0.19407
1940.03947,0.19411
1941.96794,0.19526
1943.89641,0.19447
1945.82488,0.19240
1947.75335,0.19176
1949.68181,0.19241
1951.61028,0.19244
1953.53875,0.19154
1955.46722,0.19116
1957.39569,0.19116
1959.32416,0.19077
1961.25263,0.19108
1963.18110,0.19149
1965.10956,0.19120
1967.03803,0.19192
1968.96650,0.19267
1970.89497,0.19155
1972.82344,0.19045
1974.75191,0.19140
1976.68038,0.19404
1978.60884,0.19610
1980.53731,0.19487
1982.46578,0.19138
1984.39425,0.18965
1986.32272,0.18982
1988.25119,0.19012
1990.17966,0.19134
1992.10812,0.19352
1994.03659,0.19466
1995.96506,0.19436
1997.89353,0.19474
1999.82200,0.19558
2001.75047,0.19494
2003.67894,0.19394
2005.60741,0.19333
2007.53587,0.19157
2009.46434,0.19014
2011.39281,0.19177
2013.32128,0.19451
2015.24975,0.19546
2017.17822,0.19526
2019.10669,0.19528
2021.03515,0.19546
2022.96362,0.19506
2024.89209,0.19472
2026.82056,0.19560
2028.74903,0.19658
2030.67750,0.19663
2032.60597,0.19628
2034.53444,0.19533
2036.46290,0.19409
2038.39137,0.19428
2040.31984,0.19593
2042.24831,0.19666
2044.17678,0.19450
2046.10525,0.19106
2048.03372,0.19046
2049.96218,0.19232
2051.89065,0.19275
2053.81912,0.19249
2055.74759,0.19283
2057.67606,0.19230
2059.60453,0.19233
2061.53300,0.19356
2063.46147,0.19412
2065.38993,0.19522
2067.31840,0.19733
2069.24687,0.19752
2071.17534,0.19542
2073.10381,0.19351
2075.03228,0.19316
2076.96075,0.19435
2078.88921,0.19644
2080.81768,0.19768
2082.74615,0.19749
2084.67462,0.19715
2086.60309,0.19615
2088.53156,0.19320
2090.46003,0.19010
2092.38850,0.19017
2094.31696,0.19316
2096.24543,0.19568
2098.17390,0.19591
2100.10237,0.19513
2102.03084,0.19576
2103.95931,0.19681
2105.88778,0.19621
2107.81624,0.19487
2109.74471,0.19326
2111.67318,0.19245
2113.60165,0.19381
2115.53012,0.19560
2117.45859,0.19652
2119.38706,0.19711
2121.31553,0.19805
2123.24399,0.19951
2125.17246,0.19964
2127.10093,0.19715
2129.02940,0.19487
2130.95787,0.19555
2132.88634,0.19727
2134.81481,0.19692
2136.74327,0.19512
2138.67174,0.19393
2140.60021,0.19373
2142.52868,0.19465
2144.45715,0.19558
2146.38562,0.19438
2148.31409,0.19243
2150.24255,0.19236
2152.17102,0.19298
2154.09949,0.19206
2156.02796,0.19103
2157.95643,0.19237
2159.88490,0.19464
2161.81337,0.19491
2163.74184,0.19361
2165.67030,0.19381
2167.59877,0.19569
2169.52724,0.19788
2171.45571,0.19990
2173.38418,0.19988
2175.31265,0.19861
2177.24112,0.19879
2179.16958,0.19963
2181.09805,0.19903
2183.02652,0.19667
2184.95499,0.19475
2186.88346,0.19480
2188.81193,0.19510
2190.74040,0.19473
2192.66887,0.19513
2194.59733,0.19603
2196.52580,0.19630
2198.45427,0.19563
2200.38274,0.19394
2202.31121,0.19342
2204.23968,0.19522
2206.16815,0.19673
2208.09661,0.19700
2210.02508,0.19722
2211.95355,0.19681
2213.88202,0.19548
2215.81049,0.19563
2217.73896,0.19818
2219.66743,0.19958
2221.59590,0.19785
2223.52436,0.19628
2225.45283,0.19659
2227.38130,0.19654
2229.30977,0.19615
2231.23824,0.19713
2233.16671,0.19749
2235.09518,0.19593
2237.02364,0.19532
2238.95211,0.19606
2240.88058,0.19533
2242.80905,0.19383
2244.73752,0.19475
2246.66599,0.19677
2248.59446,0.19739
2250.52293,0.19802
2252.45139,0.19833
2254.37986,0.19685
2256.30833,0.19588
2258.23680,0.19640
2260.16527,0.19701
2262.09374,0.19786
2264.02221,0.19788
2265.95067,0.19596
2267.87914,0.19469
2269.80761,0.19525
2271.73608,0.19620
2273.66455,0.19753
2275.59302,0.19825
2277.52149,0.19792
2279.44996,0.19861
2281.37842,0.19916
2283.30689,0.19759
2285.23536,0.19559
2287.16383,0.19429
2289.09230,0.19274
2291.02077,0.19103
2292.94924,0.19190
2294.87770,0.19544
2296.80617,0.19500
2298.73464,0.18982
2300.66311,0.18842
2302.59158,0.19147
2304.52005,0.19294
2306.44852,0.19113
2308.37699,0.18780
2310.30545,0.18641
2312.23392,0.18761
2314.16239,0.18811
2316.09086,0.18762
2318.01933,0.18726
2319.94780,0.18374
2321.87627,0.17874
2323.80473,0.17880
2325.73320,0.17958
2327.66167,0.17834
2329.59014,0.17829
2331.51861,0.17698
2333.44708,0.17274
2335.37555,0.16807
2337.30401,0.16579
2339.23248,0.16490
2341.16095,0.16012
2343.08942,0.15322
2345.01789,0.15492
2346.94636,0.16580
2348.87483,0.17667
2350.80330,0.18107
2352.73176,0.17515
2354.66023,0.17067
2356.58870,0.17513
2358.51717,0.16719
2360.44564,0.15748
2362.37411,0.16288
2364.30258,0.17127
2366.23104,0.17493
2368.15951,0.17001
2370.08798,0.16535
2372.01645,0.16958
2373.94492,0.17593
2375.87339,0.17870
2377.80186,0.18140
2379.73033,0.18735
2381.65879,0.19396
2383.58726,0.19823
2385.51573,0.19942
2387.44420,0.19887
2389.37267,0.19861
2391.30114,0.19820
2393.22961,0.19772
2395.15807,0.19879
2397.08654,0.20001
2399.01501,0.19868
2400.94348,0.19502
2402.87195,0.19211
2404.80042,0.19241
2406.72889,0.19474
2408.65736,0.19653
2410.58582,0.19831
2412.51429,0.20075
2414.44276,0.20110
2416.37123,0.19889
2418.29970,0.19719
2420.22817,0.19766
2422.15664,0.19931
2424.08510,0.20072
2426.01357,0.20145
2427.94204,0.20111
2429.87051,0.20068
2431.79898,0.20090
2433.72745,0.20090
2435.65592,0.20088
2437.58439,0.20098
2439.51285,0.20077
2441.44132,0.20046
2443.36979,0.20031
2445.29826,0.19994
2447.22673,0.19831
2449.15520,0.19528
2451.08367,0.19283
2453.01213,0.19297
2454.94060,0.19572
2456.86907,0.19994
2458.79754,0.20346
2460.72601,0.20383
2462.65448,0.20207
2464.58295,0.20079
2466.51142,0.19921
2468.43988,0.19749
2470.36835,0.19808
2472.29682,0.19992
2474.22529,0.20071
2476.15376,0.20053
2478.08223,0.20057
2480.01070,0.20137
2481.93916,0.20176
2483.86763,0.20069
2485.79610,0.19862
2487.72457,0.19666
2489.65304,0.19716
2491.58151,0.20081
2493.50998,0.20257
2495.43844,0.20021
2497.36691,0.19810
2499.29538,0.19791
2501.22385,0.19833
2503.15232,0.19878
2505.08079,0.19917
2507.00926,0.19995
2508.93773,0.20044
2510.86619,0.20057
2512.79466,0.20200
2514.72313,0.20310
2516.65160,0.20107
2518.58007,0.19867
2520.50854,0.19921
2522.43701,0.20058
2524.36547,0.20160
2526.29394,0.20319
2528.22241,0.20338
2530.15088,0.20187
2532.07935,0.20094
2534.00782,0.20059
2535.93629,0.19984
2537.86476,0.19923
2539.79322,0.20035
2541.72169,0.20219
2543.65016,0.20228
2545.57863,0.20194
2547.50710,0.20217
2549.43557,0.20162
2551.36404,0.20181
2553.29250,0.20426
2555.22097,0.20630
2557.14944,0.20555
2559.07791,0.20373
2561.00638,0.20370
2562.93485,0.20417
2564.86332,0.20260
2566.79179,0.20191
2568.72025,0.20507
2570.64872,0.20799
2572.57719,0.20727
2574.50566,0.20619
2576.43413,0.20654
2578.36260,0.20652
2580.29107,0.20581
2582.21953,0.20329
2584.14800,0.20003
2586.07647,0.20025
2588.00494,0.20302
2589.93341,0.20489
2591.86188,0.20490
2593.79035,0.20391
2595.71882,0.20438
2597.64728,0.20652
2599.57575,0.20740
2601.50422,0.20652
2603.43269,0.20631
2605.36116,0.20795
2607.28963,0.20907
2609.21810,0.20736
2611.14656,0.20535
2613.07503,0.20455
2615.00350,0.20352
2616.93197,0.20310
2618.86044,0.20375
2620.78891,0.20515
2622.71738,0.20710
2624.64585,0.20821
2626.57431,0.20796
2628.50278,0.20700
2630.43125,0.20588
2632.35972,0.20562
2634.28819,0.20696
2636.21666,0.20766
2638.14513,0.20560
2640.07359,0.20397
2642.00206,0.20493
2643.93053,0.20512
2645.85900,0.20357
2647.78747,0.20259
2649.71594,0.20238
2651.64441,0.20344
2653.57288,0.20577
2655.50134,0.20752
2657.42981,0.20861
2659.35828,0.20969
2661.28675,0.21085
2663.21522,0.21161
2665.14369,0.21064
2667.07216,0.20851
2669.00062,0.20703
2670.92909,0.20687
2672.85756,0.20814
2674.78603,0.21032
2676.71450,0.21157
2678.64297,0.21007
2680.57144,0.20744
2682.49990,0.20703
2684.42837,0.20785
2686.35684,0.20767
2688.28531,0.20793
2690.21378,0.20959
2692.14225,0.21024
2694.07072,0.20886
2695.99919,0.20768
2697.92765,0.20730
2699.85612,0.20677
2701.78459,0.20695
2703.71306,0.20843
2705.64153,0.21068
2707.57000,0.21238
2709.49847,0.21113
2711.42693,0.20771
2713.35540,0.20616
2715.28387,0.20759
2717.21234,0.21003
2719.14081,0.21170
2721.06928,0.21176
2722.99775,0.21066
2724.92622,0.20924
2726.85468,0.20777
2728.78315,0.20755
2730.71162,0.20876
2732.64009,0.20993
2734.56856,0.21112
2736.49703,0.21232
2738.42550,0.21290
2740.35396,0.21207
2742.28243,0.21090
2744.21090,0.21154
2746.13937,0.21250
2748.06784,0.21315
2749.99631,0.21532
2751.92478,0.21779
2753.85325,0.21796
2755.78171,0.21741
2757.71018,0.21819
2759.63865,0.21774
2761.56712,0.21565
2763.49559,0.21544
2765.42406,0.21727
2767.35253,0.21678
2769.28099,0.21311
2771.20946,0.21190
2773.13793,0.21574
2775.06640,0.21993
2776.99487,0.22060
2778.92334,0.21956
2780.85181,0.21828
2782.78028,0.21586
2784.70874,0.21312
2786.63721,0.21212
2788.56568,0.21325
2790.49415,0.21503
2792.42262,0.21708
2794.35109,0.21940
2796.27956,0.21981
2798.20802,0.21747
2800.13649,0.21528
2802.06496,0.21563
2803.99343,0.21751
2805.92190,0.21801
2807.85037,0.21581
2809.77884,0.21491
2811.70731,0.21818
2813.63577,0.22084
2815.56424,0.22045
2817.49271,0.21977
2819.42118,0.21856
2821.34965,0.21749
2823.27812,0.21847
2825.20659,0.22001
2827.13505,0.22057
2829.06352,0.21941
2830.99199,0.21806
2832.92046,0.21867
2834.84893,0.21987
2836.77740,0.22030
2838.70587,0.22047
2840.63433,0.21966
2842.56280,0.21787
2844.49127,0.21652
2846.41974,0.21582
2848.34821,0.21528
2850.27668,0.21513
2852.20515,0.21706
2854.13362,0.22055
2856.06208,0.22219
2857.99055,0.22157
2859.91902,0.21967
2861.84749,0.21862
2863.77596,0.22162
2865.70443,0.22635
2867.63290,0.22759
2869.56136,0.22622
2871.48983,0.22567
2873.41830,0.22566
2875.34677,0.22449
2877.27524,0.22188
2879.20371,0.21950
2881.13218,0.21795
2883.06065,0.21684
2884.98911,0.21647
2886.91758,0.21661
2888.84605,0.21708
2890.77452,0.21752
2892.70299,0.21858
2894.63146,0.21908
2896.55993,0.21757
2898.48839,0.21721
2900.41686,0.21827
2902.34533,0.21782
2904.27380,0.21746
2906.20227,0.21940
2908.13074,0.22113
2910.05921,0.21964
2911.98768,0.21759
2913.91614,0.21920
2915.84461,0.22055
2917.77308,0.21799
2919.70155,0.21714
2921.63002,0.21860
2923.55849,0.21668
2925.48696,0.21948
2927.41542,0.23587
2929.34389,0.24175
2931.27236,0.22233
2933.20083,0.20865
2935.12930,0.21214
2937.05777,0.21418
2938.98624,0.21465
2940.91471,0.21789
2942.84317,0.21986
2944.77164,0.21957
2946.70011,0.21901
2948.62858,0.22147
2950.55705,0.22537
2952.48552,0.22555
2954.41399,0.22247
2956.34245,0.21876
2958.27092,0.21584
2960.19939,0.21561
2962.12786,0.21700
2964.05633,0.21818
2965.98480,0.21938
2967.91327,0.21893
2969.84174,0.21637
2971.77020,0.21494
2973.69867,0.21593
2975.62714,0.21661
2977.55561,0.21509
2979.48408,0.21524
2981.41255,0.21954
2983.34102,0.22426
2985.26948,0.22678
2987.19795,0.22582
2989.12642,0.22218
2991.05489,0.22079
2992.98336,0.22409
2994.91183,0.22785
2996.84030,0.22760
2998.76877,0.22663
3000.69723,0.22796
3002.62570,0.22935
3004.55417,0.23015
3006.48264,0.23026
3008.41111,0.22866
3010.33958,0.22437
3012.26805,0.21712
3014.19651,0.20758
3016.12498,0.20016
3018.05345,0.20379
3019.98192,0.21770
3021.91039,0.22866
3023.83886,0.22922
3025.76733,0.22504
3027.69579,0.22379
3029.62426,0.22604
3031.55273,0.22884
3033.48120,0.23056
3035.40967,0.23143
3037.33814,0.23133
3039.26661,0.23034
3041.19508,0.22958
3043.12354,0.22842
3045.05201,0.22693
3046.98048,0.22596
3048.90895,0.22442
3050.83742,0.22419
3052.76589,0.22738
3054.69436,0.22776
3056.62282,0.22171
3058.55129,0.21839
3060.47976,0.22143
3062.40823,0.22306
3064.33670,0.22171
3066.26517,0.22175
3068.19364,0.22432
3070.12211,0.22674
3072.05057,0.22661
3073.97904,0.22410
3075.90751,0.22199
3077.83598,0.22315
3079.76445,0.22592
3081.69292,0.22749
3083.62139,0.22652
3085.54985,0.22712
3087.47832,0.23080
3089.40679,0.22951
3091.33526,0.22470
3093.26373,0.22178
3095.19220,0.22040
3097.12067,0.22082
3099.04914,0.22175
3100.97760,0.22345
3102.90607,0.22376
3104.83454,0.22224
3106.76301,0.22434
3108.69148,0.22788
3110.61995,0.22805
3112.54842,0.22685
3114.47688,0.22672
3116.40535,0.22774
3118.33382,0.22898
3120.26229,0.22743
3122.19076,0.22407
3124.11923,0.22359
3126.04770,0.22618
3127.97617,0.23017
3129.90463,0.23254
3131.83310,0.22986
3133.76157,0.22397
3135.69004,0.22063
3137.61851,0.22296
3139.54698,0.22782
3141.47545,0.23187
3143.40391,0.23463
3145.33238,0.23388
3147.26085,0.22877
3149.18932,0.22448
3151.11779,0.22583
3153.04626,0.23011
3154.97473,0.23164
3156.90320,0.22982
3158.83166,0.22887
3160.76013,0.23158
3162.68860,0.23535
3164.61707,0.23531
3166.54554,0.23153
3168.47401,0.23021
3170.40248,0.23399
3172.33094,0.23638
3174.25941,0.23374
3176.18788,0.23250
3178.11635,0.23514
3180.04482,0.23575
3181.97329,0.23419
3183.90176,0.23405
3185.83022,0.23315
3187.75869,0.23109
3189.68716,0.23183
3191.61563,0.23392
3193.54410,0.23367
3195.47257,0.23317
3197.40104,0.23295
3199.32951,0.23032
3201.25797,0.22913
3203.18644,0.23291
3205.11491,0.23494
3207.04338,0.23069
3208.97185,0.22668
3210.90032,0.22848
3212.82879,0.23416
3214.75725,0.23810
3216.68572,0.23667
3218.61419,0.23204
3220.54266,0.22898
3222.47113,0.22918
3224.39960,0.22943
3226.32807,0.22753
3228.25654,0.22589
3230.18500,0.22630
3232.11347,0.22784
3234.04194,0.22871
3235.97041,0.22779
3237.89888,0.22716
3239.82735,0.22895
3241.75582,0.23214
3243.68428,0.23542
3245.61275,0.23692
3247.54122,0.23512
3249.46969,0.23284
3251.39816,0.23269
3253.32663,0.23202
3255.25510,0.22860
3257.18357,0.22491
3259.11203,0.22404
3261.04050,0.22453
3262.96897,0.22333
3264.89744,0.22431
3266.82591,0.22993
3268.75438,0.23389
3270.68285,0.23356
3272.61131,0.23089
3274.53978,0.22863
3276.46825,0.22921
3278.39672,0.22836
3280.32519,0.22564
3282.25366,0.22594
3284.18213,0.22785
3286.11060,0.22952
3288.03906,0.23078
3289.96753,0.23027
3291.89600,0.22751
3293.82447,0.22407
3295.75294,0.22242
3297.68141,0.22386
3299.60988,0.22554
3301.53834,0.22417
3303.46681,0.22265
3305.39528,0.22192
3307.32375,0.22191
3309.25222,0.22451
3311.18069,0.22679
3313.10916,0.22658
3315.03763,0.22446
3316.96609,0.22251
3318.89456,0.22258
3320.82303,0.22421
3322.75150,0.22507
3324.67997,0.22368
3326.60844,0.22480
3328.53691,0.23056
3330.46537,0.23445
3332.39384,0.23193
3334.32231,0.22776
3336.25078,0.22894
3338.17925,0.23328
3340.10772,0.23486
3342.03619,0.23515
3343.96466,0.23511
3345.89312,0.23370
3347.82159,0.23447
3349.75006,0.23500
3351.67853,0.23231
3353.60700,0.23141
3355.53547,0.23155
3357.46394,0.22919
3359.39240,0.22805
3361.32087,0.23156
3363.24934,0.23483
3365.17781,0.23441
3367.10628,0.23328
3369.03475,0.23133
3370.96322,0.22871
3372.89168,0.23012
3374.82015,0.23515
3376.74862,0.23713
3378.67709,0.23482
3380.60556,0.23261
3382.53403,0.23361
3384.46250,0.23594
3386.39097,0.23549
3388.31943,0.23281
3390.24790,0.23030
3392.17637,0.22917
3394.10484,0.23032
3396.03331,0.23353
3397.96178,0.23601
3399.89025,0.23528
3401.81871,0.23172
3403.74718,0.22825
3405.67565,0.22825
3407.60412,0.22887
3409.53259,0.22689
3411.46106,0.22378
3413.38953,0.22309
3415.31800,0.22664
3417.24646,0.22942
3419.17493,0.22734
3421.10340,0.22220
3423.03187,0.21909
3424.96034,0.22031
3426.88881,0.22181
3428.81728,0.22181
3430.74574,0.22244
3432.67421,0.22315
3434.60268,0.22295
3436.53115,0.22251
3438.45962,0.22072
3440.38809,0.21815
3442.31656,0.21639
3444.24503,0.21656
3446.17349,0.21836
3448.10196,0.21666
3450.03043,0.21358
3451.95890,0.21522
3453.88737,0.21827
3455.81584,0.21679
3457.74431,0.21149
3459.67277,0.20926
3461.60124,0.21188
3463.52971,0.21437
3465.45818,0.21482
3467.38665,0.21495
3469.31512,0.21533
3471.24359,0.21482
3473.17206,0.21290
3475.10052,0.21160
3477.02899,0.21321
3478.95746,0.21665
3480.88593,0.21910
3482.81440,0.21866
3484.74287,0.21505
3486.67134,0.20887
3488.59980,0.20327
3490.52827,0.20130
3492.45674,0.20159
3494.38521,0.20260
3496.31368,0.20266
3498.24215,0.20168
3500.17062,0.20264
3502.09909,0.20382
3504.02755,0.20020
3505.95602,0.19548
3507.88449,0.19651
3509.81296,0.19945
3511.74143,0.19736
3513.66990,0.19327
3515.59837,0.19311
3517.52683,0.19468
3519.45530,0.19382
3521.38377,0.19338
3523.31224,0.19462
3525.24071,0.19442
3527.16918,0.19208
3529.09765,0.18932
3531.02611,0.18684
3532.95458,0.18320
3534.88305,0.17975
3536.81152,0.17960
3538.73999,0.18292
3540.66846,0.18755
3542.59693,0.19088
3544.52540,0.19034
3546.45386,0.18568
3548.38233,0.18110
3550.31080,0.18187
3552.23927,0.18655
3554.16774,0.18580
3556.09621,0.17855
3558.02468,0.17333
3559.95314,0.17385
3561.88161,0.17795
3563.81008,0.18173
3565.73855,0.18170
3567.66702,0.17742
3569.59549,0.17529
3571.52396,0.17704
3573.45243,0.17712
3575.38089,0.17322
3577.30936,0.16924
3579.23783,0.16724
3581.16630,0.16713
3583.09477,0.16941
3585.02324,0.17422
3586.95171,0.17778
3588.88017,0.17336
3590.80864,0.16829
3592.73711,0.16791
3594.66558,0.16893
3596.59405,0.17085
3598.52252,0.17255
3600.45099,0.17016
3602.37946,0.16603
3604.30792,0.16684
3606.23639,0.17165
3608.16486,0.17060
3610.09333,0.16292
3612.02180,0.15750
3613.95027,0.15501
3615.87874,0.15756
3617.80720,0.16484
3619.73567,0.16640
3621.66414,0.15942
3623.59261,0.15484
3625.52108,0.15687
3627.44955,0.16520
3629.37802,0.17171
3631.30649,0.16727
3633.23495,0.16030
3635.16342,0.15514
3637.09189,0.15468
3639.02036,0.15630
3640.94883,0.15673
3642.87730,0.16045
3644.80577,0.16715
3646.73423,0.17220
3648.66270,0.17520
3650.59117,0.16822
3652.51964,0.15691
3654.44811,0.15362
3656.37658,0.15287
3658.30505,0.14735
3660.23352,0.14170
3662.16198,0.13926
3664.09045,0.13958
3666.01892,0.14194
3667.94739,0.14856
3669.87586,0.15881
3671.80433,0.16232
3673.73280,0.16311
3675.66126,0.16253
3677.58973,0.15542
3679.51820,0.15035
3681.44667,0.14703
3683.37514,0.14325
3685.30361,0.14254
3687.23208,0.14768
3689.16055,0.15624
3691.08901,0.15971
3693.01748,0.15556
3694.94595,0.14792
3696.87442,0.14132
3698.80289,0.13890
3700.73136,0.13898
3702.65983,0.13692
3704.58829,0.13257
3706.51676,0.13208
3708.44523,0.13802
3710.37370,0.14486
3712.30217,0.14318
3714.23064,0.13706
3716.15911,0.13472
3718.08757,0.13707
3720.01604,0.13966
3721.94451,0.13713
3723.87298,0.13646
3725.80145,0.14287
3727.72992,0.14593
3729.65839,0.14461
3731.58686,0.14759
3733.51532,0.15405
3735.44379,0.15623
3737.37226,0.15548
3739.30073,0.15329
3741.22920,0.15343
3743.15767,0.16016
3745.08614,0.16397
3747.01460,0.15935
3748.94307,0.15891
3750.87154,0.15985
3752.80001,0.15357
3754.72848,0.14836
3756.65695,0.14827
3758.58542,0.15103
3760.51389,0.14908
3762.44235,0.14123
3764.37082,0.13586
3766.29929,0.13591
3768.22776,0.13794
3770.15623,0.13794
3772.08470,0.13463
3774.01317,0.13290
3775.94163,0.13574
3777.87010,0.14136
3779.79857,0.14354
3781.72704,0.13938
3783.65551,0.13518
3785.58398,0.13373
3787.51245,0.13356
3789.44092,0.13396
3791.36938,0.13484
3793.29785,0.13691
3795.22632,0.13967
3797.15479,0.14018
3799.08326,0.14059
3801.01173,0.14265
3802.94020,0.14136
3804.86866,0.14033
3806.79713,0.14087
3808.72560,0.13859
3810.65407,0.13619
3812.58254,0.13594
3814.51101,0.13642
3816.43948,0.13689
3818.36795,0.14203
3820.29641,0.15061
3822.22488,0.14711
3824.15335,0.13803
3826.08182,0.13617
3828.01029,0.13653
3829.93876,0.13681
3831.86723,0.13981
3833.79569,0.14335
3835.72416,0.14669
3837.65263,0.15133
3839.58110,0.15021
3841.50957,0.14216
3843.43804,0.13452
3845.36651,0.13153
3847.29498,0.13335
3849.22344,0.13626
3851.15191,0.13917
3853.08038,0.14142
3855.00885,0.13582
3856.93732,0.13010
3858.86579,0.12840
3860.79426,0.12983
3862.72272,0.13456
3864.65119,0.13863
3866.57966,0.14005
3868.50813,0.14374
3870.43660,0.14579
3872.36507,0.14161
3874.29354,0.13732
3876.22200,0.13484
3878.15047,0.13442
3880.07894,0.13192
3882.00741,0.12518
3883.93588,0.12263
3885.86435,0.12266
3887.79282,0.12143
3889.72129,0.12271
3891.64975,0.12476
3893.57822,0.12372
3895.50669,0.12421
3897.43516,0.12791
3899.36363,0.12960
3901.29210,0.12754
3903.22057,0.12908
3905.14903,0.13031
3907.07750,0.12512
3909.00597,0.12028
3910.93444,0.11813
3912.86291,0.11808
3914.79138,0.12063
3916.71985,0.12273
3918.64832,0.12267
3920.57678,0.12157
3922.50525,0.11923
3924.43372,0.11765
3926.36219,0.12012
3928.29066,0.12576
3930.21913,0.12969
3932.14760,0.12620
3934.07606,0.11925
3936.00453,0.11730
3937.93300,0.11879
3939.86147,0.12138
3941.78994,0.12464
3943.71841,0.12438
3945.64688,0.12146
3947.57535,0.11973
3949.50381,0.11731
3951.43228,0.11320
3953.36075,0.10876
3955.28922,0.10637
3957.21769,0.10862
3959.14616,0.11077
3961.07463,0.11032
3963.00309,0.11139
3964.93156,0.11244
3966.86003,0.11290
3968.78850,0.11400
3970.71697,0.11380
3972.64544,0.11390
3974.57391,0.11404
3976.50238,0.11133
3978.43084,0.10934
3980.35931,0.10949
3982.28778,0.10673
3984.21625,0.10141
3986.14472,0.09879
3988.07319,0.10044
3990.00166,0.10380
3991.93012,0.10516
3993.85859,0.10461
3995.78706,0.10485
3997.71553,0.10506
3999.64400,0.10435
4001.57247,0.10470
4003.50094,0.10690
4005.42941,0.11005
4007.35787,0.11141
4009.28634,0.11032
4011.21481,0.10913
4013.14328,0.10663
4015.07175,0.10342
4017.00022,0.10289
4018.92869,0.10351
4020.85715,0.10248
4022.78562,0.10200
4024.71409,0.10493
4026.64256,0.10909
4028.57103,0.11055
4030.49950,0.10745
4032.42797,0.10299
4034.35644,0.10218
4036.28490,0.10413
4038.21337,0.10546
4040.14184,0.10341
4042.07031,0.09951
4043.99878,0.09869
4045.92725,0.09869
4047.85572,0.09683
4049.78418,0.09783
4051.71265,0.10097
4053.64112,0.10128
4055.56959,0.10026
4057.49806,0.09951
4059.42653,0.09767
4061.35500,0.09435
4063.28346,0.09085
4065.21193,0.08897
4067.14040,0.08841
4069.06887,0.08923
4070.99734,0.09095
4072.92581,0.09159
4074.85428,0.09173
4076.78275,0.09138
4078.71121,0.09007
4080.63968,0.09131
4082.56815,0.09635
4084.49662,0.10141
4086.42509,0.10389
4088.35356,0.10389
4090.28203,0.10083
4092.21049,0.09569
4094.13896,0.09229
4096.06743,0.09026
4097.99590,0.08951
4099.92437,0.09076
4101.85284,0.08921
4103.78131,0.08540
4105.70978,0.08460
4107.63824,0.08707
4109.56671,0.09081
4111.49518,0.09154
4113.42365,0.08777
4115.35212,0.08572
4117.28059,0.08633
4119.20906,0.08457
4121.13752,0.08242
4123.06599,0.08522
4124.99446,0.09113
4126.92293,0.09240
4128.85140,0.08957
4130.77987,0.08819
4132.70834,0.08707
4134.63681,0.08620
4136.56527,0.08523
4138.49374,0.08192
4140.42221,0.08036
4142.35068,0.08338
4144.27915,0.08485
4146.20762,0.08213
4148.13609,0.08164
4150.06455,0.08347
4151.99302,0.08316
4153.92149,0.08368
4155.84996,0.08540
4157.77843,0.08384
4159.70690,0.08117
4161.63537,0.07949
4163.56384,0.07683
4165.49230,0.07430
4167.42077,0.07292
4169.34924,0.07344
4171.27771,0.07722
4173.20618,0.08117
4175.13465,0.08097
4177.06312,0.07802
4178.99158,0.07519
4180.92005,0.07359
4182.84852,0.07572
4184.77699,0.07971
4186.70546,0.08007
4188.63393,0.07775
4190.56240,0.07676
4192.49087,0.07845
4194.41933,0.08050
4196.34780,0.07687
4198.27627,0.06986
4200.20474,0.06874
4202.13321,0.07169
4204.06168,0.07147
4205.99015,0.06890
4207.91861,0.06892
4209.84708,0.07140
4211.77555,0.07278
4213.70402,0.07411
4215.63249,0.07597
4217.56096,0.07450
4219.48943,0.06869
4221.41789,0.06301
4223.34636,0.06314
4225.27483,0.06719
4227.20330,0.06838
4229.13177,0.06732
4231.06024,0.06768
4232.98871,0.06756
4234.91718,0.06543
4236.84564,0.06295
4238.77411,0.06000
4240.70258,0.05788
4242.63105,0.05836
4244.55952,0.05837
4246.48799,0.05651
4248.41646,0.05623
4250.34492,0.05838
4252.27339,0.06017
4254.20186,0.05948
4256.13033,0.05564
4258.05880,0.05161
4259.98727,0.05054
4261.91574,0.05197
4263.84421,0.05401
4265.77267,0.05470
4267.70114,0.05665
4269.62961,0.06223
4271.55808,0.06631
4273.48655,0.06443
4275.41502,0.05943
4277.34349,0.05688
4279.27195,0.05689
4281.20042,0.05432
4283.12889,0.04910
4285.05736,0.04814
4286.98583,0.05133
4288.91430,0.05399
4290.84277,0.05729
4292.77124,0.05814
4294.69970,0.05346
4296.62817,0.04870
4298.55664,0.04699
4300.48511,0.04788
4302.41358,0.05015
4304.34205,0.04978
4306.27052,0.04417
4308.19898,0.03810
4310.12745,0.03836
4312.05592,0.03965
4313.98439,0.03519
4315.91286,0.03428
4317.84133,0.04289
4319.76980,0.05036
4321.69827,0.05206
4323.62673,0.05430
4325.55520,0.05500
4327.48367,0.04945
4329.41214,0.04305
4331.34061,0.04070
4333.26908,0.04163
4335.19755,0.04494
4337.12601,0.04689
4339.05448,0.04381
4340.98295,0.04080
4342.91142,0.04236
4344.83989,0.04580
4346.76836,0.04689
4348.69683,0.04355
4350.62530,0.04001
4352.55376,0.03713
4354.48223,0.03278
4356.41070,0.03156
4358.33917,0.03345
4360.26764,0.03568
4362.19611,0.03854
4364.12458,0.03782
4366.05304,0.03247
4367.98151,0.02797
4369.90998,0.02777
4371.83845,0.03132
4373.76692,0.03543
4375.69539,0.03928
4377.62386,0.04024
4379.55232,0.03315
4381.48079,0.02452
4383.40926,0.02594
4385.33773,0.03309
4387.26620,0.03470
4389.19467,0.03239
4391.12314,0.02881
4393.05161,0.02385
4394.98007,0.02238
4396.90854,0.02559
4398.83701,0.03284
4400.76548,0.03665
4402.69395,0.03030
4404.62242,0.02356
4406.55089,0.02183
4408.47935,0.01961
4410.40782,0.01632
4412.33629,0.01736
4414.26476,0.02180
4416.19323,0.02311
4418.12170,0.02210
4420.05017,0.02075
4421.97864,0.01704
4423.90710,0.01254
4425.83557,0.01211
4427.76404,0.01885
4429.69251,0.02814
4431.62098,0.02954
4433.54945,0.02210
4435.47792,0.01497
4437.40638,0.01139
4439.33485,0.01004
4441.26332,0.01269
4443.19179,0.01728
4445.12026,0.01909
4447.04873,0.01738
4448.97720,0.01443
4450.90567,0.01841
4452.83413,0.02985
4454.76260,0.03708
4456.69107,0.03664
4458.61954,0.03088
4460.54801,0.02333
4462.47648,0.01763
4464.40495,0.01259
4466.33341,0.00863
4468.26188,0.01119
4470.19035,0.01850
4472.11882,0.01871
4474.04729,0.01045
4475.97576,0.00442
4477.90423,0.00701
4479.83270,0.01213
4481.76116,0.00928
4483.68963,0.00271
4485.61810,0.00333
4487.54657,0.00897
4489.47504,0.01006
4491.40351,0.00455
4493.33198,0.00285
4495.26044,0.00961
4497.18891,0.01613
4499.11738,0.01744
4501.04585,0.01195
4502.97432,0.00370
4504.90279,0.00278
4506.83126,0.00650
4508.75973,0.00813
4510.68819,0.00866
4512.61666,0.00722
4514.54513,0.00349
4516.47360,0.00006
4518.40207,-0.00246
4520.33054,-0.00117
4522.25901,0.00564
4524.18747,0.01214
4526.11594,0.01460
4528.04441,0.01105
4529.97288,0.00142
4531.90135,-0.00856
4533.82982,-0.01615
4535.75829,-0.01570
4537.68676,-0.00491
4539.61522,0.00283
4541.54369,0.00324
4543.47216,0.00610
4545.40063,0.01206
4547.32910,0.01355
4549.25757,0.00978
4551.18604,0.00608
4553.11450,0.00306
4555.04297,0.00009
4556.97144,0.00011
4558.89991,0.00308
4560.82838,0.00530
4562.75685,0.00482
4564.68532,0.00580
4566.61378,0.01136
4568.54225,0.01315
4570.47072,0.00883
4572.39919,0.00880
4574.32766,0.00958
4576.25613,0.00306
4578.18460,-0.00115
4580.11307,0.00111
4582.04153,0.00118
4583.97000,-0.00230
4585.89847,-0.00302
4587.82694,0.00090
4589.75541,0.00239
4591.68388,-0.00220
4593.61235,-0.00788
4595.54081,-0.00956
4597.46928,-0.00368
4599.39775,0.00499
4601.32622,0.00723
4603.25469,0.00472
4605.18316,0.00267
4607.11163,0.00202
4609.04010,0.00282
4610.96856,0.00572
4612.89703,0.01232
4614.82550,0.01572
4616.75397,0.00751
4618.68244,-0.00049
4620.61091,0.00384
4622.53938,0.01108
4624.46784,0.01440
4626.39631,0.01737
4628.32478,0.01450
4630.25325,0.00213
4632.18172,-0.00582
4634.11019,-0.00254
4636.03866,0.00107
4637.96713,0.00065
4639.89559,0.00237
4641.82406,0.00595
4643.75253,0.00341
4645.68100,-0.00169
4647.60947,-0.00140
4649.53794,-0.00036
4651.46641,0.00132
4653.39487,0.00761
4655.32334,0.00995
4657.25181,0.00332
4659.18028,-0.00203
4661.10875,-0.00035
4663.03722,0.00061
4664.96569,-0.00225
4666.89416,-0.00071
4668.82262,0.00599
4670.75109,0.01057
4672.67956,0.01228
4674.60803,0.01039
4676.53650,0.00701
4678.46497,0.00943
4680.39344,0.01154
4682.32190,0.00693
4684.25037,0.00466
4686.17884,0.00647
4688.10731,0.00487
4690.03578,0.00200
4691.96425,0.00472
4693.89272,0.00942
4695.82119,0.00731
4697.74965,0.00255
4699.67812,-0.00016
4701.60659,-0.00719
4703.53506,-0.01467
4705.46353,-0.01206
4707.39200,-0.00568
4709.32047,-0.00484
4711.24893,-0.00288
4713.17740,0.00376
4715.10587,0.00798
4717.03434,0.00740
4718.96281,0.00243
4720.89128,-0.00363
4722.81975,-0.00295
4724.74821,0.00151
4726.67668,0.00198
4728.60515,-0.00039
4730.53362,0.00104
4732.46209,0.00517
4734.39056,0.00913
4736.31903,0.01295
4738.24750,0.01098
4740.17596,0.00089
4742.10443,-0.00409
4744.03290,0.00134
4745.96137,0.00435
4747.88984,0.00266
4749.81831,0.00460
4751.74678,0.01026
4753.67524,0.01135
4755.60371,0.00313
4757.53218,-0.00652
4759.46065,-0.01035
4761.38912,-0.00893
4763.31759,-0.00402
4765.24606,0.00080
4767.17453,0.00298
4769.10299,0.00587
4771.03146,0.01100
4772.95993,0.01148
4774.88840,0.00565
4776.81687,-0.00184
4778.74534,-0.00972
4780.67381,-0.01310
4782.60227,-0.00482
4784.53074,0.01052
4786.45921,0.01811
4788.38768,0.01337
4790.31615,0.00672
4792.24462,0.00220
4794.17309,-0.00181
4796.10156,-0.00290
4798.03002,0.00136
4799.95849,0.00457
4801.88696,-0.00103
4803.81543,-0.00274
4805.74390,0.00721
4807.67237,0.01037
4809.60084,0.00185
4811.52930,-0.00444
4813.45777,-0.00027
4815.38624,0.01096
4817.31471,0.01720
4819.24318,0.01434
4821.17165,0.00738
4823.10012,0.00165
4825.02859,0.00356
4826.95705,0.01076
4828.88552,0.01332
4830.81399,0.01148
4832.74246,0.01365
4834.67093,0.01730
4836.59940,0.01214
4838.52787,0.00153
4840.45633,-0.00400
4842.38480,-0.00136
4844.31327,0.00678
4846.24174,0.01271
4848.17021,0.01115
4850.09868,0.00657
4852.02715,0.00020
4853.95562,-0.01453
4855.88408,-0.02865
4857.81255,-0.02623
4859.74102,-0.01497
4861.66949,-0.00826
4863.59796,-0.00140
4865.52643,0.00895
4867.45490,0.01761
4869.38336,0.02002
4871.31183,0.01654
4873.24030,0.01518
4875.16877,0.01802
4877.09724,0.02016
4879.02571,0.01919
4880.95418,0.01704
4882.88265,0.01456
4884.81111,0.00460
4886.73958,-0.00652
4888.66805,-0.00874
4890.59652,-0.00715
4892.52499,-0.00010
4894.45346,0.00944
4896.38193,0.01174
4898.31039,0.01443
4900.23886,0.01998
4902.16733,0.01856
4904.09580,0.01744
4906.02427,0.02198
4907.95274,0.01798
4909.88121,0.00525
4911.80967,-0.00545
4913.73814,-0.01112
4915.66661,-0.00978
4917.59508,-0.00599
4919.52355,-0.00278
4921.45202,0.00525
4923.38049,0.00784
4925.30896,-0.00042
4927.23742,-0.00427
4929.16589,-0.00320
4931.09436,-0.00791
4933.02283,-0.01392
4934.95130,-0.01012
4936.87977,-0.00128
4938.80824,0.00702
4940.73670,0.01575
4942.66517,0.01286
4944.59364,0.00086
4946.52211,-0.00380
4948.45058,-0.00173
4950.37905,0.00278
4952.30752,0.01011
4954.23599,0.01554
4956.16445,0.01661
4958.09292,0.01315
4960.02139,0.00306
4961.94986,-0.00446
4963.87833,0.00113
4965.80680,0.00730
4967.73527,-0.00386
4969.66373,-0.02160
4971.59220,-0.02203
4973.52067,-0.00878
4975.44914,0.00246
4977.37761,0.01475
4979.30608,0.02217
4981.23455,0.01442
4983.16302,0.00896
4985.09148,0.01498
4987.01995,0.01784
4988.94842,0.01167
4990.87689,0.00471
4992.80536,0.00841
4994.73383,0.01976
4996.66230,0.02188
4998.59076,0.00970
5000.51923,-0.00713
5002.44770,-0.01192
5004.37617,-0.00096
5006.30464,0.00674
5008.23311,0.00738
5010.16158,0.00715
5012.09005,-0.00305
5014.01851,-0.02084
5015.94698,-0.02608
5017.87545,-0.01031
5019.80392,0.01109
5021.73239,0.02026
5023.66086,0.02091
5025.58933,0.01715
5027.51779,0.00371
5029.44626,-0.00635
5031.37473,-0.00291
5033.30320,0.00339
5035.23167,0.00928
5037.16014,0.01492
5039.08861,0.01679
5041.01708,0.01664
5042.94554,0.01573
5044.87401,0.01321
5046.80248,0.01332
5048.73095,0.01965
5050.65942,0.02132
5052.58789,0.01163
5054.51636,0.00327
5056.44482,0.00674
5058.37329,0.01716
5060.30176,0.02765
5062.23023,0.03555
5064.15870,0.03245
5066.08717,0.02191
5068.01564,0.01828
5069.94410,0.01878
5071.87257,0.01772
5073.80104,0.01768
5075.72951,0.02226
5077.65798,0.02900
5079.58645,0.03004
5081.51492,0.02673
5083.44339,0.02561
5085.37185,0.02959
5087.30032,0.03774
5089.22879,0.04163
5091.15726,0.03433
5093.08573,0.01902
5095.01420,0.00563
5096.94267,0.00694
5098.87113,0.01905
5100.79960,0.01966
5102.72807,0.00727
5104.65654,0.00112
5106.58501,0.01050
5108.51348,0.03000
5110.44195,0.04326
5112.37042,0.04160
5114.29888,0.03422
5116.22735,0.02333
5118.15582,0.00865
5120.08429,-0.00298
5122.01276,-0.00569
5123.94123,0.00502
5125.86970,0.01703
5127.79816,0.02028
5129.72663,0.02508
5131.65510,0.03009
5133.58357,0.02699
5135.51204,0.01980
5137.44051,0.01867
5139.36898,0.02889
5141.29745,0.03930
5143.22591,0.03983
5145.15438,0.03554
5147.08285,0.03007
5149.01132,0.02458
5150.93979,0.02317
5152.86826,0.02646
5154.79673,0.02665
5156.72519,0.01956
5158.65366,0.01704
5160.58213,0.02038
5162.51060,0.01797
5164.43907,0.01466
5166.36754,0.01883
5168.29601,0.01724
5170.22448,0.00428
5172.15294,0.00130
5174.08141,0.00934
5176.00988,0.01395
5177.93835,0.02063
5179.86682,0.03163
5181.79529,0.03523
5183.72376,0.03026
5185.65222,0.03249
5187.58069,0.04362
5189.50916,0.04548
5191.43763,0.03488
5193.36610,0.03004
5195.29457,0.03604
5197.22304,0.03637
5199.15151,0.02969
5201.07997,0.02896
5203.00844,0.03709
5204.93691,0.04710
5206.86538,0.04937
5208.79385,0.04455
5210.72232,0.03996
5212.65079,0.03558
5214.57925,0.02895
5216.50772,0.02811
5218.43619,0.03417
5220.36466,0.03154
5222.29313,0.02893
5224.22160,0.03752
5226.15007,0.03175
5228.07854,0.01784
5230.00700,0.02837
5231.93547,0.03890
5233.86394,0.02655
5235.79241,0.00978
5237.72088,0.00484
5239.64935,0.01752
5241.57782,0.03243
5243.50628,0.03238
5245.43475,0.02829
5247.36322,0.03570
5249.29169,0.05035
5251.22016,0.05609
5253.14863,0.05621
5255.07710,0.06107
5257.00556,0.05270
5258.93403,0.03161
5260.86250,0.02608
5262.79097,0.03351
5264.71944,0.03691
5266.64791,0.03625
5268.57638,0.03495
5270.50485,0.03590
5272.43331,0.03481
5274.36178,0.03129
5276.29025,0.03045
5278.21872,0.02791
5280.14719,0.02639
5282.07566,0.03595
5284.00413,0.05048
5285.93259,0.05661
5287.86106,0.05344
5289.78953,0.05009
5291.71800,0.04908
5293.64647,0.04586
5295.57494,0.04522
5297.50341,0.05401
5299.43188,0.06178
5301.36034,0.05020
5303.28881,0.03118
5305.21728,0.03096
5307.14575,0.04095
5309.07422,0.04439
5311.00269,0.04935
5312.93116,0.05439
5314.85962,0.04853
5316.78809,0.04484
5318.71656,0.05328
5320.64503,0.05522
5322.57350,0.04685
5324.50197,0.03971
5326.43044,0.03184
5328.35891,0.02923
5330.28737,0.03861
5332.21584,0.04902
5334.14431,0.05557
5336.07278,0.05888
5338.00125,0.05597
5339.92972,0.05040
5341.85819,0.05265
5343.78665,0.06104
5345.71512,0.05829
5347.64359,0.04979
5349.57206,0.05216
5351.50053,0.05177
5353.42900,0.04085
5355.35747,0.04038
5357.28594,0.05362
5359.21440,0.06861
5361.14287,0.07658
5363.07134,0.07435
5364.99981,0.06590
5366.92828,0.05398
5368.85675,0.04641
5370.78522,0.04753
5372.71368,0.05206
5374.64215,0.06079
5376.57062,0.07440
5378.49909,0.08648
5380.42756,0.09677
5382.35603,0.09898
5384.28450,0.08313
5386.21297,0.06570
5388.14143,0.06552
5390.06990,0.06824
5391.99837,0.06225
5393.92684,0.05210
5395.85531,0.05145
5397.78378,0.06300
5399.71225,0.07159
5401.64071,0.06777
5403.56918,0.06570
5405.49765,0.08477
5407.42612,0.10693
5409.35459,0.09893
5411.28306,0.07411
5413.21153,0.06432
5415.13999,0.06292
5417.06846,0.05812
5418.99693,0.05525
5420.92540,0.05577
5422.85387,0.06167
5424.78234,0.07687
5426.71081,0.09116
5428.63928,0.09361
5430.56774,0.09144
5432.49621,0.08928
5434.42468,0.08647
5436.35315,0.08414
5438.28162,0.06785
5440.21009,0.03151
5442.13856,0.00825
5444.06702,0.02528
5445.99549,0.06544
5447.92396,0.09194
5449.85243,0.08676
5451.78090,0.06325
5453.70937,0.03915
5455.63784,0.03204
5457.56631,0.04807
5459.49477,0.06961
5461.42324,0.08022
5463.35171,0.07047
5465.28018,0.05843
5467.20865,0.06139
5469.13712,0.06368
5471.06559,0.06896
5472.99405,0.08684
5474.92252,0.08966
5476.85099,0.06787
5478.77946,0.04718
5480.70793,0.03605
5482.63640,0.03563
5484.56487,0.04406
5486.49334,0.05853
5488.42180,0.07091
5490.35027,0.07035
5492.27874,0.06443
5494.20721,0.06490
5496.13568,0.07026
5498.06415,0.07100
5499.99262,0.06681
5501.92108,0.06855
5503.84955,0.07365
5505.77802,0.07274
5507.70649,0.06274
5509.63496,0.05170
5511.56343,0.05006
5513.49190,0.05403
5515.42037,0.05781
5517.34883,0.06336
5519.27730,0.07387
5521.20577,0.08372
5523.13424,0.08114
5525.06271,0.06549
5526.99118,0.04970
5528.91965,0.05224
5530.84811,0.07099
5532.77658,0.07862
5534.70505,0.06825
5536.63352,0.05571
5538.56199,0.05627
5540.49046,0.06793
5542.41893,0.07175
5544.34740,0.06229
5546.27586,0.05738
5548.20433,0.06433
5550.13280,0.06768
5552.06127,0.06978
5553.98974,0.08247
5555.91821,0.08475
5557.84668,0.06866
5559.77514,0.05491
5561.70361,0.04291
5563.63208,0.02990
5565.56055,0.01513
5567.48902,0.01314
5569.41749,0.04284
5571.34596,0.07202
5573.27443,0.08261
5575.20289,0.08950
5577.13136,0.08481
5579.05983,0.07511
5580.98830,0.08122
5582.91677,0.08737
5584.84524,0.07601
5586.77371,0.06844
5588.70217,0.07731
5590.63064,0.08123
5592.55911,0.06491
5594.48758,0.04271
5596.41605,0.04435
5598.34452,0.06965
5600.27299,0.08034
5602.20145,0.07158
5604.12992,0.07233
5606.05839,0.07946
5607.98686,0.07897
5609.91533,0.08070
5611.84380,0.08420
5613.77227,0.07992
5615.70074,0.06998
5617.62920,0.04595
5619.55767,0.02481
5621.48614,0.04173
5623.41461,0.07681
5625.34308,0.09378
5627.27155,0.08977
5629.20002,0.08449
5631.12848,0.09280
5633.05695,0.10540
5634.98542,0.10477
5636.91389,0.09471
5638.84236,0.09425
5640.77083,0.09681
5642.69930,0.08544
5644.62777,0.06552
5646.55623,0.05769
5648.48470,0.06568
5650.41317,0.06627
5652.34164,0.05838
5654.27011,0.06444
5656.19858,0.08358
5658.12705,0.09515
5660.05551,0.09081
5661.98398,0.07173
5663.91245,0.04800
5665.84092,0.04419
5667.76939,0.05443
5669.69786,0.05985
5671.62633,0.06701
5673.55480,0.07841
5675.48326,0.09275
5677.41173,0.10016
5679.34020,0.09149
5681.26867,0.08470
5683.19714,0.08981
5685.12561,0.10263
5687.05408,0.10213
5688.98254,0.06666
5690.91101,0.03212
5692.83948,0.03412
5694.76795,0.05522
5696.69642,0.07213
5698.62489,0.07362
5700.55336,0.06772
5702.48183,0.07059
5704.41029,0.07484
5706.33876,0.06225
5708.26723,0.03471
5710.19570,0.02190
5712.12417,0.03597
5714.05264,0.05143
5715.98111,0.06166
5717.90957,0.07647
5719.83804,0.09048
5721.76651,0.09750
5723.69498,0.08861
5725.62345,0.07255
5727.55192,0.07559
5729.48039,0.08426
5731.40886,0.07220
5733.33732,0.05874
5735.26579,0.07124
5737.19426,0.10685
5739.12273,0.12654
5741.05120,0.11109
5742.97967,0.10070
5744.90814,0.10646
5746.83660,0.10343
5748.76507,0.09432
5750.69354,0.08131
5752.62201,0.06797
5754.55048,0.06493
5756.47895,0.05921
5758.40742,0.04728
5760.33588,0.04640
5762.26435,0.06429
5764.19282,0.07900
5766.12129,0.06716
5768.04976,0.04220
5769.97823,0.02860
5771.90670,0.03550
5773.83517,0.05354
5775.76363,0.06163
5777.69210,0.04679
5779.62057,0.03271
5781.54904,0.05692
5783.47751,0.10822
5785.40598,0.14004
5787.33445,0.12957
5789.26291,0.09677
5791.19138,0.06805
5793.11985,0.05933
5795.04832,0.06824
5796.97679,0.07803
5798.90526,0.09308
5800.83373,0.12004
5802.76220,0.14024
5804.69066,0.13114
5806.61913,0.10562
5808.54760,0.09594
5810.47607,0.09184
5812.40454,0.07486
5814.33301,0.05744
5816.26148,0.05039
5818.18994,0.05461
5820.11841,0.05523
5822.04688,0.04580
5823.97535,0.04875
5825.90382,0.06916
5827.83229,0.09059
5829.76076,0.08569
5831.68923,0.05084
5833.61769,0.02228
5835.54616,0.01955
5837.47463,0.03253
5839.40310,0.04763
5841.33157,0.05712
5843.26004,0.06579
5845.18851,0.08034
5847.11697,0.10103
5849.04544,0.11813
5850.97391,0.11037
5852.90238,0.08687
5854.83085,0.07940
5856.75932,0.08005
5858.68779,0.06952
5860.61626,0.06102
5862.54472,0.06240
5864.47319,0.06589
5866.40166,0.07004
5868.33013,0.08205
5870.25860,0.09683
5872.18707,0.10469
5874.11554,0.10026
5876.04400,0.08391
5877.97247,0.08584
5879.90094,0.10730
5881.82941,0.11649
5883.75788,0.12182
5885.68635,0.12331
5887.61482,0.10225
5889.54329,0.07543
5891.47175,0.06704
5893.40022,0.06474
5895.32869,0.05346
5897.25716,0.05140
5899.18563,0.07183
5901.11410,0.09466
5903.04257,0.09365
5904.97103,0.08448
5906.89950,0.09126
5908.82797,0.09428
5910.75644,0.09405
5912.68491,0.09786
5914.61338,0.07747
5916.54185,0.05142
5918.47032,0.05956
5920.39878,0.07752
5922.32725,0.08106
5924.25572,0.08450
5926.18419,0.08493
5928.11266,0.08208
5930.04113,0.08816
5931.96960,0.10760
5933.89806,0.13933
5935.82653,0.14615
5937.75500,0.09684
5939.68347,0.03531
5941.61194,0.01767
5943.54041,0.03222
5945.46888,0.05063
5947.39734,0.07715
5949.32581,0.09875
5951.25428,0.09747
5953.18275,0.07892
5955.11122,0.06290
5957.03969,0.07288
5958.96816,0.09585
5960.89663,0.09662
5962.82509,0.07647
5964.75356,0.07016
5966.68203,0.09831
5968.61050,0.13483
5970.53897,0.14910
5972.46744,0.13853
5974.39591,0.11674
5976.32437,0.10867
5978.25284,0.10864
5980.18131,0.08989
5982.10978,0.06167
5984.03825,0.05728
5985.96672,0.07694
5987.89519,0.09100
5989.82366,0.08125
5991.75212,0.05821
5993.68059,0.05330
5995.60906,0.08000
5997.53753,0.11642
5999.46600,0.14412
6001.39447,0.15262
6003.32294,0.12746
6005.25140,0.09431
6007.17987,0.08207
6009.10834,0.06513
6011.03681,0.04071
6012.96528,0.03037
6014.89375,0.03434
6016.82222,0.05217
6018.75069,0.07589
6020.67915,0.07990
6022.60762,0.05543
6024.53609,0.02078
6026.46456,0.01300
6028.39303,0.04862
6030.32150,0.08866
6032.24997,0.11032
6034.17843,0.10810
6036.10690,0.06839
6038.03537,0.03229
6039.96384,0.04371
6041.89231,0.09075
6043.82078,0.13454
6045.74925,0.15504
6047.67772,0.16207
6049.60618,0.16419
6051.53465,0.15893
6053.46312,0.12825
6055.39159,0.06817
6057.32006,0.02514
6059.24853,0.04816
6061.17700,0.10674
6063.10546,0.11950
6065.03393,0.09082
6066.96240,0.09088
6068.89087,0.11168
6070.81934,0.11252
6072.74781,0.09962
6074.67628,0.10478
6076.60475,0.14153
6078.53321,0.15475
6080.46168,0.10617
6082.39015,0.04889
6084.31862,0.03452
6086.24709,0.06626
6088.17556,0.08902
6090.10403,0.05913
6092.03249,0.01478
6093.96096,0.01757
6095.88943,0.07318
6097.81790,0.13436
6099.74637,0.15684
6101.67484,0.12142
6103.60331,0.05973
6105.53177,0.02133
6107.46024,0.03121
6109.38871,0.06704
6111.31718,0.07786
6113.24565,0.08111
6115.17412,0.09221
6117.10259,0.08410
6119.03106,0.07086
6120.95952,0.06517
6122.88799,0.06011
6124.81646,0.07161
6126.74493,0.09592
6128.67340,0.10369
6130.60187,0.10081
6132.53034,0.13174
6134.45880,0.17268
6136.38727,0.15234
6138.31574,0.09953
6140.24421,0.06660
6142.17268,0.02670
6144.10115,-0.00051
6146.02962,0.02131
6147.95809,0.06223
6149.88655,0.10464
6151.81502,0.13609
6153.74349,0.13307
6155.67196,0.11284
6157.60043,0.09981
6159.52890,0.08960
6161.45737,0.08171
6163.38583,0.06335
6165.31430,0.03926
6167.24277,0.04683
6169.17124,0.07125
6171.09971,0.08962
6173.02818,0.11557
6174.95665,0.13768
6176.88512,0.13265
6178.81358,0.11889
6180.74205,0.10919
6182.67052,0.08079
6184.59899,0.04359
6186.52746,0.04116
6188.45593,0.07214
6190.38440,0.08262
6192.31286,0.06914
6194.24133,0.06579
6196.16980,0.06563
6198.09827,0.05065
6200.02674,0.04179
6201.95521,0.05160
6203.88368,0.07232
6205.81215,0.09615
6207.74061,0.10655
6209.66908,0.11488
6211.59755,0.13171
6213.52602,0.11914
6215.45449,0.06254
6217.38296,0.01254
6219.31143,0.02589
6221.23989,0.07090
6223.16836,0.09422
6225.09683,0.09390
6227.02530,0.07250
6228.95377,0.03260
6230.88224,0.01261
6232.81071,0.05907
6234.73918,0.11807
6236.66764,0.11220
6238.59611,0.08407
6240.52458,0.08708
6242.45305,0.10849
6244.38152,0.12602
6246.30999,0.12600
6248.23846,0.10121
6250.16692,0.06617
6252.09539,0.06192
6254.02386,0.08393
6255.95233,0.07638
6257.88080,0.05707
6259.80927,0.08918
6261.73774,0.13123
6263.66621,0.09221
6265.59467,0.00165
6267.52314,-0.00933
6269.45161,0.05675
6271.38008,0.08727
6273.30855,0.05896
6275.23702,0.05736
6277.16549,0.10523
6279.09395,0.11080
6281.02242,0.07159
6282.95089,0.06497
6284.87936,0.08579
6286.80783,0.09498
6288.73630,0.10840
6290.66477,0.10725
6292.59323,0.07502
6294.52170,0.08122
6296.45017,0.13613
6298.37864,0.17220
6300.30711,0.16308
6302.23558,0.13053
6304.16405,0.11080
6306.09252,0.10794
6308.02098,0.12888
6309.94945,0.17372
6311.87792,0.19091
6313.80639,0.17534
6315.73486,0.16299
6317.66333,0.14988
6319.59180,0.13194
6321.52026,0.11184
6323.44873,0.09265
6325.37720,0.07733
6327.30567,0.06415
6329.23414,0.05918
6331.16261,0.04582
6333.09108,0.01051
6335.01955,-0.02070
6336.94801,-0.01800
6338.87648,0.02144
6340.80495,0.05068
6342.73342,0.04818
6344.66189,0.05671
6346.59036,0.08961
6348.51883,0.11444
6350.44729,0.11673
6352.37576,0.10949
6354.30423,0.11202
6356.23270,0.11295
6358.16117,0.07115
6360.08964,-0.00093
6362.01811,-0.02629
6363.94658,-0.00546
6365.87504,-0.01120
6367.80351,-0.01960
6369.73198,0.02338
6371.66045,0.07042
6373.58892,0.09669
6375.51739,0.11546
6377.44586,0.11496
6379.37432,0.09851
6381.30279,0.07946
6383.23126,0.05564
6385.15973,0.04596
6387.08820,0.06287
6389.01667,0.06704
6390.94514,0.06337
6392.87361,0.07352
6394.80207,0.05009
6396.73054,0.02545
6398.65901,0.06298
6400.58748,0.10961
6402.51595,0.11090
6404.44442,0.11247
6406.37289,0.14396
6408.30135,0.17110
6410.22982,0.15877
6412.15829,0.12967
6414.08676,0.11806
6416.01523,0.09512
6417.94370,0.08180
6419.87217,0.13982
6421.80064,0.18999
6423.72910,0.15985
6425.65757,0.09045
6427.58604,0.03798
6429.51451,0.03533
6431.44298,0.08107
6433.37145,0.12991
6435.29992,0.14944
6437.22838,0.11826
6439.15685,0.08006
6441.08532,0.08883
6443.01379,0.09381
6444.94226,0.05529
6446.87073,0.02400
6448.79920,0.03878
6450.72766,0.08768
6452.65613,0.12792
6454.58460,0.14273
6456.51307,0.16668
6458.44154,0.19359
6460.37001,0.15856
6462.29848,0.07249
6464.22695,0.03257
6466.15541,0.05982
6468.08388,0.07129
6470.01235,0.02345
6471.94082,-0.00957
6473.86929,0.03056
6475.79776,0.06104
6477.72623,0.02306
6479.65469,0.00612
6481.58316,0.04154
6483.51163,0.06917
6485.44010,0.05963
6487.36857,0.01799
6489.29704,0.00025
6491.22551,0.03414
6493.15398,0.03965
6495.08244,0.01165
6497.01091,0.02678
6498.93938,0.06380
6500.86785,0.08238
6502.79632,0.09329
6504.72479,0.09125
6506.65326,0.06593
6508.58172,0.02998
6510.51019,-0.00125
6512.43866,-0.00403
6514.36713,0.03486
6516.29560,0.08693
6518.22407,0.10711
6520.15254,0.10492
6522.08101,0.10542
6524.00947,0.07917
6525.93794,0.03832
6527.86641,0.04397
6529.79488,0.07575
6531.72335,0.09379
6533.65182,0.10110
6535.58029,0.09500
6537.50875,0.07838
6539.43722,0.07960
6541.36569,0.09478
6543.29416,0.08411
6545.22263,0.01904
6547.15110,-0.07695
6549.07957,-0.12751
6551.00804,-0.07109
6552.93650,0.03302
6554.86497,0.10452
6556.79344,0.12957
6558.72191,0.12085
6560.65038,0.09772
6562.57885,0.07614
6564.50732,0.07183
6566.43578,0.10523
6568.36425,0.14412
6570.29272,0.14935
6572.22119,0.12827
6574.14966,0.07349
6576.07813,0.00500
6578.00660,0.00311
6579.93507,0.07060
6581.86353,0.11800
6583.79200,0.11552
6585.72047,0.08686
6587.64894,0.03053
6589.57741,-0.03515
6591.50588,-0.06856
6593.43435,-0.06552
6595.36281,-0.05235
6597.29128,-0.02536
6599.21975,0.02853
6601.14822,0.06231
6603.07669,0.04329
6605.00516,0.02159
6606.93363,0.02583
6608.86210,0.03916
6610.79056,0.03999
6612.71903,0.01826
6614.64750,0.00787
6616.57597,0.04326
6618.50444,0.05880
6620.43291,0.01996
6622.36138,0.00975
6624.28984,0.05452
6626.21831,0.06580
6628.14678,0.01617
6630.07525,-0.01525
6632.00372,-0.00213
6633.93219,0.00415
6635.86066,0.00342
6637.78912,0.04610
6639.71759,0.10790
6641.64606,0.10488
6643.57453,0.03402
6645.50300,-0.01078
6647.43147,-0.00465
6649.35994,-0.00361
6651.28841,-0.00628
6653.21687,-0.01244
6655.14534,-0.03145
6657.07381,-0.00671
6659.00228,0.05650
6660.93075,0.07192
6662.85922,0.07517
6664.78769,0.09486
6666.71615,0.05350
6668.64462,-0.04330
6670.57309,-0.07805
6672.50156,-0.02941
6674.43003,-0.00671
6676.35850,-0.01003
6678.28697,0.05147
6680.21544,0.12222
6682.14390,0.13149
6684.07237,0.13905
6686.00084,0.15444
6687.92931,0.11143
6689.85778,0.04943
6691.78625,0.01379
6693.71472,-0.01866
6695.64318,-0.01681
6697.57165,0.04780
6699.50012,0.12915
6701.42859,0.18151
6703.35706,0.19080
6705.28553,0.16259
6707.21400,0.11516
6709.14247,0.06647
6711.07093,0.02555
6712.99940,0.01012
6714.92787,0.03120
6716.85634,0.06119
6718.78481,0.07180
6720.71328,0.08957
6722.64175,0.11578
6724.57021,0.07908
6726.49868,-0.00371
6728.42715,-0.04913
6730.35562,-0.02707
6732.28409,0.02775
6734.21256,0.03461
6736.14103,0.00659
6738.06950,0.03885
6739.99796,0.09514
6741.92643,0.09700
6743.85490,0.07366
6745.78337,0.04014
6747.71184,-0.02425
6749.64031,-0.06220
6751.56878,-0.02180
6753.49724,0.04163
6755.42571,0.08632
6757.35418,0.12919
6759.28265,0.15430
6761.21112,0.12659
6763.13959,0.05523
6765.06806,-0.01333
6766.99653,-0.02438
6768.92499,0.03083
6770.85346,0.09795
6772.78193,0.13382
6774.71040,0.12743
6776.63887,0.06919
6778.56734,0.01475
6780.49581,0.00172
6782.42427,-0.00610
6784.35274,-0.01886
6786.28121,-0.01922
6788.20968,-0.03099
6790.13815,-0.05983
6792.06662,-0.04045
6793.99509,0.01352
6795.92355,0.04324
6797.85202,0.06988
6799.78049,0.07759
6801.70896,0.03180
6803.63743,0.00663
6805.56590,0.03395
6807.49437,0.03014
6809.42284,0.00886
6811.35130,0.03140
6813.27977,0.07884
6815.20824,0.11707
6817.13671,0.14977
6819.06518,0.15265
6820.99365,0.08955
6822.92212,0.03003
6824.85058,0.05665
6826.77905,0.06801
6828.70752,0.03876
6830.63599,0.01394
6832.56446,-0.01949
6834.49293,-0.02093
6836.42140,0.03510
6838.34987,0.03695
6840.27833,-0.01876
6842.20680,-0.00713
6844.13527,0.05697
6846.06374,0.08606
6847.99221,0.09748
6849.92068,0.09883
6851.84915,0.07022
6853.77761,0.07946
6855.70608,0.14694
6857.63455,0.16936
6859.56302,0.13440
6861.49149,0.09827
6863.41996,0.07065
6865.34843,0.07053
6867.27690,0.07857
6869.20536,0.05774
6871.13383,0.02757
6873.06230,-0.00660
6874.99077,-0.07170
6876.91924,-0.15549
6878.84771,-0.19606
6880.77618,-0.17962
6882.70464,-0.14630
6884.63311,-0.09803
6886.56158,-0.01422
6888.49005,0.07060
6890.41852,0.08224
6892.34699,0.03974
6894.27546,0.01860
6896.20393,0.04853
6898.13239,0.08229
6900.06086,0.05504
6901.98933,0.02101
6903.91780,0.03795
6905.84627,0.05413
6907.77474,0.00330
6909.70321,-0.04883
6911.63167,-0.03826
6913.56014,0.03388
6915.48861,0.14516
6917.41708,0.23377
6919.34555,0.22671
6921.27402,0.20426
6923.20249,0.23134
6925.13096,0.18288
6927.05942,0.07342
6928.98789,0.02232
6930.91636,0.01848
6932.84483,0.02027
6934.77330,0.03561
6936.70177,0.06547
6938.63024,0.11651
6940.55870,0.13930
6942.48717,0.09331
6944.41564,0.06438
6946.34411,0.09951
6948.27258,0.15981
6950.20105,0.16729
6952.12952,0.08213
6954.05799,-0.02746
6955.98645,-0.05792
6957.91492,-0.01420
6959.84339,0.01336
6961.77186,-0.00658
6963.70033,-0.04721
6965.62880,-0.08406
6967.55727,-0.05523
6969.48573,0.05064
6971.41420,0.08496
6973.34267,0.03585
6975.27114,0.05198
6977.19961,0.10347
6979.12808,0.12830
6981.05655,0.12488
6982.98501,0.10119
6984.91348,0.06988
6986.84195,0.01133
6988.77042,-0.04686
6990.69889,-0.05768
6992.62736,-0.03509
6994.55583,-0.00378
6996.48430,0.03585
6998.41276,0.08338
7000.34123,0.12151
7002.26970,0.14297
7004.19817,0.15614
7006.12664,0.14577
7008.05511,0.09809
7009.98358,0.05379
7011.91204,0.03840
7013.84051,0.03873
7015.76898,0.01399
7017.69745,0.00874
7019.62592,0.06718
7021.55439,0.10608
7023.48286,0.07992
7025.41133,0.04753
7027.33979,0.05298
7029.26826,0.04501
7031.19673,0.03222
7033.12520,0.09640
7035.05367,0.14190
7036.98214,0.07246
7038.91061,-0.01813
7040.83907,-0.06554
7042.76754,-0.05352
7044.69601,-0.01561
7046.62448,0.02011
7048.55295,0.04232
7050.48142,0.00688
7052.40989,-0.05237
7054.33836,-0.07232
7056.26682,-0.02370
7058.19529,0.07368
7060.12376,0.11386
7062.05223,0.09473
7063.98070,0.07716
7065.90917,0.06587
7067.83764,0.06140
7069.76610,0.04540
7071.69457,0.00693
7073.62304,-0.00562
7075.55151,-0.00125
7077.47998,0.01382
7079.40845,0.06737
7081.33692,0.09123
7083.26539,0.06237
7085.19385,0.08695
7087.12232,0.13449
7089.05079,0.10135
7090.97926,0.00385
7092.90773,-0.06699
7094.83620,-0.03400
7096.76467,0.08329
7098.69313,0.18606
7100.62160,0.20232
7102.55007,0.14840
7104.47854,0.10980
7106.40701,0.14830
7108.33548,0.18120
7110.26395,0.11068
7112.19242,-0.05257
7114.12088,-0.20468
7116.04935,-0.24072
7117.97782,-0.12851
7119.90629,-0.01245
7121.83476,0.01369
7123.76323,0.02442
7125.69170,0.03544
7127.62016,0.01157
7129.54863,0.01412
7131.47710,0.07046
7133.40557,0.10245
7135.33404,0.11558
7137.26251,0.11520
7139.19098,0.04882
7141.11944,-0.03099
7143.04791,-0.01271
7144.97638,0.11005
7146.90485,0.16105
7148.83332,0.11975
7150.76179,0.14255
7152.69026,0.22924
7154.61873,0.26970
7156.54719,0.22052
7158.47566,0.15122
7160.40413,0.10917
7162.33260,0.09088
7164.26107,0.09688
7166.18954,0.10945
7168.11801,0.07597
7170.04647,-0.00109
7171.97494,-0.00707
7173.90341,0.07542
7175.83188,0.13436
7177.76035,0.13319
7179.68882,0.09540
7181.61729,0.04936
7183.54576,0.06087
7185.47422,0.10867
7187.40269,0.14094
7189.33116,0.15982
7191.25963,0.17083
7193.18810,0.15572
7195.11657,0.11110
7197.04504,0.10970
7198.97350,0.09825
7200.90197,-0.00286
7202.83044,-0.09982
7204.75891,-0.08866
7206.68738,-0.00018
7208.61585,0.08509
7210.54432,0.13140
7212.47279,0.11600
7214.40125,0.07089
7216.32972,0.04042
7218.25819,0.01628
7220.18666,-0.02318
7222.11513,-0.05163
7224.04360,-0.03574
7225.97207,0.01747
7227.90053,0.08057
7229.82900,0.15734
7231.75747,0.17609
7233.68594,0.11689
7235.61441,0.09255
7237.54288,0.13833
7239.47135,0.20165
7241.39982,0.17763
7243.32828,0.03901
7245.25675,-0.04406
7247.18522,-0.04694
7249.11369,-0.03249
7251.04216,0.01964
7252.97063,0.09514
7254.89910,0.08860
7256.82756,0.02393
7258.75603,0.01263
7260.68450,0.13018
7262.61297,0.25517
7264.54144,0.16346
7266.46991,0.00257
7268.39838,0.01682
7270.32685,0.14341
7272.25531,0.15491
7274.18378,0.01927
7276.11225,-0.06278
7278.04072,-0.04112
7279.96919,0.02227
7281.89766,0.04154
7283.82613,0.05671
7285.75459,0.07274
7287.68306,0.06079
7289.61153,0.06684
7291.54000,0.09831
7293.46847,0.05012
7295.39694,-0.02596
7297.32541,0.02388
7299.25387,0.14785
7301.18234,0.23560
7303.11081,0.25504
7305.03928,0.23836
7306.96775,0.19254
7308.89622,0.04724
7310.82469,-0.13187
7312.75316,-0.22718
7314.68162,-0.20410
7316.61009,-0.00889
7318.53856,0.26754
7320.46703,0.38763
7322.39550,0.24425
7324.32397,0.04422
7326.25244,0.00052
7328.18090,0.06662
7330.10937,0.17328
7332.03784,0.20285
7333.96631,0.14371
7335.89478,0.11706
7337.82325,0.21600
7339.75172,0.35829
7341.68019,0.28071
7343.60865,0.14096
7345.53712,0.06933
7347.46559,0.03034
7349.39406,0.06536
7351.32253,0.18704
7353.25100,0.26465
7355.17947,0.27853
7357.10793,0.29351
7359.03640,0.22988
7360.96487,0.12017
7362.89334,0.14941
7364.82181,0.22530
7366.75028,0.19806
7368.67875,0.13116
7370.60722,0.12699
7372.53568,0.18810
7374.46415,0.27252
7376.39262,0.21927
7378.32109,0.07048
7380.24956,-0.02191
7382.17803,-0.04728
7384.10650,-0.09056
7386.03496,-0.14958
7387.96343,-0.09224
7389.89190,0.04140
7391.82037,0.10741
7393.74884,0.06688
7395.67731,-0.02578
7397.60578,-0.05650
7399.53425,-0.00233
7401.46271,0.08030
7403.39118,0.15879
7405.31965,0.18155
7407.24812,0.15477
7409.17659,0.14772
7411.10506,0.14067
7413.03353,0.09909
7414.96199,0.07429
7416.89046,0.09313
7418.81893,0.11403
7420.74740,0.12753
7422.67587,0.08635
7424.60434,0.01245
7426.53281,0.03370
7428.46128,0.11497
7430.38974,0.04455
7432.31821,-0.09473
7434.24668,-0.04211
7436.17515,0.04621
7438.10362,-0.02528
7440.03209,-0.07207
7441.96056,-0.01483
7443.88902,-0.01916
7445.81749,-0.01401
7447.74596,0.04636
7449.67443,0.04205
7451.60290,0.01503
7453.53137,-0.00038
7455.45984,-0.08209
7457.38831,-0.17665
7459.31677,-0.17208
7461.24524,-0.01947
7463.17371,0.08630
7465.10218,0.08832
7467.03065,0.08133
7468.95912,0.07767
7470.88759,0.07826
7472.81605,0.09908
7474.74452,0.10976
7476.67299,0.13116
7478.60146,0.16448
7480.52993,0.13112
7482.45840,0.01849
7484.38687,-0.04746
7486.31533,-0.01804
7488.24380,0.02739
7490.17227,0.02988
7492.10074,0.05504
7494.02921,0.08270
7495.95768,0.03503
7497.88615,-0.05770
