399.19301,0.04514
401.12148,0.18165
403.04995,0.08742
404.97842,-0.02338
406.90689,-0.04762
408.83536,-0.00418
410.76382,0.07642
412.69229,0.11250
414.62076,0.07745
416.54923,0.05528
418.47770,0.16021
420.40617,0.21420
422.33464,0.04309
424.26311,-0.11197
426.19157,-0.08608
428.12004,-0.01139
430.04851,0.01219
431.97698,0.01108
433.90545,0.00932
435.83392,0.06156
437.76239,0.12816
439.69085,0.14401
441.61932,0.09856
443.54779,0.02306
445.47626,-0.00790
447.40473,-0.00583
449.33320,-0.01290
451.26167,-0.00241
453.19013,0.01514
455.11860,0.02043
457.04707,0.04550
458.97554,0.09115
460.90401,0.11940
462.83248,0.11038
464.76095,0.06075
466.68942,0.02145
468.61788,0.01472
470.54635,0.01635
472.47482,0.02235
474.40329,0.06676
476.33176,0.11571
478.26023,0.10494
480.18870,0.06846
482.11716,0.06397
484.04563,0.08353
485.97410,0.09185
487.90257,0.12795
489.83104,0.16982
491.75951,0.14189
493.68798,0.09345
495.61645,0.10219
497.54491,0.13857
499.47338,0.14800
501.40185,0.11835
503.33032,0.06330
505.25879,0.04728
507.18726,0.08736
509.11573,0.11584
511.04419,0.11296
512.97266,0.09780
514.90113,0.08726
516.82960,0.08865
518.75807,0.08765
520.68654,0.07789
522.61501,0.05784
524.54348,0.04699
526.47194,0.06540
528.40041,0.09303
530.32888,0.10768
532.25735,0.09748
534.18582,0.06100
536.11429,0.02686
538.04276,0.02045
539.97122,0.02376
541.89969,0.02874
543.82816,0.03980
545.75663,0.05394
547.68510,0.07346
549.61357,0.05173
551.54204,-0.08630
553.47051,-0.23468
555.39897,-0.18690
557.32744,-0.00777
559.25591,0.08749
561.18438,0.10125
563.11285,0.11144
565.04132,0.10986
566.96979,0.09443
568.89825,0.08767
570.82672,0.09660
572.75519,0.11205
574.68366,0.11213
576.61213,0.10099
578.54060,0.10659
580.46907,0.12043
582.39754,0.11753
584.32600,0.09473
586.25447,0.06955
588.18294,0.05899
590.11141,0.06947
592.03988,0.09987
593.96835,0.11659
595.89682,0.09843
597.82528,0.07422
599.75375,0.05941
601.68222,0.05468
603.61069,0.07383
605.53916,0.09787
607.46763,0.09662
609.39610,0.08497
611.32456,0.08433
613.25303,0.08329
615.18150,0.06639
617.10997,0.05323
619.03844,0.06833
620.96691,0.09569
622.89538,0.10311
624.82385,0.09248
626.75231,0.09103
628.68078,0.10040
630.60925,0.10202
632.53772,0.10186
634.46619,0.11303
636.39466,0.12219
638.32313,0.11844
640.25159,0.10520
642.18006,0.08835
644.10853,0.08336
646.03700,0.09561
647.96547,0.11321
649.89394,0.12430
651.82241,0.12146
653.75088,0.10672
655.67934,0.08676
657.60781,0.07996
659.53628,0.09924
661.46475,0.11814
663.39322,0.11093
665.32169,0.08502
667.25016,0.06136
669.17862,0.07988
671.10709,0.11675
673.03556,0.12872
674.96403,0.11875
676.89250,0.10098
678.82097,0.08419
680.74944,0.06765
682.67791,0.05473
684.60637,0.05916
686.53484,0.08612
688.46331,0.10732
690.39178,0.10697
692.32025,0.10817
694.24872,0.11753
696.17719,0.11772
698.10565,0.11011
700.03412,0.11321
701.96259,0.12278
703.89106,0.11890
705.81953,0.10336
707.74800,0.10394
709.67647,0.14370
711.60494,0.18601
713.53340,0.17124
715.46187,0.12265
717.39034,0.09939
719.31881,0.10615
721.24728,0.11769
723.17575,0.11777
725.10422,0.10966
727.03268,0.09626
728.96115,0.08464
730.88962,0.09205
732.81809,0.11040
734.74656,0.12166
736.67503,0.12937
738.60350,0.13223
740.53197,0.12462
742.46043,0.11648
744.38890,0.11684
746.31737,0.11897
748.24584,0.11181
750.17431,0.10363
752.10278,0.10919
754.03125,0.12200
755.95971,0.12804
757.88818,0.12206
759.81665,0.11112
761.74512,0.10323
763.67359,0.09600
765.60206,0.09352
767.53053,0.10234
769.45900,0.11135
771.38746,0.10801
773.31593,0.10009
775.24440,0.09872
777.17287,0.10152
779.10134,0.10781
781.02981,0.11810
782.95828,0.12490
784.88674,0.12507
786.81521,0.12066
788.74368,0.11353
790.67215,0.10987
792.60062,0.11040
794.52909,0.10633
796.45756,0.09955
798.38602,0.09628
800.31449,0.09067
802.24296,0.08653
804.17143,0.09185
806.09990,0.09712
808.02837,0.09854
809.95684,0.10273
811.88531,0.10873
813.81377,0.11274
815.74224,0.11151
817.67071,0.10949
819.59918,0.11405
821.52765,0.11532
823.45612,0.10769
825.38459,0.10155
827.31305,0.10282
829.24152,0.11180
831.16999,0.11947
833.09846,0.11870
835.02693,0.11853
836.95540,0.12129
838.88387,0.11912
840.81234,0.11159
842.74080,0.10347
844.66927,0.09999
846.59774,0.10536
848.52621,0.11826
850.45468,0.12870
852.38315,0.12905
854.31162,0.12574
856.24008,0.12526
858.16855,0.12446
860.09702,0.12214
862.02549,0.11683
863.95396,0.10813
865.88243,0.11043
867.81090,0.13191
869.73937,0.15105
871.66783,0.14698
873.59630,0.13240
875.52477,0.12736
877.45324,0.12918
879.38171,0.12669
881.31018,0.12223
883.23865,0.12084
885.16711,0.11949
887.09558,0.12055
889.02405,0.12471
890.95252,0.12344
892.88099,0.11651
894.80946,0.11565
896.73793,0.12507
898.66640,0.13217
900.59486,0.12918
902.52333,0.12476
904.45180,0.12662
906.38027,0.13328
908.30874,0.14049
910.23721,0.14017
912.16568,0.12999
914.09414,0.12115
916.02261,0.12255
917.95108,0.12830
919.87955,0.12748
921.80802,0.12414
923.73649,0.12679
925.66496,0.13306
927.59343,0.13821
929.52189,0.13538
931.45036,0.12569
933.37883,0.12085
935.30730,0.12354
937.23577,0.12801
939.16424,0.12916
941.09271,0.12509
943.02117,0.12067
944.94964,0.12092
946.87811,0.12277
948.80658,0.12378
950.73505,0.12516
952.66352,0.12311
954.59199,0.11811
956.52045,0.11849
958.44892,0.12428
960.37739,0.12885
962.30586,0.12901
964.23433,0.12399
966.16280,0.11786
968.09127,0.11821
970.01974,0.12561
971.94820,0.13477
973.87667,0.14021
975.80514,0.13964
977.73361,0.13536
979.66208,0.13156
981.59055,0.13111
983.51902,0.13090
985.44748,0.12922
987.37595,0.13240
989.30442,0.14192
991.23289,0.14717
993.16136,0.14438
995.08983,0.14409
997.01830,0.14870
998.94677,0.15023
1000.87523,0.14542
1002.80370,0.14172
1004.73217,0.14379
1006.66064,0.14243
1008.58911,0.13814
1010.51758,0.14028
1012.44605,0.14285
1014.37451,0.13959
1016.30298,0.13511
1018.23145,0.12839
1020.15992,0.12072
1022.08839,0.12131
1024.01686,0.12818
1025.94533,0.13718
1027.87380,0.14777
1029.80226,0.15029
1031.73073,0.14406
1033.65920,0.14127
1035.58767,0.14426
1037.51614,0.14582
1039.44461,0.14397
1041.37308,0.14470
1043.30154,0.14614
1045.23001,0.14190
1047.15848,0.13555
1049.08695,0.13206
1051.01542,0.13377
1052.94389,0.13942
1054.87236,0.14577
1056.80083,0.14918
1058.72929,0.14685
1060.65776,0.14527
1062.58623,0.14824
1064.51470,0.15199
1066.44317,0.15529
1068.37164,0.15847
1070.30011,0.15931
1072.22857,0.15275
1074.15704,0.14333
1076.08551,0.14303
1078.01398,0.14892
1079.94245,0.15284
1081.87092,0.15552
1083.79939,0.15452
1085.72786,0.14891
1087.65632,0.14320
1089.58479,0.14106
1091.51326,0.14459
1093.44173,0.15061
1095.37020,0.15436
1097.29867,0.15661
1099.22714,0.15768
1101.15560,0.15248
1103.08407,0.14373
1105.01254,0.13940
1106.94101,0.14241
1108.86948,0.14999
1110.79795,0.15346
1112.72642,0.15142
1114.65489,0.14951
1116.58335,0.14855
1118.51182,0.14697
1120.44029,0.14874
1122.36876,0.15277
1124.29723,0.14978
1126.22570,0.14284
1128.15417,0.14018
1130.08263,0.14041
1132.01110,0.14248
1133.93957,0.14712
1135.86804,0.15076
1137.79651,0.15225
1139.72498,0.15095
1141.65345,0.14618
1143.58191,0.14437
1145.51038,0.14581
1147.43885,0.14838
1149.36732,0.15537
1151.29579,0.16122
1153.22426,0.15882
1155.15273,0.15453
1157.08120,0.15757
1159.00966,0.16323
1160.93813,0.16230
1162.86660,0.15663
1164.79507,0.15275
1166.72354,0.15160
1168.65201,0.15073
1170.58048,0.14987
1172.50894,0.14980
1174.43741,0.15169
1176.36588,0.15499
1178.29435,0.15546
1180.22282,0.15351
1182.15129,0.15446
1184.07976,0.15694
1186.00823,0.15812
1187.93669,0.15833
1189.86516,0.15497
1191.79363,0.14892
1193.72210,0.14519
1195.65057,0.14519
1197.57904,0.14723
1199.50751,0.14888
1201.43597,0.14984
1203.36444,0.15271
1205.29291,0.15753
1207.22138,0.15943
1209.14985,0.15693
1211.07832,0.15453
1213.00679,0.15539
1214.93526,0.15734
1216.86372,0.15630
1218.79219,0.15238
1220.72066,0.15023
1222.64913,0.15210
1224.57760,0.15508
1226.50607,0.15614
1228.43454,0.15459
1230.36300,0.15237
1232.29147,0.15313
1234.21994,0.15648
1236.14841,0.15815
1238.07688,0.15750
1240.00535,0.15626
1241.93382,0.15437
1243.86229,0.15189
1245.79075,0.15035
1247.71922,0.15241
1249.64769,0.15710
1251.57616,0.15979
1253.50463,0.16033
1255.43310,0.16174
1257.36157,0.16287
1259.29003,0.16119
1261.21850,0.15870
1263.14697,0.15697
1265.07544,0.15493
1267.00391,0.15312
1268.93238,0.15411
1270.86085,0.15840
1272.78932,0.16282
1274.71778,0.16520
1276.64625,0.16479
1278.57472,0.16075
1280.50319,0.15576
1282.43166,0.15531
1284.36013,0.15827
1286.28860,0.15909
1288.21706,0.15865
1290.14553,0.16086
1292.07400,0.16536
1294.00247,0.16743
1295.93094,0.16518
1297.85941,0.16239
1299.78788,0.15933
1301.71634,0.15276
1303.64481,0.14482
1305.57328,0.14303
1307.50175,0.14983
1309.43022,0.15739
1311.35869,0.16055
1313.28716,0.16235
1315.21563,0.16402
1317.14409,0.16545
1319.07256,0.16605
1321.00103,0.16550
1322.92950,0.16554
1324.85797,0.16277
1326.78644,0.15722
1328.71491,0.15587
1330.64337,0.15782
1332.57184,0.15953
1334.50031,0.16137
1336.42878,0.16099
1338.35725,0.15799
1340.28572,0.15831
1342.21419,0.16370
1344.14266,0.16654
1346.07112,0.16301
1347.99959,0.16070
1349.92806,0.16365
1351.85653,0.16543
1353.78500,0.16432
1355.71347,0.16428
1357.64194,0.16694
1359.57040,0.17058
1361.49887,0.17353
1363.42734,0.17536
1365.35581,0.17523
1367.28428,0.17267
1369.21275,0.16924
1371.14122,0.16841
1373.06969,0.16934
1374.99815,0.16743
1376.92662,0.16459
1378.85509,0.16628
1380.78356,0.17170
1382.71203,0.17607
1384.64050,0.17854
1386.56897,0.18213
1388.49743,0.18398
1390.42590,0.18076
1392.35437,0.17774
1394.28284,0.17759
1396.21131,0.17761
1398.13978,0.17710
1400.06825,0.17676
1401.99672,0.17714
1403.92518,0.17911
1405.85365,0.17850
1407.78212,0.17459
1409.71059,0.17361
1411.63906,0.17460
1413.56753,0.17569
1415.49600,0.17861
1417.42446,0.18023
1419.35293,0.17824
1421.28140,0.17706
1423.20987,0.17570
1425.13834,0.17318
1427.06681,0.17304
1428.99528,0.17551
1430.92375,0.17746
1432.85221,0.17852
1434.78068,0.18146
1436.70915,0.18515
1438.63762,0.18344
1440.56609,0.17785
1442.49456,0.17470
1444.42303,0.17857
1446.35149,0.18648
1448.27996,0.18997
1450.20843,0.18662
1452.13690,0.18371
1454.06537,0.18892
1455.99384,0.20574
1457.92231,0.21298
1459.85077,0.19748
1461.77924,0.18767
1463.70771,0.18662
1465.63618,0.18614
1467.56465,0.18254
1469.49312,0.18241
1471.42159,0.19058
1473.35006,0.20160
1475.27852,0.20165
1477.20699,0.19601
1479.13546,0.19201
1481.06393,0.18876
1482.99240,0.18487
1484.92087,0.18415
1486.84934,0.19049
1488.77780,0.19884
1490.70627,0.19636
1492.63474,0.19089
1494.56321,0.19272
1496.49168,0.19613
1498.42015,0.19174
1500.34862,0.18296
1502.27709,0.17509
1504.20555,0.17310
1506.13402,0.18794
1508.06249,0.20525
1509.99096,0.19901
1511.91943,0.19532
1513.84790,0.20247
1515.77637,0.21039
1517.70483,0.20526
1519.63330,0.19661
1521.56177,0.19508
1523.49024,0.19220
1525.41871,0.18802
1527.34718,0.18660
1529.27565,0.18830
1531.20412,0.19379
1533.13258,0.19988
1535.06105,0.20029
1536.98952,0.20358
1538.91799,0.21835
1540.84646,0.22941
1542.77493,0.21792
1544.70340,0.20257
1546.63186,0.19208
1548.56033,0.18942
1550.48880,0.19145
1552.41727,0.19572
1554.34574,0.20223
1556.27421,0.21197
1558.20268,0.22362
1560.13115,0.21227
1562.05961,0.19920
1563.98808,0.19807
1565.91655,0.20062
1567.84502,0.20263
1569.77349,0.20148
1571.70196,0.19632
1573.63043,0.19442
1575.55889,0.19822
1577.48736,0.19882
1579.41583,0.19209
1581.34430,0.18584
1583.27277,0.18380
1585.20124,0.18456
1587.12971,0.18550
1589.05818,0.18723
1590.98664,0.18937
1592.91511,0.18989
1594.84358,0.18886
1596.77205,0.18733
1598.70052,0.18671
1600.62899,0.18653
1602.55746,0.18598
1604.48592,0.18704
1606.41439,0.19018
1608.34286,0.19236
1610.27133,0.18990
1612.19980,0.18601
1614.12827,0.18833
1616.05674,0.19786
1617.98521,0.20156
1619.91367,0.19831
1621.84214,0.19938
1623.77061,0.20251
1625.69908,0.20151
1627.62755,0.19939
1629.55602,0.19794
1631.48449,0.19845
1633.41295,0.20432
1635.34142,0.21574
1637.26989,0.21563
1639.19836,0.20407
1641.12683,0.19646
1643.05530,0.19841
1644.98377,0.20965
1646.91223,0.22033
1648.84070,0.21814
1650.76917,0.21571
1652.69764,0.21717
1654.62611,0.20960
1656.55458,0.20088
1658.48305,0.19768
1660.41152,0.19854
1662.33998,0.20082
1664.26845,0.20145
1666.19692,0.20339
1668.12539,0.20721
1670.05386,0.20379
1671.98233,0.19689
1673.91080,0.19926
1675.83926,0.20441
1677.76773,0.20274
1679.69620,0.20018
1681.62467,0.20535
1683.55314,0.21877
1685.48161,0.21906
1687.41008,0.20767
1689.33855,0.20003
1691.26701,0.19736
1693.19548,0.20086
1695.12395,0.21179
1697.05242,0.22405
1698.98089,0.22655
1700.90936,0.21408
1702.83783,0.20175
1704.76629,0.19915
1706.69476,0.19845
1708.62323,0.19602
1710.55170,0.19454
1712.48017,0.19740
1714.40864,0.20738
1716.33711,0.21758
1718.26558,0.21093
1720.19404,0.19791
1722.12251,0.19286
1724.05098,0.19171
1725.97945,0.18934
1727.90792,0.18824
1729.83639,0.19054
1731.76486,0.19388
1733.69332,0.19555
1735.62179,0.19406
1737.55026,0.19473
1739.47873,0.19894
1741.40720,0.20095
1743.33567,0.19880
1745.26414,0.19796
1747.19261,0.20033
1749.12107,0.20163
1751.04954,0.19664
1752.97801,0.19118
1754.90648,0.19105
1756.83495,0.19311
1758.76342,0.19390
1760.69189,0.19320
1762.62035,0.18985
1764.54882,0.18776
1766.47729,0.19113
1768.40576,0.19788
1770.33423,0.20561
1772.26270,0.20824
1774.19117,0.19984
1776.11964,0.19185
1778.04810,0.19081
1779.97657,0.19502
1781.90504,0.19866
1783.83351,0.19835
1785.76198,0.19593
1787.69045,0.19381
1789.61892,0.19276
1791.54738,0.19185
1793.47585,0.19105
1795.40432,0.19032
1797.33279,0.19063
1799.26126,0.19373
1801.18973,0.19664
1803.11820,0.19551
1805.04666,0.19317
1806.97513,0.19214
1808.90360,0.19166
1810.83207,0.19116
1812.76054,0.19050
1814.68901,0.19038
1816.61748,0.19499
1818.54595,0.20506
1820.47441,0.20946
1822.40288,0.20347
1824.33135,0.19625
1826.25982,0.19417
1828.18829,0.19741
1830.11676,0.20184
1832.04523,0.20000
1833.97369,0.19502
1835.90216,0.19236
1837.83063,0.19241
1839.75910,0.19361
1841.68757,0.19649
1843.61604,0.20021
1845.54451,0.19910
1847.47298,0.19419
1849.40144,0.19042
1851.32991,0.18906
1853.25838,0.18901
1855.18685,0.18827
1857.11532,0.18793
1859.04379,0.18908
1860.97226,0.18911
1862.90072,0.18794
1864.82919,0.18959
1866.75766,0.19442
1868.68613,0.19653
1870.61460,0.19398
1872.54307,0.19243
1874.47154,0.19304
1876.40001,0.19344
1878.32847,0.19239
1880.25694,0.19113
1882.18541,0.19073
1884.11388,0.19143
1886.04235,0.19306
1887.97082,0.19407
1889.89929,0.19316
1891.82775,0.19225
1893.75622,0.19371
1895.68469,0.19523
1897.61316,0.19454
1899.54163,0.19361
1901.47010,0.19295
1903.39857,0.19104
1905.32704,0.18919
1907.25550,0.19039
1909.18397,0.19315
1911.11244,0.19363
1913.04091,0.19291
1914.96938,0.19461
1916.89785,0.19853
1918.82632,0.19957
1920.75478,0.19673
1922.68325,0.19392
1924.61172,0.19187
1926.54019,0.19006
1928.46866,0.18817
1930.39713,0.18624
1932.32560,0.18618
1934.25407,0.18903
1936.18253,0.19167
1938.11100,0.19196
1940.03947,0.19338
1941.96794,0.19642
1943.89641,0.19569
1945.82488,0.19107
1947.75335,0.18709
1949.68181,0.18612
1951.61028,0.18762
1953.53875,0.19011
1955.46722,0.19375
1957.39569,0.19709
1959.32416,0.19713
1961.25263,0.19514
1963.18110,0.19398
1965.10956,0.19342
1967.03803,0.19248
1968.96650,0.19262
1970.89497,0.19430
1972.82344,0.19470
1974.75191,0.19357
1976.68038,0.19396
1978.60884,0.19559
1980.53731,0.19517
1982.46578,0.19267
1984.39425,0.19132
1986.32272,0.19144
1988.25119,0.19180
1990.17966,0.19304
1992.10812,0.19416
1994.03659,0.19210
1995.96506,0.18917
1997.89353,0.18955
1999.82200,0.19124
2001.75047,0.19172
2003.67894,0.19114
2005.60741,0.18995
2007.53587,0.18986
2009.46434,0.19087
2011.39281,0.19186
2013.32128,0.19396
2015.24975,0.19711
2017.17822,0.19778
2019.10669,0.19617
2021.03515,0.19616
2022.96362,0.19681
2024.89209,0.19565
2026.82056,0.19319
2028.74903,0.19080
2030.67750,0.19027
2032.60597,0.19238
2034.53444,0.19473
2036.46290,0.19574
2038.39137,0.19632
2040.31984,0.19619
2042.24831,0.19381
2044.17678,0.19000
2046.10525,0.18866
2048.03372,0.19133
2049.96218,0.19418
2051.89065,0.19367
2053.81912,0.19229
2055.74759,0.19369
2057.67606,0.19603
2059.60453,0.19594
2061.53300,0.19390
2063.46147,0.19311
2065.38993,0.19513
2067.31840,0.19772
2069.24687,0.19737
2071.17534,0.19482
2073.10381,0.19398
2075.03228,0.19488
2076.96075,0.19470
2078.88921,0.19378
2080.81768,0.19379
2082.74615,0.19316
2084.67462,0.19125
2086.60309,0.19112
2088.53156,0.19351
2090.46003,0.19577
2092.38850,0.19625
2094.31696,0.19612
2096.24543,0.19729
2098.17390,0.19905
2100.10237,0.19894
2102.03084,0.19781
2103.95931,0.19783
2105.88778,0.19671
2107.81624,0.19322
2109.74471,0.19125
2111.67318,0.19330
2113.60165,0.19711
2115.53012,0.19831
2117.45859,0.19529
2119.38706,0.19201
2121.31553,0.19235
2123.24399,0.19440
2125.17246,0.19482
2127.10093,0.19387
2129.02940,0.19446
2130.95787,0.19618
2132.88634,0.19404
2134.81481,0.18813
2136.74327,0.18347
2138.67174,0.18468
2140.60021,0.19156
2142.52868,0.19573
2144.45715,0.19525
2146.38562,0.19604
2148.31409,0.19764
2150.24255,0.19816
2152.17102,0.19770
2154.09949,0.19639
2156.02796,0.19569
2157.95643,0.19565
2159.88490,0.19564
2161.81337,0.19709
2163.74184,0.20075
2165.67030,0.20334
2167.59877,0.20203
2169.52724,0.19889
2171.45571,0.19652
2173.38418,0.19509
2175.31265,0.19485
2177.24112,0.19663
2179.16958,0.19931
2181.09805,0.20034
2183.02652,0.20010
2184.95499,0.20027
2186.88346,0.20000
2188.81193,0.19871
2190.74040,0.19676
2192.66887,0.19497
2194.59733,0.19525
2196.52580,0.19699
2198.45427,0.19847
2200.38274,0.19968
2202.31121,0.19956
2204.23968,0.19805
2206.16815,0.19697
2208.09661,0.19593
2210.02508,0.19452
2211.95355,0.19383
2213.88202,0.19445
2215.81049,0.19551
2217.73896,0.19576
2219.66743,0.19648
2221.59590,0.19802
2223.52436,0.19777
2225.45283,0.19615
2227.38130,0.19632
2229.30977,0.19839
2231.23824,0.20048
2233.16671,0.20227
2235.09518,0.20293
2237.02364,0.20181
2238.95211,0.20047
2240.88058,0.19962
2242.80905,0.19839
2244.73752,0.19653
2246.66599,0.19592
2248.59446,0.19729
2250.52293,0.19832
2252.45139,0.19831
2254.37986,0.19808
2256.30833,0.19756
2258.23680,0.19726
2260.16527,0.19766
2262.09374,0.19752
2264.02221,0.19677
2265.95067,0.19733
2267.87914,0.19795
2269.80761,0.19633
2271.73608,0.19415
2273.66455,0.19425
2275.59302,0.19628
2277.52149,0.19719
2279.44996,0.19624
2281.37842,0.19653
2283.30689,0.19932
2285.23536,0.20001
2287.16383,0.19682
2289.09230,0.19370
2291.02077,0.19163
2292.94924,0.19139
2294.87770,0.19331
2296.80617,0.19356
2298.73464,0.19178
2300.66311,0.18970
2302.59158,0.18648
2304.52005,0.18402
2306.44852,0.18342
2308.37699,0.18144
2310.30545,0.17791
2312.23392,0.17543
2314.16239,0.17416
2316.09086,0.17341
2318.01933,0.17354
2319.94780,0.17724
2321.87627,0.18252
2323.80473,0.17840
2325.73320,0.16865
2327.66167,0.16795
2329.59014,0.17327
2331.51861,0.17833
2333.44708,0.18304
2335.37555,0.18102
2337.30401,0.17099
2339.23248,0.16261
2341.16095,0.16237
2343.08942,0.16605
2345.01789,0.16820
2346.94636,0.17168
2348.87483,0.17635
2350.80330,0.17679
2352.73176,0.16801
2354.66023,0.15178
2356.58870,0.14101
2358.51717,0.13777
2360.44564,0.13453
2362.37411,0.13980
2364.30258,0.15217
2366.23104,0.16208
2368.15951,0.16519
2370.08798,0.16296
2372.01645,0.16491
2373.94492,0.17131
2375.87339,0.17564
2377.80186,0.18101
2379.73033,0.18996
2381.65879,0.19509
2383.58726,0.19497
2385.51573,0.19501
2387.44420,0.19612
2389.37267,0.19739
2391.30114,0.19914
2393.22961,0.19999
2395.15807,0.19980
2397.08654,0.20078
2399.01501,0.20005
2400.94348,0.19576
2402.87195,0.19404
2404.80042,0.19767
2406.72889,0.20132
2408.65736,0.20080
2410.58582,0.19907
2412.51429,0.19958
2414.44276,0.20097
2416.37123,0.20105
2418.29970,0.20055
2420.22817,0.20093
2422.15664,0.20170
2424.08510,0.20251
2426.01357,0.20194
2427.94204,0.19990
2429.87051,0.19986
2431.79898,0.20190
2433.72745,0.20233
2435.65592,0.20087
2437.58439,0.19972
2439.51285,0.19813
2441.44132,0.19603
2443.36979,0.19597
2445.29826,0.19728
2447.22673,0.19761
2449.15520,0.19938
2451.08367,0.20532
2453.01213,0.20928
2454.94060,0.20540
2456.86907,0.20016
2458.79754,0.20009
2460.72601,0.20226
2462.65448,0.20358
2464.58295,0.20300
2466.51142,0.20132
2468.43988,0.20061
2470.36835,0.20036
2472.29682,0.20123
2474.22529,0.20302
2476.15376,0.20288
2478.08223,0.20050
2480.01070,0.19837
2481.93916,0.19804
2483.86763,0.19877
2485.79610,0.20024
2487.72457,0.20198
2489.65304,0.20318
2491.58151,0.20389
2493.50998,0.20302
2495.43844,0.20096
2497.36691,0.20006
2499.29538,0.19982
2501.22385,0.19903
2503.15232,0.19857
2505.08079,0.19916
2507.00926,0.20098
2508.93773,0.20354
2510.86619,0.20443
2512.79466,0.20246
2514.72313,0.20078
2516.65160,0.20109
2518.58007,0.20148
2520.50854,0.20189
2522.43701,0.20275
2524.36547,0.20289
2526.29394,0.20249
2528.22241,0.20203
2530.15088,0.20044
2532.07935,0.19933
2534.00782,0.20043
2535.93629,0.20138
2537.86476,0.20122
2539.79322,0.20154
2541.72169,0.20303
2543.65016,0.20410
2545.57863,0.20369
2547.50710,0.20311
2549.43557,0.20319
2551.36404,0.20401
2553.29250,0.20565
2555.22097,0.20732
2557.14944,0.20701
2559.07791,0.20421
2561.00638,0.20195
2562.93485,0.20237
2564.86332,0.20351
2566.79179,0.20366
2568.72025,0.20400
2570.64872,0.20609
2572.57719,0.20820
2574.50566,0.20708
2576.43413,0.20461
2578.36260,0.20395
2580.29107,0.20434
2582.21953,0.20451
2584.14800,0.20473
2586.07647,0.20562
2588.00494,0.20630
2589.93341,0.20613
2591.86188,0.20538
2593.79035,0.20407
2595.71882,0.20366
2597.64728,0.20494
2599.57575,0.20559
2601.50422,0.20438
2603.43269,0.20340
2605.36116,0.20343
2607.28963,0.20388
2609.21810,0.20424
2611.14656,0.20374
2613.07503,0.20371
2615.00350,0.20569
2616.93197,0.20825
2618.86044,0.20891
2620.78891,0.20830
2622.71738,0.20790
2624.64585,0.20652
2626.57431,0.20470
2628.50278,0.20432
2630.43125,0.20626
2632.35972,0.20848
2634.28819,0.20726
2636.21666,0.20543
2638.14513,0.20575
2640.07359,0.20503
2642.00206,0.20327
2643.93053,0.20315
2645.85900,0.20463
2647.78747,0.20596
2649.71594,0.20622
2651.64441,0.20595
2653.57288,0.20533
2655.50134,0.20556
2657.42981,0.20762
2659.35828,0.20846
2661.28675,0.20752
2663.21522,0.20815
2665.14369,0.20892
2667.07216,0.20803
2669.00062,0.20782
2670.92909,0.20791
2672.85756,0.20743
2674.78603,0.20769
2676.71450,0.20726
2678.64297,0.20586
2680.57144,0.20635
2682.49990,0.20798
2684.42837,0.20867
2686.35684,0.20944
2688.28531,0.20967
2690.21378,0.20893
2692.14225,0.20932
2694.07072,0.20914
2695.99919,0.20865
2697.92765,0.21142
2699.85612,0.21337
2701.78459,0.21107
2703.71306,0.20838
2705.64153,0.20766
2707.57000,0.20830
2709.49847,0.20930
2711.42693,0.21075
2713.35540,0.21245
2715.28387,0.21258
2717.21234,0.21041
2719.14081,0.20903
2721.06928,0.21090
2722.99775,0.21157
2724.92622,0.20881
2726.85468,0.20637
2728.78315,0.20604
2730.71162,0.20896
2732.64009,0.21429
2734.56856,0.21899
2736.49703,0.22128
2738.42550,0.22061
2740.35396,0.21866
2742.28243,0.21612
2744.21090,0.21370
2746.13937,0.21375
2748.06784,0.21540
2749.99631,0.21613
2751.92478,0.21541
2753.85325,0.21483
2755.78171,0.21475
2757.71018,0.21322
2759.63865,0.21082
2761.56712,0.21074
2763.49559,0.21332
2765.42406,0.21355
2767.35253,0.21061
2769.28099,0.21087
2771.20946,0.21596
2773.13793,0.22089
2775.06640,0.22275
2776.99487,0.22418
2778.92334,0.22510
2780.85181,0.22307
2782.78028,0.22201
2784.70874,0.22292
2786.63721,0.22139
2788.56568,0.21899
2790.49415,0.21847
2792.42262,0.21706
2794.35109,0.21492
2796.27956,0.21661
2798.20802,0.22021
2800.13649,0.22006
2802.06496,0.21748
2803.99343,0.21572
2805.92190,0.21553
2807.85037,0.21689
2809.77884,0.21765
2811.70731,0.21710
2813.63577,0.21744
2815.56424,0.21924
2817.49271,0.22094
2819.42118,0.22071
2821.34965,0.21830
2823.27812,0.21831
2825.20659,0.22310
2827.13505,0.22587
2829.06352,0.22301
2830.99199,0.22000
2832.92046,0.21924
2834.84893,0.21768
2836.77740,0.21485
2838.70587,0.21316
2840.63433,0.21370
2842.56280,0.21518
2844.49127,0.21506
2846.41974,0.21492
2848.34821,0.21836
2850.27668,0.22198
2852.20515,0.22247
2854.13362,0.22297
2856.06208,0.22331
2857.99055,0.22175
2859.91902,0.22051
2861.84749,0.21905
2863.77596,0.21631
2865.70443,0.21526
2867.63290,0.21602
2869.56136,0.21703
2871.48983,0.21996
2873.41830,0.22383
2875.34677,0.22476
2877.27524,0.22221
2879.20371,0.21844
2881.13218,0.21570
2883.06065,0.21415
2884.98911,0.21203
2886.91758,0.21004
2888.84605,0.21168
2890.77452,0.21609
2892.70299,0.21906
2894.63146,0.22021
2896.55993,0.22158
2898.48839,0.22398
2900.41686,0.22637
2902.34533,0.22652
2904.27380,0.22371
2906.20227,0.22026
2908.13074,0.21854
2910.05921,0.21795
2911.98768,0.21654
2913.91614,0.21475
2915.84461,0.21473
2917.77308,0.21698
2919.70155,0.22052
2921.63002,0.22397
2923.55849,0.22892
2925.48696,0.23555
2927.41542,0.23611
2929.34389,0.22618
2931.27236,0.21493
2933.20083,0.21193
2935.12930,0.21148
2937.05777,0.21001
2938.98624,0.21278
2940.91471,0.21591
2942.84317,0.21503
2944.77164,0.21211
2946.70011,0.21055
2948.62858,0.21452
2950.55705,0.22153
2952.48552,0.22592
2954.41399,0.22321
2956.34245,0.21238
2958.27092,0.20753
2960.19939,0.21716
2962.12786,0.22638
2964.05633,0.22558
2965.98480,0.22112
2967.91327,0.21865
2969.84174,0.21944
2971.77020,0.22208
2973.69867,0.22439
2975.62714,0.22349
2977.55561,0.21939
2979.48408,0.21943
2981.41255,0.22403
2983.34102,0.22533
2985.26948,0.22275
2987.19795,0.22066
2989.12642,0.22320
2991.05489,0.22793
2992.98336,0.22856
2994.91183,0.22702
2996.84030,0.22677
2998.76877,0.22819
3000.69723,0.23025
3002.62570,0.23159
3004.55417,0.23114
3006.48264,0.22625
3008.41111,0.21919
3010.33958,0.21250
3012.26805,0.20157
3014.19651,0.18286
3016.12498,0.16772
3018.05345,0.17770
3019.98192,0.20628
3021.91039,0.22447
3023.83886,0.22770
3025.76733,0.22646
3027.69579,0.22392
3029.62426,0.22276
3031.55273,0.22433
3033.48120,0.22623
3035.40967,0.22771
3037.33814,0.22736
3039.26661,0.22561
3041.19508,0.22764
3043.12354,0.23241
3045.05201,0.23250
3046.98048,0.22515
3048.90895,0.21675
3050.83742,0.21434
3052.76589,0.21718
3054.69436,0.21894
3056.62282,0.21583
3058.55129,0.21535
3060.47976,0.21935
3062.40823,0.21988
3064.33670,0.21636
3066.26517,0.21229
3068.19364,0.21337
3070.12211,0.22081
3072.05057,0.22675
3073.97904,0.22378
3075.90751,0.21518
3077.83598,0.21251
3079.76445,0.21588
3081.69292,0.21857
3083.62139,0.22082
3085.54985,0.22596
3087.47832,0.23200
3089.40679,0.23036
3091.33526,0.22285
3093.26373,0.21613
3095.19220,0.21141
3097.12067,0.21338
3099.04914,0.22021
3100.97760,0.22173
3102.90607,0.21590
3104.83454,0.21365
3106.76301,0.22161
3108.69148,0.22965
3110.61995,0.22590
3112.54842,0.21536
3114.47688,0.21448
3116.40535,0.22397
3118.33382,0.22980
3120.26229,0.22661
3122.19076,0.22092
3124.11923,0.22224
3126.04770,0.22848
3127.97617,0.23059
3129.90463,0.22666
3131.83310,0.22251
3133.76157,0.22411
3135.69004,0.22765
3137.61851,0.22690
3139.54698,0.22488
3141.47545,0.22655
3143.40391,0.22815
3145.33238,0.22586
3147.26085,0.22166
3149.18932,0.21801
3151.11779,0.22042
3153.04626,0.23083
3154.97473,0.23755
3156.90320,0.23241
3158.83166,0.22478
3160.76013,0.22287
3162.68860,0.22432
3164.61707,0.22683
3166.54554,0.23054
3168.47401,0.23522
3170.40248,0.23766
3172.33094,0.23646
3174.25941,0.23473
3176.18788,0.23529
3178.11635,0.23797
3180.04482,0.23830
3181.97329,0.23411
3183.90176,0.23002
3185.83022,0.22938
3187.75869,0.22966
3189.68716,0.22791
3191.61563,0.22613
3193.54410,0.22839
3195.47257,0.23208
3197.40104,0.23295
3199.32951,0.23322
3201.25797,0.23342
3203.18644,0.23287
3205.11491,0.23243
3207.04338,0.23037
3208.97185,0.22725
3210.90032,0.22676
3212.82879,0.22965
3214.75725,0.23423
3216.68572,0.23804
3218.61419,0.23801
3220.54266,0.23378
3222.47113,0.23043
3224.39960,0.23051
3226.32807,0.23051
3228.25654,0.23041
3230.18500,0.23231
3232.11347,0.23351
3234.04194,0.23079
3235.97041,0.22583
3237.89888,0.22310
3239.82735,0.22477
3241.75582,0.22953
3243.68428,0.23426
3245.61275,0.23543
3247.54122,0.23066
3249.46969,0.22600
3251.39816,0.22843
3253.32663,0.23065
3255.25510,0.22720
3257.18357,0.22358
3259.11203,0.22269
3261.04050,0.22450
3262.96897,0.22768
3264.89744,0.22997
3266.82591,0.23111
3268.75438,0.23178
3270.68285,0.23262
3272.61131,0.23304
3274.53978,0.23295
3276.46825,0.23412
3278.39672,0.23547
3280.32519,0.23258
3282.25366,0.22622
3284.18213,0.22285
3286.11060,0.22287
3288.03906,0.22378
3289.96753,0.22696
3291.89600,0.23008
3293.82447,0.22824
3295.75294,0.22229
3297.68141,0.21799
3299.60988,0.21807
3301.53834,0.22128
3303.46681,0.22563
3305.39528,0.22834
3307.32375,0.22865
3309.25222,0.22679
3311.18069,0.22215
3313.10916,0.21781
3315.03763,0.22033
3316.96609,0.22879
3318.89456,0.23294
3320.82303,0.22955
3322.75150,0.22658
3324.67997,0.22868
3326.60844,0.23175
3328.53691,0.23059
3330.46537,0.22738
3332.39384,0.22810
3334.32231,0.23039
3336.25078,0.22921
3338.17925,0.22658
3340.10772,0.22465
3342.03619,0.22459
3343.96466,0.22849
3345.89312,0.23319
3347.82159,0.23432
3349.75006,0.23275
3351.67853,0.23038
3353.60700,0.22941
3355.53547,0.23076
3357.46394,0.23267
3359.39240,0.23477
3361.32087,0.23653
3363.24934,0.23572
3365.17781,0.23160
3367.10628,0.22732
3369.03475,0.22743
3370.96322,0.23244
3372.89168,0.23683
3374.82015,0.23753
3376.74862,0.23871
3378.67709,0.24037
3380.60556,0.23694
3382.53403,0.22798
3384.46250,0.22028
3386.39097,0.22077
3388.31943,0.22789
3390.24790,0.23133
3392.17637,0.22670
3394.10484,0.22228
3396.03331,0.22348
3397.96178,0.22847
3399.89025,0.23373
3401.81871,0.23525
3403.74718,0.23274
3405.67565,0.22997
3407.60412,0.22907
3409.53259,0.22689
3411.46106,0.22277
3413.38953,0.22029
3415.31800,0.21818
3417.24646,0.21527
3419.17493,0.21628
3421.10340,0.21866
3423.03187,0.21401
3424.96034,0.20847
3426.88881,0.21300
3428.81728,0.22260
3430.74574,0.22544
3432.67421,0.22127
3434.60268,0.21676
3436.53115,0.21527
3438.45962,0.21713
3440.38809,0.21952
3442.31656,0.21889
3444.24503,0.21773
3446.17349,0.21978
3448.10196,0.21975
3450.03043,0.21558
3451.95890,0.21434
3453.88737,0.21480
3455.81584,0.21229
3457.74431,0.21152
3459.67277,0.21521
3461.60124,0.21664
3463.52971,0.21396
3465.45818,0.21362
3467.38665,0.21568
3469.31512,0.21364
3471.24359,0.20637
3473.17206,0.19923
3475.10052,0.19670
3477.02899,0.19773
3478.95746,0.20003
3480.88593,0.20332
3482.81440,0.20533
3484.74287,0.20547
3486.67134,0.20655
3488.59980,0.20747
3490.52827,0.20560
3492.45674,0.20184
3494.38521,0.19815
3496.31368,0.19734
3498.24215,0.20023
3500.17062,0.20325
3502.09909,0.20452
3504.02755,0.20232
3505.95602,0.19633
3507.88449,0.19282
3509.81296,0.19432
3511.74143,0.19521
3513.66990,0.19209
3515.59837,0.18873
3517.52683,0.18837
3519.45530,0.18890
3521.38377,0.19008
3523.31224,0.19388
3525.24071,0.19630
3527.16918,0.19406
3529.09765,0.19163
3531.02611,0.19128
3532.95458,0.19149
3534.88305,0.19293
3536.81152,0.19331
3538.73999,0.18961
3540.66846,0.18477
3542.59693,0.18287
3544.52540,0.18540
3546.45386,0.18796
3548.38233,0.18689
3550.31080,0.18852
3552.23927,0.19270
3554.16774,0.19032
3556.09621,0.18409
3558.02468,0.18005
3559.95314,0.17618
3561.88161,0.17378
3563.81008,0.17561
3565.73855,0.17978
3567.66702,0.18324
3569.59549,0.18090
3571.52396,0.17498
3573.45243,0.17210
3575.38089,0.17403
3577.30936,0.17507
3579.23783,0.17189
3581.16630,0.16995
3583.09477,0.17141
3585.02324,0.17321
3586.95171,0.17393
3588.88017,0.17074
3590.80864,0.16677
3592.73711,0.16604
3594.66558,0.16614
3596.59405,0.16667
3598.52252,0.16963
3600.45099,0.17042
3602.37946,0.16609
3604.30792,0.16249
3606.23639,0.16273
3608.16486,0.16334
3610.09333,0.16272
3612.02180,0.16354
3613.95027,0.16292
3615.87874,0.16018
3617.80720,0.16099
3619.73567,0.16313
3621.66414,0.15799
3623.59261,0.15157
3625.52108,0.15232
3627.44955,0.15715
3629.37802,0.15848
3631.30649,0.15869
3633.23495,0.15690
3635.16342,0.15092
3637.09189,0.14762
3639.02036,0.14913
3640.94883,0.14893
3642.87730,0.14702
3644.80577,0.14896
3646.73423,0.15445
3648.66270,0.15782
3650.59117,0.15537
3652.51964,0.15427
3654.44811,0.15526
3656.37658,0.15280
3658.30505,0.14824
3660.23352,0.14754
3662.16198,0.14681
3664.09045,0.14410
3666.01892,0.14356
3667.94739,0.14650
3669.87586,0.14872
3671.80433,0.14614
3673.73280,0.14700
3675.66126,0.15352
3677.58973,0.15287
3679.51820,0.14800
3681.44667,0.14530
3683.37514,0.14407
3685.30361,0.14430
3687.23208,0.14665
3689.16055,0.14883
3691.08901,0.14640
3693.01748,0.14381
3694.94595,0.14375
3696.87442,0.14202
3698.80289,0.13864
3700.73136,0.13797
3702.65983,0.13898
3704.58829,0.13870
3706.51676,0.13966
3708.44523,0.14596
3710.37370,0.15345
3712.30217,0.14906
3714.23064,0.14434
3716.15911,0.15006
3718.08757,0.15717
3720.01604,0.15752
3721.94451,0.15200
3723.87298,0.14431
3725.80145,0.14116
3727.72992,0.14408
3729.65839,0.14762
3731.58686,0.15378
3733.51532,0.16196
3735.44379,0.16356
3737.37226,0.15761
3739.30073,0.15105
3741.22920,0.14860
3743.15767,0.14811
3745.08614,0.14501
3747.01460,0.14558
3748.94307,0.15172
3750.87154,0.15169
3752.80001,0.14088
3754.72848,0.13705
3756.65695,0.14193
3758.58542,0.14816
3760.51389,0.14860
3762.44235,0.14433
3764.37082,0.13891
3766.29929,0.13290
3768.22776,0.12999
3770.15623,0.13139
3772.08470,0.13122
3774.01317,0.12990
3775.94163,0.13215
3777.87010,0.13869
3779.79857,0.14373
3781.72704,0.14196
3783.65551,0.13745
3785.58398,0.13149
3787.51245,0.12613
3789.44092,0.12622
3791.36938,0.13158
3793.29785,0.13874
3795.22632,0.14356
3797.15479,0.14301
3799.08326,0.14264
3801.01173,0.14421
3802.94020,0.14007
3804.86866,0.13674
3806.79713,0.13593
3808.72560,0.13324
3810.65407,0.13207
3812.58254,0.13300
3814.51101,0.13494
3816.43948,0.13752
3818.36795,0.14056
3820.29641,0.14308
3822.22488,0.14037
3824.15335,0.13762
3826.08182,0.13733
3828.01029,0.13543
3829.93876,0.13437
3831.86723,0.13733
3833.79569,0.14007
3835.72416,0.14009
3837.65263,0.14136
3839.58110,0.14305
3841.50957,0.14131
3843.43804,0.13866
3845.36651,0.13513
3847.29498,0.13023
3849.22344,0.12833
3851.15191,0.13197
3853.08038,0.13564
3855.00885,0.13444
3856.93732,0.13521
3858.86579,0.13626
3860.79426,0.13459
3862.72272,0.12931
3864.65119,0.12495
3866.57966,0.12646
3868.50813,0.13188
3870.43660,0.13803
3872.36507,0.13855
3874.29354,0.13411
3876.22200,0.13009
3878.15047,0.12992
3880.07894,0.13085
3882.00741,0.12817
3883.93588,0.12781
3885.86435,0.13192
3887.79282,0.13370
3889.72129,0.13333
3891.64975,0.13173
3893.57822,0.12649
3895.50669,0.12291
3897.43516,0.12714
3899.36363,0.13647
3901.29210,0.14132
3903.22057,0.13941
3905.14903,0.13307
3907.07750,0.12744
3909.00597,0.12507
3910.93444,0.12301
3912.86291,0.12162
3914.79138,0.12198
3916.71985,0.12157
3918.64832,0.11895
3920.57678,0.11609
3922.50525,0.11705
3924.43372,0.12134
3926.36219,0.12357
3928.29066,0.12360
3930.21913,0.12309
3932.14760,0.12094
3934.07606,0.11886
3936.00453,0.11716
3937.93300,0.11580
3939.86147,0.11968
3941.78994,0.12565
3943.71841,0.12526
3945.64688,0.12074
3947.57535,0.11648
3949.50381,0.11374
3951.43228,0.11411
3953.36075,0.11641
3955.28922,0.11685
3957.21769,0.11516
3959.14616,0.11312
3961.07463,0.10843
3963.00309,0.10223
3964.93156,0.10102
3966.86003,0.10502
3968.78850,0.10881
3970.71697,0.10963
3972.64544,0.10806
3974.57391,0.10638
3976.50238,0.10590
3978.43084,0.10531
3980.35931,0.10501
3982.28778,0.10809
3984.21625,0.11300
3986.14472,0.11349
3988.07319,0.11095
3990.00166,0.11191
3991.93012,0.11533
3993.85859,0.11564
3995.78706,0.11310
3997.71553,0.11250
3999.64400,0.11398
4001.57247,0.11232
4003.50094,0.10710
4005.42941,0.10444
4007.35787,0.10540
4009.28634,0.10470
4011.21481,0.10196
4013.14328,0.10259
4015.07175,0.10745
4017.00022,0.10979
4018.92869,0.10630
4020.85715,0.10387
4022.78562,0.10816
4024.71409,0.11333
4026.64256,0.11049
4028.57103,0.10283
4030.49950,0.10046
4032.42797,0.10384
4034.35644,0.10737
4036.28490,0.11004
4038.21337,0.11216
4040.14184,0.11141
4042.07031,0.10760
4043.99878,0.10568
4045.92725,0.10849
4047.85572,0.10949
4049.78418,0.10291
4051.71265,0.09485
4053.64112,0.09231
4055.56959,0.09368
4057.49806,0.09627
4059.42653,0.10097
4061.35500,0.10542
4063.28346,0.10626
4065.21193,0.10567
4067.14040,0.10375
4069.06887,0.10155
4070.99734,0.10239
4072.92581,0.10373
4074.85428,0.10410
4076.78275,0.10408
4078.71121,0.10285
4080.63968,0.09972
4082.56815,0.09525
4084.49662,0.09329
4086.42509,0.09419
4088.35356,0.09456
4090.28203,0.09474
4092.21049,0.09341
4094.13896,0.08955
4096.06743,0.08820
4097.99590,0.09089
4099.92437,0.09585
4101.85284,0.10129
4103.78131,0.10054
4105.70978,0.09287
4107.63824,0.08580
4109.56671,0.08177
4111.49518,0.08212
4113.42365,0.08882
4115.35212,0.09535
4117.28059,0.09553
4119.20906,0.09325
4121.13752,0.09291
4123.06599,0.09367
4124.99446,0.09373
4126.92293,0.09205
4128.85140,0.08812
4130.77987,0.08158
4132.70834,0.07703
4134.63681,0.08071
4136.56527,0.08557
4138.49374,0.08517
4140.42221,0.08697
4142.35068,0.09289
4144.27915,0.09639
4146.20762,0.09453
4148.13609,0.08968
4150.06455,0.08607
4151.99302,0.08425
4153.92149,0.08438
4155.84996,0.08703
4157.77843,0.08630
4159.70690,0.07999
4161.63537,0.07526
4163.56384,0.07387
4165.49230,0.07389
4167.42077,0.07588
4169.34924,0.07759
4171.27771,0.07848
4173.20618,0.08074
4175.13465,0.08092
4177.06312,0.07851
4178.99158,0.07945
4180.92005,0.08244
4182.84852,0.08401
4184.77699,0.08354
4186.70546,0.07828
4188.63393,0.07081
4190.56240,0.06892
4192.49087,0.07293
4194.41933,0.07465
4196.34780,0.07321
4198.27627,0.07478
4200.20474,0.07567
4202.13321,0.07106
4204.06168,0.06736
4205.99015,0.06853
4207.91861,0.06990
4209.84708,0.06809
4211.77555,0.06436
4213.70402,0.06113
4215.63249,0.06217
4217.56096,0.06872
4219.48943,0.07468
4221.41789,0.07358
4223.34636,0.06607
4225.27483,0.05984
4227.20330,0.06037
4229.13177,0.06358
4231.06024,0.06451
4232.98871,0.06495
4234.91718,0.06796
4236.84564,0.07061
4238.77411,0.06920
4240.70258,0.06704
4242.63105,0.06809
4244.55952,0.06981
4246.48799,0.06730
4248.41646,0.06264
4250.34492,0.06053
4252.27339,0.06032
4254.20186,0.06066
4256.13033,0.06131
4258.05880,0.06015
4259.98727,0.05675
4261.91574,0.05559
4263.84421,0.05610
4265.77267,0.05420
4267.70114,0.05124
4269.62961,0.04873
4271.55808,0.04679
4273.48655,0.04787
4275.41502,0.05175
4277.34349,0.05263
4279.27195,0.05161
4281.20042,0.05241
4283.12889,0.05120
4285.05736,0.05018
4286.98583,0.05350
4288.91430,0.05584
4290.84277,0.05380
4292.77124,0.05143
4294.69970,0.05078
4296.62817,0.04768
4298.55664,0.04249
4300.48511,0.04364
4302.41358,0.04857
4304.34205,0.04879
4306.27052,0.04717
4308.19898,0.04583
4310.12745,0.04498
4312.05592,0.04514
4313.98439,0.04407
4315.91286,0.04371
4317.84133,0.04543
4319.76980,0.04611
4321.69827,0.04347
4323.62673,0.04120
4325.55520,0.04298
4327.48367,0.04458
4329.41214,0.04446
4331.34061,0.04562
4333.26908,0.04511
4335.19755,0.04137
4337.12601,0.03901
4339.05448,0.04129
4340.98295,0.04771
4342.91142,0.04998
4344.83989,0.04059
4346.76836,0.02724
4348.69683,0.01930
4350.62530,0.01763
4352.55376,0.02278
4354.48223,0.03433
4356.41070,0.04645
4358.33917,0.04896
4360.26764,0.03949
4362.19611,0.02901
4364.12458,0.02345
4366.05304,0.02110
4367.98151,0.02323
4369.90998,0.02993
4371.83845,0.03946
4373.76692,0.04692
4375.69539,0.04552
4377.62386,0.03777
4379.55232,0.03130
4381.48079,0.02839
4383.40926,0.02976
4385.33773,0.03327
4387.26620,0.03500
4389.19467,0.03532
4391.12314,0.03503
4393.05161,0.03312
4394.98007,0.02781
4396.90854,0.02153
4398.83701,0.02103
4400.76548,0.02630
4402.69395,0.03037
4404.62242,0.03031
4406.55089,0.02764
4408.47935,0.02403
4410.40782,0.02009
4412.33629,0.01509
4414.26476,0.01442
4416.19323,0.02195
4418.12170,0.02904
4420.05017,0.02885
4421.97864,0.02565
4423.90710,0.02754
4425.83557,0.03146
4427.76404,0.02806
4429.69251,0.02337
4431.62098,0.02600
4433.54945,0.02921
4435.47792,0.02802
4437.40638,0.02629
4439.33485,0.02492
4441.26332,0.02203
4443.19179,0.01966
4445.12026,0.02055
4447.04873,0.02380
4448.97720,0.02936
4450.90567,0.03173
4452.83413,0.02465
4454.76260,0.01595
4456.69107,0.01480
4458.61954,0.01995
4460.54801,0.02256
4462.47648,0.01929
4464.40495,0.01618
4466.33341,0.01571
4468.26188,0.01486
4470.19035,0.01327
4472.11882,0.01269
4474.04729,0.00982
4475.97576,0.00391
4477.90423,-0.00048
4479.83270,0.00053
4481.76116,0.00797
4483.68963,0.01402
4485.61810,0.01247
4487.54657,0.00882
4489.47504,0.00694
4491.40351,0.00414
4493.33198,0.00235
4495.26044,0.00660
4497.18891,0.01396
4499.11738,0.01730
4501.04585,0.01661
4502.97432,0.01736
4504.90279,0.01994
4506.83126,0.02311
4508.75973,0.02650
4510.68819,0.02546
4512.61666,0.02204
4514.54513,0.02168
4516.47360,0.01705
4518.40207,0.00670
4520.33054,0.00220
4522.25901,0.00492
4524.18747,0.00738
4526.11594,0.00428
4528.04441,-0.00405
4529.97288,-0.01167
4531.90135,-0.01739
4533.82982,-0.01998
4535.75829,-0.01380
4537.68676,-0.00325
4539.61522,0.00397
4541.54369,0.00849
4543.47216,0.01040
4545.40063,0.00959
4547.32910,0.00681
4549.25757,0.00276
4551.18604,0.00389
4553.11450,0.00867
4555.04297,0.00668
4556.97144,0.00556
4558.89991,0.01192
4560.82838,0.01198
4562.75685,0.00314
4564.68532,-0.00487
4566.61378,-0.00850
4568.54225,-0.00683
4570.47072,-0.00124
4572.39919,0.00240
4574.32766,0.00282
4576.25613,0.00329
4578.18460,0.00217
4580.11307,-0.00162
4582.04153,-0.00646
4583.97000,-0.01217
4585.89847,-0.01474
4587.82694,-0.01120
4589.75541,-0.00585
4591.68388,-0.00173
4593.61235,0.00416
4595.54081,0.01398
4597.46928,0.01949
4599.39775,0.01501
4601.32622,0.00770
4603.25469,0.00131
4605.18316,0.00061
4607.11163,0.00563
4609.04010,0.00516
4610.96856,0.00178
4612.89703,0.00657
4614.82550,0.01495
4616.75397,0.01365
4618.68244,0.00400
4620.61091,-0.00448
4622.53938,-0.00674
4624.46784,-0.00076
4626.39631,0.00804
4628.32478,0.01261
4630.25325,0.00766
4632.18172,-0.00059
4634.11019,0.00009
4636.03866,0.00241
4637.96713,0.00138
4639.89559,0.00470
4641.82406,0.00875
4643.75253,0.00598
4645.68100,-0.00162
4647.60947,-0.00702
4649.53794,-0.00459
4651.46641,0.00329
4653.39487,0.00980
4655.32334,0.00829
4657.25181,-0.00027
4659.18028,-0.00321
4661.10875,0.00380
4663.03722,0.01226
4664.96569,0.01583
4666.89416,0.01377
4668.82262,0.01016
4670.75109,0.00777
4672.67956,0.00443
4674.60803,0.00071
4676.53650,0.00228
4678.46497,0.00730
4680.39344,0.00584
4682.32190,0.00033
4684.25037,0.00141
4686.17884,0.00614
4688.10731,0.01017
4690.03578,0.01606
4691.96425,0.01729
4693.89272,0.01094
4695.82119,0.00825
4697.74965,0.00981
4699.67812,0.00391
4701.60659,-0.00871
4703.53506,-0.01623
4705.46353,-0.01764
4707.39200,-0.01534
4709.32047,-0.00257
4711.24893,0.01265
4713.17740,0.01324
4715.10587,0.00424
4717.03434,-0.00038
4718.96281,0.00189
4720.89128,0.00548
4722.81975,0.00771
4724.74821,0.00982
4726.67668,0.01115
4728.60515,0.00851
4730.53362,0.00269
4732.46209,-0.00345
4734.39056,-0.00870
4736.31903,-0.00598
4738.24750,0.00687
4740.17596,0.01819
4742.10443,0.01974
4744.03290,0.01212
4745.96137,0.00215
4747.88984,-0.00027
4749.81831,0.00513
4751.74678,0.00651
4753.67524,-0.00252
4755.60371,-0.01175
4757.53218,-0.00980
4759.46065,-0.00066
4761.38912,0.00588
4763.31759,0.00352
4765.24606,-0.00537
4767.17453,-0.00469
4769.10299,0.00715
4771.03146,0.01026
4772.95993,0.00129
4774.88840,-0.00622
4776.81687,-0.00617
4778.74534,0.00174
4780.67381,0.01020
4782.60227,0.01139
4784.53074,0.01420
4786.45921,0.01659
4788.38768,0.01147
4790.31615,0.00980
4792.24462,0.00736
4794.17309,-0.00007
4796.10156,-0.00094
4798.03002,-0.00090
4799.95849,-0.00343
4801.88696,0.00101
4803.81543,0.01066
4805.74390,0.01884
4807.67237,0.02070
4809.60084,0.01531
4811.52930,0.01029
4813.45777,0.00742
4815.38624,0.00526
4817.31471,0.00316
4819.24318,0.00214
4821.17165,0.00360
4823.10012,0.00219
4825.02859,0.00141
4826.95705,0.00473
4828.88552,0.00709
4830.81399,0.01085
4832.74246,0.01689
4834.67093,0.02280
4836.59940,0.02671
4838.52787,0.02342
4840.45633,0.01046
4842.38480,-0.00218
4844.31327,-0.00555
4846.24174,-0.00766
4848.17021,-0.00771
4850.09868,0.00141
4852.02715,0.00666
4853.95562,0.00622
4855.88408,0.00869
4857.81255,0.00570
4859.74102,-0.00247
4861.66949,-0.00561
4863.59796,-0.00246
4865.52643,0.00248
4867.45490,0.00630
4869.38336,0.01401
4871.31183,0.02186
4873.24030,0.02284
4875.16877,0.02290
4877.09724,0.02306
4879.02571,0.01704
4880.95418,0.00470
4882.88265,-0.00341
4884.81111,-0.00294
4886.73958,-0.00418
4888.66805,-0.00651
4890.59652,-0.00351
4892.52499,-0.00130
4894.45346,0.00019
4896.38193,0.00712
4898.31039,0.01169
4900.23886,0.00760
4902.16733,0.00150
4904.09580,0.00067
4906.02427,0.00474
4907.95274,0.00496
4909.88121,-0.00048
4911.80967,-0.00665
4913.73814,-0.00623
4915.66661,0.00681
4917.59508,0.01862
4919.52355,0.01587
4921.45202,0.00641
4923.38049,-0.00373
4925.30896,-0.00981
4927.23742,-0.00467
4929.16589,0.00558
4931.09436,0.01000
4933.02283,0.00826
4934.95130,0.00804
4936.87977,0.01200
4938.80824,0.02012
4940.73670,0.02666
4942.66517,0.02196
4944.59364,0.01695
4946.52211,0.01901
4948.45058,0.01533
4950.37905,0.00963
4952.30752,0.01238
4954.23599,0.01451
4956.16445,0.00995
4958.09292,0.00566
4960.02139,0.00513
4961.94986,0.00605
4963.87833,0.00316
4965.80680,-0.00473
4967.73527,-0.00865
4969.66373,-0.00393
4971.59220,-0.00135
4973.52067,-0.01079
4975.44914,-0.02534
4977.37761,-0.02780
4979.30608,-0.01271
4981.23455,0.00944
4983.16302,0.03052
4985.09148,0.03628
4987.01995,0.01660
4988.94842,-0.00379
4990.87689,-0.00300
4992.80536,0.00885
4994.73383,0.01766
4996.66230,0.01705
4998.59076,0.01090
5000.51923,0.01231
5002.44770,0.02683
5004.37617,0.03926
5006.30464,0.03002
5008.23311,0.00852
5010.16158,-0.00464
5012.09005,-0.01145
5014.01851,-0.01453
5015.94698,-0.00763
5017.87545,0.00360
5019.80392,0.01233
5021.73239,0.01332
5023.66086,0.00494
5025.58933,-0.00220
5027.51779,-0.00325
5029.44626,-0.00413
5031.37473,-0.00792
5033.30320,-0.01188
5035.23167,-0.01208
5037.16014,-0.00659
5039.08861,0.00492
5041.01708,0.01416
5042.94554,0.00956
5044.87401,-0.00229
5046.80248,-0.00168
5048.73095,0.00762
5050.65942,0.00547
5052.58789,-0.00392
5054.51636,-0.00241
5056.44482,0.01161
5058.37329,0.02026
5060.30176,0.01678
5062.23023,0.01690
5064.15870,0.01832
5066.08717,0.00996
5068.01564,0.00753
5069.94410,0.02056
5071.87257,0.03208
5073.80104,0.03326
5075.72951,0.02783
5077.65798,0.01931
5079.58645,0.01742
5081.51492,0.01564
5083.44339,-0.00226
5085.37185,-0.01783
5087.30032,-0.00745
5089.22879,0.01125
5091.15726,0.01592
5093.08573,0.01655
5095.01420,0.02926
5096.94267,0.04383
5098.87113,0.03855
5100.79960,0.02312
5102.72807,0.02037
5104.65654,0.02842
5106.58501,0.03316
5108.51348,0.02839
5110.44195,0.02288
5112.37042,0.01965
5114.29888,0.01250
5116.22735,0.00663
5118.15582,0.00645
5120.08429,0.00764
5122.01276,0.01153
5123.94123,0.02478
5125.86970,0.03504
5127.79816,0.02350
5129.72663,0.00362
5131.65510,-0.00588
5133.58357,-0.01022
5135.51204,-0.01105
5137.44051,0.00399
5139.36898,0.01965
5141.29745,0.00235
5143.22591,-0.02897
5145.15438,-0.03222
5147.08285,-0.01255
5149.01132,0.00875
5150.93979,0.02671
5152.86826,0.03877
5154.79673,0.04327
5156.72519,0.03975
5158.65366,0.02854
5160.58213,0.01569
5162.51060,0.01899
5164.43907,0.04565
5166.36754,0.06337
5168.29601,0.05006
5170.22448,0.02510
5172.15294,0.01421
5174.08141,0.01975
5176.00988,0.02626
5177.93835,0.02539
5179.86682,0.02009
5181.79529,0.02019
5183.72376,0.02840
5185.65222,0.03002
5187.58069,0.02209
5189.50916,0.01666
5191.43763,0.01990
5193.36610,0.02396
5195.29457,0.02162
5197.22304,0.02199
5199.15151,0.02875
5201.07997,0.03806
5203.00844,0.04480
5204.93691,0.04561
5206.86538,0.04688
5208.79385,0.04518
5210.72232,0.03645
5212.65079,0.03011
5214.57925,0.03051
5216.50772,0.03338
5218.43619,0.03330
5220.36466,0.03101
5222.29313,0.03144
5224.22160,0.03333
5226.15007,0.03765
5228.07854,0.04912
5230.00700,0.05649
5231.93547,0.04781
5233.86394,0.03517
5235.79241,0.03812
5237.72088,0.04561
5239.64935,0.03933
5241.57782,0.02996
5243.50628,0.02263
5245.43475,0.02080
5247.36322,0.03306
5249.29169,0.04086
5251.22016,0.03434
5253.14863,0.02499
5255.07710,0.02202
5257.00556,0.02457
5258.93403,0.02148
5260.86250,0.02236
5262.79097,0.04116
5264.71944,0.05876
5266.64791,0.04770
5268.57638,0.02056
5270.50485,0.01280
5272.43331,0.02821
5274.36178,0.03997
5276.29025,0.03957
5278.21872,0.04226
5280.14719,0.05428
5282.07566,0.05652
5284.00413,0.04111
5285.93259,0.03088
5287.86106,0.03930
5289.78953,0.05729
5291.71800,0.07015
5293.64647,0.06577
5295.57494,0.05642
5297.50341,0.05942
5299.43188,0.06959
5301.36034,0.06855
5303.28881,0.04436
5305.21728,0.02248
5307.14575,0.03514
5309.07422,0.06019
5311.00269,0.06441
5312.93116,0.05262
5314.85962,0.03946
5316.78809,0.03605
5318.71656,0.04567
5320.64503,0.06181
5322.57350,0.07159
5324.50197,0.06173
5326.43044,0.03783
5328.35891,0.02675
5330.28737,0.03331
5332.21584,0.03751
5334.14431,0.03656
5336.07278,0.03383
5338.00125,0.02608
5339.92972,0.03041
5341.85819,0.05555
5343.78665,0.08004
5345.71512,0.07817
5347.64359,0.05300
5349.57206,0.03657
5351.50053,0.04462
5353.42900,0.05607
5355.35747,0.05357
5357.28594,0.04646
5359.21440,0.04119
5361.14287,0.04097
5363.07134,0.04234
5364.99981,0.03941
5366.92828,0.04084
5368.85675,0.05137
5370.78522,0.05972
5372.71368,0.05815
5374.64215,0.05259
5376.57062,0.04678
5378.49909,0.03796
5380.42756,0.03736
5382.35603,0.04862
5384.28450,0.05416
5386.21297,0.05244
5388.14143,0.06417
5390.06990,0.08395
5391.99837,0.08885
5393.92684,0.06731
5395.85531,0.04281
5397.78378,0.04026
5399.71225,0.04998
5401.64071,0.06556
5403.56918,0.08191
5405.49765,0.08257
5407.42612,0.07632
5409.35459,0.07644
5411.28306,0.07185
5413.21153,0.05877
5415.13999,0.04456
5417.06846,0.04045
5418.99693,0.05086
5420.92540,0.05589
5422.85387,0.04905
5424.78234,0.05182
5426.71081,0.06115
5428.63928,0.05748
5430.56774,0.05019
5432.49621,0.05021
5434.42468,0.05237
5436.35315,0.06461
5438.28162,0.08228
5440.21009,0.07903
5442.13856,0.05409
5444.06702,0.04609
5445.99549,0.07553
5447.92396,0.10929
5449.85243,0.10722
5451.78090,0.08363
5453.70937,0.06242
5455.63784,0.04182
5457.56631,0.03547
5459.49477,0.06172
5461.42324,0.10138
5463.35171,0.12528
5465.28018,0.12671
5467.20865,0.10935
5469.13712,0.08503
5471.06559,0.08213
5472.99405,0.10401
5474.92252,0.12358
5476.85099,0.11681
5478.77946,0.09771
5480.70793,0.08794
5482.63640,0.07421
5484.56487,0.04785
5486.49334,0.03191
5488.42180,0.03607
5490.35027,0.04815
5492.27874,0.06421
5494.20721,0.06896
5496.13568,0.04921
5498.06415,0.03001
5499.99262,0.02320
5501.92108,0.01287
5503.84955,0.00514
5505.77802,0.02436
5507.70649,0.06166
5509.63496,0.07611
5511.56343,0.07643
5513.49190,0.08845
5515.42037,0.08638
5517.34883,0.05507
5519.27730,0.02533
5521.20577,0.02828
5523.13424,0.05784
5525.06271,0.07666
5526.99118,0.07536
5528.91965,0.06597
5530.84811,0.05219
5532.77658,0.04868
5534.70505,0.05493
5536.63352,0.05881
5538.56199,0.06370
5540.49046,0.06206
5542.41893,0.04933
5544.34740,0.04900
5546.27586,0.06749
5548.20433,0.07794
5550.13280,0.06466
5552.06127,0.04850
5553.98974,0.05287
5555.91821,0.06655
5557.84668,0.07445
5559.77514,0.07724
5561.70361,0.06738
5563.63208,0.05111
5565.56055,0.05612
5567.48902,0.07962
5569.41749,0.09833
5571.34596,0.10466
5573.27443,0.09575
5575.20289,0.08013
5577.13136,0.06902
5579.05983,0.06576
5580.98830,0.06830
5582.91677,0.06817
5584.84524,0.06534
5586.77371,0.06196
5588.70217,0.05907
5590.63064,0.05568
5592.55911,0.05009
5594.48758,0.04615
5596.41605,0.05216
5598.34452,0.06639
5600.27299,0.07306
5602.20145,0.07402
5604.12992,0.07835
5606.05839,0.07974
5607.98686,0.08015
5609.91533,0.08994
5611.84380,0.10750
5613.77227,0.12395
5615.70074,0.10449
5617.62920,0.03824
5619.55767,0.00724
5621.48614,0.04556
5623.41461,0.08495
5625.34308,0.09849
5627.27155,0.09823
5629.20002,0.07825
5631.12848,0.04602
5633.05695,0.02156
5634.98542,0.02466
5636.91389,0.06194
5638.84236,0.10035
5640.77083,0.10618
5642.69930,0.08809
5644.62777,0.07940
5646.55623,0.08957
5648.48470,0.09491
5650.41317,0.08676
5652.34164,0.07923
5654.27011,0.08573
5656.19858,0.09693
5658.12705,0.09493
5660.05551,0.08074
5661.98398,0.06663
5663.91245,0.06076
5665.84092,0.06370
5667.76939,0.06786
5669.69786,0.06385
5671.62633,0.05585
5673.55480,0.05040
5675.48326,0.05687
5677.41173,0.08466
5679.34020,0.10830
5681.26867,0.10352
5683.19714,0.08760
5685.12561,0.07377
5687.05408,0.05945
5688.98254,0.05635
5690.91101,0.06378
5692.83948,0.06488
5694.76795,0.06116
5696.69642,0.06700
5698.62489,0.07389
5700.55336,0.07468
5702.48183,0.09381
5704.41029,0.11127
5706.33876,0.09136
5708.26723,0.06543
5710.19570,0.07008
5712.12417,0.09639
5714.05264,0.12324
5715.98111,0.11874
5717.90957,0.06349
5719.83804,0.01700
5721.76651,0.03100
5723.69498,0.05656
5725.62345,0.05508
5727.55192,0.05092
5729.48039,0.05930
5731.40886,0.07704
5733.33732,0.09302
5735.26579,0.09957
5737.19426,0.11671
5739.12273,0.12836
5741.05120,0.09172
5742.97967,0.04672
5744.90814,0.05330
5746.83660,0.07527
5748.76507,0.06501
5750.69354,0.04981
5752.62201,0.04488
5754.55048,0.04262
5756.47895,0.05157
5758.40742,0.06327
5760.33588,0.07877
5762.26435,0.11330
5764.19282,0.14025
5766.12129,0.12051
5768.04976,0.07237
5769.97823,0.04469
5771.90670,0.06615
5773.83517,0.09891
5775.76363,0.10093
5777.69210,0.10175
5779.62057,0.11256
5781.54904,0.10514
5783.47751,0.07911
5785.40598,0.06413
5787.33445,0.09450
5789.26291,0.13537
5791.19138,0.13088
5793.11985,0.09736
5795.04832,0.06993
5796.97679,0.06301
5798.90526,0.06768
5800.83373,0.08618
5802.76220,0.10637
5804.69066,0.08514
5806.61913,0.05778
5808.54760,0.06794
5810.47607,0.08551
5812.40454,0.09857
5814.33301,0.11109
5816.26148,0.10121
5818.18994,0.07654
5820.11841,0.08670
5822.04688,0.10653
5823.97535,0.09071
5825.90382,0.07626
5827.83229,0.07249
5829.76076,0.06513
5831.68923,0.07123
5833.61769,0.09790
5835.54616,0.12789
5837.47463,0.13915
5839.40310,0.12451
5841.33157,0.08911
5843.26004,0.05578
5845.18851,0.04800
5847.11697,0.06641
5849.04544,0.09443
5850.97391,0.09764
5852.90238,0.08192
5854.83085,0.07687
5856.75932,0.07927
5858.68779,0.08015
5860.61626,0.07814
5862.54472,0.08442
5864.47319,0.11297
5866.40166,0.14370
5868.33013,0.13781
5870.25860,0.09829
5872.18707,0.06712
5874.11554,0.06952
5876.04400,0.10646
5877.97247,0.14153
5879.90094,0.13465
5881.82941,0.11229
5883.75788,0.10537
5885.68635,0.08585
5887.61482,0.03763
5889.54329,-0.00391
5891.47175,-0.01093
5893.40022,0.00264
5895.32869,0.02251
5897.25716,0.06330
5899.18563,0.11340
5901.11410,0.12399
5903.04257,0.09315
5904.97103,0.07204
5906.89950,0.07209
5908.82797,0.06751
5910.75644,0.07012
5912.68491,0.09880
5914.61338,0.12887
5916.54185,0.13886
5918.47032,0.13196
5920.39878,0.12085
5922.32725,0.13227
5924.25572,0.15240
5926.18419,0.11662
5928.11266,0.03792
5930.04113,0.00201
5931.96960,0.03495
5933.89806,0.10131
5935.82653,0.13739
5937.75500,0.10465
5939.68347,0.05169
5941.61194,0.05002
5943.54041,0.08308
5945.46888,0.09144
5947.39734,0.08524
5949.32581,0.10284
5951.25428,0.14368
5953.18275,0.17698
5955.11122,0.16854
5957.03969,0.11948
5958.96816,0.08895
5960.89663,0.11879
5962.82509,0.16498
5964.75356,0.17718
5966.68203,0.16065
5968.61050,0.12911
5970.53897,0.08224
5972.46744,0.05332
5974.39591,0.07241
5976.32437,0.09641
5978.25284,0.07325
5980.18131,0.03209
5982.10978,0.02108
5984.03825,0.03282
5985.96672,0.04788
5987.89519,0.05517
5989.82366,0.05476
5991.75212,0.04783
5993.68059,0.04064
5995.60906,0.05199
5997.53753,0.06480
5999.46600,0.06675
6001.39447,0.07121
6003.32294,0.07172
6005.25140,0.06085
6007.17987,0.06196
6009.10834,0.08110
6011.03681,0.07886
6012.96528,0.05350
6014.89375,0.04811
6016.82222,0.07514
6018.75069,0.10225
6020.67915,0.09263
6022.60762,0.06134
6024.53609,0.04710
6026.46456,0.05642
6028.39303,0.07242
6030.32150,0.08590
6032.24997,0.09865
6034.17843,0.09696
6036.10690,0.08007
6038.03537,0.07734
6039.96384,0.08256
6041.89231,0.07502
6043.82078,0.06946
6045.74925,0.08303
6047.67772,0.10047
6049.60618,0.10091
6051.53465,0.10105
6053.46312,0.11544
6055.39159,0.12557
6057.32006,0.10968
6059.24853,0.06278
6061.17700,0.02925
6063.10546,0.06516
6065.03393,0.13480
6066.96240,0.15043
6068.89087,0.09725
6070.81934,0.04521
6072.74781,0.04200
6074.67628,0.06757
6076.60475,0.09470
6078.53321,0.12167
6080.46168,0.12598
6082.39015,0.08464
6084.31862,0.04901
6086.24709,0.05423
6088.17556,0.08092
6090.10403,0.11794
6092.03249,0.13061
6093.96096,0.10936
6095.88943,0.09015
6097.81790,0.07104
6099.74637,0.04169
6101.67484,0.02792
6103.60331,0.03518
6105.53177,0.03721
6107.46024,0.03809
6109.38871,0.05055
6111.31718,0.05297
6113.24565,0.05442
6115.17412,0.06775
6117.10259,0.05664
6119.03106,0.03379
6120.95952,0.04741
6122.88799,0.07384
6124.81646,0.09113
6126.74493,0.10916
6128.67340,0.11750
6130.60187,0.09195
6132.53034,0.05782
6134.45880,0.05685
6136.38727,0.08118
6138.31574,0.10297
6140.24421,0.10815
6142.17268,0.09129
6144.10115,0.05986
6146.02962,0.04311
6147.95809,0.04828
6149.88655,0.03588
6151.81502,0.01235
6153.74349,0.03129
6155.67196,0.05586
6157.60043,0.05945
6159.52890,0.09075
6161.45737,0.12030
6163.38583,0.09204
6165.31430,0.06206
6167.24277,0.08076
6169.17124,0.11261
6171.09971,0.11134
6173.02818,0.07200
6174.95665,0.05592
6176.88512,0.09192
6178.81358,0.11784
6180.74205,0.10454
6182.67052,0.09866
6184.59899,0.11399
6186.52746,0.10013
6188.45593,0.04990
6190.38440,0.03974
6192.31286,0.07664
6194.24133,0.08796
6196.16980,0.06240
6198.09827,0.04386
6200.02674,0.04133
6201.95521,0.04602
6203.88368,0.04610
6205.81215,0.03202
6207.74061,0.00822
6209.66908,-0.00292
6211.59755,0.02514
6213.52602,0.05429
6215.45449,0.05047
6217.38296,0.03667
6219.31143,0.04416
6221.23989,0.07462
6223.16836,0.08027
6225.09683,0.01959
6227.02530,-0.04554
6228.95377,-0.03834
6230.88224,0.00516
6232.81071,0.01903
6234.73918,0.02850
6236.66764,0.05617
6238.59611,0.05703
6240.52458,0.02916
6242.45305,0.04092
6244.38152,0.08867
6246.30999,0.10666
6248.23846,0.11478
6250.16692,0.11856
6252.09539,0.10580
6254.02386,0.12517
6255.95233,0.15649
6257.88080,0.15634
6259.80927,0.13774
6261.73774,0.13168
6263.66621,0.14524
6265.59467,0.12683
6267.52314,0.06416
6269.45161,0.03249
6271.38008,0.03852
6273.30855,0.03677
6275.23702,0.04336
6277.16549,0.07815
6279.09395,0.10910
6281.02242,0.13003
6282.95089,0.14111
6284.87936,0.12401
6286.80783,0.08473
6288.73630,0.04085
6290.66477,0.01554
6292.59323,0.02764
6294.52170,0.04424
6296.45017,0.05053
6298.37864,0.06389
6300.30711,0.08203
6302.23558,0.10555
6304.16405,0.13766
6306.09252,0.15898
6308.02098,0.13592
6309.94945,0.10861
6311.87792,0.12708
6313.80639,0.12328
6315.73486,0.07023
6317.66333,0.05775
6319.59180,0.09717
6321.52026,0.10480
6323.44873,0.08718
6325.37720,0.08852
6327.30567,0.08538
6329.23414,0.03981
6331.16261,-0.00768
6333.09108,0.00715
6335.01955,0.04083
6336.94801,0.05688
6338.87648,0.05441
6340.80495,0.03143
6342.73342,0.01170
6344.66189,-0.00399
6346.59036,-0.01288
6348.51883,-0.00495
6350.44729,0.01992
6352.37576,0.04890
6354.30423,0.06453
6356.23270,0.06322
6358.16117,0.04335
6360.08964,0.05097
6362.01811,0.10087
6363.94658,0.11974
6365.87504,0.09647
6367.80351,0.09907
6369.73198,0.13290
6371.66045,0.15106
6373.58892,0.15288
6375.51739,0.15422
6377.44586,0.12609
6379.37432,0.06540
6381.30279,0.01404
6383.23126,0.01551
6385.15973,0.05623
6387.08820,0.06757
6389.01667,0.06453
6390.94514,0.09405
6392.87361,0.11957
6394.80207,0.10820
6396.73054,0.10903
6398.65901,0.12665
6400.58748,0.11595
6402.51595,0.07240
6404.44442,0.03875
6406.37289,0.03924
6408.30135,0.04601
6410.22982,0.00563
6412.15829,-0.04985
6414.08676,-0.03537
6416.01523,0.00918
6417.94370,0.00812
6419.87217,0.00222
6421.80064,0.04136
6423.72910,0.09040
6425.65757,0.11911
6427.58604,0.12825
6429.51451,0.10026
6431.44298,0.02720
6433.37145,-0.02570
6435.29992,-0.01458
6437.22838,0.01818
6439.15685,0.02556
6441.08532,0.02293
6443.01379,0.02387
6444.94226,0.01423
6446.87073,-0.00095
6448.79920,0.01073
6450.72766,0.05649
6452.65613,0.09273
6454.58460,0.11776
6456.51307,0.14041
6458.44154,0.11597
6460.37001,0.05982
6462.29848,0.03600
6464.22695,0.07800
6466.15541,0.15036
6468.08388,0.16656
6470.01235,0.11209
6471.94082,0.05199
6473.86929,0.04655
6475.79776,0.08549
6477.72623,0.09236
6479.65469,0.05653
6481.58316,0.01719
6483.51163,0.01144
6485.44010,0.05663
6487.36857,0.09504
6489.29704,0.07610
6491.22551,0.03016
6493.15398,0.00445
6495.08244,0.00946
6497.01091,0.02832
6498.93938,0.08005
6500.86785,0.15933
6502.79632,0.15312
6504.72479,0.07541
6506.65326,0.04329
6508.58172,0.06336
6510.51019,0.11008
6512.43866,0.16545
6514.36713,0.16176
6516.29560,0.08292
6518.22407,0.00123
6520.15254,-0.03800
6522.08101,-0.04040
6524.00947,-0.03367
6525.93794,-0.02936
6527.86641,-0.00117
6529.79488,0.03288
6531.72335,0.04684
6533.65182,0.02999
6535.58029,-0.00352
6537.50875,0.00636
6539.43722,0.05417
6541.36569,0.06192
6543.29416,0.04547
6545.22263,0.06529
6547.15110,0.08973
6549.07957,0.11900
6551.00804,0.17205
6552.93650,0.17265
6554.86497,0.09153
6556.79344,0.03369
6558.72191,0.04913
6560.65038,0.08138
6562.57885,0.12531
6564.50732,0.15889
6566.43578,0.11214
6568.36425,0.05570
6570.29272,0.05341
6572.22119,0.03306
6574.14966,-0.00821
6576.07813,0.00715
6578.00660,0.05597
6579.93507,0.08041
6581.86353,0.07090
6583.79200,0.04273
6585.72047,0.06361
6587.64894,0.11205
6589.57741,0.08211
6591.50588,0.00063
6593.43435,-0.01570
6595.36281,0.05108
6597.29128,0.11163
6599.21975,0.09571
6601.14822,0.01772
6603.07669,0.02561
6605.00516,0.11522
6606.93363,0.12871
6608.86210,0.06817
6610.79056,0.03419
6612.71903,0.03750
6614.64750,0.07942
6616.57597,0.15976
6618.50444,0.18874
6620.43291,0.11123
6622.36138,0.00330
6624.28984,-0.03840
6626.21831,-0.01091
6628.14678,0.02337
6630.07525,0.03070
6632.00372,0.03759
6633.93219,0.05303
6635.86066,0.05865
6637.78912,0.04280
6639.71759,0.01384
6641.64606,0.02192
6643.57453,0.08673
6645.50300,0.12712
6647.43147,0.09983
6649.35994,0.06902
6651.28841,0.05662
6653.21687,0.03234
6655.14534,0.00365
6657.07381,0.00464
6659.00228,0.05118
6660.93075,0.14498
6662.85922,0.22367
6664.78769,0.22793
6666.71615,0.14896
6668.64462,0.01873
6670.57309,-0.02886
6672.50156,0.04893
6674.43003,0.11566
6676.35850,0.09220
6678.28697,0.02841
6680.21544,0.04547
6682.14390,0.12511
6684.07237,0.12746
6686.00084,0.07721
6687.92931,0.05089
6689.85778,0.02982
6691.78625,0.03125
6693.71472,0.06319
6695.64318,0.09308
6697.57165,0.10184
6699.50012,0.09478
6701.42859,0.10139
6703.35706,0.11664
6705.28553,0.08321
6707.21400,0.02730
6709.14247,0.04422
6711.07093,0.12511
6712.99940,0.19275
6714.92787,0.21162
6716.85634,0.18785
6718.78481,0.12941
6720.71328,0.06971
6722.64175,0.05964
6724.57021,0.09154
6726.49868,0.10885
6728.42715,0.06336
6730.35562,0.00236
6732.28409,0.01939
6734.21256,0.06603
6736.14103,0.05943
6738.06950,0.05098
6739.99796,0.03994
6741.92643,-0.01622
6743.85490,-0.01060
6745.78337,0.06223
6747.71184,0.11556
6749.64031,0.14208
6751.56878,0.14506
6753.49724,0.14925
6755.42571,0.17521
6757.35418,0.17989
6759.28265,0.12165
6761.21112,0.01726
6763.13959,-0.02264
6765.06806,0.03825
6766.99653,0.08939
6768.92499,0.06614
6770.85346,0.04533
6772.78193,0.08200
6774.71040,0.12827
6776.63887,0.13192
6778.56734,0.11444
6780.49581,0.09555
6782.42427,0.07703
6784.35274,0.05308
6786.28121,0.04140
6788.20968,0.08275
6790.13815,0.11998
6792.06662,0.07864
6793.99509,0.03381
6795.92355,0.05227
6797.85202,0.07350
6799.78049,0.05945
6801.70896,0.04235
6803.63743,0.03746
6805.56590,0.07362
6807.49437,0.14998
6809.42284,0.21736
6811.35130,0.25441
6813.27977,0.19316
6815.20824,0.02674
6817.13671,-0.05072
6819.06518,0.01245
6820.99365,0.06831
6822.92212,0.08459
6824.85058,0.10376
6826.77905,0.13835
6828.70752,0.16345
6830.63599,0.13340
6832.56446,0.08256
6834.49293,0.02310
6836.42140,-0.06786
6838.34987,-0.10801
6840.27833,-0.08349
6842.20680,-0.05881
6844.13527,-0.03217
6846.06374,-0.00474
6847.99221,-0.01242
6849.92068,-0.05433
6851.84915,-0.06588
6853.77761,-0.05364
6855.70608,-0.05912
6857.63455,-0.05765
6859.56302,-0.04198
6861.49149,-0.02199
6863.41996,0.03350
6865.34843,0.08767
6867.27690,0.06674
6869.20536,0.03639
6871.13383,0.06368
6873.06230,0.07702
6874.99077,0.04110
6876.91924,0.00249
6878.84771,-0.04061
6880.77618,-0.05673
6882.70464,0.00177
6884.63311,0.06617
6886.56158,0.09328
6888.49005,0.09614
6890.41852,0.07737
6892.34699,0.07042
6894.27546,0.06769
6896.20393,0.03823
6898.13239,0.00368
6900.06086,-0.03912
6901.98933,-0.07390
6903.91780,-0.04779
6905.84627,0.00489
6907.77474,0.01310
6909.70321,0.00887
6911.63167,0.07861
6913.56014,0.21478
6915.48861,0.28382
6917.41708,0.26390
6919.34555,0.20339
6921.27402,0.15394
6923.20249,0.18648
6925.13096,0.22448
6927.05942,0.15811
6928.98789,0.04724
6930.91636,0.02022
6932.84483,0.05023
6934.77330,0.03828
6936.70177,0.00733
6938.63024,0.04249
6940.55870,0.12491
6942.48717,0.08460
6944.41564,-0.01409
6946.34411,-0.04450
6948.27258,-0.06398
6950.20105,-0.08766
6952.12952,-0.09181
6954.05799,-0.09307
6955.98645,-0.03017
6957.91492,0.06858
6959.84339,0.11275
6961.77186,0.10822
6963.70033,0.09550
6965.62880,0.12009
6967.55727,0.14815
6969.48573,0.11009
6971.41420,0.06897
6973.34267,0.06028
6975.27114,-0.01387
6977.19961,-0.07073
6979.12808,0.01311
6981.05655,0.12500
6982.98501,0.17051
6984.91348,0.17579
6986.84195,0.15858
6988.77042,0.13137
6990.69889,0.09827
6992.62736,0.07933
6994.55583,0.06036
6996.48430,-0.00229
6998.41276,-0.05344
7000.34123,-0.02195
7002.26970,0.06286
7004.19817,0.10474
7006.12664,0.04818
7008.05511,-0.03559
7009.98358,-0.06302
7011.91204,-0.03320
7013.84051,-0.00111
7015.76898,0.01236
7017.69745,0.04644
7019.62592,0.05572
7021.55439,0.03934
7023.48286,0.07541
7025.41133,0.13555
7027.33979,0.17967
7029.26826,0.20058
7031.19673,0.11625
7033.12520,-0.05692
7035.05367,-0.18821
7036.98214,-0.18849
7038.91061,-0.07153
7040.83907,0.06719
7042.76754,0.09208
7044.69601,0.01718
7046.62448,-0.04212
7048.55295,-0.01213
7050.48142,0.05979
7052.40989,0.04120
7054.33836,0.01179
7056.26682,0.11853
7058.19529,0.18175
7060.12376,0.07152
7062.05223,-0.01685
7063.98070,-0.00791
7065.90917,0.01129
7067.83764,-0.00247
7069.76610,-0.03103
7071.69457,-0.04055
7073.62304,0.03190
7075.55151,0.13958
7077.47998,0.14568
7079.40845,0.00724
7081.33692,-0.11869
7083.26539,-0.02893
7085.19385,0.13737
7087.12232,0.22372
7089.05079,0.25436
7090.97926,0.27681
7092.90773,0.26181
7094.83620,0.20415
7096.76467,0.12331
7098.69313,0.02487
7100.62160,-0.02584
7102.55007,-0.01152
7104.47854,-0.01031
7106.40701,-0.01806
7108.33548,0.02504
7110.26395,0.09177
7112.19242,0.17897
7114.12088,0.23546
7116.04935,0.15203
7117.97782,-0.01182
7119.90629,-0.05957
7121.83476,-0.01595
7123.76323,0.01852
7125.69170,0.02203
7127.62016,0.03987
7129.54863,0.03840
7131.47710,-0.01714
7133.40557,-0.03085
7135.33404,0.03658
7137.26251,0.12534
7139.19098,0.16210
7141.11944,0.14559
7143.04791,0.13591
7144.97638,0.12179
7146.90485,0.09568
7148.83332,0.06129
7150.76179,0.03381
7152.69026,0.03419
7154.61873,0.01937
7156.54719,-0.00890
7158.47566,0.00135
7160.40413,0.01273
7162.33260,-0.01596
7164.26107,-0.02122
7166.18954,0.04888
7168.11801,0.15674
7170.04647,0.24646
7171.97494,0.25431
7173.90341,0.22911
7175.83188,0.26761
7177.76035,0.34157
7179.68882,0.36693
7181.61729,0.27549
7183.54576,0.13223
7185.47422,0.10545
7187.40269,0.06580
7189.33116,-0.04525
7191.25963,-0.07924
7193.18810,-0.08211
7195.11657,-0.13645
7197.04504,-0.10237
7198.97350,0.01276
7200.90197,0.08464
7202.83044,0.10428
7204.75891,0.11444
7206.68738,0.11693
7208.61585,-0.00362
7210.54432,-0.22784
7212.47279,-0.33606
7214.40125,-0.22690
7216.32972,-0.07169
7218.25819,-0.10489
7220.18666,-0.13971
7222.11513,-0.01979
7224.04360,0.08569
7225.97207,0.06373
7227.90053,-0.00335
7229.82900,-0.01358
7231.75747,0.05941
7233.68594,0.09450
7235.61441,0.02526
7237.54288,-0.07518
7239.47135,-0.11075
7241.39982,-0.05592
7243.32828,-0.00106
7245.25675,-0.01571
7247.18522,-0.05476
7249.11369,-0.04882
7251.04216,0.07205
7252.97063,0.22700
7254.89910,0.26756
7256.82756,0.23179
7258.75603,0.15808
7260.68450,0.03778
7262.61297,-0.11901
7264.54144,-0.22185
7266.46991,-0.23014
7268.39838,-0.18089
7270.32685,-0.02386
7272.25531,0.13938
7274.18378,0.10009
7276.11225,0.01321
7278.04072,0.01495
7279.96919,0.15371
7281.89766,0.27436
7283.82613,0.24078
7285.75459,0.17958
7287.68306,0.11497
7289.61153,0.01104
7291.54000,-0.00998
7293.46847,0.12055
7295.39694,0.25946
7297.32541,0.25797
7299.25387,0.15113
7301.18234,0.09236
7303.11081,0.14397
7305.03928,0.27044
7306.96775,0.40658
7308.89622,0.44455
7310.82469,0.34138
7312.75316,0.19700
7314.68162,0.08781
7316.61009,-0.00686
7318.53856,-0.11772
7320.46703,-0.13495
7322.39550,-0.03821
7324.32397,-0.01303
7326.25244,-0.00123
7328.18090,0.20805
7330.10937,0.31714
7332.03784,0.13725
7333.96631,0.02182
7335.89478,0.00124
7337.82325,0.02256
7339.75172,0.04160
7341.68019,-0.12534
7343.60865,-0.22480
7345.53712,-0.10370
7347.46559,-0.05137
7349.39406,-0.21170
7351.32253,-0.30095
7353.25100,-0.19977
7355.17947,-0.03718
7357.10793,0.15354
7359.03640,0.32697
7360.96487,0.28545
7362.89334,0.04031
7364.82181,-0.10528
7366.75028,-0.00622
7368.67875,0.14491
7370.60722,0.15897
7372.53568,0.10781
7374.46415,0.13494
7376.39262,0.18135
7378.32109,0.11139
7380.24956,0.06686
7382.17803,0.10655
7384.10650,0.10861
7386.03496,0.04517
7387.96343,0.02157
7389.89190,-0.01660
7391.82037,-0.11393
7393.74884,-0.12837
7395.67731,-0.04136
7397.60578,-0.00165
7399.53425,-0.05506
7401.46271,-0.10239
7403.39118,-0.05883
7405.31965,-0.00515
7407.24812,0.03032
7409.17659,0.05268
7411.10506,-0.02742
7413.03353,-0.12132
7414.96199,-0.09678
7416.89046,0.01272
7418.81893,0.08352
7420.74740,0.13214
7422.67587,0.20081
7424.60434,0.20131
7426.53281,0.17225
7428.46128,0.17411
7430.38974,0.10018
7432.31821,-0.04287
7434.24668,-0.03633
7436.17515,0.16335
7438.10362,0.37119
7440.03209,0.41869
7441.96056,0.31433
7443.88902,0.16156
7445.81749,0.08728
7447.74596,0.12434
7449.67443,0.14272
7451.60290,0.03250
7453.53137,-0.01462
7455.45984,0.06875
7457.38831,0.13250
7459.31677,0.17289
7461.24524,0.19516
7463.17371,0.15435
7465.10218,0.09975
7467.03065,0.03858
7468.95912,-0.00880
7470.88759,0.02730
7472.81605,0.07480
7474.74452,0.04326
7476.67299,0.01539
7478.60146,0.10647
7480.52993,0.28804
7482.45840,0.30896
7484.38687,0.11542
7486.31533,-0.09346
7488.24380,-0.16577
7490.17227,-0.10763
7492.10074,-0.06677
7494.02921,-0.02374
7495.95768,0.06525
7497.88615,0.10489
