399.19301,1.14824
401.12148,0.51955
403.04995,0.03672
404.97842,-0.16697
406.90689,-0.08366
408.83536,0.09545
410.76382,0.15157
412.69229,0.05147
414.62076,-0.01150
416.54923,0.05721
418.47770,0.21088
420.40617,0.28613
422.33464,0.26171
424.26311,0.23973
426.19157,0.23512
428.12004,0.23155
430.04851,0.24000
431.97698,0.18890
433.90545,0.03746
435.83392,-0.06520
437.76239,-0.05174
439.69085,-0.02119
441.61932,-0.05380
443.54779,-0.07566
445.47626,-0.02039
447.40473,0.05285
449.33320,0.11289
451.26167,0.14425
453.19013,0.12097
455.11860,0.10318
457.04707,0.13739
458.97554,0.15867
460.90401,0.16251
462.83248,0.17093
464.76095,0.15267
466.68942,0.12469
468.61788,0.11916
470.54635,0.12522
472.47482,0.15792
474.40329,0.23181
476.33176,0.21988
478.26023,0.16508
480.18870,0.16987
482.11716,0.20602
484.04563,0.21924
485.97410,0.23774
487.90257,0.22495
489.83104,0.14810
491.75951,0.07519
493.68798,0.07319
495.61645,0.11333
497.54491,0.11571
499.47338,0.09607
501.40185,0.10470
503.33032,0.12133
505.25879,0.10426
507.18726,0.06088
509.11573,0.03775
511.04419,0.05120
512.97266,0.06493
514.90113,0.05745
516.82960,0.05090
518.75807,0.05082
520.68654,0.06103
522.61501,0.08277
524.54348,0.09382
526.47194,0.09044
528.40041,0.09903
530.32888,0.11314
532.25735,0.09069
534.18582,0.04870
536.11429,0.04058
538.04276,0.07051
539.97122,0.10497
541.89969,0.12220
543.82816,0.11018
545.75663,0.07024
547.68510,0.04122
549.61357,0.04570
551.54204,0.06982
553.47051,0.08577
555.39897,0.07116
557.32744,0.05396
559.25591,0.05871
561.18438,0.06210
563.11285,0.05526
565.04132,0.05538
566.96979,0.06093
568.89825,0.05948
570.82672,0.06182
572.75519,0.07459
574.68366,0.08641
576.61213,0.08197
578.54060,0.07296
580.46907,0.08345
582.39754,0.09492
584.32600,0.08862
586.25447,0.08684
588.18294,0.09701
590.11141,0.09404
592.03988,0.08167
593.96835,0.08636
595.89682,0.09777
597.82528,0.10761
599.75375,0.11702
601.68222,0.11529
603.61069,0.10607
605.53916,0.09850
607.46763,0.08589
609.39610,0.06796
611.32456,0.05500
613.25303,0.04818
615.18150,0.05818
617.10997,0.08430
619.03844,0.09271
620.96691,0.08403
622.89538,0.07982
624.82385,0.07935
626.75231,0.08161
628.68078,0.08670
630.60925,0.09541
632.53772,0.10263
634.46619,0.09189
636.39466,0.07299
638.32313,0.07190
640.25159,0.08442
642.18006,0.09380
644.10853,0.09803
646.03700,0.09648
647.96547,0.09364
649.89394,0.09625
651.82241,0.10376
653.75088,0.11096
655.67934,0.10877
657.60781,0.09993
659.53628,0.09767
661.46475,0.10321
663.39322,0.10394
665.32169,0.09312
667.25016,0.07801
669.17862,0.08162
671.10709,0.09667
673.03556,0.10456
674.96403,0.11079
676.89250,0.11139
678.82097,0.09820
680.74944,0.08477
682.67791,0.07938
684.60637,0.07138
686.53484,0.06891
688.46331,0.08159
690.39178,0.09955
692.32025,0.11900
694.24872,0.12792
696.17719,0.11192
698.10565,0.09195
700.03412,0.09018
701.96259,0.09362
703.89106,0.09186
705.81953,0.09127
707.74800,0.09731
709.67647,0.11223
711.60494,0.12545
713.53340,0.12250
715.46187,0.11168
717.39034,0.10798
719.31881,0.10882
721.24728,0.10545
723.17575,0.09584
725.10422,0.09318
727.03268,0.10911
728.96115,0.12570
730.88962,0.12426
732.81809,0.11193
734.74656,0.10008
736.67503,0.09798
738.60350,0.10826
740.53197,0.11619
742.46043,0.11322
744.38890,0.10725
746.31737,0.10308
748.24584,0.10310
750.17431,0.10740
752.10278,0.10958
754.03125,0.10932
755.95971,0.11172
757.88818,0.11485
759.81665,0.11894
761.74512,0.12451
763.67359,0.12322
765.60206,0.11602
767.53053,0.10968
769.45900,0.10456
771.38746,0.10394
773.31593,0.10903
775.24440,0.11223
777.17287,0.10484
779.10134,0.09162
781.02981,0.08690
782.95828,0.09323
784.88674,0.10131
786.81521,0.10426
788.74368,0.10742
790.67215,0.11402
792.60062,0.11400
794.52909,0.10743
796.45756,0.10499
798.38602,0.10794
800.31449,0.10764
802.24296,0.09809
804.17143,0.09210
806.09990,0.10332
808.02837,0.12091
809.95684,0.12398
811.88531,0.11470
813.81377,0.10878
815.74224,0.10668
817.67071,0.10431
819.59918,0.10425
821.52765,0.11073
823.45612,0.12375
825.38459,0.12986
827.31305,0.12421
829.24152,0.12519
831.16999,0.13186
833.09846,0.12618
835.02693,0.11604
836.95540,0.11439
838.88387,0.11612
840.81234,0.12167
842.74080,0.13062
844.66927,0.13209
846.59774,0.13133
848.52621,0.13974
850.45468,0.14369
852.38315,0.13319
854.31162,0.12511
856.24008,0.12702
858.16855,0.12942
860.09702,0.13106
862.02549,0.13153
863.95396,0.12697
865.88243,0.11807
867.81090,0.10244
869.73937,0.08745
871.66783,0.09608
873.59630,0.12298
875.52477,0.13501
877.45324,0.13145
879.38171,0.13242
881.31018,0.13447
883.23865,0.13084
885.16711,0.12848
887.09558,0.12945
889.02405,0.12788
890.95252,0.12605
892.88099,0.13005
894.80946,0.13200
896.73793,0.12373
898.66640,0.11579
900.59486,0.11463
902.52333,0.11569
904.45180,0.12019
906.38027,0.12725
908.30874,0.13296
910.23721,0.13413
912.16568,0.12992
914.09414,0.12861
916.02261,0.13424
917.95108,0.13731
919.87955,0.12992
921.80802,0.11880
923.73649,0.11548
925.66496,0.11926
927.59343,0.12068
929.52189,0.11714
931.45036,0.11402
933.37883,0.11516
935.30730,0.12157
937.23577,0.12989
939.16424,0.13318
941.09271,0.13124
943.02117,0.13051
944.94964,0.13179
946.87811,0.13198
948.80658,0.13169
950.73505,0.13249
952.66352,0.13606
954.59199,0.14181
956.52045,0.14525
958.44892,0.14292
960.37739,0.13594
962.30586,0.12967
964.23433,0.12951
966.16280,0.13588
968.09127,0.14163
970.01974,0.14102
971.94820,0.13652
973.87667,0.13157
975.80514,0.12845
977.73361,0.12715
979.66208,0.12634
981.59055,0.12628
983.51902,0.12620
985.44748,0.13014
987.37595,0.13840
989.30442,0.14007
991.23289,0.13619
993.16136,0.13510
995.08983,0.13555
997.01830,0.13641
998.94677,0.13575
1000.87523,0.13142
1002.80370,0.12712
1004.73217,0.12702
1006.66064,0.13168
1008.58911,0.13749
1010.51758,0.14044
1012.44605,0.14010
1014.37451,0.13741
1016.30298,0.13446
1018.23145,0.13508
1020.15992,0.13708
1022.08839,0.13637
1024.01686,0.13936
1025.94533,0.14971
1027.87380,0.15810
1029.80226,0.15501
1031.73073,0.14319
1033.65920,0.13873
1035.58767,0.14479
1037.51614,0.14402
1039.44461,0.13380
1041.37308,0.12729
1043.30154,0.12630
1045.23001,0.12490
1047.15848,0.12325
1049.08695,0.12446
1051.01542,0.13071
1052.94389,0.14220
1054.87236,0.14976
1056.80083,0.14530
1058.72929,0.13636
1060.65776,0.13556
1062.58623,0.14621
1064.51470,0.15978
1066.44317,0.16430
1068.37164,0.16129
1070.30011,0.15797
1072.22857,0.15363
1074.15704,0.14746
1076.08551,0.14067
1078.01398,0.13863
1079.94245,0.14443
1081.87092,0.14821
1083.79939,0.14466
1085.72786,0.14181
1087.65632,0.14290
1089.58479,0.14419
1091.51326,0.14646
1093.44173,0.14775
1095.37020,0.14381
1097.29867,0.14103
1099.22714,0.14729
1101.15560,0.15732
1103.08407,0.16312
1105.01254,0.16595
1106.94101,0.16759
1108.86948,0.16600
1110.79795,0.16213
1112.72642,0.15833
1114.65489,0.15477
1116.58335,0.15488
1118.51182,0.15866
1120.44029,0.15939
1122.36876,0.15733
1124.29723,0.15258
1126.22570,0.14413
1128.15417,0.13807
1130.08263,0.13731
1132.01110,0.14101
1133.93957,0.14538
1135.86804,0.14499
1137.79651,0.14113
1139.72498,0.13784
1141.65345,0.13915
1143.58191,0.14530
1145.51038,0.15062
1147.43885,0.15358
1149.36732,0.15424
1151.29579,0.15254
1153.22426,0.15277
1155.15273,0.15675
1157.08120,0.16104
1159.00966,0.16156
1160.93813,0.15685
1162.86660,0.15104
1164.79507,0.15089
1166.72354,0.15380
1168.65201,0.15355
1170.58048,0.15275
1172.50894,0.15380
1174.43741,0.15399
1176.36588,0.15217
1178.29435,0.14954
1180.22282,0.14706
1182.15129,0.14810
1184.07976,0.15342
1186.00823,0.15727
1187.93669,0.15867
1189.86516,0.15914
1191.79363,0.15886
1193.72210,0.15861
1195.65057,0.15691
1197.57904,0.15559
1199.50751,0.15638
1201.43597,0.15639
1203.36444,0.15599
1205.29291,0.15673
1207.22138,0.15655
1209.14985,0.15448
1211.07832,0.15322
1213.00679,0.15558
1214.93526,0.16011
1216.86372,0.16246
1218.79219,0.16149
1220.72066,0.15777
1222.64913,0.15355
1224.57760,0.15368
1226.50607,0.15785
1228.43454,0.16108
1230.36300,0.15948
1232.29147,0.15352
1234.21994,0.14978
1236.14841,0.15208
1238.07688,0.15625
1240.00535,0.15900
1241.93382,0.16129
1243.86229,0.16295
1245.79075,0.16240
1247.71922,0.16121
1249.64769,0.16112
1251.57616,0.16059
1253.50463,0.16094
1255.43310,0.16310
1257.36157,0.16262
1259.29003,0.15888
1261.21850,0.15608
1263.14697,0.15468
1265.07544,0.15429
1267.00391,0.15711
1268.93238,0.16127
1270.86085,0.16266
1272.78932,0.16175
1274.71778,0.16048
1276.64625,0.16013
1278.57472,0.16162
1280.50319,0.16222
1282.43166,0.16186
1284.36013,0.16384
1286.28860,0.16387
1288.21706,0.16190
1290.14553,0.16513
1292.07400,0.16837
1294.00247,0.16471
1295.93094,0.15950
1297.85941,0.15659
1299.78788,0.15195
1301.71634,0.14232
1303.64481,0.13277
1305.57328,0.13444
1307.50175,0.14740
1309.43022,0.15836
1311.35869,0.16142
1313.28716,0.16200
1315.21563,0.16375
1317.14409,0.16487
1319.07256,0.16309
1321.00103,0.16070
1322.92950,0.16271
1324.85797,0.16592
1326.78644,0.16419
1328.71491,0.16110
1330.64337,0.16005
1332.57184,0.16042
1334.50031,0.16138
1336.42878,0.16093
1338.35725,0.16140
1340.28572,0.16056
1342.21419,0.15276
1344.14266,0.14479
1346.07112,0.14322
1347.99959,0.14893
1349.92806,0.15696
1351.85653,0.15989
1353.78500,0.15995
1355.71347,0.16120
1357.64194,0.16268
1359.57040,0.16469
1361.49887,0.16645
1363.42734,0.16588
1365.35581,0.16482
1367.28428,0.16578
1369.21275,0.16851
1371.14122,0.17249
1373.06969,0.17636
1374.99815,0.17666
1376.92662,0.17544
1378.85509,0.17525
1380.78356,0.17284
1382.71203,0.16989
1384.64050,0.17199
1386.56897,0.17538
1388.49743,0.17268
1390.42590,0.17049
1392.35437,0.17461
1394.28284,0.18057
1396.21131,0.18248
1398.13978,0.18091
1400.06825,0.17690
1401.99672,0.17154
1403.92518,0.16979
1405.85365,0.17394
1407.78212,0.17880
1409.71059,0.17977
1411.63906,0.17699
1413.56753,0.17436
1415.49600,0.17496
1417.42446,0.17879
1419.35293,0.18151
1421.28140,0.18012
1423.20987,0.17950
1425.13834,0.17863
1427.06681,0.17670
1428.99528,0.17667
1430.92375,0.17798
1432.85221,0.17994
1434.78068,0.18232
1436.70915,0.18048
1438.63762,0.17384
1440.56609,0.16891
1442.49456,0.16842
1444.42303,0.17194
1446.35149,0.17514
1448.27996,0.17593
1450.20843,0.17634
1452.13690,0.17880
1454.06537,0.18653
1455.99384,0.20033
1457.92231,0.20436
1459.85077,0.19348
1461.77924,0.18786
1463.70771,0.18807
1465.63618,0.18770
1467.56465,0.18513
1469.49312,0.18366
1471.42159,0.18406
1473.35006,0.18513
1475.27852,0.18407
1477.20699,0.18247
1479.13546,0.18282
1481.06393,0.18347
1482.99240,0.18277
1484.92087,0.18455
1486.84934,0.19223
1488.77780,0.20078
1490.70627,0.19805
1492.63474,0.19031
1494.56321,0.18910
1496.49168,0.19399
1498.42015,0.19424
1500.34862,0.18675
1502.27709,0.18352
1504.20555,0.18916
1506.13402,0.20080
1508.06249,0.20279
1509.99096,0.19472
1511.91943,0.19106
1513.84790,0.19369
1515.77637,0.19983
1517.70483,0.20434
1519.63330,0.20671
1521.56177,0.20590
1523.49024,0.19922
1525.41871,0.19533
1527.34718,0.19287
1529.27565,0.18958
1531.20412,0.19031
1533.13258,0.19594
1535.06105,0.20213
1536.98952,0.21044
1538.91799,0.22472
1540.84646,0.22956
1542.77493,0.21755
1544.70340,0.20311
1546.63186,0.19095
1548.56033,0.18824
1550.48880,0.19099
1552.41727,0.19305
1554.34574,0.19730
1556.27421,0.20681
1558.20268,0.21719
1560.13115,0.20646
1562.05961,0.19463
1563.98808,0.19033
1565.91655,0.18889
1567.84502,0.19217
1569.77349,0.19494
1571.70196,0.19212
1573.63043,0.19337
1575.55889,0.19936
1577.48736,0.19930
1579.41583,0.19441
1581.34430,0.19079
1583.27277,0.18762
1585.20124,0.18523
1587.12971,0.18525
1589.05818,0.18555
1590.98664,0.18467
1592.91511,0.18694
1594.84358,0.19116
1596.77205,0.19049
1598.70052,0.18823
1600.62899,0.18907
1602.55746,0.18980
1604.48592,0.18815
1606.41439,0.18601
1608.34286,0.18704
1610.27133,0.19104
1612.19980,0.19332
1614.12827,0.19563
1616.05674,0.20013
1617.98521,0.19806
1619.91367,0.19294
1621.84214,0.19417
1623.77061,0.19895
1625.69908,0.20039
1627.62755,0.19900
1629.55602,0.19693
1631.48449,0.19753
1633.41295,0.20447
1635.34142,0.21453
1637.26989,0.21083
1639.19836,0.20175
1641.12683,0.19845
1643.05530,0.20076
1644.98377,0.21014
1646.91223,0.22114
1648.84070,0.21808
1650.76917,0.21174
1652.69764,0.21187
1654.62611,0.21070
1656.55458,0.20510
1658.48305,0.20233
1660.41152,0.20174
1662.33998,0.20106
1664.26845,0.20022
1666.19692,0.20151
1668.12539,0.20740
1670.05386,0.21296
1671.98233,0.21020
1673.91080,0.20534
1675.83926,0.20129
1677.76773,0.19973
1679.69620,0.20286
1681.62467,0.20985
1683.55314,0.21579
1685.48161,0.21160
1687.41008,0.20625
1689.33855,0.20327
1691.26701,0.20040
1693.19548,0.20194
1695.12395,0.20807
1697.05242,0.21234
1698.98089,0.21371
1700.90936,0.21089
1702.83783,0.20793
1704.76629,0.20727
1706.69476,0.20279
1708.62323,0.19707
1710.55170,0.19523
1712.48017,0.19653
1714.40864,0.20048
1716.33711,0.20410
1718.26558,0.19954
1720.19404,0.19395
1722.12251,0.19336
1724.05098,0.19357
1725.97945,0.19162
1727.90792,0.19100
1729.83639,0.19428
1731.76486,0.19972
1733.69332,0.20373
1735.62179,0.20149
1737.55026,0.20006
1739.47873,0.20167
1741.40720,0.20173
1743.33567,0.19938
1745.26414,0.19737
1747.19261,0.19953
1749.12107,0.20436
1751.04954,0.20209
1752.97801,0.19493
1754.90648,0.19233
1756.83495,0.19379
1758.76342,0.19456
1760.69189,0.19458
1762.62035,0.19445
1764.54882,0.19382
1766.47729,0.19497
1768.40576,0.19867
1770.33423,0.20327
1772.26270,0.20226
1774.19117,0.19382
1776.11964,0.18991
1778.04810,0.19271
1779.97657,0.19577
1781.90504,0.19358
1783.83351,0.18903
1785.76198,0.18621
1787.69045,0.18730
1789.61892,0.19397
1791.54738,0.20193
1793.47585,0.20247
1795.40432,0.19786
1797.33279,0.19434
1799.26126,0.19382
1801.18973,0.19335
1803.11820,0.19013
1805.04666,0.18809
1806.97513,0.18905
1808.90360,0.19092
1810.83207,0.19095
1812.76054,0.18878
1814.68901,0.18683
1816.61748,0.18649
1818.54595,0.19154
1820.47441,0.19975
1822.40288,0.20048
1824.33135,0.19454
1826.25982,0.19180
1828.18829,0.19297
1830.11676,0.19333
1832.04523,0.19242
1833.97369,0.19310
1835.90216,0.19468
1837.83063,0.19383
1839.75910,0.19213
1841.68757,0.19524
1843.61604,0.20261
1845.54451,0.20451
1847.47298,0.19948
1849.40144,0.19368
1851.32991,0.18997
1853.25838,0.19007
1855.18685,0.19224
1857.11532,0.19258
1859.04379,0.19120
1860.97226,0.18987
1862.90072,0.18902
1864.82919,0.19060
1866.75766,0.19592
1868.68613,0.19984
1870.61460,0.19640
1872.54307,0.19138
1874.47154,0.18963
1876.40001,0.19041
1878.32847,0.19142
1880.25694,0.19180
1882.18541,0.19213
1884.11388,0.19099
1886.04235,0.18889
1887.97082,0.18954
1889.89929,0.19159
1891.82775,0.19083
1893.75622,0.18913
1895.68469,0.18860
1897.61316,0.18803
1899.54163,0.18815
1901.47010,0.18972
1903.39857,0.19084
1905.32704,0.19105
1907.25550,0.19227
1909.18397,0.19398
1911.11244,0.19373
1913.04091,0.19196
1914.96938,0.19121
1916.89785,0.19307
1918.82632,0.19592
1920.75478,0.19707
1922.68325,0.19610
1924.61172,0.19373
1926.54019,0.19230
1928.46866,0.19234
1930.39713,0.19162
1932.32560,0.18976
1934.25407,0.18908
1936.18253,0.18976
1938.11100,0.19098
1940.03947,0.19352
1941.96794,0.19563
1943.89641,0.19450
1945.82488,0.19180
1947.75335,0.18995
1949.68181,0.18944
1951.61028,0.19042
1953.53875,0.19251
1955.46722,0.19493
1957.39569,0.19599
1959.32416,0.19558
1961.25263,0.19562
1963.18110,0.19603
1965.10956,0.19617
1967.03803,0.19563
1968.96650,0.19413
1970.89497,0.19313
1972.82344,0.19295
1974.75191,0.19266
1976.68038,0.19324
1978.60884,0.19404
1980.53731,0.19202
1982.46578,0.18957
1984.39425,0.19007
1986.32272,0.19129
1988.25119,0.19099
1990.17966,0.19024
1992.10812,0.19068
1994.03659,0.19148
1995.96506,0.19178
1997.89353,0.19180
1999.82200,0.19136
2001.75047,0.19149
2003.67894,0.19277
2005.60741,0.19340
2007.53587,0.19303
2009.46434,0.19241
2011.39281,0.19119
2013.32128,0.19049
2015.24975,0.19125
2017.17822,0.19281
2019.10669,0.19407
2021.03515,0.19365
2022.96362,0.19215
2024.89209,0.19171
2026.82056,0.19267
2028.74903,0.19317
2030.67750,0.19278
2032.60597,0.19282
2034.53444,0.19258
2036.46290,0.19134
2038.39137,0.19081
2040.31984,0.19239
2042.24831,0.19549
2044.17678,0.19726
2046.10525,0.19585
2048.03372,0.19381
2049.96218,0.19284
2051.89065,0.19165
2053.81912,0.19109
2055.74759,0.19140
2057.67606,0.19082
2059.60453,0.19086
2061.53300,0.19245
2063.46147,0.19303
2065.38993,0.19185
2067.31840,0.19144
2069.24687,0.19296
2071.17534,0.19496
2073.10381,0.19570
2075.03228,0.19383
2076.96075,0.19201
2078.88921,0.19444
2080.81768,0.19840
2082.74615,0.19880
2084.67462,0.19680
2086.60309,0.19597
2088.53156,0.19624
2090.46003,0.19560
2092.38850,0.19365
2094.31696,0.19331
2096.24543,0.19677
2098.17390,0.20028
2100.10237,0.19932
2102.03084,0.19575
2103.95931,0.19402
2105.88778,0.19468
2107.81624,0.19610
2109.74471,0.19677
2111.67318,0.19646
2113.60165,0.19731
2115.53012,0.19951
2117.45859,0.20056
2119.38706,0.19995
2121.31553,0.19923
2123.24399,0.19835
2125.17246,0.19624
2127.10093,0.19424
2129.02940,0.19451
2130.95787,0.19579
2132.88634,0.19617
2134.81481,0.19556
2136.74327,0.19370
2138.67174,0.19307
2140.60021,0.19607
2142.52868,0.19947
2144.45715,0.19997
2146.38562,0.19844
2148.31409,0.19713
2150.24255,0.19745
2152.17102,0.19877
2154.09949,0.19832
2156.02796,0.19559
2157.95643,0.19396
2159.88490,0.19573
2161.81337,0.19922
2163.74184,0.20055
2165.67030,0.19937
2167.59877,0.19901
2169.52724,0.19956
2171.45571,0.19856
2173.38418,0.19709
2175.31265,0.19799
2177.24112,0.20031
2179.16958,0.20093
2181.09805,0.20000
2183.02652,0.19986
2184.95499,0.20029
2186.88346,0.20008
2188.81193,0.19983
2190.74040,0.19955
2192.66887,0.19818
2194.59733,0.19554
2196.52580,0.19383
2198.45427,0.19477
2200.38274,0.19553
2202.31121,0.19505
2204.23968,0.19611
2206.16815,0.19838
2208.09661,0.19932
2210.02508,0.19860
2211.95355,0.19780
2213.88202,0.19714
2215.81049,0.19540
2217.73896,0.19388
2219.66743,0.19479
2221.59590,0.19669
2223.52436,0.19717
2225.45283,0.19707
2227.38130,0.19788
2229.30977,0.19928
2231.23824,0.20026
2233.16671,0.20010
2235.09518,0.19900
2237.02364,0.19900
2238.95211,0.20006
2240.88058,0.19851
2242.80905,0.19584
2244.73752,0.19679
2246.66599,0.19937
2248.59446,0.19952
2250.52293,0.19885
2252.45139,0.19963
2254.37986,0.20060
2256.30833,0.20071
2258.23680,0.19925
2260.16527,0.19742
2262.09374,0.19742
2264.02221,0.19745
2265.95067,0.19678
2267.87914,0.19643
2269.80761,0.19602
2271.73608,0.19576
2273.66455,0.19613
2275.59302,0.19676
2277.52149,0.19751
2279.44996,0.19831
2281.37842,0.19837
2283.30689,0.19782
2285.23536,0.19656
2287.16383,0.19420
2289.09230,0.19257
2291.02077,0.19163
2292.94924,0.18834
2294.87770,0.18309
2296.80617,0.18082
2298.73464,0.18406
2300.66311,0.18788
2302.59158,0.18707
2304.52005,0.18526
2306.44852,0.18555
2308.37699,0.18496
2310.30545,0.18385
2312.23392,0.18413
2314.16239,0.18336
2316.09086,0.17974
2318.01933,0.17606
2319.94780,0.17504
2321.87627,0.17250
2323.80473,0.16300
2325.73320,0.15195
2327.66167,0.14755
2329.59014,0.15382
2331.51861,0.16928
2333.44708,0.17682
2335.37555,0.16842
2337.30401,0.15625
2339.23248,0.15052
2341.16095,0.15838
2343.08942,0.17441
2345.01789,0.18074
2346.94636,0.17608
2348.87483,0.17037
2350.80330,0.16757
2352.73176,0.16693
2354.66023,0.16208
2356.58870,0.15245
2358.51717,0.14786
2360.44564,0.14234
2362.37411,0.12967
2364.30258,0.12780
2366.23104,0.13962
2368.15951,0.14879
2370.08798,0.15355
2372.01645,0.15888
2373.94492,0.16516
2375.87339,0.17289
2377.80186,0.18226
2379.73033,0.18915
2381.65879,0.19271
2383.58726,0.19671
2385.51573,0.19966
2387.44420,0.19891
2389.37267,0.19739
2391.30114,0.19695
2393.22961,0.19675
2395.15807,0.19792
2397.08654,0.19941
2399.01501,0.19861
2400.94348,0.19750
2402.87195,0.19723
2404.80042,0.19678
2406.72889,0.19702
2408.65736,0.19901
2410.58582,0.20229
2412.51429,0.20311
2414.44276,0.19986
2416.37123,0.19640
2418.29970,0.19497
2420.22817,0.19515
2422.15664,0.19702
2424.08510,0.19959
2426.01357,0.20108
2427.94204,0.20066
2429.87051,0.19882
2431.79898,0.19682
2433.72745,0.19596
2435.65592,0.19753
2437.58439,0.20014
2439.51285,0.20062
2441.44132,0.19960
2443.36979,0.19863
2445.29826,0.19718
2447.22673,0.19685
2449.15520,0.19942
2451.08367,0.20200
2453.01213,0.20153
2454.94060,0.19978
2456.86907,0.19913
2458.79754,0.19940
2460.72601,0.19942
2462.65448,0.19921
2464.58295,0.20090
2466.51142,0.20399
2468.43988,0.20558
2470.36835,0.20533
2472.29682,0.20443
2474.22529,0.20328
2476.15376,0.20111
2478.08223,0.19867
2480.01070,0.19959
2481.93916,0.20287
2483.86763,0.20347
2485.79610,0.20179
2487.72457,0.20133
2489.65304,0.20301
2491.58151,0.20460
2493.50998,0.20422
2495.43844,0.20406
2497.36691,0.20560
2499.29538,0.20657
2501.22385,0.20493
2503.15232,0.20217
2505.08079,0.20120
2507.00926,0.20187
2508.93773,0.20175
2510.86619,0.20088
2512.79466,0.20234
2514.72313,0.20586
2516.65160,0.20609
2518.58007,0.20239
2520.50854,0.20165
2522.43701,0.20499
2524.36547,0.20524
2526.29394,0.20140
2528.22241,0.19917
2530.15088,0.20071
2532.07935,0.20353
2534.00782,0.20395
2535.93629,0.20182
2537.86476,0.20062
2539.79322,0.20158
2541.72169,0.20297
2543.65016,0.20375
2545.57863,0.20423
2547.50710,0.20446
2549.43557,0.20435
2551.36404,0.20431
2553.29250,0.20376
2555.22097,0.20285
2557.14944,0.20333
2559.07791,0.20416
2561.00638,0.20321
2562.93485,0.20281
2564.86332,0.20523
2566.79179,0.20675
2568.72025,0.20506
2570.64872,0.20347
2572.57719,0.20289
2574.50566,0.20295
2576.43413,0.20512
2578.36260,0.20784
2580.29107,0.20850
2582.21953,0.20752
2584.14800,0.20655
2586.07647,0.20704
2588.00494,0.20877
2589.93341,0.20837
2591.86188,0.20472
2593.79035,0.20231
2595.71882,0.20295
2597.64728,0.20409
2599.57575,0.20482
2601.50422,0.20538
2603.43269,0.20601
2605.36116,0.20631
2607.28963,0.20590
2609.21810,0.20666
2611.14656,0.20745
2613.07503,0.20581
2615.00350,0.20415
2616.93197,0.20518
2618.86044,0.20857
2620.78891,0.21022
2622.71738,0.20799
2624.64585,0.20636
2626.57431,0.20630
2628.50278,0.20512
2630.43125,0.20398
2632.35972,0.20428
2634.28819,0.20599
2636.21666,0.20775
2638.14513,0.20739
2640.07359,0.20619
2642.00206,0.20658
2643.93053,0.20749
2645.85900,0.20761
2647.78747,0.20711
2649.71594,0.20585
2651.64441,0.20433
2653.57288,0.20362
2655.50134,0.20478
2657.42981,0.20714
2659.35828,0.20806
2661.28675,0.20778
2663.21522,0.20816
2665.14369,0.20692
2667.07216,0.20421
2669.00062,0.20497
2670.92909,0.20826
2672.85756,0.20993
2674.78603,0.21101
2676.71450,0.21270
2678.64297,0.21336
2680.57144,0.21232
2682.49990,0.21083
2684.42837,0.21091
2686.35684,0.21269
2688.28531,0.21292
2690.21378,0.21102
2692.14225,0.20997
2694.07072,0.21063
2695.99919,0.21313
2697.92765,0.21592
2699.85612,0.21643
2701.78459,0.21529
2703.71306,0.21371
2705.64153,0.21220
2707.57000,0.21150
2709.49847,0.21215
2711.42693,0.21252
2713.35540,0.21030
2715.28387,0.20754
2717.21234,0.20764
2719.14081,0.21048
2721.06928,0.21206
2722.99775,0.20914
2724.92622,0.20653
2726.85468,0.21071
2728.78315,0.21802
2730.71162,0.22071
2732.64009,0.21977
2734.56856,0.21937
2736.49703,0.21762
2738.42550,0.21435
2740.35396,0.21358
2742.28243,0.21487
2744.21090,0.21581
2746.13937,0.21659
2748.06784,0.21658
2749.99631,0.21597
2751.92478,0.21623
2753.85325,0.21611
2755.78171,0.21504
2757.71018,0.21407
2759.63865,0.21303
2761.56712,0.21300
2763.49559,0.21611
2765.42406,0.22016
2767.35253,0.22057
2769.28099,0.21845
2771.20946,0.21843
2773.13793,0.21974
2775.06640,0.21853
2776.99487,0.21571
2778.92334,0.21466
2780.85181,0.21480
2782.78028,0.21464
2784.70874,0.21521
2786.63721,0.21663
2788.56568,0.21848
2790.49415,0.22117
2792.42262,0.22323
2794.35109,0.22242
2796.27956,0.22011
2798.20802,0.21830
2800.13649,0.21677
2802.06496,0.21648
2803.99343,0.21806
2805.92190,0.21929
2807.85037,0.21770
2809.77884,0.21465
2811.70731,0.21376
2813.63577,0.21598
2815.56424,0.21898
2817.49271,0.21998
2819.42118,0.22078
2821.34965,0.22272
2823.27812,0.22267
2825.20659,0.22093
2827.13505,0.21912
2829.06352,0.21762
2830.99199,0.21663
2832.92046,0.21566
2834.84893,0.21703
2836.77740,0.22104
2838.70587,0.22355
2840.63433,0.22266
2842.56280,0.22025
2844.49127,0.22010
2846.41974,0.22218
2848.34821,0.22231
2850.27668,0.22111
2852.20515,0.22209
2854.13362,0.22303
2856.06208,0.22167
2857.99055,0.22127
2859.91902,0.22176
2861.84749,0.22045
2863.77596,0.21893
2865.70443,0.21905
2867.63290,0.22115
2869.56136,0.22433
2871.48983,0.22470
2873.41830,0.22115
2875.34677,0.21885
2877.27524,0.22034
2879.20371,0.22323
2881.13218,0.22468
2883.06065,0.22195
2884.98911,0.21741
2886.91758,0.21714
2888.84605,0.22043
2890.77452,0.22180
2892.70299,0.21988
2894.63146,0.21654
2896.55993,0.21441
2898.48839,0.21512
2900.41686,0.21689
2902.34533,0.21730
2904.27380,0.21608
2906.20227,0.21655
2908.13074,0.21932
2910.05921,0.21888
2911.98768,0.21506
2913.91614,0.21144
2915.84461,0.20738
2917.77308,0.20646
2919.70155,0.21218
2921.63002,0.21785
2923.55849,0.21503
2925.48696,0.20719
2927.41542,0.20883
2929.34389,0.21540
2931.27236,0.21234
2933.20083,0.20870
2935.12930,0.20855
2937.05777,0.20648
2938.98624,0.21018
2940.91471,0.21857
2942.84317,0.22279
2944.77164,0.22164
2946.70011,0.21751
2948.62858,0.21589
2950.55705,0.21700
2952.48552,0.21706
2954.41399,0.21496
2956.34245,0.20920
2958.27092,0.20607
2960.19939,0.21300
2962.12786,0.22228
2964.05633,0.22298
2965.98480,0.21507
2967.91327,0.20756
2969.84174,0.20826
2971.77020,0.21435
2973.69867,0.21932
2975.62714,0.21842
2977.55561,0.21252
2979.48408,0.21186
2981.41255,0.21784
2983.34102,0.22183
2985.26948,0.22126
2987.19795,0.21827
2989.12642,0.21828
2991.05489,0.22259
2992.98336,0.22540
2994.91183,0.22537
2996.84030,0.22391
2998.76877,0.22256
3000.69723,0.22405
3002.62570,0.22655
3004.55417,0.22561
3006.48264,0.21962
3008.41111,0.21098
3010.33958,0.20236
3012.26805,0.19049
3014.19651,0.17002
3016.12498,0.15036
3018.05345,0.15693
3019.98192,0.18981
3021.91039,0.21702
3023.83886,0.22624
3025.76733,0.22646
3027.69579,0.22366
3029.62426,0.22384
3031.55273,0.22657
3033.48120,0.22619
3035.40967,0.22551
3037.33814,0.22715
3039.26661,0.22828
3041.19508,0.22788
3043.12354,0.22662
3045.05201,0.22596
3046.98048,0.22557
3048.90895,0.22460
3050.83742,0.22408
3052.76589,0.22361
3054.69436,0.22097
3056.62282,0.21666
3058.55129,0.21649
3060.47976,0.22059
3062.40823,0.22298
3064.33670,0.21987
3066.26517,0.21170
3068.19364,0.20898
3070.12211,0.21734
3072.05057,0.22701
3073.97904,0.22634
3075.90751,0.21636
3077.83598,0.21301
3079.76445,0.22030
3081.69292,0.22215
3083.62139,0.21067
3085.54985,0.20018
3087.47832,0.20448
3089.40679,0.21629
3091.33526,0.22169
3093.26373,0.21573
3095.19220,0.21065
3097.12067,0.21752
3099.04914,0.22462
3100.97760,0.22157
3102.90607,0.21310
3104.83454,0.21154
3106.76301,0.22006
3108.69148,0.22631
3110.61995,0.22281
3112.54842,0.21592
3114.47688,0.21511
3116.40535,0.21922
3118.33382,0.22193
3120.26229,0.22120
3122.19076,0.21819
3124.11923,0.21907
3126.04770,0.22590
3127.97617,0.22898
3129.90463,0.22295
3131.83310,0.21876
3133.76157,0.22344
3135.69004,0.22926
3137.61851,0.22999
3139.54698,0.22958
3141.47545,0.23227
3143.40391,0.23286
3145.33238,0.23157
3147.26085,0.23401
3149.18932,0.23626
3151.11779,0.23460
3153.04626,0.23172
3154.97473,0.22862
3156.90320,0.22579
3158.83166,0.22753
3160.76013,0.23233
3162.68860,0.23421
3164.61707,0.23598
3166.54554,0.23997
3168.47401,0.24093
3170.40248,0.23835
3172.33094,0.23463
3174.25941,0.23042
3176.18788,0.23027
3178.11635,0.23405
3180.04482,0.23357
3181.97329,0.23029
3183.90176,0.23203
3185.83022,0.23460
3187.75869,0.23192
3189.68716,0.22889
3191.61563,0.23012
3193.54410,0.23427
3195.47257,0.23707
3197.40104,0.23633
3199.32951,0.23394
3201.25797,0.23172
3203.18644,0.23106
3205.11491,0.23204
3207.04338,0.23278
3208.97185,0.23223
3210.90032,0.23058
3212.82879,0.22834
3214.75725,0.22818
3216.68572,0.23179
3218.61419,0.23503
3220.54266,0.23427
3222.47113,0.23075
3224.39960,0.22765
3226.32807,0.22662
3228.25654,0.22690
3230.18500,0.22747
3232.11347,0.22741
3234.04194,0.22808
3235.97041,0.23041
3237.89888,0.23104
3239.82735,0.22954
3241.75582,0.22793
3243.68428,0.22622
3245.61275,0.22708
3247.54122,0.23191
3249.46969,0.23491
3251.39816,0.23284
3253.32663,0.22989
3255.25510,0.22898
3257.18357,0.23098
3259.11203,0.23517
3261.04050,0.23800
3262.96897,0.23853
3264.89744,0.23577
3266.82591,0.23088
3268.75438,0.22877
3270.68285,0.22874
3272.61131,0.22746
3274.53978,0.22556
3276.46825,0.22368
3278.39672,0.22085
3280.32519,0.21860
3282.25366,0.21959
3284.18213,0.22501
3286.11060,0.23102
3288.03906,0.23017
3289.96753,0.22496
3291.89600,0.22293
3293.82447,0.22206
3295.75294,0.21972
3297.68141,0.22072
3299.60988,0.22473
3301.53834,0.22667
3303.46681,0.22666
3305.39528,0.22584
3307.32375,0.22722
3309.25222,0.22987
3311.18069,0.22813
3313.10916,0.22573
3315.03763,0.22636
3316.96609,0.22532
3318.89456,0.22369
3320.82303,0.22739
3322.75150,0.23279
3324.67997,0.23494
3326.60844,0.23394
3328.53691,0.23086
3330.46537,0.23043
3332.39384,0.23256
3334.32231,0.23168
3336.25078,0.22740
3338.17925,0.22386
3340.10772,0.22341
3342.03619,0.22679
3343.96466,0.23331
3345.89312,0.23761
3347.82159,0.23849
3349.75006,0.24205
3351.67853,0.24844
3353.60700,0.24859
3355.53547,0.23972
3357.46394,0.23041
3359.39240,0.22868
3361.32087,0.23400
3363.24934,0.23739
3365.17781,0.23588
3367.10628,0.23560
3369.03475,0.23818
3370.96322,0.24078
3372.89168,0.24036
3374.82015,0.23659
3376.74862,0.23234
3378.67709,0.22857
3380.60556,0.22527
3382.53403,0.22483
3384.46250,0.22621
3386.39097,0.22646
3388.31943,0.22715
3390.24790,0.23000
3392.17637,0.23313
3394.10484,0.23312
3396.03331,0.23152
3397.96178,0.22934
3399.89025,0.22658
3401.81871,0.23032
3403.74718,0.23603
3405.67565,0.23142
3407.60412,0.22551
3409.53259,0.22901
3411.46106,0.23088
3413.38953,0.22641
3415.31800,0.22533
3417.24646,0.22773
3419.17493,0.22800
3421.10340,0.22626
3423.03187,0.22385
3424.96034,0.22235
3426.88881,0.22347
3428.81728,0.22572
3430.74574,0.22565
3432.67421,0.22381
3434.60268,0.22383
3436.53115,0.22563
3438.45962,0.22604
3440.38809,0.22557
3442.31656,0.22724
3444.24503,0.22914
3446.17349,0.22902
3448.10196,0.22767
3450.03043,0.22581
3451.95890,0.22220
3453.88737,0.21619
3455.81584,0.21440
3457.74431,0.21855
3459.67277,0.21962
3461.60124,0.21525
3463.52971,0.21135
3465.45818,0.21035
3467.38665,0.21072
3469.31512,0.21088
3471.24359,0.21011
3473.17206,0.21052
3475.10052,0.21239
3477.02899,0.21214
3478.95746,0.20946
3480.88593,0.20463
3482.81440,0.19924
3484.74287,0.19742
3486.67134,0.19697
3488.59980,0.19486
3490.52827,0.19395
3492.45674,0.19538
3494.38521,0.19650
3496.31368,0.19459
3498.24215,0.19046
3500.17062,0.18934
3502.09909,0.19392
3504.02755,0.19962
3505.95602,0.20116
3507.88449,0.19995
3509.81296,0.19751
3511.74143,0.19451
3513.66990,0.19240
3515.59837,0.18956
3517.52683,0.18643
3519.45530,0.18593
3521.38377,0.18653
3523.31224,0.18762
3525.24071,0.19142
3527.16918,0.19274
3529.09765,0.18908
3531.02611,0.18656
3532.95458,0.18473
3534.88305,0.18291
3536.81152,0.18391
3538.73999,0.18549
3540.66846,0.18556
3542.59693,0.18630
3544.52540,0.18859
3546.45386,0.18932
3548.38233,0.18640
3550.31080,0.18354
3552.23927,0.18350
3554.16774,0.18279
3556.09621,0.17834
3558.02468,0.17242
3559.95314,0.16959
3561.88161,0.17334
3563.81008,0.18225
3565.73855,0.19042
3567.66702,0.18801
3569.59549,0.17949
3571.52396,0.17649
3573.45243,0.17541
3575.38089,0.17270
3577.30936,0.17123
3579.23783,0.16984
3581.16630,0.16727
3583.09477,0.16652
3585.02324,0.16796
3586.95171,0.17072
3588.88017,0.17162
3590.80864,0.16956
3592.73711,0.16619
3594.66558,0.16084
3596.59405,0.15885
3598.52252,0.16313
3600.45099,0.16577
3602.37946,0.16187
3604.30792,0.15815
3606.23639,0.16123
3608.16486,0.16739
3610.09333,0.17059
3612.02180,0.17212
3613.95027,0.16959
3615.87874,0.16558
3617.80720,0.16613
3619.73567,0.16309
3621.66414,0.15366
3623.59261,0.14919
3625.52108,0.15261
3627.44955,0.16255
3629.37802,0.16801
3631.30649,0.15771
3633.23495,0.14940
3635.16342,0.15043
3637.09189,0.15343
3639.02036,0.15358
3640.94883,0.15334
3642.87730,0.15548
3644.80577,0.16161
3646.73423,0.17146
3648.66270,0.17577
3650.59117,0.16297
3652.51964,0.15226
3654.44811,0.14979
3656.37658,0.14848
3658.30505,0.14518
3660.23352,0.14262
3662.16198,0.14078
3664.09045,0.13789
3666.01892,0.13609
3667.94739,0.13927
3669.87586,0.14679
3671.80433,0.15162
3673.73280,0.15501
3675.66126,0.15633
3677.58973,0.15001
3679.51820,0.14509
3681.44667,0.14582
3683.37514,0.14838
3685.30361,0.14857
3687.23208,0.14871
3689.16055,0.15087
3691.08901,0.14763
3693.01748,0.14285
3694.94595,0.14186
3696.87442,0.14008
3698.80289,0.13662
3700.73136,0.13357
3702.65983,0.13127
3704.58829,0.13456
3706.51676,0.14241
3708.44523,0.14922
3710.37370,0.15480
3712.30217,0.15512
3714.23064,0.14705
3716.15911,0.13976
3718.08757,0.13872
3720.01604,0.14428
3721.94451,0.15001
3723.87298,0.14806
3725.80145,0.14188
3727.72992,0.14046
3729.65839,0.14414
3731.58686,0.15022
3733.51532,0.15699
3735.44379,0.16106
3737.37226,0.15775
3739.30073,0.14957
3741.22920,0.14282
3743.15767,0.13971
3745.08614,0.14135
3747.01460,0.14586
3748.94307,0.15131
3750.87154,0.15394
3752.80001,0.14729
3754.72848,0.14280
3756.65695,0.14618
3758.58542,0.15186
3760.51389,0.15001
3762.44235,0.14403
3764.37082,0.14159
3766.29929,0.14111
3768.22776,0.13947
3770.15623,0.13491
3772.08470,0.12868
3774.01317,0.12629
3775.94163,0.12949
3777.87010,0.13719
3779.79857,0.14326
3781.72704,0.14232
3783.65551,0.13882
3785.58398,0.13466
3787.51245,0.13051
3789.44092,0.12904
3791.36938,0.13100
3793.29785,0.13422
3795.22632,0.13684
3797.15479,0.13893
3799.08326,0.14131
3801.01173,0.14416
3802.94020,0.14127
3804.86866,0.13542
3806.79713,0.13383
3808.72560,0.13347
3810.65407,0.13088
3812.58254,0.12900
3814.51101,0.13131
3816.43948,0.13925
3818.36795,0.14734
3820.29641,0.15123
3822.22488,0.14606
3824.15335,0.13912
3826.08182,0.13849
3828.01029,0.14009
3829.93876,0.14097
3831.86723,0.14366
3833.79569,0.14485
3835.72416,0.14014
3837.65263,0.13662
3839.58110,0.14061
3841.50957,0.14209
3843.43804,0.13732
3845.36651,0.13242
3847.29498,0.13170
3849.22344,0.13565
3851.15191,0.14418
3853.08038,0.15171
3855.00885,0.14342
3856.93732,0.13180
3858.86579,0.12690
3860.79426,0.13012
3862.72272,0.13652
3864.65119,0.13781
3866.57966,0.13858
3868.50813,0.14375
3870.43660,0.14636
3872.36507,0.13936
3874.29354,0.12883
3876.22200,0.12392
3878.15047,0.12706
3880.07894,0.13348
3882.00741,0.13773
3883.93588,0.14008
3885.86435,0.13866
3887.79282,0.13309
3889.72129,0.12750
3891.64975,0.11974
3893.57822,0.11278
3895.50669,0.11390
3897.43516,0.12289
3899.36363,0.13049
3901.29210,0.12404
3903.22057,0.11481
3905.14903,0.11620
3907.07750,0.11829
3909.00597,0.11817
3910.93444,0.12061
3912.86291,0.12417
3914.79138,0.12376
3916.71985,0.11985
3918.64832,0.11820
3920.57678,0.11807
3922.50525,0.11764
3924.43372,0.11791
3926.36219,0.11769
3928.29066,0.11708
3930.21913,0.11699
3932.14760,0.11894
3934.07606,0.12140
3936.00453,0.12031
3937.93300,0.11794
3939.86147,0.11747
3941.78994,0.11820
3943.71841,0.12103
3945.64688,0.12424
3947.57535,0.12149
3949.50381,0.11420
3951.43228,0.11048
3953.36075,0.11293
3955.28922,0.11843
3957.21769,0.12000
3959.14616,0.11639
3961.07463,0.11439
3963.00309,0.11687
3964.93156,0.11930
3966.86003,0.11696
3968.78850,0.11378
3970.71697,0.11364
3972.64544,0.11245
3974.57391,0.10981
3976.50238,0.10854
3978.43084,0.10819
3980.35931,0.10906
3982.28778,0.11143
3984.21625,0.11370
3986.14472,0.11423
3988.07319,0.11148
3990.00166,0.10841
3991.93012,0.11050
3993.85859,0.11427
3995.78706,0.11385
3997.71553,0.11073
3999.64400,0.10861
4001.57247,0.10758
4003.50094,0.10539
4005.42941,0.10450
4007.35787,0.10715
4009.28634,0.10811
4011.21481,0.10471
4013.14328,0.10252
4015.07175,0.10506
4017.00022,0.10762
4018.92869,0.10664
4020.85715,0.10483
4022.78562,0.10453
4024.71409,0.10554
4026.64256,0.10573
4028.57103,0.10435
4030.49950,0.10498
4032.42797,0.10589
4034.35644,0.10280
4036.28490,0.10085
4038.21337,0.10245
4040.14184,0.10470
4042.07031,0.10791
4043.99878,0.10830
4045.92725,0.10417
4047.85572,0.10179
4049.78418,0.10344
4051.71265,0.10595
4053.64112,0.10555
4055.56959,0.10197
4057.49806,0.09905
4059.42653,0.09885
4061.35500,0.10081
4063.28346,0.10219
4065.21193,0.09954
4067.14040,0.09493
4069.06887,0.09520
4070.99734,0.09847
4072.92581,0.09688
4074.85428,0.09477
4076.78275,0.09574
4078.71121,0.09400
4080.63968,0.09311
4082.56815,0.09536
4084.49662,0.09496
4086.42509,0.09485
4088.35356,0.09636
4090.28203,0.09436
4092.21049,0.09186
4094.13896,0.09209
4096.06743,0.09432
4097.99590,0.09786
4099.92437,0.09713
4101.85284,0.09074
4103.78131,0.08734
4105.70978,0.09042
4107.63824,0.09345
4109.56671,0.09291
4111.49518,0.09181
4113.42365,0.09183
4115.35212,0.09228
4117.28059,0.09257
4119.20906,0.09182
4121.13752,0.08824
4123.06599,0.08131
4124.99446,0.07735
4126.92293,0.08156
4128.85140,0.08846
4130.77987,0.09093
4132.70834,0.08476
4134.63681,0.07283
4136.56527,0.06861
4138.49374,0.07426
4140.42221,0.08008
4142.35068,0.08453
4144.27915,0.08695
4146.20762,0.08430
4148.13609,0.08048
4150.06455,0.07996
4151.99302,0.08335
4153.92149,0.08782
4155.84996,0.08862
4157.77843,0.08700
4159.70690,0.08569
4161.63537,0.08522
4163.56384,0.08561
4165.49230,0.08263
4167.42077,0.07690
4169.34924,0.07380
4171.27771,0.07434
4173.20618,0.07968
4175.13465,0.08595
4177.06312,0.08433
4178.99158,0.07816
4180.92005,0.07717
4182.84852,0.07980
4184.77699,0.07980
4186.70546,0.07719
4188.63393,0.07494
4190.56240,0.07643
4192.49087,0.08346
4194.41933,0.08886
4196.34780,0.08724
4198.27627,0.08328
4200.20474,0.07676
4202.13321,0.06871
4204.06168,0.06646
4205.99015,0.06836
4207.91861,0.06833
4209.84708,0.06548
4211.77555,0.06462
4213.70402,0.06658
4215.63249,0.06744
4217.56096,0.07030
4219.48943,0.07421
4221.41789,0.07244
4223.34636,0.06774
4225.27483,0.06551
4227.20330,0.06559
4229.13177,0.06690
4231.06024,0.06870
4232.98871,0.06934
4234.91718,0.06628
4236.84564,0.05903
4238.77411,0.05330
4240.70258,0.05553
4242.63105,0.06132
4244.55952,0.06449
4246.48799,0.06656
4248.41646,0.06517
4250.34492,0.06031
4252.27339,0.05876
4254.20186,0.05924
4256.13033,0.05752
4258.05880,0.05585
4259.98727,0.05744
4261.91574,0.05824
4263.84421,0.05279
4265.77267,0.04670
4267.70114,0.04554
4269.62961,0.04612
4271.55808,0.04704
4273.48655,0.05068
4275.41502,0.05594
4277.34349,0.05743
4279.27195,0.05404
4281.20042,0.04805
4283.12889,0.04322
4285.05736,0.04709
4286.98583,0.05551
4288.91430,0.05473
4290.84277,0.04766
4292.77124,0.04660
4294.69970,0.04889
4296.62817,0.04914
4298.55664,0.05268
4300.48511,0.05788
4302.41358,0.05593
4304.34205,0.04878
4306.27052,0.04435
4308.19898,0.04429
4310.12745,0.04813
4312.05592,0.05287
4313.98439,0.05122
4315.91286,0.04646
4317.84133,0.04758
4319.76980,0.05138
4321.69827,0.05186
4323.62673,0.04987
4325.55520,0.04556
4327.48367,0.03949
4329.41214,0.03614
4331.34061,0.03694
4333.26908,0.03847
4335.19755,0.03734
4337.12601,0.03450
4339.05448,0.03557
4340.98295,0.04077
4342.91142,0.04389
4344.83989,0.04421
4346.76836,0.04303
4348.69683,0.03931
4350.62530,0.03552
4352.55376,0.03325
4354.48223,0.03217
4356.41070,0.03218
4358.33917,0.03051
4360.26764,0.02725
4362.19611,0.02582
4364.12458,0.02813
4366.05304,0.03403
4367.98151,0.03693
4369.90998,0.03187
4371.83845,0.02630
4373.76692,0.02637
4375.69539,0.02807
4377.62386,0.02852
4379.55232,0.02913
4381.48079,0.02806
4383.40926,0.02627
4385.33773,0.02963
4387.26620,0.03344
4389.19467,0.03167
4391.12314,0.03163
4393.05161,0.03380
4394.98007,0.02917
4396.90854,0.02161
4398.83701,0.01853
4400.76548,0.01809
4402.69395,0.02028
4404.62242,0.02483
4406.55089,0.02614
4408.47935,0.02387
4410.40782,0.02276
4412.33629,0.02281
4414.26476,0.02112
4416.19323,0.01685
4418.12170,0.01446
4420.05017,0.01906
4421.97864,0.02483
4423.90710,0.02397
4425.83557,0.01956
4427.76404,0.01718
4429.69251,0.01909
4431.62098,0.02448
4433.54945,0.02694
4435.47792,0.02253
4437.40638,0.01699
4439.33485,0.01857
4441.26332,0.02614
4443.19179,0.02931
4445.12026,0.02574
4447.04873,0.02191
4448.97720,0.01897
4450.90567,0.01592
4452.83413,0.01717
4454.76260,0.02234
4456.69107,0.02179
4458.61954,0.01651
4460.54801,0.01609
4462.47648,0.01662
4464.40495,0.01229
4466.33341,0.00953
4468.26188,0.01073
4470.19035,0.00966
4472.11882,0.00563
4474.04729,0.00064
4475.97576,-0.00302
4477.90423,0.00084
4479.83270,0.00762
4481.76116,0.01154
4483.68963,0.01837
4485.61810,0.02283
4487.54657,0.01726
4489.47504,0.00886
4491.40351,0.00389
4493.33198,0.00381
4495.26044,0.00646
4497.18891,0.00898
4499.11738,0.00993
4501.04585,0.00805
4502.97432,0.00881
4504.90279,0.01304
4506.83126,0.01164
4508.75973,0.00851
4510.68819,0.01370
4512.61666,0.02018
4514.54513,0.01711
4516.47360,0.00818
4518.40207,0.00373
4520.33054,0.00369
4522.25901,0.00025
4524.18747,-0.00318
4526.11594,0.00070
4528.04441,0.00584
4529.97288,0.00554
4531.90135,0.00238
4533.82982,0.00016
4535.75829,0.00010
4537.68676,0.00191
4539.61522,0.00487
4541.54369,0.00453
4543.47216,-0.00190
4545.40063,-0.00970
4547.32910,-0.01199
4549.25757,-0.00487
4551.18604,0.00510
4553.11450,0.00868
4555.04297,0.00440
4556.97144,-0.00390
4558.89991,-0.00539
4560.82838,0.00177
4562.75685,0.00372
4564.68532,-0.00089
4566.61378,-0.00026
4568.54225,0.00442
4570.47072,0.00654
4572.39919,0.00552
4574.32766,0.00122
4576.25613,-0.00572
4578.18460,-0.01141
4580.11307,-0.01282
4582.04153,-0.00969
4583.97000,-0.00508
4585.89847,-0.00178
4587.82694,0.00410
4589.75541,0.01155
4591.68388,0.01011
4593.61235,0.00115
4595.54081,-0.00101
4597.46928,0.00651
4599.39775,0.01123
4601.32622,0.00825
4603.25469,0.00331
4605.18316,0.00134
4607.11163,0.00298
4609.04010,0.00784
4610.96856,0.01430
4612.89703,0.01305
4614.82550,0.00576
4616.75397,0.00625
4618.68244,0.01088
4620.61091,0.00979
4622.53938,0.00643
4624.46784,0.00297
4626.39631,-0.00056
4628.32478,0.00033
4630.25325,0.00330
4632.18172,0.00666
4634.11019,0.01077
4636.03866,0.00811
4637.96713,0.00137
4639.89559,-0.00030
4641.82406,0.00565
4643.75253,0.01748
4645.68100,0.02178
4647.60947,0.01230
4649.53794,0.00313
4651.46641,0.00223
4653.39487,0.00558
4655.32334,0.00728
4657.25181,0.00700
4659.18028,0.00623
4661.10875,-0.00247
4663.03722,-0.01774
4664.96569,-0.02431
4666.89416,-0.01645
4668.82262,-0.00271
4670.75109,0.00684
4672.67956,0.00598
4674.60803,-0.00083
4676.53650,0.00081
4678.46497,0.01054
4680.39344,0.01625
4682.32190,0.01342
4684.25037,0.00410
4686.17884,-0.00222
4688.10731,0.00088
4690.03578,0.00681
4691.96425,0.00940
4693.89272,0.01093
4695.82119,0.01272
4697.74965,0.01145
4699.67812,0.00795
4701.60659,0.00903
4703.53506,0.01140
4705.46353,0.00844
4707.39200,0.00842
4709.32047,0.01473
4711.24893,0.01678
4713.17740,0.00817
4715.10587,-0.00176
4717.03434,-0.00234
4718.96281,-0.00059
4720.89128,-0.00261
4722.81975,-0.00202
4724.74821,0.00341
4726.67668,0.00918
4728.60515,0.00937
4730.53362,0.00527
4732.46209,0.00387
4734.39056,0.00686
4736.31903,0.00831
4738.24750,0.00661
4740.17596,0.00198
4742.10443,-0.00399
4744.03290,-0.00238
4745.96137,0.00457
4747.88984,0.00562
4749.81831,0.00150
4751.74678,0.00014
4753.67524,0.00613
4755.60371,0.01221
4757.53218,0.00902
4759.46065,0.00074
4761.38912,-0.00400
4763.31759,-0.00113
4765.24606,0.00417
4767.17453,0.00763
4769.10299,0.01041
4771.03146,0.00969
4772.95993,0.00413
4774.88840,-0.00423
4776.81687,-0.00949
4778.74534,-0.00622
4780.67381,-0.00058
4782.60227,0.00054
4784.53074,-0.00054
4786.45921,0.00057
4788.38768,0.00003
4790.31615,-0.00303
4792.24462,-0.00461
4794.17309,0.00240
4796.10156,0.01019
4798.03002,0.01296
4799.95849,0.01630
4801.88696,0.01449
4803.81543,0.00291
4805.74390,-0.00693
4807.67237,-0.00291
4809.60084,0.01110
4811.52930,0.02119
4813.45777,0.02084
4815.38624,0.01242
4817.31471,0.00110
4819.24318,-0.00722
4821.17165,-0.00796
4823.10012,-0.00147
4825.02859,0.00683
4826.95705,0.01559
4828.88552,0.02176
4830.81399,0.02114
4832.74246,0.01705
4834.67093,0.01034
4836.59940,-0.00229
4838.52787,-0.00997
4840.45633,-0.00479
4842.38480,0.00094
4844.31327,0.00299
4846.24174,0.00329
4848.17021,-0.00075
4850.09868,-0.00352
4852.02715,-0.00132
4853.95562,-0.00082
4855.88408,-0.00220
4857.81255,0.00154
4859.74102,0.00829
4861.66949,0.00859
4863.59796,0.00044
4865.52643,-0.00866
4867.45490,-0.01441
4869.38336,-0.01065
4871.31183,0.00183
4873.24030,0.00568
4875.16877,0.00413
4877.09724,0.01168
4879.02571,0.01794
4880.95418,0.01493
4882.88265,0.00684
4884.81111,-0.00199
4886.73958,-0.01411
4888.66805,-0.02484
4890.59652,-0.01914
4892.52499,-0.00029
4894.45346,0.00689
4896.38193,-0.00104
4898.31039,-0.00351
4900.23886,0.00489
4902.16733,0.00955
4904.09580,0.00216
4906.02427,-0.00932
4907.95274,-0.00958
4909.88121,0.00379
4911.80967,0.00918
4913.73814,-0.00150
4915.66661,-0.01192
4917.59508,-0.01595
4919.52355,-0.01499
4921.45202,-0.00214
4923.38049,0.00984
4925.30896,0.00574
4927.23742,0.00613
4929.16589,0.01987
4931.09436,0.02430
4933.02283,0.01361
4934.95130,0.00327
4936.87977,-0.00011
4938.80824,0.00378
4940.73670,0.01072
4942.66517,0.00758
4944.59364,-0.00670
4946.52211,-0.01339
4948.45058,-0.00105
4950.37905,0.01903
4952.30752,0.03301
4954.23599,0.04238
4956.16445,0.04870
4958.09292,0.04166
4960.02139,0.02131
4961.94986,0.00716
4963.87833,0.01114
4965.80680,0.01889
4967.73527,0.01450
4969.66373,0.00526
4971.59220,0.00017
4973.52067,0.00079
4975.44914,0.00376
4977.37761,0.00402
4979.30608,0.01084
4981.23455,0.02331
4983.16302,0.02557
4985.09148,0.01526
4987.01995,0.00057
4988.94842,-0.00786
4990.87689,-0.00945
4992.80536,-0.01656
4994.73383,-0.02471
4996.66230,-0.01521
4998.59076,0.00220
5000.51923,0.00821
5002.44770,0.00776
5004.37617,0.00871
5006.30464,0.00859
5008.23311,0.00838
5010.16158,0.00740
5012.09005,-0.00225
5014.01851,-0.00996
5015.94698,-0.00090
5017.87545,0.01459
5019.80392,0.02802
5021.73239,0.03589
5023.66086,0.03073
5025.58933,0.02064
5027.51779,0.01545
5029.44626,0.01459
5031.37473,0.01819
5033.30320,0.01757
5035.23167,0.00427
5037.16014,-0.00869
5039.08861,-0.00359
5041.01708,0.01220
5042.94554,0.02029
5044.87401,0.02732
5046.80248,0.04173
5048.73095,0.04595
5050.65942,0.02789
5052.58789,0.00635
5054.51636,0.00353
5056.44482,0.01155
5058.37329,0.01135
5060.30176,0.00660
5062.23023,0.00714
5064.15870,0.01012
5066.08717,0.01487
5068.01564,0.01433
5069.94410,0.00316
5071.87257,0.00331
5073.80104,0.01969
5075.72951,0.02393
5077.65798,0.01487
5079.58645,0.00929
5081.51492,0.00442
5083.44339,-0.00517
5085.37185,-0.01687
5087.30032,-0.01853
5089.22879,-0.00264
5091.15726,0.01790
5093.08573,0.02817
5095.01420,0.02470
5096.94267,0.01607
5098.87113,0.01193
5100.79960,0.00813
5102.72807,0.00777
5104.65654,0.01663
5106.58501,0.02231
5108.51348,0.02008
5110.44195,0.01271
5112.37042,-0.00257
5114.29888,-0.01729
5116.22735,-0.01785
5118.15582,-0.00480
5120.08429,0.00663
5122.01276,0.00878
5123.94123,0.01311
5125.86970,0.02425
5127.79816,0.03000
5129.72663,0.02860
5131.65510,0.02817
5133.58357,0.02797
5135.51204,0.02675
5137.44051,0.02709
5139.36898,0.02972
5141.29745,0.02788
5143.22591,0.02294
5145.15438,0.02629
5147.08285,0.02672
5149.01132,0.01875
5150.93979,0.01824
5152.86826,0.01993
5154.79673,0.02048
5156.72519,0.03056
5158.65366,0.04061
5160.58213,0.03735
5162.51060,0.02629
5164.43907,0.02447
5166.36754,0.02876
5168.29601,0.02109
5170.22448,0.00678
5172.15294,-0.00042
5174.08141,0.00130
5176.00988,0.00577
5177.93835,0.01245
5179.86682,0.02464
5181.79529,0.03074
5183.72376,0.02659
5185.65222,0.02314
5187.58069,0.02061
5189.50916,0.01695
5191.43763,0.01643
5193.36610,0.01770
5195.29457,0.02421
5197.22304,0.03777
5199.15151,0.04316
5201.07997,0.03945
5203.00844,0.04019
5204.93691,0.04281
5206.86538,0.03079
5208.79385,0.00832
5210.72232,0.00398
5212.65079,0.01805
5214.57925,0.02819
5216.50772,0.02018
5218.43619,0.00038
5220.36466,-0.00733
5222.29313,-0.00255
5224.22160,0.00359
5226.15007,0.01759
5228.07854,0.02969
5230.00700,0.02887
5231.93547,0.03343
5233.86394,0.04981
5235.79241,0.05379
5237.72088,0.04679
5239.64935,0.04944
5241.57782,0.05666
5243.50628,0.06428
5245.43475,0.06095
5247.36322,0.03299
5249.29169,0.01865
5251.22016,0.03771
5253.14863,0.04800
5255.07710,0.03819
5257.00556,0.03238
5258.93403,0.03840
5260.86250,0.04253
5262.79097,0.03514
5264.71944,0.04079
5266.64791,0.06735
5268.57638,0.07913
5270.50485,0.06442
5272.43331,0.04428
5274.36178,0.03667
5276.29025,0.04047
5278.21872,0.03952
5280.14719,0.02923
5282.07566,0.02207
5284.00413,0.01928
5285.93259,0.01973
5287.86106,0.03034
5289.78953,0.04855
5291.71800,0.05896
5293.64647,0.05425
5295.57494,0.05194
5297.50341,0.06240
5299.43188,0.06340
5301.36034,0.04210
5303.28881,0.02367
5305.21728,0.02247
5307.14575,0.03302
5309.07422,0.05255
5311.00269,0.07035
5312.93116,0.07854
5314.85962,0.07602
5316.78809,0.06808
5318.71656,0.06479
5320.64503,0.05973
5322.57350,0.04547
5324.50197,0.03588
5326.43044,0.03900
5328.35891,0.04313
5330.28737,0.04303
5332.21584,0.03859
5334.14431,0.03212
5336.07278,0.03623
5338.00125,0.04921
5339.92972,0.06015
5341.85819,0.07824
5343.78665,0.09229
5345.71512,0.06783
5347.64359,0.03139
5349.57206,0.02699
5351.50053,0.05443
5353.42900,0.07475
5355.35747,0.05597
5357.28594,0.03324
5359.21440,0.03437
5361.14287,0.04901
5363.07134,0.06068
5364.99981,0.05582
5366.92828,0.04771
5368.85675,0.05805
5370.78522,0.07353
5372.71368,0.07308
5374.64215,0.06169
5376.57062,0.05865
5378.49909,0.07387
5380.42756,0.10097
5382.35603,0.12239
5384.28450,0.11672
5386.21297,0.08565
5388.14143,0.06969
5390.06990,0.08541
5391.99837,0.09580
5393.92684,0.07039
5395.85531,0.03732
5397.78378,0.03674
5399.71225,0.06483
5401.64071,0.08651
5403.56918,0.08810
5405.49765,0.08865
5407.42612,0.09108
5409.35459,0.09328
5411.28306,0.10038
5413.21153,0.09666
5415.13999,0.07489
5417.06846,0.05792
5418.99693,0.05576
5420.92540,0.05640
5422.85387,0.05068
5424.78234,0.05190
5426.71081,0.06730
5428.63928,0.07524
5430.56774,0.07510
5432.49621,0.08918
5434.42468,0.09278
5436.35315,0.07237
5438.28162,0.06145
5440.21009,0.07078
5442.13856,0.09449
5444.06702,0.10700
5445.99549,0.09160
5447.92396,0.07105
5449.85243,0.05845
5451.78090,0.05457
5453.70937,0.06497
5455.63784,0.07945
5457.56631,0.08437
5459.49477,0.08083
5461.42324,0.07024
5463.35171,0.05909
5465.28018,0.04930
5467.20865,0.03785
5469.13712,0.04021
5471.06559,0.05537
5472.99405,0.06619
5474.92252,0.07410
5476.85099,0.07705
5478.77946,0.06846
5480.70793,0.05545
5482.63640,0.04946
5484.56487,0.05824
5486.49334,0.07685
5488.42180,0.08395
5490.35027,0.07342
5492.27874,0.05903
5494.20721,0.04873
5496.13568,0.05282
5498.06415,0.05986
5499.99262,0.04938
5501.92108,0.04066
5503.84955,0.04783
5505.77802,0.05784
5507.70649,0.06789
5509.63496,0.07297
5511.56343,0.06772
5513.49190,0.06704
5515.42037,0.07451
5517.34883,0.06622
5519.27730,0.03923
5521.20577,0.02469
5523.13424,0.04030
5525.06271,0.06469
5526.99118,0.08031
5528.91965,0.09200
5530.84811,0.09552
5532.77658,0.08380
5534.70505,0.06290
5536.63352,0.05657
5538.56199,0.07562
5540.49046,0.09593
5542.41893,0.09424
5544.34740,0.07459
5546.27586,0.05876
5548.20433,0.06569
5550.13280,0.09453
5552.06127,0.11260
5553.98974,0.09655
5555.91821,0.07117
5557.84668,0.06119
5559.77514,0.06381
5561.70361,0.07586
5563.63208,0.08544
5565.56055,0.08370
5567.48902,0.08751
5569.41749,0.09268
5571.34596,0.07645
5573.27443,0.04950
5575.20289,0.04863
5577.13136,0.07497
5579.05983,0.09340
5580.98830,0.09781
5582.91677,0.09958
5584.84524,0.08855
5586.77371,0.07061
5588.70217,0.06918
5590.63064,0.07238
5592.55911,0.06101
5594.48758,0.05636
5596.41605,0.07673
5598.34452,0.09610
5600.27299,0.08343
5602.20145,0.06026
5604.12992,0.05851
5606.05839,0.06618
5607.98686,0.06072
5609.91533,0.04897
5611.84380,0.05308
5613.77227,0.06256
5615.70074,0.06206
5617.62920,0.08124
5619.55767,0.12876
5621.48614,0.15750
5623.41461,0.15438
5625.34308,0.14870
5627.27155,0.13704
5629.20002,0.10493
5631.12848,0.07491
5633.05695,0.07926
5634.98542,0.10736
5636.91389,0.11235
5638.84236,0.09118
5640.77083,0.07846
5642.69930,0.08371
5644.62777,0.08917
5646.55623,0.07928
5648.48470,0.07342
5650.41317,0.08541
5652.34164,0.08417
5654.27011,0.06661
5656.19858,0.05110
5658.12705,0.03224
5660.05551,0.02786
5661.98398,0.04777
5663.91245,0.06188
5665.84092,0.06572
5667.76939,0.07123
5669.69786,0.06767
5671.62633,0.05016
5673.55480,0.03991
5675.48326,0.05335
5677.41173,0.08334
5679.34020,0.09962
5681.26867,0.08688
5683.19714,0.08039
5685.12561,0.09689
5687.05408,0.10675
5688.98254,0.09853
5690.91101,0.08649
5692.83948,0.07970
5694.76795,0.07670
5696.69642,0.07292
5698.62489,0.07066
5700.55336,0.07833
5702.48183,0.08630
5704.41029,0.07948
5706.33876,0.07189
5708.26723,0.07128
5710.19570,0.06118
5712.12417,0.04326
5714.05264,0.03968
5715.98111,0.05510
5717.90957,0.06540
5719.83804,0.06051
5721.76651,0.05398
5723.69498,0.04483
5725.62345,0.04781
5727.55192,0.08303
5729.48039,0.11939
5731.40886,0.12955
5733.33732,0.12674
5735.26579,0.11470
5737.19426,0.08390
5739.12273,0.05118
5741.05120,0.04990
5742.97967,0.07230
5744.90814,0.07968
5746.83660,0.06237
5748.76507,0.04766
5750.69354,0.05426
5752.62201,0.06412
5754.55048,0.05636
5756.47895,0.03989
5758.40742,0.03233
5760.33588,0.05336
5762.26435,0.10609
5764.19282,0.14523
5766.12129,0.14077
5768.04976,0.11367
5769.97823,0.10111
5771.90670,0.12603
5773.83517,0.15320
5775.76363,0.14696
5777.69210,0.12895
5779.62057,0.12360
5781.54904,0.11393
5783.47751,0.08804
5785.40598,0.07348
5787.33445,0.07227
5789.26291,0.06390
5791.19138,0.06955
5793.11985,0.09978
5795.04832,0.11843
5796.97679,0.11554
5798.90526,0.11256
5800.83373,0.10687
5802.76220,0.10519
5804.69066,0.10925
5806.61913,0.09589
5808.54760,0.07574
5810.47607,0.06572
5812.40454,0.06504
5814.33301,0.07955
5816.26148,0.10646
5818.18994,0.10930
5820.11841,0.07032
5822.04688,0.04602
5823.97535,0.07261
5825.90382,0.10453
5827.83229,0.10868
5829.76076,0.10109
5831.68923,0.09177
5833.61769,0.08532
5835.54616,0.08818
5837.47463,0.08628
5839.40310,0.07509
5841.33157,0.07568
5843.26004,0.09509
5845.18851,0.09600
5847.11697,0.07410
5849.04544,0.07902
5850.97391,0.11460
5852.90238,0.12926
5854.83085,0.09987
5856.75932,0.05928
5858.68779,0.04550
5860.61626,0.04656
5862.54472,0.04616
5864.47319,0.06240
5866.40166,0.08876
5868.33013,0.07854
5870.25860,0.03899
5872.18707,0.03226
5874.11554,0.07911
5876.04400,0.13831
5877.97247,0.15418
5879.90094,0.11347
5881.82941,0.05622
5883.75788,0.02130
5885.68635,0.01703
5887.61482,0.03696
5889.54329,0.06605
5891.47175,0.08519
5893.40022,0.08844
5895.32869,0.09481
5897.25716,0.09994
5899.18563,0.07648
5901.11410,0.04106
5903.04257,0.03164
5904.97103,0.04161
5906.89950,0.04863
5908.82797,0.05084
5910.75644,0.03857
5912.68491,0.02296
5914.61338,0.02183
5916.54185,0.01680
5918.47032,0.01071
5920.39878,0.02966
5922.32725,0.06076
5924.25572,0.06352
5926.18419,0.05106
5928.11266,0.07878
5930.04113,0.12976
5931.96960,0.15401
5933.89806,0.15203
5935.82653,0.14204
5937.75500,0.13687
5939.68347,0.12058
5941.61194,0.07807
5943.54041,0.05841
5945.46888,0.09296
5947.39734,0.14611
5949.32581,0.18101
5951.25428,0.16495
5953.18275,0.09768
5955.11122,0.05797
5957.03969,0.08821
5958.96816,0.12332
5960.89663,0.11441
5962.82509,0.08554
5964.75356,0.07452
5966.68203,0.09052
5968.61050,0.09693
5970.53897,0.07398
5972.46744,0.04862
5974.39591,0.03505
5976.32437,0.03442
5978.25284,0.05732
5980.18131,0.09224
5982.10978,0.10573
5984.03825,0.08552
5985.96672,0.05554
5987.89519,0.04398
5989.82366,0.06114
5991.75212,0.09133
5993.68059,0.10620
5995.60906,0.10332
5997.53753,0.08268
5999.46600,0.04548
6001.39447,0.03098
6003.32294,0.05807
6005.25140,0.08577
6007.17987,0.09450
6009.10834,0.10357
6011.03681,0.10667
6012.96528,0.09886
6014.89375,0.09896
6016.82222,0.09153
6018.75069,0.04865
6020.67915,0.02649
6022.60762,0.06411
6024.53609,0.09006
6026.46456,0.05782
6028.39303,0.01043
6030.32150,-0.00278
6032.24997,0.02006
6034.17843,0.06017
6036.10690,0.07354
6038.03537,0.05822
6039.96384,0.06782
6041.89231,0.09109
6043.82078,0.08667
6045.74925,0.06060
6047.67772,0.02834
6049.60618,0.00804
6051.53465,0.02121
6053.46312,0.04484
6055.39159,0.05781
6057.32006,0.07158
6059.24853,0.08434
6061.17700,0.10289
6063.10546,0.14405
6065.03393,0.17741
6066.96240,0.15814
6068.89087,0.11211
6070.81934,0.10104
6072.74781,0.11559
6074.67628,0.11953
6076.60475,0.11798
6078.53321,0.11310
6080.46168,0.11558
6082.39015,0.13499
6084.31862,0.12261
6086.24709,0.05830
6088.17556,0.00011
6090.10403,-0.01041
6092.03249,0.04229
6093.96096,0.13052
6095.88943,0.16823
6097.81790,0.11850
6099.74637,0.05467
6101.67484,0.07052
6103.60331,0.13194
6105.53177,0.14267
6107.46024,0.11182
6109.38871,0.10044
6111.31718,0.09930
6113.24565,0.08978
6115.17412,0.08240
6117.10259,0.07986
6119.03106,0.07455
6120.95952,0.05221
6122.88799,0.04231
6124.81646,0.06953
6126.74493,0.08738
6128.67340,0.07551
6130.60187,0.07591
6132.53034,0.09414
6134.45880,0.11307
6136.38727,0.12545
6138.31574,0.12989
6140.24421,0.15133
6142.17268,0.19329
6144.10115,0.19874
6146.02962,0.14236
6147.95809,0.06545
6149.88655,0.01582
6151.81502,0.01491
6153.74349,0.04106
6155.67196,0.06435
6157.60043,0.07442
6159.52890,0.06421
6161.45737,0.03680
6163.38583,0.02234
6165.31430,0.05018
6167.24277,0.07980
6169.17124,0.05595
6171.09971,0.01068
6173.02818,0.00727
6174.95665,0.04404
6176.88512,0.07016
6178.81358,0.03929
6180.74205,-0.00319
6182.67052,0.01850
6184.59899,0.06522
6186.52746,0.07784
6188.45593,0.08058
6190.38440,0.10609
6192.31286,0.13932
6194.24133,0.15319
6196.16980,0.13832
6198.09827,0.11215
6200.02674,0.09086
6201.95521,0.06334
6203.88368,0.01614
6205.81215,-0.01682
6207.74061,-0.01022
6209.66908,0.01064
6211.59755,0.03338
6213.52602,0.04805
6215.45449,0.03632
6217.38296,0.02484
6219.31143,0.05944
6221.23989,0.12400
6223.16836,0.14295
6225.09683,0.09320
6227.02530,0.03864
6228.95377,0.00313
6230.88224,-0.00678
6232.81071,0.03874
6234.73918,0.09361
6236.66764,0.12427
6238.59611,0.15667
6240.52458,0.14272
6242.45305,0.07459
6244.38152,0.04978
6246.30999,0.07294
6248.23846,0.08220
6250.16692,0.07125
6252.09539,0.08298
6254.02386,0.09235
6255.95233,0.03467
6257.88080,-0.01048
6259.80927,0.03810
6261.73774,0.10639
6263.66621,0.12415
6265.59467,0.09834
6267.52314,0.07188
6269.45161,0.06098
6271.38008,0.04673
6273.30855,0.03074
6275.23702,0.03616
6277.16549,0.05661
6279.09395,0.04708
6281.02242,0.02064
6282.95089,0.02619
6284.87936,0.04278
6286.80783,0.05557
6288.73630,0.08041
6290.66477,0.09592
6292.59323,0.07913
6294.52170,0.03796
6296.45017,-0.00601
6298.37864,-0.02925
6300.30711,0.00519
6302.23558,0.09204
6304.16405,0.14068
6306.09252,0.12781
6308.02098,0.07533
6309.94945,-0.01462
6311.87792,-0.05529
6313.80639,0.00850
6315.73486,0.07208
6317.66333,0.08263
6319.59180,0.08868
6321.52026,0.08354
6323.44873,0.03662
6325.37720,-0.00221
6327.30567,0.00926
6329.23414,0.03517
6331.16261,0.03780
6333.09108,0.03919
6335.01955,0.05580
6336.94801,0.05693
6338.87648,0.02380
6340.80495,-0.00099
6342.73342,0.02348
6344.66189,0.05872
6346.59036,0.05683
6348.51883,0.02876
6350.44729,0.01579
6352.37576,0.05088
6354.30423,0.10059
6356.23270,0.11907
6358.16117,0.09175
6360.08964,0.05698
6362.01811,0.06980
6363.94658,0.08970
6365.87504,0.05332
6367.80351,-0.00796
6369.73198,-0.02981
6371.66045,-0.02448
6373.58892,-0.00768
6375.51739,0.05747
6377.44586,0.12092
6379.37432,0.09677
6381.30279,0.02260
6383.23126,0.01030
6385.15973,0.07799
6387.08820,0.12256
6389.01667,0.11624
6390.94514,0.11377
6392.87361,0.12351
6394.80207,0.09373
6396.73054,0.04297
6398.65901,0.02318
6400.58748,0.04856
6402.51595,0.08852
6404.44442,0.09569
6406.37289,0.07851
6408.30135,0.08110
6410.22982,0.09159
6412.15829,0.08258
6414.08676,0.06553
6416.01523,0.04504
6417.94370,0.02815
6419.87217,0.02359
6421.80064,0.02287
6423.72910,0.02789
6425.65757,0.05041
6427.58604,0.09844
6429.51451,0.15246
6431.44298,0.15126
6433.37145,0.07817
6435.29992,0.01593
6437.22838,0.03399
6439.15685,0.09496
6441.08532,0.09728
6443.01379,0.04005
6444.94226,0.01990
6446.87073,0.04810
6448.79920,0.04665
6450.72766,-0.01429
6452.65613,-0.05700
6454.58460,-0.00288
6456.51307,0.10218
6458.44154,0.13597
6460.37001,0.08448
6462.29848,0.05782
6464.22695,0.08960
6466.15541,0.10764
6468.08388,0.09522
6470.01235,0.09409
6471.94082,0.11838
6473.86929,0.13647
6475.79776,0.13434
6477.72623,0.16366
6479.65469,0.21957
6481.58316,0.20197
6483.51163,0.11384
6485.44010,0.05181
6487.36857,0.05129
6489.29704,0.09191
6491.22551,0.12575
6493.15398,0.13571
6495.08244,0.14203
6497.01091,0.12546
6498.93938,0.07191
6500.86785,0.05277
6502.79632,0.09129
6504.72479,0.09187
6506.65326,0.06591
6508.58172,0.06352
6510.51019,0.03910
6512.43866,0.00151
6514.36713,0.00881
6516.29560,0.04044
6518.22407,0.09185
6520.15254,0.14548
6522.08101,0.11761
6524.00947,0.02609
6525.93794,0.00924
6527.86641,0.06984
6529.79488,0.10261
6531.72335,0.07554
6533.65182,0.03286
6535.58029,0.03350
6537.50875,0.08425
6539.43722,0.14143
6541.36569,0.14875
6543.29416,0.11784
6545.22263,0.11860
6547.15110,0.13329
6549.07957,0.11283
6551.00804,0.05490
6552.93650,0.00742
6554.86497,0.02658
6556.79344,0.06145
6558.72191,0.04386
6560.65038,0.02667
6562.57885,0.07164
6564.50732,0.12659
6566.43578,0.11680
6568.36425,0.07076
6570.29272,0.04591
6572.22119,0.05408
6574.14966,0.06618
6576.07813,0.07600
6578.00660,0.09512
6579.93507,0.08562
6581.86353,0.02399
6583.79200,-0.03717
6585.72047,-0.02963
6587.64894,0.00995
6589.57741,-0.00260
6591.50588,-0.03288
6593.43435,-0.00065
6595.36281,0.05058
6597.29128,0.02629
6599.21975,-0.04485
6601.14822,-0.02774
6603.07669,0.06788
6605.00516,0.07839
6606.93363,0.01393
6608.86210,-0.00489
6610.79056,0.04262
6612.71903,0.08412
6614.64750,0.09802
6616.57597,0.11905
6618.50444,0.12295
6620.43291,0.09621
6622.36138,0.08850
6624.28984,0.09957
6626.21831,0.09641
6628.14678,0.10560
6630.07525,0.12888
6632.00372,0.10739
6633.93219,0.04319
6635.86066,0.01079
6637.78912,0.04660
6639.71759,0.09378
6641.64606,0.10836
6643.57453,0.10191
6645.50300,0.12661
6647.43147,0.15364
6649.35994,0.12741
6651.28841,0.08740
6653.21687,0.05443
6655.14534,-0.00120
6657.07381,-0.05897
6659.00228,-0.02765
6660.93075,0.04329
6662.85922,0.05226
6664.78769,0.02407
6666.71615,0.00647
6668.64462,0.01020
6670.57309,-0.01240
6672.50156,-0.03911
6674.43003,0.01712
6676.35850,0.07717
6678.28697,0.06463
6680.21544,0.03979
6682.14390,0.04110
6684.07237,0.03681
6686.00084,0.02924
6687.92931,0.04686
6689.85778,0.06042
6691.78625,0.02413
6693.71472,-0.03988
6695.64318,-0.07382
6697.57165,-0.06506
6699.50012,-0.04597
6701.42859,-0.02559
6703.35706,-0.01862
6705.28553,-0.00774
6707.21400,0.01757
6709.14247,0.01759
6711.07093,0.01678
6712.99940,0.03795
6714.92787,0.04919
6716.85634,0.04813
6718.78481,0.04684
6720.71328,0.04217
6722.64175,0.04907
6724.57021,0.06285
6726.49868,0.06898
6728.42715,0.06119
6730.35562,0.00568
6732.28409,-0.07413
6734.21256,-0.07692
6736.14103,-0.01766
6738.06950,0.00302
6739.99796,0.01225
6741.92643,0.05215
6743.85490,0.07715
6745.78337,0.07022
6747.71184,0.03772
6749.64031,-0.00241
6751.56878,-0.01689
6753.49724,-0.01443
6755.42571,-0.02349
6757.35418,-0.03528
6759.28265,-0.00571
6761.21112,0.05827
6763.13959,0.04243
6765.06806,-0.03496
6766.99653,-0.03884
6768.92499,0.04188
6770.85346,0.13579
6772.78193,0.18085
6774.71040,0.17947
6776.63887,0.18609
6778.56734,0.17895
6780.49581,0.11950
6782.42427,0.04866
6784.35274,0.01458
6786.28121,0.01020
6788.20968,0.03436
6790.13815,0.07964
6792.06662,0.08826
6793.99509,0.04396
6795.92355,0.00143
6797.85202,0.00415
6799.78049,0.05647
6801.70896,0.15335
6803.63743,0.23327
6805.56590,0.22870
6807.49437,0.17386
6809.42284,0.12369
6811.35130,0.10432
6813.27977,0.09893
6815.20824,0.09089
6817.13671,0.09723
6819.06518,0.11848
6820.99365,0.15548
6822.92212,0.17636
6824.85058,0.12518
6826.77905,0.07335
6828.70752,0.07927
6830.63599,0.08500
6832.56446,0.05977
6834.49293,0.00753
6836.42140,-0.02720
6838.34987,0.01635
6840.27833,0.05276
6842.20680,0.02066
6844.13527,-0.00058
6846.06374,0.04829
6847.99221,0.07563
6849.92068,0.02178
6851.84915,0.00747
6853.77761,0.05375
6855.70608,0.06746
6857.63455,-0.00679
6859.56302,-0.08909
6861.49149,-0.08794
6863.41996,-0.03035
6865.34843,0.01115
6867.27690,0.00376
6869.20536,-0.05958
6871.13383,-0.11978
6873.06230,-0.10232
6874.99077,-0.04546
6876.91924,-0.03052
6878.84771,-0.03637
6880.77618,-0.03493
6882.70464,-0.04137
6884.63311,-0.05014
6886.56158,-0.05457
6888.49005,-0.05640
6890.41852,-0.06944
6892.34699,-0.08482
6894.27546,-0.05314
6896.20393,0.03386
6898.13239,0.11194
6900.06086,0.12754
6901.98933,0.13495
6903.91780,0.17978
6905.84627,0.21059
6907.77474,0.14880
6909.70321,0.07463
6911.63167,0.07548
6913.56014,0.07094
6915.48861,0.06790
6917.41708,0.14804
6919.34555,0.21072
6921.27402,0.15472
6923.20249,0.07914
6925.13096,0.08472
6927.05942,0.16729
6928.98789,0.22329
6930.91636,0.14339
6932.84483,0.02538
6934.77330,0.02449
6936.70177,0.05020
6938.63024,0.03323
6940.55870,0.04781
6942.48717,0.10763
6944.41564,0.12956
6946.34411,0.08635
6948.27258,0.05410
6950.20105,0.06741
6952.12952,0.03590
6954.05799,-0.02496
6955.98645,-0.04383
6957.91492,-0.03602
6959.84339,-0.01881
6961.77186,-0.01147
6963.70033,-0.00713
6965.62880,0.00357
6967.55727,0.00538
6969.48573,0.01360
6971.41420,0.04867
6973.34267,0.08573
6975.27114,0.09216
6977.19961,0.11192
6979.12808,0.17900
6981.05655,0.20728
6982.98501,0.14559
6984.91348,0.10844
6986.84195,0.12211
6988.77042,0.07580
6990.69889,0.03406
6992.62736,0.08971
6994.55583,0.13424
6996.48430,0.07580
6998.41276,-0.00083
7000.34123,-0.02280
7002.26970,-0.03648
7004.19817,-0.05218
7006.12664,-0.02944
7008.05511,-0.01011
7009.98358,-0.03985
7011.91204,-0.01383
7013.84051,0.06212
7015.76898,0.03072
7017.69745,-0.06379
7019.62592,-0.08816
7021.55439,-0.05948
7023.48286,-0.06150
7025.41133,-0.04982
7027.33979,0.02673
7029.26826,0.08768
7031.19673,0.07365
7033.12520,0.02175
7035.05367,0.03734
7036.98214,0.12553
7038.91061,0.13531
7040.83907,0.08557
7042.76754,0.01864
7044.69601,-0.03957
7046.62448,-0.02313
7048.55295,0.00415
7050.48142,-0.01510
7052.40989,-0.00725
7054.33836,0.04203
7056.26682,0.05396
7058.19529,-0.01352
7060.12376,-0.08004
7062.05223,-0.02097
7063.98070,0.09735
7065.90917,0.08763
7067.83764,0.00800
7069.76610,0.02541
7071.69457,0.12107
7073.62304,0.11537
7075.55151,0.03094
7077.47998,0.02062
7079.40845,0.10708
7081.33692,0.11823
7083.26539,-0.00475
7085.19385,-0.06983
7087.12232,-0.04113
7089.05079,-0.03065
7090.97926,-0.06448
7092.90773,-0.08144
7094.83620,-0.09159
7096.76467,-0.11582
7098.69313,-0.09785
7100.62160,0.01356
7102.55007,0.13002
7104.47854,0.10960
7106.40701,-0.02691
7108.33548,-0.11164
7110.26395,-0.06964
7112.19242,0.01803
7114.12088,0.05836
7116.04935,0.08169
7117.97782,0.10721
7119.90629,0.11338
7121.83476,0.10423
7123.76323,0.08146
7125.69170,0.07406
7127.62016,0.08294
7129.54863,0.05663
7131.47710,0.04361
7133.40557,0.10582
7135.33404,0.15142
7137.26251,0.12367
7139.19098,0.07865
7141.11944,0.09241
7143.04791,0.11192
7144.97638,0.07090
7146.90485,0.08194
7148.83332,0.12338
7150.76179,0.11341
7152.69026,0.09825
7154.61873,0.09739
7156.54719,0.00678
7158.47566,-0.18891
7160.40413,-0.28924
7162.33260,-0.16614
7164.26107,0.04040
7166.18954,0.15511
7168.11801,0.11692
7170.04647,0.02172
7171.97494,0.06748
7173.90341,0.23314
7175.83188,0.30723
7177.76035,0.22375
7179.68882,0.12640
7181.61729,0.07645
7183.54576,0.07554
7185.47422,0.16864
7187.40269,0.27775
7189.33116,0.29180
7191.25963,0.21918
7193.18810,0.17094
7195.11657,0.19247
7197.04504,0.21674
7198.97350,0.17517
7200.90197,0.11557
7202.83044,0.11981
7204.75891,0.21745
7206.68738,0.30324
7208.61585,0.25652
7210.54432,0.11658
7212.47279,0.05885
7214.40125,0.13936
7216.32972,0.15861
7218.25819,0.06310
7220.18666,0.02763
7222.11513,-0.02151
7224.04360,-0.07140
7225.97207,0.04217
7227.90053,0.25583
7229.82900,0.28827
7231.75747,0.13465
7233.68594,0.08939
7235.61441,0.10703
7237.54288,0.03526
7239.47135,-0.04963
7241.39982,-0.06327
7243.32828,-0.05450
7245.25675,-0.06892
7247.18522,-0.11689
7249.11369,-0.13642
7251.04216,-0.02710
7252.97063,0.10800
7254.89910,0.08843
7256.82756,0.07321
7258.75603,0.18796
7260.68450,0.36117
7262.61297,0.34223
7264.54144,0.14951
7266.46991,0.08175
7268.39838,0.15850
7270.32685,0.21579
7272.25531,0.14726
7274.18378,0.00964
7276.11225,-0.09196
7278.04072,-0.09198
7279.96919,0.09079
7281.89766,0.22317
7283.82613,0.16887
7285.75459,0.11292
7287.68306,0.08385
7289.61153,-0.00655
7291.54000,-0.11147
7293.46847,-0.10233
7295.39694,-0.02379
7297.32541,0.04085
7299.25387,0.06527
7301.18234,0.02852
7303.11081,-0.06478
7305.03928,-0.17076
7306.96775,-0.19780
7308.89622,-0.09866
7310.82469,-0.00235
7312.75316,-0.00893
7314.68162,-0.11910
7316.61009,-0.24905
7318.53856,-0.15384
7320.46703,0.14366
7322.39550,0.35551
7324.32397,0.34940
7326.25244,0.31189
7328.18090,0.24571
7330.10937,0.02647
7332.03784,-0.14332
7333.96631,-0.14435
7335.89478,-0.06481
7337.82325,-0.03454
7339.75172,-0.10833
7341.68019,-0.12615
7343.60865,-0.05941
7345.53712,-0.00751
7347.46559,0.03633
7349.39406,0.10641
7351.32253,0.12243
7353.25100,0.01083
7355.17947,-0.16483
7357.10793,-0.25847
7359.03640,-0.13022
7360.96487,-0.02480
7362.89334,-0.06292
7364.82181,-0.03708
7366.75028,0.02326
7368.67875,0.01870
7370.60722,0.00050
7372.53568,0.07341
7374.46415,0.24924
7376.39262,0.32210
7378.32109,0.25293
7380.24956,0.19134
7382.17803,0.19040
7384.10650,0.22819
7386.03496,0.22908
7387.96343,0.17685
7389.89190,0.12020
7391.82037,0.07779
7393.74884,0.06495
7395.67731,0.11927
7397.60578,0.15444
7399.53425,0.11164
7401.46271,0.06558
7403.39118,0.02459
7405.31965,-0.02179
7407.24812,-0.03689
7409.17659,-0.02641
7411.10506,0.00515
7413.03353,0.02606
7414.96199,-0.00344
7416.89046,-0.00280
7418.81893,0.12826
7420.74740,0.25121
7422.67587,0.21130
7424.60434,0.06954
7426.53281,-0.06438
7428.46128,-0.12887
7430.38974,-0.03840
7432.31821,0.15992
7434.24668,0.27811
7436.17515,0.23193
7438.10362,0.00934
7440.03209,-0.10260
7441.96056,0.08806
7443.88902,0.26510
7445.81749,0.22715
7447.74596,0.12282
7449.67443,0.04926
7451.60290,-0.05769
7453.53137,-0.14169
7455.45984,-0.15047
7457.38831,-0.16399
7459.31677,-0.09033
7461.24524,0.05723
7463.17371,0.04734
7465.10218,-0.01883
7467.03065,-0.00138
7468.95912,0.01358
7470.88759,-0.01806
7472.81605,0.00031
7474.74452,0.08396
7476.67299,0.10149
7478.60146,-0.01045
7480.52993,-0.10898
7482.45840,-0.04533
7484.38687,0.10971
7486.31533,0.14849
7488.24380,0.04219
7490.17227,-0.00700
7492.10074,0.04906
7494.02921,0.12131
7495.95768,0.16571
7497.88615,0.13103
