399.19301,0.69644
401.12148,0.15682
403.04995,0.06208
404.97842,-0.04096
406.90689,-0.01770
408.83536,0.01581
410.76382,-0.01377
412.69229,-0.07835
414.62076,-0.12210
416.54923,-0.04669
418.47770,0.13967
420.40617,0.12001
422.33464,0.01953
424.26311,0.03986
426.19157,0.05001
428.12004,0.00130
430.04851,-0.01256
431.97698,0.03508
433.90545,0.04350
435.83392,0.02505
437.76239,0.03772
439.69085,0.08276
441.61932,0.11880
443.54779,0.11022
445.47626,0.07453
447.40473,0.05122
449.33320,0.06971
451.26167,0.10123
453.19013,0.10944
455.11860,0.09632
457.04707,0.07025
458.97554,0.04891
460.90401,0.04994
462.83248,0.07070
464.76095,0.09188
466.68942,0.09413
468.61788,0.09075
470.54635,0.10676
472.47482,0.12009
474.40329,0.08211
476.33176,0.06634
478.26023,0.11441
480.18870,0.19202
482.11716,0.24548
484.04563,0.20912
485.97410,0.10207
487.90257,0.02033
489.83104,0.01634
491.75951,0.05975
493.68798,0.07520
495.61645,0.05364
497.54491,0.05611
499.47338,0.09220
501.40185,0.11725
503.33032,0.11374
505.25879,0.12500
507.18726,0.16756
509.11573,0.19629
511.04419,0.17205
512.97266,0.10703
514.90113,0.07387
516.82960,0.11651
518.75807,0.15388
520.68654,0.12852
522.61501,0.10229
524.54348,0.10871
526.47194,0.11384
528.40041,0.09246
530.32888,0.06714
532.25735,0.06091
534.18582,0.07859
536.11429,0.10705
538.04276,0.11191
539.97122,0.09928
541.89969,0.09085
543.82816,0.08016
545.75663,0.05898
547.68510,0.03789
549.61357,0.01987
551.54204,-0.00667
553.47051,-0.01831
555.39897,0.00354
557.32744,0.02631
559.25591,0.02811
561.18438,0.03232
563.11285,0.04929
565.04132,0.06609
566.96979,0.06421
568.89825,0.04153
570.82672,0.03174
572.75519,0.05139
574.68366,0.07555
576.61213,0.07593
578.54060,0.06278
580.46907,0.06020
582.39754,0.07228
584.32600,0.08930
586.25447,0.10427
588.18294,0.10566
590.11141,0.09689
592.03988,0.10066
593.96835,0.10503
595.89682,0.09429
597.82528,0.08207
599.75375,0.07315
601.68222,0.06418
603.61069,0.06548
605.53916,0.07551
607.46763,0.08021
609.39610,0.08575
611.32456,0.09202
613.25303,0.08455
615.18150,0.06373
617.10997,0.05518
619.03844,0.06881
620.96691,0.07379
622.89538,0.05977
624.82385,0.05514
626.75231,0.05787
628.68078,0.04890
630.60925,0.05431
632.53772,0.07162
634.46619,0.07314
636.39466,0.08245
638.32313,0.10686
640.25159,0.12035
642.18006,0.11843
644.10853,0.11156
646.03700,0.09990
647.96547,0.09168
649.89394,0.09669
651.82241,0.10410
653.75088,0.10109
655.67934,0.08888
657.60781,0.07369
659.53628,0.06609
661.46475,0.08211
663.39322,0.10803
665.32169,0.11998
667.25016,0.11874
669.17862,0.12011
671.10709,0.12850
673.03556,0.12654
674.96403,0.10694
676.89250,0.07953
678.82097,0.06150
680.74944,0.06601
682.67791,0.08639
684.60637,0.10007
686.53484,0.10538
688.46331,0.11183
690.39178,0.11024
692.32025,0.09813
694.24872,0.09339
696.17719,0.10086
698.10565,0.11160
700.03412,0.12060
701.96259,0.11832
703.89106,0.10902
705.81953,0.10830
707.74800,0.11477
709.67647,0.12408
711.60494,0.13365
713.53340,0.13511
715.46187,0.12218
717.39034,0.10423
719.31881,0.10160
721.24728,0.11228
723.17575,0.11530
725.10422,0.11143
727.03268,0.11053
728.96115,0.10576
730.88962,0.09351
732.81809,0.08960
734.74656,0.10128
736.67503,0.10952
738.60350,0.10619
740.53197,0.10724
742.46043,0.11466
744.38890,0.11769
746.31737,0.11725
748.24584,0.11592
750.17431,0.11380
752.10278,0.10923
754.03125,0.10436
755.95971,0.10514
757.88818,0.10601
759.81665,0.10414
761.74512,0.10480
763.67359,0.10823
765.60206,0.11124
767.53053,0.11200
769.45900,0.10951
771.38746,0.10597
773.31593,0.10824
775.24440,0.11492
777.17287,0.11640
779.10134,0.11445
781.02981,0.11959
782.95828,0.12288
784.88674,0.11409
786.81521,0.10660
788.74368,0.10245
790.67215,0.09423
792.60062,0.08753
794.52909,0.08883
796.45756,0.09573
798.38602,0.09979
800.31449,0.09954
802.24296,0.10109
804.17143,0.10891
806.09990,0.11605
808.02837,0.11202
809.95684,0.10560
811.88531,0.11131
813.81377,0.11953
815.74224,0.11155
817.67071,0.09843
819.59918,0.09969
821.52765,0.10515
823.45612,0.10358
825.38459,0.10421
827.31305,0.10997
829.24152,0.11359
831.16999,0.11672
833.09846,0.12064
835.02693,0.12213
836.95540,0.12242
838.88387,0.12019
840.81234,0.11421
842.74080,0.10742
844.66927,0.10489
846.59774,0.11010
848.52621,0.11514
850.45468,0.11687
852.38315,0.11924
854.31162,0.11666
856.24008,0.11111
858.16855,0.11072
860.09702,0.11300
862.02549,0.11460
863.95396,0.11488
865.88243,0.10878
867.81090,0.10333
869.73937,0.11062
871.66783,0.11519
873.59630,0.11228
875.52477,0.11620
877.45324,0.12046
879.38171,0.12100
881.31018,0.12147
883.23865,0.12049
885.16711,0.11867
887.09558,0.11892
889.02405,0.12319
890.95252,0.12898
892.88099,0.13385
894.80946,0.13359
896.73793,0.12678
898.66640,0.12164
900.59486,0.12208
902.52333,0.12219
904.45180,0.11892
906.38027,0.11822
908.30874,0.12240
910.23721,0.12291
912.16568,0.11955
914.09414,0.12281
916.02261,0.12961
917.95108,0.13289
919.87955,0.13734
921.80802,0.14492
923.73649,0.14783
925.66496,0.14117
927.59343,0.13039
929.52189,0.12257
931.45036,0.12052
933.37883,0.12299
935.30730,0.12773
937.23577,0.13325
939.16424,0.13552
941.09271,0.13200
943.02117,0.12790
944.94964,0.13036
946.87811,0.13389
948.80658,0.12905
950.73505,0.12110
952.66352,0.11986
954.59199,0.12335
956.52045,0.12298
958.44892,0.12212
960.37739,0.12813
962.30586,0.13468
964.23433,0.13431
966.16280,0.13042
968.09127,0.12839
970.01974,0.13047
971.94820,0.13404
973.87667,0.13322
975.80514,0.12887
977.73361,0.12572
979.66208,0.12658
981.59055,0.13080
983.51902,0.13087
985.44748,0.12570
987.37595,0.12612
989.30442,0.13244
991.23289,0.13504
993.16136,0.13463
995.08983,0.13666
997.01830,0.14055
998.94677,0.13954
1000.87523,0.13207
1002.80370,0.12664
1004.73217,0.12600
1006.66064,0.12764
1008.58911,0.12927
1010.51758,0.12739
1012.44605,0.12559
1014.37451,0.12974
1016.30298,0.13720
1018.23145,0.14236
1020.15992,0.14260
1022.08839,0.13887
1024.01686,0.13647
1025.94533,0.13835
1027.87380,0.13820
1029.80226,0.13051
1031.73073,0.12633
1033.65920,0.13704
1035.58767,0.15054
1037.51614,0.15047
1039.44461,0.14059
1041.37308,0.13342
1043.30154,0.13390
1045.23001,0.14172
1047.15848,0.15407
1049.08695,0.16167
1051.01542,0.15955
1052.94389,0.15098
1054.87236,0.14121
1056.80083,0.13954
1058.72929,0.14361
1060.65776,0.14304
1062.58623,0.14218
1064.51470,0.14371
1066.44317,0.14326
1068.37164,0.14449
1070.30011,0.15027
1072.22857,0.15325
1074.15704,0.15170
1076.08551,0.15306
1078.01398,0.15323
1079.94245,0.14798
1081.87092,0.14536
1083.79939,0.14683
1085.72786,0.14744
1087.65632,0.14690
1089.58479,0.14716
1091.51326,0.14848
1093.44173,0.14804
1095.37020,0.14497
1097.29867,0.14232
1099.22714,0.14073
1101.15560,0.14051
1103.08407,0.14053
1105.01254,0.13912
1106.94101,0.13968
1108.86948,0.14417
1110.79795,0.14793
1112.72642,0.14330
1114.65489,0.13341
1116.58335,0.13139
1118.51182,0.13927
1120.44029,0.14485
1122.36876,0.14134
1124.29723,0.13798
1126.22570,0.14083
1128.15417,0.14236
1130.08263,0.13869
1132.01110,0.13529
1133.93957,0.13954
1135.86804,0.14885
1137.79651,0.15169
1139.72498,0.14598
1141.65345,0.13815
1143.58191,0.13616
1145.51038,0.14405
1147.43885,0.15449
1149.36732,0.15895
1151.29579,0.15695
1153.22426,0.15208
1155.15273,0.14847
1157.08120,0.14802
1159.00966,0.14895
1160.93813,0.15067
1162.86660,0.15322
1164.79507,0.15518
1166.72354,0.15482
1168.65201,0.15089
1170.58048,0.14575
1172.50894,0.14355
1174.43741,0.14548
1176.36588,0.14799
1178.29435,0.14890
1180.22282,0.15064
1182.15129,0.15372
1184.07976,0.15581
1186.00823,0.15687
1187.93669,0.15870
1189.86516,0.16012
1191.79363,0.15979
1193.72210,0.15840
1195.65057,0.15806
1197.57904,0.15835
1199.50751,0.15610
1201.43597,0.15377
1203.36444,0.15580
1205.29291,0.16108
1207.22138,0.16310
1209.14985,0.15922
1211.07832,0.15514
1213.00679,0.15532
1214.93526,0.15808
1216.86372,0.16012
1218.79219,0.16109
1220.72066,0.16086
1222.64913,0.15774
1224.57760,0.15302
1226.50607,0.15029
1228.43454,0.14960
1230.36300,0.14932
1232.29147,0.15003
1234.21994,0.15252
1236.14841,0.15648
1238.07688,0.16029
1240.00535,0.16153
1241.93382,0.15957
1243.86229,0.15697
1245.79075,0.15610
1247.71922,0.15711
1249.64769,0.15752
1251.57616,0.15479
1253.50463,0.15205
1255.43310,0.15380
1257.36157,0.15723
1259.29003,0.15541
1261.21850,0.15043
1263.14697,0.15043
1265.07544,0.15314
1267.00391,0.15263
1268.93238,0.15299
1270.86085,0.15618
1272.78932,0.15704
1274.71778,0.15626
1276.64625,0.15674
1278.57472,0.15644
1280.50319,0.15431
1282.43166,0.15413
1284.36013,0.15739
1286.28860,0.16142
1288.21706,0.16549
1290.14553,0.16780
1292.07400,0.16585
1294.00247,0.16094
1295.93094,0.15660
1297.85941,0.15513
1299.78788,0.15213
1301.71634,0.14156
1303.64481,0.13036
1305.57328,0.13319
1307.50175,0.14774
1309.43022,0.15807
1311.35869,0.16263
1313.28716,0.16665
1315.21563,0.16763
1317.14409,0.16706
1319.07256,0.16611
1321.00103,0.16245
1322.92950,0.16001
1324.85797,0.16034
1326.78644,0.16090
1328.71491,0.16280
1330.64337,0.16273
1332.57184,0.15889
1334.50031,0.15763
1336.42878,0.15837
1338.35725,0.15800
1340.28572,0.15561
1342.21419,0.14539
1344.14266,0.12439
1346.07112,0.11143
1347.99959,0.12803
1349.92806,0.15175
1351.85653,0.15844
1353.78500,0.15910
1355.71347,0.16135
1357.64194,0.16345
1359.57040,0.16504
1361.49887,0.16714
1363.42734,0.16756
1365.35581,0.16580
1367.28428,0.16610
1369.21275,0.16683
1371.14122,0.16764
1373.06969,0.17105
1374.99815,0.17458
1376.92662,0.17511
1378.85509,0.17276
1380.78356,0.17005
1382.71203,0.17142
1384.64050,0.17363
1386.56897,0.17143
1388.49743,0.16931
1390.42590,0.17184
1392.35437,0.17786
1394.28284,0.18417
1396.21131,0.18552
1398.13978,0.18227
1400.06825,0.17792
1401.99672,0.17565
1403.92518,0.17529
1405.85365,0.17510
1407.78212,0.17707
1409.71059,0.18021
1411.63906,0.17970
1413.56753,0.17772
1415.49600,0.17957
1417.42446,0.18349
1419.35293,0.18325
1421.28140,0.18160
1423.20987,0.18184
1425.13834,0.18063
1427.06681,0.17956
1428.99528,0.17959
1430.92375,0.17894
1432.85221,0.18026
1434.78068,0.18349
1436.70915,0.18385
1438.63762,0.17994
1440.56609,0.17613
1442.49456,0.17446
1444.42303,0.17527
1446.35149,0.17760
1448.27996,0.18003
1450.20843,0.18219
1452.13690,0.18466
1454.06537,0.18751
1455.99384,0.19142
1457.92231,0.19232
1459.85077,0.18894
1461.77924,0.18866
1463.70771,0.19060
1465.63618,0.18911
1467.56465,0.18484
1469.49312,0.18503
1471.42159,0.19251
1473.35006,0.20266
1475.27852,0.20311
1477.20699,0.19557
1479.13546,0.18879
1481.06393,0.18555
1482.99240,0.18474
1484.92087,0.18662
1486.84934,0.19090
1488.77780,0.19416
1490.70627,0.19059
1492.63474,0.18559
1494.56321,0.18761
1496.49168,0.19571
1498.42015,0.19747
1500.34862,0.18851
1502.27709,0.18039
1504.20555,0.18077
1506.13402,0.19460
1508.06249,0.20960
1509.99096,0.20787
1511.91943,0.20240
1513.84790,0.19850
1515.77637,0.19920
1517.70483,0.20424
1519.63330,0.21057
1521.56177,0.21301
1523.49024,0.20929
1525.41871,0.20756
1527.34718,0.20433
1529.27565,0.19871
1531.20412,0.19673
1533.13258,0.19755
1535.06105,0.19738
1536.98952,0.20074
1538.91799,0.21533
1540.84646,0.23013
1542.77493,0.22088
1544.70340,0.20585
1546.63186,0.19424
1548.56033,0.18874
1550.48880,0.18758
1552.41727,0.18932
1554.34574,0.19574
1556.27421,0.20851
1558.20268,0.22667
1560.13115,0.22081
1562.05961,0.20314
1563.98808,0.19340
1565.91655,0.19059
1567.84502,0.19604
1569.77349,0.20326
1571.70196,0.20301
1573.63043,0.20144
1575.55889,0.20113
1577.48736,0.19700
1579.41583,0.19118
1581.34430,0.18656
1583.27277,0.18386
1585.20124,0.18445
1587.12971,0.18715
1589.05818,0.18979
1590.98664,0.19150
1592.91511,0.19266
1594.84358,0.19186
1596.77205,0.18674
1598.70052,0.18299
1600.62899,0.18571
1602.55746,0.18900
1604.48592,0.18779
1606.41439,0.18511
1608.34286,0.18395
1610.27133,0.18560
1612.19980,0.18955
1614.12827,0.19461
1616.05674,0.20044
1617.98521,0.20128
1619.91367,0.19905
1621.84214,0.20025
1623.77061,0.20088
1625.69908,0.19762
1627.62755,0.19446
1629.55602,0.19307
1631.48449,0.19470
1633.41295,0.19960
1635.34142,0.20588
1637.26989,0.20525
1639.19836,0.19894
1641.12683,0.19469
1643.05530,0.19685
1644.98377,0.20911
1646.91223,0.22581
1648.84070,0.22642
1650.76917,0.22267
1652.69764,0.22405
1654.62611,0.21338
1656.55458,0.19981
1658.48305,0.19449
1660.41152,0.19682
1662.33998,0.20225
1664.26845,0.20195
1666.19692,0.19906
1668.12539,0.20187
1670.05386,0.20878
1671.98233,0.21004
1673.91080,0.20803
1675.83926,0.20487
1677.76773,0.20227
1679.69620,0.20471
1681.62467,0.21118
1683.55314,0.21570
1685.48161,0.21131
1687.41008,0.20410
1689.33855,0.19899
1691.26701,0.19698
1693.19548,0.19923
1695.12395,0.20652
1697.05242,0.21421
1698.98089,0.21412
1700.90936,0.20876
1702.83783,0.20815
1704.76629,0.21037
1706.69476,0.20567
1708.62323,0.19544
1710.55170,0.19014
1712.48017,0.19267
1714.40864,0.20005
1716.33711,0.20873
1718.26558,0.20943
1720.19404,0.20132
1722.12251,0.19479
1724.05098,0.19062
1725.97945,0.18803
1727.90792,0.19016
1729.83639,0.19780
1731.76486,0.20490
1733.69332,0.20320
1735.62179,0.19624
1737.55026,0.19526
1739.47873,0.19714
1741.40720,0.19755
1743.33567,0.19728
1745.26414,0.19905
1747.19261,0.20186
1749.12107,0.20171
1751.04954,0.19806
1752.97801,0.19577
1754.90648,0.19658
1756.83495,0.19727
1758.76342,0.19498
1760.69189,0.19223
1762.62035,0.18851
1764.54882,0.18396
1766.47729,0.18454
1768.40576,0.19194
1770.33423,0.20093
1772.26270,0.20469
1774.19117,0.20077
1776.11964,0.19548
1778.04810,0.19335
1779.97657,0.19502
1781.90504,0.19707
1783.83351,0.19654
1785.76198,0.19395
1787.69045,0.19277
1789.61892,0.19501
1791.54738,0.19814
1793.47585,0.19870
1795.40432,0.19749
1797.33279,0.19725
1799.26126,0.19704
1801.18973,0.19379
1803.11820,0.18944
1805.04666,0.18817
1806.97513,0.19052
1808.90360,0.19459
1810.83207,0.19619
1812.76054,0.19334
1814.68901,0.19129
1816.61748,0.19368
1818.54595,0.19746
1820.47441,0.19902
1822.40288,0.19943
1824.33135,0.19943
1826.25982,0.19862
1828.18829,0.19957
1830.11676,0.20070
1832.04523,0.19788
1833.97369,0.19484
1835.90216,0.19519
1837.83063,0.19607
1839.75910,0.19513
1841.68757,0.19550
1843.61604,0.19728
1845.54451,0.19629
1847.47298,0.19248
1849.40144,0.18882
1851.32991,0.18714
1853.25838,0.18663
1855.18685,0.18530
1857.11532,0.18447
1859.04379,0.18636
1860.97226,0.18816
1862.90072,0.18790
1864.82919,0.18997
1866.75766,0.19667
1868.68613,0.20113
1870.61460,0.19717
1872.54307,0.19123
1874.47154,0.18682
1876.40001,0.18333
1878.32847,0.18223
1880.25694,0.18438
1882.18541,0.18754
1884.11388,0.18966
1886.04235,0.19123
1887.97082,0.19311
1889.89929,0.19347
1891.82775,0.19011
1893.75622,0.18594
1895.68469,0.18489
1897.61316,0.18698
1899.54163,0.18995
1901.47010,0.19166
1903.39857,0.19133
1905.32704,0.19020
1907.25550,0.19053
1909.18397,0.19348
1911.11244,0.19642
1913.04091,0.19717
1914.96938,0.19643
1916.89785,0.19571
1918.82632,0.19562
1920.75478,0.19568
1922.68325,0.19521
1924.61172,0.19321
1926.54019,0.19111
1928.46866,0.18986
1930.39713,0.18920
1932.32560,0.18958
1934.25407,0.18974
1936.18253,0.18869
1938.11100,0.18899
1940.03947,0.19262
1941.96794,0.19643
1943.89641,0.19546
1945.82488,0.19089
1947.75335,0.18855
1949.68181,0.19011
1951.61028,0.19258
1953.53875,0.19456
1955.46722,0.19525
1957.39569,0.19332
1959.32416,0.19091
1961.25263,0.19014
1963.18110,0.19010
1965.10956,0.19050
1967.03803,0.19035
1968.96650,0.18919
1970.89497,0.18878
1972.82344,0.18958
1974.75191,0.19093
1976.68038,0.19044
1978.60884,0.18798
1980.53731,0.18708
1982.46578,0.18910
1984.39425,0.19232
1986.32272,0.19481
1988.25119,0.19605
1990.17966,0.19675
1992.10812,0.19680
1994.03659,0.19544
1995.96506,0.19341
1997.89353,0.19104
1999.82200,0.18897
2001.75047,0.18918
2003.67894,0.19109
2005.60741,0.19244
2007.53587,0.19386
2009.46434,0.19574
2011.39281,0.19650
2013.32128,0.19697
2015.24975,0.19866
2017.17822,0.20032
2019.10669,0.19990
2021.03515,0.19749
2022.96362,0.19493
2024.89209,0.19320
2026.82056,0.19202
2028.74903,0.19105
2030.67750,0.19043
2032.60597,0.19053
2034.53444,0.19084
2036.46290,0.19118
2038.39137,0.19204
2040.31984,0.19265
2042.24831,0.19260
2044.17678,0.19219
2046.10525,0.19190
2048.03372,0.19219
2049.96218,0.19195
2051.89065,0.19131
2053.81912,0.19098
2055.74759,0.19122
2057.67606,0.19264
2059.60453,0.19494
2061.53300,0.19687
2063.46147,0.19689
2065.38993,0.19508
2067.31840,0.19259
2069.24687,0.19141
2071.17534,0.19364
2073.10381,0.19667
2075.03228,0.19635
2076.96075,0.19467
2078.88921,0.19432
2080.81768,0.19491
2082.74615,0.19701
2084.67462,0.19829
2086.60309,0.19665
2088.53156,0.19498
2090.46003,0.19502
2092.38850,0.19659
2094.31696,0.19816
2096.24543,0.19835
2098.17390,0.19802
2100.10237,0.19776
2102.03084,0.19754
2103.95931,0.19729
2105.88778,0.19751
2107.81624,0.19774
2109.74471,0.19638
2111.67318,0.19491
2113.60165,0.19559
2115.53012,0.19643
2117.45859,0.19484
2119.38706,0.19350
2121.31553,0.19480
2123.24399,0.19624
2125.17246,0.19585
2127.10093,0.19484
2129.02940,0.19512
2130.95787,0.19638
2132.88634,0.19684
2134.81481,0.19633
2136.74327,0.19630
2138.67174,0.19659
2140.60021,0.19735
2142.52868,0.19940
2144.45715,0.19941
2146.38562,0.19683
2148.31409,0.19556
2150.24255,0.19649
2152.17102,0.19752
2154.09949,0.19680
2156.02796,0.19539
2157.95643,0.19585
2159.88490,0.19859
2161.81337,0.20145
2163.74184,0.20224
2165.67030,0.19986
2167.59877,0.19536
2169.52724,0.19273
2171.45571,0.19320
2173.38418,0.19367
2175.31265,0.19350
2177.24112,0.19466
2179.16958,0.19688
2181.09805,0.19827
2183.02652,0.19830
2184.95499,0.19858
2186.88346,0.19984
2188.81193,0.20012
2190.74040,0.19958
2192.66887,0.19986
2194.59733,0.19898
2196.52580,0.19599
2198.45427,0.19384
2200.38274,0.19284
2202.31121,0.19200
2204.23968,0.19368
2206.16815,0.19740
2208.09661,0.19913
2210.02508,0.19940
2211.95355,0.20004
2213.88202,0.19947
2215.81049,0.19786
2217.73896,0.19669
2219.66743,0.19575
2221.59590,0.19487
2223.52436,0.19382
2225.45283,0.19246
2227.38130,0.19215
2229.30977,0.19372
2231.23824,0.19653
2233.16671,0.19964
2235.09518,0.20150
2237.02364,0.20066
2238.95211,0.19818
2240.88058,0.19696
2242.80905,0.19701
2244.73752,0.19637
2246.66599,0.19419
2248.59446,0.19137
2250.52293,0.19167
2252.45139,0.19521
2254.37986,0.19666
2256.30833,0.19456
2258.23680,0.19298
2260.16527,0.19379
2262.09374,0.19554
2264.02221,0.19687
2265.95067,0.19675
2267.87914,0.19544
2269.80761,0.19405
2271.73608,0.19354
2273.66455,0.19432
2275.59302,0.19527
2277.52149,0.19582
2279.44996,0.19716
2281.37842,0.19942
2283.30689,0.20096
2285.23536,0.20046
2287.16383,0.19809
2289.09230,0.19557
2291.02077,0.19489
2292.94924,0.19604
2294.87770,0.19597
2296.80617,0.19367
2298.73464,0.19214
2300.66311,0.19142
2302.59158,0.19026
2304.52005,0.18859
2306.44852,0.18563
2308.37699,0.18255
2310.30545,0.18250
2312.23392,0.18494
2314.16239,0.18585
2316.09086,0.18415
2318.01933,0.17856
2319.94780,0.16793
2321.87627,0.15802
2323.80473,0.15422
2325.73320,0.15586
2327.66167,0.16066
2329.59014,0.16369
2331.51861,0.16284
2333.44708,0.16083
2335.37555,0.16014
2337.30401,0.16033
2339.23248,0.15413
2341.16095,0.14886
2343.08942,0.15733
2345.01789,0.16736
2346.94636,0.17052
2348.87483,0.17073
2350.80330,0.16768
2352.73176,0.15982
2354.66023,0.15181
2356.58870,0.14962
2358.51717,0.14461
2360.44564,0.13041
2362.37411,0.12258
2364.30258,0.12712
2366.23104,0.13165
2368.15951,0.13840
2370.08798,0.15179
2372.01645,0.16137
2373.94492,0.16303
2375.87339,0.16606
2377.80186,0.17453
2379.73033,0.18305
2381.65879,0.18910
2383.58726,0.19359
2385.51573,0.19618
2387.44420,0.19638
2389.37267,0.19457
2391.30114,0.19317
2393.22961,0.19496
2395.15807,0.19828
2397.08654,0.19948
2399.01501,0.19773
2400.94348,0.19524
2402.87195,0.19421
2404.80042,0.19482
2406.72889,0.19714
2408.65736,0.19992
2410.58582,0.20096
2412.51429,0.20136
2414.44276,0.20335
2416.37123,0.20460
2418.29970,0.20267
2420.22817,0.20027
2422.15664,0.19989
2424.08510,0.20085
2426.01357,0.20152
2427.94204,0.20176
2429.87051,0.20264
2431.79898,0.20326
2433.72745,0.20153
2435.65592,0.19796
2437.58439,0.19520
2439.51285,0.19444
2441.44132,0.19510
2443.36979,0.19600
2445.29826,0.19711
2447.22673,0.19893
2449.15520,0.19917
2451.08367,0.19636
2453.01213,0.19345
2454.94060,0.19381
2456.86907,0.19678
2458.79754,0.19827
2460.72601,0.19685
2462.65448,0.19618
2464.58295,0.19785
2466.51142,0.20025
2468.43988,0.20281
2470.36835,0.20496
2472.29682,0.20628
2474.22529,0.20563
2476.15376,0.20274
2478.08223,0.20061
2480.01070,0.20061
2481.93916,0.20145
2483.86763,0.20224
2485.79610,0.20180
2487.72457,0.19995
2489.65304,0.19919
2491.58151,0.19987
2493.50998,0.19981
2495.43844,0.19937
2497.36691,0.19951
2499.29538,0.19880
2501.22385,0.19695
2503.15232,0.19679
2505.08079,0.19925
2507.00926,0.20200
2508.93773,0.20327
2510.86619,0.20211
2512.79466,0.19939
2514.72313,0.19808
2516.65160,0.20042
2518.58007,0.20433
2520.50854,0.20556
2522.43701,0.20440
2524.36547,0.20330
2526.29394,0.20255
2528.22241,0.20273
2530.15088,0.20317
2532.07935,0.20242
2534.00782,0.20190
2535.93629,0.20215
2537.86476,0.20206
2539.79322,0.20109
2541.72169,0.19973
2543.65016,0.20061
2545.57863,0.20283
2547.50710,0.20220
2549.43557,0.20021
2551.36404,0.20108
2553.29250,0.20365
2555.22097,0.20478
2557.14944,0.20420
2559.07791,0.20254
2561.00638,0.20170
2562.93485,0.20325
2564.86332,0.20452
2566.79179,0.20360
2568.72025,0.20262
2570.64872,0.20292
2572.57719,0.20335
2574.50566,0.20248
2576.43413,0.20065
2578.36260,0.20039
2580.29107,0.20261
2582.21953,0.20505
2584.14800,0.20628
2586.07647,0.20571
2588.00494,0.20360
2589.93341,0.20338
2591.86188,0.20591
2593.79035,0.20741
2595.71882,0.20614
2597.64728,0.20521
2599.57575,0.20733
2601.50422,0.21040
2603.43269,0.21204
2605.36116,0.21090
2607.28963,0.20547
2609.21810,0.19881
2611.14656,0.19565
2613.07503,0.19460
2615.00350,0.19543
2616.93197,0.20219
2618.86044,0.20905
2620.78891,0.20865
2622.71738,0.20466
2624.64585,0.20221
2626.57431,0.20309
2628.50278,0.20499
2630.43125,0.20462
2632.35972,0.20306
2634.28819,0.20339
2636.21666,0.20630
2638.14513,0.20850
2640.07359,0.20656
2642.00206,0.20292
2643.93053,0.20202
2645.85900,0.20254
2647.78747,0.20285
2649.71594,0.20461
2651.64441,0.20766
2653.57288,0.20976
2655.50134,0.21016
2657.42981,0.20905
2659.35828,0.20676
2661.28675,0.20566
2663.21522,0.20658
2665.14369,0.20708
2667.07216,0.20667
2669.00062,0.20764
2670.92909,0.20903
2672.85756,0.20907
2674.78603,0.21023
2676.71450,0.21308
2678.64297,0.21503
2680.57144,0.21562
2682.49990,0.21580
2684.42837,0.21461
2686.35684,0.21142
2688.28531,0.20857
2690.21378,0.20756
2692.14225,0.20738
2694.07072,0.20830
2695.99919,0.21125
2697.92765,0.21471
2699.85612,0.21655
2701.78459,0.21656
2703.71306,0.21584
2705.64153,0.21409
2707.57000,0.21137
2709.49847,0.21042
2711.42693,0.21194
2713.35540,0.21336
2715.28387,0.21392
2717.21234,0.21422
2719.14081,0.21342
2721.06928,0.21125
2722.99775,0.20890
2724.92622,0.20835
2726.85468,0.21038
2728.78315,0.21367
2730.71162,0.21593
2732.64009,0.21582
2734.56856,0.21494
2736.49703,0.21463
2738.42550,0.21421
2740.35396,0.21341
2742.28243,0.21203
2744.21090,0.20978
2746.13937,0.20837
2748.06784,0.20969
2749.99631,0.21209
2751.92478,0.21353
2753.85325,0.21402
2755.78171,0.21407
2757.71018,0.21369
2759.63865,0.21233
2761.56712,0.21082
2763.49559,0.21199
2765.42406,0.21541
2767.35253,0.21682
2769.28099,0.21593
2771.20946,0.21670
2773.13793,0.21885
2775.06640,0.21887
2776.99487,0.21827
2778.92334,0.21884
2780.85181,0.21788
2782.78028,0.21521
2784.70874,0.21473
2786.63721,0.21772
2788.56568,0.22075
2790.49415,0.22159
2792.42262,0.21943
2794.35109,0.21405
2796.27956,0.21017
2798.20802,0.21196
2800.13649,0.21483
2802.06496,0.21418
2803.99343,0.21426
2805.92190,0.21703
2807.85037,0.21826
2809.77884,0.21853
2811.70731,0.22020
2813.63577,0.22123
2815.56424,0.22089
2817.49271,0.21969
2819.42118,0.21766
2821.34965,0.21727
2823.27812,0.21927
2825.20659,0.22068
2827.13505,0.22003
2829.06352,0.21908
2830.99199,0.21933
2832.92046,0.21963
2834.84893,0.21893
2836.77740,0.21882
2838.70587,0.21971
2840.63433,0.21930
2842.56280,0.21814
2844.49127,0.21863
2846.41974,0.21981
2848.34821,0.22105
2850.27668,0.22291
2852.20515,0.22321
2854.13362,0.22112
2856.06208,0.21805
2857.99055,0.21594
2859.91902,0.21727
2861.84749,0.22058
2863.77596,0.22151
2865.70443,0.21944
2867.63290,0.21791
2869.56136,0.21986
2871.48983,0.22357
2873.41830,0.22443
2875.34677,0.22282
2877.27524,0.22353
2879.20371,0.22525
2881.13218,0.22358
2883.06065,0.21995
2884.98911,0.21723
2886.91758,0.21578
2888.84605,0.21644
2890.77452,0.21821
2892.70299,0.21648
2894.63146,0.21105
2896.55993,0.20898
2898.48839,0.21321
2900.41686,0.21791
2902.34533,0.21847
2904.27380,0.21586
2906.20227,0.21390
2908.13074,0.21542
2910.05921,0.21875
2911.98768,0.22060
2913.91614,0.21820
2915.84461,0.21327
2917.77308,0.21303
2919.70155,0.21785
2921.63002,0.22088
2923.55849,0.21874
2925.48696,0.21484
2927.41542,0.21747
2929.34389,0.22401
2931.27236,0.22386
2933.20083,0.22031
2935.12930,0.21693
2937.05777,0.21270
2938.98624,0.21405
2940.91471,0.21813
2942.84317,0.21803
2944.77164,0.21456
2946.70011,0.20738
2948.62858,0.20446
2950.55705,0.21154
2952.48552,0.21770
2954.41399,0.21633
2956.34245,0.21037
2958.27092,0.20871
2960.19939,0.21552
2962.12786,0.22003
2964.05633,0.21807
2965.98480,0.21338
2967.91327,0.20791
2969.84174,0.21012
2971.77020,0.21930
2973.69867,0.22355
2975.62714,0.22036
2977.55561,0.21644
2979.48408,0.21793
2981.41255,0.22169
2983.34102,0.22364
2985.26948,0.22493
2987.19795,0.22228
2989.12642,0.21876
2991.05489,0.22142
2992.98336,0.22483
2994.91183,0.22489
2996.84030,0.22562
2998.76877,0.22736
3000.69723,0.22575
3002.62570,0.22113
3004.55417,0.21949
3006.48264,0.21995
3008.41111,0.21756
3010.33958,0.21133
3012.26805,0.19640
3014.19651,0.16797
3016.12498,0.14291
3018.05345,0.15132
3019.98192,0.18682
3021.91039,0.21432
3023.83886,0.22631
3025.76733,0.23048
3027.69579,0.22650
3029.62426,0.22237
3031.55273,0.22544
3033.48120,0.22803
3035.40967,0.22504
3037.33814,0.22162
3039.26661,0.22211
3041.19508,0.22548
3043.12354,0.22865
3045.05201,0.22958
3046.98048,0.22689
3048.90895,0.22379
3050.83742,0.22353
3052.76589,0.22260
3054.69436,0.21628
3056.62282,0.20812
3058.55129,0.20840
3060.47976,0.21498
3062.40823,0.21860
3064.33670,0.21668
3066.26517,0.20972
3068.19364,0.20721
3070.12211,0.21405
3072.05057,0.22000
3073.97904,0.21805
3075.90751,0.21376
3077.83598,0.21601
3079.76445,0.22091
3081.69292,0.22078
3083.62139,0.21325
3085.54985,0.20208
3087.47832,0.20157
3089.40679,0.21468
3091.33526,0.22542
3093.26373,0.21986
3095.19220,0.20787
3097.12067,0.20978
3099.04914,0.21996
3100.97760,0.22166
3102.90607,0.21282
3104.83454,0.20701
3106.76301,0.21337
3108.69148,0.22139
3110.61995,0.22091
3112.54842,0.21560
3114.47688,0.21620
3116.40535,0.22387
3118.33382,0.22815
3120.26229,0.22401
3122.19076,0.21905
3124.11923,0.22228
3126.04770,0.22808
3127.97617,0.22803
3129.90463,0.22448
3131.83310,0.22527
3133.76157,0.23200
3135.69004,0.23643
3137.61851,0.23439
3139.54698,0.23014
3141.47545,0.22964
3143.40391,0.23193
3145.33238,0.23172
3147.26085,0.22896
3149.18932,0.22706
3151.11779,0.22744
3153.04626,0.22743
3154.97473,0.22542
3156.90320,0.22405
3158.83166,0.22577
3160.76013,0.22758
3162.68860,0.22584
3164.61707,0.22602
3166.54554,0.23120
3168.47401,0.23519
3170.40248,0.23635
3172.33094,0.23662
3174.25941,0.23535
3176.18788,0.23368
3178.11635,0.23274
3180.04482,0.23120
3181.97329,0.23013
3183.90176,0.23156
3185.83022,0.23324
3187.75869,0.23370
3189.68716,0.23406
3191.61563,0.23399
3193.54410,0.23588
3195.47257,0.23928
3197.40104,0.23682
3199.32951,0.22962
3201.25797,0.22532
3203.18644,0.22698
3205.11491,0.23219
3207.04338,0.23531
3208.97185,0.23511
3210.90032,0.23208
3212.82879,0.22738
3214.75725,0.22463
3216.68572,0.22553
3218.61419,0.22971
3220.54266,0.23286
3222.47113,0.23150
3224.39960,0.22848
3226.32807,0.22810
3228.25654,0.23070
3230.18500,0.23254
3232.11347,0.23253
3234.04194,0.22980
3235.97041,0.22525
3237.89888,0.22591
3239.82735,0.23193
3241.75582,0.23519
3243.68428,0.23165
3245.61275,0.22656
3247.54122,0.22743
3249.46969,0.23134
3251.39816,0.23085
3253.32663,0.22755
3255.25510,0.22713
3257.18357,0.22913
3259.11203,0.22900
3261.04050,0.22691
3262.96897,0.22551
3264.89744,0.22415
3266.82591,0.22541
3268.75438,0.23113
3270.68285,0.23410
3272.61131,0.23140
3274.53978,0.23050
3276.46825,0.23250
3278.39672,0.23170
3280.32519,0.23021
3282.25366,0.23125
3284.18213,0.23296
3286.11060,0.23451
3288.03906,0.23449
3289.96753,0.23079
3291.89600,0.22303
3293.82447,0.21555
3295.75294,0.21428
3297.68141,0.21761
3299.60988,0.22288
3301.53834,0.22993
3303.46681,0.23378
3305.39528,0.23199
3307.32375,0.22947
3309.25222,0.22723
3311.18069,0.22413
3313.10916,0.22445
3315.03763,0.22725
3316.96609,0.22810
3318.89456,0.22988
3320.82303,0.23172
3322.75150,0.22971
3324.67997,0.22838
3326.60844,0.22962
3328.53691,0.22906
3330.46537,0.22592
3332.39384,0.22427
3334.32231,0.22745
3336.25078,0.23278
3338.17925,0.23475
3340.10772,0.23197
3342.03619,0.22780
3343.96466,0.22573
3345.89312,0.22609
3347.82159,0.22601
3349.75006,0.22433
3351.67853,0.22498
3353.60700,0.22869
3355.53547,0.22988
3357.46394,0.22843
3359.39240,0.23051
3361.32087,0.23529
3363.24934,0.23660
3365.17781,0.23250
3367.10628,0.22645
3369.03475,0.22659
3370.96322,0.23455
3372.89168,0.23979
3374.82015,0.23745
3376.74862,0.23424
3378.67709,0.23252
3380.60556,0.22984
3382.53403,0.22956
3384.46250,0.23402
3386.39097,0.23827
3388.31943,0.23954
3390.24790,0.23901
3392.17637,0.23509
3394.10484,0.22961
3396.03331,0.22823
3397.96178,0.23075
3399.89025,0.23389
3401.81871,0.23337
3403.74718,0.22999
3405.67565,0.22965
3407.60412,0.23053
3409.53259,0.23056
3411.46106,0.22987
3413.38953,0.22483
3415.31800,0.21935
3417.24646,0.21914
3419.17493,0.22152
3421.10340,0.22319
3423.03187,0.22163
3424.96034,0.21656
3426.88881,0.21460
3428.81728,0.22117
3430.74574,0.22939
3432.67421,0.22986
3434.60268,0.22556
3436.53115,0.22243
3438.45962,0.22184
3440.38809,0.22326
3442.31656,0.22405
3444.24503,0.22505
3446.17349,0.22707
3448.10196,0.22353
3450.03043,0.21545
3451.95890,0.21212
3453.88737,0.21400
3455.81584,0.21616
3457.74431,0.21730
3459.67277,0.21808
3461.60124,0.21790
3463.52971,0.21665
3465.45818,0.21463
3467.38665,0.21145
3469.31512,0.20799
3471.24359,0.20669
3473.17206,0.20917
3475.10052,0.21144
3477.02899,0.20891
3478.95746,0.20415
3480.88593,0.20029
3482.81440,0.19739
3484.74287,0.19722
3486.67134,0.20084
3488.59980,0.20362
3490.52827,0.20207
3492.45674,0.20068
3494.38521,0.20303
3496.31368,0.20569
3498.24215,0.20585
3500.17062,0.20673
3502.09909,0.20815
3504.02755,0.20521
3505.95602,0.19967
3507.88449,0.19664
3509.81296,0.19733
3511.74143,0.19743
3513.66990,0.19381
3515.59837,0.19164
3517.52683,0.19339
3519.45530,0.19526
3521.38377,0.19539
3523.31224,0.19483
3525.24071,0.19430
3527.16918,0.19424
3529.09765,0.19576
3531.02611,0.19662
3532.95458,0.19405
3534.88305,0.18992
3536.81152,0.18730
3538.73999,0.18661
3540.66846,0.18740
3542.59693,0.18924
3544.52540,0.19025
3546.45386,0.18917
3548.38233,0.18665
3550.31080,0.18502
3552.23927,0.18429
3554.16774,0.18055
3556.09621,0.17595
3558.02468,0.17576
3559.95314,0.17819
3561.88161,0.18042
3563.81008,0.18349
3565.73855,0.18735
3567.66702,0.18643
3569.59549,0.17719
3571.52396,0.16783
3573.45243,0.16441
3575.38089,0.16611
3577.30936,0.16731
3579.23783,0.16453
3581.16630,0.16192
3583.09477,0.16495
3585.02324,0.17232
3586.95171,0.17710
3588.88017,0.17398
3590.80864,0.17001
3592.73711,0.16939
3594.66558,0.16938
3596.59405,0.16740
3598.52252,0.16379
3600.45099,0.16035
3602.37946,0.15808
3604.30792,0.15738
3606.23639,0.15920
3608.16486,0.16065
3610.09333,0.16098
3612.02180,0.16381
3613.95027,0.16365
3615.87874,0.16124
3617.80720,0.16595
3619.73567,0.16943
3621.66414,0.16252
3623.59261,0.15719
3625.52108,0.15627
3627.44955,0.15760
3629.37802,0.15910
3631.30649,0.15484
3633.23495,0.15025
3635.16342,0.15026
3637.09189,0.15263
3639.02036,0.15123
3640.94883,0.14727
3642.87730,0.14727
3644.80577,0.15108
3646.73423,0.15716
3648.66270,0.16244
3650.59117,0.15886
3652.51964,0.15402
3654.44811,0.15299
3656.37658,0.15312
3658.30505,0.15117
3660.23352,0.14835
3662.16198,0.14742
3664.09045,0.14708
3666.01892,0.14476
3667.94739,0.14405
3669.87586,0.14988
3671.80433,0.15523
3673.73280,0.15576
3675.66126,0.15378
3677.58973,0.15017
3679.51820,0.14645
3681.44667,0.14380
3683.37514,0.14433
3685.30361,0.14554
3687.23208,0.14701
3689.16055,0.15410
3691.08901,0.15646
3693.01748,0.14856
3694.94595,0.14214
3696.87442,0.13999
3698.80289,0.14076
3700.73136,0.14415
3702.65983,0.14521
3704.58829,0.13993
3706.51676,0.13550
3708.44523,0.13891
3710.37370,0.14991
3712.30217,0.15594
3714.23064,0.15159
3716.15911,0.14651
3718.08757,0.14502
3720.01604,0.14905
3721.94451,0.15504
3723.87298,0.15424
3725.80145,0.14580
3727.72992,0.13793
3729.65839,0.13620
3731.58686,0.14112
3733.51532,0.15002
3735.44379,0.15418
3737.37226,0.14951
3739.30073,0.14425
3741.22920,0.14331
3743.15767,0.14702
3745.08614,0.15461
3747.01460,0.16188
3748.94307,0.17010
3750.87154,0.17200
3752.80001,0.15856
3754.72848,0.14996
3756.65695,0.14985
3758.58542,0.14854
3760.51389,0.14126
3762.44235,0.13570
3764.37082,0.13624
3766.29929,0.14005
3768.22776,0.14329
3770.15623,0.14270
3772.08470,0.13662
3774.01317,0.13197
3775.94163,0.13302
3777.87010,0.13656
3779.79857,0.13676
3781.72704,0.13177
3783.65551,0.12798
3785.58398,0.12889
3787.51245,0.12966
3789.44092,0.12893
3791.36938,0.12999
3793.29785,0.13365
3795.22632,0.13825
3797.15479,0.13962
3799.08326,0.13960
3801.01173,0.14318
3802.94020,0.14261
3804.86866,0.13827
3806.79713,0.13613
3808.72560,0.13236
3810.65407,0.12697
3812.58254,0.12531
3814.51101,0.13201
3816.43948,0.14331
3818.36795,0.14872
3820.29641,0.14876
3822.22488,0.14066
3824.15335,0.13184
3826.08182,0.13016
3828.01029,0.13191
3829.93876,0.13251
3831.86723,0.13121
3833.79569,0.12828
3835.72416,0.12898
3837.65263,0.13466
3839.58110,0.13493
3841.50957,0.13200
3843.43804,0.13350
3845.36651,0.13696
3847.29498,0.13886
3849.22344,0.13938
3851.15191,0.14133
3853.08038,0.14313
3855.00885,0.13711
3856.93732,0.13117
3858.86579,0.12826
3860.79426,0.12879
3862.72272,0.13162
3864.65119,0.13088
3866.57966,0.12931
3868.50813,0.13232
3870.43660,0.13550
3872.36507,0.13106
3874.29354,0.12445
3876.22200,0.12675
3878.15047,0.13574
3880.07894,0.14001
3882.00741,0.13494
3883.93588,0.13191
3885.86435,0.13372
3887.79282,0.13153
3889.72129,0.12522
3891.64975,0.12076
3893.57822,0.12082
3895.50669,0.12390
3897.43516,0.12753
3899.36363,0.12709
3901.29210,0.12451
3903.22057,0.12638
3905.14903,0.12679
3907.07750,0.12242
3909.00597,0.11831
3910.93444,0.11645
3912.86291,0.11768
3914.79138,0.12145
3916.71985,0.12495
3918.64832,0.12429
3920.57678,0.11970
3922.50525,0.11601
3924.43372,0.11397
3926.36219,0.11291
3928.29066,0.11442
3930.21913,0.11829
3932.14760,0.12082
3934.07606,0.12004
3936.00453,0.11934
3937.93300,0.11765
3939.86147,0.11473
3941.78994,0.11673
3943.71841,0.12156
3945.64688,0.12217
3947.57535,0.12083
3949.50381,0.11932
3951.43228,0.11677
3953.36075,0.11562
3955.28922,0.11739
3957.21769,0.11818
3959.14616,0.11422
3961.07463,0.10920
3963.00309,0.10707
3964.93156,0.10759
3966.86003,0.11022
3968.78850,0.11386
3970.71697,0.11662
3972.64544,0.11565
3974.57391,0.11239
3976.50238,0.11401
3978.43084,0.11916
3980.35931,0.12054
3982.28778,0.11907
3984.21625,0.11783
3986.14472,0.11680
3988.07319,0.11620
3990.00166,0.11499
3991.93012,0.11245
3993.85859,0.10827
3995.78706,0.10328
3997.71553,0.10200
3999.64400,0.10481
4001.57247,0.10627
4003.50094,0.10595
4005.42941,0.10827
4007.35787,0.11011
4009.28634,0.10489
4011.21481,0.09890
4013.14328,0.10056
4015.07175,0.10417
4017.00022,0.10511
4018.92869,0.10658
4020.85715,0.10863
4022.78562,0.10931
4024.71409,0.10720
4026.64256,0.10117
4028.57103,0.09557
4030.49950,0.09746
4032.42797,0.10408
4034.35644,0.10535
4036.28490,0.10068
4038.21337,0.09753
4040.14184,0.09692
4042.07031,0.09699
4043.99878,0.09816
4045.92725,0.09950
4047.85572,0.10013
4049.78418,0.09894
4051.71265,0.09597
4053.64112,0.09410
4055.56959,0.09574
4057.49806,0.09895
4059.42653,0.10039
4061.35500,0.10088
4063.28346,0.10013
4065.21193,0.09570
4067.14040,0.09193
4069.06887,0.09366
4070.99734,0.09643
4072.92581,0.09572
4074.85428,0.09347
4076.78275,0.09374
4078.71121,0.09688
4080.63968,0.09801
4082.56815,0.09493
4084.49662,0.09243
4086.42509,0.09595
4088.35356,0.10130
4090.28203,0.09880
4092.21049,0.09121
4094.13896,0.08746
4096.06743,0.08656
4097.99590,0.08602
4099.92437,0.08877
4101.85284,0.09330
4103.78131,0.09464
4105.70978,0.09280
4107.63824,0.09018
4109.56671,0.08665
4111.49518,0.08238
4113.42365,0.08222
4115.35212,0.08824
4117.28059,0.09313
4119.20906,0.09072
4121.13752,0.08127
4123.06599,0.07318
4124.99446,0.07652
4126.92293,0.08533
4128.85140,0.08979
4130.77987,0.09061
4132.70834,0.08958
4134.63681,0.08796
4136.56527,0.08726
4138.49374,0.08678
4140.42221,0.08566
4142.35068,0.08574
4144.27915,0.08761
4146.20762,0.08674
4148.13609,0.08153
4150.06455,0.07759
4151.99302,0.07630
4153.92149,0.07696
4155.84996,0.08154
4157.77843,0.08647
4159.70690,0.08830
4161.63537,0.08658
4163.56384,0.08161
4165.49230,0.07735
4167.42077,0.07662
4169.34924,0.07834
4171.27771,0.08180
4173.20618,0.08597
4175.13465,0.08822
4177.06312,0.08846
4178.99158,0.08610
4180.92005,0.08009
4182.84852,0.07250
4184.77699,0.06818
4186.70546,0.06995
4188.63393,0.07444
4190.56240,0.07618
4192.49087,0.07084
4194.41933,0.06363
4196.34780,0.06270
4198.27627,0.06724
4200.20474,0.07124
4202.13321,0.06963
4204.06168,0.06681
4205.99015,0.06639
4207.91861,0.06523
4209.84708,0.06451
4211.77555,0.06648
4213.70402,0.06888
4215.63249,0.06956
4217.56096,0.06926
4219.48943,0.06952
4221.41789,0.06989
4223.34636,0.06941
4225.27483,0.06921
4227.20330,0.06725
4229.13177,0.06387
4231.06024,0.06301
4232.98871,0.06166
4234.91718,0.05951
4236.84564,0.05980
4238.77411,0.06117
4240.70258,0.06374
4242.63105,0.06743
4244.55952,0.06707
4246.48799,0.06142
4248.41646,0.05893
4250.34492,0.06404
4252.27339,0.06959
4254.20186,0.07040
4256.13033,0.06935
4258.05880,0.06893
4259.98727,0.06786
4261.91574,0.06443
4263.84421,0.06205
4265.77267,0.06421
4267.70114,0.06518
4269.62961,0.06158
4271.55808,0.05845
4273.48655,0.05763
4275.41502,0.05772
4277.34349,0.05859
4279.27195,0.05885
4281.20042,0.05654
4283.12889,0.05236
4285.05736,0.05009
4286.98583,0.05328
4288.91430,0.05819
4290.84277,0.05718
4292.77124,0.05058
4294.69970,0.04663
4296.62817,0.04685
4298.55664,0.04486
4300.48511,0.04093
4302.41358,0.04075
4304.34205,0.04700
4306.27052,0.05270
4308.19898,0.04881
4310.12745,0.04133
4312.05592,0.03752
4313.98439,0.03490
4315.91286,0.03450
4317.84133,0.03631
4319.76980,0.03529
4321.69827,0.03491
4323.62673,0.03778
4325.55520,0.03763
4327.48367,0.03677
4329.41214,0.04008
4331.34061,0.04132
4333.26908,0.03670
4335.19755,0.03121
4337.12601,0.02785
4339.05448,0.02696
4340.98295,0.02843
4342.91142,0.03188
4344.83989,0.03802
4346.76836,0.04282
4348.69683,0.04464
4350.62530,0.05039
4352.55376,0.05782
4354.48223,0.05781
4356.41070,0.05015
4358.33917,0.03895
4360.26764,0.03076
4362.19611,0.02973
4364.12458,0.03248
4366.05304,0.03685
4367.98151,0.04008
4369.90998,0.03949
4371.83845,0.03533
4373.76692,0.02839
4375.69539,0.02413
4377.62386,0.02628
4379.55232,0.02763
4381.48079,0.02488
4383.40926,0.02485
4385.33773,0.02868
4387.26620,0.03328
4389.19467,0.03467
4391.12314,0.03016
4393.05161,0.02464
4394.98007,0.02185
4396.90854,0.02102
4398.83701,0.02069
4400.76548,0.02071
4402.69395,0.01839
4404.62242,0.01509
4406.55089,0.01730
4408.47935,0.01818
4410.40782,0.01252
4412.33629,0.01079
4414.26476,0.01323
4416.19323,0.01118
4418.12170,0.01037
4420.05017,0.01324
4421.97864,0.01295
4423.90710,0.01179
4425.83557,0.01221
4427.76404,0.01461
4429.69251,0.01774
4431.62098,0.01826
4433.54945,0.01904
4435.47792,0.01877
4437.40638,0.01460
4439.33485,0.01309
4441.26332,0.01740
4443.19179,0.02292
4445.12026,0.02677
4447.04873,0.02813
4448.97720,0.02544
4450.90567,0.01800
4452.83413,0.01008
4454.76260,0.00582
4456.69107,0.00472
4458.61954,0.00754
4460.54801,0.01389
4462.47648,0.02027
4464.40495,0.02310
4466.33341,0.02017
4468.26188,0.01265
4470.19035,0.00893
4472.11882,0.01641
4474.04729,0.02291
4475.97576,0.01791
4477.90423,0.01404
4479.83270,0.01619
4481.76116,0.01349
4483.68963,0.00561
4485.61810,0.00316
4487.54657,0.00861
4489.47504,0.01365
4491.40351,0.01243
4493.33198,0.00951
4495.26044,0.00784
4497.18891,0.00229
4499.11738,-0.00214
4501.04585,0.00339
4502.97432,0.01259
4504.90279,0.01590
4506.83126,0.01247
4508.75973,0.00598
4510.68819,0.00102
4512.61666,0.00004
4514.54513,-0.00011
4516.47360,-0.00002
4518.40207,0.00482
4520.33054,0.01407
4522.25901,0.02022
4524.18747,0.01927
4526.11594,0.01751
4528.04441,0.01655
4529.97288,0.01328
4531.90135,0.01217
4533.82982,0.01402
4535.75829,0.01347
4537.68676,0.01222
4539.61522,0.01255
4541.54369,0.00817
4543.47216,-0.00017
4545.40063,-0.00247
4547.32910,0.00190
4549.25757,0.00641
4551.18604,0.00797
4553.11450,0.00808
4555.04297,0.00826
4556.97144,0.00283
4558.89991,-0.00479
4560.82838,-0.00443
4562.75685,-0.00041
4564.68532,0.00310
4566.61378,0.00562
4568.54225,0.00531
4570.47072,0.00387
4572.39919,0.00353
4574.32766,0.00392
4576.25613,0.00181
4578.18460,-0.00070
4580.11307,0.00016
4582.04153,0.00121
4583.97000,-0.00049
4585.89847,-0.00441
4587.82694,-0.00558
4589.75541,0.00035
4591.68388,0.00540
4593.61235,0.00331
4595.54081,0.00116
4597.46928,0.00100
4599.39775,0.00142
4601.32622,0.00424
4603.25469,0.00391
4605.18316,-0.00331
4607.11163,-0.00725
4609.04010,-0.00310
4610.96856,0.00180
4612.89703,0.00660
4614.82550,0.00936
4616.75397,0.00342
4618.68244,-0.00258
4620.61091,-0.00002
4622.53938,0.00288
4624.46784,0.00129
4626.39631,-0.00435
4628.32478,-0.00982
4630.25325,-0.00517
4632.18172,0.00551
4634.11019,0.01109
4636.03866,0.01263
4637.96713,0.01153
4639.89559,0.00294
4641.82406,-0.00740
4643.75253,-0.00838
4645.68100,-0.00513
4647.60947,-0.00702
4649.53794,-0.00982
4651.46641,-0.00471
4653.39487,0.00687
4655.32334,0.01592
4657.25181,0.01702
4659.18028,0.01312
4661.10875,0.00664
4663.03722,-0.00379
4664.96569,-0.00718
4666.89416,0.00704
4668.82262,0.02626
4670.75109,0.03184
4672.67956,0.02191
4674.60803,0.00878
4676.53650,0.00313
4678.46497,0.00288
4680.39344,0.00637
4682.32190,0.01639
4684.25037,0.02175
4686.17884,0.01682
4688.10731,0.01294
4690.03578,0.01276
4691.96425,0.01205
4693.89272,0.01187
4695.82119,0.01166
4697.74965,0.00655
4699.67812,0.00146
4701.60659,0.00506
4703.53506,0.01198
4705.46353,0.01282
4707.39200,0.01018
4709.32047,0.01430
4711.24893,0.02301
4713.17740,0.01897
4715.10587,0.00160
4717.03434,-0.01038
4718.96281,-0.01142
4720.89128,-0.00401
4722.81975,0.00632
4724.74821,0.00710
4726.67668,0.00217
4728.60515,0.00404
4730.53362,0.01054
4732.46209,0.01251
4734.39056,0.01127
4736.31903,0.01306
4738.24750,0.01353
4740.17596,0.00421
4742.10443,-0.00838
4744.03290,-0.01098
4745.96137,-0.00559
4747.88984,0.00071
4749.81831,0.00620
4751.74678,0.01190
4753.67524,0.01749
4755.60371,0.01658
4757.53218,0.00845
4759.46065,0.00246
4761.38912,0.00323
4763.31759,0.00928
4765.24606,0.01702
4767.17453,0.02236
4769.10299,0.02261
4771.03146,0.01400
4772.95993,0.00129
4774.88840,-0.00408
4776.81687,-0.00249
4778.74534,0.00440
4780.67381,0.01357
4782.60227,0.01106
4784.53074,-0.00077
4786.45921,-0.00896
4788.38768,-0.01220
4790.31615,-0.00839
4792.24462,-0.00388
4794.17309,-0.00170
4796.10156,0.00716
4798.03002,0.01405
4799.95849,0.01143
4801.88696,0.00908
4803.81543,0.01011
4805.74390,0.01096
4807.67237,0.00961
4809.60084,0.00381
4811.52930,-0.00096
4813.45777,0.00202
4815.38624,0.00546
4817.31471,0.00357
4819.24318,0.00420
4821.17165,0.00793
4823.10012,0.00741
4825.02859,0.00431
4826.95705,0.00111
4828.88552,0.00352
4830.81399,0.01456
4832.74246,0.01860
4834.67093,0.00763
4836.59940,-0.00385
4838.52787,-0.00391
4840.45633,0.00047
4842.38480,0.00513
4844.31327,0.01409
4846.24174,0.01479
4848.17021,0.00037
4850.09868,-0.01436
4852.02715,-0.01730
4853.95562,-0.00808
4855.88408,0.00538
4857.81255,0.01460
4859.74102,0.01851
4861.66949,0.01736
4863.59796,0.01053
4865.52643,0.00321
4867.45490,-0.00003
4869.38336,0.00118
4871.31183,0.00806
4873.24030,0.01497
4875.16877,0.01539
4877.09724,0.01450
4879.02571,0.01148
4880.95418,0.00389
4882.88265,0.00393
4884.81111,0.01084
4886.73958,0.00691
4888.66805,-0.00115
4890.59652,0.00171
4892.52499,0.00475
4894.45346,-0.00117
4896.38193,-0.00763
4898.31039,-0.00175
4900.23886,0.01792
4902.16733,0.03414
4904.09580,0.03037
4906.02427,0.01159
4907.95274,-0.00187
4909.88121,-0.00497
4911.80967,-0.00488
4913.73814,0.00172
4915.66661,0.01273
4917.59508,0.01536
4919.52355,0.01280
4921.45202,0.01309
4923.38049,0.00805
4925.30896,-0.00109
4927.23742,-0.00341
4929.16589,-0.00123
4931.09436,0.00126
4933.02283,0.00112
4934.95130,-0.00369
4936.87977,-0.00139
4938.80824,0.00867
4940.73670,0.00762
4942.66517,-0.00268
4944.59364,-0.00621
4946.52211,-0.00617
4948.45058,-0.00732
4950.37905,-0.00074
4952.30752,0.00853
4954.23599,0.00578
4956.16445,-0.00013
4958.09292,0.00085
4960.02139,0.00187
4961.94986,0.00253
4963.87833,0.00837
4965.80680,0.01636
4967.73527,0.01695
4969.66373,0.01064
4971.59220,0.00835
4973.52067,0.00641
4975.44914,-0.00321
4977.37761,-0.00922
4979.30608,-0.00750
4981.23455,-0.00564
4983.16302,-0.00239
4985.09148,0.00648
4987.01995,0.01868
4988.94842,0.02379
4990.87689,0.01845
4992.80536,0.01689
4994.73383,0.01875
4996.66230,0.00818
4998.59076,-0.00321
5000.51923,0.00234
5002.44770,0.01542
5004.37617,0.01936
5006.30464,0.01612
5008.23311,0.01496
5010.16158,0.01328
5012.09005,0.01120
5014.01851,0.01551
5015.94698,0.02430
5017.87545,0.02963
5019.80392,0.01978
5021.73239,-0.00067
5023.66086,-0.00940
5025.58933,-0.00268
5027.51779,0.00936
5029.44626,0.01906
5031.37473,0.02018
5033.30320,0.01076
5035.23167,0.00001
5037.16014,0.00286
5039.08861,0.01461
5041.01708,0.02090
5042.94554,0.02554
5044.87401,0.02379
5046.80248,0.00994
5048.73095,0.00479
5050.65942,0.00540
5052.58789,-0.00515
5054.51636,-0.01096
5056.44482,-0.00006
5058.37329,0.01432
5060.30176,0.02022
5062.23023,0.02230
5064.15870,0.02413
5066.08717,0.02184
5068.01564,0.02095
5069.94410,0.02714
5071.87257,0.03773
5073.80104,0.04842
5075.72951,0.04842
5077.65798,0.03551
5079.58645,0.02451
5081.51492,0.01885
5083.44339,0.01483
5085.37185,0.01167
5087.30032,0.00590
5089.22879,0.00087
5091.15726,0.00277
5093.08573,0.00612
5095.01420,0.00550
5096.94267,0.00959
5098.87113,0.01945
5100.79960,0.02826
5102.72807,0.03638
5104.65654,0.03765
5106.58501,0.02517
5108.51348,0.01092
5110.44195,0.01191
5112.37042,0.02732
5114.29888,0.04414
5116.22735,0.04881
5118.15582,0.04531
5120.08429,0.04709
5122.01276,0.04177
5123.94123,0.02321
5125.86970,0.01575
5127.79816,0.02257
5129.72663,0.02279
5131.65510,0.01805
5133.58357,0.01469
5135.51204,0.00689
5137.44051,-0.00272
5139.36898,-0.00361
5141.29745,0.00436
5143.22591,0.00495
5145.15438,-0.00455
5147.08285,-0.00239
5149.01132,0.01797
5150.93979,0.03753
5152.86826,0.04444
5154.79673,0.04129
5156.72519,0.03240
5158.65366,0.02640
5160.58213,0.02425
5162.51060,0.02170
5164.43907,0.02708
5166.36754,0.03936
5168.29601,0.04434
5170.22448,0.04422
5172.15294,0.04516
5174.08141,0.04425
5176.00988,0.04919
5177.93835,0.06093
5179.86682,0.06698
5181.79529,0.06058
5183.72376,0.03485
5185.65222,0.00496
5187.58069,0.00081
5189.50916,0.01380
5191.43763,0.02855
5193.36610,0.04146
5195.29457,0.04178
5197.22304,0.03084
5199.15151,0.02195
5201.07997,0.02434
5203.00844,0.03759
5204.93691,0.04129
5206.86538,0.03059
5208.79385,0.03636
5210.72232,0.05285
5212.65079,0.05170
5214.57925,0.03309
5216.50772,0.02115
5218.43619,0.03301
5220.36466,0.04970
5222.29313,0.04671
5224.22160,0.03178
5226.15007,0.02517
5228.07854,0.02893
5230.00700,0.03208
5231.93547,0.03148
5233.86394,0.02861
5235.79241,0.02701
5237.72088,0.03397
5239.64935,0.05178
5241.57782,0.06090
5243.50628,0.04952
5245.43475,0.04437
5247.36322,0.05396
5249.29169,0.04721
5251.22016,0.02973
5253.14863,0.03225
5255.07710,0.04755
5257.00556,0.05657
5258.93403,0.05888
5260.86250,0.05737
5262.79097,0.05139
5264.71944,0.03922
5266.64791,0.03026
5268.57638,0.03446
5270.50485,0.04730
5272.43331,0.05333
5274.36178,0.04431
5276.29025,0.03306
5278.21872,0.03405
5280.14719,0.05182
5282.07566,0.07235
5284.00413,0.06996
5285.93259,0.04534
5287.86106,0.02174
5289.78953,0.01696
5291.71800,0.03020
5293.64647,0.03878
5295.57494,0.03691
5297.50341,0.04495
5299.43188,0.05922
5301.36034,0.05268
5303.28881,0.03741
5305.21728,0.02978
5307.14575,0.02772
5309.07422,0.03957
5311.00269,0.05139
5312.93116,0.04676
5314.85962,0.03264
5316.78809,0.02260
5318.71656,0.02611
5320.64503,0.03911
5322.57350,0.05898
5324.50197,0.07692
5326.43044,0.07123
5328.35891,0.05409
5330.28737,0.04690
5332.21584,0.03919
5334.14431,0.03700
5336.07278,0.04373
5338.00125,0.04262
5339.92972,0.04337
5341.85819,0.05486
5343.78665,0.05994
5345.71512,0.06189
5347.64359,0.07140
5349.57206,0.06235
5351.50053,0.02366
5353.42900,-0.00925
5355.35747,-0.00035
5357.28594,0.03179
5359.21440,0.06004
5361.14287,0.08262
5363.07134,0.09702
5364.99981,0.09393
5366.92828,0.07340
5368.85675,0.04539
5370.78522,0.02567
5372.71368,0.02596
5374.64215,0.05328
5376.57062,0.08680
5378.49909,0.09081
5380.42756,0.08869
5382.35603,0.09274
5384.28450,0.08244
5386.21297,0.06301
5388.14143,0.05825
5390.06990,0.07178
5391.99837,0.07987
5393.92684,0.05909
5395.85531,0.02338
5397.78378,-0.00081
5399.71225,0.00006
5401.64071,0.02402
5403.56918,0.05152
5405.49765,0.06862
5407.42612,0.07986
5409.35459,0.08740
5411.28306,0.08874
5413.21153,0.09179
5415.13999,0.08716
5417.06846,0.06495
5418.99693,0.04875
5420.92540,0.05172
5422.85387,0.06084
5424.78234,0.06583
5426.71081,0.06062
5428.63928,0.05168
5430.56774,0.06020
5432.49621,0.08804
5434.42468,0.10756
5436.35315,0.09535
5438.28162,0.07849
5440.21009,0.08085
5442.13856,0.08630
5444.06702,0.07542
5445.99549,0.05057
5447.92396,0.02739
5449.85243,0.02824
5451.78090,0.05203
5453.70937,0.07620
5455.63784,0.08265
5457.56631,0.06387
5459.49477,0.04372
5461.42324,0.04177
5463.35171,0.05215
5465.28018,0.06208
5467.20865,0.06602
5469.13712,0.07325
5471.06559,0.07772
5472.99405,0.07117
5474.92252,0.06492
5476.85099,0.06347
5478.77946,0.06254
5480.70793,0.06274
5482.63640,0.06574
5484.56487,0.06849
5486.49334,0.06245
5488.42180,0.04921
5490.35027,0.04222
5492.27874,0.05424
5494.20721,0.07294
5496.13568,0.07034
5498.06415,0.06089
5499.99262,0.06189
5501.92108,0.06216
5503.84955,0.06126
5505.77802,0.05792
5507.70649,0.04914
5509.63496,0.04694
5511.56343,0.04856
5513.49190,0.04865
5515.42037,0.06372
5517.34883,0.08046
5519.27730,0.07303
5521.20577,0.06293
5523.13424,0.06856
5525.06271,0.08598
5526.99118,0.11328
5528.91965,0.13593
5530.84811,0.13522
5532.77658,0.12779
5534.70505,0.13204
5536.63352,0.13670
5538.56199,0.13311
5540.49046,0.11591
5542.41893,0.09507
5544.34740,0.09027
5546.27586,0.08746
5548.20433,0.07588
5550.13280,0.06359
5552.06127,0.05385
5553.98974,0.05325
5555.91821,0.05091
5557.84668,0.03232
5559.77514,0.01759
5561.70361,0.03180
5563.63208,0.07343
5565.56055,0.10471
5567.48902,0.09591
5569.41749,0.07590
5571.34596,0.07732
5573.27443,0.08524
5575.20289,0.08155
5577.13136,0.07382
5579.05983,0.06520
5580.98830,0.06551
5582.91677,0.08223
5584.84524,0.09358
5586.77371,0.08997
5588.70217,0.08593
5590.63064,0.08652
5592.55911,0.08082
5594.48758,0.07364
5596.41605,0.07200
5598.34452,0.06133
5600.27299,0.05229
5602.20145,0.07682
5604.12992,0.11029
5606.05839,0.10960
5607.98686,0.09441
5609.91533,0.09338
5611.84380,0.09338
5613.77227,0.08418
5615.70074,0.07493
5617.62920,0.06634
5619.55767,0.05513
5621.48614,0.04587
5623.41461,0.04766
5625.34308,0.07362
5627.27155,0.09765
5629.20002,0.08458
5631.12848,0.07182
5633.05695,0.07955
5634.98542,0.08335
5636.91389,0.08361
5638.84236,0.08184
5640.77083,0.06567
5642.69930,0.05067
5644.62777,0.06059
5646.55623,0.07756
5648.48470,0.07300
5650.41317,0.06110
5652.34164,0.06781
5654.27011,0.08684
5656.19858,0.09767
5658.12705,0.09733
5660.05551,0.09298
5661.98398,0.09018
5663.91245,0.08742
5665.84092,0.08670
5667.76939,0.08919
5669.69786,0.09103
5671.62633,0.09505
5673.55480,0.09427
5675.48326,0.08900
5677.41173,0.08344
5679.34020,0.06714
5681.26867,0.05590
5683.19714,0.07023
5685.12561,0.09382
5687.05408,0.10459
5688.98254,0.10451
5690.91101,0.10113
5692.83948,0.08064
5694.76795,0.04576
5696.69642,0.04645
5698.62489,0.09003
5700.55336,0.11852
5702.48183,0.11434
5704.41029,0.10096
5706.33876,0.10056
5708.26723,0.09609
5710.19570,0.06460
5712.12417,0.04211
5714.05264,0.05345
5715.98111,0.08041
5717.90957,0.09846
5719.83804,0.10014
5721.76651,0.10065
5723.69498,0.08957
5725.62345,0.07717
5727.55192,0.09449
5729.48039,0.10797
5731.40886,0.09444
5733.33732,0.08853
5735.26579,0.10465
5737.19426,0.12113
5739.12273,0.11262
5741.05120,0.08619
5742.97967,0.06857
5744.90814,0.06892
5746.83660,0.08297
5748.76507,0.09016
5750.69354,0.08078
5752.62201,0.08360
5754.55048,0.09993
5756.47895,0.08769
5758.40742,0.04680
5760.33588,0.02909
5762.26435,0.05461
5764.19282,0.08838
5766.12129,0.10495
5768.04976,0.11507
5769.97823,0.13481
5771.90670,0.15123
5773.83517,0.14544
5775.76363,0.12317
5777.69210,0.10248
5779.62057,0.09193
5781.54904,0.07974
5783.47751,0.06650
5785.40598,0.06322
5787.33445,0.07453
5789.26291,0.09210
5791.19138,0.09778
5793.11985,0.11418
5795.04832,0.14325
5796.97679,0.12646
5798.90526,0.07129
5800.83373,0.04532
5802.76220,0.05542
5804.69066,0.06554
5806.61913,0.07638
5808.54760,0.09559
5810.47607,0.10883
5812.40454,0.10384
5814.33301,0.07968
5816.26148,0.06852
5818.18994,0.09687
5820.11841,0.14050
5822.04688,0.16885
5823.97535,0.16987
5825.90382,0.14032
5827.83229,0.10855
5829.76076,0.10502
5831.68923,0.10999
5833.61769,0.10467
5835.54616,0.10228
5837.47463,0.10997
5839.40310,0.11382
5841.33157,0.10752
5843.26004,0.09993
5845.18851,0.08753
5847.11697,0.08146
5849.04544,0.09922
5850.97391,0.10367
5852.90238,0.05938
5854.83085,0.02827
5856.75932,0.07152
5858.68779,0.12341
5860.61626,0.11683
5862.54472,0.07593
5864.47319,0.05307
5866.40166,0.09229
5868.33013,0.15948
5870.25860,0.16736
5872.18707,0.12000
5874.11554,0.08280
5876.04400,0.07689
5877.97247,0.07605
5879.90094,0.05101
5881.82941,0.02355
5883.75788,0.02680
5885.68635,0.04450
5887.61482,0.06672
5889.54329,0.09347
5891.47175,0.10599
5893.40022,0.10872
5895.32869,0.10796
5897.25716,0.08018
5899.18563,0.05127
5901.11410,0.07410
5903.04257,0.11469
5904.97103,0.11701
5906.89950,0.09753
5908.82797,0.08525
5910.75644,0.08833
5912.68491,0.10880
5914.61338,0.12615
5916.54185,0.12300
5918.47032,0.11093
5920.39878,0.10653
5922.32725,0.12192
5924.25572,0.13931
5926.18419,0.14075
5928.11266,0.15019
5930.04113,0.16714
5931.96960,0.16232
5933.89806,0.13613
5935.82653,0.10468
5937.75500,0.08961
5939.68347,0.09417
5941.61194,0.08815
5943.54041,0.07873
5945.46888,0.09866
5947.39734,0.11511
5949.32581,0.09381
5951.25428,0.08000
5953.18275,0.10711
5955.11122,0.14173
5957.03969,0.13721
5958.96816,0.08472
5960.89663,0.04203
5962.82509,0.04341
5964.75356,0.06501
5966.68203,0.08913
5968.61050,0.09516
5970.53897,0.06854
5972.46744,0.04427
5974.39591,0.04876
5976.32437,0.04630
5978.25284,0.03451
5980.18131,0.04641
5982.10978,0.07040
5984.03825,0.08030
5985.96672,0.08405
5987.89519,0.08144
5989.82366,0.04332
5991.75212,-0.00473
5993.68059,-0.00186
5995.60906,0.03502
5997.53753,0.04960
5999.46600,0.05355
6001.39447,0.06979
6003.32294,0.08899
6005.25140,0.11185
6007.17987,0.13307
6009.10834,0.12903
6011.03681,0.11697
6012.96528,0.12737
6014.89375,0.13495
6016.82222,0.11932
6018.75069,0.10794
6020.67915,0.10405
6022.60762,0.08951
6024.53609,0.06076
6026.46456,0.03042
6028.39303,0.03510
6030.32150,0.05960
6032.24997,0.05177
6034.17843,0.03995
6036.10690,0.07507
6038.03537,0.13184
6039.96384,0.15928
6041.89231,0.14606
6043.82078,0.10717
6045.74925,0.06770
6047.67772,0.04604
6049.60618,0.05450
6051.53465,0.07356
6053.46312,0.06637
6055.39159,0.05003
6057.32006,0.06116
6059.24853,0.08240
6061.17700,0.10231
6063.10546,0.11815
6065.03393,0.10410
6066.96240,0.09387
6068.89087,0.11508
6070.81934,0.12464
6072.74781,0.11340
6074.67628,0.09491
6076.60475,0.06535
6078.53321,0.06427
6080.46168,0.10669
6082.39015,0.13057
6084.31862,0.12966
6086.24709,0.14824
6088.17556,0.15740
6090.10403,0.13823
6092.03249,0.13373
6093.96096,0.12763
6095.88943,0.09652
6097.81790,0.08204
6099.74637,0.08311
6101.67484,0.08422
6103.60331,0.10377
6105.53177,0.12564
6107.46024,0.12598
6109.38871,0.12047
6111.31718,0.13242
6113.24565,0.15271
6115.17412,0.16075
6117.10259,0.14817
6119.03106,0.12648
6120.95952,0.09309
6122.88799,0.04176
6124.81646,0.03046
6126.74493,0.08274
6128.67340,0.12241
6130.60187,0.10500
6132.53034,0.09378
6134.45880,0.11632
6136.38727,0.12213
6138.31574,0.12393
6140.24421,0.15102
6142.17268,0.16474
6144.10115,0.14534
6146.02962,0.11616
6147.95809,0.10989
6149.88655,0.11999
6151.81502,0.09368
6153.74349,0.03448
6155.67196,-0.00057
6157.60043,-0.01849
6159.52890,-0.02283
6161.45737,0.02845
6163.38583,0.09554
6165.31430,0.12117
6167.24277,0.13050
6169.17124,0.12482
6171.09971,0.10282
6173.02818,0.09769
6174.95665,0.08946
6176.88512,0.06866
6178.81358,0.08107
6180.74205,0.10825
6182.67052,0.11564
6184.59899,0.12371
6186.52746,0.11484
6188.45593,0.08384
6190.38440,0.09017
6192.31286,0.10811
6194.24133,0.08625
6196.16980,0.05094
6198.09827,0.02928
6200.02674,0.02929
6201.95521,0.05116
6203.88368,0.08290
6205.81215,0.12248
6207.74061,0.14431
6209.66908,0.11982
6211.59755,0.09904
6213.52602,0.12247
6215.45449,0.12817
6217.38296,0.07051
6219.31143,0.00740
6221.23989,0.00592
6223.16836,0.06288
6225.09683,0.11399
6227.02530,0.10539
6228.95377,0.06484
6230.88224,0.05535
6232.81071,0.09797
6234.73918,0.12469
6236.66764,0.10111
6238.59611,0.09201
6240.52458,0.11055
6242.45305,0.11961
6244.38152,0.11093
6246.30999,0.07944
6248.23846,0.03488
6250.16692,-0.00338
6252.09539,-0.01295
6254.02386,-0.00860
6255.95233,-0.00697
6257.88080,0.02799
6259.80927,0.07740
6261.73774,0.08139
6263.66621,0.06012
6265.59467,0.08996
6267.52314,0.16687
6269.45161,0.21033
6271.38008,0.17918
6273.30855,0.08432
6275.23702,0.01424
6277.16549,0.02196
6279.09395,0.05507
6281.02242,0.09723
6282.95089,0.14605
6284.87936,0.14430
6286.80783,0.07791
6288.73630,0.01888
6290.66477,0.02813
6292.59323,0.09138
6294.52170,0.14596
6296.45017,0.14352
6298.37864,0.10737
6300.30711,0.10002
6302.23558,0.12160
6304.16405,0.12823
6306.09252,0.11701
6308.02098,0.09971
6309.94945,0.10694
6311.87792,0.14356
6313.80639,0.14173
6315.73486,0.09916
6317.66333,0.09187
6319.59180,0.11499
6321.52026,0.11388
6323.44873,0.08730
6325.37720,0.06483
6327.30567,0.06332
6329.23414,0.07191
6331.16261,0.07214
6333.09108,0.04167
6335.01955,0.00416
6336.94801,0.02376
6338.87648,0.06137
6340.80495,0.04538
6342.73342,0.01243
6344.66189,0.01531
6346.59036,0.05275
6348.51883,0.10664
6350.44729,0.14990
6352.37576,0.15855
6354.30423,0.11797
6356.23270,0.06272
6358.16117,0.06839
6360.08964,0.10843
6362.01811,0.11741
6363.94658,0.11813
6365.87504,0.13197
6367.80351,0.12302
6369.73198,0.07580
6371.66045,0.04363
6373.58892,0.04695
6375.51739,0.05163
6377.44586,0.05366
6379.37432,0.08982
6381.30279,0.16375
6383.23126,0.17703
6385.15973,0.08526
6387.08820,0.01987
6389.01667,0.01870
6390.94514,0.00720
6392.87361,-0.00759
6394.80207,0.04508
6396.73054,0.09642
6398.65901,0.07821
6400.58748,0.04940
6402.51595,0.05505
6404.44442,0.05982
6406.37289,0.04624
6408.30135,0.02998
6410.22982,0.02072
6412.15829,0.02332
6414.08676,0.03929
6416.01523,0.04728
6417.94370,0.03335
6419.87217,0.01939
6421.80064,0.03054
6423.72910,0.06138
6425.65757,0.08298
6427.58604,0.08743
6429.51451,0.09876
6431.44298,0.12425
6433.37145,0.13594
6435.29992,0.11954
6437.22838,0.11045
6439.15685,0.13419
6441.08532,0.15087
6443.01379,0.13362
6444.94226,0.10533
6446.87073,0.06978
6448.79920,0.03062
6450.72766,0.03758
6452.65613,0.06383
6454.58460,0.04198
6456.51307,0.04905
6458.44154,0.13741
6460.37001,0.19456
6462.29848,0.16558
6464.22695,0.11226
6466.15541,0.09452
6468.08388,0.10002
6470.01235,0.08234
6471.94082,0.05746
6473.86929,0.07844
6475.79776,0.16370
6477.72623,0.23767
6479.65469,0.22939
6481.58316,0.18349
6483.51163,0.13460
6485.44010,0.07919
6487.36857,0.04300
6489.29704,0.05474
6491.22551,0.08520
6493.15398,0.09507
6495.08244,0.10033
6497.01091,0.09930
6498.93938,0.07180
6500.86785,0.04082
6502.79632,0.02981
6504.72479,0.02921
6506.65326,0.04759
6508.58172,0.08098
6510.51019,0.10365
6512.43866,0.11196
6514.36713,0.09641
6516.29560,0.07701
6518.22407,0.08299
6520.15254,0.06282
6522.08101,0.02505
6524.00947,0.04715
6525.93794,0.09080
6527.86641,0.10741
6529.79488,0.10563
6531.72335,0.07711
6533.65182,0.06628
6535.58029,0.06778
6537.50875,0.04109
6539.43722,0.01101
6541.36569,-0.00860
6543.29416,-0.00517
6545.22263,0.02961
6547.15110,0.06048
6549.07957,0.07439
6551.00804,0.08921
6552.93650,0.09986
6554.86497,0.08961
6556.79344,0.07503
6558.72191,0.04959
6560.65038,0.01566
6562.57885,0.03616
6564.50732,0.12901
6566.43578,0.19613
6568.36425,0.14847
6570.29272,0.07234
6572.22119,0.08029
6574.14966,0.10258
6576.07813,0.07577
6578.00660,0.06236
6579.93507,0.07966
6581.86353,0.07529
6583.79200,0.05928
6585.72047,0.07430
6587.64894,0.11736
6589.57741,0.15661
6591.50588,0.16115
6593.43435,0.14331
6595.36281,0.14148
6597.29128,0.13701
6599.21975,0.08919
6601.14822,0.03909
6603.07669,0.04937
6605.00516,0.07481
6606.93363,0.07751
6608.86210,0.08632
6610.79056,0.12066
6612.71903,0.15436
6614.64750,0.15025
6616.57597,0.10623
6618.50444,0.03946
6620.43291,-0.00648
6622.36138,0.03637
6624.28984,0.11765
6626.21831,0.12532
6628.14678,0.09229
6630.07525,0.07315
6632.00372,0.07402
6633.93219,0.08765
6635.86066,0.05899
6637.78912,-0.00894
6639.71759,-0.02982
6641.64606,0.00395
6643.57453,0.01809
6645.50300,-0.00262
6647.43147,-0.00417
6649.35994,0.01311
6651.28841,0.04369
6653.21687,0.08033
6655.14534,0.06560
6657.07381,0.00940
6659.00228,0.02756
6660.93075,0.09145
6662.85922,0.10092
6664.78769,0.06711
6666.71615,0.03739
6668.64462,0.04587
6670.57309,0.06692
6672.50156,0.11205
6674.43003,0.21569
6676.35850,0.25953
6678.28697,0.17531
6680.21544,0.09416
6682.14390,0.12240
6684.07237,0.18183
6686.00084,0.13976
6687.92931,0.01793
6689.85778,-0.01622
6691.78625,0.04384
6693.71472,0.05919
6695.64318,0.03162
6697.57165,0.01968
6699.50012,0.03241
6701.42859,0.09680
6703.35706,0.16548
6705.28553,0.12658
6707.21400,0.04138
6709.14247,0.05518
6711.07093,0.12015
6712.99940,0.13444
6714.92787,0.10626
6716.85634,0.08717
6718.78481,0.10456
6720.71328,0.13587
6722.64175,0.16521
6724.57021,0.18773
6726.49868,0.17725
6728.42715,0.16050
6730.35562,0.16052
6732.28409,0.14602
6734.21256,0.11142
6736.14103,0.08420
6738.06950,0.07745
6739.99796,0.06979
6741.92643,0.04010
6743.85490,0.00860
6745.78337,0.00097
6747.71184,0.03470
6749.64031,0.07832
6751.56878,0.08638
6753.49724,0.11455
6755.42571,0.14657
6757.35418,0.09349
6759.28265,0.02275
6761.21112,0.03603
6763.13959,0.04614
6765.06806,-0.00462
6766.99653,-0.01359
6768.92499,0.04927
6770.85346,0.09412
6772.78193,0.07072
6774.71040,-0.00806
6776.63887,-0.06372
6778.56734,-0.01259
6780.49581,0.10473
6782.42427,0.17479
6784.35274,0.15750
6786.28121,0.11927
6788.20968,0.07529
6790.13815,-0.00324
6792.06662,-0.04996
6793.99509,-0.00775
6795.92355,0.04784
6797.85202,0.05128
6799.78049,0.03461
6801.70896,0.03935
6803.63743,0.04853
6805.56590,0.04125
6807.49437,0.01969
6809.42284,-0.00820
6811.35130,-0.00867
6813.27977,0.04426
6815.20824,0.10427
6817.13671,0.10855
6819.06518,0.05454
6820.99365,-0.00907
6822.92212,0.01083
6824.85058,0.08471
6826.77905,0.09296
6828.70752,0.08982
6830.63599,0.08183
6832.56446,-0.01567
6834.49293,-0.12984
6836.42140,-0.12830
6838.34987,-0.05012
6840.27833,-0.01665
6842.20680,-0.04468
6844.13527,-0.06388
6846.06374,-0.01673
6847.99221,0.03494
6849.92068,0.02558
6851.84915,0.01406
6853.77761,0.03448
6855.70608,0.03180
6857.63455,-0.02241
6859.56302,-0.07903
6861.49149,-0.09328
6863.41996,-0.01047
6865.34843,0.11717
6867.27690,0.16533
6869.20536,0.12816
6871.13383,0.08462
6873.06230,0.06832
6874.99077,0.07220
6876.91924,0.11235
6878.84771,0.16186
6880.77618,0.14152
6882.70464,0.09262
6884.63311,0.06413
6886.56158,0.04921
6888.49005,0.07232
6890.41852,0.11607
6892.34699,0.13196
6894.27546,0.12682
6896.20393,0.10857
6898.13239,0.08040
6900.06086,0.08817
6901.98933,0.13101
6903.91780,0.15271
6905.84627,0.15100
6907.77474,0.11098
6909.70321,-0.00024
6911.63167,-0.07221
6913.56014,-0.06779
6915.48861,-0.08515
6917.41708,-0.11993
6919.34555,-0.10828
6921.27402,-0.02095
6923.20249,0.05338
6925.13096,0.05719
6927.05942,0.08554
6928.98789,0.20564
6930.91636,0.31125
6932.84483,0.25382
6934.77330,0.12626
6936.70177,0.07156
6938.63024,0.06147
6940.55870,0.01037
6942.48717,-0.04340
6944.41564,-0.00988
6946.34411,0.07356
6948.27258,0.10726
6950.20105,0.05455
6952.12952,-0.04636
6954.05799,-0.11088
6955.98645,-0.07149
6957.91492,0.00525
6959.84339,0.07423
6961.77186,0.12485
6963.70033,0.10894
6965.62880,0.04105
6967.55727,-0.01858
6969.48573,0.00733
6971.41420,0.09475
6973.34267,0.13182
6975.27114,0.11169
6977.19961,0.07112
6979.12808,0.03552
6981.05655,0.03533
6982.98501,0.06519
6984.91348,0.11224
6986.84195,0.14430
6988.77042,0.10679
6990.69889,0.07117
6992.62736,0.12077
6994.55583,0.16416
6996.48430,0.11185
6998.41276,0.05322
7000.34123,0.12185
7002.26970,0.20081
7004.19817,0.13684
7006.12664,0.03030
7008.05511,0.02476
7009.98358,0.06989
7011.91204,0.03890
7013.84051,-0.11489
7015.76898,-0.23012
7017.69745,-0.17067
7019.62592,0.02426
7021.55439,0.19578
7023.48286,0.19578
7025.41133,0.07638
7027.33979,-0.01164
7029.26826,0.01458
7031.19673,0.15137
7033.12520,0.26826
7035.05367,0.24195
7036.98214,0.15869
7038.91061,0.14031
7040.83907,0.12687
7042.76754,0.04492
7044.69601,-0.09688
7046.62448,-0.20764
7048.55295,-0.18336
7050.48142,-0.04236
7052.40989,0.10315
7054.33836,0.12345
7056.26682,0.04242
7058.19529,-0.00122
7060.12376,0.00343
7062.05223,0.06847
7063.98070,0.17576
7065.90917,0.16119
7067.83764,0.02041
7069.76610,-0.08570
7071.69457,-0.05102
7073.62304,0.04842
7075.55151,0.12972
7077.47998,0.16518
7079.40845,0.19282
7081.33692,0.28301
7083.26539,0.33406
7085.19385,0.28444
7087.12232,0.21323
7089.05079,0.18865
7090.97926,0.18706
7092.90773,0.15559
7094.83620,0.09617
7096.76467,0.05379
7098.69313,0.09515
7100.62160,0.13879
7102.55007,0.11260
7104.47854,0.06918
7106.40701,0.03899
7108.33548,0.02908
7110.26395,-0.01234
7112.19242,-0.05375
7114.12088,-0.02121
7116.04935,0.03179
7117.97782,0.05247
7119.90629,0.06802
7121.83476,0.10142
7123.76323,0.11596
7125.69170,0.04973
7127.62016,-0.06238
7129.54863,-0.08724
7131.47710,-0.02076
7133.40557,0.03752
7135.33404,0.02986
7137.26251,-0.01390
7139.19098,-0.00498
7141.11944,0.06314
7143.04791,0.11600
7144.97638,0.09907
7146.90485,-0.00055
7148.83332,-0.07981
7150.76179,-0.00398
7152.69026,0.17457
7154.61873,0.18801
7156.54719,0.04674
7158.47566,-0.00459
7160.40413,0.05193
7162.33260,0.07472
7164.26107,0.01202
7166.18954,-0.04139
7168.11801,0.02498
7170.04647,0.16666
7171.97494,0.22447
7173.90341,0.19764
7175.83188,0.18870
7177.76035,0.20740
7179.68882,0.19156
7181.61729,0.20698
7183.54576,0.29800
7185.47422,0.29971
7187.40269,0.23590
7189.33116,0.19612
7191.25963,0.12816
7193.18810,0.04498
7195.11657,0.03746
7197.04504,0.05821
7198.97350,0.09447
7200.90197,0.19566
7202.83044,0.27376
7204.75891,0.20201
7206.68738,0.08291
7208.61585,0.02277
7210.54432,-0.03822
7212.47279,-0.08007
7214.40125,-0.07370
7216.32972,-0.06265
7218.25819,-0.02804
7220.18666,0.03362
7222.11513,0.03464
7224.04360,0.03753
7225.97207,0.15041
7227.90053,0.27991
7229.82900,0.24540
7231.75747,0.06508
7233.68594,0.00995
7235.61441,0.09750
7237.54288,0.16915
7239.47135,0.15352
7241.39982,0.05164
7243.32828,-0.02611
7245.25675,-0.03679
7247.18522,-0.11686
7249.11369,-0.18719
7251.04216,-0.13787
7252.97063,-0.07979
7254.89910,-0.02780
7256.82756,0.07579
7258.75603,0.15194
7260.68450,0.17375
7262.61297,0.17184
7264.54144,0.14590
7266.46991,0.11334
7268.39838,0.06222
7270.32685,-0.01153
7272.25531,0.00091
7274.18378,0.08222
7276.11225,0.10839
7278.04072,0.13257
7279.96919,0.09847
7281.89766,-0.04408
7283.82613,-0.08549
7285.75459,0.00731
7287.68306,0.07926
7289.61153,0.02062
7291.54000,-0.11093
7293.46847,-0.17022
7295.39694,-0.07609
7297.32541,0.07488
7299.25387,0.10560
7301.18234,0.04783
7303.11081,-0.01660
7305.03928,-0.05607
7306.96775,0.03513
7308.89622,0.11798
7310.82469,-0.01415
7312.75316,-0.05840
7314.68162,0.04972
7316.61009,0.16475
7318.53856,0.20496
7320.46703,0.08625
7322.39550,-0.07529
7324.32397,-0.01334
7326.25244,0.15367
7328.18090,0.17008
7330.10937,0.07950
7332.03784,0.05912
7333.96631,0.02976
7335.89478,-0.03827
7337.82325,0.02362
7339.75172,0.27815
7341.68019,0.34524
7343.60865,0.26606
7345.53712,0.25129
7347.46559,0.22572
7349.39406,0.19085
7351.32253,0.20614
7353.25100,0.16380
7355.17947,0.02327
7357.10793,-0.02862
7359.03640,0.06887
7360.96487,0.11984
7362.89334,0.07891
7364.82181,0.01826
7366.75028,0.06607
7368.67875,0.22520
7370.60722,0.33779
7372.53568,0.33890
7374.46415,0.26248
7376.39262,0.19117
7378.32109,0.20821
7380.24956,0.27884
7382.17803,0.25848
7384.10650,0.07904
7386.03496,-0.08182
7387.96343,-0.09765
7389.89190,-0.05251
7391.82037,-0.01479
7393.74884,0.05916
7395.67731,0.15778
7397.60578,0.13774
7399.53425,0.04388
7401.46271,0.05610
7403.39118,0.12450
7405.31965,0.10556
7407.24812,0.08805
7409.17659,0.10948
7411.10506,0.07741
7413.03353,0.00509
7414.96199,-0.00393
7416.89046,0.05101
7418.81893,0.07040
7420.74740,0.05307
7422.67587,0.02969
7424.60434,-0.04684
7426.53281,-0.14314
7428.46128,-0.13459
7430.38974,-0.00285
7432.31821,-0.01176
7434.24668,-0.05064
7436.17515,0.14154
7438.10362,0.22886
7440.03209,-0.01456
7441.96056,-0.14866
7443.88902,-0.01169
7445.81749,0.04603
7447.74596,0.01898
7449.67443,0.12012
7451.60290,0.19776
7453.53137,0.13797
7455.45984,0.09730
7457.38831,0.06997
7459.31677,0.06552
7461.24524,0.11005
7463.17371,0.07180
7465.10218,-0.06166
7467.03065,-0.13689
7468.95912,-0.07477
7470.88759,0.09143
7472.81605,0.15482
7474.74452,0.00822
7476.67299,-0.13178
7478.60146,-0.08082
7480.52993,0.06515
7482.45840,0.05915
7484.38687,-0.10871
7486.31533,-0.23822
7488.24380,-0.19527
7490.17227,-0.02168
7492.10074,0.12411
7494.02921,0.15297
7495.95768,0.08236
7497.88615,-0.07549
