399.19301,0.01191
401.12148,-0.02484
403.04995,0.16170
404.97842,0.17327
406.90689,0.07943
408.83536,0.04995
410.76382,0.10615
412.69229,0.14834
414.62076,0.15756
416.54923,0.15472
418.47770,0.12071
420.40617,0.02903
422.33464,-0.06768
424.26311,-0.07663
426.19157,0.02947
428.12004,0.10940
430.04851,0.06456
431.97698,-0.04574
433.90545,-0.06024
435.83392,0.02618
437.76239,0.09572
439.69085,0.09318
441.61932,0.08046
443.54779,0.12884
445.47626,0.16243
447.40473,0.11164
449.33320,0.05113
451.26167,0.02515
453.19013,0.01460
455.11860,0.02957
457.04707,0.03002
458.97554,-0.00547
460.90401,-0.00217
462.83248,0.02730
464.76095,0.02416
466.68942,0.01361
468.61788,0.00864
470.54635,-0.03125
472.47482,-0.06132
474.40329,0.01136
476.33176,0.08110
478.26023,0.09660
480.18870,0.09067
482.11716,0.07987
484.04563,0.07073
485.97410,0.05075
487.90257,0.03905
489.83104,0.07554
491.75951,0.13011
493.68798,0.13525
495.61645,0.10533
497.54491,0.08354
499.47338,0.06839
501.40185,0.05451
503.33032,0.05354
505.25879,0.06716
507.18726,0.07232
509.11573,0.07499
511.04419,0.10406
512.97266,0.12813
514.90113,0.11605
516.82960,0.09342
518.75807,0.07363
520.68654,0.05535
522.61501,0.05563
524.54348,0.07125
526.47194,0.08359
528.40041,0.08633
530.32888,0.08912
532.25735,0.10928
534.18582,0.12345
536.11429,0.10612
538.04276,0.09484
539.97122,0.11032
541.89969,0.12125
543.82816,0.11372
545.75663,0.10604
547.68510,0.09424
549.61357,0.05687
551.54204,-0.01825
553.47051,-0.07460
555.39897,-0.02447
557.32744,0.06450
559.25591,0.08416
561.18438,0.05807
563.11285,0.03554
565.04132,0.04169
566.96979,0.06108
568.89825,0.07576
570.82672,0.08110
572.75519,0.06537
574.68366,0.05329
576.61213,0.06364
578.54060,0.07800
580.46907,0.08574
582.39754,0.09387
584.32600,0.10778
586.25447,0.11812
588.18294,0.11423
590.11141,0.10160
592.03988,0.09526
593.96835,0.10238
595.89682,0.10823
597.82528,0.09647
599.75375,0.07744
601.68222,0.06540
603.61069,0.06814
605.53916,0.08722
607.46763,0.10418
609.39610,0.10311
611.32456,0.09233
613.25303,0.08578
615.18150,0.08003
617.10997,0.07266
619.03844,0.07373
620.96691,0.07943
622.89538,0.07158
624.82385,0.05687
626.75231,0.05752
628.68078,0.06892
630.60925,0.07792
632.53772,0.08756
634.46619,0.10122
636.39466,0.11062
638.32313,0.10790
640.25159,0.10988
642.18006,0.13267
644.10853,0.14736
646.03700,0.13301
647.96547,0.11419
649.89394,0.10864
651.82241,0.10640
653.75088,0.09633
655.67934,0.08017
657.60781,0.06689
659.53628,0.06206
661.46475,0.07027
663.39322,0.08737
665.32169,0.10614
667.25016,0.13152
669.17862,0.14216
671.10709,0.11913
673.03556,0.10136
674.96403,0.10467
676.89250,0.12438
678.82097,0.13419
680.74944,0.11941
682.67791,0.10230
684.60637,0.10123
686.53484,0.10618
688.46331,0.10622
690.39178,0.11019
692.32025,0.11700
694.24872,0.11302
696.17719,0.10486
698.10565,0.10699
700.03412,0.11377
701.96259,0.10973
703.89106,0.09842
705.81953,0.09191
707.74800,0.09634
709.67647,0.12389
711.60494,0.15952
713.53340,0.16181
715.46187,0.13373
717.39034,0.10847
719.31881,0.09853
721.24728,0.10455
723.17575,0.11464
725.10422,0.11502
727.03268,0.10898
728.96115,0.10668
730.88962,0.10748
732.81809,0.10843
734.74656,0.11306
736.67503,0.11660
738.60350,0.11660
740.53197,0.11020
742.46043,0.09538
744.38890,0.08665
746.31737,0.08772
748.24584,0.09191
750.17431,0.09909
752.10278,0.10630
754.03125,0.11014
755.95971,0.10967
757.88818,0.10616
759.81665,0.10571
761.74512,0.11020
763.67359,0.10922
765.60206,0.10182
767.53053,0.10093
769.45900,0.10657
771.38746,0.11092
773.31593,0.11351
775.24440,0.11651
777.17287,0.12179
779.10134,0.12646
781.02981,0.12235
782.95828,0.11451
784.88674,0.11563
786.81521,0.12243
788.74368,0.12156
790.67215,0.11267
792.60062,0.10777
794.52909,0.10704
796.45756,0.10650
798.38602,0.10833
800.31449,0.10917
802.24296,0.11116
804.17143,0.11631
806.09990,0.11505
808.02837,0.11023
809.95684,0.11461
811.88531,0.12159
813.81377,0.12008
815.74224,0.11518
817.67071,0.11524
819.59918,0.11892
821.52765,0.12358
823.45612,0.12968
825.38459,0.12898
827.31305,0.11984
829.24152,0.11256
831.16999,0.10511
833.09846,0.09556
835.02693,0.09790
836.95540,0.11310
838.88387,0.12291
840.81234,0.12354
842.74080,0.11954
844.66927,0.11209
846.59774,0.10835
848.52621,0.11203
850.45468,0.11787
852.38315,0.12079
854.31162,0.11708
856.24008,0.10817
858.16855,0.10365
860.09702,0.10694
862.02549,0.11356
863.95396,0.11936
865.88243,0.12068
867.81090,0.11977
869.73937,0.12336
871.66783,0.12900
873.59630,0.13049
875.52477,0.13125
877.45324,0.12966
879.38171,0.12212
881.31018,0.11787
883.23865,0.11881
885.16711,0.11764
887.09558,0.11370
889.02405,0.10858
890.95252,0.10551
892.88099,0.10745
894.80946,0.11280
896.73793,0.12000
898.66640,0.12697
900.59486,0.13227
902.52333,0.13540
904.45180,0.13298
906.38027,0.12415
908.30874,0.11544
910.23721,0.11521
912.16568,0.12313
914.09414,0.12973
916.02261,0.13150
917.95108,0.13259
919.87955,0.13141
921.80802,0.12621
923.73649,0.12364
925.66496,0.13032
927.59343,0.14121
929.52189,0.14482
931.45036,0.14261
933.37883,0.13950
935.30730,0.13256
937.23577,0.12423
939.16424,0.11997
941.09271,0.12022
943.02117,0.12242
944.94964,0.12171
946.87811,0.11807
948.80658,0.11722
950.73505,0.12040
952.66352,0.12601
954.59199,0.13290
956.52045,0.13716
958.44892,0.13691
960.37739,0.13532
962.30586,0.13345
964.23433,0.13199
966.16280,0.13177
968.09127,0.13015
970.01974,0.12877
971.94820,0.13082
973.87667,0.13225
975.80514,0.12986
977.73361,0.12796
979.66208,0.12875
981.59055,0.12928
983.51902,0.12835
985.44748,0.12748
987.37595,0.12945
989.30442,0.13365
991.23289,0.13973
993.16136,0.14744
995.08983,0.14886
997.01830,0.14283
998.94677,0.13926
1000.87523,0.13964
1002.80370,0.13929
1004.73217,0.13905
1006.66064,0.13937
1008.58911,0.13859
1010.51758,0.13538
1012.44605,0.12999
1014.37451,0.12792
1016.30298,0.13167
1018.23145,0.13541
1020.15992,0.13744
1022.08839,0.14176
1024.01686,0.14369
1025.94533,0.13526
1027.87380,0.12353
1029.80226,0.12441
1031.73073,0.13560
1033.65920,0.14167
1035.58767,0.13897
1037.51614,0.13257
1039.44461,0.12811
1041.37308,0.12763
1043.30154,0.13055
1045.23001,0.13421
1047.15848,0.13516
1049.08695,0.13554
1051.01542,0.13888
1052.94389,0.14364
1054.87236,0.14588
1056.80083,0.14781
1058.72929,0.14848
1060.65776,0.14391
1062.58623,0.14021
1064.51470,0.14071
1066.44317,0.14223
1068.37164,0.14575
1070.30011,0.15460
1072.22857,0.16252
1074.15704,0.16341
1076.08551,0.16188
1078.01398,0.15828
1079.94245,0.15471
1081.87092,0.15368
1083.79939,0.14883
1085.72786,0.14106
1087.65632,0.13850
1089.58479,0.14117
1091.51326,0.14400
1093.44173,0.14344
1095.37020,0.13766
1097.29867,0.13242
1099.22714,0.13635
1101.15560,0.14646
1103.08407,0.15370
1105.01254,0.15630
1106.94101,0.15660
1108.86948,0.15546
1110.79795,0.15469
1112.72642,0.15491
1114.65489,0.15473
1116.58335,0.15367
1118.51182,0.15184
1120.44029,0.14869
1122.36876,0.14502
1124.29723,0.14278
1126.22570,0.14447
1128.15417,0.15058
1130.08263,0.15376
1132.01110,0.15016
1133.93957,0.14799
1135.86804,0.15162
1137.79651,0.15363
1139.72498,0.15029
1141.65345,0.14763
1143.58191,0.14853
1145.51038,0.15044
1147.43885,0.15074
1149.36732,0.14822
1151.29579,0.14640
1153.22426,0.14988
1155.15273,0.15559
1157.08120,0.15828
1159.00966,0.15706
1160.93813,0.15303
1162.86660,0.15109
1164.79507,0.15351
1166.72354,0.15588
1168.65201,0.15814
1170.58048,0.16061
1172.50894,0.15865
1174.43741,0.15446
1176.36588,0.15460
1178.29435,0.15655
1180.22282,0.15513
1182.15129,0.15228
1184.07976,0.15092
1186.00823,0.15011
1187.93669,0.14773
1189.86516,0.14506
1191.79363,0.14664
1193.72210,0.15031
1195.65057,0.15059
1197.57904,0.15118
1199.50751,0.15551
1201.43597,0.15821
1203.36444,0.15624
1205.29291,0.15266
1207.22138,0.14988
1209.14985,0.14790
1211.07832,0.14773
1213.00679,0.15187
1214.93526,0.15780
1216.86372,0.15991
1218.79219,0.15868
1220.72066,0.15689
1222.64913,0.15538
1224.57760,0.15585
1226.50607,0.15829
1228.43454,0.15971
1230.36300,0.16014
1232.29147,0.16006
1234.21994,0.15713
1236.14841,0.15374
1238.07688,0.15393
1240.00535,0.15557
1241.93382,0.15572
1243.86229,0.15485
1245.79075,0.15423
1247.71922,0.15517
1249.64769,0.15757
1251.57616,0.15968
1253.50463,0.16115
1255.43310,0.16148
1257.36157,0.15944
1259.29003,0.15634
1261.21850,0.15396
1263.14697,0.15216
1265.07544,0.15172
1267.00391,0.15289
1268.93238,0.15454
1270.86085,0.15712
1272.78932,0.16025
1274.71778,0.16206
1276.64625,0.16233
1278.57472,0.16247
1280.50319,0.16275
1282.43166,0.16349
1284.36013,0.16569
1286.28860,0.16776
1288.21706,0.16743
1290.14553,0.16392
1292.07400,0.16050
1294.00247,0.16156
1295.93094,0.16441
1297.85941,0.16516
1299.78788,0.16349
1301.71634,0.15926
1303.64481,0.15597
1305.57328,0.15872
1307.50175,0.16479
1309.43022,0.16767
1311.35869,0.16769
1313.28716,0.16740
1315.21563,0.16591
1317.14409,0.16508
1319.07256,0.16634
1321.00103,0.16586
1322.92950,0.16364
1324.85797,0.16158
1326.78644,0.15863
1328.71491,0.15646
1330.64337,0.15691
1332.57184,0.15928
1334.50031,0.16312
1336.42878,0.16778
1338.35725,0.17209
1340.28572,0.17246
1342.21419,0.16895
1344.14266,0.16773
1346.07112,0.16842
1347.99959,0.16614
1349.92806,0.16187
1351.85653,0.15984
1353.78500,0.16181
1355.71347,0.16517
1357.64194,0.16601
1359.57040,0.16602
1361.49887,0.16759
1363.42734,0.16815
1365.35581,0.16735
1367.28428,0.16808
1369.21275,0.17049
1371.14122,0.17478
1373.06969,0.17999
1374.99815,0.18024
1376.92662,0.17514
1378.85509,0.17116
1380.78356,0.17034
1382.71203,0.17089
1384.64050,0.17238
1386.56897,0.17531
1388.49743,0.17638
1390.42590,0.17622
1392.35437,0.17872
1394.28284,0.18275
1396.21131,0.18472
1398.13978,0.18397
1400.06825,0.18245
1401.99672,0.18223
1403.92518,0.18345
1405.85365,0.18211
1407.78212,0.17638
1409.71059,0.17094
1411.63906,0.16882
1413.56753,0.16978
1415.49600,0.17354
1417.42446,0.17942
1419.35293,0.18337
1421.28140,0.18534
1423.20987,0.18644
1425.13834,0.18201
1427.06681,0.17659
1428.99528,0.17642
1430.92375,0.17755
1432.85221,0.17781
1434.78068,0.18037
1436.70915,0.18177
1438.63762,0.17735
1440.56609,0.17359
1442.49456,0.17316
1444.42303,0.17583
1446.35149,0.18047
1448.27996,0.18271
1450.20843,0.18218
1452.13690,0.18398
1454.06537,0.19084
1455.99384,0.20251
1457.92231,0.20563
1459.85077,0.19613
1461.77924,0.19105
1463.70771,0.19009
1465.63618,0.18647
1467.56465,0.18147
1469.49312,0.18238
1471.42159,0.18917
1473.35006,0.19360
1475.27852,0.19084
1477.20699,0.18698
1479.13546,0.18524
1481.06393,0.18603
1482.99240,0.18723
1484.92087,0.18889
1486.84934,0.19483
1488.77780,0.20217
1490.70627,0.19712
1492.63474,0.18738
1494.56321,0.18707
1496.49168,0.19470
1498.42015,0.19686
1500.34862,0.18643
1502.27709,0.17305
1504.20555,0.16867
1506.13402,0.18776
1508.06249,0.21099
1509.99096,0.20340
1511.91943,0.19384
1513.84790,0.19260
1515.77637,0.19852
1517.70483,0.20667
1519.63330,0.21513
1521.56177,0.21779
1523.49024,0.20905
1525.41871,0.20139
1527.34718,0.19611
1529.27565,0.19365
1531.20412,0.19704
1533.13258,0.20041
1535.06105,0.19753
1536.98952,0.20043
1538.91799,0.21934
1540.84646,0.23929
1542.77493,0.22944
1544.70340,0.21155
1546.63186,0.19889
1548.56033,0.19359
1550.48880,0.19325
1552.41727,0.19700
1554.34574,0.20467
1556.27421,0.21444
1558.20268,0.22216
1560.13115,0.21015
1562.05961,0.19787
1563.98808,0.19366
1565.91655,0.19255
1567.84502,0.19511
1569.77349,0.19816
1571.70196,0.19577
1573.63043,0.19527
1575.55889,0.19948
1577.48736,0.19774
1579.41583,0.18971
1581.34430,0.18490
1583.27277,0.18481
1585.20124,0.18634
1587.12971,0.18783
1589.05818,0.18868
1590.98664,0.18697
1592.91511,0.18467
1594.84358,0.18519
1596.77205,0.18572
1598.70052,0.18447
1600.62899,0.18425
1602.55746,0.18521
1604.48592,0.18571
1606.41439,0.18638
1608.34286,0.18794
1610.27133,0.18865
1612.19980,0.18980
1614.12827,0.19544
1616.05674,0.20337
1617.98521,0.20254
1619.91367,0.19841
1621.84214,0.20031
1623.77061,0.20285
1625.69908,0.20094
1627.62755,0.19957
1629.55602,0.20031
1631.48449,0.20363
1633.41295,0.21189
1635.34142,0.22153
1637.26989,0.21595
1639.19836,0.20398
1641.12683,0.19747
1643.05530,0.19785
1644.98377,0.20651
1646.91223,0.21921
1648.84070,0.22167
1650.76917,0.22243
1652.69764,0.22830
1654.62611,0.21881
1656.55458,0.20433
1658.48305,0.19882
1660.41152,0.20328
1662.33998,0.21084
1664.26845,0.20766
1666.19692,0.20228
1668.12539,0.20440
1670.05386,0.20719
1671.98233,0.20447
1673.91080,0.20185
1675.83926,0.19892
1677.76773,0.19808
1679.69620,0.20306
1681.62467,0.21245
1683.55314,0.22303
1685.48161,0.21997
1687.41008,0.20839
1689.33855,0.20093
1691.26701,0.19830
1693.19548,0.20230
1695.12395,0.21319
1697.05242,0.22079
1698.98089,0.21538
1700.90936,0.20437
1702.83783,0.20077
1704.76629,0.20291
1706.69476,0.20331
1708.62323,0.19968
1710.55170,0.19597
1712.48017,0.19647
1714.40864,0.20460
1716.33711,0.21649
1718.26558,0.21538
1720.19404,0.20441
1722.12251,0.19649
1724.05098,0.19134
1725.97945,0.18974
1727.90792,0.19262
1729.83639,0.19628
1731.76486,0.20019
1733.69332,0.20538
1735.62179,0.20465
1737.55026,0.20198
1739.47873,0.20148
1741.40720,0.20094
1743.33567,0.20067
1745.26414,0.20292
1747.19261,0.20806
1749.12107,0.21263
1751.04954,0.20851
1752.97801,0.19873
1754.90648,0.19430
1756.83495,0.19444
1758.76342,0.19333
1760.69189,0.19265
1762.62035,0.19279
1764.54882,0.19209
1766.47729,0.19527
1768.40576,0.20219
1770.33423,0.20801
1772.26270,0.20948
1774.19117,0.20247
1776.11964,0.19397
1778.04810,0.19170
1779.97657,0.19448
1781.90504,0.19559
1783.83351,0.19357
1785.76198,0.19078
1787.69045,0.18962
1789.61892,0.19377
1791.54738,0.20131
1793.47585,0.20271
1795.40432,0.19867
1797.33279,0.19599
1799.26126,0.19563
1801.18973,0.19580
1803.11820,0.19540
1805.04666,0.19463
1806.97513,0.19378
1808.90360,0.19388
1810.83207,0.19418
1812.76054,0.19208
1814.68901,0.18913
1816.61748,0.18710
1818.54595,0.18515
1820.47441,0.18541
1822.40288,0.18901
1824.33135,0.19179
1826.25982,0.19354
1828.18829,0.19771
1830.11676,0.19961
1832.04523,0.19610
1833.97369,0.19348
1835.90216,0.19356
1837.83063,0.19398
1839.75910,0.19400
1841.68757,0.19602
1843.61604,0.20019
1845.54451,0.20078
1847.47298,0.19759
1849.40144,0.19461
1851.32991,0.19211
1853.25838,0.18986
1855.18685,0.18866
1857.11532,0.18921
1859.04379,0.19035
1860.97226,0.19024
1862.90072,0.18934
1864.82919,0.19042
1866.75766,0.19478
1868.68613,0.19922
1870.61460,0.19826
1872.54307,0.19399
1874.47154,0.19110
1876.40001,0.18986
1878.32847,0.18928
1880.25694,0.18954
1882.18541,0.19038
1884.11388,0.19112
1886.04235,0.19180
1887.97082,0.19305
1889.89929,0.19293
1891.82775,0.19156
1893.75622,0.19224
1895.68469,0.19308
1897.61316,0.19078
1899.54163,0.18762
1901.47010,0.18722
1903.39857,0.18910
1905.32704,0.19092
1907.25550,0.19204
1909.18397,0.19216
1911.11244,0.19105
1913.04091,0.18915
1914.96938,0.18734
1916.89785,0.18756
1918.82632,0.19039
1920.75478,0.19297
1922.68325,0.19285
1924.61172,0.18997
1926.54019,0.18745
1928.46866,0.18734
1930.39713,0.18806
1932.32560,0.18795
1934.25407,0.18788
1936.18253,0.18918
1938.11100,0.19109
1940.03947,0.19246
1941.96794,0.19289
1943.89641,0.19333
1945.82488,0.19450
1947.75335,0.19394
1949.68181,0.19138
1951.61028,0.18994
1953.53875,0.19026
1955.46722,0.19086
1957.39569,0.19132
1959.32416,0.19169
1961.25263,0.19157
1963.18110,0.19093
1965.10956,0.19131
1967.03803,0.19291
1968.96650,0.19313
1970.89497,0.19213
1972.82344,0.19126
1974.75191,0.19034
1976.68038,0.19135
1978.60884,0.19583
1980.53731,0.19857
1982.46578,0.19541
1984.39425,0.19188
1986.32272,0.19174
1988.25119,0.19204
1990.17966,0.19245
1992.10812,0.19357
1994.03659,0.19307
1995.96506,0.19122
1997.89353,0.19048
1999.82200,0.19049
2001.75047,0.19025
2003.67894,0.19044
2005.60741,0.19201
2007.53587,0.19378
2009.46434,0.19313
2011.39281,0.19146
2013.32128,0.19142
2015.24975,0.19257
2017.17822,0.19328
2019.10669,0.19274
2021.03515,0.19275
2022.96362,0.19353
2024.89209,0.19265
2026.82056,0.19095
2028.74903,0.19080
2030.67750,0.19155
2032.60597,0.19255
2034.53444,0.19373
2036.46290,0.19431
2038.39137,0.19444
2040.31984,0.19384
2042.24831,0.19277
2044.17678,0.19297
2046.10525,0.19388
2048.03372,0.19420
2049.96218,0.19441
2051.89065,0.19434
2053.81912,0.19413
2055.74759,0.19492
2057.67606,0.19578
2059.60453,0.19512
2061.53300,0.19348
2063.46147,0.19251
2065.38993,0.19316
2067.31840,0.19421
2069.24687,0.19451
2071.17534,0.19495
2073.10381,0.19570
2075.03228,0.19538
2076.96075,0.19430
2078.88921,0.19382
2080.81768,0.19380
2082.74615,0.19412
2084.67462,0.19487
2086.60309,0.19554
2088.53156,0.19604
2090.46003,0.19638
2092.38850,0.19709
2094.31696,0.19785
2096.24543,0.19737
2098.17390,0.19581
2100.10237,0.19399
2102.03084,0.19318
2103.95931,0.19374
2105.88778,0.19385
2107.81624,0.19354
2109.74471,0.19462
2111.67318,0.19602
2113.60165,0.19615
2115.53012,0.19598
2117.45859,0.19609
2119.38706,0.19610
2121.31553,0.19560
2123.24399,0.19422
2125.17246,0.19356
2127.10093,0.19462
2129.02940,0.19500
2130.95787,0.19372
2132.88634,0.19276
2134.81481,0.19334
2136.74327,0.19428
2138.67174,0.19478
2140.60021,0.19568
2142.52868,0.19550
2144.45715,0.19448
2146.38562,0.19552
2148.31409,0.19676
2150.24255,0.19622
2152.17102,0.19603
2154.09949,0.19678
2156.02796,0.19643
2157.95643,0.19513
2159.88490,0.19468
2161.81337,0.19529
2163.74184,0.19705
2165.67030,0.19899
2167.59877,0.19889
2169.52724,0.19711
2171.45571,0.19620
2173.38418,0.19686
2175.31265,0.19747
2177.24112,0.19636
2179.16958,0.19412
2181.09805,0.19336
2183.02652,0.19469
2184.95499,0.19584
2186.88346,0.19662
2188.81193,0.19797
2190.74040,0.19755
2192.66887,0.19518
2194.59733,0.19397
2196.52580,0.19383
2198.45427,0.19400
2200.38274,0.19522
2202.31121,0.19762
2204.23968,0.19961
2206.16815,0.19862
2208.09661,0.19581
2210.02508,0.19506
2211.95355,0.19619
2213.88202,0.19647
2215.81049,0.19670
2217.73896,0.19875
2219.66743,0.20058
2221.59590,0.19976
2223.52436,0.19699
2225.45283,0.19394
2227.38130,0.19210
2229.30977,0.19349
2231.23824,0.19773
2233.16671,0.20042
2235.09518,0.20001
2237.02364,0.19896
2238.95211,0.19718
2240.88058,0.19421
2242.80905,0.19266
2244.73752,0.19397
2246.66599,0.19600
2248.59446,0.19655
2250.52293,0.19621
2252.45139,0.19688
2254.37986,0.19897
2256.30833,0.20023
2258.23680,0.19951
2260.16527,0.19842
2262.09374,0.19708
2264.02221,0.19594
2265.95067,0.19669
2267.87914,0.19741
2269.80761,0.19647
2271.73608,0.19612
2273.66455,0.19774
2275.59302,0.19895
2277.52149,0.19801
2279.44996,0.19681
2281.37842,0.19714
2283.30689,0.19808
2285.23536,0.19746
2287.16383,0.19575
2289.09230,0.19495
2291.02077,0.19467
2292.94924,0.19505
2294.87770,0.19604
2296.80617,0.19503
2298.73464,0.19269
2300.66311,0.19164
2302.59158,0.19104
2304.52005,0.19039
2306.44852,0.18969
2308.37699,0.18844
2310.30545,0.18778
2312.23392,0.18761
2314.16239,0.18703
2316.09086,0.18603
2318.01933,0.18477
2319.94780,0.18374
2321.87627,0.18214
2323.80473,0.17882
2325.73320,0.17483
2327.66167,0.17233
2329.59014,0.17074
2331.51861,0.16819
2333.44708,0.16618
2335.37555,0.16393
2337.30401,0.15900
2339.23248,0.15399
2341.16095,0.15117
2343.08942,0.15395
2345.01789,0.16648
2346.94636,0.17875
2348.87483,0.18275
2350.80330,0.18232
2352.73176,0.18116
2354.66023,0.17662
2356.58870,0.16850
2358.51717,0.16345
2360.44564,0.15697
2362.37411,0.14533
2364.30258,0.13962
2366.23104,0.14456
2368.15951,0.15124
2370.08798,0.15899
2372.01645,0.17110
2373.94492,0.18045
2375.87339,0.18416
2377.80186,0.18820
2379.73033,0.19277
2381.65879,0.19393
2383.58726,0.19359
2385.51573,0.19530
2387.44420,0.19721
2389.37267,0.19674
2391.30114,0.19575
2393.22961,0.19608
2395.15807,0.19641
2397.08654,0.19550
2399.01501,0.19475
2400.94348,0.19615
2402.87195,0.19850
2404.80042,0.19870
2406.72889,0.19721
2408.65736,0.19713
2410.58582,0.19790
2412.51429,0.19747
2414.44276,0.19781
2416.37123,0.20050
2418.29970,0.20295
2420.22817,0.20378
2422.15664,0.20328
2424.08510,0.20050
2426.01357,0.19765
2427.94204,0.19812
2429.87051,0.20098
2431.79898,0.20328
2433.72745,0.20250
2435.65592,0.19982
2437.58439,0.19908
2439.51285,0.20007
2441.44132,0.19985
2443.36979,0.19891
2445.29826,0.19937
2447.22673,0.20051
2449.15520,0.20263
2451.08367,0.20503
2453.01213,0.20400
2454.94060,0.20169
2456.86907,0.20112
2458.79754,0.20129
2460.72601,0.20218
2462.65448,0.20250
2464.58295,0.20159
2466.51142,0.20133
2468.43988,0.20255
2470.36835,0.20402
2472.29682,0.20406
2474.22529,0.20271
2476.15376,0.20035
2478.08223,0.19812
2480.01070,0.19856
2481.93916,0.20095
2483.86763,0.20194
2485.79610,0.20110
2487.72457,0.20018
2489.65304,0.20120
2491.58151,0.20292
2493.50998,0.20202
2495.43844,0.20068
2497.36691,0.20222
2499.29538,0.20440
2501.22385,0.20409
2503.15232,0.20248
2505.08079,0.20190
2507.00926,0.20218
2508.93773,0.20298
2510.86619,0.20374
2512.79466,0.20335
2514.72313,0.20192
2516.65160,0.20048
2518.58007,0.20008
2520.50854,0.20072
2522.43701,0.20195
2524.36547,0.20359
2526.29394,0.20370
2528.22241,0.20127
2530.15088,0.19983
2532.07935,0.20073
2534.00782,0.20107
2535.93629,0.20086
2537.86476,0.20166
2539.79322,0.20205
2541.72169,0.20129
2543.65016,0.20117
2545.57863,0.20184
2547.50710,0.20171
2549.43557,0.20054
2551.36404,0.19931
2553.29250,0.19932
2555.22097,0.20135
2557.14944,0.20290
2559.07791,0.20199
2561.00638,0.20159
2562.93485,0.20243
2564.86332,0.20270
2566.79179,0.20327
2568.72025,0.20456
2570.64872,0.20518
2572.57719,0.20408
2574.50566,0.20172
2576.43413,0.20021
2578.36260,0.20150
2580.29107,0.20472
2582.21953,0.20656
2584.14800,0.20626
2586.07647,0.20608
2588.00494,0.20571
2589.93341,0.20379
2591.86188,0.20230
2593.79035,0.20179
2595.71882,0.20084
2597.64728,0.20076
2599.57575,0.20196
2601.50422,0.20308
2603.43269,0.20359
2605.36116,0.20357
2607.28963,0.20359
2609.21810,0.20360
2611.14656,0.20413
2613.07503,0.20553
2615.00350,0.20569
2616.93197,0.20434
2618.86044,0.20317
2620.78891,0.20248
2622.71738,0.20247
2624.64585,0.20330
2626.57431,0.20412
2628.50278,0.20477
2630.43125,0.20615
2632.35972,0.20772
2634.28819,0.20739
2636.21666,0.20501
2638.14513,0.20403
2640.07359,0.20571
2642.00206,0.20560
2643.93053,0.20303
2645.85900,0.20221
2647.78747,0.20366
2649.71594,0.20624
2651.64441,0.20855
2653.57288,0.20842
2655.50134,0.20692
2657.42981,0.20699
2659.35828,0.20800
2661.28675,0.20832
2663.21522,0.20818
2665.14369,0.20698
2667.07216,0.20547
2669.00062,0.20604
2670.92909,0.20758
2672.85756,0.20783
2674.78603,0.20727
2676.71450,0.20689
2678.64297,0.20677
2680.57144,0.20703
2682.49990,0.20743
2684.42837,0.20750
2686.35684,0.20745
2688.28531,0.20772
2690.21378,0.20871
2692.14225,0.21077
2694.07072,0.21276
2695.99919,0.21332
2697.92765,0.21357
2699.85612,0.21491
2701.78459,0.21662
2703.71306,0.21612
2705.64153,0.21260
2707.57000,0.20973
2709.49847,0.20955
2711.42693,0.20973
2713.35540,0.20908
2715.28387,0.20859
2717.21234,0.20899
2719.14081,0.21036
2721.06928,0.21197
2722.99775,0.21270
2724.92622,0.21230
2726.85468,0.21114
2728.78315,0.21095
2730.71162,0.21297
2732.64009,0.21513
2734.56856,0.21585
2736.49703,0.21617
2738.42550,0.21605
2740.35396,0.21463
2742.28243,0.21404
2744.21090,0.21559
2746.13937,0.21635
2748.06784,0.21521
2749.99631,0.21513
2751.92478,0.21691
2753.85325,0.21724
2755.78171,0.21508
2757.71018,0.21342
2759.63865,0.21343
2761.56712,0.21404
2763.49559,0.21564
2765.42406,0.21824
2767.35253,0.21944
2769.28099,0.21798
2771.20946,0.21563
2773.13793,0.21452
2775.06640,0.21579
2776.99487,0.21856
2778.92334,0.21967
2780.85181,0.21823
2782.78028,0.21680
2784.70874,0.21718
2786.63721,0.21895
2788.56568,0.22001
2790.49415,0.21867
2792.42262,0.21621
2794.35109,0.21578
2796.27956,0.21758
2798.20802,0.21810
2800.13649,0.21686
2802.06496,0.21708
2803.99343,0.21839
2805.92190,0.21892
2807.85037,0.21898
2809.77884,0.21886
2811.70731,0.21872
2813.63577,0.21796
2815.56424,0.21663
2817.49271,0.21655
2819.42118,0.21714
2821.34965,0.21604
2823.27812,0.21404
2825.20659,0.21395
2827.13505,0.21522
2829.06352,0.21660
2830.99199,0.21861
2832.92046,0.21928
2834.84893,0.21895
2836.77740,0.22102
2838.70587,0.22324
2840.63433,0.22298
2842.56280,0.22205
2844.49127,0.22184
2846.41974,0.22223
2848.34821,0.22201
2850.27668,0.21975
2852.20515,0.21643
2854.13362,0.21471
2856.06208,0.21538
2857.99055,0.21743
2859.91902,0.22005
2861.84749,0.22215
2863.77596,0.22234
2865.70443,0.21994
2867.63290,0.21648
2869.56136,0.21600
2871.48983,0.21922
2873.41830,0.22056
2875.34677,0.21809
2877.27524,0.21696
2879.20371,0.21801
2881.13218,0.21910
2883.06065,0.22118
2884.98911,0.22326
2886.91758,0.22402
2888.84605,0.22296
2890.77452,0.21977
2892.70299,0.21776
2894.63146,0.21755
2896.55993,0.21750
2898.48839,0.21930
2900.41686,0.22151
2902.34533,0.22161
2904.27380,0.22056
2906.20227,0.21885
2908.13074,0.21677
2910.05921,0.21586
2911.98768,0.21707
2913.91614,0.21862
2915.84461,0.21768
2917.77308,0.21514
2919.70155,0.21373
2921.63002,0.21398
2923.55849,0.21634
2925.48696,0.21930
2927.41542,0.21828
2929.34389,0.21453
2931.27236,0.21541
2933.20083,0.22126
2935.12930,0.22464
2937.05777,0.22390
2938.98624,0.22342
2940.91471,0.22452
2942.84317,0.22479
2944.77164,0.22293
2946.70011,0.22038
2948.62858,0.21861
2950.55705,0.21833
2952.48552,0.21985
2954.41399,0.22201
2956.34245,0.22219
2958.27092,0.21996
2960.19939,0.21806
2962.12786,0.21841
2964.05633,0.22026
2965.98480,0.22106
2967.91327,0.22167
2969.84174,0.22370
2971.77020,0.22345
2973.69867,0.22104
2975.62714,0.22079
2977.55561,0.22206
2979.48408,0.22357
2981.41255,0.22523
2983.34102,0.22556
2985.26948,0.22491
2987.19795,0.22432
2989.12642,0.22466
2991.05489,0.22602
2992.98336,0.22782
2994.91183,0.23092
2996.84030,0.23263
2998.76877,0.22944
3000.69723,0.22423
3002.62570,0.22153
3004.55417,0.22194
3006.48264,0.22328
3008.41111,0.22491
3010.33958,0.22546
3012.26805,0.22084
3014.19651,0.21118
3016.12498,0.20449
3018.05345,0.20877
3019.98192,0.22066
3021.91039,0.23004
3023.83886,0.23282
3025.76733,0.23090
3027.69579,0.22733
3029.62426,0.22588
3031.55273,0.22800
3033.48120,0.22882
3035.40967,0.22600
3037.33814,0.22468
3039.26661,0.22674
3041.19508,0.22861
3043.12354,0.22756
3045.05201,0.22486
3046.98048,0.22437
3048.90895,0.22583
3050.83742,0.22531
3052.76589,0.22252
3054.69436,0.22062
3056.62282,0.22089
3058.55129,0.22356
3060.47976,0.22722
3062.40823,0.22774
3064.33670,0.22532
3066.26517,0.22267
3068.19364,0.22112
3070.12211,0.22265
3072.05057,0.22669
3073.97904,0.22814
3075.90751,0.22544
3077.83598,0.22424
3079.76445,0.22611
3081.69292,0.22710
3083.62139,0.22352
3085.54985,0.21801
3087.47832,0.21900
3089.40679,0.22494
3091.33526,0.22845
3093.26373,0.22794
3095.19220,0.22524
3097.12067,0.22397
3099.04914,0.22606
3100.97760,0.22873
3102.90607,0.22743
3104.83454,0.22472
3106.76301,0.22634
3108.69148,0.23017
3110.61995,0.23107
3112.54842,0.22936
3114.47688,0.22929
3116.40535,0.23081
3118.33382,0.22862
3120.26229,0.22258
3122.19076,0.22014
3124.11923,0.22408
3126.04770,0.22859
3127.97617,0.23057
3129.90463,0.23092
3131.83310,0.22823
3133.76157,0.22358
3135.69004,0.22080
3137.61851,0.22034
3139.54698,0.22174
3141.47545,0.22448
3143.40391,0.22653
3145.33238,0.22798
3147.26085,0.23020
3149.18932,0.23220
3151.11779,0.23187
3153.04626,0.22933
3154.97473,0.22834
3156.90320,0.22952
3158.83166,0.22821
3160.76013,0.22643
3162.68860,0.23025
3164.61707,0.23643
3166.54554,0.23699
3168.47401,0.23279
3170.40248,0.23015
3172.33094,0.22891
3174.25941,0.22823
3176.18788,0.22967
3178.11635,0.23125
3180.04482,0.23133
3181.97329,0.23170
3183.90176,0.23443
3185.83022,0.23651
3187.75869,0.23353
3189.68716,0.22966
3191.61563,0.23166
3193.54410,0.23753
3195.47257,0.23939
3197.40104,0.23586
3199.32951,0.23335
3201.25797,0.23445
3203.18644,0.23547
3205.11491,0.23536
3207.04338,0.23677
3208.97185,0.23783
3210.90032,0.23680
3212.82879,0.23682
3214.75725,0.23673
3216.68572,0.23350
3218.61419,0.22976
3220.54266,0.22804
3222.47113,0.22733
3224.39960,0.22634
3226.32807,0.22557
3228.25654,0.22679
3230.18500,0.22862
3232.11347,0.22920
3234.04194,0.22963
3235.97041,0.22837
3237.89888,0.22548
3239.82735,0.22589
3241.75582,0.23028
3243.68428,0.23254
3245.61275,0.22911
3247.54122,0.22545
3249.46969,0.22614
3251.39816,0.22794
3253.32663,0.22735
3255.25510,0.22681
3257.18357,0.22890
3259.11203,0.23088
3261.04050,0.23046
3262.96897,0.22802
3264.89744,0.22579
3266.82591,0.22654
3268.75438,0.22862
3270.68285,0.22893
3272.61131,0.22801
3274.53978,0.22631
3276.46825,0.22444
3278.39672,0.22408
3280.32519,0.22317
3282.25366,0.22133
3284.18213,0.22282
3286.11060,0.22700
3288.03906,0.22900
3289.96753,0.22932
3291.89600,0.23014
3293.82447,0.22846
3295.75294,0.22491
3297.68141,0.22461
3299.60988,0.22562
3301.53834,0.22464
3303.46681,0.22399
3305.39528,0.22478
3307.32375,0.22637
3309.25222,0.22757
3311.18069,0.22584
3313.10916,0.22319
3315.03763,0.22306
3316.96609,0.22378
3318.89456,0.22384
3320.82303,0.22341
3322.75150,0.22262
3324.67997,0.22372
3326.60844,0.22671
3328.53691,0.22889
3330.46537,0.23037
3332.39384,0.23209
3334.32231,0.23447
3336.25078,0.23488
3338.17925,0.23180
3340.10772,0.23110
3342.03619,0.23423
3343.96466,0.23611
3345.89312,0.23564
3347.82159,0.23475
3349.75006,0.23460
3351.67853,0.23388
3353.60700,0.23088
3355.53547,0.22706
3357.46394,0.22353
3359.39240,0.22207
3361.32087,0.22591
3363.24934,0.23218
3365.17781,0.23546
3367.10628,0.23624
3369.03475,0.23755
3370.96322,0.23808
3372.89168,0.23438
3374.82015,0.22921
3376.74862,0.22676
3378.67709,0.22643
3380.60556,0.22723
3382.53403,0.22725
3384.46250,0.22608
3386.39097,0.22681
3388.31943,0.22819
3390.24790,0.22762
3392.17637,0.22787
3394.10484,0.22987
3396.03331,0.23062
3397.96178,0.22888
3399.89025,0.22503
3401.81871,0.22103
3403.74718,0.22059
3405.67565,0.22354
3407.60412,0.22403
3409.53259,0.22018
3411.46106,0.21756
3413.38953,0.21796
3415.31800,0.21844
3417.24646,0.22052
3419.17493,0.22504
3421.10340,0.22860
3423.03187,0.23120
3424.96034,0.23098
3426.88881,0.22628
3428.81728,0.22300
3430.74574,0.22172
3432.67421,0.21798
3434.60268,0.21473
3436.53115,0.21434
3438.45962,0.21418
3440.38809,0.21488
3442.31656,0.21792
3444.24503,0.22128
3446.17349,0.22319
3448.10196,0.22106
3450.03043,0.21462
3451.95890,0.20988
3453.88737,0.21004
3455.81584,0.21140
3457.74431,0.21027
3459.67277,0.20858
3461.60124,0.20698
3463.52971,0.20381
3465.45818,0.20177
3467.38665,0.20258
3469.31512,0.20597
3471.24359,0.21075
3473.17206,0.21284
3475.10052,0.21141
3477.02899,0.21027
3478.95746,0.20982
3480.88593,0.20783
3482.81440,0.20571
3484.74287,0.20416
3486.67134,0.20246
3488.59980,0.20104
3490.52827,0.19926
3492.45674,0.19724
3494.38521,0.19559
3496.31368,0.19491
3498.24215,0.19654
3500.17062,0.20059
3502.09909,0.20424
3504.02755,0.20429
3505.95602,0.20249
3507.88449,0.20050
3509.81296,0.19742
3511.74143,0.19455
3513.66990,0.19255
3515.59837,0.19091
3517.52683,0.19120
3519.45530,0.19411
3521.38377,0.19663
3523.31224,0.19518
3525.24071,0.19125
3527.16918,0.19032
3529.09765,0.19190
3531.02611,0.19063
3532.95458,0.18555
3534.88305,0.17978
3536.81152,0.17729
3538.73999,0.17965
3540.66846,0.18441
3542.59693,0.18748
3544.52540,0.18669
3546.45386,0.18396
3548.38233,0.18308
3550.31080,0.18567
3552.23927,0.18833
3554.16774,0.18708
3556.09621,0.18420
3558.02468,0.18357
3559.95314,0.18594
3561.88161,0.18734
3563.81008,0.18583
3565.73855,0.18609
3567.66702,0.18586
3569.59549,0.17996
3571.52396,0.17510
3573.45243,0.17301
3575.38089,0.17108
3577.30936,0.16815
3579.23783,0.16472
3581.16630,0.16358
3583.09477,0.16616
3585.02324,0.17210
3586.95171,0.17782
3588.88017,0.17441
3590.80864,0.16881
3592.73711,0.16975
3594.66558,0.17224
3596.59405,0.17103
3598.52252,0.16934
3600.45099,0.16869
3602.37946,0.16692
3604.30792,0.16643
3606.23639,0.17083
3608.16486,0.17579
3610.09333,0.17448
3612.02180,0.17069
3613.95027,0.16861
3615.87874,0.16899
3617.80720,0.17057
3619.73567,0.16769
3621.66414,0.16157
3623.59261,0.15896
3625.52108,0.15883
3627.44955,0.15920
3629.37802,0.15831
3631.30649,0.15780
3633.23495,0.15894
3635.16342,0.15781
3637.09189,0.15475
3639.02036,0.15218
3640.94883,0.15036
3642.87730,0.15024
3644.80577,0.15340
3646.73423,0.16154
3648.66270,0.17156
3650.59117,0.16816
3652.51964,0.15798
3654.44811,0.15342
3656.37658,0.15100
3658.30505,0.14587
3660.23352,0.14131
3662.16198,0.14087
3664.09045,0.14308
3666.01892,0.14421
3667.94739,0.14620
3669.87586,0.15149
3671.80433,0.15582
3673.73280,0.15943
3675.66126,0.16082
3677.58973,0.15560
3679.51820,0.15027
3681.44667,0.14722
3683.37514,0.14473
3685.30361,0.14356
3687.23208,0.14787
3689.16055,0.15438
3691.08901,0.14974
3693.01748,0.14142
3694.94595,0.13853
3696.87442,0.13705
3698.80289,0.13538
3700.73136,0.13757
3702.65983,0.13972
3704.58829,0.13615
3706.51676,0.13398
3708.44523,0.13875
3710.37370,0.14769
3712.30217,0.15026
3714.23064,0.14563
3716.15911,0.14189
3718.08757,0.13903
3720.01604,0.13722
3721.94451,0.13865
3723.87298,0.14234
3725.80145,0.14506
3727.72992,0.14379
3729.65839,0.14267
3731.58686,0.14779
3733.51532,0.15715
3735.44379,0.15826
3737.37226,0.14925
3739.30073,0.14383
3741.22920,0.14456
3743.15767,0.14750
3745.08614,0.15008
3747.01460,0.15415
3748.94307,0.16354
3750.87154,0.17090
3752.80001,0.16038
3754.72848,0.14948
3756.65695,0.14763
3758.58542,0.14596
3760.51389,0.13924
3762.44235,0.13594
3764.37082,0.13732
3766.29929,0.13838
3768.22776,0.13884
3770.15623,0.13844
3772.08470,0.13643
3774.01317,0.13520
3775.94163,0.13618
3777.87010,0.14050
3779.79857,0.14361
3781.72704,0.14100
3783.65551,0.13758
3785.58398,0.13501
3787.51245,0.13200
3789.44092,0.12876
3791.36938,0.12759
3793.29785,0.13168
3795.22632,0.13867
3797.15479,0.14286
3799.08326,0.14529
3801.01173,0.14614
3802.94020,0.14133
3804.86866,0.13959
3806.79713,0.14247
3808.72560,0.13935
3810.65407,0.13095
3812.58254,0.12672
3814.51101,0.13127
3816.43948,0.14054
3818.36795,0.14475
3820.29641,0.14482
3822.22488,0.13987
3824.15335,0.13405
3826.08182,0.13183
3828.01029,0.13090
3829.93876,0.13138
3831.86723,0.13609
3833.79569,0.14332
3835.72416,0.14894
3837.65263,0.15279
3839.58110,0.15182
3841.50957,0.14625
3843.43804,0.14103
3845.36651,0.13552
3847.29498,0.13178
3849.22344,0.13408
3851.15191,0.14215
3853.08038,0.14880
3855.00885,0.14244
3856.93732,0.13492
3858.86579,0.13261
3860.79426,0.13484
3862.72272,0.13896
3864.65119,0.13833
3866.57966,0.13539
3868.50813,0.13676
3870.43660,0.13755
3872.36507,0.13509
3874.29354,0.13109
3876.22200,0.12458
3878.15047,0.12178
3880.07894,0.12425
3882.00741,0.12506
3883.93588,0.12440
3885.86435,0.12700
3887.79282,0.13046
3889.72129,0.13174
3891.64975,0.12969
3893.57822,0.12473
3895.50669,0.12214
3897.43516,0.12531
3899.36363,0.13456
3901.29210,0.14344
3903.22057,0.14280
3905.14903,0.13358
3907.07750,0.12627
3909.00597,0.12282
3910.93444,0.12016
3912.86291,0.11965
3914.79138,0.12170
3916.71985,0.12252
3918.64832,0.11980
3920.57678,0.11752
3922.50525,0.11832
3924.43372,0.11901
3926.36219,0.11789
3928.29066,0.11618
3930.21913,0.11549
3932.14760,0.11767
3934.07606,0.12152
3936.00453,0.12346
3937.93300,0.12089
3939.86147,0.11633
3941.78994,0.11567
3943.71841,0.11784
3945.64688,0.11813
3947.57535,0.11911
3949.50381,0.12101
3951.43228,0.11978
3953.36075,0.11798
3955.28922,0.11807
3957.21769,0.11778
3959.14616,0.11433
3961.07463,0.11034
3963.00309,0.11062
3964.93156,0.11205
3966.86003,0.11133
3968.78850,0.11002
3970.71697,0.10982
3972.64544,0.11264
3974.57391,0.11572
3976.50238,0.11581
3978.43084,0.11548
3980.35931,0.11465
3982.28778,0.11083
3984.21625,0.10739
3986.14472,0.10859
3988.07319,0.11146
3990.00166,0.11055
3991.93012,0.10533
3993.85859,0.10171
3995.78706,0.10415
3997.71553,0.10790
3999.64400,0.10904
4001.57247,0.11055
4003.50094,0.11230
4005.42941,0.11092
4007.35787,0.10917
4009.28634,0.11109
4011.21481,0.11200
4013.14328,0.10806
4015.07175,0.10297
4017.00022,0.10084
4018.92869,0.10192
4020.85715,0.10193
4022.78562,0.10036
4024.71409,0.10132
4026.64256,0.10304
4028.57103,0.10368
4030.49950,0.10592
4032.42797,0.10713
4034.35644,0.10304
4036.28490,0.09716
4038.21337,0.09512
4040.14184,0.09636
4042.07031,0.09767
4043.99878,0.09915
4045.92725,0.10166
4047.85572,0.10446
4049.78418,0.10572
4051.71265,0.10493
4053.64112,0.10390
4055.56959,0.10143
4057.49806,0.09578
4059.42653,0.09033
4061.35500,0.08899
4063.28346,0.09220
4065.21193,0.09784
4067.14040,0.10174
4069.06887,0.09962
4070.99734,0.09354
4072.92581,0.09049
4074.85428,0.09096
4076.78275,0.09015
4078.71121,0.08914
4080.63968,0.09125
4082.56815,0.09474
4084.49662,0.09834
4086.42509,0.10133
4088.35356,0.10132
4090.28203,0.09934
4092.21049,0.09564
4094.13896,0.08921
4096.06743,0.08524
4097.99590,0.08657
4099.92437,0.08784
4101.85284,0.08678
4103.78131,0.08623
4105.70978,0.08575
4107.63824,0.08487
4109.56671,0.08620
4111.49518,0.08830
4113.42365,0.08839
4115.35212,0.08653
4117.28059,0.08423
4119.20906,0.08572
4121.13752,0.08994
4123.06599,0.08965
4124.99446,0.08591
4126.92293,0.08476
4128.85140,0.08718
4130.77987,0.09188
4132.70834,0.09494
4134.63681,0.09196
4136.56527,0.08581
4138.49374,0.08141
4140.42221,0.07819
4142.35068,0.07369
4144.27915,0.07057
4146.20762,0.07405
4148.13609,0.08039
4150.06455,0.08454
4151.99302,0.08721
4153.92149,0.08676
4155.84996,0.08477
4157.77843,0.08327
4159.70690,0.08004
4161.63537,0.07682
4163.56384,0.07646
4165.49230,0.07747
4167.42077,0.07694
4169.34924,0.07713
4171.27771,0.07990
4173.20618,0.08064
4175.13465,0.07831
4177.06312,0.07501
4178.99158,0.07372
4180.92005,0.07651
4182.84852,0.07851
4184.77699,0.07751
4186.70546,0.07647
4188.63393,0.07519
4190.56240,0.07264
4192.49087,0.06954
4194.41933,0.06697
4196.34780,0.06619
4198.27627,0.06710
4200.20474,0.06673
4202.13321,0.06586
4204.06168,0.06853
4205.99015,0.07238
4207.91861,0.07382
4209.84708,0.07344
4211.77555,0.07154
4213.70402,0.06913
4215.63249,0.06875
4217.56096,0.06803
4219.48943,0.06386
4221.41789,0.06232
4223.34636,0.06641
4225.27483,0.06848
4227.20330,0.06661
4229.13177,0.06564
4231.06024,0.06607
4232.98871,0.06647
4234.91718,0.06698
4236.84564,0.06717
4238.77411,0.06763
4240.70258,0.06879
4242.63105,0.06677
4244.55952,0.06096
4246.48799,0.05697
4248.41646,0.05617
4250.34492,0.05597
4252.27339,0.05624
4254.20186,0.05812
4256.13033,0.06049
4258.05880,0.06051
4259.98727,0.05993
4261.91574,0.06026
4263.84421,0.05809
4265.77267,0.05516
4267.70114,0.05615
4269.62961,0.05882
4271.55808,0.05915
4273.48655,0.05777
4275.41502,0.05606
4277.34349,0.05446
4279.27195,0.05457
4281.20042,0.05759
4283.12889,0.06110
4285.05736,0.06205
4286.98583,0.06125
4288.91430,0.05756
4290.84277,0.05083
4292.77124,0.04813
4294.69970,0.04879
4296.62817,0.04665
4298.55664,0.04599
4300.48511,0.04670
4302.41358,0.04245
4304.34205,0.03878
4306.27052,0.04138
4308.19898,0.04535
4310.12745,0.04655
4312.05592,0.04481
4313.98439,0.04189
4315.91286,0.04131
4317.84133,0.04262
4319.76980,0.04212
4321.69827,0.03998
4323.62673,0.03843
4325.55520,0.03984
4327.48367,0.04523
4329.41214,0.04850
4331.34061,0.04507
4333.26908,0.04222
4335.19755,0.04311
4337.12601,0.04051
4339.05448,0.03662
4340.98295,0.03674
4342.91142,0.03709
4344.83989,0.03666
4346.76836,0.03827
4348.69683,0.04079
4350.62530,0.04000
4352.55376,0.03525
4354.48223,0.03082
4356.41070,0.02905
4358.33917,0.02951
4360.26764,0.03110
4362.19611,0.03297
4364.12458,0.03475
4366.05304,0.03414
4367.98151,0.03203
4369.90998,0.03261
4371.83845,0.03415
4373.76692,0.03417
4375.69539,0.03431
4377.62386,0.03377
4379.55232,0.03363
4381.48079,0.03629
4383.40926,0.03528
4385.33773,0.02948
4387.26620,0.02705
4389.19467,0.02477
4391.12314,0.01714
4393.05161,0.00991
4394.98007,0.01045
4396.90854,0.01771
4398.83701,0.02086
4400.76548,0.01661
4402.69395,0.01631
4404.62242,0.02362
4406.55089,0.02913
4408.47935,0.02750
4410.40782,0.02148
4412.33629,0.02016
4414.26476,0.02685
4416.19323,0.02992
4418.12170,0.02471
4420.05017,0.02028
4421.97864,0.01789
4423.90710,0.01318
4425.83557,0.00919
4427.76404,0.00923
4429.69251,0.01230
4431.62098,0.01582
4433.54945,0.01718
4435.47792,0.01977
4437.40638,0.02554
4439.33485,0.02897
4441.26332,0.02842
4443.19179,0.02693
4445.12026,0.02563
4447.04873,0.02631
4448.97720,0.02896
4450.90567,0.02751
4452.83413,0.02096
4454.76260,0.01675
4456.69107,0.01675
4458.61954,0.01681
4460.54801,0.01773
4462.47648,0.02084
4464.40495,0.01964
4466.33341,0.01282
4468.26188,0.00779
4470.19035,0.00602
4472.11882,0.00593
4474.04729,0.01114
4475.97576,0.01800
4477.90423,0.01801
4479.83270,0.01485
4481.76116,0.01336
4483.68963,0.01193
4485.61810,0.01119
4487.54657,0.01068
4489.47504,0.00755
4491.40351,0.00514
4493.33198,0.00721
4495.26044,0.00912
4497.18891,0.00932
4499.11738,0.01197
4501.04585,0.01639
4502.97432,0.01653
4504.90279,0.01274
4506.83126,0.01257
4508.75973,0.01273
4510.68819,0.00574
4512.61666,-0.00352
4514.54513,-0.00802
4516.47360,-0.00635
4518.40207,0.00158
4520.33054,0.01182
4522.25901,0.01647
4524.18747,0.01317
4526.11594,0.00625
4528.04441,0.00010
4529.97288,-0.00348
4531.90135,-0.00357
4533.82982,-0.00224
4535.75829,-0.00177
4537.68676,-0.00018
4539.61522,0.00087
4541.54369,-0.00118
4543.47216,-0.00206
4545.40063,0.00253
4547.32910,0.00787
4549.25757,0.00762
4551.18604,0.00380
4553.11450,0.00093
4555.04297,0.00186
4556.97144,0.00632
4558.89991,0.01000
4560.82838,0.00849
4562.75685,0.00422
4564.68532,0.00328
4566.61378,0.00346
4568.54225,0.00006
4570.47072,-0.00361
4572.39919,-0.00329
4574.32766,-0.00023
4576.25613,0.00433
4578.18460,0.00873
4580.11307,0.01045
4582.04153,0.01023
4583.97000,0.00845
4585.89847,0.00538
4587.82694,0.00235
4589.75541,-0.00011
4591.68388,-0.00434
4593.61235,-0.00915
4595.54081,-0.00612
4597.46928,0.00221
4599.39775,0.00520
4601.32622,0.00467
4603.25469,0.00354
4605.18316,0.00214
4607.11163,0.00540
4609.04010,0.00942
4610.96856,0.00446
4612.89703,-0.00582
4614.82550,-0.00897
4616.75397,-0.00228
4618.68244,0.00484
4620.61091,0.00605
4622.53938,0.00269
4624.46784,-0.00299
4626.39631,-0.00693
4628.32478,-0.00397
4630.25325,0.00306
4632.18172,0.00734
4634.11019,0.00743
4636.03866,0.00721
4637.96713,0.00557
4639.89559,-0.00034
4641.82406,-0.00622
4643.75253,-0.00736
4645.68100,-0.00623
4647.60947,-0.00580
4649.53794,-0.00424
4651.46641,-0.00243
4653.39487,-0.00512
4655.32334,-0.00783
4657.25181,-0.00220
4659.18028,0.00613
4661.10875,0.00786
4663.03722,0.00723
4664.96569,0.00989
4666.89416,0.01296
4668.82262,0.01527
4670.75109,0.01584
4672.67956,0.01250
4674.60803,0.00813
4676.53650,0.00555
4678.46497,0.00560
4680.39344,0.01202
4682.32190,0.01982
4684.25037,0.01753
4686.17884,0.01009
4688.10731,0.00673
4690.03578,0.00605
4691.96425,0.00622
4693.89272,0.00623
4695.82119,0.00646
4697.74965,0.00765
4699.67812,0.00995
4701.60659,0.01277
4703.53506,0.00919
4705.46353,-0.00326
4707.39200,-0.01235
4709.32047,-0.01121
4711.24893,-0.00696
4713.17740,-0.00495
4715.10587,-0.00585
4717.03434,-0.00776
4718.96281,-0.00834
4720.89128,-0.00990
4722.81975,-0.00983
4724.74821,-0.00102
4726.67668,0.00841
4728.60515,0.00561
4730.53362,-0.00475
4732.46209,-0.00623
4734.39056,0.00384
4736.31903,0.01152
4738.24750,0.00899
4740.17596,-0.00034
4742.10443,-0.00644
4744.03290,-0.00251
4745.96137,0.00353
4747.88984,0.00327
4749.81831,-0.00245
4751.74678,-0.00939
4753.67524,-0.00976
4755.60371,-0.00130
4757.53218,0.00597
4759.46065,0.00387
4761.38912,-0.00118
4763.31759,-0.00207
4765.24606,-0.00257
4767.17453,-0.00323
4769.10299,-0.00036
4771.03146,0.00332
4772.95993,0.00727
4774.88840,0.01334
4776.81687,0.01548
4778.74534,0.00977
4780.67381,0.00383
4782.60227,0.00441
4784.53074,0.00721
4786.45921,0.00547
4788.38768,0.00200
4790.31615,0.00339
4792.24462,0.00636
4794.17309,0.00481
4796.10156,0.00011
4798.03002,-0.00412
4799.95849,-0.00694
4801.88696,-0.00811
4803.81543,-0.00844
4805.74390,-0.00699
4807.67237,-0.00116
4809.60084,0.00513
4811.52930,0.00858
4813.45777,0.00935
4815.38624,0.00746
4817.31471,0.00718
4819.24318,0.00812
4821.17165,0.00741
4823.10012,0.01119
4825.02859,0.01607
4826.95705,0.00868
4828.88552,-0.00066
4830.81399,0.00238
4832.74246,0.00817
4834.67093,0.01331
4836.59940,0.02064
4838.52787,0.02040
4840.45633,0.00952
4842.38480,0.00014
4844.31327,0.00030
4846.24174,0.00171
4848.17021,-0.00082
4850.09868,0.00147
4852.02715,0.00922
4853.95562,0.01195
4855.88408,0.00645
4857.81255,-0.00230
4859.74102,-0.00542
4861.66949,0.00048
4863.59796,0.00837
4865.52643,0.01209
4867.45490,0.00800
4869.38336,0.00242
4871.31183,0.00388
4873.24030,0.00354
4875.16877,-0.00058
4877.09724,-0.00081
4879.02571,-0.00046
4880.95418,-0.00140
4882.88265,-0.00031
4884.81111,0.00490
4886.73958,0.00988
4888.66805,0.00839
4890.59652,0.00188
4892.52499,-0.00408
4894.45346,-0.00383
4896.38193,0.00078
4898.31039,0.00200
4900.23886,0.00301
4902.16733,0.00964
4904.09580,0.01186
4906.02427,0.00338
4907.95274,-0.00846
4909.88121,-0.01924
4911.80967,-0.02369
4913.73814,-0.01667
4915.66661,-0.00339
4917.59508,0.00695
4919.52355,0.01090
4921.45202,0.01423
4923.38049,0.01936
4925.30896,0.01677
4927.23742,0.00688
4929.16589,0.00388
4931.09436,0.00908
4933.02283,0.01356
4934.95130,0.01396
4936.87977,0.01009
4938.80824,0.00356
4940.73670,-0.00068
4942.66517,-0.00094
4944.59364,-0.00050
4946.52211,0.00370
4948.45058,0.01011
4950.37905,0.00889
4952.30752,0.00414
4954.23599,0.00295
4956.16445,0.00260
4958.09292,0.00363
4960.02139,0.00811
4961.94986,0.01203
4963.87833,0.01301
4965.80680,0.01195
4967.73527,0.00814
4969.66373,0.00742
4971.59220,0.01397
4973.52067,0.01834
4975.44914,0.01681
4977.37761,0.01772
4979.30608,0.02123
4981.23455,0.02071
4983.16302,0.01388
4985.09148,0.00267
4987.01995,-0.00612
4988.94842,-0.00740
4990.87689,-0.00481
4992.80536,-0.00070
4994.73383,0.00435
4996.66230,0.00496
4998.59076,0.00499
5000.51923,0.01003
5002.44770,0.01215
5004.37617,0.00945
5006.30464,0.00805
5008.23311,0.00665
5010.16158,0.00223
5012.09005,-0.00420
5014.01851,-0.00544
5015.94698,0.00349
5017.87545,0.00842
5019.80392,-0.00084
5021.73239,-0.00718
5023.66086,-0.00146
5025.58933,0.00608
5027.51779,0.01419
5029.44626,0.02618
5031.37473,0.03390
5033.30320,0.02697
5035.23167,0.01199
5037.16014,0.00268
5039.08861,0.00166
5041.01708,0.00408
5042.94554,0.00438
5044.87401,0.00702
5046.80248,0.01417
5048.73095,0.01517
5050.65942,0.01256
5052.58789,0.01257
5054.51636,0.00902
5056.44482,0.00488
5058.37329,0.00637
5060.30176,0.00909
5062.23023,0.01162
5064.15870,0.01744
5066.08717,0.02409
5068.01564,0.02627
5069.94410,0.02665
5071.87257,0.02458
5073.80104,0.01176
5075.72951,0.00163
5077.65798,0.01117
5079.58645,0.02531
5081.51492,0.02895
5083.44339,0.02790
5085.37185,0.02698
5087.30032,0.02574
5089.22879,0.02620
5091.15726,0.02452
5093.08573,0.02044
5095.01420,0.02701
5096.94267,0.03895
5098.87113,0.03775
5100.79960,0.02867
5102.72807,0.02279
5104.65654,0.01878
5106.58501,0.01705
5108.51348,0.01850
5110.44195,0.01935
5112.37042,0.01783
5114.29888,0.02047
5116.22735,0.02995
5118.15582,0.03622
5120.08429,0.03502
5122.01276,0.02936
5123.94123,0.01905
5125.86970,0.01151
5127.79816,0.01758
5129.72663,0.03065
5131.65510,0.03464
5133.58357,0.02418
5135.51204,0.01274
5137.44051,0.01338
5139.36898,0.01856
5141.29745,0.02143
5143.22591,0.02258
5145.15438,0.02282
5147.08285,0.02207
5149.01132,0.01555
5150.93979,0.00972
5152.86826,0.01384
5154.79673,0.02058
5156.72519,0.02364
5158.65366,0.02507
5160.58213,0.02248
5162.51060,0.01936
5164.43907,0.02029
5166.36754,0.02221
5168.29601,0.02831
5170.22448,0.03250
5172.15294,0.02921
5174.08141,0.03000
5176.00988,0.03152
5177.93835,0.02150
5179.86682,0.01155
5181.79529,0.01645
5183.72376,0.02274
5185.65222,0.01958
5187.58069,0.01809
5189.50916,0.02345
5191.43763,0.03060
5193.36610,0.03846
5195.29457,0.04732
5197.22304,0.05210
5199.15151,0.04986
5201.07997,0.04468
5203.00844,0.04061
5204.93691,0.03738
5206.86538,0.03524
5208.79385,0.03289
5210.72232,0.02741
5212.65079,0.02448
5214.57925,0.02782
5216.50772,0.03132
5218.43619,0.02916
5220.36466,0.02809
5222.29313,0.03460
5224.22160,0.03972
5226.15007,0.03497
5228.07854,0.02761
5230.00700,0.02777
5231.93547,0.02985
5233.86394,0.02546
5235.79241,0.02034
5237.72088,0.02236
5239.64935,0.02979
5241.57782,0.03861
5243.50628,0.05098
5245.43475,0.06290
5247.36322,0.06292
5249.29169,0.04719
5251.22016,0.02891
5253.14863,0.02141
5255.07710,0.01713
5257.00556,0.01236
5258.93403,0.01746
5260.86250,0.03491
5262.79097,0.05242
5264.71944,0.05568
5266.64791,0.05503
5268.57638,0.05998
5270.50485,0.06021
5272.43331,0.05442
5274.36178,0.04834
5276.29025,0.03830
5278.21872,0.02698
5280.14719,0.03136
5282.07566,0.04448
5284.00413,0.04512
5285.93259,0.04357
5287.86106,0.04964
5289.78953,0.05697
5291.71800,0.06844
5293.64647,0.07647
5295.57494,0.06841
5297.50341,0.05130
5299.43188,0.03652
5301.36034,0.03073
5303.28881,0.04242
5305.21728,0.06075
5307.14575,0.06100
5309.07422,0.05020
5311.00269,0.04798
5312.93116,0.04501
5314.85962,0.03894
5316.78809,0.04120
5318.71656,0.04149
5320.64503,0.02826
5322.57350,0.02534
5324.50197,0.04852
5326.43044,0.06824
5328.35891,0.06706
5330.28737,0.06384
5332.21584,0.06565
5334.14431,0.06409
5336.07278,0.05982
5338.00125,0.06263
5339.92972,0.07406
5341.85819,0.08084
5343.78665,0.06948
5345.71512,0.05209
5347.64359,0.05042
5349.57206,0.05760
5351.50053,0.06889
5353.42900,0.07719
5355.35747,0.07272
5357.28594,0.06866
5359.21440,0.06851
5361.14287,0.06238
5363.07134,0.05838
5364.99981,0.06356
5366.92828,0.06396
5368.85675,0.05592
5370.78522,0.05139
5372.71368,0.05088
5374.64215,0.04389
5376.57062,0.03681
5378.49909,0.03870
5380.42756,0.04683
5382.35603,0.06133
5384.28450,0.06912
5386.21297,0.06490
5388.14143,0.07096
5390.06990,0.09118
5391.99837,0.10624
5393.92684,0.09849
5395.85531,0.07293
5397.78378,0.05368
5399.71225,0.05477
5401.64071,0.05880
5403.56918,0.04750
5405.49765,0.03658
5407.42612,0.03959
5409.35459,0.05431
5411.28306,0.07126
5413.21153,0.07720
5415.13999,0.07333
5417.06846,0.06023
5418.99693,0.04346
5420.92540,0.04331
5422.85387,0.05688
5424.78234,0.06513
5426.71081,0.06757
5428.63928,0.06990
5430.56774,0.07006
5432.49621,0.06278
5434.42468,0.04775
5436.35315,0.03507
5438.28162,0.03855
5440.21009,0.05703
5442.13856,0.07321
5444.06702,0.07628
5445.99549,0.06295
5447.92396,0.04058
5449.85243,0.03534
5451.78090,0.05693
5453.70937,0.08533
5455.63784,0.09536
5457.56631,0.08257
5459.49477,0.07053
5461.42324,0.07708
5463.35171,0.09082
5465.28018,0.09444
5467.20865,0.09177
5469.13712,0.08432
5471.06559,0.07220
5472.99405,0.07110
5474.92252,0.08130
5476.85099,0.07722
5478.77946,0.06095
5480.70793,0.05318
5482.63640,0.05344
5484.56487,0.05756
5486.49334,0.06184
5488.42180,0.05893
5490.35027,0.05507
5492.27874,0.05500
5494.20721,0.04760
5496.13568,0.03979
5498.06415,0.04915
5499.99262,0.07620
5501.92108,0.09651
5503.84955,0.09202
5505.77802,0.08258
5507.70649,0.08528
5509.63496,0.09529
5511.56343,0.10897
5513.49190,0.11703
5515.42037,0.10887
5517.34883,0.08507
5519.27730,0.05780
5521.20577,0.03891
5523.13424,0.03789
5525.06271,0.05783
5526.99118,0.07427
5528.91965,0.06801
5530.84811,0.06185
5532.77658,0.07217
5534.70505,0.07097
5536.63352,0.04768
5538.56199,0.03422
5540.49046,0.04525
5542.41893,0.06139
5544.34740,0.06650
5546.27586,0.06090
5548.20433,0.05316
5550.13280,0.05403
5552.06127,0.06143
5553.98974,0.06510
5555.91821,0.06751
5557.84668,0.08234
5559.77514,0.09518
5561.70361,0.07677
5563.63208,0.05540
5565.56055,0.06675
5567.48902,0.07641
5569.41749,0.07149
5571.34596,0.08127
5573.27443,0.09164
5575.20289,0.08490
5577.13136,0.07725
5579.05983,0.07808
5580.98830,0.08306
5582.91677,0.07659
5584.84524,0.05956
5586.77371,0.05796
5588.70217,0.07672
5590.63064,0.08727
5592.55911,0.07657
5594.48758,0.06261
5596.41605,0.05910
5598.34452,0.05352
5600.27299,0.03839
5602.20145,0.03898
5604.12992,0.06361
5606.05839,0.08901
5607.98686,0.09674
5609.91533,0.08346
5611.84380,0.06743
5613.77227,0.07183
5615.70074,0.08768
5617.62920,0.09962
5619.55767,0.11752
5621.48614,0.13380
5623.41461,0.11705
5625.34308,0.07771
5627.27155,0.05842
5629.20002,0.05424
5631.12848,0.04216
5633.05695,0.03830
5634.98542,0.04601
5636.91389,0.04430
5638.84236,0.03547
5640.77083,0.03567
5642.69930,0.04545
5644.62777,0.05997
5646.55623,0.08031
5648.48470,0.10158
5650.41317,0.11207
5652.34164,0.10459
5654.27011,0.07815
5656.19858,0.05301
5658.12705,0.06180
5660.05551,0.08714
5661.98398,0.08324
5663.91245,0.05770
5665.84092,0.03423
5667.76939,0.01464
5669.69786,0.01514
5671.62633,0.04398
5673.55480,0.07859
5675.48326,0.10576
5677.41173,0.11969
5679.34020,0.10975
5681.26867,0.08376
5683.19714,0.06646
5685.12561,0.06056
5687.05408,0.04821
5688.98254,0.04257
5690.91101,0.06626
5692.83948,0.09873
5694.76795,0.10278
5696.69642,0.07883
5698.62489,0.06416
5700.55336,0.07305
5702.48183,0.08147
5704.41029,0.07232
5706.33876,0.06670
5708.26723,0.07584
5710.19570,0.07247
5712.12417,0.05995
5714.05264,0.06582
5715.98111,0.08278
5717.90957,0.09900
5719.83804,0.10490
5721.76651,0.09078
5723.69498,0.07651
5725.62345,0.07360
5727.55192,0.06618
5729.48039,0.05467
5731.40886,0.05083
5733.33732,0.05036
5735.26579,0.05733
5737.19426,0.07521
5739.12273,0.07983
5741.05120,0.06869
5742.97967,0.06449
5744.90814,0.07256
5746.83660,0.08903
5748.76507,0.11279
5750.69354,0.13151
5752.62201,0.12200
5754.55048,0.09126
5756.47895,0.07221
5758.40742,0.07103
5760.33588,0.06586
5762.26435,0.06029
5764.19282,0.06919
5766.12129,0.07840
5768.04976,0.08298
5769.97823,0.10182
5771.90670,0.14043
5773.83517,0.15312
5775.76363,0.11281
5777.69210,0.07167
5779.62057,0.07223
5781.54904,0.09641
5783.47751,0.11226
5785.40598,0.10473
5787.33445,0.08696
5789.26291,0.07568
5791.19138,0.07005
5793.11985,0.08890
5795.04832,0.12899
5796.97679,0.13834
5798.90526,0.11065
5800.83373,0.08021
5802.76220,0.06210
5804.69066,0.05627
5806.61913,0.05884
5808.54760,0.06804
5810.47607,0.07700
5812.40454,0.07967
5814.33301,0.07765
5816.26148,0.07494
5818.18994,0.07083
5820.11841,0.06073
5822.04688,0.04671
5823.97535,0.04090
5825.90382,0.05488
5827.83229,0.07639
5829.76076,0.08330
5831.68923,0.08788
5833.61769,0.10082
5835.54616,0.09500
5837.47463,0.07008
5839.40310,0.04983
5841.33157,0.03190
5843.26004,0.02871
5845.18851,0.04888
5847.11697,0.05721
5849.04544,0.05372
5850.97391,0.06219
5852.90238,0.07966
5854.83085,0.11362
5856.75932,0.14741
5858.68779,0.14820
5860.61626,0.12207
5862.54472,0.09914
5864.47319,0.10219
5866.40166,0.11326
5868.33013,0.10193
5870.25860,0.08140
5872.18707,0.07837
5874.11554,0.09425
5876.04400,0.11096
5877.97247,0.11165
5879.90094,0.10075
5881.82941,0.09088
5883.75788,0.08759
5885.68635,0.08695
5887.61482,0.08073
5889.54329,0.07440
5891.47175,0.07677
5893.40022,0.07920
5895.32869,0.06991
5897.25716,0.05513
5899.18563,0.05666
5901.11410,0.07964
5903.04257,0.09320
5904.97103,0.08431
5906.89950,0.08347
5908.82797,0.09262
5910.75644,0.08611
5912.68491,0.07992
5914.61338,0.09106
5916.54185,0.08650
5918.47032,0.06966
5920.39878,0.08156
5922.32725,0.10773
5924.25572,0.12211
5926.18419,0.12425
5928.11266,0.10945
5930.04113,0.09192
5931.96960,0.09227
5933.89806,0.08019
5935.82653,0.05199
5937.75500,0.06361
5939.68347,0.10121
5941.61194,0.11231
5943.54041,0.09389
5945.46888,0.07197
5947.39734,0.05262
5949.32581,0.02914
5951.25428,0.01210
5953.18275,0.02052
5955.11122,0.05532
5957.03969,0.08554
5958.96816,0.09275
5960.89663,0.09641
5962.82509,0.10845
5964.75356,0.11290
5966.68203,0.09827
5968.61050,0.08111
5970.53897,0.07152
5972.46744,0.06423
5974.39591,0.06244
5976.32437,0.06423
5978.25284,0.06200
5980.18131,0.06168
5982.10978,0.08007
5984.03825,0.10752
5985.96672,0.11597
5987.89519,0.10664
5989.82366,0.09683
5991.75212,0.09522
5993.68059,0.10354
5995.60906,0.10479
5997.53753,0.08668
5999.46600,0.07541
6001.39447,0.08548
6003.32294,0.09382
6005.25140,0.08761
6007.17987,0.07821
6009.10834,0.05962
6011.03681,0.03388
6012.96528,0.03652
6014.89375,0.07061
6016.82222,0.09674
6018.75069,0.09523
6020.67915,0.07422
6022.60762,0.04066
6024.53609,0.01600
6026.46456,0.03153
6028.39303,0.06989
6030.32150,0.08562
6032.24997,0.08913
6034.17843,0.10245
6036.10690,0.10914
6038.03537,0.09881
6039.96384,0.08726
6041.89231,0.07222
6043.82078,0.04555
6045.74925,0.04076
6047.67772,0.06526
6049.60618,0.07287
6051.53465,0.06167
6053.46312,0.06933
6055.39159,0.08596
6057.32006,0.09393
6059.24853,0.10166
6061.17700,0.09997
6063.10546,0.09247
6065.03393,0.08528
6066.96240,0.06254
6068.89087,0.04119
6070.81934,0.05287
6072.74781,0.08813
6074.67628,0.10702
6076.60475,0.09379
6078.53321,0.06901
6080.46168,0.04931
6082.39015,0.03088
6084.31862,0.01591
6086.24709,0.02574
6088.17556,0.05102
6090.10403,0.06381
6092.03249,0.06840
6093.96096,0.07261
6095.88943,0.06669
6097.81790,0.04958
6099.74637,0.03605
6101.67484,0.02987
6103.60331,0.03449
6105.53177,0.06295
6107.46024,0.11517
6109.38871,0.15519
6111.31718,0.13777
6113.24565,0.09473
6115.17412,0.08280
6117.10259,0.08636
6119.03106,0.07035
6120.95952,0.05519
6122.88799,0.06604
6124.81646,0.07511
6126.74493,0.06782
6128.67340,0.07141
6130.60187,0.07812
6132.53034,0.08270
6134.45880,0.10235
6136.38727,0.11442
6138.31574,0.11135
6140.24421,0.10661
6142.17268,0.09600
6144.10115,0.08077
6146.02962,0.05859
6147.95809,0.04601
6149.88655,0.06861
6151.81502,0.09750
6153.74349,0.09608
6155.67196,0.08373
6157.60043,0.07815
6159.52890,0.07615
6161.45737,0.08429
6163.38583,0.11125
6165.31430,0.12525
6167.24277,0.10033
6169.17124,0.08136
6171.09971,0.08276
6173.02818,0.06775
6174.95665,0.06277
6176.88512,0.09386
6178.81358,0.11583
6180.74205,0.12595
6182.67052,0.15178
6184.59899,0.15728
6186.52746,0.11862
6188.45593,0.07576
6190.38440,0.06781
6192.31286,0.08436
6194.24133,0.09249
6196.16980,0.06904
6198.09827,0.03806
6200.02674,0.04577
6201.95521,0.08178
6203.88368,0.10401
6205.81215,0.09502
6207.74061,0.07948
6209.66908,0.09473
6211.59755,0.12828
6213.52602,0.14330
6215.45449,0.14692
6217.38296,0.15024
6219.31143,0.13829
6221.23989,0.10200
6223.16836,0.07056
6225.09683,0.07694
6227.02530,0.10796
6228.95377,0.13209
6230.88224,0.13054
6232.81071,0.10554
6234.73918,0.08572
6236.66764,0.08488
6238.59611,0.09626
6240.52458,0.10072
6242.45305,0.06848
6244.38152,0.02069
6246.30999,0.00403
6248.23846,0.01350
6250.16692,0.03675
6252.09539,0.06337
6254.02386,0.06940
6255.95233,0.04691
6257.88080,-0.00012
6259.80927,-0.03971
6261.73774,-0.04189
6263.66621,-0.01262
6265.59467,0.02029
6267.52314,0.02471
6269.45161,0.01980
6271.38008,0.03075
6273.30855,0.04713
6275.23702,0.04913
6277.16549,0.02073
6279.09395,0.01459
6281.02242,0.07581
6282.95089,0.14219
6284.87936,0.13942
6286.80783,0.09139
6288.73630,0.06708
6290.66477,0.07885
6292.59323,0.10184
6294.52170,0.12467
6296.45017,0.12680
6298.37864,0.09891
6300.30711,0.06111
6302.23558,0.04038
6304.16405,0.04485
6306.09252,0.07226
6308.02098,0.11953
6309.94945,0.14708
6311.87792,0.12694
6313.80639,0.09222
6315.73486,0.06822
6317.66333,0.05914
6319.59180,0.06034
6321.52026,0.04699
6323.44873,0.04357
6325.37720,0.07242
6327.30567,0.08324
6329.23414,0.06364
6331.16261,0.06166
6333.09108,0.07863
6335.01955,0.08209
6336.94801,0.07965
6338.87648,0.09488
6340.80495,0.11407
6342.73342,0.10298
6344.66189,0.07835
6346.59036,0.09240
6348.51883,0.14139
6350.44729,0.17765
6352.37576,0.17815
6354.30423,0.15251
6356.23270,0.10669
6358.16117,0.06778
6360.08964,0.08687
6362.01811,0.14630
6363.94658,0.17752
6365.87504,0.16223
6367.80351,0.13593
6369.73198,0.13022
6371.66045,0.13732
6373.58892,0.13551
6375.51739,0.13116
6377.44586,0.11935
6379.37432,0.09873
6381.30279,0.10568
6383.23126,0.13804
6385.15973,0.14006
6387.08820,0.09926
6389.01667,0.06144
6390.94514,0.06871
6392.87361,0.08701
6394.80207,0.05714
6396.73054,0.02812
6398.65901,0.05347
6400.58748,0.09267
6402.51595,0.07984
6404.44442,0.01501
6406.37289,-0.03811
6408.30135,-0.01979
6410.22982,0.03741
6412.15829,0.07493
6414.08676,0.08569
6416.01523,0.08444
6417.94370,0.08043
6419.87217,0.07112
6421.80064,0.05689
6423.72910,0.04568
6425.65757,0.05210
6427.58604,0.06893
6429.51451,0.06814
6431.44298,0.06627
6433.37145,0.07710
6435.29992,0.07683
6437.22838,0.07856
6439.15685,0.08485
6441.08532,0.06670
6443.01379,0.05813
6444.94226,0.08534
6446.87073,0.09252
6448.79920,0.08473
6450.72766,0.09681
6452.65613,0.10729
6454.58460,0.10314
6456.51307,0.07936
6458.44154,0.06732
6460.37001,0.11262
6462.29848,0.15565
6464.22695,0.12925
6466.15541,0.08079
6468.08388,0.07647
6470.01235,0.12228
6471.94082,0.16247
6473.86929,0.13937
6475.79776,0.06936
6477.72623,0.03949
6479.65469,0.09013
6481.58316,0.14106
6483.51163,0.13676
6485.44010,0.11123
6487.36857,0.08371
6489.29704,0.05083
6491.22551,0.01561
6493.15398,0.00915
6495.08244,0.05600
6497.01091,0.11412
6498.93938,0.13878
6500.86785,0.14604
6502.79632,0.15032
6504.72479,0.11837
6506.65326,0.05529
6508.58172,0.00191
6510.51019,-0.01573
6512.43866,0.00189
6514.36713,0.02077
6516.29560,0.02923
6518.22407,0.03131
6520.15254,0.02410
6522.08101,0.01646
6524.00947,0.00991
6525.93794,0.01858
6527.86641,0.05475
6529.79488,0.10276
6531.72335,0.13764
6533.65182,0.13581
6535.58029,0.11139
6537.50875,0.07174
6539.43722,0.03862
6541.36569,0.04185
6543.29416,0.03651
6545.22263,0.02475
6547.15110,0.04526
6549.07957,0.09141
6551.00804,0.14628
6552.93650,0.16086
6554.86497,0.10440
6556.79344,0.02483
6558.72191,-0.00821
6560.65038,0.02340
6562.57885,0.06702
6564.50732,0.06184
6566.43578,0.02137
6568.36425,0.00968
6570.29272,0.01523
6572.22119,-0.01274
6574.14966,-0.03413
6576.07813,0.00181
6578.00660,0.06270
6579.93507,0.08519
6581.86353,0.04471
6583.79200,0.01016
6585.72047,0.02679
6587.64894,0.03393
6589.57741,0.02981
6591.50588,0.05966
6593.43435,0.10128
6595.36281,0.11383
6597.29128,0.09324
6599.21975,0.03611
6601.14822,-0.01595
6603.07669,-0.02119
6605.00516,0.00501
6606.93363,0.05334
6608.86210,0.08856
6610.79056,0.08189
6612.71903,0.04053
6614.64750,0.01725
6616.57597,0.06075
6618.50444,0.12160
6620.43291,0.15565
6622.36138,0.16896
6624.28984,0.14627
6626.21831,0.08663
6628.14678,0.03196
6630.07525,0.01077
6632.00372,-0.01618
6633.93219,-0.04731
6635.86066,-0.02283
6637.78912,0.05224
6639.71759,0.12317
6641.64606,0.14581
6643.57453,0.09516
6645.50300,0.03870
6647.43147,0.03729
6649.35994,0.05656
6651.28841,0.07193
6653.21687,0.07932
6655.14534,0.08454
6657.07381,0.09500
6659.00228,0.08335
6660.93075,0.04748
6662.85922,0.01790
6664.78769,0.01271
6666.71615,0.04667
6668.64462,0.10592
6670.57309,0.13478
6672.50156,0.10163
6674.43003,0.05920
6676.35850,0.05717
6678.28697,0.07132
6680.21544,0.08618
6682.14390,0.12070
6684.07237,0.15637
6686.00084,0.12838
6687.92931,0.04421
6689.85778,-0.01618
6691.78625,-0.01522
6693.71472,0.03933
6695.64318,0.08481
6697.57165,0.05127
6699.50012,0.00706
6701.42859,0.01080
6703.35706,0.00617
6705.28553,-0.00710
6707.21400,0.02738
6709.14247,0.06411
6711.07093,0.05076
6712.99940,0.02872
6714.92787,0.02578
6716.85634,0.04594
6718.78481,0.08290
6720.71328,0.09258
6722.64175,0.08660
6724.57021,0.09537
6726.49868,0.07495
6728.42715,0.03924
6730.35562,0.02113
6732.28409,-0.00200
6734.21256,-0.02952
6736.14103,-0.03317
6738.06950,-0.01718
6739.99796,-0.02882
6741.92643,-0.03718
6743.85490,0.01312
6745.78337,0.03877
6747.71184,0.02469
6749.64031,0.04755
6751.56878,0.07241
6753.49724,0.06427
6755.42571,0.05663
6757.35418,0.03608
6759.28265,0.00588
6761.21112,-0.00928
6763.13959,-0.01661
6765.06806,0.00033
6766.99653,0.03702
6768.92499,0.04665
6770.85346,0.02551
6772.78193,0.01290
6774.71040,0.01618
6776.63887,0.01513
6778.56734,0.01470
6780.49581,0.03079
6782.42427,0.03937
6784.35274,0.02538
6786.28121,0.04927
6788.20968,0.11918
6790.13815,0.13645
6792.06662,0.07146
6793.99509,0.01585
6795.92355,-0.00314
6797.85202,-0.01895
6799.78049,-0.04710
6801.70896,-0.04142
6803.63743,0.02689
6805.56590,0.06647
6807.49437,0.06460
6809.42284,0.07035
6811.35130,0.04367
6813.27977,-0.00968
6815.20824,0.00727
6817.13671,0.08233
6819.06518,0.10226
6820.99365,0.03927
6822.92212,-0.03348
6824.85058,-0.01624
6826.77905,0.04245
6828.70752,0.07655
6830.63599,0.09330
6832.56446,0.06407
6834.49293,-0.01779
6836.42140,-0.04317
6838.34987,0.03232
6840.27833,0.07311
6842.20680,0.03286
6844.13527,0.01062
6846.06374,0.04851
6847.99221,0.09347
6849.92068,0.11226
6851.84915,0.09249
6853.77761,0.04877
6855.70608,0.04552
6857.63455,0.06282
6859.56302,0.05871
6861.49149,0.10011
6863.41996,0.15556
6865.34843,0.12129
6867.27690,0.04979
6869.20536,0.03328
6871.13383,0.03977
6873.06230,0.01993
6874.99077,-0.01982
6876.91924,-0.06781
6878.84771,-0.08712
6880.77618,-0.03247
6882.70464,0.03027
6884.63311,0.04534
6886.56158,0.03027
6888.49005,0.03390
6890.41852,0.07275
6892.34699,0.06391
6894.27546,-0.00265
6896.20393,-0.04218
6898.13239,-0.02305
6900.06086,0.01829
6901.98933,0.03400
6903.91780,0.01845
6905.84627,-0.00183
6907.77474,0.00187
6909.70321,0.02787
6911.63167,0.06070
6913.56014,0.09107
6915.48861,0.13217
6917.41708,0.18584
6919.34555,0.15389
6921.27402,0.04711
6923.20249,0.01738
6925.13096,0.04263
6927.05942,0.04169
6928.98789,0.01365
6930.91636,0.00454
6932.84483,0.06362
6934.77330,0.13444
6936.70177,0.12159
6938.63024,0.03752
6940.55870,-0.03909
6942.48717,-0.04104
6944.41564,-0.00285
6946.34411,0.00275
6948.27258,-0.00176
6950.20105,0.03910
6952.12952,0.07759
6954.05799,0.07280
6955.98645,0.05092
6957.91492,0.05228
6959.84339,0.09177
6961.77186,0.12514
6963.70033,0.10650
6965.62880,0.07092
6967.55727,0.06893
6969.48573,0.11890
6971.41420,0.17549
6973.34267,0.17854
6975.27114,0.11372
6977.19961,0.02429
6979.12808,-0.02623
6981.05655,-0.02304
6982.98501,0.02694
6984.91348,0.08454
6986.84195,0.09849
6988.77042,0.05512
6990.69889,-0.01586
6992.62736,-0.03804
6994.55583,0.01144
6996.48430,0.09969
6998.41276,0.18699
7000.34123,0.22556
7002.26970,0.22184
7004.19817,0.20538
7006.12664,0.17176
7008.05511,0.14171
7009.98358,0.14417
7011.91204,0.14543
7013.84051,0.07796
7015.76898,0.00019
7017.69745,0.02459
7019.62592,0.07181
7021.55439,0.04342
7023.48286,0.01414
7025.41133,0.04118
7027.33979,0.10147
7029.26826,0.17224
7031.19673,0.19707
7033.12520,0.18812
7035.05367,0.13858
7036.98214,0.03709
7038.91061,0.00179
7040.83907,0.04562
7042.76754,0.05230
7044.69601,0.04578
7046.62448,0.11340
7048.55295,0.16422
7050.48142,0.13308
7052.40989,0.08349
7054.33836,0.05021
7056.26682,0.03921
7058.19529,0.08322
7060.12376,0.13507
7062.05223,0.13969
7063.98070,0.14344
7065.90917,0.17471
7067.83764,0.16400
7069.76610,0.07539
7071.69457,-0.01525
7073.62304,-0.02371
7075.55151,0.02684
7077.47998,0.06048
7079.40845,0.07022
7081.33692,0.07390
7083.26539,0.06152
7085.19385,0.09696
7087.12232,0.17384
7089.05079,0.16918
7090.97926,0.08086
7092.90773,-0.01023
7094.83620,-0.07374
7096.76467,-0.09498
7098.69313,-0.04853
7100.62160,0.01653
7102.55007,0.02215
7104.47854,-0.00028
7106.40701,0.04171
7108.33548,0.11510
7110.26395,0.11713
7112.19242,0.07218
7114.12088,0.05234
7116.04935,0.05742
7117.97782,0.03500
7119.90629,0.00155
7121.83476,0.03420
7123.76323,0.06610
7125.69170,0.04326
7127.62016,0.03847
7129.54863,0.02832
7131.47710,-0.01640
7133.40557,-0.00273
7135.33404,0.06445
7137.26251,0.07305
7139.19098,0.01582
7141.11944,0.02325
7143.04791,0.11826
7144.97638,0.17278
7146.90485,0.19817
7148.83332,0.24516
7150.76179,0.25590
7152.69026,0.24974
7154.61873,0.23766
7156.54719,0.17029
7158.47566,0.07392
7160.40413,0.01288
7162.33260,0.02404
7164.26107,0.04360
7166.18954,0.00162
7168.11801,-0.04707
7170.04647,-0.01592
7171.97494,0.09249
7173.90341,0.18448
7175.83188,0.21228
7177.76035,0.15143
7179.68882,0.03433
7181.61729,-0.00222
7183.54576,0.02717
7185.47422,-0.03867
7187.40269,-0.09058
7189.33116,-0.03104
7191.25963,0.01786
7193.18810,-0.04743
7195.11657,-0.10057
7197.04504,-0.03886
7198.97350,0.05605
7200.90197,0.07127
7202.83044,0.05256
7204.75891,0.12256
7206.68738,0.16007
7208.61585,0.08553
7210.54432,0.04724
7212.47279,0.05893
7214.40125,0.05105
7216.32972,0.06824
7218.25819,0.16968
7220.18666,0.16558
7222.11513,0.02866
7224.04360,-0.07006
7225.97207,-0.02042
7227.90053,0.10528
7229.82900,0.16757
7231.75747,0.14387
7233.68594,0.11626
7235.61441,0.11437
7237.54288,0.07449
7239.47135,0.01006
7241.39982,0.00665
7243.32828,0.08739
7245.25675,0.17501
7247.18522,0.19186
7249.11369,0.13913
7251.04216,0.05719
7252.97063,-0.00090
7254.89910,-0.03930
7256.82756,-0.07376
7258.75603,-0.07436
7260.68450,-0.04155
7262.61297,0.02518
7264.54144,0.07012
7266.46991,0.01933
7268.39838,-0.03717
7270.32685,0.00548
7272.25531,0.12824
7274.18378,0.15161
7276.11225,0.09710
7278.04072,0.09699
7279.96919,0.18615
7281.89766,0.24828
7283.82613,0.21711
7285.75459,0.12147
7287.68306,0.01607
7289.61153,0.01024
7291.54000,0.07968
7293.46847,0.08330
7295.39694,0.07461
7297.32541,0.07220
7299.25387,0.01717
7301.18234,-0.02319
7303.11081,-0.01719
7305.03928,-0.03253
7306.96775,-0.04780
7308.89622,-0.01993
7310.82469,0.01262
7312.75316,0.06923
7314.68162,0.18384
7316.61009,0.26977
7318.53856,0.20719
7320.46703,0.08897
7322.39550,-0.03831
7324.32397,-0.13586
7326.25244,-0.10935
7328.18090,-0.00524
7330.10937,0.00987
7332.03784,-0.05940
7333.96631,-0.04257
7335.89478,0.04526
7337.82325,0.08463
7339.75172,0.05724
7341.68019,0.14771
7343.60865,0.31216
7345.53712,0.32078
7347.46559,0.13275
7349.39406,-0.02331
7351.32253,-0.06124
7353.25100,-0.04568
7355.17947,0.05437
7357.10793,0.15616
7359.03640,0.12216
7360.96487,0.11821
7362.89334,0.18950
7364.82181,0.15533
7366.75028,0.05620
7368.67875,0.07562
7370.60722,0.14432
7372.53568,0.11974
7374.46415,0.05373
7376.39262,0.04341
7378.32109,0.03984
7380.24956,-0.00833
7382.17803,-0.04303
7384.10650,-0.00605
7386.03496,0.11115
7387.96343,0.17941
7389.89190,0.09508
7391.82037,0.03360
7393.74884,0.09724
7395.67731,0.16690
7397.60578,0.13406
7399.53425,0.06154
7401.46271,0.00254
7403.39118,-0.04899
7405.31965,-0.04035
7407.24812,-0.00007
7409.17659,0.01701
7411.10506,0.01120
7413.03353,0.00036
7414.96199,0.05648
7416.89046,0.20243
7418.81893,0.27515
7420.74740,0.14146
7422.67587,0.01938
7424.60434,-0.02780
7426.53281,-0.04487
7428.46128,-0.01941
7430.38974,0.02380
7432.31821,0.04429
7434.24668,0.05612
7436.17515,0.02273
7438.10362,0.01613
7440.03209,0.14788
7441.96056,0.24522
7443.88902,0.19053
7445.81749,0.09771
7447.74596,0.06619
7449.67443,0.12888
7451.60290,0.18697
7453.53137,0.14702
7455.45984,0.10195
7457.38831,0.08350
7459.31677,0.06805
7461.24524,0.04453
7463.17371,0.04090
7465.10218,0.05820
7467.03065,0.02153
7468.95912,-0.00715
7470.88759,-0.02358
7472.81605,-0.14500
7474.74452,-0.22043
7476.67299,-0.13881
7478.60146,-0.02649
7480.52993,0.02328
7482.45840,0.07850
7484.38687,0.14020
7486.31533,0.11876
7488.24380,0.05870
7490.17227,0.04845
7492.10074,0.04958
7494.02921,0.06061
7495.95768,0.14778
7497.88615,0.30185
