399.19301,0.65616
401.12148,0.05786
403.04995,-0.13665
404.97842,-0.15571
406.90689,0.02513
408.83536,0.18280
410.76382,0.14869
412.69229,0.09819
414.62076,0.22645
416.54923,0.49257
418.47770,0.72707
420.40617,0.57051
422.33464,0.28084
424.26311,0.08893
426.19157,-0.03282
428.12004,-0.00462
430.04851,0.19105
431.97698,0.26702
433.90545,0.11510
435.83392,-0.00590
437.76239,-0.02166
439.69085,0.02103
441.61932,0.13161
443.54779,0.19072
445.47626,0.09972
447.40473,-0.00525
449.33320,-0.02182
451.26167,0.00336
453.19013,-0.00119
455.11860,0.00715
457.04707,0.08332
458.97554,0.14101
460.90401,0.08814
462.83248,0.01208
464.76095,-0.00068
466.68942,0.02265
468.61788,0.04467
470.54635,0.09686
472.47482,0.17045
474.40329,0.14645
476.33176,0.06915
478.26023,0.03760
480.18870,0.00270
482.11716,-0.03647
484.04563,-0.02398
485.97410,0.01058
487.90257,0.01052
489.83104,0.00240
491.75951,0.02776
493.68798,0.09208
495.61645,0.14376
497.54491,0.14549
499.47338,0.12757
501.40185,0.12263
503.33032,0.13139
505.25879,0.12062
507.18726,0.08626
509.11573,0.07152
511.04419,0.07544
512.97266,0.08383
514.90113,0.08304
516.82960,0.05428
518.75807,0.06282
520.68654,0.13406
522.61501,0.18070
524.54348,0.16129
526.47194,0.13209
528.40041,0.13021
530.32888,0.12175
532.25735,0.10413
534.18582,0.10857
536.11429,0.12226
538.04276,0.10921
539.97122,0.09550
541.89969,0.11182
543.82816,0.13204
545.75663,0.13249
547.68510,0.11563
549.61357,0.08947
551.54204,0.11373
553.47051,0.19341
555.39897,0.18870
557.32744,0.09499
559.25591,0.06846
561.18438,0.10418
563.11285,0.12012
565.04132,0.11549
566.96979,0.10412
568.89825,0.09277
570.82672,0.09080
572.75519,0.09018
574.68366,0.08304
576.61213,0.08693
578.54060,0.11027
580.46907,0.12869
582.39754,0.11840
584.32600,0.09689
586.25447,0.09851
588.18294,0.11190
590.11141,0.10645
592.03988,0.10763
593.96835,0.13585
595.89682,0.14057
597.82528,0.11245
599.75375,0.10138
601.68222,0.11735
603.61069,0.13530
605.53916,0.13665
607.46763,0.11591
609.39610,0.09811
611.32456,0.11375
613.25303,0.14300
615.18150,0.14888
617.10997,0.14017
619.03844,0.12694
620.96691,0.11077
622.89538,0.10713
624.82385,0.10752
626.75231,0.09847
628.68078,0.09336
630.60925,0.11184
632.53772,0.14545
634.46619,0.16348
636.39466,0.16942
638.32313,0.17523
640.25159,0.16206
642.18006,0.13355
644.10853,0.11608
646.03700,0.11375
647.96547,0.11724
649.89394,0.12360
651.82241,0.13208
653.75088,0.13920
655.67934,0.15029
657.60781,0.16369
659.53628,0.16111
661.46475,0.13426
663.39322,0.10949
665.32169,0.10880
667.25016,0.11542
669.17862,0.10880
671.10709,0.10311
673.03556,0.10648
674.96403,0.11502
676.89250,0.11245
678.82097,0.09353
680.74944,0.08578
682.67791,0.09834
684.60637,0.10685
686.53484,0.11324
688.46331,0.12773
690.39178,0.14223
692.32025,0.15570
694.24872,0.15694
696.17719,0.14182
698.10565,0.13392
700.03412,0.13562
701.96259,0.13582
703.89106,0.14175
705.81953,0.14529
707.74800,0.13952
709.67647,0.14356
711.60494,0.16129
713.53340,0.17084
715.46187,0.16614
717.39034,0.16943
719.31881,0.17236
721.24728,0.15189
723.17575,0.13551
725.10422,0.13819
727.03268,0.13177
728.96115,0.11844
730.88962,0.12143
732.81809,0.13203
734.74656,0.13480
736.67503,0.13504
738.60350,0.13797
740.53197,0.13644
742.46043,0.12749
744.38890,0.12469
746.31737,0.13424
748.24584,0.14370
750.17431,0.14762
752.10278,0.15244
754.03125,0.15948
755.95971,0.15991
757.88818,0.14584
759.81665,0.12315
761.74512,0.10981
763.67359,0.11622
765.60206,0.12934
767.53053,0.13605
769.45900,0.13982
771.38746,0.14173
773.31593,0.14335
775.24440,0.14858
777.17287,0.14715
779.10134,0.13423
781.02981,0.12370
782.95828,0.12322
784.88674,0.12556
786.81521,0.12327
788.74368,0.11768
790.67215,0.11589
792.60062,0.12336
794.52909,0.13831
796.45756,0.15279
798.38602,0.15595
800.31449,0.14651
802.24296,0.13796
804.17143,0.14146
806.09990,0.15308
808.02837,0.15591
809.95684,0.14525
811.88531,0.12756
813.81377,0.10980
815.74224,0.11242
817.67071,0.13395
819.59918,0.14339
821.52765,0.13639
823.45612,0.13658
825.38459,0.15134
827.31305,0.16284
829.24152,0.15802
831.16999,0.14793
833.09846,0.14185
835.02693,0.13375
836.95540,0.12629
838.88387,0.12601
840.81234,0.12908
842.74080,0.12995
844.66927,0.13146
846.59774,0.14344
848.52621,0.15646
850.45468,0.15207
852.38315,0.14197
854.31162,0.14531
856.24008,0.15236
858.16855,0.14644
860.09702,0.13654
862.02549,0.13967
863.95396,0.14620
865.88243,0.14338
867.81090,0.13705
869.73937,0.13115
871.66783,0.13083
873.59630,0.13969
875.52477,0.14637
877.45324,0.14342
879.38171,0.13878
881.31018,0.14105
883.23865,0.14386
885.16711,0.13837
887.09558,0.13831
889.02405,0.15142
890.95252,0.15771
892.88099,0.14816
894.80946,0.13880
896.73793,0.14199
898.66640,0.14988
900.59486,0.15215
902.52333,0.15074
904.45180,0.15079
906.38027,0.15018
908.30874,0.14622
910.23721,0.14224
912.16568,0.14194
914.09414,0.14512
916.02261,0.14491
917.95108,0.13751
919.87955,0.13005
921.80802,0.13242
923.73649,0.14342
925.66496,0.15044
927.59343,0.14951
929.52189,0.14483
931.45036,0.13954
933.37883,0.13879
935.30730,0.14262
937.23577,0.14322
939.16424,0.13934
941.09271,0.13759
943.02117,0.14116
944.94964,0.14665
946.87811,0.14516
948.80658,0.13835
950.73505,0.13913
952.66352,0.14637
954.59199,0.15245
956.52045,0.15617
958.44892,0.15443
960.37739,0.15041
962.30586,0.15080
964.23433,0.14979
966.16280,0.14216
968.09127,0.13462
970.01974,0.13494
971.94820,0.14030
973.87667,0.14068
975.80514,0.13536
977.73361,0.13285
979.66208,0.13735
981.59055,0.14519
983.51902,0.15140
985.44748,0.15371
987.37595,0.15175
989.30442,0.14805
991.23289,0.14490
993.16136,0.14351
995.08983,0.14586
997.01830,0.15136
998.94677,0.15504
1000.87523,0.15353
1002.80370,0.15458
1004.73217,0.16036
1006.66064,0.16017
1008.58911,0.15902
1010.51758,0.16815
1012.44605,0.17594
1014.37451,0.17066
1016.30298,0.16009
1018.23145,0.14977
1020.15992,0.14225
1022.08839,0.14543
1024.01686,0.15425
1025.94533,0.14932
1027.87380,0.13268
1029.80226,0.13187
1031.73073,0.14491
1033.65920,0.14840
1035.58767,0.14545
1037.51614,0.14469
1039.44461,0.14466
1041.37308,0.14663
1043.30154,0.15592
1045.23001,0.17008
1047.15848,0.17561
1049.08695,0.17039
1051.01542,0.16626
1052.94389,0.16635
1054.87236,0.16782
1056.80083,0.17022
1058.72929,0.16586
1060.65776,0.15253
1062.58623,0.14608
1064.51470,0.15416
1066.44317,0.16477
1068.37164,0.17428
1070.30011,0.18842
1072.22857,0.19704
1074.15704,0.19000
1076.08551,0.17361
1078.01398,0.15597
1079.94245,0.14913
1081.87092,0.15935
1083.79939,0.16994
1085.72786,0.16808
1087.65632,0.16352
1089.58479,0.16178
1091.51326,0.15711
1093.44173,0.15189
1095.37020,0.14905
1097.29867,0.14508
1099.22714,0.14352
1101.15560,0.15115
1103.08407,0.16384
1105.01254,0.17207
1106.94101,0.17588
1108.86948,0.17750
1110.79795,0.17443
1112.72642,0.16962
1114.65489,0.16746
1116.58335,0.16236
1118.51182,0.15190
1120.44029,0.14729
1122.36876,0.15023
1124.29723,0.15020
1126.22570,0.14570
1128.15417,0.14326
1130.08263,0.14839
1132.01110,0.15788
1133.93957,0.16116
1135.86804,0.15798
1137.79651,0.15767
1139.72498,0.15932
1141.65345,0.15686
1143.58191,0.15297
1145.51038,0.15228
1147.43885,0.15326
1149.36732,0.15494
1151.29579,0.15860
1153.22426,0.16160
1155.15273,0.16263
1157.08120,0.16530
1159.00966,0.16938
1160.93813,0.17015
1162.86660,0.16749
1164.79507,0.16640
1166.72354,0.16854
1168.65201,0.16897
1170.58048,0.16668
1172.50894,0.16556
1174.43741,0.16429
1176.36588,0.16202
1178.29435,0.16156
1180.22282,0.16251
1182.15129,0.16465
1184.07976,0.17023
1186.00823,0.17572
1187.93669,0.17600
1189.86516,0.17348
1191.79363,0.17120
1193.72210,0.16890
1195.65057,0.16622
1197.57904,0.16383
1199.50751,0.16225
1201.43597,0.16093
1203.36444,0.16107
1205.29291,0.16498
1207.22138,0.17012
1209.14985,0.17097
1211.07832,0.16804
1213.00679,0.16536
1214.93526,0.16508
1216.86372,0.16660
1218.79219,0.16793
1220.72066,0.16796
1222.64913,0.16573
1224.57760,0.16551
1226.50607,0.17081
1228.43454,0.17225
1230.36300,0.16608
1232.29147,0.16217
1234.21994,0.16299
1236.14841,0.16580
1238.07688,0.16950
1240.00535,0.16995
1241.93382,0.16808
1243.86229,0.16763
1245.79075,0.16660
1247.71922,0.16535
1249.64769,0.16543
1251.57616,0.16338
1253.50463,0.15925
1255.43310,0.15697
1257.36157,0.15682
1259.29003,0.15656
1261.21850,0.15562
1263.14697,0.15631
1265.07544,0.15896
1267.00391,0.15951
1268.93238,0.15658
1270.86085,0.15735
1272.78932,0.16331
1274.71778,0.16550
1276.64625,0.16406
1278.57472,0.16517
1280.50319,0.16576
1282.43166,0.16266
1284.36013,0.16077
1286.28860,0.16069
1288.21706,0.16137
1290.14553,0.16646
1292.07400,0.17126
1294.00247,0.16773
1295.93094,0.15963
1297.85941,0.15562
1299.78788,0.15227
1301.71634,0.13927
1303.64481,0.12123
1305.57328,0.12041
1307.50175,0.14372
1309.43022,0.16699
1311.35869,0.17584
1313.28716,0.17704
1315.21563,0.17452
1317.14409,0.17203
1319.07256,0.17237
1321.00103,0.17273
1322.92950,0.17217
1324.85797,0.16785
1326.78644,0.16026
1328.71491,0.15782
1330.64337,0.15823
1332.57184,0.16023
1334.50031,0.16568
1336.42878,0.16663
1338.35725,0.16414
1340.28572,0.16073
1342.21419,0.15692
1344.14266,0.15707
1346.07112,0.15919
1347.99959,0.16165
1349.92806,0.16210
1351.85653,0.15965
1353.78500,0.15790
1355.71347,0.16060
1357.64194,0.16744
1359.57040,0.17414
1361.49887,0.17908
1363.42734,0.17839
1365.35581,0.17296
1367.28428,0.17180
1369.21275,0.17505
1371.14122,0.17762
1373.06969,0.18019
1374.99815,0.18258
1376.92662,0.18225
1378.85509,0.18002
1380.78356,0.17591
1382.71203,0.17148
1384.64050,0.17085
1386.56897,0.17578
1388.49743,0.18207
1390.42590,0.18503
1392.35437,0.18661
1394.28284,0.18887
1396.21131,0.18989
1398.13978,0.18684
1400.06825,0.18282
1401.99672,0.18133
1403.92518,0.17909
1405.85365,0.17649
1407.78212,0.17831
1409.71059,0.18073
1411.63906,0.18096
1413.56753,0.18337
1415.49600,0.19148
1417.42446,0.20301
1419.35293,0.20413
1421.28140,0.19497
1423.20987,0.19019
1425.13834,0.18782
1427.06681,0.18697
1428.99528,0.18819
1430.92375,0.18711
1432.85221,0.18689
1434.78068,0.19154
1436.70915,0.19360
1438.63762,0.18791
1440.56609,0.18243
1442.49456,0.17906
1444.42303,0.17709
1446.35149,0.18051
1448.27996,0.18714
1450.20843,0.18627
1452.13690,0.18373
1454.06537,0.19064
1455.99384,0.20906
1457.92231,0.21675
1459.85077,0.20061
1461.77924,0.19074
1463.70771,0.19112
1465.63618,0.19349
1467.56465,0.19403
1469.49312,0.20028
1471.42159,0.21388
1473.35006,0.21974
1475.27852,0.20993
1477.20699,0.20003
1479.13546,0.19593
1481.06393,0.19381
1482.99240,0.19146
1484.92087,0.19402
1486.84934,0.20300
1488.77780,0.21067
1490.70627,0.20605
1492.63474,0.19646
1494.56321,0.19429
1496.49168,0.20266
1498.42015,0.21019
1500.34862,0.20489
1502.27709,0.19898
1504.20555,0.20679
1506.13402,0.23326
1508.06249,0.23842
1509.99096,0.21640
1511.91943,0.20359
1513.84790,0.20176
1515.77637,0.20498
1517.70483,0.20609
1519.63330,0.21183
1521.56177,0.22556
1523.49024,0.22703
1525.41871,0.22066
1527.34718,0.21530
1529.27565,0.20898
1531.20412,0.20696
1533.13258,0.21158
1535.06105,0.21585
1536.98952,0.22265
1538.91799,0.24461
1540.84646,0.26397
1542.77493,0.24459
1544.70340,0.21981
1546.63186,0.20252
1548.56033,0.19478
1550.48880,0.19335
1552.41727,0.19291
1554.34574,0.19704
1556.27421,0.21424
1558.20268,0.24624
1560.13115,0.23580
1562.05961,0.20492
1563.98808,0.19368
1565.91655,0.19468
1567.84502,0.20225
1569.77349,0.20497
1571.70196,0.19567
1573.63043,0.19336
1575.55889,0.20185
1577.48736,0.19957
1579.41583,0.18855
1581.34430,0.18374
1583.27277,0.18295
1585.20124,0.18177
1587.12971,0.18199
1589.05818,0.18673
1590.98664,0.19201
1592.91511,0.19279
1594.84358,0.18907
1596.77205,0.18367
1598.70052,0.18046
1600.62899,0.17911
1602.55746,0.17842
1604.48592,0.18004
1606.41439,0.18314
1608.34286,0.18477
1610.27133,0.18439
1612.19980,0.18560
1614.12827,0.19259
1616.05674,0.20445
1617.98521,0.20771
1619.91367,0.20195
1621.84214,0.19802
1623.77061,0.19500
1625.69908,0.19263
1627.62755,0.19349
1629.55602,0.19375
1631.48449,0.19474
1633.41295,0.20350
1635.34142,0.21573
1637.26989,0.20843
1639.19836,0.19496
1641.12683,0.19206
1643.05530,0.19883
1644.98377,0.21348
1646.91223,0.22984
1648.84070,0.23222
1650.76917,0.23449
1652.69764,0.24604
1654.62611,0.23453
1656.55458,0.21447
1658.48305,0.20684
1660.41152,0.20613
1662.33998,0.20453
1664.26845,0.20146
1666.19692,0.20417
1668.12539,0.21285
1670.05386,0.21870
1671.98233,0.21715
1673.91080,0.21492
1675.83926,0.21077
1677.76773,0.20839
1679.69620,0.21350
1681.62467,0.22350
1683.55314,0.22882
1685.48161,0.21835
1687.41008,0.20914
1689.33855,0.20480
1691.26701,0.20088
1693.19548,0.20238
1695.12395,0.21323
1697.05242,0.22665
1698.98089,0.23224
1700.90936,0.22466
1702.83783,0.21485
1704.76629,0.21061
1706.69476,0.20409
1708.62323,0.19665
1710.55170,0.19464
1712.48017,0.19901
1714.40864,0.20937
1716.33711,0.21992
1718.26558,0.21396
1720.19404,0.20113
1722.12251,0.19674
1724.05098,0.19621
1725.97945,0.19486
1727.90792,0.19705
1729.83639,0.20534
1731.76486,0.21502
1733.69332,0.21733
1735.62179,0.20733
1737.55026,0.20032
1739.47873,0.20084
1741.40720,0.20564
1743.33567,0.20980
1745.26414,0.21204
1747.19261,0.21423
1749.12107,0.21252
1751.04954,0.20212
1752.97801,0.19201
1754.90648,0.18903
1756.83495,0.19140
1758.76342,0.19571
1760.69189,0.19976
1762.62035,0.20017
1764.54882,0.19801
1766.47729,0.19874
1768.40576,0.20441
1770.33423,0.21466
1772.26270,0.21907
1774.19117,0.20815
1776.11964,0.19708
1778.04810,0.19495
1779.97657,0.19873
1781.90504,0.20137
1783.83351,0.19975
1785.76198,0.19516
1787.69045,0.19265
1789.61892,0.19676
1791.54738,0.20389
1793.47585,0.20266
1795.40432,0.19506
1797.33279,0.19218
1799.26126,0.19411
1801.18973,0.19266
1803.11820,0.18761
1805.04666,0.18580
1806.97513,0.18728
1808.90360,0.19043
1810.83207,0.19318
1812.76054,0.19212
1814.68901,0.19112
1816.61748,0.19242
1818.54595,0.19193
1820.47441,0.18990
1822.40288,0.18954
1824.33135,0.19213
1826.25982,0.19736
1828.18829,0.20185
1830.11676,0.20192
1832.04523,0.19957
1833.97369,0.19820
1835.90216,0.19554
1837.83063,0.19060
1839.75910,0.18796
1841.68757,0.19158
1843.61604,0.19716
1845.54451,0.19527
1847.47298,0.19014
1849.40144,0.18821
1851.32991,0.18806
1853.25838,0.18887
1855.18685,0.19065
1857.11532,0.19299
1859.04379,0.19509
1860.97226,0.19516
1862.90072,0.19433
1864.82919,0.19504
1866.75766,0.19691
1868.68613,0.19600
1870.61460,0.19020
1872.54307,0.18626
1874.47154,0.18700
1876.40001,0.18939
1878.32847,0.18995
1880.25694,0.18817
1882.18541,0.18785
1884.11388,0.19020
1886.04235,0.19209
1887.97082,0.19333
1889.89929,0.19500
1891.82775,0.19632
1893.75622,0.19706
1895.68469,0.19596
1897.61316,0.19265
1899.54163,0.18999
1901.47010,0.18888
1903.39857,0.18928
1905.32704,0.19148
1907.25550,0.19267
1909.18397,0.19066
1911.11244,0.18740
1913.04091,0.18615
1914.96938,0.18862
1916.89785,0.19190
1918.82632,0.19131
1920.75478,0.19018
1922.68325,0.19093
1924.61172,0.19069
1926.54019,0.19033
1928.46866,0.19003
1930.39713,0.18933
1932.32560,0.18922
1934.25407,0.18799
1936.18253,0.18625
1938.11100,0.18811
1940.03947,0.19341
1941.96794,0.19645
1943.89641,0.19223
1945.82488,0.18651
1947.75335,0.18669
1949.68181,0.18802
1951.61028,0.18638
1953.53875,0.18686
1955.46722,0.18973
1957.39569,0.19231
1959.32416,0.19438
1961.25263,0.19274
1963.18110,0.18859
1965.10956,0.18873
1967.03803,0.19161
1968.96650,0.19069
1970.89497,0.18794
1972.82344,0.18692
1974.75191,0.18755
1976.68038,0.18966
1978.60884,0.19130
1980.53731,0.19007
1982.46578,0.18742
1984.39425,0.18627
1986.32272,0.18658
1988.25119,0.18833
1990.17966,0.19206
1992.10812,0.19365
1994.03659,0.19131
1995.96506,0.18975
1997.89353,0.19004
1999.82200,0.19121
2001.75047,0.19289
2003.67894,0.19299
2005.60741,0.19125
2007.53587,0.18944
2009.46434,0.18895
2011.39281,0.18973
2013.32128,0.18989
2015.24975,0.18941
2017.17822,0.19075
2019.10669,0.19303
2021.03515,0.19254
2022.96362,0.19092
2024.89209,0.19242
2026.82056,0.19588
2028.74903,0.19747
2030.67750,0.19552
2032.60597,0.19215
2034.53444,0.19147
2036.46290,0.19318
2038.39137,0.19362
2040.31984,0.19164
2042.24831,0.18958
2044.17678,0.18972
2046.10525,0.19174
2048.03372,0.19443
2049.96218,0.19638
2051.89065,0.19558
2053.81912,0.19223
2055.74759,0.19017
2057.67606,0.19115
2059.60453,0.19230
2061.53300,0.19198
2063.46147,0.19172
2065.38993,0.19224
2067.31840,0.19136
2069.24687,0.18851
2071.17534,0.18731
2073.10381,0.18908
2075.03228,0.19094
2076.96075,0.19131
2078.88921,0.19066
2080.81768,0.19080
2082.74615,0.19321
2084.67462,0.19547
2086.60309,0.19456
2088.53156,0.19174
2090.46003,0.19035
2092.38850,0.19122
2094.31696,0.19212
2096.24543,0.19249
2098.17390,0.19214
2100.10237,0.18884
2102.03084,0.18624
2103.95931,0.18952
2105.88778,0.19491
2107.81624,0.19773
2109.74471,0.19821
2111.67318,0.19549
2113.60165,0.19003
2115.53012,0.18711
2117.45859,0.18770
2119.38706,0.18928
2121.31553,0.19271
2123.24399,0.19627
2125.17246,0.19685
2127.10093,0.19488
2129.02940,0.19213
2130.95787,0.19153
2132.88634,0.19272
2134.81481,0.19283
2136.74327,0.19369
2138.67174,0.19584
2140.60021,0.19675
2142.52868,0.19567
2144.45715,0.19255
2146.38562,0.19030
2148.31409,0.19095
2150.24255,0.19220
2152.17102,0.19276
2154.09949,0.19239
2156.02796,0.19156
2157.95643,0.19175
2159.88490,0.19170
2161.81337,0.19005
2163.74184,0.18947
2165.67030,0.19207
2167.59877,0.19530
2169.52724,0.19530
2171.45571,0.19388
2173.38418,0.19313
2175.31265,0.19127
2177.24112,0.19027
2179.16958,0.19105
2181.09805,0.19143
2183.02652,0.19153
2184.95499,0.19116
2186.88346,0.19053
2188.81193,0.19153
2190.74040,0.19344
2192.66887,0.19378
2194.59733,0.19179
2196.52580,0.18838
2198.45427,0.18686
2200.38274,0.18782
2202.31121,0.18816
2204.23968,0.18941
2206.16815,0.19301
2208.09661,0.19467
2210.02508,0.19313
2211.95355,0.19179
2213.88202,0.19041
2215.81049,0.18845
2217.73896,0.18819
2219.66743,0.18921
2221.59590,0.19035
2223.52436,0.19090
2225.45283,0.19059
2227.38130,0.19103
2229.30977,0.19046
2231.23824,0.18706
2233.16671,0.18611
2235.09518,0.19044
2237.02364,0.19485
2238.95211,0.19609
2240.88058,0.19582
2242.80905,0.19524
2244.73752,0.19414
2246.66599,0.19345
2248.59446,0.19405
2250.52293,0.19463
2252.45139,0.19541
2254.37986,0.19586
2256.30833,0.19278
2258.23680,0.18906
2260.16527,0.18902
2262.09374,0.19047
2264.02221,0.19182
2265.95067,0.19281
2267.87914,0.19234
2269.80761,0.19091
2271.73608,0.18946
2273.66455,0.18865
2275.59302,0.18873
2277.52149,0.18908
2279.44996,0.18868
2281.37842,0.18742
2283.30689,0.18861
2285.23536,0.19251
2287.16383,0.19238
2289.09230,0.18824
2291.02077,0.18666
2292.94924,0.18808
2294.87770,0.19078
2296.80617,0.19271
2298.73464,0.19308
2300.66311,0.19367
2302.59158,0.19271
2304.52005,0.19032
2306.44852,0.18948
2308.37699,0.18865
2310.30545,0.18710
2312.23392,0.18834
2314.16239,0.19221
2316.09086,0.19482
2318.01933,0.19471
2319.94780,0.19360
2321.87627,0.19611
2323.80473,0.20326
2325.73320,0.20726
2327.66167,0.20120
2329.59014,0.18793
2331.51861,0.17815
2333.44708,0.17966
2335.37555,0.18533
2337.30401,0.18081
2339.23248,0.17311
2341.16095,0.18043
2343.08942,0.19277
2345.01789,0.19108
2346.94636,0.18434
2348.87483,0.18459
2350.80330,0.19072
2352.73176,0.19862
2354.66023,0.20313
2356.58870,0.20270
2358.51717,0.19128
2360.44564,0.17148
2362.37411,0.16817
2364.30258,0.17805
2366.23104,0.18230
2368.15951,0.18445
2370.08798,0.18777
2372.01645,0.18734
2373.94492,0.18582
2375.87339,0.18873
2377.80186,0.19229
2379.73033,0.19271
2381.65879,0.19217
2383.58726,0.19028
2385.51573,0.18753
2387.44420,0.18777
2389.37267,0.18934
2391.30114,0.19001
2393.22961,0.19173
2395.15807,0.19235
2397.08654,0.19008
2399.01501,0.18879
2400.94348,0.19070
2402.87195,0.19367
2404.80042,0.19397
2406.72889,0.19136
2408.65736,0.18988
2410.58582,0.19025
2412.51429,0.19112
2414.44276,0.19287
2416.37123,0.19320
2418.29970,0.19170
2420.22817,0.19260
2422.15664,0.19463
2424.08510,0.19336
2426.01357,0.18999
2427.94204,0.18865
2429.87051,0.18993
2431.79898,0.18973
2433.72745,0.18788
2435.65592,0.18840
2437.58439,0.19041
2439.51285,0.19124
2441.44132,0.19084
2443.36979,0.18923
2445.29826,0.18744
2447.22673,0.18732
2449.15520,0.18811
2451.08367,0.18980
2453.01213,0.19260
2454.94060,0.19301
2456.86907,0.19092
2458.79754,0.19067
2460.72601,0.19348
2462.65448,0.19573
2464.58295,0.19507
2466.51142,0.19465
2468.43988,0.19566
2470.36835,0.19546
2472.29682,0.19441
2474.22529,0.19432
2476.15376,0.19473
2478.08223,0.19497
2480.01070,0.19628
2481.93916,0.19904
2483.86763,0.19957
2485.79610,0.19628
2487.72457,0.19335
2489.65304,0.19205
2491.58151,0.19030
2493.50998,0.18897
2495.43844,0.18954
2497.36691,0.19181
2499.29538,0.19430
2501.22385,0.19496
2503.15232,0.19440
2505.08079,0.19449
2507.00926,0.19502
2508.93773,0.19530
2510.86619,0.19472
2512.79466,0.19357
2514.72313,0.19332
2516.65160,0.19397
2518.58007,0.19414
2520.50854,0.19283
2522.43701,0.19129
2524.36547,0.19082
2526.29394,0.19083
2528.22241,0.19155
2530.15088,0.19226
2532.07935,0.19208
2534.00782,0.19294
2535.93629,0.19509
2537.86476,0.19577
2539.79322,0.19413
2541.72169,0.19267
2543.65016,0.19223
2545.57863,0.19158
2547.50710,0.19191
2549.43557,0.19404
2551.36404,0.19532
2553.29250,0.19508
2555.22097,0.19528
2557.14944,0.19530
2559.07791,0.19453
2561.00638,0.19461
2562.93485,0.19554
2564.86332,0.19662
2566.79179,0.19773
2568.72025,0.19760
2570.64872,0.19657
2572.57719,0.19682
2574.50566,0.19850
2576.43413,0.20022
2578.36260,0.19965
2580.29107,0.19557
2582.21953,0.19243
2584.14800,0.19463
2586.07647,0.19750
2588.00494,0.19655
2589.93341,0.19472
2591.86188,0.19429
2593.79035,0.19636
2595.71882,0.20121
2597.64728,0.20394
2599.57575,0.20078
2601.50422,0.19590
2603.43269,0.19535
2605.36116,0.19828
2607.28963,0.19897
2609.21810,0.19527
2611.14656,0.19078
2613.07503,0.18999
2615.00350,0.19475
2616.93197,0.20152
2618.86044,0.20392
2620.78891,0.20029
2622.71738,0.19469
2624.64585,0.19306
2626.57431,0.19719
2628.50278,0.20126
2630.43125,0.20034
2632.35972,0.19748
2634.28819,0.19567
2636.21666,0.19299
2638.14513,0.19069
2640.07359,0.19197
2642.00206,0.19530
2643.93053,0.19869
2645.85900,0.20117
2647.78747,0.20069
2649.71594,0.19844
2651.64441,0.19750
2653.57288,0.19655
2655.50134,0.19431
2657.42981,0.19485
2659.35828,0.19845
2661.28675,0.19866
2663.21522,0.19710
2665.14369,0.19953
2667.07216,0.20264
2669.00062,0.20312
2670.92909,0.20269
2672.85756,0.20201
2674.78603,0.20020
2676.71450,0.19854
2678.64297,0.19828
2680.57144,0.19709
2682.49990,0.19512
2684.42837,0.19502
2686.35684,0.19714
2688.28531,0.19944
2690.21378,0.20031
2692.14225,0.20063
2694.07072,0.20142
2695.99919,0.20275
2697.92765,0.20370
2699.85612,0.20431
2701.78459,0.20407
2703.71306,0.20119
2705.64153,0.19846
2707.57000,0.19834
2709.49847,0.19862
2711.42693,0.19967
2713.35540,0.20333
2715.28387,0.20550
2717.21234,0.20330
2719.14081,0.20102
2721.06928,0.20101
2722.99775,0.20220
2724.92622,0.20343
2726.85468,0.20377
2728.78315,0.20443
2730.71162,0.20604
2732.64009,0.20693
2734.56856,0.20510
2736.49703,0.20047
2738.42550,0.19782
2740.35396,0.20012
2742.28243,0.20375
2744.21090,0.20594
2746.13937,0.20569
2748.06784,0.20313
2749.99631,0.20090
2751.92478,0.19996
2753.85325,0.20032
2755.78171,0.20219
2757.71018,0.20347
2759.63865,0.20401
2761.56712,0.20686
2763.49559,0.21082
2765.42406,0.21261
2767.35253,0.21226
2769.28099,0.20965
2771.20946,0.20570
2773.13793,0.20222
2775.06640,0.19997
2776.99487,0.20098
2778.92334,0.20462
2780.85181,0.20774
2782.78028,0.21036
2784.70874,0.21322
2786.63721,0.21468
2788.56568,0.21339
2790.49415,0.21004
2792.42262,0.20586
2794.35109,0.20327
2796.27956,0.20455
2798.20802,0.20860
2800.13649,0.21165
2802.06496,0.21091
2803.99343,0.20752
2805.92190,0.20372
2807.85037,0.20094
2809.77884,0.20273
2811.70731,0.20898
2813.63577,0.21247
2815.56424,0.21054
2817.49271,0.20700
2819.42118,0.20370
2821.34965,0.20203
2823.27812,0.20359
2825.20659,0.20514
2827.13505,0.20298
2829.06352,0.20075
2830.99199,0.20217
2832.92046,0.20522
2834.84893,0.20822
2836.77740,0.20964
2838.70587,0.20992
2840.63433,0.21146
2842.56280,0.21292
2844.49127,0.21345
2846.41974,0.21242
2848.34821,0.20858
2850.27668,0.20506
2852.20515,0.20303
2854.13362,0.20180
2856.06208,0.20403
2857.99055,0.20686
2859.91902,0.20549
2861.84749,0.20203
2863.77596,0.20000
2865.70443,0.20109
2867.63290,0.20517
2869.56136,0.20962
2871.48983,0.21004
2873.41830,0.20606
2875.34677,0.20372
2877.27524,0.20603
2879.20371,0.20876
2881.13218,0.20723
2883.06065,0.20339
2884.98911,0.20312
2886.91758,0.20637
2888.84605,0.20849
2890.77452,0.20809
2892.70299,0.20526
2894.63146,0.20060
2896.55993,0.19784
2898.48839,0.19950
2900.41686,0.20527
2902.34533,0.21095
2904.27380,0.20923
2906.20227,0.20196
2908.13074,0.19832
2910.05921,0.20005
2911.98768,0.20185
2913.91614,0.19908
2915.84461,0.19426
2917.77308,0.19575
2919.70155,0.20250
2921.63002,0.20608
2923.55849,0.20432
2925.48696,0.19667
2927.41542,0.18963
2929.34389,0.19501
2931.27236,0.20639
2933.20083,0.20897
2935.12930,0.19944
2937.05777,0.18713
2938.98624,0.18753
2940.91471,0.19810
2942.84317,0.20317
2944.77164,0.19751
2946.70011,0.18730
2948.62858,0.18698
2950.55705,0.19695
2952.48552,0.20128
2954.41399,0.19669
2956.34245,0.18824
2958.27092,0.18462
2960.19939,0.19354
2962.12786,0.20522
2964.05633,0.20987
2965.98480,0.20686
2967.91327,0.19767
2969.84174,0.19351
2971.77020,0.19943
2973.69867,0.20744
2975.62714,0.20762
2977.55561,0.19625
2979.48408,0.19162
2981.41255,0.20402
2983.34102,0.21473
2985.26948,0.21136
2987.19795,0.19886
2989.12642,0.19151
2991.05489,0.19793
2992.98336,0.20851
2994.91183,0.21181
2996.84030,0.20628
2998.76877,0.20183
3000.69723,0.20627
3002.62570,0.21151
3004.55417,0.21046
3006.48264,0.20340
3008.41111,0.19109
3010.33958,0.17558
3012.26805,0.15299
3014.19651,0.11710
3016.12498,0.09006
3018.05345,0.11139
3019.98192,0.16847
3021.91039,0.20894
3023.83886,0.21944
3025.76733,0.21652
3027.69579,0.21085
3029.62426,0.21124
3031.55273,0.21859
3033.48120,0.22236
3035.40967,0.21708
3037.33814,0.20935
3039.26661,0.20956
3041.19508,0.21669
3043.12354,0.21936
3045.05201,0.21210
3046.98048,0.20026
3048.90895,0.19603
3050.83742,0.20162
3052.76589,0.20561
3054.69436,0.20052
3056.62282,0.19129
3058.55129,0.19244
3060.47976,0.20474
3062.40823,0.21177
3064.33670,0.20386
3066.26517,0.18935
3068.19364,0.18699
3070.12211,0.19846
3072.05057,0.20894
3073.97904,0.20796
3075.90751,0.20074
3077.83598,0.20407
3079.76445,0.21302
3081.69292,0.20919
3083.62139,0.19121
3085.54985,0.17681
3087.47832,0.18526
3089.40679,0.20474
3091.33526,0.20899
3093.26373,0.19484
3095.19220,0.18453
3097.12067,0.19419
3099.04914,0.20745
3100.97760,0.20706
3102.90607,0.19735
3104.83454,0.19481
3106.76301,0.20674
3108.69148,0.21815
3110.61995,0.21402
3112.54842,0.20163
3114.47688,0.19957
3116.40535,0.20750
3118.33382,0.21135
3120.26229,0.20535
3122.19076,0.19741
3124.11923,0.20160
3126.04770,0.21361
3127.97617,0.21572
3129.90463,0.20641
3131.83310,0.20311
3133.76157,0.21105
3135.69004,0.21497
3137.61851,0.20926
3139.54698,0.20236
3141.47545,0.20039
3143.40391,0.20344
3145.33238,0.20746
3147.26085,0.20791
3149.18932,0.20821
3151.11779,0.21304
3153.04626,0.21764
3154.97473,0.21768
3156.90320,0.21769
3158.83166,0.22155
3160.76013,0.22241
3162.68860,0.21890
3164.61707,0.21922
3166.54554,0.22166
3168.47401,0.22088
3170.40248,0.21669
3172.33094,0.21278
3174.25941,0.21670
3176.18788,0.22475
3178.11635,0.22588
3180.04482,0.22186
3181.97329,0.21871
3183.90176,0.21835
3185.83022,0.21970
3187.75869,0.21855
3189.68716,0.21475
3191.61563,0.21159
3193.54410,0.21304
3195.47257,0.21783
3197.40104,0.21730
3199.32951,0.21165
3201.25797,0.21062
3203.18644,0.21448
3205.11491,0.21727
3207.04338,0.21883
3208.97185,0.21869
3210.90032,0.21653
3212.82879,0.21649
3214.75725,0.21946
3216.68572,0.22217
3218.61419,0.22428
3220.54266,0.22570
3222.47113,0.22304
3224.39960,0.21630
3226.32807,0.20939
3228.25654,0.20618
3230.18500,0.20846
3232.11347,0.21228
3234.04194,0.21318
3235.97041,0.21273
3237.89888,0.21532
3239.82735,0.22100
3241.75582,0.22259
3243.68428,0.21816
3245.61275,0.21572
3247.54122,0.21693
3249.46969,0.21742
3251.39816,0.21573
3253.32663,0.21103
3255.25510,0.20710
3257.18357,0.20852
3259.11203,0.20929
3261.04050,0.20301
3262.96897,0.19819
3264.89744,0.20442
3266.82591,0.21470
3268.75438,0.21880
3270.68285,0.21757
3272.61131,0.21595
3274.53978,0.21558
3276.46825,0.21564
3278.39672,0.21485
3280.32519,0.21110
3282.25366,0.20756
3284.18213,0.20847
3286.11060,0.20839
3288.03906,0.20432
3289.96753,0.20149
3291.89600,0.20422
3293.82447,0.21056
3295.75294,0.21443
3297.68141,0.21491
3299.60988,0.21396
3301.53834,0.21272
3303.46681,0.21547
3305.39528,0.22282
3307.32375,0.22638
3309.25222,0.22117
3311.18069,0.21206
3313.10916,0.20641
3315.03763,0.20626
3316.96609,0.20878
3318.89456,0.21372
3320.82303,0.21834
3322.75150,0.21808
3324.67997,0.21687
3326.60844,0.21746
3328.53691,0.21729
3330.46537,0.21758
3332.39384,0.21991
3334.32231,0.22102
3336.25078,0.21950
3338.17925,0.21728
3340.10772,0.21526
3342.03619,0.21550
3343.96466,0.21958
3345.89312,0.22458
3347.82159,0.22696
3349.75006,0.22596
3351.67853,0.22165
3353.60700,0.21717
3355.53547,0.21531
3357.46394,0.21442
3359.39240,0.21641
3361.32087,0.22424
3363.24934,0.23194
3365.17781,0.23024
3367.10628,0.22296
3369.03475,0.21967
3370.96322,0.21830
3372.89168,0.21621
3374.82015,0.21776
3376.74862,0.22495
3378.67709,0.23134
3380.60556,0.22969
3382.53403,0.22421
3384.46250,0.22035
3386.39097,0.21629
3388.31943,0.21305
3390.24790,0.21333
3392.17637,0.21413
3394.10484,0.21116
3396.03331,0.20528
3397.96178,0.20247
3399.89025,0.20746
3401.81871,0.21573
3403.74718,0.21840
3405.67565,0.21361
3407.60412,0.20850
3409.53259,0.20932
3411.46106,0.21178
3413.38953,0.21177
3415.31800,0.21417
3417.24646,0.21797
3419.17493,0.21520
3421.10340,0.20628
3423.03187,0.20075
3424.96034,0.20318
3426.88881,0.20694
3428.81728,0.20890
3430.74574,0.21279
3432.67421,0.21548
3434.60268,0.21016
3436.53115,0.20008
3438.45962,0.19634
3440.38809,0.20125
3442.31656,0.20560
3444.24503,0.20359
3446.17349,0.20012
3448.10196,0.19859
3450.03043,0.19456
3451.95890,0.19201
3453.88737,0.19590
3455.81584,0.20111
3457.74431,0.20446
3459.67277,0.20542
3461.60124,0.20574
3463.52971,0.20687
3465.45818,0.20504
3467.38665,0.19945
3469.31512,0.19270
3471.24359,0.18807
3473.17206,0.18992
3475.10052,0.19587
3477.02899,0.19672
3478.95746,0.19190
3480.88593,0.18824
3482.81440,0.18765
3484.74287,0.19013
3486.67134,0.19435
3488.59980,0.19449
3490.52827,0.18737
3492.45674,0.18111
3494.38521,0.18541
3496.31368,0.19342
3498.24215,0.19531
3500.17062,0.19506
3502.09909,0.19632
3504.02755,0.19797
3505.95602,0.19804
3507.88449,0.19509
3509.81296,0.19097
3511.74143,0.18756
3513.66990,0.18439
3515.59837,0.18177
3517.52683,0.18009
3519.45530,0.17951
3521.38377,0.17908
3523.31224,0.18041
3525.24071,0.18687
3527.16918,0.18985
3529.09765,0.18167
3531.02611,0.17206
3532.95458,0.17009
3534.88305,0.17355
3536.81152,0.17663
3538.73999,0.17821
3540.66846,0.17993
3542.59693,0.18058
3544.52540,0.17848
3546.45386,0.17273
3548.38233,0.16640
3550.31080,0.16624
3552.23927,0.17157
3554.16774,0.17450
3556.09621,0.17342
3558.02468,0.17069
3559.95314,0.16655
3561.88161,0.16364
3563.81008,0.16782
3565.73855,0.18048
3567.66702,0.18717
3569.59549,0.17918
3571.52396,0.16838
3573.45243,0.15916
3575.38089,0.15489
3577.30936,0.15527
3579.23783,0.15589
3581.16630,0.15984
3583.09477,0.16747
3585.02324,0.17405
3586.95171,0.17578
3588.88017,0.16947
3590.80864,0.16474
3592.73711,0.16741
3594.66558,0.17271
3596.59405,0.17162
3598.52252,0.16227
3600.45099,0.15376
3602.37946,0.15165
3604.30792,0.15576
3606.23639,0.16745
3608.16486,0.17801
3610.09333,0.17421
3612.02180,0.16411
3613.95027,0.15891
3615.87874,0.15926
3617.80720,0.16054
3619.73567,0.15911
3621.66414,0.15577
3623.59261,0.15341
3625.52108,0.15329
3627.44955,0.15850
3629.37802,0.16447
3631.30649,0.15862
3633.23495,0.15261
3635.16342,0.15193
3637.09189,0.14904
3639.02036,0.14186
3640.94883,0.13900
3642.87730,0.14511
3644.80577,0.15508
3646.73423,0.16497
3648.66270,0.17196
3650.59117,0.17071
3652.51964,0.16568
3654.44811,0.16062
3656.37658,0.15384
3658.30505,0.14600
3660.23352,0.13990
3662.16198,0.13674
3664.09045,0.13721
3666.01892,0.13897
3667.94739,0.14089
3669.87586,0.14381
3671.80433,0.14649
3673.73280,0.14964
3675.66126,0.14944
3677.58973,0.14277
3679.51820,0.13881
3681.44667,0.13702
3683.37514,0.13437
3685.30361,0.13318
3687.23208,0.13738
3689.16055,0.14601
3691.08901,0.14532
3693.01748,0.13556
3694.94595,0.13082
3696.87442,0.13348
3698.80289,0.13872
3700.73136,0.14078
3702.65983,0.13539
3704.58829,0.13015
3706.51676,0.13370
3708.44523,0.14707
3710.37370,0.16189
3712.30217,0.15730
3714.23064,0.14246
3716.15911,0.13932
3718.08757,0.14559
3720.01604,0.14560
3721.94451,0.13242
3723.87298,0.12186
3725.80145,0.12312
3727.72992,0.12546
3729.65839,0.12275
3731.58686,0.12148
3733.51532,0.13059
3735.44379,0.14633
3737.37226,0.15261
3739.30073,0.14957
3741.22920,0.14568
3743.15767,0.14237
3745.08614,0.13716
3747.01460,0.14040
3748.94307,0.15747
3750.87154,0.16931
3752.80001,0.15488
3754.72848,0.14000
3756.65695,0.13595
3758.58542,0.13672
3760.51389,0.13483
3762.44235,0.13341
3764.37082,0.13539
3766.29929,0.13457
3768.22776,0.13022
3770.15623,0.12910
3772.08470,0.13244
3774.01317,0.13511
3775.94163,0.13404
3777.87010,0.13291
3779.79857,0.13244
3781.72704,0.12911
3783.65551,0.12872
3785.58398,0.13185
3787.51245,0.13198
3789.44092,0.12964
3791.36938,0.12927
3793.29785,0.13382
3795.22632,0.13946
3797.15479,0.13741
3799.08326,0.13375
3801.01173,0.13856
3802.94020,0.14046
3804.86866,0.13235
3806.79713,0.12231
3808.72560,0.11898
3810.65407,0.12063
3812.58254,0.12207
3814.51101,0.12645
3816.43948,0.13508
3818.36795,0.14249
3820.29641,0.14583
3822.22488,0.13988
3824.15335,0.13177
3826.08182,0.12694
3828.01029,0.12427
3829.93876,0.12391
3831.86723,0.12459
3833.79569,0.12686
3835.72416,0.13257
3837.65263,0.14164
3839.58110,0.14664
3841.50957,0.14419
3843.43804,0.13827
3845.36651,0.12875
3847.29498,0.12158
3849.22344,0.12223
3851.15191,0.13145
3853.08038,0.14550
3855.00885,0.13920
3856.93732,0.12480
3858.86579,0.11783
3860.79426,0.11843
3862.72272,0.12683
3864.65119,0.13213
3866.57966,0.12990
3868.50813,0.13019
3870.43660,0.13064
3872.36507,0.12838
3874.29354,0.12637
3876.22200,0.12317
3878.15047,0.12319
3880.07894,0.12830
3882.00741,0.13016
3883.93588,0.12905
3885.86435,0.12956
3887.79282,0.12904
3889.72129,0.12754
3891.64975,0.12536
3893.57822,0.12220
3895.50669,0.12069
3897.43516,0.12220
3899.36363,0.12364
3901.29210,0.12072
3903.22057,0.11820
3905.14903,0.11966
3907.07750,0.11958
3909.00597,0.11654
3910.93444,0.11255
3912.86291,0.11006
3914.79138,0.11178
3916.71985,0.11642
3918.64832,0.11820
3920.57678,0.11631
3922.50525,0.11543
3924.43372,0.11662
3926.36219,0.11728
3928.29066,0.11704
3930.21913,0.11827
3932.14760,0.11952
3934.07606,0.11433
3936.00453,0.10614
3937.93300,0.10406
3939.86147,0.10691
3941.78994,0.10943
3943.71841,0.11155
3945.64688,0.11258
3947.57535,0.11305
3949.50381,0.11476
3951.43228,0.11419
3953.36075,0.10904
3955.28922,0.10322
3957.21769,0.10392
3959.14616,0.11031
3961.07463,0.11121
3963.00309,0.10619
3964.93156,0.10256
3966.86003,0.10121
3968.78850,0.10268
3970.71697,0.10590
3972.64544,0.10877
3974.57391,0.11063
3976.50238,0.11137
3978.43084,0.11339
3980.35931,0.11384
3982.28778,0.10893
3984.21625,0.10250
3986.14472,0.09834
3988.07319,0.10001
3990.00166,0.10977
3991.93012,0.11779
3993.85859,0.11373
3995.78706,0.10237
3997.71553,0.09523
3999.64400,0.09730
4001.57247,0.10193
4003.50094,0.10256
4005.42941,0.10212
4007.35787,0.10575
4009.28634,0.11425
4011.21481,0.11939
4013.14328,0.11636
4015.07175,0.11148
4017.00022,0.10824
4018.92869,0.10485
4020.85715,0.09866
4022.78562,0.09096
4024.71409,0.08699
4026.64256,0.08956
4028.57103,0.09931
4030.49950,0.10876
4032.42797,0.10892
4034.35644,0.10479
4036.28490,0.10229
4038.21337,0.09990
4040.14184,0.09833
4042.07031,0.10035
4043.99878,0.10534
4045.92725,0.10763
4047.85572,0.10369
4049.78418,0.09675
4051.71265,0.09306
4053.64112,0.09505
4055.56959,0.09659
4057.49806,0.09410
4059.42653,0.09159
4061.35500,0.08989
4063.28346,0.09055
4065.21193,0.09702
4067.14040,0.10399
4069.06887,0.10623
4070.99734,0.10597
4072.92581,0.10518
4074.85428,0.10172
4076.78275,0.09303
4078.71121,0.08680
4080.63968,0.09140
4082.56815,0.09721
4084.49662,0.09346
4086.42509,0.08914
4088.35356,0.09225
4090.28203,0.09405
4092.21049,0.09101
4094.13896,0.08868
4096.06743,0.09101
4097.99590,0.09611
4099.92437,0.09468
4101.85284,0.08802
4103.78131,0.08739
4105.70978,0.09079
4107.63824,0.09196
4109.56671,0.09232
4111.49518,0.09120
4113.42365,0.08980
4115.35212,0.09214
4117.28059,0.09562
4119.20906,0.09718
4121.13752,0.09747
4123.06599,0.09620
4124.99446,0.09288
4126.92293,0.08844
4128.85140,0.08494
4130.77987,0.08413
4132.70834,0.08632
4134.63681,0.08949
4136.56527,0.09055
4138.49374,0.08963
4140.42221,0.08642
4142.35068,0.08158
4144.27915,0.08065
4146.20762,0.08185
4148.13609,0.08189
4150.06455,0.08460
4151.99302,0.08590
4153.92149,0.08254
4155.84996,0.08198
4157.77843,0.08314
4159.70690,0.08022
4161.63537,0.07842
4163.56384,0.08148
4165.49230,0.08429
4167.42077,0.08346
4169.34924,0.08161
4171.27771,0.08172
4173.20618,0.08296
4175.13465,0.08362
4177.06312,0.08234
4178.99158,0.08030
4180.92005,0.08222
4182.84852,0.08728
4184.77699,0.08877
4186.70546,0.08642
4188.63393,0.08743
4190.56240,0.09301
4192.49087,0.09435
4194.41933,0.09012
4196.34780,0.08703
4198.27627,0.08577
4200.20474,0.08703
4202.13321,0.08808
4204.06168,0.08216
4205.99015,0.07497
4207.91861,0.07451
4209.84708,0.07731
4211.77555,0.08017
4213.70402,0.08300
4215.63249,0.08201
4217.56096,0.07944
4219.48943,0.08143
4221.41789,0.08269
4223.34636,0.07441
4225.27483,0.05986
4227.20330,0.05111
4229.13177,0.05177
4231.06024,0.05642
4232.98871,0.06361
4234.91718,0.07042
4236.84564,0.06959
4238.77411,0.06517
4240.70258,0.06398
4242.63105,0.06379
4244.55952,0.06432
4246.48799,0.06491
4248.41646,0.06622
4250.34492,0.06787
4252.27339,0.06589
4254.20186,0.06525
4256.13033,0.06866
4258.05880,0.07074
4259.98727,0.06781
4261.91574,0.06092
4263.84421,0.05599
4265.77267,0.05676
4267.70114,0.06002
4269.62961,0.06060
4271.55808,0.05840
4273.48655,0.05617
4275.41502,0.05549
4277.34349,0.05415
4279.27195,0.05075
4281.20042,0.05023
4283.12889,0.05631
4285.05736,0.06274
4286.98583,0.06100
4288.91430,0.05795
4290.84277,0.06230
4292.77124,0.06586
4294.69970,0.06177
4296.62817,0.05844
4298.55664,0.06273
4300.48511,0.06585
4302.41358,0.06199
4304.34205,0.06010
4306.27052,0.06514
4308.19898,0.06773
4310.12745,0.05963
4312.05592,0.04725
4313.98439,0.04355
4315.91286,0.05275
4317.84133,0.06090
4319.76980,0.05431
4321.69827,0.04468
4323.62673,0.04617
4325.55520,0.05261
4327.48367,0.05449
4329.41214,0.05062
4331.34061,0.04798
4333.26908,0.05432
4335.19755,0.06285
4337.12601,0.05911
4339.05448,0.04541
4340.98295,0.04135
4342.91142,0.05302
4344.83989,0.06315
4346.76836,0.06513
4348.69683,0.06890
4350.62530,0.07008
4352.55376,0.06204
4354.48223,0.05300
4356.41070,0.04611
4358.33917,0.04133
4360.26764,0.04181
4362.19611,0.04768
4364.12458,0.05533
4366.05304,0.05684
4367.98151,0.05267
4369.90998,0.04963
4371.83845,0.05079
4373.76692,0.05524
4375.69539,0.05455
4377.62386,0.04776
4379.55232,0.04387
4381.48079,0.04310
4383.40926,0.04156
4385.33773,0.04120
4387.26620,0.04513
4389.19467,0.04749
4391.12314,0.04393
4393.05161,0.04299
4394.98007,0.04266
4396.90854,0.03380
4398.83701,0.02555
4400.76548,0.02655
4402.69395,0.02859
4404.62242,0.02759
4406.55089,0.03034
4408.47935,0.03757
4410.40782,0.04150
4412.33629,0.03862
4414.26476,0.03662
4416.19323,0.03883
4418.12170,0.03830
4420.05017,0.03592
4421.97864,0.03611
4423.90710,0.03538
4425.83557,0.03289
4427.76404,0.03684
4429.69251,0.04459
4431.62098,0.04501
4433.54945,0.04443
4435.47792,0.04399
4437.40638,0.03473
4439.33485,0.02861
4441.26332,0.03476
4443.19179,0.03703
4445.12026,0.02831
4447.04873,0.02600
4448.97720,0.03784
4450.90567,0.04767
4452.83413,0.04513
4454.76260,0.04030
4456.69107,0.03886
4458.61954,0.03344
4460.54801,0.02067
4462.47648,0.00995
4464.40495,0.01385
4466.33341,0.02591
4468.26188,0.03091
4470.19035,0.03129
4472.11882,0.03118
4474.04729,0.02754
4475.97576,0.02753
4477.90423,0.03134
4479.83270,0.02806
4481.76116,0.02162
4483.68963,0.01869
4485.61810,0.01921
4487.54657,0.02242
4489.47504,0.02130
4491.40351,0.01525
4493.33198,0.01118
4495.26044,0.00803
4497.18891,0.00381
4499.11738,0.00119
4501.04585,0.00507
4502.97432,0.01871
4504.90279,0.03509
4506.83126,0.03973
4508.75973,0.02911
4510.68819,0.01991
4512.61666,0.02201
4514.54513,0.02377
4516.47360,0.01767
4518.40207,0.01104
4520.33054,0.01138
4522.25901,0.01600
4524.18747,0.01994
4526.11594,0.02336
4528.04441,0.02384
4529.97288,0.01952
4531.90135,0.01687
4533.82982,0.01974
4535.75829,0.02460
4537.68676,0.02754
4539.61522,0.02585
4541.54369,0.02110
4543.47216,0.01728
4545.40063,0.01574
4547.32910,0.01547
4549.25757,0.01071
4551.18604,0.00241
4553.11450,0.00482
4555.04297,0.01537
4556.97144,0.01278
4558.89991,0.00015
4560.82838,-0.00127
4562.75685,0.00825
4564.68532,0.01230
4566.61378,0.00581
4568.54225,-0.00367
4570.47072,-0.00712
4572.39919,0.00027
4574.32766,0.01146
4576.25613,0.01414
4578.18460,0.00756
4580.11307,0.00498
4582.04153,0.01128
4583.97000,0.01651
4585.89847,0.01633
4587.82694,0.01486
4589.75541,0.01882
4591.68388,0.02579
4593.61235,0.02573
4595.54081,0.01873
4597.46928,0.01582
4599.39775,0.02275
4601.32622,0.02898
4603.25469,0.02437
4605.18316,0.01497
4607.11163,0.01618
4609.04010,0.02566
4610.96856,0.02537
4612.89703,0.01556
4614.82550,0.00607
4616.75397,-0.00249
4618.68244,-0.00466
4620.61091,0.00111
4622.53938,0.00354
4624.46784,-0.00015
4626.39631,-0.00279
4628.32478,0.00054
4630.25325,0.00602
4632.18172,0.00874
4634.11019,0.00955
4636.03866,0.00767
4637.96713,0.00777
4639.89559,0.01228
4641.82406,0.01556
4643.75253,0.01886
4645.68100,0.02483
4647.60947,0.02893
4649.53794,0.02557
4651.46641,0.01748
4653.39487,0.00971
4655.32334,0.00299
4657.25181,-0.00238
4659.18028,-0.01013
4661.10875,-0.02104
4663.03722,-0.02391
4664.96569,-0.00949
4666.89416,0.01242
4668.82262,0.02081
4670.75109,0.01380
4672.67956,0.00860
4674.60803,0.00979
4676.53650,0.00662
4678.46497,-0.00371
4680.39344,-0.00728
4682.32190,-0.00114
4684.25037,0.00160
4686.17884,0.00065
4688.10731,0.00332
4690.03578,0.01285
4691.96425,0.02385
4693.89272,0.02444
4695.82119,0.01970
4697.74965,0.02146
4699.67812,0.02302
4701.60659,0.01736
4703.53506,0.01521
4705.46353,0.01972
4707.39200,0.01366
4709.32047,-0.00797
4711.24893,-0.01984
4713.17740,-0.00833
4715.10587,0.00757
4717.03434,0.01544
4718.96281,0.01788
4720.89128,0.01989
4722.81975,0.02488
4724.74821,0.02803
4726.67668,0.02172
4728.60515,0.01007
4730.53362,0.00484
4732.46209,0.00760
4734.39056,0.01699
4736.31903,0.02733
4738.24750,0.02504
4740.17596,0.01445
4742.10443,0.00769
4744.03290,0.00625
4745.96137,0.01372
4747.88984,0.02245
4749.81831,0.01560
4751.74678,0.00261
4753.67524,-0.00165
4755.60371,-0.00082
4757.53218,0.00480
4759.46065,0.01419
4761.38912,0.01550
4763.31759,0.00605
4765.24606,0.00216
4767.17453,0.00993
4769.10299,0.01678
4771.03146,0.01971
4772.95993,0.02387
4774.88840,0.03069
4776.81687,0.03517
4778.74534,0.03033
4780.67381,0.01794
4782.60227,0.00344
4784.53074,-0.00412
4786.45921,0.00394
4788.38768,0.01738
4790.31615,0.02473
4792.24462,0.02825
4794.17309,0.02479
4796.10156,0.02019
4798.03002,0.02406
4799.95849,0.02543
4801.88696,0.01954
4803.81543,0.01445
4805.74390,0.01426
4807.67237,0.01262
4809.60084,0.00038
4811.52930,-0.01067
4813.45777,-0.00577
4815.38624,0.00149
4817.31471,0.00011
4819.24318,0.00117
4821.17165,0.00128
4823.10012,-0.00922
4825.02859,-0.01591
4826.95705,-0.00772
4828.88552,0.00258
4830.81399,0.01253
4832.74246,0.02479
4834.67093,0.03055
4836.59940,0.03392
4838.52787,0.03677
4840.45633,0.02992
4842.38480,0.01586
4844.31327,0.00556
4846.24174,0.00618
4848.17021,0.01564
4850.09868,0.02616
4852.02715,0.03009
4853.95562,0.02825
4855.88408,0.02319
4857.81255,0.01725
4859.74102,0.01386
4861.66949,0.01216
4863.59796,0.01599
4865.52643,0.02424
4867.45490,0.03134
4869.38336,0.03177
4871.31183,0.02056
4873.24030,0.00876
4875.16877,0.00194
4877.09724,-0.00535
4879.02571,-0.00936
4880.95418,-0.00470
4882.88265,0.00320
4884.81111,0.00186
4886.73958,0.00372
4888.66805,0.01915
4890.59652,0.02118
4892.52499,0.00809
4894.45346,-0.00202
4896.38193,-0.01327
4898.31039,-0.01565
4900.23886,-0.00363
4902.16733,0.00261
4904.09580,-0.00159
4906.02427,-0.00430
4907.95274,-0.00180
4909.88121,0.00156
4911.80967,0.00716
4913.73814,0.01782
4915.66661,0.02306
4917.59508,0.01939
4919.52355,0.01034
4921.45202,-0.00470
4923.38049,-0.01057
4925.30896,0.00308
4927.23742,0.02323
4929.16589,0.03343
4931.09436,0.03139
4933.02283,0.03068
4934.95130,0.03143
4936.87977,0.01734
4938.80824,-0.00305
4940.73670,-0.00237
4942.66517,0.01395
4944.59364,0.02258
4946.52211,0.02376
4948.45058,0.02449
4950.37905,0.02272
4952.30752,0.02106
4954.23599,0.02336
4956.16445,0.02279
4958.09292,0.01327
4960.02139,-0.00068
4961.94986,-0.00647
4963.87833,-0.00024
4965.80680,0.00806
4967.73527,0.00977
4969.66373,0.00810
4971.59220,0.01675
4973.52067,0.03021
4975.44914,0.03411
4977.37761,0.03275
4979.30608,0.02900
4981.23455,0.02182
4983.16302,0.01507
4985.09148,0.01354
4987.01995,0.01882
4988.94842,0.02317
4990.87689,0.02091
4992.80536,0.02474
4994.73383,0.03323
4996.66230,0.03077
4998.59076,0.02665
5000.51923,0.02465
5002.44770,0.01943
5004.37617,0.01605
5006.30464,0.01385
5008.23311,0.01164
5010.16158,0.01351
5012.09005,0.01808
5014.01851,0.02265
5015.94698,0.02859
5017.87545,0.02802
5019.80392,0.01214
5021.73239,-0.00583
5023.66086,-0.00446
5025.58933,0.01521
5027.51779,0.03530
5029.44626,0.03972
5031.37473,0.02234
5033.30320,0.00409
5035.23167,0.00458
5037.16014,0.01128
5039.08861,0.01213
5041.01708,0.01269
5042.94554,0.01992
5044.87401,0.02931
5046.80248,0.03328
5048.73095,0.03180
5050.65942,0.02702
5052.58789,0.02710
5054.51636,0.03624
5056.44482,0.04025
5058.37329,0.03166
5060.30176,0.02161
5062.23023,0.02370
5064.15870,0.03467
5066.08717,0.03674
5068.01564,0.02661
5069.94410,0.01460
5071.87257,0.01008
5073.80104,0.01304
5075.72951,0.01486
5077.65798,0.01911
5079.58645,0.02753
5081.51492,0.02983
5083.44339,0.02812
5085.37185,0.03164
5087.30032,0.03780
5089.22879,0.04013
5091.15726,0.04091
5093.08573,0.03845
5095.01420,0.03247
5096.94267,0.03427
5098.87113,0.03839
5100.79960,0.03154
5102.72807,0.02042
5104.65654,0.02020
5106.58501,0.03149
5108.51348,0.03126
5110.44195,0.01153
5112.37042,-0.00571
5114.29888,-0.00387
5116.22735,0.00786
5118.15582,0.01662
5120.08429,0.02655
5122.01276,0.03229
5123.94123,0.02767
5125.86970,0.03010
5127.79816,0.04770
5129.72663,0.05936
5131.65510,0.05052
5133.58357,0.03584
5135.51204,0.02563
5137.44051,0.00737
5139.36898,-0.01595
5141.29745,-0.01110
5143.22591,0.01397
5145.15438,0.01164
5147.08285,0.00423
5149.01132,0.02554
5150.93979,0.04323
5152.86826,0.04017
5154.79673,0.03206
5156.72519,0.03286
5158.65366,0.03979
5160.58213,0.04156
5162.51060,0.03942
5164.43907,0.03288
5166.36754,0.03122
5168.29601,0.04324
5170.22448,0.05036
5172.15294,0.04578
5174.08141,0.04445
5176.00988,0.04905
5177.93835,0.04689
5179.86682,0.02965
5181.79529,0.01940
5183.72376,0.03210
5185.65222,0.04307
5187.58069,0.03673
5189.50916,0.02446
5191.43763,0.02440
5193.36610,0.04143
5195.29457,0.04738
5197.22304,0.02871
5199.15151,0.00715
5201.07997,0.00715
5203.00844,0.03351
5204.93691,0.06411
5206.86538,0.07179
5208.79385,0.05102
5210.72232,0.02536
5212.65079,0.01664
5214.57925,0.01528
5216.50772,0.01325
5218.43619,0.02308
5220.36466,0.03617
5222.29313,0.04398
5224.22160,0.06097
5226.15007,0.06792
5228.07854,0.04251
5230.00700,0.02203
5231.93547,0.02594
5233.86394,0.03303
5235.79241,0.03426
5237.72088,0.03868
5239.64935,0.05359
5241.57782,0.06115
5243.50628,0.04451
5245.43475,0.02669
5247.36322,0.02833
5249.29169,0.04396
5251.22016,0.06069
5253.14863,0.06894
5255.07710,0.07468
5257.00556,0.08801
5258.93403,0.10272
5260.86250,0.10687
5262.79097,0.10002
5264.71944,0.08473
5266.64791,0.06479
5268.57638,0.05282
5270.50485,0.05575
5272.43331,0.05736
5274.36178,0.04029
5276.29025,0.02336
5278.21872,0.03114
5280.14719,0.04467
5282.07566,0.04468
5284.00413,0.05405
5285.93259,0.07318
5287.86106,0.06873
5289.78953,0.04555
5291.71800,0.03238
5293.64647,0.03353
5295.57494,0.04190
5297.50341,0.05600
5299.43188,0.07308
5301.36034,0.08234
5303.28881,0.07122
5305.21728,0.04854
5307.14575,0.04047
5309.07422,0.05830
5311.00269,0.07639
5312.93116,0.07188
5314.85962,0.05738
5316.78809,0.04635
5318.71656,0.03800
5320.64503,0.03926
5322.57350,0.05475
5324.50197,0.07368
5326.43044,0.07544
5328.35891,0.06045
5330.28737,0.05633
5332.21584,0.06825
5334.14431,0.07659
5336.07278,0.06711
5338.00125,0.04763
5339.92972,0.04409
5341.85819,0.06245
5343.78665,0.08372
5345.71512,0.08582
5347.64359,0.07677
5349.57206,0.07663
5351.50053,0.07235
5353.42900,0.04366
5355.35747,0.01942
5357.28594,0.03242
5359.21440,0.06482
5361.14287,0.07853
5363.07134,0.04921
5364.99981,0.00500
5366.92828,-0.00436
5368.85675,0.02511
5370.78522,0.06535
5372.71368,0.09461
5374.64215,0.09562
5376.57062,0.06359
5378.49909,0.04021
5380.42756,0.04170
5382.35603,0.05545
5384.28450,0.07795
5386.21297,0.08657
5388.14143,0.06978
5390.06990,0.05232
5391.99837,0.05547
5393.92684,0.07166
5395.85531,0.08005
5397.78378,0.07953
5399.71225,0.06732
5401.64071,0.05757
5403.56918,0.06333
5405.49765,0.06000
5407.42612,0.04377
5409.35459,0.03468
5411.28306,0.03372
5413.21153,0.04414
5415.13999,0.06293
5417.06846,0.07321
5418.99693,0.07104
5420.92540,0.05489
5422.85387,0.03714
5424.78234,0.03454
5426.71081,0.03794
5428.63928,0.03403
5430.56774,0.02822
5432.49621,0.03276
5434.42468,0.04353
5436.35315,0.04465
5438.28162,0.04125
5440.21009,0.04293
5442.13856,0.03817
5444.06702,0.02285
5445.99549,0.02409
5447.92396,0.04518
5449.85243,0.04941
5451.78090,0.04916
5453.70937,0.07577
5455.63784,0.10164
5457.56631,0.08331
5459.49477,0.04612
5461.42324,0.03757
5463.35171,0.05677
5465.28018,0.07331
5467.20865,0.06964
5469.13712,0.06641
5471.06559,0.06544
5472.99405,0.04541
5474.92252,0.03519
5476.85099,0.04929
5478.77946,0.05294
5480.70793,0.05767
5482.63640,0.08093
5484.56487,0.08990
5486.49334,0.07526
5488.42180,0.06954
5490.35027,0.06819
5492.27874,0.06116
5494.20721,0.07059
5496.13568,0.08106
5498.06415,0.06844
5499.99262,0.05506
5501.92108,0.05607
5503.84955,0.05974
5505.77802,0.06878
5507.70649,0.07754
5509.63496,0.08237
5511.56343,0.08185
5513.49190,0.06348
5515.42037,0.05666
5517.34883,0.08375
5519.27730,0.10838
5521.20577,0.10579
5523.13424,0.08717
5525.06271,0.07956
5526.99118,0.09486
5528.91965,0.11123
5530.84811,0.10879
5532.77658,0.09139
5534.70505,0.07608
5536.63352,0.07311
5538.56199,0.07181
5540.49046,0.06308
5542.41893,0.05782
5544.34740,0.06274
5546.27586,0.07220
5548.20433,0.08430
5550.13280,0.09870
5552.06127,0.10344
5553.98974,0.07440
5555.91821,0.03917
5557.84668,0.04644
5559.77514,0.06906
5561.70361,0.09229
5563.63208,0.11247
5565.56055,0.08183
5567.48902,0.02668
5569.41749,0.02405
5571.34596,0.06004
5573.27443,0.07429
5575.20289,0.07046
5577.13136,0.08370
5579.05983,0.09321
5580.98830,0.08332
5582.91677,0.08328
5584.84524,0.08394
5586.77371,0.06673
5588.70217,0.05609
5590.63064,0.06069
5592.55911,0.07061
5594.48758,0.08506
5596.41605,0.09201
5598.34452,0.08361
5600.27299,0.07510
5602.20145,0.08021
5604.12992,0.09284
5606.05839,0.09550
5607.98686,0.08925
5609.91533,0.08581
5611.84380,0.08904
5613.77227,0.10527
5615.70074,0.10898
5617.62920,0.07808
5619.55767,0.05304
5621.48614,0.06539
5623.41461,0.08114
5625.34308,0.07251
5627.27155,0.07872
5629.20002,0.11581
5631.12848,0.13224
5633.05695,0.11280
5634.98542,0.08930
5636.91389,0.07599
5638.84236,0.07028
5640.77083,0.07729
5642.69930,0.08329
5644.62777,0.07913
5646.55623,0.07891
5648.48470,0.07418
5650.41317,0.05727
5652.34164,0.05565
5654.27011,0.07510
5656.19858,0.08760
5658.12705,0.07617
5660.05551,0.04563
5661.98398,0.02500
5663.91245,0.03051
5665.84092,0.04729
5667.76939,0.07076
5669.69786,0.09262
5671.62633,0.10864
5673.55480,0.13067
5675.48326,0.14276
5677.41173,0.13357
5679.34020,0.11857
5681.26867,0.09593
5683.19714,0.06769
5685.12561,0.04667
5687.05408,0.03533
5688.98254,0.04224
5690.91101,0.06165
5692.83948,0.06543
5694.76795,0.06568
5696.69642,0.08323
5698.62489,0.08172
5700.55336,0.05496
5702.48183,0.04981
5704.41029,0.06253
5706.33876,0.07193
5708.26723,0.08103
5710.19570,0.07374
5712.12417,0.05051
5714.05264,0.04502
5715.98111,0.05549
5717.90957,0.06589
5719.83804,0.08680
5721.76651,0.10398
5723.69498,0.10068
5725.62345,0.10766
5727.55192,0.12211
5729.48039,0.10623
5731.40886,0.08394
5733.33732,0.08657
5735.26579,0.10255
5737.19426,0.11165
5739.12273,0.11184
5741.05120,0.09974
5742.97967,0.06909
5744.90814,0.04709
5746.83660,0.05757
5748.76507,0.07075
5750.69354,0.05634
5752.62201,0.04756
5754.55048,0.06002
5756.47895,0.05879
5758.40742,0.04746
5760.33588,0.06269
5762.26435,0.11137
5764.19282,0.13450
5766.12129,0.09905
5768.04976,0.08211
5769.97823,0.11798
5771.90670,0.14772
5773.83517,0.15106
5775.76363,0.12769
5777.69210,0.07335
5779.62057,0.04721
5781.54904,0.07389
5783.47751,0.09583
5785.40598,0.08730
5787.33445,0.07133
5789.26291,0.07284
5791.19138,0.09349
5793.11985,0.11042
5795.04832,0.10818
5796.97679,0.09659
5798.90526,0.08582
5800.83373,0.07239
5802.76220,0.06846
5804.69066,0.08407
5806.61913,0.08806
5808.54760,0.06912
5810.47607,0.05575
5812.40454,0.06466
5814.33301,0.08131
5816.26148,0.06828
5818.18994,0.04634
5820.11841,0.08120
5822.04688,0.12890
5823.97535,0.10826
5825.90382,0.05595
5827.83229,0.04123
5829.76076,0.08332
5831.68923,0.13577
5833.61769,0.13725
5835.54616,0.10368
5837.47463,0.08555
5839.40310,0.07858
5841.33157,0.06260
5843.26004,0.05895
5845.18851,0.08204
5847.11697,0.09367
5849.04544,0.08626
5850.97391,0.08184
5852.90238,0.08137
5854.83085,0.09384
5856.75932,0.11262
5858.68779,0.11981
5860.61626,0.10134
5862.54472,0.05805
5864.47319,0.03196
5866.40166,0.04860
5868.33013,0.08518
5870.25860,0.11614
5872.18707,0.13564
5874.11554,0.14492
5876.04400,0.14167
5877.97247,0.13210
5879.90094,0.13118
5881.82941,0.13717
5883.75788,0.13135
5885.68635,0.10083
5887.61482,0.06891
5889.54329,0.07087
5891.47175,0.08230
5893.40022,0.07882
5895.32869,0.07644
5897.25716,0.07367
5899.18563,0.06694
5901.11410,0.06489
5903.04257,0.05914
5904.97103,0.04066
5906.89950,0.02781
5908.82797,0.04762
5910.75644,0.10110
5912.68491,0.15130
5914.61338,0.15592
5916.54185,0.12639
5918.47032,0.11424
5920.39878,0.13870
5922.32725,0.16629
5924.25572,0.15511
5926.18419,0.10688
5928.11266,0.07836
5930.04113,0.09526
5931.96960,0.10662
5933.89806,0.08349
5935.82653,0.06533
5937.75500,0.06261
5939.68347,0.05112
5941.61194,0.05109
5943.54041,0.07083
5945.46888,0.09168
5947.39734,0.11548
5949.32581,0.13659
5951.25428,0.14306
5953.18275,0.12025
5955.11122,0.08532
5957.03969,0.07738
5958.96816,0.07006
5960.89663,0.03661
5962.82509,0.03349
5964.75356,0.07598
5966.68203,0.09646
5968.61050,0.07705
5970.53897,0.06709
5972.46744,0.08080
5974.39591,0.09239
5976.32437,0.08218
5978.25284,0.06910
5980.18131,0.07233
5982.10978,0.08551
5984.03825,0.11171
5985.96672,0.13062
5987.89519,0.11975
5989.82366,0.13473
5991.75212,0.17622
5993.68059,0.16477
5995.60906,0.11395
5997.53753,0.09599
5999.46600,0.11230
6001.39447,0.12332
6003.32294,0.11062
6005.25140,0.10292
6007.17987,0.12291
6009.10834,0.13460
6011.03681,0.10797
6012.96528,0.06077
6014.89375,0.03414
6016.82222,0.05805
6018.75069,0.09138
6020.67915,0.08179
6022.60762,0.05427
6024.53609,0.05128
6026.46456,0.07694
6028.39303,0.08790
6030.32150,0.07674
6032.24997,0.07549
6034.17843,0.06631
6036.10690,0.06277
6038.03537,0.11829
6039.96384,0.18317
6041.89231,0.18276
6043.82078,0.11641
6045.74925,0.02325
6047.67772,-0.02830
6049.60618,-0.00061
6051.53465,0.04377
6053.46312,0.05716
6055.39159,0.06159
6057.32006,0.06572
6059.24853,0.05295
6061.17700,0.04319
6063.10546,0.04120
6065.03393,0.03701
6066.96240,0.03834
6068.89087,0.03029
6070.81934,0.02055
6072.74781,0.02295
6074.67628,0.02891
6076.60475,0.04112
6078.53321,0.05777
6080.46168,0.06695
6082.39015,0.06847
6084.31862,0.08795
6086.24709,0.12809
6088.17556,0.13199
6090.10403,0.08937
6092.03249,0.05371
6093.96096,0.05588
6095.88943,0.08420
6097.81790,0.10628
6099.74637,0.11871
6101.67484,0.13171
6103.60331,0.14503
6105.53177,0.16249
6107.46024,0.16894
6109.38871,0.16309
6111.31718,0.15513
6113.24565,0.14243
6115.17412,0.13119
6117.10259,0.10681
6119.03106,0.07496
6120.95952,0.06177
6122.88799,0.08755
6124.81646,0.16155
6126.74493,0.18629
6128.67340,0.11505
6130.60187,0.08443
6132.53034,0.11315
6134.45880,0.08931
6136.38727,0.01241
6138.31574,-0.01506
6140.24421,0.03921
6142.17268,0.06064
6144.10115,0.01328
6146.02962,0.02142
6147.95809,0.07098
6149.88655,0.07791
6151.81502,0.08757
6153.74349,0.11220
6155.67196,0.10299
6157.60043,0.08316
6159.52890,0.06597
6161.45737,0.04482
6163.38583,0.02739
6165.31430,0.02626
6167.24277,0.04401
6169.17124,0.05317
6171.09971,0.02591
6173.02818,-0.01732
6174.95665,-0.01646
6176.88512,0.04224
6178.81358,0.09389
6180.74205,0.11135
6182.67052,0.13849
6184.59899,0.15602
6186.52746,0.12785
6188.45593,0.09380
6190.38440,0.08852
6192.31286,0.09622
6194.24133,0.10845
6196.16980,0.13001
6198.09827,0.13673
6200.02674,0.11156
6201.95521,0.08522
6203.88368,0.09255
6205.81215,0.13211
6207.74061,0.15796
6209.66908,0.15128
6211.59755,0.14136
6213.52602,0.12566
6215.45449,0.07650
6217.38296,0.03263
6219.31143,0.02488
6221.23989,0.01337
6223.16836,0.00573
6225.09683,0.04360
6227.02530,0.09811
6228.95377,0.12647
6230.88224,0.13936
6232.81071,0.15092
6234.73918,0.15863
6236.66764,0.15892
6238.59611,0.13228
6240.52458,0.08886
6242.45305,0.06787
6244.38152,0.06657
6246.30999,0.06487
6248.23846,0.03659
6250.16692,-0.03898
6252.09539,-0.09798
6254.02386,-0.08662
6255.95233,-0.02632
6257.88080,0.06259
6259.80927,0.13129
6261.73774,0.12109
6263.66621,0.04778
6265.59467,0.02343
6267.52314,0.08311
6269.45161,0.11237
6271.38008,0.09548
6273.30855,0.08806
6275.23702,0.07693
6277.16549,0.04120
6279.09395,0.02062
6281.02242,0.01921
6282.95089,0.00938
6284.87936,0.00849
6286.80783,0.03726
6288.73630,0.08974
6290.66477,0.13512
6292.59323,0.14850
6294.52170,0.13682
6296.45017,0.09874
6298.37864,0.04571
6300.30711,0.01570
6302.23558,0.04008
6304.16405,0.06047
6306.09252,-0.00986
6308.02098,-0.10655
6309.94945,-0.08735
6311.87792,0.06403
6313.80639,0.23733
6315.73486,0.26740
6317.66333,0.11646
6319.59180,-0.00784
6321.52026,0.01961
6323.44873,0.10069
6325.37720,0.16251
6327.30567,0.17301
6329.23414,0.11741
6331.16261,0.06962
6333.09108,0.04272
6335.01955,0.00950
6336.94801,0.02617
6338.87648,0.07731
6340.80495,0.09005
6342.73342,0.08110
6344.66189,0.10239
6346.59036,0.14074
6348.51883,0.14871
6350.44729,0.13536
6352.37576,0.10825
6354.30423,0.06699
6356.23270,0.04630
6358.16117,0.07979
6360.08964,0.14319
6362.01811,0.12552
6363.94658,0.00786
6365.87504,-0.03051
6367.80351,0.06216
6369.73198,0.09338
6371.66045,0.02366
6373.58892,-0.02351
6375.51739,-0.00646
6377.44586,0.03991
6379.37432,0.10312
6381.30279,0.13558
6383.23126,0.08611
6385.15973,0.02364
6387.08820,-0.00640
6389.01667,-0.02156
6390.94514,0.00622
6392.87361,0.05801
6394.80207,0.07406
6396.73054,0.06750
6398.65901,0.05091
6400.58748,0.02169
6402.51595,0.04390
6404.44442,0.13608
6406.37289,0.17827
6408.30135,0.08825
6410.22982,0.00060
6412.15829,0.04994
6414.08676,0.15577
6416.01523,0.21458
6417.94370,0.18450
6419.87217,0.08533
6421.80064,0.02894
6423.72910,0.01481
6425.65757,-0.00252
6427.58604,0.04596
6429.51451,0.14607
6431.44298,0.17472
6433.37145,0.11642
6435.29992,0.04701
6437.22838,0.02960
6439.15685,0.04033
6441.08532,0.04493
6443.01379,0.10210
6444.94226,0.19151
6446.87073,0.22092
6448.79920,0.19281
6450.72766,0.14644
6452.65613,0.13455
6454.58460,0.16829
6456.51307,0.15423
6458.44154,0.07489
6460.37001,0.03200
6462.29848,0.04932
6464.22695,0.07865
6466.15541,0.10307
6468.08388,0.12603
6470.01235,0.12158
6471.94082,0.11981
6473.86929,0.14251
6475.79776,0.13283
6477.72623,0.07954
6479.65469,-0.01904
6481.58316,-0.11007
6483.51163,-0.07058
6485.44010,0.04498
6487.36857,0.08960
6489.29704,0.05735
6491.22551,0.04439
6493.15398,0.07566
6495.08244,0.09806
6497.01091,0.08480
6498.93938,0.04502
6500.86785,0.00869
6502.79632,0.00931
6504.72479,0.03288
6506.65326,0.02999
6508.58172,-0.00165
6510.51019,0.01731
6512.43866,0.08530
6514.36713,0.11624
6516.29560,0.11878
6518.22407,0.10142
6520.15254,0.07514
6522.08101,0.05927
6524.00947,0.01626
6525.93794,-0.01963
6527.86641,0.00371
6529.79488,0.00889
6531.72335,-0.02717
6533.65182,-0.04323
6535.58029,-0.01420
6537.50875,0.04199
6539.43722,0.08094
6541.36569,0.12223
6543.29416,0.18497
6545.22263,0.20038
6547.15110,0.16142
6549.07957,0.08625
6551.00804,-0.01469
6552.93650,-0.07498
6554.86497,-0.03602
6556.79344,0.05290
6558.72191,0.09994
6560.65038,0.10469
6562.57885,0.09888
6564.50732,0.08865
6566.43578,0.07822
6568.36425,0.07477
6570.29272,0.08105
6572.22119,0.06469
6574.14966,0.02374
6576.07813,0.02867
6578.00660,0.06657
6579.93507,0.06320
6581.86353,0.07322
6583.79200,0.12286
6585.72047,0.12813
6587.64894,0.10587
6589.57741,0.11779
6591.50588,0.13236
6593.43435,0.11778
6595.36281,0.11540
6597.29128,0.09389
6599.21975,0.00413
6601.14822,-0.10212
6603.07669,-0.12485
6605.00516,-0.02767
6606.93363,0.08280
6608.86210,0.07828
6610.79056,0.02396
6612.71903,0.01727
6614.64750,0.05908
6616.57597,0.12804
6618.50444,0.14587
6620.43291,0.10909
6622.36138,0.07742
6624.28984,0.04979
6626.21831,0.05794
6628.14678,0.13724
6630.07525,0.20945
6632.00372,0.19768
6633.93219,0.19996
6635.86066,0.26129
6637.78912,0.23853
6639.71759,0.11326
6641.64606,0.00158
6643.57453,-0.01792
6645.50300,0.03086
6647.43147,0.05902
6649.35994,0.06347
6651.28841,0.03787
6653.21687,-0.01535
6655.14534,0.01358
6657.07381,0.14286
6659.00228,0.22395
6660.93075,0.22617
6662.85922,0.19467
6664.78769,0.13273
6666.71615,0.08209
6668.64462,0.09955
6670.57309,0.16799
6672.50156,0.23925
6674.43003,0.27172
6676.35850,0.20741
6678.28697,0.08956
6680.21544,0.05589
6682.14390,0.11580
6684.07237,0.18014
6686.00084,0.18772
6687.92931,0.13677
6689.85778,0.09489
6691.78625,0.08884
6693.71472,0.08744
6695.64318,0.12015
6697.57165,0.17846
6699.50012,0.16658
6701.42859,0.08551
6703.35706,0.00102
6705.28553,-0.06803
6707.21400,-0.08631
6709.14247,-0.02083
6711.07093,0.04751
6712.99940,0.04867
6714.92787,0.02969
6716.85634,0.04932
6718.78481,0.09195
6720.71328,0.10742
6722.64175,0.04827
6724.57021,-0.04437
6726.49868,-0.06475
6728.42715,-0.03597
6730.35562,-0.03467
6732.28409,-0.04196
6734.21256,-0.00999
6736.14103,0.07380
6738.06950,0.12064
6739.99796,0.07986
6741.92643,0.06608
6743.85490,0.12014
6745.78337,0.14391
6747.71184,0.10366
6749.64031,0.05247
6751.56878,0.00044
6753.49724,-0.07460
6755.42571,-0.08829
6757.35418,-0.03963
6759.28265,-0.02248
6761.21112,0.00596
6763.13959,0.10134
6765.06806,0.17288
6766.99653,0.14442
6768.92499,0.05745
6770.85346,0.03905
6772.78193,0.11914
6774.71040,0.20210
6776.63887,0.22289
6778.56734,0.15571
6780.49581,0.04059
6782.42427,-0.02514
6784.35274,0.01094
6786.28121,0.10021
6788.20968,0.12835
6790.13815,0.07234
6792.06662,0.02012
6793.99509,0.02250
6795.92355,0.06687
6797.85202,0.13248
6799.78049,0.17172
6801.70896,0.14350
6803.63743,0.10302
6805.56590,0.08711
6807.49437,0.06455
6809.42284,0.06008
6811.35130,0.08875
6813.27977,0.09229
6815.20824,0.03607
6817.13671,0.00555
6819.06518,0.07750
6820.99365,0.18533
6822.92212,0.21392
6824.85058,0.16130
6826.77905,0.11683
6828.70752,0.09694
6830.63599,0.09739
6832.56446,0.10151
6834.49293,0.09299
6836.42140,0.07190
6838.34987,0.04334
6840.27833,0.03477
6842.20680,0.07378
6844.13527,0.13284
6846.06374,0.19379
6847.99221,0.26373
6849.92068,0.24692
6851.84915,0.12606
6853.77761,0.02681
6855.70608,-0.03506
6857.63455,-0.08979
6859.56302,-0.07529
6861.49149,0.04739
6863.41996,0.19138
6865.34843,0.23602
6867.27690,0.17140
6869.20536,0.11893
6871.13383,0.14003
6873.06230,0.17690
6874.99077,0.15699
6876.91924,0.10009
6878.84771,0.08455
6880.77618,0.10635
6882.70464,0.10006
6884.63311,0.10662
6886.56158,0.12934
6888.49005,0.07212
6890.41852,-0.01827
6892.34699,-0.01299
6894.27546,0.04780
6896.20393,0.07567
6898.13239,0.04680
6900.06086,0.02703
6901.98933,0.06323
6903.91780,0.10894
6905.84627,0.16059
6907.77474,0.23932
6909.70321,0.28759
6911.63167,0.28123
6913.56014,0.25252
6915.48861,0.22744
6917.41708,0.21631
6919.34555,0.14593
6921.27402,-0.00306
6923.20249,-0.02563
6925.13096,0.10753
6927.05942,0.19916
6928.98789,0.17659
6930.91636,0.11292
6932.84483,0.01147
6934.77330,-0.08698
6936.70177,-0.07058
6938.63024,0.00507
6940.55870,-0.00838
6942.48717,0.00301
6944.41564,0.13474
6946.34411,0.22627
6948.27258,0.19557
6950.20105,0.12691
6952.12952,0.08930
6954.05799,0.06438
6955.98645,0.06047
6957.91492,0.12072
6959.84339,0.15595
6961.77186,0.10553
6963.70033,0.02106
6965.62880,-0.06715
6967.55727,-0.11107
6969.48573,-0.08941
6971.41420,-0.08996
6973.34267,-0.15095
6975.27114,-0.15110
6977.19961,-0.01121
6979.12808,0.12297
6981.05655,0.15086
6982.98501,0.11462
6984.91348,0.07708
6986.84195,0.07742
6988.77042,0.08825
6990.69889,0.04049
6992.62736,-0.05128
6994.55583,-0.08046
6996.48430,0.00163
6998.41276,0.07013
7000.34123,0.04105
7002.26970,-0.01404
7004.19817,-0.03059
7006.12664,0.04724
7008.05511,0.14607
7009.98358,0.08363
7011.91204,-0.06719
7013.84051,-0.08719
7015.76898,0.04914
7017.69745,0.14745
7019.62592,0.10100
7021.55439,-0.00151
7023.48286,-0.02122
7025.41133,0.03508
7027.33979,0.08576
7029.26826,0.09168
7031.19673,0.03233
7033.12520,-0.01623
7035.05367,0.00849
7036.98214,0.02383
7038.91061,0.00874
7040.83907,0.01359
7042.76754,0.03273
7044.69601,0.04731
7046.62448,0.04436
7048.55295,-0.00115
7050.48142,-0.04312
7052.40989,0.01545
7054.33836,0.16951
7056.26682,0.26582
7058.19529,0.21987
7060.12376,0.20571
7062.05223,0.28354
7063.98070,0.31877
7065.90917,0.27893
7067.83764,0.23369
7069.76610,0.21730
7071.69457,0.18168
7073.62304,0.15411
7075.55151,0.17694
7077.47998,0.13929
7079.40845,0.01120
7081.33692,-0.04762
7083.26539,0.05647
7085.19385,0.16627
7087.12232,0.15345
7089.05079,0.07338
7090.97926,0.05666
7092.90773,0.02767
7094.83620,-0.06976
7096.76467,-0.14500
7098.69313,-0.10716
7100.62160,-0.03202
7102.55007,-0.03380
7104.47854,-0.04413
7106.40701,-0.07592
7108.33548,-0.12533
7110.26395,-0.04629
7112.19242,0.11638
7114.12088,0.23268
7116.04935,0.23626
7117.97782,0.07959
7119.90629,-0.03156
7121.83476,0.04279
7123.76323,0.09303
7125.69170,0.05429
7127.62016,0.07929
7129.54863,0.16637
7131.47710,0.22310
7133.40557,0.19829
7135.33404,0.04526
7137.26251,-0.12402
7139.19098,-0.12538
7141.11944,-0.01797
7143.04791,0.04973
7144.97638,0.11752
7146.90485,0.15458
7148.83332,0.10332
7150.76179,0.09716
7152.69026,0.18481
7154.61873,0.18185
7156.54719,0.04655
7158.47566,-0.05183
7160.40413,-0.10755
7162.33260,-0.14135
7164.26107,-0.07286
7166.18954,0.09461
7168.11801,0.16907
7170.04647,0.07502
7171.97494,-0.10148
7173.90341,-0.19291
7175.83188,-0.13196
7177.76035,-0.04297
7179.68882,-0.06005
7181.61729,-0.12994
7183.54576,-0.08187
7185.47422,0.10034
7187.40269,0.20433
7189.33116,0.14011
7191.25963,0.02390
7193.18810,-0.04427
7195.11657,-0.15134
7197.04504,-0.19812
7198.97350,-0.09124
7200.90197,0.00136
7202.83044,0.06107
7204.75891,0.14600
7206.68738,0.09630
7208.61585,-0.08039
7210.54432,-0.21730
7212.47279,-0.17977
7214.40125,-0.02935
7216.32972,0.06106
7218.25819,0.13032
7220.18666,0.21416
7222.11513,0.18009
7224.04360,0.06158
7225.97207,0.01259
7227.90053,0.10523
7229.82900,0.22852
7231.75747,0.23705
7233.68594,0.11260
7235.61441,-0.01256
7237.54288,-0.03581
7239.47135,0.00467
7241.39982,-0.05161
7243.32828,-0.18100
7245.25675,-0.14299
7247.18522,-0.02486
7249.11369,0.00529
7251.04216,0.02069
7252.97063,0.09657
7254.89910,0.13608
7256.82756,0.13426
7258.75603,0.12949
7260.68450,0.10811
7262.61297,0.00112
7264.54144,-0.17294
7266.46991,-0.18319
7268.39838,-0.03314
7270.32685,0.10755
7272.25531,0.15022
7274.18378,0.07278
7276.11225,0.00583
7278.04072,0.04548
7279.96919,0.06939
7281.89766,-0.01610
7283.82613,-0.01971
7285.75459,0.06699
7287.68306,0.18554
7289.61153,0.32063
7291.54000,0.35338
7293.46847,0.26774
7295.39694,0.20570
7297.32541,0.23289
7299.25387,0.25182
7301.18234,0.09473
7303.11081,-0.12596
7305.03928,-0.17031
7306.96775,-0.12969
7308.89622,-0.08186
7310.82469,0.07127
7312.75316,0.19938
7314.68162,0.24009
7316.61009,0.34354
7318.53856,0.39976
7320.46703,0.22226
7322.39550,-0.01071
7324.32397,-0.08610
7326.25244,-0.00256
7328.18090,0.11775
7330.10937,0.08679
7332.03784,-0.03361
7333.96631,-0.03331
7335.89478,0.08025
7337.82325,0.32036
7339.75172,0.54131
7341.68019,0.29828
7343.60865,0.06067
7345.53712,0.22577
7347.46559,0.56810
7349.39406,0.65061
7351.32253,0.38246
7353.25100,0.04540
7355.17947,-0.09401
7357.10793,0.05696
7359.03640,0.25605
7360.96487,0.09137
7362.89334,-0.19885
7364.82181,-0.28359
7366.75028,-0.20673
7368.67875,-0.06401
7370.60722,0.08612
7372.53568,0.24075
7374.46415,0.36086
7376.39262,0.24082
7378.32109,0.06632
7380.24956,-0.00031
7382.17803,-0.01772
7384.10650,0.06561
7386.03496,0.24091
7387.96343,0.35413
7389.89190,0.38748
7391.82037,0.33505
7393.74884,0.13122
7395.67731,-0.07926
7397.60578,-0.12123
7399.53425,-0.06249
7401.46271,0.05328
7403.39118,0.16023
7405.31965,0.10431
7407.24812,-0.00722
7409.17659,-0.04272
7411.10506,-0.00737
7413.03353,0.03623
7414.96199,0.03643
7416.89046,0.07897
7418.81893,0.22370
7420.74740,0.21338
7422.67587,0.02969
7424.60434,-0.08266
7426.53281,-0.11700
7428.46128,-0.15198
7430.38974,-0.11366
7432.31821,0.09039
7434.24668,0.30589
7436.17515,0.32231
7438.10362,0.17106
7440.03209,0.05240
7441.96056,0.00524
7443.88902,-0.05045
7445.81749,-0.10448
7447.74596,-0.14753
7449.67443,-0.19205
7451.60290,-0.13204
7453.53137,0.07392
7455.45984,0.23927
7457.38831,0.26022
7459.31677,0.11822
7461.24524,-0.05317
7463.17371,-0.12483
7465.10218,-0.10532
7467.03065,0.06198
7468.95912,0.26668
7470.88759,0.37015
7472.81605,0.35870
7474.74452,0.29857
7476.67299,0.23899
7478.60146,0.19938
7480.52993,0.20438
7482.45840,0.14725
7484.38687,-0.06197
7486.31533,-0.18979
7488.24380,-0.07299
7490.17227,0.09818
7492.10074,0.18050
7494.02921,0.22734
7495.95768,0.29921
7497.88615,0.41741
