399.19301,0.71456
401.12148,0.16794
403.04995,0.28853
404.97842,0.19085
406.90689,-0.02271
408.83536,-0.11603
410.76382,-0.01491
412.69229,0.16138
414.62076,0.27332
416.54923,0.28607
418.47770,0.19802
420.40617,0.13870
422.33464,0.13542
424.26311,0.10796
426.19157,0.08165
428.12004,0.06684
430.04851,0.11370
431.97698,0.17778
433.90545,0.17036
435.83392,0.16452
437.76239,0.15842
439.69085,0.14078
441.61932,0.10095
443.54779,0.03917
445.47626,0.06567
447.40473,0.13506
449.33320,0.11361
451.26167,0.07770
453.19013,0.08699
455.11860,0.07513
457.04707,0.06206
458.97554,0.10851
460.90401,0.15837
462.83248,0.11955
464.76095,0.02237
466.68942,0.03276
468.61788,0.14265
470.54635,0.20272
472.47482,0.19360
474.40329,0.19381
476.33176,0.19363
478.26023,0.18261
480.18870,0.18374
482.11716,0.18445
484.04563,0.14532
485.97410,0.07767
487.90257,0.04496
489.83104,0.06077
491.75951,0.08697
493.68798,0.11924
495.61645,0.17412
497.54491,0.19707
499.47338,0.14789
501.40185,0.07864
503.33032,0.04641
505.25879,0.04381
507.18726,0.04816
509.11573,0.07716
511.04419,0.11942
512.97266,0.13390
514.90113,0.10747
516.82960,0.05427
518.75807,0.03078
520.68654,0.07849
522.61501,0.13252
524.54348,0.12421
526.47194,0.10963
528.40041,0.13144
530.32888,0.14033
532.25735,0.13046
534.18582,0.11542
536.11429,0.12305
538.04276,0.17355
539.97122,0.19875
541.89969,0.17119
543.82816,0.13893
545.75663,0.11165
547.68510,0.08637
549.61357,0.12541
551.54204,0.28463
553.47051,0.41866
555.39897,0.35278
557.32744,0.21051
559.25591,0.16264
561.18438,0.16257
563.11285,0.15021
565.04132,0.11326
566.96979,0.06790
568.89825,0.06050
570.82672,0.08344
572.75519,0.09919
574.68366,0.10898
576.61213,0.12749
578.54060,0.14620
580.46907,0.14459
582.39754,0.11155
584.32600,0.07923
586.25447,0.09444
588.18294,0.14700
590.11141,0.18026
592.03988,0.17676
593.96835,0.17248
595.89682,0.17047
597.82528,0.13944
599.75375,0.09269
601.68222,0.06644
603.61069,0.06673
605.53916,0.08869
607.46763,0.11999
609.39610,0.13570
611.32456,0.13135
613.25303,0.12033
615.18150,0.10988
617.10997,0.10497
619.03844,0.10916
620.96691,0.11700
622.89538,0.12721
624.82385,0.13086
626.75231,0.11357
628.68078,0.09313
630.60925,0.09364
632.53772,0.10711
634.46619,0.11616
636.39466,0.11620
638.32313,0.11625
640.25159,0.12068
642.18006,0.12096
644.10853,0.11885
646.03700,0.12079
647.96547,0.12405
649.89394,0.12693
651.82241,0.12327
653.75088,0.11811
655.67934,0.12562
657.60781,0.13757
659.53628,0.14395
661.46475,0.14285
663.39322,0.13122
665.32169,0.10710
667.25016,0.07814
669.17862,0.09178
671.10709,0.12739
673.03556,0.14154
674.96403,0.14184
676.89250,0.12749
678.82097,0.10854
680.74944,0.10957
682.67791,0.13205
684.60637,0.15705
686.53484,0.17101
688.46331,0.16365
690.39178,0.14970
692.32025,0.14958
694.24872,0.15358
696.17719,0.15421
698.10565,0.15364
700.03412,0.14488
701.96259,0.13088
703.89106,0.12772
705.81953,0.13429
707.74800,0.13142
709.67647,0.08370
711.60494,0.02716
713.53340,0.05723
715.46187,0.12273
717.39034,0.13842
719.31881,0.13259
721.24728,0.12446
723.17575,0.11874
725.10422,0.12415
727.03268,0.12563
728.96115,0.11706
730.88962,0.11942
732.81809,0.13283
734.74656,0.13131
736.67503,0.12474
738.60350,0.13003
740.53197,0.13293
742.46043,0.12875
744.38890,0.12765
746.31737,0.12444
748.24584,0.11802
750.17431,0.11880
752.10278,0.12259
754.03125,0.11835
755.95971,0.10882
757.88818,0.10819
759.81665,0.11661
761.74512,0.12321
763.67359,0.13058
765.60206,0.14044
767.53053,0.14533
769.45900,0.14659
771.38746,0.14739
773.31593,0.14655
775.24440,0.14230
777.17287,0.13366
779.10134,0.13089
781.02981,0.13920
782.95828,0.14621
784.88674,0.14753
786.81521,0.15233
788.74368,0.15797
790.67215,0.15762
792.60062,0.15321
794.52909,0.14514
796.45756,0.13930
798.38602,0.13796
800.31449,0.13440
802.24296,0.13303
804.17143,0.14357
806.09990,0.15851
808.02837,0.16013
809.95684,0.14608
811.88531,0.12815
813.81377,0.11946
815.74224,0.12447
817.67071,0.13313
819.59918,0.13994
821.52765,0.14745
823.45612,0.14691
825.38459,0.13767
827.31305,0.13592
829.24152,0.13985
831.16999,0.13714
833.09846,0.12697
835.02693,0.12079
836.95540,0.12899
838.88387,0.14314
840.81234,0.14983
842.74080,0.14643
844.66927,0.14331
846.59774,0.15014
848.52621,0.15823
850.45468,0.15347
852.38315,0.14093
854.31162,0.13705
856.24008,0.14240
858.16855,0.14642
860.09702,0.14582
862.02549,0.14756
863.95396,0.14931
865.88243,0.14363
867.81090,0.14792
869.73937,0.16404
871.66783,0.16591
873.59630,0.16197
875.52477,0.16796
877.45324,0.16476
879.38171,0.14749
881.31018,0.13565
883.23865,0.13825
885.16711,0.15111
887.09558,0.15898
889.02405,0.15148
890.95252,0.14249
892.88099,0.14224
894.80946,0.14176
896.73793,0.14057
898.66640,0.14579
900.59486,0.15559
902.52333,0.16392
904.45180,0.16301
906.38027,0.15354
908.30874,0.14335
910.23721,0.13456
912.16568,0.12882
914.09414,0.12994
916.02261,0.14244
917.95108,0.16137
919.87955,0.16874
921.80802,0.16140
923.73649,0.15548
925.66496,0.15595
927.59343,0.15572
929.52189,0.15318
931.45036,0.14743
933.37883,0.14069
935.30730,0.14581
937.23577,0.16108
939.16424,0.16670
941.09271,0.16047
943.02117,0.15501
944.94964,0.15471
946.87811,0.15555
948.80658,0.14997
950.73505,0.13840
952.66352,0.12919
954.59199,0.12698
956.52045,0.13073
958.44892,0.13713
960.37739,0.14278
962.30586,0.14603
964.23433,0.14710
966.16280,0.14594
968.09127,0.14170
970.01974,0.13647
971.94820,0.14061
973.87667,0.15720
975.80514,0.16932
977.73361,0.16620
979.66208,0.15803
981.59055,0.15296
983.51902,0.15094
985.44748,0.15384
987.37595,0.15777
989.30442,0.15987
991.23289,0.16166
993.16136,0.15926
995.08983,0.15505
997.01830,0.15251
998.94677,0.14808
1000.87523,0.14594
1002.80370,0.15067
1004.73217,0.15613
1006.66064,0.16039
1008.58911,0.16354
1010.51758,0.15981
1012.44605,0.15301
1014.37451,0.15195
1016.30298,0.15669
1018.23145,0.15851
1020.15992,0.15260
1022.08839,0.14981
1024.01686,0.15176
1025.94533,0.14697
1027.87380,0.14235
1029.80226,0.14660
1031.73073,0.15072
1033.65920,0.15427
1035.58767,0.16116
1037.51614,0.16082
1039.44461,0.15376
1041.37308,0.15549
1043.30154,0.16007
1045.23001,0.15245
1047.15848,0.14283
1049.08695,0.14555
1051.01542,0.15611
1052.94389,0.16324
1054.87236,0.16383
1056.80083,0.16557
1058.72929,0.17125
1060.65776,0.17225
1062.58623,0.16882
1064.51470,0.16961
1066.44317,0.17073
1068.37164,0.16737
1070.30011,0.16537
1072.22857,0.16559
1074.15704,0.16315
1076.08551,0.16142
1078.01398,0.16632
1079.94245,0.17345
1081.87092,0.17246
1083.79939,0.16071
1085.72786,0.15039
1087.65632,0.15087
1089.58479,0.15650
1091.51326,0.16285
1093.44173,0.16702
1095.37020,0.16361
1097.29867,0.15846
1099.22714,0.15888
1101.15560,0.15910
1103.08407,0.15708
1105.01254,0.15804
1106.94101,0.16297
1108.86948,0.16532
1110.79795,0.16075
1112.72642,0.15666
1114.65489,0.15924
1116.58335,0.16429
1118.51182,0.16290
1120.44029,0.15589
1122.36876,0.15366
1124.29723,0.15822
1126.22570,0.16650
1128.15417,0.17592
1130.08263,0.17895
1132.01110,0.17282
1133.93957,0.16638
1135.86804,0.16470
1137.79651,0.16242
1139.72498,0.15711
1141.65345,0.15187
1143.58191,0.14964
1145.51038,0.15234
1147.43885,0.15727
1149.36732,0.15907
1151.29579,0.15940
1153.22426,0.16280
1155.15273,0.16693
1157.08120,0.16800
1159.00966,0.16811
1160.93813,0.16913
1162.86660,0.16841
1164.79507,0.16722
1166.72354,0.16940
1168.65201,0.17039
1170.58048,0.16525
1172.50894,0.16094
1174.43741,0.16280
1176.36588,0.16600
1178.29435,0.16699
1180.22282,0.16495
1182.15129,0.16209
1184.07976,0.16288
1186.00823,0.16597
1187.93669,0.16720
1189.86516,0.16411
1191.79363,0.15770
1193.72210,0.15278
1195.65057,0.15470
1197.57904,0.16275
1199.50751,0.16633
1201.43597,0.16383
1203.36444,0.16530
1205.29291,0.17028
1207.22138,0.17223
1209.14985,0.16978
1211.07832,0.16653
1213.00679,0.16693
1214.93526,0.16837
1216.86372,0.16824
1218.79219,0.16956
1220.72066,0.16876
1222.64913,0.16308
1224.57760,0.16239
1226.50607,0.16882
1228.43454,0.17159
1230.36300,0.16952
1232.29147,0.16861
1234.21994,0.16743
1236.14841,0.16580
1238.07688,0.16712
1240.00535,0.16624
1241.93382,0.16191
1243.86229,0.16072
1245.79075,0.16238
1247.71922,0.16477
1249.64769,0.16633
1251.57616,0.16385
1253.50463,0.15960
1255.43310,0.15866
1257.36157,0.15941
1259.29003,0.15781
1261.21850,0.15560
1263.14697,0.15513
1265.07544,0.15443
1267.00391,0.15328
1268.93238,0.15623
1270.86085,0.16432
1272.78932,0.17199
1274.71778,0.17511
1276.64625,0.17562
1278.57472,0.17554
1280.50319,0.17362
1282.43166,0.17275
1284.36013,0.17488
1286.28860,0.17263
1288.21706,0.16466
1290.14553,0.15909
1292.07400,0.15852
1294.00247,0.16017
1295.93094,0.16104
1297.85941,0.15760
1299.78788,0.14690
1301.71634,0.12988
1303.64481,0.11366
1305.57328,0.11457
1307.50175,0.13901
1309.43022,0.16431
1311.35869,0.17223
1313.28716,0.17060
1315.21563,0.17117
1317.14409,0.17462
1319.07256,0.17344
1321.00103,0.16806
1322.92950,0.16627
1324.85797,0.16431
1326.78644,0.15960
1328.71491,0.15931
1330.64337,0.16030
1332.57184,0.16028
1334.50031,0.16292
1336.42878,0.16429
1338.35725,0.16473
1340.28572,0.16382
1342.21419,0.16016
1344.14266,0.15675
1346.07112,0.15385
1347.99959,0.15548
1349.92806,0.15958
1351.85653,0.16068
1353.78500,0.16130
1355.71347,0.16235
1357.64194,0.16324
1359.57040,0.16697
1361.49887,0.17387
1363.42734,0.17491
1365.35581,0.16958
1367.28428,0.16910
1369.21275,0.17343
1371.14122,0.17693
1373.06969,0.18132
1374.99815,0.18544
1376.92662,0.18488
1378.85509,0.18358
1380.78356,0.18355
1382.71203,0.18395
1384.64050,0.18724
1386.56897,0.19232
1388.49743,0.18872
1390.42590,0.18038
1392.35437,0.18127
1394.28284,0.18911
1396.21131,0.19438
1398.13978,0.19520
1400.06825,0.19033
1401.99672,0.18431
1403.92518,0.18175
1405.85365,0.18042
1407.78212,0.18146
1409.71059,0.18468
1411.63906,0.18508
1413.56753,0.18524
1415.49600,0.19099
1417.42446,0.19880
1419.35293,0.19835
1421.28140,0.19225
1423.20987,0.18828
1425.13834,0.18409
1427.06681,0.18267
1428.99528,0.18775
1430.92375,0.19125
1432.85221,0.18792
1434.78068,0.18696
1436.70915,0.18841
1438.63762,0.18379
1440.56609,0.18092
1442.49456,0.18394
1444.42303,0.18957
1446.35149,0.19356
1448.27996,0.19080
1450.20843,0.18573
1452.13690,0.18718
1454.06537,0.19551
1455.99384,0.20861
1457.92231,0.21243
1459.85077,0.20078
1461.77924,0.19246
1463.70771,0.19037
1465.63618,0.19167
1467.56465,0.19246
1469.49312,0.19532
1471.42159,0.20505
1473.35006,0.21459
1475.27852,0.20951
1477.20699,0.19874
1479.13546,0.19092
1481.06393,0.18678
1482.99240,0.18577
1484.92087,0.18892
1486.84934,0.19849
1488.77780,0.20727
1490.70627,0.20076
1492.63474,0.19244
1494.56321,0.19381
1496.49168,0.20130
1498.42015,0.21041
1500.34862,0.22529
1502.27709,0.24439
1504.20555,0.25614
1506.13402,0.24955
1508.06249,0.22532
1509.99096,0.21150
1511.91943,0.20803
1513.84790,0.21233
1515.77637,0.22133
1517.70483,0.22744
1519.63330,0.22905
1521.56177,0.22788
1523.49024,0.22049
1525.41871,0.21201
1527.34718,0.20546
1529.27565,0.20384
1531.20412,0.20558
1533.13258,0.20514
1535.06105,0.20323
1536.98952,0.20958
1538.91799,0.23230
1540.84646,0.25640
1542.77493,0.24680
1544.70340,0.22354
1546.63186,0.20520
1548.56033,0.20105
1550.48880,0.20486
1552.41727,0.20838
1554.34574,0.21340
1556.27421,0.22519
1558.20268,0.24325
1560.13115,0.22958
1562.05961,0.21016
1563.98808,0.20499
1565.91655,0.20347
1567.84502,0.20377
1569.77349,0.20109
1571.70196,0.19281
1573.63043,0.19042
1575.55889,0.19234
1577.48736,0.18877
1579.41583,0.18461
1581.34430,0.18301
1583.27277,0.18160
1585.20124,0.18150
1587.12971,0.18257
1589.05818,0.18225
1590.98664,0.18105
1592.91511,0.18111
1594.84358,0.18118
1596.77205,0.17928
1598.70052,0.17925
1600.62899,0.18317
1602.55746,0.18484
1604.48592,0.18137
1606.41439,0.18029
1608.34286,0.18465
1610.27133,0.18853
1612.19980,0.19240
1614.12827,0.20059
1616.05674,0.20802
1617.98521,0.20378
1619.91367,0.19851
1621.84214,0.19994
1623.77061,0.20185
1625.69908,0.20096
1627.62755,0.19805
1629.55602,0.19222
1631.48449,0.19070
1633.41295,0.19974
1635.34142,0.21384
1637.26989,0.21186
1639.19836,0.20198
1641.12683,0.19791
1643.05530,0.20164
1644.98377,0.21550
1646.91223,0.22983
1648.84070,0.22492
1650.76917,0.22321
1652.69764,0.23397
1654.62611,0.22238
1656.55458,0.20607
1658.48305,0.20617
1660.41152,0.21659
1662.33998,0.22188
1664.26845,0.21321
1666.19692,0.20720
1668.12539,0.21244
1670.05386,0.21935
1671.98233,0.21380
1673.91080,0.20582
1675.83926,0.20341
1677.76773,0.20384
1679.69620,0.20691
1681.62467,0.21888
1683.55314,0.23832
1685.48161,0.23427
1687.41008,0.21909
1689.33855,0.21096
1691.26701,0.20466
1693.19548,0.20746
1695.12395,0.22405
1697.05242,0.23653
1698.98089,0.23216
1700.90936,0.21960
1702.83783,0.21308
1704.76629,0.21481
1706.69476,0.21097
1708.62323,0.19958
1710.55170,0.19265
1712.48017,0.19461
1714.40864,0.20339
1716.33711,0.21193
1718.26558,0.20756
1720.19404,0.19676
1722.12251,0.19074
1724.05098,0.18870
1725.97945,0.19013
1727.90792,0.19427
1729.83639,0.19866
1731.76486,0.20621
1733.69332,0.21736
1735.62179,0.21451
1737.55026,0.20566
1739.47873,0.20377
1741.40720,0.20390
1743.33567,0.20055
1745.26414,0.19791
1747.19261,0.20095
1749.12107,0.20966
1751.04954,0.21321
1752.97801,0.20661
1754.90648,0.19869
1756.83495,0.19319
1758.76342,0.19104
1760.69189,0.19167
1762.62035,0.19138
1764.54882,0.19122
1766.47729,0.19509
1768.40576,0.20131
1770.33423,0.20906
1772.26270,0.21558
1774.19117,0.21051
1776.11964,0.20216
1778.04810,0.19971
1779.97657,0.19892
1781.90504,0.19588
1783.83351,0.19512
1785.76198,0.19595
1787.69045,0.19512
1789.61892,0.19577
1791.54738,0.19929
1793.47585,0.20007
1795.40432,0.19672
1797.33279,0.19395
1799.26126,0.19354
1801.18973,0.19581
1803.11820,0.19690
1805.04666,0.19249
1806.97513,0.18780
1808.90360,0.19012
1810.83207,0.19451
1812.76054,0.19311
1814.68901,0.19055
1816.61748,0.19000
1818.54595,0.18965
1820.47441,0.19132
1822.40288,0.19641
1824.33135,0.19966
1826.25982,0.19695
1828.18829,0.19608
1830.11676,0.19886
1832.04523,0.19537
1833.97369,0.18975
1835.90216,0.19051
1837.83063,0.19462
1839.75910,0.19768
1841.68757,0.20194
1843.61604,0.20408
1845.54451,0.19722
1847.47298,0.18903
1849.40144,0.18517
1851.32991,0.18458
1853.25838,0.18563
1855.18685,0.18527
1857.11532,0.18461
1859.04379,0.18630
1860.97226,0.18852
1862.90072,0.19071
1864.82919,0.19539
1866.75766,0.20352
1868.68613,0.20759
1870.61460,0.20057
1872.54307,0.19314
1874.47154,0.19101
1876.40001,0.19075
1878.32847,0.19088
1880.25694,0.19134
1882.18541,0.19186
1884.11388,0.19215
1886.04235,0.19081
1887.97082,0.19038
1889.89929,0.19267
1891.82775,0.19423
1893.75622,0.19525
1895.68469,0.19600
1897.61316,0.19400
1899.54163,0.19105
1901.47010,0.19003
1903.39857,0.18988
1905.32704,0.19000
1907.25550,0.19161
1909.18397,0.19384
1911.11244,0.19451
1913.04091,0.19368
1914.96938,0.19284
1916.89785,0.19136
1918.82632,0.18850
1920.75478,0.18875
1922.68325,0.19301
1924.61172,0.19456
1926.54019,0.19231
1928.46866,0.18949
1930.39713,0.18638
1932.32560,0.18545
1934.25407,0.18703
1936.18253,0.18772
1938.11100,0.18833
1940.03947,0.19171
1941.96794,0.19568
1943.89641,0.19642
1945.82488,0.19578
1947.75335,0.19439
1949.68181,0.19166
1951.61028,0.19072
1953.53875,0.19246
1955.46722,0.19357
1957.39569,0.19188
1959.32416,0.18944
1961.25263,0.18844
1963.18110,0.18999
1965.10956,0.19369
1967.03803,0.19450
1968.96650,0.19141
1970.89497,0.18911
1972.82344,0.18825
1974.75191,0.18874
1976.68038,0.19084
1978.60884,0.19259
1980.53731,0.19234
1982.46578,0.18953
1984.39425,0.18717
1986.32272,0.18953
1988.25119,0.19379
1990.17966,0.19533
1992.10812,0.19552
1994.03659,0.19552
1995.96506,0.19377
1997.89353,0.19061
1999.82200,0.18725
2001.75047,0.18510
2003.67894,0.18553
2005.60741,0.18695
2007.53587,0.18752
2009.46434,0.18921
2011.39281,0.19252
2013.32128,0.19425
2015.24975,0.19432
2017.17822,0.19443
2019.10669,0.19234
2021.03515,0.18843
2022.96362,0.18712
2024.89209,0.18955
2026.82056,0.19255
2028.74903,0.19339
2030.67750,0.19225
2032.60597,0.19104
2034.53444,0.19077
2036.46290,0.19034
2038.39137,0.19018
2040.31984,0.19152
2042.24831,0.19264
2044.17678,0.19277
2046.10525,0.19214
2048.03372,0.19033
2049.96218,0.18881
2051.89065,0.18755
2053.81912,0.18571
2055.74759,0.18638
2057.67606,0.18991
2059.60453,0.19242
2061.53300,0.19279
2063.46147,0.19105
2065.38993,0.18848
2067.31840,0.18802
2069.24687,0.18915
2071.17534,0.19061
2073.10381,0.19304
2075.03228,0.19443
2076.96075,0.19303
2078.88921,0.19135
2080.81768,0.19016
2082.74615,0.18781
2084.67462,0.18573
2086.60309,0.18649
2088.53156,0.18861
2090.46003,0.18913
2092.38850,0.18943
2094.31696,0.19220
2096.24543,0.19541
2098.17390,0.19590
2100.10237,0.19534
2102.03084,0.19580
2103.95931,0.19478
2105.88778,0.19080
2107.81624,0.18709
2109.74471,0.18663
2111.67318,0.18931
2113.60165,0.19287
2115.53012,0.19462
2117.45859,0.19347
2119.38706,0.19064
2121.31553,0.18903
2123.24399,0.18918
2125.17246,0.18955
2127.10093,0.19053
2129.02940,0.19204
2130.95787,0.19266
2132.88634,0.19117
2134.81481,0.18746
2136.74327,0.18673
2138.67174,0.19205
2140.60021,0.19553
2142.52868,0.19367
2144.45715,0.19227
2146.38562,0.19315
2148.31409,0.19493
2150.24255,0.19505
2152.17102,0.19237
2154.09949,0.19043
2156.02796,0.19039
2157.95643,0.19100
2159.88490,0.19246
2161.81337,0.19359
2163.74184,0.19413
2165.67030,0.19465
2167.59877,0.19297
2169.52724,0.19026
2171.45571,0.19103
2173.38418,0.19519
2175.31265,0.19790
2177.24112,0.19599
2179.16958,0.19283
2181.09805,0.19242
2183.02652,0.19317
2184.95499,0.19261
2186.88346,0.19279
2188.81193,0.19551
2190.74040,0.19669
2192.66887,0.19470
2194.59733,0.19319
2196.52580,0.19352
2198.45427,0.19401
2200.38274,0.19300
2202.31121,0.19205
2204.23968,0.19225
2206.16815,0.19154
2208.09661,0.19052
2210.02508,0.19041
2211.95355,0.19135
2213.88202,0.19321
2215.81049,0.19307
2217.73896,0.19044
2219.66743,0.18836
2221.59590,0.18840
2223.52436,0.19051
2225.45283,0.19250
2227.38130,0.19269
2229.30977,0.19249
2231.23824,0.19271
2233.16671,0.19304
2235.09518,0.19364
2237.02364,0.19362
2238.95211,0.19388
2240.88058,0.19541
2242.80905,0.19474
2244.73752,0.19184
2246.66599,0.19083
2248.59446,0.19151
2250.52293,0.19100
2252.45139,0.18940
2254.37986,0.19031
2256.30833,0.19328
2258.23680,0.19378
2260.16527,0.19309
2262.09374,0.19506
2264.02221,0.19765
2265.95067,0.19673
2267.87914,0.19307
2269.80761,0.19097
2271.73608,0.19192
2273.66455,0.19255
2275.59302,0.19073
2277.52149,0.18952
2279.44996,0.19046
2281.37842,0.19244
2283.30689,0.19412
2285.23536,0.19326
2287.16383,0.19052
2289.09230,0.18908
2291.02077,0.19202
2292.94924,0.19939
2294.87770,0.20284
2296.80617,0.19629
2298.73464,0.18789
2300.66311,0.18696
2302.59158,0.19178
2304.52005,0.19496
2306.44852,0.19307
2308.37699,0.19037
2310.30545,0.19020
2312.23392,0.18994
2314.16239,0.18720
2316.09086,0.18423
2318.01933,0.18311
2319.94780,0.18082
2321.87627,0.17579
2323.80473,0.16953
2325.73320,0.16430
2327.66167,0.16449
2329.59014,0.16905
2331.51861,0.17499
2333.44708,0.18186
2335.37555,0.18335
2337.30401,0.17946
2339.23248,0.18268
2341.16095,0.19295
2343.08942,0.19365
2345.01789,0.18276
2346.94636,0.17975
2348.87483,0.18499
2350.80330,0.18803
2352.73176,0.19071
2354.66023,0.19544
2356.58870,0.18286
2358.51717,0.15298
2360.44564,0.13932
2362.37411,0.15080
2364.30258,0.17244
2366.23104,0.19270
2368.15951,0.19808
2370.08798,0.19228
2372.01645,0.18937
2373.94492,0.18721
2375.87339,0.18499
2377.80186,0.18462
2379.73033,0.18515
2381.65879,0.18624
2383.58726,0.18716
2385.51573,0.18947
2387.44420,0.19333
2389.37267,0.19432
2391.30114,0.19053
2393.22961,0.18562
2395.15807,0.18369
2397.08654,0.18442
2399.01501,0.18688
2400.94348,0.19131
2402.87195,0.19526
2404.80042,0.19628
2406.72889,0.19524
2408.65736,0.19421
2410.58582,0.19356
2412.51429,0.19204
2414.44276,0.18991
2416.37123,0.18916
2418.29970,0.19017
2420.22817,0.19150
2422.15664,0.19219
2424.08510,0.19191
2426.01357,0.19046
2427.94204,0.18821
2429.87051,0.18691
2431.79898,0.18881
2433.72745,0.19172
2435.65592,0.19229
2437.58439,0.19258
2439.51285,0.19398
2441.44132,0.19439
2443.36979,0.19353
2445.29826,0.19300
2447.22673,0.19485
2449.15520,0.19865
2451.08367,0.19901
2453.01213,0.19504
2454.94060,0.19161
2456.86907,0.18914
2458.79754,0.18798
2460.72601,0.18976
2462.65448,0.19254
2464.58295,0.19486
2466.51142,0.19644
2468.43988,0.19653
2470.36835,0.19526
2472.29682,0.19486
2474.22529,0.19590
2476.15376,0.19560
2478.08223,0.19289
2480.01070,0.18992
2481.93916,0.18895
2483.86763,0.18990
2485.79610,0.19043
2487.72457,0.19008
2489.65304,0.19012
2491.58151,0.19026
2493.50998,0.19142
2495.43844,0.19346
2497.36691,0.19378
2499.29538,0.19407
2501.22385,0.19527
2503.15232,0.19344
2505.08079,0.18991
2507.00926,0.19001
2508.93773,0.19272
2510.86619,0.19409
2512.79466,0.19456
2514.72313,0.19639
2516.65160,0.19700
2518.58007,0.19328
2520.50854,0.18953
2522.43701,0.18916
2524.36547,0.18935
2526.29394,0.18900
2528.22241,0.19055
2530.15088,0.19387
2532.07935,0.19572
2534.00782,0.19496
2535.93629,0.19362
2537.86476,0.19297
2539.79322,0.19063
2541.72169,0.18707
2543.65016,0.18829
2545.57863,0.19338
2547.50710,0.19554
2549.43557,0.19540
2551.36404,0.19566
2553.29250,0.19477
2555.22097,0.19352
2557.14944,0.19335
2559.07791,0.19363
2561.00638,0.19423
2562.93485,0.19500
2564.86332,0.19444
2566.79179,0.19216
2568.72025,0.19146
2570.64872,0.19335
2572.57719,0.19457
2574.50566,0.19450
2576.43413,0.19320
2578.36260,0.19012
2580.29107,0.18919
2582.21953,0.19231
2584.14800,0.19583
2586.07647,0.19688
2588.00494,0.19633
2589.93341,0.19738
2591.86188,0.19831
2593.79035,0.19625
2595.71882,0.19458
2597.64728,0.19489
2599.57575,0.19409
2601.50422,0.19298
2603.43269,0.19589
2605.36116,0.20000
2607.28963,0.20069
2609.21810,0.20098
2611.14656,0.20218
2613.07503,0.19950
2615.00350,0.19393
2616.93197,0.19220
2618.86044,0.19405
2620.78891,0.19674
2622.71738,0.20130
2624.64585,0.20555
2626.57431,0.20517
2628.50278,0.20063
2630.43125,0.19726
2632.35972,0.19725
2634.28819,0.19757
2636.21666,0.19678
2638.14513,0.19687
2640.07359,0.19836
2642.00206,0.19832
2643.93053,0.19602
2645.85900,0.19352
2647.78747,0.19211
2649.71594,0.19319
2651.64441,0.19600
2653.57288,0.19681
2655.50134,0.19637
2657.42981,0.19962
2659.35828,0.20480
2661.28675,0.20532
2663.21522,0.20168
2665.14369,0.19940
2667.07216,0.20019
2669.00062,0.19994
2670.92909,0.19636
2672.85756,0.19539
2674.78603,0.19951
2676.71450,0.20268
2678.64297,0.20206
2680.57144,0.20050
2682.49990,0.20098
2684.42837,0.20361
2686.35684,0.20488
2688.28531,0.20204
2690.21378,0.19763
2692.14225,0.19625
2694.07072,0.19861
2695.99919,0.20084
2697.92765,0.20037
2699.85612,0.19920
2701.78459,0.19979
2703.71306,0.20280
2705.64153,0.20611
2707.57000,0.20632
2709.49847,0.20367
2711.42693,0.20259
2713.35540,0.20431
2715.28387,0.20470
2717.21234,0.20346
2719.14081,0.20297
2721.06928,0.20185
2722.99775,0.19828
2724.92622,0.19421
2726.85468,0.19349
2728.78315,0.19658
2730.71162,0.19920
2732.64009,0.19880
2734.56856,0.19972
2736.49703,0.20362
2738.42550,0.20474
2740.35396,0.20198
2742.28243,0.20051
2744.21090,0.20220
2746.13937,0.20346
2748.06784,0.20389
2749.99631,0.20598
2751.92478,0.20634
2753.85325,0.20189
2755.78171,0.19796
2757.71018,0.19821
2759.63865,0.19963
2761.56712,0.20251
2763.49559,0.20776
2765.42406,0.21048
2767.35253,0.20862
2769.28099,0.20728
2771.20946,0.20937
2773.13793,0.21114
2775.06640,0.21072
2776.99487,0.20972
2778.92334,0.20900
2780.85181,0.20976
2782.78028,0.21046
2784.70874,0.20786
2786.63721,0.20472
2788.56568,0.20479
2790.49415,0.20429
2792.42262,0.20142
2794.35109,0.20129
2796.27956,0.20461
2798.20802,0.20760
2800.13649,0.20792
2802.06496,0.20588
2803.99343,0.20512
2805.92190,0.20719
2807.85037,0.20869
2809.77884,0.20664
2811.70731,0.20326
2813.63577,0.20433
2815.56424,0.20833
2817.49271,0.20911
2819.42118,0.20914
2821.34965,0.21020
2823.27812,0.20910
2825.20659,0.20853
2827.13505,0.20996
2829.06352,0.20963
2830.99199,0.20754
2832.92046,0.20807
2834.84893,0.21179
2836.77740,0.21280
2838.70587,0.20992
2840.63433,0.20753
2842.56280,0.20543
2844.49127,0.20395
2846.41974,0.20516
2848.34821,0.20698
2850.27668,0.20775
2852.20515,0.20799
2854.13362,0.20851
2856.06208,0.21175
2857.99055,0.21637
2859.91902,0.21731
2861.84749,0.21561
2863.77596,0.21315
2865.70443,0.20729
2867.63290,0.20089
2869.56136,0.19980
2871.48983,0.20170
2873.41830,0.20224
2875.34677,0.20293
2877.27524,0.20547
2879.20371,0.20740
2881.13218,0.20445
2883.06065,0.19695
2884.98911,0.19398
2886.91758,0.20126
2888.84605,0.21023
2890.77452,0.21160
2892.70299,0.20672
2894.63146,0.20088
2896.55993,0.19859
2898.48839,0.20157
2900.41686,0.20625
2902.34533,0.20653
2904.27380,0.20169
2906.20227,0.19814
2908.13074,0.19929
2910.05921,0.20267
2911.98768,0.20537
2913.91614,0.20233
2915.84461,0.19399
2917.77308,0.19186
2919.70155,0.19758
2921.63002,0.20220
2923.55849,0.20082
2925.48696,0.19174
2927.41542,0.18549
2929.34389,0.19113
2931.27236,0.20089
2933.20083,0.20676
2935.12930,0.20230
2937.05777,0.19185
2938.98624,0.19325
2940.91471,0.20498
2942.84317,0.21152
2944.77164,0.20702
2946.70011,0.19538
2948.62858,0.19152
2950.55705,0.19880
2952.48552,0.20399
2954.41399,0.20269
2956.34245,0.19388
2958.27092,0.18699
2960.19939,0.19529
2962.12786,0.20709
2964.05633,0.20899
2965.98480,0.20142
2967.91327,0.19157
2969.84174,0.19301
2971.77020,0.20442
2973.69867,0.21256
2975.62714,0.21077
2977.55561,0.20242
2979.48408,0.20085
2981.41255,0.20681
2983.34102,0.20927
2985.26948,0.20411
2987.19795,0.19472
2989.12642,0.19625
2991.05489,0.21152
2992.98336,0.22169
2994.91183,0.22026
2996.84030,0.21521
2998.76877,0.21373
3000.69723,0.21615
3002.62570,0.21652
3004.55417,0.21297
3006.48264,0.20546
3008.41111,0.19533
3010.33958,0.18286
3012.26805,0.15774
3014.19651,0.11877
3016.12498,0.09108
3018.05345,0.10601
3019.98192,0.15667
3021.91039,0.19947
3023.83886,0.21686
3025.76733,0.21938
3027.69579,0.21447
3029.62426,0.21258
3031.55273,0.21769
3033.48120,0.22080
3035.40967,0.21793
3037.33814,0.21338
3039.26661,0.21167
3041.19508,0.21026
3043.12354,0.20487
3045.05201,0.19717
3046.98048,0.19064
3048.90895,0.19310
3050.83742,0.20498
3052.76589,0.21242
3054.69436,0.20851
3056.62282,0.20068
3058.55129,0.20225
3060.47976,0.21224
3062.40823,0.21844
3064.33670,0.21484
3066.26517,0.20349
3068.19364,0.19997
3070.12211,0.20815
3072.05057,0.21240
3073.97904,0.20712
3075.90751,0.20082
3077.83598,0.20364
3079.76445,0.21051
3081.69292,0.20920
3083.62139,0.19609
3085.54985,0.18331
3087.47832,0.18843
3089.40679,0.20176
3091.33526,0.20460
3093.26373,0.19661
3095.19220,0.19203
3097.12067,0.20124
3099.04914,0.21192
3100.97760,0.20950
3102.90607,0.19625
3104.83454,0.19146
3106.76301,0.20101
3108.69148,0.20740
3110.61995,0.20343
3112.54842,0.19576
3114.47688,0.19601
3116.40535,0.20495
3118.33382,0.21081
3120.26229,0.20619
3122.19076,0.19777
3124.11923,0.20211
3126.04770,0.21447
3127.97617,0.21814
3129.90463,0.21357
3131.83310,0.21293
3133.76157,0.21995
3135.69004,0.22260
3137.61851,0.21419
3139.54698,0.20473
3141.47545,0.20587
3143.40391,0.21350
3145.33238,0.21631
3147.26085,0.21279
3149.18932,0.21054
3151.11779,0.21350
3153.04626,0.21609
3154.97473,0.21468
3156.90320,0.21201
3158.83166,0.21192
3160.76013,0.21482
3162.68860,0.21790
3164.61707,0.22040
3166.54554,0.22159
3168.47401,0.21675
3170.40248,0.21163
3172.33094,0.21505
3174.25941,0.21623
3176.18788,0.21124
3178.11635,0.20972
3180.04482,0.21205
3181.97329,0.21554
3183.90176,0.21873
3185.83022,0.22131
3187.75869,0.22239
3189.68716,0.21986
3191.61563,0.21905
3193.54410,0.22282
3195.47257,0.22443
3197.40104,0.22248
3199.32951,0.21866
3201.25797,0.21291
3203.18644,0.20996
3205.11491,0.21164
3207.04338,0.21374
3208.97185,0.21360
3210.90032,0.21361
3212.82879,0.21720
3214.75725,0.22184
3216.68572,0.22157
3218.61419,0.21824
3220.54266,0.21818
3222.47113,0.22129
3224.39960,0.22190
3226.32807,0.21759
3228.25654,0.21469
3230.18500,0.21619
3232.11347,0.21867
3234.04194,0.22079
3235.97041,0.22157
3237.89888,0.22146
3239.82735,0.21823
3241.75582,0.20913
3243.68428,0.20457
3245.61275,0.21264
3247.54122,0.21914
3249.46969,0.21372
3251.39816,0.20650
3253.32663,0.20817
3255.25510,0.21565
3257.18357,0.21779
3259.11203,0.21425
3261.04050,0.21134
3262.96897,0.21022
3264.89744,0.21170
3266.82591,0.21324
3268.75438,0.21200
3270.68285,0.20985
3272.61131,0.20671
3274.53978,0.20364
3276.46825,0.20634
3278.39672,0.21254
3280.32519,0.21513
3282.25366,0.21598
3284.18213,0.21729
3286.11060,0.21557
3288.03906,0.21134
3289.96753,0.20936
3291.89600,0.20854
3293.82447,0.20718
3295.75294,0.20992
3297.68141,0.21433
3299.60988,0.21284
3301.53834,0.21023
3303.46681,0.21276
3305.39528,0.21727
3307.32375,0.22199
3309.25222,0.22445
3311.18069,0.22136
3313.10916,0.21741
3315.03763,0.21696
3316.96609,0.21812
3318.89456,0.21846
3320.82303,0.21752
3322.75150,0.21654
3324.67997,0.21662
3326.60844,0.21814
3328.53691,0.21827
3330.46537,0.21365
3332.39384,0.20982
3334.32231,0.21199
3336.25078,0.21663
3338.17925,0.22099
3340.10772,0.22457
3342.03619,0.22582
3343.96466,0.22393
3345.89312,0.22144
3347.82159,0.22136
3349.75006,0.22171
3351.67853,0.21978
3353.60700,0.21642
3355.53547,0.21292
3357.46394,0.21057
3359.39240,0.21230
3361.32087,0.21681
3363.24934,0.21946
3365.17781,0.22107
3367.10628,0.22377
3369.03475,0.22624
3370.96322,0.22655
3372.89168,0.22230
3374.82015,0.21578
3376.74862,0.21308
3378.67709,0.21392
3380.60556,0.21693
3382.53403,0.22194
3384.46250,0.22354
3386.39097,0.21742
3388.31943,0.20653
3390.24790,0.19973
3392.17637,0.20132
3394.10484,0.20673
3396.03331,0.21229
3397.96178,0.21486
3399.89025,0.21350
3401.81871,0.21081
3403.74718,0.20688
3405.67565,0.20594
3407.60412,0.21216
3409.53259,0.21800
3411.46106,0.21625
3413.38953,0.21071
3415.31800,0.20907
3417.24646,0.21210
3419.17493,0.21304
3421.10340,0.21108
3423.03187,0.21064
3424.96034,0.20889
3426.88881,0.20394
3428.81728,0.20206
3430.74574,0.20502
3432.67421,0.20744
3434.60268,0.20841
3436.53115,0.20999
3438.45962,0.21325
3440.38809,0.21715
3442.31656,0.21811
3444.24503,0.21468
3446.17349,0.20767
3448.10196,0.20258
3450.03043,0.20534
3451.95890,0.21142
3453.88737,0.21392
3455.81584,0.21159
3457.74431,0.20535
3459.67277,0.19761
3461.60124,0.19357
3463.52971,0.19294
3465.45818,0.19151
3467.38665,0.19159
3469.31512,0.19583
3471.24359,0.20069
3473.17206,0.19963
3475.10052,0.19301
3477.02899,0.18993
3478.95746,0.19043
3480.88593,0.18808
3482.81440,0.18535
3484.74287,0.18683
3486.67134,0.19222
3488.59980,0.19694
3490.52827,0.19642
3492.45674,0.19233
3494.38521,0.18861
3496.31368,0.18654
3498.24215,0.18616
3500.17062,0.18916
3502.09909,0.19352
3504.02755,0.19231
3505.95602,0.18807
3507.88449,0.18856
3509.81296,0.19053
3511.74143,0.18745
3513.66990,0.18195
3515.59837,0.17762
3517.52683,0.17499
3519.45530,0.17630
3521.38377,0.18140
3523.31224,0.18646
3525.24071,0.18885
3527.16918,0.18799
3529.09765,0.18426
3531.02611,0.17982
3532.95458,0.17650
3534.88305,0.17430
3536.81152,0.17380
3538.73999,0.17337
3540.66846,0.17136
3542.59693,0.17215
3544.52540,0.17697
3546.45386,0.17767
3548.38233,0.17070
3550.31080,0.16531
3552.23927,0.16933
3554.16774,0.17794
3556.09621,0.18047
3558.02468,0.17602
3559.95314,0.17062
3561.88161,0.16775
3563.81008,0.17034
3565.73855,0.18015
3567.66702,0.18548
3569.59549,0.17767
3571.52396,0.16942
3573.45243,0.16522
3575.38089,0.16082
3577.30936,0.15707
3579.23783,0.15704
3581.16630,0.15880
3583.09477,0.15955
3585.02324,0.15810
3586.95171,0.15793
3588.88017,0.16030
3590.80864,0.15978
3592.73711,0.15744
3594.66558,0.15526
3596.59405,0.15377
3598.52252,0.15348
3600.45099,0.15384
3602.37946,0.15465
3604.30792,0.15586
3606.23639,0.15675
3608.16486,0.15562
3610.09333,0.15458
3612.02180,0.15819
3613.95027,0.16242
3615.87874,0.16232
3617.80720,0.16138
3619.73567,0.15856
3621.66414,0.15125
3623.59261,0.14641
3625.52108,0.14703
3627.44955,0.15093
3629.37802,0.15246
3631.30649,0.14975
3633.23495,0.15071
3635.16342,0.15335
3637.09189,0.15243
3639.02036,0.14899
3640.94883,0.14523
3642.87730,0.14419
3644.80577,0.14750
3646.73423,0.15426
3648.66270,0.16096
3650.59117,0.15816
3652.51964,0.15146
3654.44811,0.14690
3656.37658,0.14304
3658.30505,0.14027
3660.23352,0.13854
3662.16198,0.13748
3664.09045,0.13770
3666.01892,0.14017
3667.94739,0.14683
3669.87586,0.15023
3671.80433,0.14569
3673.73280,0.14995
3675.66126,0.16080
3677.58973,0.15914
3679.51820,0.14838
3681.44667,0.13720
3683.37514,0.13236
3685.30361,0.13485
3687.23208,0.14251
3689.16055,0.15440
3691.08901,0.15825
3693.01748,0.14970
3694.94595,0.14163
3696.87442,0.14024
3698.80289,0.14352
3700.73136,0.14553
3702.65983,0.14053
3704.58829,0.13368
3706.51676,0.13276
3708.44523,0.13949
3710.37370,0.14947
3712.30217,0.14789
3714.23064,0.14012
3716.15911,0.13887
3718.08757,0.13930
3720.01604,0.13681
3721.94451,0.13548
3723.87298,0.13801
3725.80145,0.13823
3727.72992,0.13377
3729.65839,0.13249
3731.58686,0.14048
3733.51532,0.15809
3735.44379,0.16703
3737.37226,0.15182
3739.30073,0.13935
3741.22920,0.14181
3743.15767,0.14992
3745.08614,0.15244
3747.01460,0.15383
3748.94307,0.16394
3750.87154,0.17362
3752.80001,0.16347
3754.72848,0.15136
3756.65695,0.14899
3758.58542,0.14768
3760.51389,0.13945
3762.44235,0.13296
3764.37082,0.13215
3766.29929,0.13074
3768.22776,0.13002
3770.15623,0.13213
3772.08470,0.13070
3774.01317,0.12995
3775.94163,0.13362
3777.87010,0.13714
3779.79857,0.13361
3781.72704,0.12598
3783.65551,0.12501
3785.58398,0.12873
3787.51245,0.12971
3789.44092,0.12983
3791.36938,0.13268
3793.29785,0.13617
3795.22632,0.13843
3797.15479,0.14326
3799.08326,0.15200
3801.01173,0.15663
3802.94020,0.15084
3804.86866,0.14553
3806.79713,0.13970
3808.72560,0.12710
3810.65407,0.11758
3812.58254,0.11919
3814.51101,0.12886
3816.43948,0.13344
3818.36795,0.13420
3820.29641,0.14457
3822.22488,0.15198
3824.15335,0.14924
3826.08182,0.14615
3828.01029,0.13950
3829.93876,0.13058
3831.86723,0.12326
3833.79569,0.11975
3835.72416,0.12482
3837.65263,0.13662
3839.58110,0.14174
3841.50957,0.13656
3843.43804,0.13200
3845.36651,0.13041
3847.29498,0.12894
3849.22344,0.13102
3851.15191,0.14051
3853.08038,0.14999
3855.00885,0.14044
3856.93732,0.12609
3858.86579,0.11718
3860.79426,0.11742
3862.72272,0.12401
3864.65119,0.12589
3866.57966,0.12629
3868.50813,0.12878
3870.43660,0.12735
3872.36507,0.12234
3874.29354,0.11968
3876.22200,0.12110
3878.15047,0.12361
3880.07894,0.12805
3882.00741,0.13464
3883.93588,0.13621
3885.86435,0.13121
3887.79282,0.12632
3889.72129,0.12543
3891.64975,0.12683
3893.57822,0.12798
3895.50669,0.13024
3897.43516,0.13614
3899.36363,0.14243
3901.29210,0.14408
3903.22057,0.14373
3905.14903,0.13828
3907.07750,0.12635
3909.00597,0.11846
3910.93444,0.11792
3912.86291,0.11978
3914.79138,0.12096
3916.71985,0.12158
3918.64832,0.12256
3920.57678,0.12247
3922.50525,0.11830
3924.43372,0.11193
3926.36219,0.10948
3928.29066,0.11187
3930.21913,0.11558
3932.14760,0.11889
3934.07606,0.12046
3936.00453,0.11938
3937.93300,0.11463
3939.86147,0.10780
3941.78994,0.10506
3943.71841,0.10520
3945.64688,0.10365
3947.57535,0.10475
3949.50381,0.10973
3951.43228,0.11507
3953.36075,0.11878
3955.28922,0.11847
3957.21769,0.11583
3959.14616,0.11285
3961.07463,0.11048
3963.00309,0.11496
3964.93156,0.12401
3966.86003,0.12647
3968.78850,0.12221
3970.71697,0.11727
3972.64544,0.11378
3974.57391,0.11315
3976.50238,0.11330
3978.43084,0.11210
3980.35931,0.11169
3982.28778,0.11044
3984.21625,0.10866
3986.14472,0.11082
3988.07319,0.11208
3990.00166,0.10693
3991.93012,0.10104
3993.85859,0.09942
3995.78706,0.10077
3997.71553,0.10340
3999.64400,0.10673
4001.57247,0.10997
4003.50094,0.10954
4005.42941,0.10579
4007.35787,0.10439
4009.28634,0.10359
4011.21481,0.10333
4013.14328,0.10680
4015.07175,0.10796
4017.00022,0.10661
4018.92869,0.10499
4020.85715,0.09833
4022.78562,0.09212
4024.71409,0.09496
4026.64256,0.10135
4028.57103,0.10179
4030.49950,0.09825
4032.42797,0.09695
4034.35644,0.09639
4036.28490,0.09353
4038.21337,0.08969
4040.14184,0.08739
4042.07031,0.09007
4043.99878,0.09818
4045.92725,0.10556
4047.85572,0.10916
4049.78418,0.11143
4051.71265,0.11149
4053.64112,0.10973
4055.56959,0.10726
4057.49806,0.09977
4059.42653,0.09155
4061.35500,0.09184
4063.28346,0.09271
4065.21193,0.08633
4067.14040,0.08128
4069.06887,0.08180
4070.99734,0.08347
4072.92581,0.08680
4074.85428,0.09249
4076.78275,0.09567
4078.71121,0.09451
4080.63968,0.09345
4082.56815,0.09503
4084.49662,0.09569
4086.42509,0.09209
4088.35356,0.08719
4090.28203,0.08636
4092.21049,0.08940
4094.13896,0.09303
4096.06743,0.09588
4097.99590,0.09492
4099.92437,0.08908
4101.85284,0.08638
4103.78131,0.09059
4105.70978,0.09154
4107.63824,0.08539
4109.56671,0.08209
4111.49518,0.08552
4113.42365,0.08901
4115.35212,0.08735
4117.28059,0.08272
4119.20906,0.08060
4121.13752,0.08262
4123.06599,0.08495
4124.99446,0.08469
4126.92293,0.08368
4128.85140,0.08263
4130.77987,0.08201
4132.70834,0.08404
4134.63681,0.08555
4136.56527,0.08325
4138.49374,0.08192
4140.42221,0.08315
4142.35068,0.08270
4144.27915,0.08306
4146.20762,0.08628
4148.13609,0.08755
4150.06455,0.08687
4151.99302,0.08694
4153.92149,0.08609
4155.84996,0.08377
4157.77843,0.08451
4159.70690,0.08876
4161.63537,0.08967
4163.56384,0.08717
4165.49230,0.08748
4167.42077,0.08953
4169.34924,0.08834
4171.27771,0.08501
4173.20618,0.08238
4175.13465,0.08160
4177.06312,0.08381
4178.99158,0.08539
4180.92005,0.08274
4182.84852,0.07901
4184.77699,0.07683
4186.70546,0.07688
4188.63393,0.07926
4190.56240,0.08024
4192.49087,0.07797
4194.41933,0.07612
4196.34780,0.07666
4198.27627,0.07788
4200.20474,0.07940
4202.13321,0.08294
4204.06168,0.08743
4205.99015,0.08745
4207.91861,0.08156
4209.84708,0.07698
4211.77555,0.07558
4213.70402,0.07316
4215.63249,0.07093
4217.56096,0.06761
4219.48943,0.06191
4221.41789,0.06156
4223.34636,0.07097
4225.27483,0.08180
4227.20330,0.08296
4229.13177,0.07230
4231.06024,0.05835
4232.98871,0.05228
4234.91718,0.05729
4236.84564,0.06745
4238.77411,0.07229
4240.70258,0.06991
4242.63105,0.06713
4244.55952,0.06421
4246.48799,0.06193
4248.41646,0.06266
4250.34492,0.06078
4252.27339,0.05384
4254.20186,0.04670
4256.13033,0.04663
4258.05880,0.05498
4259.98727,0.06143
4261.91574,0.06139
4263.84421,0.06170
4265.77267,0.06453
4267.70114,0.06240
4269.62961,0.05521
4271.55808,0.05448
4273.48655,0.05812
4275.41502,0.05750
4277.34349,0.05625
4279.27195,0.05893
4281.20042,0.06303
4283.12889,0.06329
4285.05736,0.05940
4286.98583,0.05575
4288.91430,0.05658
4290.84277,0.06004
4292.77124,0.06145
4294.69970,0.06321
4296.62817,0.06560
4298.55664,0.06484
4300.48511,0.06329
4302.41358,0.06289
4304.34205,0.06353
4306.27052,0.06434
4308.19898,0.05917
4310.12745,0.04953
4312.05592,0.04395
4313.98439,0.04123
4315.91286,0.04037
4317.84133,0.04531
4319.76980,0.05383
4321.69827,0.06076
4323.62673,0.06254
4325.55520,0.06003
4327.48367,0.05559
4329.41214,0.04519
4331.34061,0.03562
4333.26908,0.03997
4335.19755,0.05074
4337.12601,0.05505
4339.05448,0.05336
4340.98295,0.05007
4342.91142,0.04733
4344.83989,0.04885
4346.76836,0.05298
4348.69683,0.05215
4350.62530,0.04517
4352.55376,0.03823
4354.48223,0.03604
4356.41070,0.03570
4358.33917,0.03751
4360.26764,0.04175
4362.19611,0.04167
4364.12458,0.03624
4366.05304,0.02911
4367.98151,0.02556
4369.90998,0.02773
4371.83845,0.03018
4373.76692,0.03335
4375.69539,0.03988
4377.62386,0.04284
4379.55232,0.04162
4381.48079,0.04142
4383.40926,0.03964
4385.33773,0.03725
4387.26620,0.03589
4389.19467,0.03334
4391.12314,0.03063
4393.05161,0.03013
4394.98007,0.03310
4396.90854,0.03842
4398.83701,0.04736
4400.76548,0.05385
4402.69395,0.04634
4404.62242,0.03388
4406.55089,0.02686
4408.47935,0.02283
4410.40782,0.02557
4412.33629,0.03056
4414.26476,0.02826
4416.19323,0.02567
4418.12170,0.02939
4420.05017,0.03826
4421.97864,0.04786
4423.90710,0.04916
4425.83557,0.04219
4427.76404,0.03568
4429.69251,0.02986
4431.62098,0.02463
4433.54945,0.02553
4435.47792,0.02970
4437.40638,0.03227
4439.33485,0.03195
4441.26332,0.02930
4443.19179,0.03297
4445.12026,0.04257
4447.04873,0.04544
4448.97720,0.04016
4450.90567,0.03079
4452.83413,0.02226
4454.76260,0.02252
4456.69107,0.03006
4458.61954,0.03689
4460.54801,0.03918
4462.47648,0.03615
4464.40495,0.02949
4466.33341,0.02629
4468.26188,0.02939
4470.19035,0.03254
4472.11882,0.02873
4474.04729,0.01985
4475.97576,0.01618
4477.90423,0.01921
4479.83270,0.02258
4481.76116,0.02131
4483.68963,0.01777
4485.61810,0.02257
4487.54657,0.03127
4489.47504,0.03395
4491.40351,0.03383
4493.33198,0.03145
4495.26044,0.02500
4497.18891,0.02023
4499.11738,0.02104
4501.04585,0.02206
4502.97432,0.02249
4504.90279,0.02594
4506.83126,0.02840
4508.75973,0.02726
4510.68819,0.02442
4512.61666,0.02185
4514.54513,0.01904
4516.47360,0.01595
4518.40207,0.01967
4520.33054,0.02856
4522.25901,0.03229
4524.18747,0.02978
4526.11594,0.02426
4528.04441,0.01907
4529.97288,0.01632
4531.90135,0.01555
4533.82982,0.01763
4535.75829,0.02180
4537.68676,0.02061
4539.61522,0.00708
4541.54369,-0.00880
4543.47216,-0.00801
4545.40063,0.00600
4547.32910,0.01137
4549.25757,0.00736
4551.18604,0.01160
4553.11450,0.02457
4555.04297,0.03145
4556.97144,0.02734
4558.89991,0.02050
4560.82838,0.01799
4562.75685,0.02030
4564.68532,0.02317
4566.61378,0.02569
4568.54225,0.02855
4570.47072,0.02369
4572.39919,0.01029
4574.32766,0.00233
4576.25613,0.01011
4578.18460,0.02208
4580.11307,0.01772
4582.04153,0.00613
4583.97000,0.00618
4585.89847,0.00996
4587.82694,0.00847
4589.75541,0.01000
4591.68388,0.01786
4593.61235,0.02153
4595.54081,0.01926
4597.46928,0.01936
4599.39775,0.01962
4601.32622,0.01066
4603.25469,-0.00506
4605.18316,-0.01009
4607.11163,0.00164
4609.04010,0.01326
4610.96856,0.01054
4612.89703,0.00321
4614.82550,0.00679
4616.75397,0.01517
4618.68244,0.01726
4620.61091,0.01604
4622.53938,0.01555
4624.46784,0.01191
4626.39631,0.00733
4628.32478,0.01114
4630.25325,0.01826
4632.18172,0.01970
4634.11019,0.01678
4636.03866,0.01496
4637.96713,0.01745
4639.89559,0.01941
4641.82406,0.01899
4643.75253,0.01806
4645.68100,0.01328
4647.60947,0.00751
4649.53794,0.00601
4651.46641,0.00408
4653.39487,0.00069
4655.32334,0.00274
4657.25181,0.00972
4659.18028,0.01448
4661.10875,0.01627
4663.03722,0.01649
4664.96569,0.01333
4666.89416,0.01004
4668.82262,0.00554
4670.75109,-0.00036
4672.67956,0.00111
4674.60803,-0.00005
4676.53650,-0.00948
4678.46497,-0.00946
4680.39344,-0.00089
4682.32190,0.00295
4684.25037,0.00158
4686.17884,0.00033
4688.10731,0.00567
4690.03578,0.01945
4691.96425,0.02956
4693.89272,0.02129
4695.82119,0.00469
4697.74965,-0.00139
4699.67812,0.00222
4701.60659,0.01364
4703.53506,0.02893
4705.46353,0.03470
4707.39200,0.03333
4709.32047,0.02715
4711.24893,0.01332
4713.17740,0.00617
4715.10587,0.00678
4717.03434,0.00221
4718.96281,-0.00047
4720.89128,0.00755
4722.81975,0.01912
4724.74821,0.02865
4726.67668,0.03331
4728.60515,0.02603
4730.53362,0.01401
4732.46209,0.01081
4734.39056,0.00925
4736.31903,0.00067
4738.24750,-0.00878
4740.17596,-0.01252
4742.10443,-0.00281
4744.03290,0.01860
4745.96137,0.03328
4747.88984,0.03027
4749.81831,0.01292
4751.74678,-0.00894
4753.67524,-0.02320
4755.60371,-0.02370
4757.53218,-0.01498
4759.46065,-0.00396
4761.38912,0.00261
4763.31759,-0.00185
4765.24606,-0.00724
4767.17453,0.00313
4769.10299,0.01765
4771.03146,0.01259
4772.95993,-0.00050
4774.88840,0.00456
4776.81687,0.02058
4778.74534,0.02481
4780.67381,0.01832
4782.60227,0.01282
4784.53074,0.00545
4786.45921,0.00182
4788.38768,0.00201
4790.31615,-0.00546
4792.24462,-0.00392
4794.17309,0.01249
4796.10156,0.01850
4798.03002,0.00791
4799.95849,-0.00329
4801.88696,-0.00436
4803.81543,0.00164
4805.74390,0.00230
4807.67237,-0.00941
4809.60084,-0.01425
4811.52930,0.00092
4813.45777,0.00950
4815.38624,0.00430
4817.31471,0.00923
4819.24318,0.02020
4821.17165,0.02382
4823.10012,0.02443
4825.02859,0.02304
4826.95705,0.01677
4828.88552,0.00883
4830.81399,0.00514
4832.74246,0.00748
4834.67093,0.00967
4836.59940,0.00648
4838.52787,0.00182
4840.45633,-0.00025
4842.38480,-0.00316
4844.31327,-0.01038
4846.24174,-0.00999
4848.17021,0.00502
4850.09868,0.01784
4852.02715,0.02223
4853.95562,0.02255
4855.88408,0.01497
4857.81255,0.00687
4859.74102,0.01137
4861.66949,0.02119
4863.59796,0.02272
4865.52643,0.01811
4867.45490,0.01023
4869.38336,0.00854
4871.31183,0.02050
4873.24030,0.02623
4875.16877,0.01581
4877.09724,0.00147
4879.02571,-0.00727
4880.95418,-0.00103
4882.88265,0.01248
4884.81111,0.01482
4886.73958,0.01256
4888.66805,0.02134
4890.59652,0.03600
4892.52499,0.03913
4894.45346,0.02557
4896.38193,0.01250
4898.31039,0.01594
4900.23886,0.02077
4902.16733,0.01369
4904.09580,0.01282
4906.02427,0.02200
4907.95274,0.02303
4909.88121,0.01739
4911.80967,0.01576
4913.73814,0.01837
4915.66661,0.02226
4917.59508,0.01989
4919.52355,0.00830
4921.45202,0.00418
4923.38049,0.01562
4925.30896,0.03169
4927.23742,0.03910
4929.16589,0.02916
4931.09436,0.01328
4933.02283,0.00154
4934.95130,-0.01372
4936.87977,-0.02426
4938.80824,-0.01667
4940.73670,-0.00344
4942.66517,0.00063
4944.59364,-0.00332
4946.52211,-0.00534
4948.45058,0.00521
4950.37905,0.01798
4952.30752,0.01890
4954.23599,0.01977
4956.16445,0.02834
4958.09292,0.03432
4960.02139,0.03401
4961.94986,0.02945
4963.87833,0.02034
4965.80680,0.01535
4967.73527,0.02062
4969.66373,0.02703
4971.59220,0.02704
4973.52067,0.01843
4975.44914,0.01065
4977.37761,0.01430
4979.30608,0.02146
4981.23455,0.02736
4983.16302,0.03236
4985.09148,0.03086
4987.01995,0.02286
4988.94842,0.01551
4990.87689,0.01456
4992.80536,0.01677
4994.73383,0.01933
4996.66230,0.02420
4998.59076,0.02409
5000.51923,0.01356
5002.44770,0.00687
5004.37617,0.01818
5006.30464,0.03377
5008.23311,0.03070
5010.16158,0.00753
5012.09005,-0.00543
5014.01851,0.01495
5015.94698,0.04083
5017.87545,0.04205
5019.80392,0.02745
5021.73239,0.01733
5023.66086,0.01714
5025.58933,0.01684
5027.51779,0.01675
5029.44626,0.01850
5031.37473,0.01225
5033.30320,0.00573
5035.23167,0.01593
5037.16014,0.03573
5039.08861,0.04091
5041.01708,0.02774
5042.94554,0.01707
5044.87401,0.01628
5046.80248,0.01713
5048.73095,0.01634
5050.65942,0.02003
5052.58789,0.02470
5054.51636,0.01596
5056.44482,0.00282
5058.37329,0.00578
5060.30176,0.01840
5062.23023,0.02209
5064.15870,0.01386
5066.08717,0.00013
5068.01564,-0.00730
5069.94410,-0.00483
5071.87257,-0.00477
5073.80104,-0.00208
5075.72951,0.01474
5077.65798,0.02901
5079.58645,0.02520
5081.51492,0.01795
5083.44339,0.02467
5085.37185,0.03384
5087.30032,0.02931
5089.22879,0.01995
5091.15726,0.01712
5093.08573,0.01489
5095.01420,0.00682
5096.94267,-0.00057
5098.87113,0.00634
5100.79960,0.02776
5102.72807,0.04389
5104.65654,0.05033
5106.58501,0.05762
5108.51348,0.05881
5110.44195,0.04701
5112.37042,0.03652
5114.29888,0.03718
5116.22735,0.03325
5118.15582,0.01530
5120.08429,0.00587
5122.01276,0.01453
5123.94123,0.01616
5125.86970,0.00707
5127.79816,0.01182
5129.72663,0.03000
5131.65510,0.03465
5133.58357,0.02205
5135.51204,0.01900
5137.44051,0.02936
5139.36898,0.03722
5141.29745,0.03801
5143.22591,0.03067
5145.15438,0.02367
5147.08285,0.03058
5149.01132,0.04612
5150.93979,0.05776
5152.86826,0.06992
5154.79673,0.07411
5156.72519,0.05146
5158.65366,0.03097
5160.58213,0.03522
5162.51060,0.03671
5164.43907,0.02735
5166.36754,0.02878
5168.29601,0.04144
5170.22448,0.04823
5172.15294,0.04632
5174.08141,0.04359
5176.00988,0.04065
5177.93835,0.03737
5179.86682,0.03840
5181.79529,0.03756
5183.72376,0.02183
5185.65222,0.00823
5187.58069,0.01822
5189.50916,0.04117
5191.43763,0.06479
5193.36610,0.07132
5195.29457,0.05578
5197.22304,0.04291
5199.15151,0.04310
5201.07997,0.04904
5203.00844,0.05764
5204.93691,0.06762
5206.86538,0.07653
5208.79385,0.07165
5210.72232,0.05784
5212.65079,0.06369
5214.57925,0.07919
5216.50772,0.07085
5218.43619,0.05416
5220.36466,0.05537
5222.29313,0.06588
5224.22160,0.07858
5226.15007,0.08719
5228.07854,0.08194
5230.00700,0.07274
5231.93547,0.06880
5233.86394,0.05206
5235.79241,0.02532
5237.72088,0.02550
5239.64935,0.04546
5241.57782,0.05522
5243.50628,0.06010
5245.43475,0.05966
5247.36322,0.04550
5249.29169,0.03325
5251.22016,0.02904
5253.14863,0.02785
5255.07710,0.03870
5257.00556,0.05757
5258.93403,0.07398
5260.86250,0.08600
5262.79097,0.07963
5264.71944,0.05372
5266.64791,0.03440
5268.57638,0.03319
5270.50485,0.04334
5272.43331,0.05443
5274.36178,0.06328
5276.29025,0.06719
5278.21872,0.06056
5280.14719,0.04814
5282.07566,0.03941
5284.00413,0.03611
5285.93259,0.03103
5287.86106,0.02643
5289.78953,0.03496
5291.71800,0.04938
5293.64647,0.05043
5295.57494,0.04446
5297.50341,0.04916
5299.43188,0.05661
5301.36034,0.05025
5303.28881,0.04152
5305.21728,0.04549
5307.14575,0.05579
5309.07422,0.05629
5311.00269,0.05247
5312.93116,0.05697
5314.85962,0.05190
5316.78809,0.03190
5318.71656,0.02655
5320.64503,0.03835
5322.57350,0.04448
5324.50197,0.04206
5326.43044,0.03793
5328.35891,0.03706
5330.28737,0.05349
5332.21584,0.08119
5334.14431,0.09428
5336.07278,0.09830
5338.00125,0.10499
5339.92972,0.09680
5341.85819,0.07346
5343.78665,0.05954
5345.71512,0.06191
5347.64359,0.04932
5349.57206,0.03491
5351.50053,0.05928
5353.42900,0.08944
5355.35747,0.08781
5357.28594,0.08671
5359.21440,0.08090
5361.14287,0.05991
5363.07134,0.05100
5364.99981,0.05164
5366.92828,0.04542
5368.85675,0.04399
5370.78522,0.05251
5372.71368,0.06149
5374.64215,0.07298
5376.57062,0.09070
5378.49909,0.09426
5380.42756,0.08226
5382.35603,0.07322
5384.28450,0.05984
5386.21297,0.03798
5388.14143,0.04681
5390.06990,0.08357
5391.99837,0.09654
5393.92684,0.08079
5395.85531,0.08048
5397.78378,0.07996
5399.71225,0.05980
5401.64071,0.04900
5403.56918,0.04859
5405.49765,0.05035
5407.42612,0.06472
5409.35459,0.08257
5411.28306,0.09666
5413.21153,0.11371
5415.13999,0.11790
5417.06846,0.10420
5418.99693,0.09001
5420.92540,0.07266
5422.85387,0.05280
5424.78234,0.05100
5426.71081,0.07267
5428.63928,0.09801
5430.56774,0.10895
5432.49621,0.11678
5434.42468,0.11425
5436.35315,0.09296
5438.28162,0.07634
5440.21009,0.06640
5442.13856,0.05994
5444.06702,0.05717
5445.99549,0.05416
5447.92396,0.06385
5449.85243,0.08048
5451.78090,0.08071
5453.70937,0.08508
5455.63784,0.10578
5457.56631,0.09928
5459.49477,0.06623
5461.42324,0.05660
5463.35171,0.06314
5465.28018,0.05611
5467.20865,0.04363
5469.13712,0.03786
5471.06559,0.03295
5472.99405,0.02906
5474.92252,0.02817
5476.85099,0.03273
5478.77946,0.05471
5480.70793,0.07528
5482.63640,0.06457
5484.56487,0.04252
5486.49334,0.04311
5488.42180,0.06495
5490.35027,0.07983
5492.27874,0.07417
5494.20721,0.07079
5496.13568,0.07646
5498.06415,0.07816
5499.99262,0.07589
5501.92108,0.07189
5503.84955,0.05304
5505.77802,0.01048
5507.70649,-0.01875
5509.63496,-0.00582
5511.56343,0.02196
5513.49190,0.05220
5515.42037,0.07070
5517.34883,0.05457
5519.27730,0.03879
5521.20577,0.05777
5523.13424,0.08728
5525.06271,0.09899
5526.99118,0.09498
5528.91965,0.08510
5530.84811,0.07704
5532.77658,0.07840
5534.70505,0.08868
5536.63352,0.10399
5538.56199,0.11037
5540.49046,0.09440
5542.41893,0.06962
5544.34740,0.05319
5546.27586,0.04936
5548.20433,0.05321
5550.13280,0.05287
5552.06127,0.05319
5553.98974,0.06552
5555.91821,0.08706
5557.84668,0.10412
5559.77514,0.10806
5561.70361,0.10657
5563.63208,0.11368
5565.56055,0.12498
5567.48902,0.11399
5569.41749,0.09742
5571.34596,0.11212
5573.27443,0.11792
5575.20289,0.07667
5577.13136,0.04112
5579.05983,0.04078
5580.98830,0.05067
5582.91677,0.05899
5584.84524,0.06208
5586.77371,0.05968
5588.70217,0.06015
5590.63064,0.06543
5592.55911,0.07898
5594.48758,0.08558
5596.41605,0.07589
5598.34452,0.07561
5600.27299,0.08417
5602.20145,0.08547
5604.12992,0.07635
5606.05839,0.05416
5607.98686,0.03348
5609.91533,0.04121
5611.84380,0.09204
5613.77227,0.14511
5615.70074,0.15838
5617.62920,0.15075
5619.55767,0.12629
5621.48614,0.08487
5623.41461,0.06166
5625.34308,0.06215
5627.27155,0.06381
5629.20002,0.06975
5631.12848,0.08260
5633.05695,0.09892
5634.98542,0.12286
5636.91389,0.12143
5638.84236,0.07101
5640.77083,0.01884
5642.69930,-0.00032
5644.62777,0.00659
5646.55623,0.03742
5648.48470,0.08004
5650.41317,0.09859
5652.34164,0.08818
5654.27011,0.08358
5656.19858,0.08052
5658.12705,0.06602
5660.05551,0.06670
5661.98398,0.07500
5663.91245,0.06314
5665.84092,0.05057
5667.76939,0.05479
5669.69786,0.07640
5671.62633,0.11449
5673.55480,0.12913
5675.48326,0.08742
5677.41173,0.03644
5679.34020,0.03544
5681.26867,0.07575
5683.19714,0.10795
5685.12561,0.11129
5687.05408,0.11666
5688.98254,0.13662
5690.91101,0.14621
5692.83948,0.14132
5694.76795,0.14206
5696.69642,0.14805
5698.62489,0.14061
5700.55336,0.12568
5702.48183,0.11226
5704.41029,0.10145
5706.33876,0.10194
5708.26723,0.10081
5710.19570,0.08988
5712.12417,0.08110
5714.05264,0.07995
5715.98111,0.09290
5717.90957,0.09908
5719.83804,0.08094
5721.76651,0.07074
5723.69498,0.07795
5725.62345,0.07383
5727.55192,0.05430
5729.48039,0.03722
5731.40886,0.02225
5733.33732,0.01747
5735.26579,0.03472
5737.19426,0.05945
5739.12273,0.07445
5741.05120,0.07339
5742.97967,0.08863
5744.90814,0.12389
5746.83660,0.12725
5748.76507,0.11634
5750.69354,0.13334
5752.62201,0.14349
5754.55048,0.11893
5756.47895,0.08112
5758.40742,0.06758
5760.33588,0.09062
5762.26435,0.11536
5764.19282,0.11785
5766.12129,0.11910
5768.04976,0.13496
5769.97823,0.13393
5771.90670,0.10009
5773.83517,0.07874
5775.76363,0.07136
5777.69210,0.06143
5779.62057,0.08154
5781.54904,0.11728
5783.47751,0.12770
5785.40598,0.12647
5787.33445,0.12309
5789.26291,0.09416
5791.19138,0.05178
5793.11985,0.03377
5795.04832,0.03861
5796.97679,0.06172
5798.90526,0.10698
5800.83373,0.14190
5802.76220,0.13611
5804.69066,0.10271
5806.61913,0.08054
5808.54760,0.08828
5810.47607,0.09775
5812.40454,0.08192
5814.33301,0.06921
5816.26148,0.07340
5818.18994,0.06326
5820.11841,0.05220
5822.04688,0.04541
5823.97535,0.02626
5825.90382,0.03595
5827.83229,0.07667
5829.76076,0.11307
5831.68923,0.13215
5833.61769,0.12014
5835.54616,0.09099
5837.47463,0.06103
5839.40310,0.03593
5841.33157,0.05116
5843.26004,0.08955
5845.18851,0.09438
5847.11697,0.07477
5849.04544,0.05319
5850.97391,0.03472
5852.90238,0.02581
5854.83085,0.01772
5856.75932,0.02099
5858.68779,0.05392
5860.61626,0.08333
5862.54472,0.08242
5864.47319,0.08767
5866.40166,0.10343
5868.33013,0.09654
5870.25860,0.09010
5872.18707,0.10306
5874.11554,0.10842
5876.04400,0.09703
5877.97247,0.08600
5879.90094,0.08455
5881.82941,0.08494
5883.75788,0.06627
5885.68635,0.04308
5887.61482,0.05077
5889.54329,0.06260
5891.47175,0.04266
5893.40022,0.02078
5895.32869,0.04743
5897.25716,0.11241
5899.18563,0.15392
5901.11410,0.15799
5903.04257,0.13849
5904.97103,0.11581
5906.89950,0.11519
5908.82797,0.11290
5910.75644,0.10158
5912.68491,0.11273
5914.61338,0.13021
5916.54185,0.12660
5918.47032,0.10406
5920.39878,0.06274
5922.32725,0.03154
5924.25572,0.05467
5926.18419,0.10810
5928.11266,0.12702
5930.04113,0.10060
5931.96960,0.07084
5933.89806,0.06413
5935.82653,0.06627
5937.75500,0.05492
5939.68347,0.03201
5941.61194,0.02031
5943.54041,0.03657
5945.46888,0.05373
5947.39734,0.04590
5949.32581,0.03671
5951.25428,0.03524
5953.18275,0.03480
5955.11122,0.05495
5957.03969,0.09227
5958.96816,0.12995
5960.89663,0.14681
5962.82509,0.12055
5964.75356,0.07656
5966.68203,0.05729
5968.61050,0.07645
5970.53897,0.11754
5972.46744,0.13209
5974.39591,0.10495
5976.32437,0.08530
5978.25284,0.07526
5980.18131,0.04587
5982.10978,0.01879
5984.03825,0.03562
5985.96672,0.08058
5987.89519,0.09138
5989.82366,0.07255
5991.75212,0.07594
5993.68059,0.10631
5995.60906,0.14047
5997.53753,0.15926
5999.46600,0.15648
6001.39447,0.14717
6003.32294,0.13174
6005.25140,0.09205
6007.17987,0.06242
6009.10834,0.08945
6011.03681,0.14766
6012.96528,0.17279
6014.89375,0.15937
6016.82222,0.16370
6018.75069,0.17471
6020.67915,0.13803
6022.60762,0.09499
6024.53609,0.08898
6026.46456,0.09723
6028.39303,0.08794
6030.32150,0.04981
6032.24997,0.02521
6034.17843,0.06200
6036.10690,0.12192
6038.03537,0.14009
6039.96384,0.10941
6041.89231,0.05881
6043.82078,0.03245
6045.74925,0.04243
6047.67772,0.06432
6049.60618,0.08668
6051.53465,0.10977
6053.46312,0.11348
6055.39159,0.09583
6057.32006,0.11447
6059.24853,0.15107
6061.17700,0.13282
6063.10546,0.09361
6065.03393,0.06147
6066.96240,0.02991
6068.89087,0.04045
6070.81934,0.07086
6072.74781,0.08209
6074.67628,0.09785
6076.60475,0.11136
6078.53321,0.11630
6080.46168,0.12350
6082.39015,0.11312
6084.31862,0.07762
6086.24709,0.05286
6088.17556,0.06525
6090.10403,0.08762
6092.03249,0.10265
6093.96096,0.10630
6095.88943,0.08777
6097.81790,0.04993
6099.74637,0.02626
6101.67484,0.05509
6103.60331,0.11163
6105.53177,0.14964
6107.46024,0.14847
6109.38871,0.13235
6111.31718,0.13695
6113.24565,0.11962
6115.17412,0.05775
6117.10259,0.01633
6119.03106,0.01844
6120.95952,0.01274
6122.88799,0.01241
6124.81646,0.03312
6126.74493,0.05901
6128.67340,0.11056
6130.60187,0.15119
6132.53034,0.13079
6134.45880,0.09069
6136.38727,0.07012
6138.31574,0.05214
6140.24421,0.03919
6142.17268,0.08278
6144.10115,0.15603
6146.02962,0.15692
6147.95809,0.06479
6149.88655,-0.05331
6151.81502,-0.10366
6153.74349,-0.07216
6155.67196,-0.04066
6157.60043,-0.02734
6159.52890,0.00131
6161.45737,0.04552
6163.38583,0.11251
6165.31430,0.16122
6167.24277,0.13816
6169.17124,0.09504
6171.09971,0.09144
6173.02818,0.12763
6174.95665,0.16734
6176.88512,0.17219
6178.81358,0.13609
6180.74205,0.10114
6182.67052,0.10508
6184.59899,0.13182
6186.52746,0.14778
6188.45593,0.14407
6190.38440,0.16307
6192.31286,0.19414
6194.24133,0.14543
6196.16980,0.05481
6198.09827,0.05537
6200.02674,0.10793
6201.95521,0.10871
6203.88368,0.08051
6205.81215,0.05880
6207.74061,0.04644
6209.66908,0.06937
6211.59755,0.08839
6213.52602,0.05519
6215.45449,0.03177
6217.38296,0.06608
6219.31143,0.09474
6221.23989,0.06444
6223.16836,0.03307
6225.09683,0.04722
6227.02530,0.05357
6228.95377,0.05080
6230.88224,0.06661
6232.81071,0.06694
6234.73918,0.06330
6236.66764,0.08832
6238.59611,0.09994
6240.52458,0.07057
6242.45305,0.04794
6244.38152,0.04153
6246.30999,0.01938
6248.23846,0.01319
6250.16692,0.05314
6252.09539,0.09478
6254.02386,0.09816
6255.95233,0.09952
6257.88080,0.11904
6259.80927,0.11039
6261.73774,0.06777
6263.66621,0.03919
6265.59467,0.02521
6267.52314,-0.00300
6269.45161,-0.02800
6271.38008,-0.01962
6273.30855,0.05873
6275.23702,0.17734
6277.16549,0.21988
6279.09395,0.18054
6281.02242,0.15529
6282.95089,0.16358
6284.87936,0.14371
6286.80783,0.08577
6288.73630,0.03596
6290.66477,0.03529
6292.59323,0.06202
6294.52170,0.05940
6296.45017,0.04645
6298.37864,0.07307
6300.30711,0.14195
6302.23558,0.17949
6304.16405,0.10935
6306.09252,0.02125
6308.02098,0.04474
6309.94945,0.12027
6311.87792,0.13088
6313.80639,0.12343
6315.73486,0.14065
6317.66333,0.14423
6319.59180,0.14840
6321.52026,0.15947
6323.44873,0.16963
6325.37720,0.19770
6327.30567,0.19060
6329.23414,0.12109
6331.16261,0.09394
6333.09108,0.15099
6335.01955,0.18728
6336.94801,0.13347
6338.87648,0.05169
6340.80495,0.02098
6342.73342,0.03304
6344.66189,0.04244
6346.59036,0.03715
6348.51883,0.06251
6350.44729,0.12143
6352.37576,0.13693
6354.30423,0.11704
6356.23270,0.11700
6358.16117,0.10773
6360.08964,0.04984
6362.01811,-0.00354
6363.94658,0.01158
6365.87504,0.08140
6367.80351,0.13063
6369.73198,0.12051
6371.66045,0.11404
6373.58892,0.13884
6375.51739,0.15508
6377.44586,0.18655
6379.37432,0.25207
6381.30279,0.28897
6383.23126,0.24738
6385.15973,0.17483
6387.08820,0.12848
6389.01667,0.10300
6390.94514,0.05598
6392.87361,-0.03437
6394.80207,-0.08515
6396.73054,-0.05348
6398.65901,-0.00586
6400.58748,0.02066
6402.51595,0.04481
6404.44442,0.09580
6406.37289,0.15949
6408.30135,0.17270
6410.22982,0.12460
6412.15829,0.09294
6414.08676,0.11743
6416.01523,0.14673
6417.94370,0.12047
6419.87217,0.03476
6421.80064,-0.05342
6423.72910,-0.08610
6425.65757,-0.02885
6427.58604,0.08057
6429.51451,0.16527
6431.44298,0.21023
6433.37145,0.19774
6435.29992,0.09159
6437.22838,0.01389
6439.15685,0.07988
6441.08532,0.16629
6443.01379,0.17412
6444.94226,0.14824
6446.87073,0.13299
6448.79920,0.10101
6450.72766,0.08064
6452.65613,0.08854
6454.58460,0.07216
6456.51307,0.04147
6458.44154,0.03307
6460.37001,0.05220
6462.29848,0.07091
6464.22695,0.04006
6466.15541,-0.00764
6468.08388,0.01994
6470.01235,0.08906
6471.94082,0.09324
6473.86929,0.07217
6475.79776,0.10411
6477.72623,0.19038
6479.65469,0.24879
6481.58316,0.17990
6483.51163,0.04306
6485.44010,-0.01941
6487.36857,-0.00145
6489.29704,0.02835
6491.22551,0.02464
6493.15398,-0.00665
6495.08244,0.00466
6497.01091,0.05713
6498.93938,0.08352
6500.86785,0.05022
6502.79632,-0.01815
6504.72479,-0.00822
6506.65326,0.08354
6508.58172,0.12604
6510.51019,0.09743
6512.43866,0.06994
6514.36713,0.07292
6516.29560,0.09757
6518.22407,0.09767
6520.15254,0.05870
6522.08101,0.03017
6524.00947,0.05310
6525.93794,0.10101
6527.86641,0.10557
6529.79488,0.06424
6531.72335,0.01664
6533.65182,0.02482
6535.58029,0.09989
6537.50875,0.14560
6539.43722,0.13470
6541.36569,0.09598
6543.29416,0.04384
6545.22263,0.04872
6547.15110,0.07901
6549.07957,0.04522
6551.00804,-0.00566
6552.93650,-0.02330
6554.86497,-0.00948
6556.79344,0.07446
6558.72191,0.15784
6560.65038,0.17980
6562.57885,0.19707
6564.50732,0.22691
6566.43578,0.24931
6568.36425,0.22725
6570.29272,0.14211
6572.22119,0.06121
6574.14966,0.06443
6576.07813,0.08537
6578.00660,0.00532
6579.93507,-0.09083
6581.86353,-0.04650
6583.79200,0.09185
6585.72047,0.17583
6587.64894,0.17726
6589.57741,0.14517
6591.50588,0.13121
6593.43435,0.13047
6595.36281,0.10839
6597.29128,0.09190
6599.21975,0.10282
6601.14822,0.12321
6603.07669,0.13179
6605.00516,0.13824
6606.93363,0.12440
6608.86210,0.08301
6610.79056,0.07967
6612.71903,0.08485
6614.64750,0.04411
6616.57597,0.02165
6618.50444,0.04261
6620.43291,0.08353
6622.36138,0.13109
6624.28984,0.16172
6626.21831,0.14624
6628.14678,0.07008
6630.07525,-0.01232
6632.00372,-0.04397
6633.93219,-0.01849
6635.86066,0.06685
6637.78912,0.13746
6639.71759,0.13236
6641.64606,0.09084
6643.57453,0.05468
6645.50300,0.06448
6647.43147,0.09524
6649.35994,0.03732
6651.28841,-0.06587
6653.21687,-0.05333
6655.14534,0.08096
6657.07381,0.12438
6659.00228,0.02732
6660.93075,0.02166
6662.85922,0.09710
6664.78769,0.12654
6666.71615,0.09904
6668.64462,0.02541
6670.57309,-0.01314
6672.50156,0.00531
6674.43003,-0.02380
6676.35850,-0.07805
6678.28697,-0.07270
6680.21544,-0.01562
6682.14390,0.02466
6684.07237,0.03269
6686.00084,0.06905
6687.92931,0.11681
6689.85778,0.10241
6691.78625,0.04157
6693.71472,0.00138
6695.64318,0.01537
6697.57165,0.01561
6699.50012,-0.04273
6701.42859,-0.05306
6703.35706,0.02524
6705.28553,0.08696
6707.21400,0.10989
6709.14247,0.17645
6711.07093,0.24129
6712.99940,0.22088
6714.92787,0.15646
6716.85634,0.13412
6718.78481,0.13347
6720.71328,0.07832
6722.64175,-0.00332
6724.57021,-0.03900
6726.49868,-0.00378
6728.42715,0.08948
6730.35562,0.16413
6732.28409,0.16629
6734.21256,0.15833
6736.14103,0.17908
6738.06950,0.18814
6739.99796,0.17728
6741.92643,0.16855
6743.85490,0.14203
6745.78337,0.08231
6747.71184,0.03161
6749.64031,0.04693
6751.56878,0.09453
6753.49724,0.09878
6755.42571,0.07586
6757.35418,0.05444
6759.28265,-0.00519
6761.21112,-0.07553
6763.13959,-0.05366
6765.06806,0.03940
6766.99653,0.13284
6768.92499,0.18894
6770.85346,0.16059
6772.78193,0.10941
6774.71040,0.14268
6776.63887,0.15397
6778.56734,0.05206
6780.49581,-0.04117
6782.42427,-0.06381
6784.35274,-0.03841
6786.28121,0.01775
6788.20968,0.10251
6790.13815,0.20758
6792.06662,0.22223
6793.99509,0.12456
6795.92355,0.06998
6797.85202,0.09628
6799.78049,0.07956
6801.70896,0.01844
6803.63743,0.04919
6805.56590,0.10211
6807.49437,0.07525
6809.42284,0.05133
6811.35130,0.11123
6813.27977,0.19004
6815.20824,0.18751
6817.13671,0.12496
6819.06518,0.06595
6820.99365,0.05273
6822.92212,0.07030
6824.85058,0.06445
6826.77905,0.06829
6828.70752,0.16196
6830.63599,0.28650
6832.56446,0.28773
6834.49293,0.17402
6836.42140,0.05798
6838.34987,0.02728
6840.27833,0.03113
6842.20680,0.05944
6844.13527,0.13397
6846.06374,0.19720
6847.99221,0.23756
6849.92068,0.23804
6851.84915,0.17656
6853.77761,0.12413
6855.70608,0.12192
6857.63455,0.12909
6859.56302,0.14109
6861.49149,0.15634
6863.41996,0.13190
6865.34843,0.08821
6867.27690,0.05858
6869.20536,0.06290
6871.13383,0.08255
6873.06230,0.06708
6874.99077,0.05747
6876.91924,0.10571
6878.84771,0.12273
6880.77618,0.04346
6882.70464,-0.02185
6884.63311,-0.05067
6886.56158,-0.09656
6888.49005,-0.12644
6890.41852,-0.08630
6892.34699,-0.02530
6894.27546,-0.01167
6896.20393,0.00825
6898.13239,0.05818
6900.06086,0.07281
6901.98933,0.04856
6903.91780,-0.01122
6905.84627,-0.11781
6907.77474,-0.15724
6909.70321,-0.09637
6911.63167,-0.04358
6913.56014,0.00768
6915.48861,0.08597
6917.41708,0.16141
6919.34555,0.20187
6921.27402,0.17041
6923.20249,0.14025
6925.13096,0.12532
6927.05942,0.04302
6928.98789,-0.02933
6930.91636,0.02803
6932.84483,0.05025
6934.77330,-0.02705
6936.70177,-0.02080
6938.63024,0.06636
6940.55870,0.14071
6942.48717,0.21385
6944.41564,0.28822
6946.34411,0.33019
6948.27258,0.28591
6950.20105,0.14921
6952.12952,0.08490
6954.05799,0.14418
6955.98645,0.16147
6957.91492,0.12530
6959.84339,0.09476
6961.77186,0.04431
6963.70033,-0.00090
6965.62880,-0.00697
6967.55727,0.03012
6969.48573,0.04966
6971.41420,0.01836
6973.34267,0.00863
6975.27114,0.06497
6977.19961,0.16590
6979.12808,0.23565
6981.05655,0.23602
6982.98501,0.18410
6984.91348,0.05855
6986.84195,-0.10418
6988.77042,-0.16653
6990.69889,-0.08279
6992.62736,0.01237
6994.55583,-0.00507
6996.48430,-0.08843
6998.41276,-0.04572
7000.34123,0.12687
7002.26970,0.20144
7004.19817,0.17068
7006.12664,0.13192
7008.05511,0.07546
7009.98358,0.01490
7011.91204,-0.01661
7013.84051,-0.02998
7015.76898,-0.07265
7017.69745,-0.09744
7019.62592,-0.03549
7021.55439,0.04322
7023.48286,0.05227
7025.41133,0.02087
7027.33979,0.07280
7029.26826,0.20822
7031.19673,0.27873
7033.12520,0.23688
7035.05367,0.13012
7036.98214,0.09959
7038.91061,0.10862
7040.83907,0.01584
7042.76754,-0.10837
7044.69601,-0.14207
7046.62448,-0.16053
7048.55295,-0.13891
7050.48142,-0.06653
7052.40989,0.00049
7054.33836,0.03755
7056.26682,0.00702
7058.19529,0.03491
7060.12376,0.15611
7062.05223,0.15989
7063.98070,0.03472
7065.90917,-0.05151
7067.83764,0.00124
7069.76610,0.17166
7071.69457,0.23254
7073.62304,0.04057
7075.55151,-0.16664
7077.47998,-0.16870
7079.40845,0.00845
7081.33692,0.08844
7083.26539,-0.02609
7085.19385,-0.07456
7087.12232,-0.02291
7089.05079,0.06086
7090.97926,0.15689
7092.90773,0.16273
7094.83620,0.08591
7096.76467,0.07416
7098.69313,0.12702
7100.62160,0.11016
7102.55007,0.00923
7104.47854,-0.06138
7106.40701,0.00811
7108.33548,0.10311
7110.26395,0.06015
7112.19242,-0.04415
7114.12088,-0.06335
7116.04935,-0.04547
7117.97782,-0.06210
7119.90629,0.01804
7121.83476,0.14877
7123.76323,0.10453
7125.69170,-0.04221
7127.62016,-0.09627
7129.54863,-0.08014
7131.47710,0.02628
7133.40557,0.13462
7135.33404,0.06148
7137.26251,-0.04994
7139.19098,-0.10448
7141.11944,-0.16841
7143.04791,-0.12434
7144.97638,0.02376
7146.90485,0.07001
7148.83332,0.02869
7150.76179,-0.00913
7152.69026,-0.02716
7154.61873,0.00725
7156.54719,0.11150
7158.47566,0.21270
7160.40413,0.23252
7162.33260,0.23451
7164.26107,0.26752
7166.18954,0.26319
7168.11801,0.17569
7170.04647,0.04521
7171.97494,0.03235
7173.90341,0.04579
7175.83188,-0.05686
7177.76035,-0.11845
7179.68882,-0.15047
7181.61729,-0.23014
7183.54576,-0.21003
7185.47422,-0.09331
7187.40269,-0.01274
7189.33116,0.05200
7191.25963,0.11052
7193.18810,0.13383
7195.11657,0.15059
7197.04504,0.16683
7198.97350,0.19076
7200.90197,0.23703
7202.83044,0.22097
7204.75891,0.09755
7206.68738,0.05386
7208.61585,0.09556
7210.54432,0.10543
7212.47279,0.03679
7214.40125,-0.09852
7216.32972,-0.18401
7218.25819,-0.13365
7220.18666,-0.04388
7222.11513,-0.01143
7224.04360,-0.02300
7225.97207,-0.04495
7227.90053,-0.06695
7229.82900,-0.03392
7231.75747,0.09581
7233.68594,0.16755
7235.61441,0.10140
7237.54288,0.07982
7239.47135,0.22802
7241.39982,0.35579
7243.32828,0.28809
7245.25675,0.17038
7247.18522,0.15126
7249.11369,0.16073
7251.04216,0.12373
7252.97063,0.08222
7254.89910,0.08187
7256.82756,0.10389
7258.75603,0.13868
7260.68450,0.10164
7262.61297,-0.03113
7264.54144,-0.08444
7266.46991,-0.02042
7268.39838,0.00468
7270.32685,0.00069
7272.25531,0.15253
7274.18378,0.28562
7276.11225,0.21718
7278.04072,0.07851
7279.96919,-0.04401
7281.89766,-0.05716
7283.82613,0.05949
7285.75459,0.18949
7287.68306,0.19804
7289.61153,0.09337
7291.54000,-0.02972
7293.46847,-0.04790
7295.39694,0.06741
7297.32541,0.17363
7299.25387,0.16508
7301.18234,0.06397
7303.11081,-0.05525
7305.03928,-0.13621
7306.96775,-0.12634
7308.89622,0.01839
7310.82469,0.09734
7312.75316,-0.02011
7314.68162,-0.15545
7316.61009,-0.04979
7318.53856,0.21106
7320.46703,0.25303
7322.39550,0.12061
7324.32397,0.03499
7326.25244,0.09536
7328.18090,0.30938
7330.10937,0.29395
7332.03784,-0.11205
7333.96631,-0.32688
7335.89478,-0.17757
7337.82325,0.11191
7339.75172,0.41201
7341.68019,0.48198
7343.60865,0.30735
7345.53712,0.09941
7347.46559,-0.06310
7349.39406,-0.15313
7351.32253,-0.11999
7353.25100,-0.07002
7355.17947,-0.04986
7357.10793,0.00010
7359.03640,0.02191
7360.96487,-0.05817
7362.89334,-0.18314
7364.82181,-0.22179
7366.75028,-0.12245
7368.67875,-0.04750
7370.60722,-0.13975
7372.53568,-0.29608
7374.46415,-0.34832
7376.39262,-0.18652
7378.32109,-0.03464
7380.24956,-0.03436
7382.17803,-0.09810
7384.10650,-0.05327
7386.03496,0.07239
7387.96343,0.08857
7389.89190,-0.00233
7391.82037,-0.05989
7393.74884,-0.00404
7395.67731,0.15112
7397.60578,0.26941
7399.53425,0.31039
7401.46271,0.30244
7403.39118,0.15525
7405.31965,-0.03197
7407.24812,-0.06267
7409.17659,-0.01758
7411.10506,0.05039
7413.03353,0.07210
7414.96199,0.02078
7416.89046,0.00030
7418.81893,0.08010
7420.74740,0.13655
7422.67587,0.08800
7424.60434,0.05466
7426.53281,0.09162
7428.46128,0.10855
7430.38974,0.08645
7432.31821,0.12241
7434.24668,0.12715
7436.17515,0.04696
7438.10362,-0.03652
7440.03209,-0.06603
7441.96056,-0.07431
7443.88902,-0.06723
7445.81749,-0.04354
7447.74596,-0.08422
7449.67443,-0.05387
7451.60290,0.11602
7453.53137,0.06291
7455.45984,-0.06956
7457.38831,-0.00851
7459.31677,0.13979
7461.24524,0.19965
7463.17371,0.19827
7465.10218,0.18681
7467.03065,0.13011
7468.95912,0.03483
7470.88759,0.02089
7472.81605,0.13491
7474.74452,0.18125
7476.67299,-0.00852
7478.60146,-0.29881
7480.52993,-0.28025
7482.45840,0.08834
7484.38687,0.28849
7486.31533,0.16247
7488.24380,0.04114
7490.17227,0.09060
7492.10074,0.17076
7494.02921,0.24599
7495.95768,0.29934
7497.88615,0.23929
