399.19301,0.38231
401.12148,-0.12583
403.04995,-0.10417
404.97842,-0.04922
406.90689,-0.03237
408.83536,-0.05081
410.76382,-0.07588
412.69229,0.07675
414.62076,0.27520
416.54923,0.32144
418.47770,0.27366
420.40617,0.26164
422.33464,0.20875
424.26311,0.09882
426.19157,0.06345
428.12004,0.11373
430.04851,0.16066
431.97698,0.15029
433.90545,0.11334
435.83392,0.08888
437.76239,0.08329
439.69085,0.08879
441.61932,0.05357
443.54779,-0.02967
445.47626,0.02752
447.40473,0.21628
449.33320,0.24475
451.26167,0.13302
453.19013,0.07561
455.11860,0.03960
457.04707,0.00685
458.97554,0.06369
460.90401,0.15079
462.83248,0.19367
464.76095,0.20914
466.68942,0.17055
468.61788,0.07259
470.54635,0.00137
472.47482,0.00356
474.40329,0.01916
476.33176,0.03698
478.26023,0.10356
480.18870,0.18213
482.11716,0.21683
484.04563,0.19389
485.97410,0.17205
487.90257,0.17195
489.83104,0.15870
491.75951,0.11139
493.68798,0.06517
495.61645,0.07946
497.54491,0.10362
499.47338,0.04963
501.40185,-0.01554
503.33032,0.01574
505.25879,0.10597
507.18726,0.16487
509.11573,0.16153
511.04419,0.15312
512.97266,0.17867
514.90113,0.19999
516.82960,0.16710
518.75807,0.09818
520.68654,0.05478
522.61501,0.04669
524.54348,0.07214
526.47194,0.11505
528.40041,0.12470
530.32888,0.09634
532.25735,0.07889
534.18582,0.10312
536.11429,0.12160
538.04276,0.09383
539.97122,0.06046
541.89969,0.07218
543.82816,0.11713
545.75663,0.15074
547.68510,0.17511
549.61357,0.12269
551.54204,-0.10558
553.47051,-0.32084
555.39897,-0.25773
557.32744,-0.02773
559.25591,0.11347
561.18438,0.14268
563.11285,0.13103
565.04132,0.11793
566.96979,0.09419
568.89825,0.05379
570.82672,0.04772
572.75519,0.08174
574.68366,0.10176
576.61213,0.09248
578.54060,0.09373
580.46907,0.11480
582.39754,0.12787
584.32600,0.12956
586.25447,0.11971
588.18294,0.09454
590.11141,0.08183
592.03988,0.10339
593.96835,0.14243
595.89682,0.15966
597.82528,0.14899
599.75375,0.13955
601.68222,0.13250
603.61069,0.11823
605.53916,0.11244
607.46763,0.11313
609.39610,0.10683
611.32456,0.10934
613.25303,0.12059
615.18150,0.12209
617.10997,0.12973
619.03844,0.14861
620.96691,0.15285
622.89538,0.15025
624.82385,0.15907
626.75231,0.15896
628.68078,0.14433
630.60925,0.13714
632.53772,0.13855
634.46619,0.13843
636.39466,0.13206
638.32313,0.11971
640.25159,0.10904
642.18006,0.11260
644.10853,0.12706
646.03700,0.14094
647.96547,0.14774
649.89394,0.14406
651.82241,0.13512
653.75088,0.11909
655.67934,0.10920
657.60781,0.12337
659.53628,0.13586
661.46475,0.12182
663.39322,0.09753
665.32169,0.08592
667.25016,0.09965
669.17862,0.12832
671.10709,0.13121
673.03556,0.13144
674.96403,0.14072
676.89250,0.14682
678.82097,0.15475
680.74944,0.16213
682.67791,0.15808
684.60637,0.15034
686.53484,0.14194
688.46331,0.13009
690.39178,0.12107
692.32025,0.11898
694.24872,0.12154
696.17719,0.13129
698.10565,0.14222
700.03412,0.14095
701.96259,0.13605
703.89106,0.13987
705.81953,0.14417
707.74800,0.14001
709.67647,0.12161
711.60494,0.09606
713.53340,0.09730
715.46187,0.12309
717.39034,0.14220
719.31881,0.15576
721.24728,0.16092
723.17575,0.15202
725.10422,0.14597
727.03268,0.15168
728.96115,0.15730
730.88962,0.15263
732.81809,0.14098
734.74656,0.12847
736.67503,0.12285
738.60350,0.12302
740.53197,0.12071
742.46043,0.11886
744.38890,0.12256
746.31737,0.13244
748.24584,0.14401
750.17431,0.14609
752.10278,0.13579
754.03125,0.12907
755.95971,0.14171
757.88818,0.15792
759.81665,0.15186
761.74512,0.13250
763.67359,0.11988
765.60206,0.11903
767.53053,0.13408
769.45900,0.15123
771.38746,0.14940
773.31593,0.14214
775.24440,0.14053
777.17287,0.13710
779.10134,0.13473
781.02981,0.13362
782.95828,0.13848
784.88674,0.15406
786.81521,0.16241
788.74368,0.15490
790.67215,0.15016
792.60062,0.15306
794.52909,0.14454
796.45756,0.12197
798.38602,0.10413
800.31449,0.10009
802.24296,0.10480
804.17143,0.11124
806.09990,0.12340
808.02837,0.14075
809.95684,0.14452
811.88531,0.13433
813.81377,0.13034
815.74224,0.13492
817.67071,0.13388
819.59918,0.12303
821.52765,0.12002
823.45612,0.12863
825.38459,0.13120
827.31305,0.12913
829.24152,0.13077
831.16999,0.13784
833.09846,0.14606
835.02693,0.14478
836.95540,0.14104
838.88387,0.14658
840.81234,0.15456
842.74080,0.14988
844.66927,0.13692
846.59774,0.13868
848.52621,0.14990
850.45468,0.15585
852.38315,0.16228
854.31162,0.16698
856.24008,0.16712
858.16855,0.16455
860.09702,0.15573
862.02549,0.14582
863.95396,0.14252
865.88243,0.14430
867.81090,0.14486
869.73937,0.14392
871.66783,0.14683
873.59630,0.15258
875.52477,0.15406
877.45324,0.14742
879.38171,0.13978
881.31018,0.13825
883.23865,0.14037
885.16711,0.14289
887.09558,0.14311
889.02405,0.14436
890.95252,0.14712
892.88099,0.14056
894.80946,0.12827
896.73793,0.12419
898.66640,0.12891
900.59486,0.13725
902.52333,0.14837
904.45180,0.15820
906.38027,0.15349
908.30874,0.13770
910.23721,0.13300
912.16568,0.13759
914.09414,0.13834
916.02261,0.13692
917.95108,0.13459
919.87955,0.13838
921.80802,0.14957
923.73649,0.15407
925.66496,0.14985
927.59343,0.14369
929.52189,0.13900
931.45036,0.13707
933.37883,0.13744
935.30730,0.13953
937.23577,0.14080
939.16424,0.13873
941.09271,0.13683
943.02117,0.14189
944.94964,0.14972
946.87811,0.14974
948.80658,0.14399
950.73505,0.14035
952.66352,0.14090
954.59199,0.14618
956.52045,0.15245
958.44892,0.15362
960.37739,0.15090
962.30586,0.14786
964.23433,0.14563
966.16280,0.14673
968.09127,0.15206
970.01974,0.15492
971.94820,0.15067
973.87667,0.14680
975.80514,0.14671
977.73361,0.14687
979.66208,0.14954
981.59055,0.15167
983.51902,0.14739
985.44748,0.14137
987.37595,0.13781
989.30442,0.13902
991.23289,0.14457
993.16136,0.14765
995.08983,0.14702
997.01830,0.14460
998.94677,0.14055
1000.87523,0.13791
1002.80370,0.13746
1004.73217,0.13555
1006.66064,0.13265
1008.58911,0.13586
1010.51758,0.14728
1012.44605,0.15801
1014.37451,0.16105
1016.30298,0.15943
1018.23145,0.15862
1020.15992,0.15992
1022.08839,0.15961
1024.01686,0.15235
1025.94533,0.13764
1027.87380,0.12451
1029.80226,0.12591
1031.73073,0.13965
1033.65920,0.14901
1035.58767,0.14695
1037.51614,0.14534
1039.44461,0.15299
1041.37308,0.15759
1043.30154,0.15255
1045.23001,0.15042
1047.15848,0.15476
1049.08695,0.15800
1051.01542,0.15662
1052.94389,0.15119
1054.87236,0.14860
1056.80083,0.15654
1058.72929,0.16893
1060.65776,0.17345
1062.58623,0.16973
1064.51470,0.16349
1066.44317,0.15435
1068.37164,0.14637
1070.30011,0.15114
1072.22857,0.16445
1074.15704,0.16963
1076.08551,0.16527
1078.01398,0.15899
1079.94245,0.15295
1081.87092,0.15086
1083.79939,0.15596
1085.72786,0.16217
1087.65632,0.15917
1089.58479,0.14647
1091.51326,0.13868
1093.44173,0.14588
1095.37020,0.15765
1097.29867,0.16126
1099.22714,0.15900
1101.15560,0.15670
1103.08407,0.15687
1105.01254,0.15863
1106.94101,0.15702
1108.86948,0.15471
1110.79795,0.15222
1112.72642,0.14675
1114.65489,0.14812
1116.58335,0.15877
1118.51182,0.16708
1120.44029,0.16889
1122.36876,0.16704
1124.29723,0.16384
1126.22570,0.16191
1128.15417,0.16071
1130.08263,0.16017
1132.01110,0.16051
1133.93957,0.15652
1135.86804,0.15141
1137.79651,0.15236
1139.72498,0.15543
1141.65345,0.15675
1143.58191,0.15879
1145.51038,0.16385
1147.43885,0.16885
1149.36732,0.17058
1151.29579,0.17175
1153.22426,0.17155
1155.15273,0.16702
1157.08120,0.16550
1159.00966,0.17041
1160.93813,0.17146
1162.86660,0.16556
1164.79507,0.15894
1166.72354,0.15661
1168.65201,0.15995
1170.58048,0.16339
1172.50894,0.16224
1174.43741,0.15794
1176.36588,0.15706
1178.29435,0.16325
1180.22282,0.16781
1182.15129,0.16759
1184.07976,0.17012
1186.00823,0.17366
1187.93669,0.17043
1189.86516,0.16228
1191.79363,0.15733
1193.72210,0.15651
1195.65057,0.15683
1197.57904,0.15911
1199.50751,0.16343
1201.43597,0.16632
1203.36444,0.16363
1205.29291,0.15778
1207.22138,0.15517
1209.14985,0.15693
1211.07832,0.16110
1213.00679,0.16603
1214.93526,0.17046
1216.86372,0.17291
1218.79219,0.17290
1220.72066,0.17158
1222.64913,0.17035
1224.57760,0.16939
1226.50607,0.16754
1228.43454,0.16643
1230.36300,0.17006
1232.29147,0.17661
1234.21994,0.17706
1236.14841,0.16946
1238.07688,0.16259
1240.00535,0.16073
1241.93382,0.15970
1243.86229,0.15686
1245.79075,0.15687
1247.71922,0.16316
1249.64769,0.17036
1251.57616,0.16993
1253.50463,0.16162
1255.43310,0.15590
1257.36157,0.15741
1259.29003,0.15941
1261.21850,0.15835
1263.14697,0.15847
1265.07544,0.16053
1267.00391,0.16060
1268.93238,0.16138
1270.86085,0.16549
1272.78932,0.16727
1274.71778,0.16563
1276.64625,0.16676
1278.57472,0.16866
1280.50319,0.16395
1282.43166,0.15958
1284.36013,0.16387
1286.28860,0.16865
1288.21706,0.16981
1290.14553,0.17118
1292.07400,0.17215
1294.00247,0.17212
1295.93094,0.16816
1297.85941,0.15883
1299.78788,0.14598
1301.71634,0.12827
1303.64481,0.11178
1305.57328,0.11515
1307.50175,0.14089
1309.43022,0.16399
1311.35869,0.17342
1313.28716,0.17689
1315.21563,0.17536
1317.14409,0.17205
1319.07256,0.16947
1321.00103,0.16738
1322.92950,0.16936
1324.85797,0.16950
1326.78644,0.16375
1328.71491,0.15942
1330.64337,0.15549
1332.57184,0.15405
1334.50031,0.16032
1336.42878,0.16685
1338.35725,0.17004
1340.28572,0.16593
1342.21419,0.16021
1344.14266,0.16489
1346.07112,0.16757
1347.99959,0.16311
1349.92806,0.16275
1351.85653,0.16389
1353.78500,0.16183
1355.71347,0.16100
1357.64194,0.16276
1359.57040,0.16459
1361.49887,0.16534
1363.42734,0.16578
1365.35581,0.16905
1367.28428,0.17252
1369.21275,0.17255
1371.14122,0.17583
1373.06969,0.18460
1374.99815,0.18781
1376.92662,0.18449
1378.85509,0.18299
1380.78356,0.18072
1382.71203,0.17748
1384.64050,0.17988
1386.56897,0.18782
1388.49743,0.19290
1390.42590,0.19017
1392.35437,0.18624
1394.28284,0.18848
1396.21131,0.19291
1398.13978,0.19118
1400.06825,0.18605
1401.99672,0.18268
1403.92518,0.18112
1405.85365,0.18233
1407.78212,0.18777
1409.71059,0.19334
1411.63906,0.19428
1413.56753,0.18977
1415.49600,0.18631
1417.42446,0.18972
1419.35293,0.18953
1421.28140,0.18236
1423.20987,0.17980
1425.13834,0.17838
1427.06681,0.17765
1428.99528,0.18242
1430.92375,0.18771
1432.85221,0.18917
1434.78068,0.19189
1436.70915,0.19469
1438.63762,0.19179
1440.56609,0.18822
1442.49456,0.18709
1444.42303,0.18732
1446.35149,0.18722
1448.27996,0.18618
1450.20843,0.18790
1452.13690,0.19341
1454.06537,0.20020
1455.99384,0.21291
1457.92231,0.21890
1459.85077,0.20274
1461.77924,0.19409
1463.70771,0.19709
1465.63618,0.19778
1467.56465,0.19175
1469.49312,0.19202
1471.42159,0.20401
1473.35006,0.21366
1475.27852,0.20604
1477.20699,0.19630
1479.13546,0.19276
1481.06393,0.19133
1482.99240,0.18963
1484.92087,0.19070
1486.84934,0.19613
1488.77780,0.20426
1490.70627,0.20366
1492.63474,0.19745
1494.56321,0.19899
1496.49168,0.20383
1498.42015,0.19901
1500.34862,0.18899
1502.27709,0.18158
1504.20555,0.18234
1506.13402,0.20821
1508.06249,0.23471
1509.99096,0.22007
1511.91943,0.20616
1513.84790,0.20457
1515.77637,0.21013
1517.70483,0.21525
1519.63330,0.22256
1521.56177,0.23255
1523.49024,0.22824
1525.41871,0.21959
1527.34718,0.21588
1529.27565,0.21198
1531.20412,0.21021
1533.13258,0.20976
1535.06105,0.20560
1536.98952,0.20854
1538.91799,0.22996
1540.84646,0.25400
1542.77493,0.23965
1544.70340,0.21121
1546.63186,0.19378
1548.56033,0.19351
1550.48880,0.19945
1552.41727,0.20219
1554.34574,0.20589
1556.27421,0.21704
1558.20268,0.23860
1560.13115,0.23084
1562.05961,0.20702
1563.98808,0.19725
1565.91655,0.19653
1567.84502,0.19969
1569.77349,0.19868
1571.70196,0.19250
1573.63043,0.19413
1575.55889,0.20274
1577.48736,0.19999
1579.41583,0.18971
1581.34430,0.18491
1583.27277,0.18157
1585.20124,0.17634
1587.12971,0.17398
1589.05818,0.17556
1590.98664,0.17655
1592.91511,0.17611
1594.84358,0.17654
1596.77205,0.17742
1598.70052,0.17885
1600.62899,0.18346
1602.55746,0.18996
1604.48592,0.19386
1606.41439,0.19325
1608.34286,0.18895
1610.27133,0.18609
1612.19980,0.18896
1614.12827,0.19550
1616.05674,0.20302
1617.98521,0.20393
1619.91367,0.20006
1621.84214,0.20189
1623.77061,0.20624
1625.69908,0.20436
1627.62755,0.19913
1629.55602,0.19256
1631.48449,0.19019
1633.41295,0.19890
1635.34142,0.21401
1637.26989,0.20982
1639.19836,0.19606
1641.12683,0.19054
1643.05530,0.19360
1644.98377,0.20711
1646.91223,0.22536
1648.84070,0.22503
1650.76917,0.22075
1652.69764,0.22625
1654.62611,0.22049
1656.55458,0.20634
1658.48305,0.19965
1660.41152,0.20010
1662.33998,0.20241
1664.26845,0.20103
1666.19692,0.20221
1668.12539,0.21048
1670.05386,0.21422
1671.98233,0.21057
1673.91080,0.21101
1675.83926,0.20788
1677.76773,0.20559
1679.69620,0.21424
1681.62467,0.22695
1683.55314,0.23190
1685.48161,0.22186
1687.41008,0.21350
1689.33855,0.20956
1691.26701,0.20429
1693.19548,0.20299
1695.12395,0.21547
1697.05242,0.23471
1698.98089,0.23954
1700.90936,0.22902
1702.83783,0.21926
1704.76629,0.21643
1706.69476,0.21021
1708.62323,0.19866
1710.55170,0.19260
1712.48017,0.19642
1714.40864,0.20866
1716.33711,0.22060
1718.26558,0.21313
1720.19404,0.19845
1722.12251,0.19195
1724.05098,0.18963
1725.97945,0.18936
1727.90792,0.19421
1729.83639,0.20321
1731.76486,0.21088
1733.69332,0.21104
1735.62179,0.20088
1737.55026,0.19594
1739.47873,0.19923
1741.40720,0.20400
1743.33567,0.20690
1745.26414,0.21009
1747.19261,0.21531
1749.12107,0.21755
1751.04954,0.20847
1752.97801,0.19692
1754.90648,0.19400
1756.83495,0.19650
1758.76342,0.19771
1760.69189,0.19935
1762.62035,0.19911
1764.54882,0.19443
1766.47729,0.19429
1768.40576,0.20205
1770.33423,0.21051
1772.26270,0.21072
1774.19117,0.20319
1776.11964,0.19611
1778.04810,0.19348
1779.97657,0.19559
1781.90504,0.19721
1783.83351,0.19581
1785.76198,0.19523
1787.69045,0.19903
1789.61892,0.20496
1791.54738,0.20899
1793.47585,0.21054
1795.40432,0.20932
1797.33279,0.20497
1799.26126,0.19906
1801.18973,0.19276
1803.11820,0.18758
1805.04666,0.18631
1806.97513,0.19005
1808.90360,0.19655
1810.83207,0.19936
1812.76054,0.19415
1814.68901,0.18756
1816.61748,0.18709
1818.54595,0.19145
1820.47441,0.19448
1822.40288,0.19590
1824.33135,0.19834
1826.25982,0.20080
1828.18829,0.20386
1830.11676,0.20519
1832.04523,0.20076
1833.97369,0.19590
1835.90216,0.19313
1837.83063,0.19205
1839.75910,0.19420
1841.68757,0.20062
1843.61604,0.20751
1845.54451,0.20433
1847.47298,0.19532
1849.40144,0.19003
1851.32991,0.18657
1853.25838,0.18294
1855.18685,0.18197
1857.11532,0.18342
1859.04379,0.18399
1860.97226,0.18477
1862.90072,0.18765
1864.82919,0.19251
1866.75766,0.19845
1868.68613,0.20038
1870.61460,0.19719
1872.54307,0.19490
1874.47154,0.19394
1876.40001,0.19414
1878.32847,0.19609
1880.25694,0.19737
1882.18541,0.19801
1884.11388,0.19908
1886.04235,0.19901
1887.97082,0.19756
1889.89929,0.19255
1891.82775,0.18590
1893.75622,0.18525
1895.68469,0.18828
1897.61316,0.18830
1899.54163,0.18672
1901.47010,0.18725
1903.39857,0.19017
1905.32704,0.19313
1907.25550,0.19586
1909.18397,0.19790
1911.11244,0.19503
1913.04091,0.19029
1914.96938,0.19106
1916.89785,0.19624
1918.82632,0.19840
1920.75478,0.19708
1922.68325,0.19666
1924.61172,0.19445
1926.54019,0.19023
1928.46866,0.18825
1930.39713,0.18774
1932.32560,0.18713
1934.25407,0.18757
1936.18253,0.18888
1938.11100,0.19067
1940.03947,0.19425
1941.96794,0.19793
1943.89641,0.19780
1945.82488,0.19440
1947.75335,0.19054
1949.68181,0.18895
1951.61028,0.19002
1953.53875,0.19142
1955.46722,0.19211
1957.39569,0.19189
1959.32416,0.19097
1961.25263,0.19011
1963.18110,0.18978
1965.10956,0.19083
1967.03803,0.19233
1968.96650,0.19100
1970.89497,0.18849
1972.82344,0.18905
1974.75191,0.19366
1976.68038,0.20254
1978.60884,0.20945
1980.53731,0.20536
1982.46578,0.19489
1984.39425,0.18857
1986.32272,0.18816
1988.25119,0.19070
1990.17966,0.19370
1992.10812,0.19350
1994.03659,0.19022
1995.96506,0.18924
1997.89353,0.18952
1999.82200,0.18846
2001.75047,0.18846
2003.67894,0.18782
2005.60741,0.18476
2007.53587,0.18465
2009.46434,0.18979
2011.39281,0.19485
2013.32128,0.19567
2015.24975,0.19394
2017.17822,0.19330
2019.10669,0.19383
2021.03515,0.19320
2022.96362,0.19252
2024.89209,0.19330
2026.82056,0.19378
2028.74903,0.19287
2030.67750,0.19136
2032.60597,0.19116
2034.53444,0.19230
2036.46290,0.19177
2038.39137,0.18942
2040.31984,0.18714
2042.24831,0.18636
2044.17678,0.18798
2046.10525,0.19035
2048.03372,0.19127
2049.96218,0.19102
2051.89065,0.19084
2053.81912,0.19055
2055.74759,0.19084
2057.67606,0.19149
2059.60453,0.18980
2061.53300,0.18812
2063.46147,0.19056
2065.38993,0.19423
2067.31840,0.19461
2069.24687,0.19202
2071.17534,0.19019
2073.10381,0.19093
2075.03228,0.19194
2076.96075,0.19257
2078.88921,0.19305
2080.81768,0.19252
2082.74615,0.19281
2084.67462,0.19426
2086.60309,0.19574
2088.53156,0.19774
2090.46003,0.19863
2092.38850,0.19594
2094.31696,0.19071
2096.24543,0.18746
2098.17390,0.18881
2100.10237,0.19229
2102.03084,0.19480
2103.95931,0.19547
2105.88778,0.19485
2107.81624,0.19317
2109.74471,0.19144
2111.67318,0.19167
2113.60165,0.19268
2115.53012,0.19217
2117.45859,0.19131
2119.38706,0.19195
2121.31553,0.19366
2123.24399,0.19458
2125.17246,0.19356
2127.10093,0.19218
2129.02940,0.19257
2130.95787,0.19428
2132.88634,0.19581
2134.81481,0.19471
2136.74327,0.19135
2138.67174,0.19111
2140.60021,0.19327
2142.52868,0.19239
2144.45715,0.18998
2146.38562,0.19011
2148.31409,0.19212
2150.24255,0.19316
2152.17102,0.19184
2154.09949,0.18908
2156.02796,0.18767
2157.95643,0.18777
2159.88490,0.18819
2161.81337,0.19006
2163.74184,0.19198
2165.67030,0.19279
2167.59877,0.19481
2169.52724,0.19672
2171.45571,0.19501
2173.38418,0.19042
2175.31265,0.18754
2177.24112,0.18969
2179.16958,0.19316
2181.09805,0.19301
2183.02652,0.19121
2184.95499,0.19067
2186.88346,0.19221
2188.81193,0.19537
2190.74040,0.19657
2192.66887,0.19431
2194.59733,0.19103
2196.52580,0.18928
2198.45427,0.19094
2200.38274,0.19443
2202.31121,0.19508
2204.23968,0.19277
2206.16815,0.19216
2208.09661,0.19481
2210.02508,0.19620
2211.95355,0.19383
2213.88202,0.19137
2215.81049,0.19058
2217.73896,0.18999
2219.66743,0.18953
2221.59590,0.18926
2223.52436,0.18877
2225.45283,0.18862
2227.38130,0.18878
2229.30977,0.18811
2231.23824,0.18603
2233.16671,0.18438
2235.09518,0.18598
2237.02364,0.18838
2238.95211,0.18857
2240.88058,0.18828
2242.80905,0.18877
2244.73752,0.18918
2246.66599,0.18879
2248.59446,0.18943
2250.52293,0.19176
2252.45139,0.19299
2254.37986,0.19229
2256.30833,0.19155
2258.23680,0.19136
2260.16527,0.19001
2262.09374,0.18778
2264.02221,0.18700
2265.95067,0.18766
2267.87914,0.18837
2269.80761,0.18932
2271.73608,0.19104
2273.66455,0.19235
2275.59302,0.19413
2277.52149,0.19734
2279.44996,0.19875
2281.37842,0.19751
2283.30689,0.19435
2285.23536,0.18929
2287.16383,0.18568
2289.09230,0.18518
2291.02077,0.18566
2292.94924,0.18533
2294.87770,0.18476
2296.80617,0.18638
2298.73464,0.18879
2300.66311,0.18807
2302.59158,0.18454
2304.52005,0.18199
2306.44852,0.18307
2308.37699,0.18776
2310.30545,0.19156
2312.23392,0.18761
2314.16239,0.18028
2316.09086,0.17981
2318.01933,0.18424
2319.94780,0.18693
2321.87627,0.18646
2323.80473,0.18724
2325.73320,0.19202
2327.66167,0.19066
2329.59014,0.17916
2331.51861,0.17413
2333.44708,0.18049
2335.37555,0.18701
2337.30401,0.19669
2339.23248,0.20306
2341.16095,0.18757
2343.08942,0.16898
2345.01789,0.17285
2346.94636,0.18490
2348.87483,0.19011
2350.80330,0.18762
2352.73176,0.17920
2354.66023,0.16791
2356.58870,0.15932
2358.51717,0.16947
2360.44564,0.19273
2362.37411,0.20031
2364.30258,0.19795
2366.23104,0.20144
2368.15951,0.19593
2370.08798,0.18001
2372.01645,0.17487
2373.94492,0.18019
2375.87339,0.18449
2377.80186,0.18668
2379.73033,0.18888
2381.65879,0.19182
2383.58726,0.19420
2385.51573,0.19390
2387.44420,0.19246
2389.37267,0.19157
2391.30114,0.19044
2393.22961,0.19081
2395.15807,0.19220
2397.08654,0.19031
2399.01501,0.18766
2400.94348,0.18886
2402.87195,0.19129
2404.80042,0.19205
2406.72889,0.19189
2408.65736,0.19201
2410.58582,0.19243
2412.51429,0.19138
2414.44276,0.18901
2416.37123,0.18780
2418.29970,0.18792
2420.22817,0.18792
2422.15664,0.18774
2424.08510,0.18841
2426.01357,0.18976
2427.94204,0.19149
2429.87051,0.19356
2431.79898,0.19458
2433.72745,0.19385
2435.65592,0.19207
2437.58439,0.19128
2439.51285,0.19274
2441.44132,0.19388
2443.36979,0.19415
2445.29826,0.19543
2447.22673,0.19552
2449.15520,0.19184
2451.08367,0.18310
2453.01213,0.17261
2454.94060,0.17151
2456.86907,0.18059
2458.79754,0.18820
2460.72601,0.19135
2462.65448,0.19288
2464.58295,0.19172
2466.51142,0.19005
2468.43988,0.19147
2470.36835,0.19407
2472.29682,0.19563
2474.22529,0.19640
2476.15376,0.19592
2478.08223,0.19355
2480.01070,0.19066
2481.93916,0.19033
2483.86763,0.19197
2485.79610,0.19168
2487.72457,0.19020
2489.65304,0.19024
2491.58151,0.19001
2493.50998,0.18950
2495.43844,0.19051
2497.36691,0.19159
2499.29538,0.19210
2501.22385,0.19266
2503.15232,0.19397
2505.08079,0.19505
2507.00926,0.19323
2508.93773,0.19077
2510.86619,0.19110
2512.79466,0.19316
2514.72313,0.19447
2516.65160,0.19286
2518.58007,0.18959
2520.50854,0.18855
2522.43701,0.19064
2524.36547,0.19396
2526.29394,0.19623
2528.22241,0.19634
2530.15088,0.19518
2532.07935,0.19392
2534.00782,0.19285
2535.93629,0.19204
2537.86476,0.19218
2539.79322,0.19347
2541.72169,0.19446
2543.65016,0.19430
2545.57863,0.19405
2547.50710,0.19400
2549.43557,0.19388
2551.36404,0.19338
2553.29250,0.19260
2555.22097,0.19296
2557.14944,0.19369
2559.07791,0.19302
2561.00638,0.19178
2562.93485,0.19225
2564.86332,0.19546
2566.79179,0.19964
2568.72025,0.20085
2570.64872,0.19718
2572.57719,0.19238
2574.50566,0.19069
2576.43413,0.19209
2578.36260,0.19410
2580.29107,0.19481
2582.21953,0.19584
2584.14800,0.19719
2586.07647,0.19643
2588.00494,0.19616
2589.93341,0.19799
2591.86188,0.19788
2593.79035,0.19580
2595.71882,0.19511
2597.64728,0.19623
2599.57575,0.19773
2601.50422,0.19692
2603.43269,0.19400
2605.36116,0.19243
2607.28963,0.19246
2609.21810,0.19111
2611.14656,0.18790
2613.07503,0.18728
2615.00350,0.19111
2616.93197,0.19475
2618.86044,0.19607
2620.78891,0.19649
2622.71738,0.19692
2624.64585,0.19830
2626.57431,0.19864
2628.50278,0.19501
2630.43125,0.19106
2632.35972,0.19138
2634.28819,0.19285
2636.21666,0.19271
2638.14513,0.19435
2640.07359,0.19694
2642.00206,0.19650
2643.93053,0.19433
2645.85900,0.19322
2647.78747,0.19330
2649.71594,0.19415
2651.64441,0.19653
2653.57288,0.19945
2655.50134,0.20021
2657.42981,0.19896
2659.35828,0.19644
2661.28675,0.19223
2663.21522,0.18969
2665.14369,0.19185
2667.07216,0.19524
2669.00062,0.19787
2670.92909,0.20058
2672.85756,0.20076
2674.78603,0.19880
2676.71450,0.19875
2678.64297,0.19999
2680.57144,0.20082
2682.49990,0.20249
2684.42837,0.20422
2686.35684,0.20449
2688.28531,0.20410
2690.21378,0.20132
2692.14225,0.19519
2694.07072,0.19131
2695.99919,0.19341
2697.92765,0.19650
2699.85612,0.19698
2701.78459,0.19927
2703.71306,0.20251
2705.64153,0.20163
2707.57000,0.19923
2709.49847,0.19836
2711.42693,0.19807
2713.35540,0.19754
2715.28387,0.19813
2717.21234,0.20080
2719.14081,0.20306
2721.06928,0.20250
2722.99775,0.19996
2724.92622,0.19971
2726.85468,0.20289
2728.78315,0.20437
2730.71162,0.20359
2732.64009,0.20427
2734.56856,0.20531
2736.49703,0.20491
2738.42550,0.20416
2740.35396,0.20463
2742.28243,0.20704
2744.21090,0.20838
2746.13937,0.20701
2748.06784,0.20685
2749.99631,0.20852
2751.92478,0.20874
2753.85325,0.20742
2755.78171,0.20551
2757.71018,0.20355
2759.63865,0.20281
2761.56712,0.20421
2763.49559,0.20695
2765.42406,0.20747
2767.35253,0.20588
2769.28099,0.20591
2771.20946,0.20575
2773.13793,0.20378
2775.06640,0.20425
2776.99487,0.20803
2778.92334,0.20930
2780.85181,0.20657
2782.78028,0.20449
2784.70874,0.20455
2786.63721,0.20646
2788.56568,0.20920
2790.49415,0.21020
2792.42262,0.20997
2794.35109,0.20916
2796.27956,0.20657
2798.20802,0.20258
2800.13649,0.19893
2802.06496,0.19677
2803.99343,0.19600
2805.92190,0.19674
2807.85037,0.20046
2809.77884,0.20596
2811.70731,0.20652
2813.63577,0.20165
2815.56424,0.20020
2817.49271,0.20439
2819.42118,0.20790
2821.34965,0.20640
2823.27812,0.20337
2825.20659,0.20349
2827.13505,0.20540
2829.06352,0.20604
2830.99199,0.20515
2832.92046,0.20495
2834.84893,0.20568
2836.77740,0.20601
2838.70587,0.20560
2840.63433,0.20367
2842.56280,0.20176
2844.49127,0.20239
2846.41974,0.20430
2848.34821,0.20562
2850.27668,0.20695
2852.20515,0.20813
2854.13362,0.20900
2856.06208,0.21025
2857.99055,0.21237
2859.91902,0.21466
2861.84749,0.21486
2863.77596,0.21447
2865.70443,0.21313
2867.63290,0.20915
2869.56136,0.20879
2871.48983,0.21161
2873.41830,0.20971
2875.34677,0.20566
2877.27524,0.20522
2879.20371,0.20642
2881.13218,0.20514
2883.06065,0.20358
2884.98911,0.20559
2886.91758,0.20841
2888.84605,0.20938
2890.77452,0.20919
2892.70299,0.20741
2894.63146,0.20354
2896.55993,0.20031
2898.48839,0.20024
2900.41686,0.20193
2902.34533,0.20290
2904.27380,0.19971
2906.20227,0.19487
2908.13074,0.19647
2910.05921,0.20123
2911.98768,0.20059
2913.91614,0.19491
2915.84461,0.18950
2917.77308,0.19043
2919.70155,0.19787
2921.63002,0.20447
2923.55849,0.20279
2925.48696,0.19115
2927.41542,0.18233
2929.34389,0.18710
2931.27236,0.19734
2933.20083,0.20315
2935.12930,0.19955
2937.05777,0.18995
2938.98624,0.18806
2940.91471,0.19609
2942.84317,0.20234
2944.77164,0.19888
2946.70011,0.18990
2948.62858,0.18834
2950.55705,0.19702
2952.48552,0.20580
2954.41399,0.20670
2956.34245,0.19603
2958.27092,0.18729
2960.19939,0.19657
2962.12786,0.20939
2964.05633,0.21186
2965.98480,0.20672
2967.91327,0.19485
2969.84174,0.18722
2971.77020,0.19114
2973.69867,0.19814
2975.62714,0.19991
2977.55561,0.19530
2979.48408,0.19520
2981.41255,0.20309
2983.34102,0.20825
2985.26948,0.20626
2987.19795,0.19973
2989.12642,0.19805
2991.05489,0.20731
2992.98336,0.21841
2994.91183,0.22093
2996.84030,0.21485
2998.76877,0.21094
3000.69723,0.21458
3002.62570,0.21562
3004.55417,0.20963
3006.48264,0.20300
3008.41111,0.19799
3010.33958,0.18950
3012.26805,0.16650
3014.19651,0.12599
3016.12498,0.09418
3018.05345,0.11077
3019.98192,0.16546
3021.91039,0.20388
3023.83886,0.21275
3025.76733,0.21297
3027.69579,0.21194
3029.62426,0.21235
3031.55273,0.21449
3033.48120,0.21457
3035.40967,0.21253
3037.33814,0.20906
3039.26661,0.20602
3041.19508,0.20626
3043.12354,0.20815
3045.05201,0.20813
3046.98048,0.20756
3048.90895,0.20923
3050.83742,0.20994
3052.76589,0.20786
3054.69436,0.20186
3056.62282,0.19142
3058.55129,0.19028
3060.47976,0.20409
3062.40823,0.21726
3064.33670,0.21676
3066.26517,0.20507
3068.19364,0.20025
3070.12211,0.20695
3072.05057,0.21028
3073.97904,0.20337
3075.90751,0.19484
3077.83598,0.19868
3079.76445,0.20982
3081.69292,0.21103
3083.62139,0.20016
3085.54985,0.19190
3087.47832,0.19729
3089.40679,0.20659
3091.33526,0.20644
3093.26373,0.19398
3095.19220,0.18418
3097.12067,0.19291
3099.04914,0.20714
3100.97760,0.20879
3102.90607,0.19889
3104.83454,0.19456
3106.76301,0.20313
3108.69148,0.21023
3110.61995,0.20574
3112.54842,0.19653
3114.47688,0.19613
3116.40535,0.20307
3118.33382,0.20602
3120.26229,0.20339
3122.19076,0.20125
3124.11923,0.20609
3126.04770,0.21508
3127.97617,0.21818
3129.90463,0.21234
3131.83310,0.20830
3133.76157,0.21346
3135.69004,0.21922
3137.61851,0.21477
3139.54698,0.20587
3141.47545,0.20787
3143.40391,0.21524
3145.33238,0.21640
3147.26085,0.21567
3149.18932,0.21864
3151.11779,0.22347
3153.04626,0.22355
3154.97473,0.22071
3156.90320,0.22161
3158.83166,0.22395
3160.76013,0.22225
3162.68860,0.21461
3164.61707,0.20842
3166.54554,0.21298
3168.47401,0.22064
3170.40248,0.21945
3172.33094,0.21176
3174.25941,0.20645
3176.18788,0.21042
3178.11635,0.21938
3180.04482,0.22247
3181.97329,0.21984
3183.90176,0.21884
3185.83022,0.22040
3187.75869,0.22024
3189.68716,0.21959
3191.61563,0.21846
3193.54410,0.21232
3195.47257,0.20799
3197.40104,0.21435
3199.32951,0.22325
3201.25797,0.22654
3203.18644,0.22822
3205.11491,0.22858
3207.04338,0.22250
3208.97185,0.21396
3210.90032,0.21175
3212.82879,0.21437
3214.75725,0.21478
3216.68572,0.20918
3218.61419,0.20148
3220.54266,0.20060
3222.47113,0.20683
3224.39960,0.21393
3226.32807,0.21745
3228.25654,0.21633
3230.18500,0.21507
3232.11347,0.21678
3234.04194,0.21888
3235.97041,0.22022
3237.89888,0.22087
3239.82735,0.21950
3241.75582,0.21735
3243.68428,0.21528
3245.61275,0.20993
3247.54122,0.20308
3249.46969,0.20391
3251.39816,0.21194
3253.32663,0.21802
3255.25510,0.21923
3257.18357,0.21574
3259.11203,0.21151
3261.04050,0.21323
3262.96897,0.21880
3264.89744,0.22094
3266.82591,0.21675
3268.75438,0.21123
3270.68285,0.21172
3272.61131,0.21529
3274.53978,0.21452
3276.46825,0.21142
3278.39672,0.20957
3280.32519,0.20990
3282.25366,0.21204
3284.18213,0.21232
3286.11060,0.21329
3288.03906,0.21819
3289.96753,0.22031
3291.89600,0.21837
3293.82447,0.21821
3295.75294,0.21863
3297.68141,0.21679
3299.60988,0.21297
3301.53834,0.21097
3303.46681,0.21334
3305.39528,0.21193
3307.32375,0.20442
3309.25222,0.20212
3311.18069,0.20561
3313.10916,0.20468
3315.03763,0.20292
3316.96609,0.20763
3318.89456,0.21236
3320.82303,0.21263
3322.75150,0.21162
3324.67997,0.21040
3326.60844,0.20963
3328.53691,0.20967
3330.46537,0.20992
3332.39384,0.21164
3334.32231,0.21539
3336.25078,0.21846
3338.17925,0.22047
3340.10772,0.22152
3342.03619,0.21725
3343.96466,0.20807
3345.89312,0.20266
3347.82159,0.20583
3349.75006,0.21367
3351.67853,0.22140
3353.60700,0.22528
3355.53547,0.22250
3357.46394,0.21515
3359.39240,0.20949
3361.32087,0.21073
3363.24934,0.21502
3365.17781,0.21556
3367.10628,0.21567
3369.03475,0.21804
3370.96322,0.21919
3372.89168,0.21864
3374.82015,0.21685
3376.74862,0.21492
3378.67709,0.21527
3380.60556,0.21474
3382.53403,0.21045
3384.46250,0.20976
3386.39097,0.21782
3388.31943,0.22576
3390.24790,0.22551
3392.17637,0.22097
3394.10484,0.21845
3396.03331,0.21881
3397.96178,0.22028
3399.89025,0.22082
3401.81871,0.21906
3403.74718,0.21467
3405.67565,0.21016
3407.60412,0.21083
3409.53259,0.21559
3411.46106,0.21783
3413.38953,0.21671
3415.31800,0.21584
3417.24646,0.21574
3419.17493,0.21452
3421.10340,0.21254
3423.03187,0.20936
3424.96034,0.20332
3426.88881,0.19934
3428.81728,0.20296
3430.74574,0.20943
3432.67421,0.21226
3434.60268,0.21232
3436.53115,0.21356
3438.45962,0.21687
3440.38809,0.21699
3442.31656,0.21239
3444.24503,0.20882
3446.17349,0.20997
3448.10196,0.21439
3450.03043,0.21609
3451.95890,0.21346
3453.88737,0.20843
3455.81584,0.20253
3457.74431,0.19885
3459.67277,0.19652
3461.60124,0.19242
3463.52971,0.18903
3465.45818,0.19070
3467.38665,0.19481
3469.31512,0.19781
3471.24359,0.20199
3473.17206,0.20604
3475.10052,0.20380
3477.02899,0.19566
3478.95746,0.19117
3480.88593,0.19353
3482.81440,0.19473
3484.74287,0.19361
3486.67134,0.19353
3488.59980,0.19292
3490.52827,0.19227
3492.45674,0.19097
3494.38521,0.18790
3496.31368,0.18616
3498.24215,0.18656
3500.17062,0.18922
3502.09909,0.19480
3504.02755,0.19665
3505.95602,0.19094
3507.88449,0.18575
3509.81296,0.18324
3511.74143,0.17842
3513.66990,0.17519
3515.59837,0.17719
3517.52683,0.17863
3519.45530,0.17743
3521.38377,0.17701
3523.31224,0.17570
3525.24071,0.17347
3527.16918,0.17667
3529.09765,0.18320
3531.02611,0.18411
3532.95458,0.18036
3534.88305,0.17674
3536.81152,0.17437
3538.73999,0.17474
3540.66846,0.17696
3542.59693,0.17875
3544.52540,0.17956
3546.45386,0.17744
3548.38233,0.17408
3550.31080,0.17565
3552.23927,0.17907
3554.16774,0.17305
3556.09621,0.16298
3558.02468,0.16213
3559.95314,0.16750
3561.88161,0.17067
3563.81008,0.17163
3565.73855,0.17173
3567.66702,0.16724
3569.59549,0.16008
3571.52396,0.15660
3573.45243,0.15439
3575.38089,0.15053
3577.30936,0.14923
3579.23783,0.15554
3581.16630,0.16442
3583.09477,0.16760
3585.02324,0.16881
3586.95171,0.17293
3588.88017,0.17190
3590.80864,0.16539
3592.73711,0.16283
3594.66558,0.16577
3596.59405,0.16589
3598.52252,0.16154
3600.45099,0.15774
3602.37946,0.15318
3604.30792,0.15033
3606.23639,0.15454
3608.16486,0.16218
3610.09333,0.16457
3612.02180,0.16260
3613.95027,0.16038
3615.87874,0.16024
3617.80720,0.16211
3619.73567,0.15922
3621.66414,0.14999
3623.59261,0.14540
3625.52108,0.15034
3627.44955,0.16145
3629.37802,0.16790
3631.30649,0.16479
3633.23495,0.15979
3635.16342,0.15351
3637.09189,0.14962
3639.02036,0.15175
3640.94883,0.15359
3642.87730,0.14989
3644.80577,0.14735
3646.73423,0.15420
3648.66270,0.16750
3650.59117,0.16235
3652.51964,0.14794
3654.44811,0.14257
3656.37658,0.13969
3658.30505,0.13541
3660.23352,0.13415
3662.16198,0.13285
3664.09045,0.13106
3666.01892,0.13500
3667.94739,0.14673
3669.87586,0.15579
3671.80433,0.15073
3673.73280,0.14664
3675.66126,0.14613
3677.58973,0.14234
3679.51820,0.14076
3681.44667,0.13983
3683.37514,0.13911
3685.30361,0.14262
3687.23208,0.14903
3689.16055,0.14982
3691.08901,0.14028
3693.01748,0.13034
3694.94595,0.12443
3696.87442,0.12172
3698.80289,0.12309
3700.73136,0.12820
3702.65983,0.13061
3704.58829,0.12988
3706.51676,0.13223
3708.44523,0.13668
3710.37370,0.14099
3712.30217,0.14351
3714.23064,0.14238
3716.15911,0.14149
3718.08757,0.14404
3720.01604,0.14619
3721.94451,0.14262
3723.87298,0.14017
3725.80145,0.14048
3727.72992,0.13804
3729.65839,0.13712
3731.58686,0.13983
3733.51532,0.14751
3735.44379,0.15931
3737.37226,0.15970
3739.30073,0.15059
3741.22920,0.14390
3743.15767,0.14096
3745.08614,0.14296
3747.01460,0.14860
3748.94307,0.14989
3750.87154,0.14520
3752.80001,0.14106
3754.72848,0.14150
3756.65695,0.14356
3758.58542,0.14180
3760.51389,0.13515
3762.44235,0.13409
3764.37082,0.14234
3766.29929,0.14939
3768.22776,0.14543
3770.15623,0.13431
3772.08470,0.12631
3774.01317,0.12445
3775.94163,0.12588
3777.87010,0.13178
3779.79857,0.14018
3781.72704,0.14516
3783.65551,0.14559
3785.58398,0.13944
3787.51245,0.12905
3789.44092,0.12316
3791.36938,0.12430
3793.29785,0.12603
3795.22632,0.12590
3797.15479,0.12889
3799.08326,0.13520
3801.01173,0.13844
3802.94020,0.13479
3804.86866,0.13263
3806.79713,0.13208
3808.72560,0.12847
3810.65407,0.12481
3812.58254,0.12280
3814.51101,0.12305
3816.43948,0.12726
3818.36795,0.13507
3820.29641,0.14198
3822.22488,0.13790
3824.15335,0.13221
3826.08182,0.13284
3828.01029,0.13215
3829.93876,0.12948
3831.86723,0.12931
3833.79569,0.13043
3835.72416,0.13045
3837.65263,0.13008
3839.58110,0.13204
3841.50957,0.13729
3843.43804,0.14000
3845.36651,0.13430
3847.29498,0.12452
3849.22344,0.12022
3851.15191,0.13157
3853.08038,0.15348
3855.00885,0.14365
3856.93732,0.12381
3858.86579,0.11693
3860.79426,0.12025
3862.72272,0.12783
3864.65119,0.12785
3866.57966,0.12143
3868.50813,0.12139
3870.43660,0.12515
3872.36507,0.12306
3874.29354,0.12144
3876.22200,0.12366
3878.15047,0.12688
3880.07894,0.12837
3882.00741,0.12535
3883.93588,0.12388
3885.86435,0.12375
3887.79282,0.11998
3889.72129,0.12006
3891.64975,0.12739
3893.57822,0.12871
3895.50669,0.12393
3897.43516,0.12358
3899.36363,0.12343
3901.29210,0.11625
3903.22057,0.11030
3905.14903,0.10933
3907.07750,0.10856
3909.00597,0.10944
3910.93444,0.11187
3912.86291,0.11224
3914.79138,0.11360
3916.71985,0.12061
3918.64832,0.12828
3920.57678,0.12978
3922.50525,0.12623
3924.43372,0.12114
3926.36219,0.11625
3928.29066,0.11345
3930.21913,0.11324
3932.14760,0.11401
3934.07606,0.11350
3936.00453,0.11014
3937.93300,0.10825
3939.86147,0.11260
3941.78994,0.11819
3943.71841,0.11710
3945.64688,0.11267
3947.57535,0.11139
3949.50381,0.11181
3951.43228,0.11043
3953.36075,0.10768
3955.28922,0.10382
3957.21769,0.09990
3959.14616,0.10047
3961.07463,0.10407
3963.00309,0.10430
3964.93156,0.10183
3966.86003,0.10315
3968.78850,0.11087
3970.71697,0.11522
3972.64544,0.10766
3974.57391,0.09860
3976.50238,0.09975
3978.43084,0.10580
3980.35931,0.10744
3982.28778,0.10404
3984.21625,0.09923
3986.14472,0.09648
3988.07319,0.09935
3990.00166,0.10499
3991.93012,0.10316
3993.85859,0.09677
3995.78706,0.09717
3997.71553,0.10149
3999.64400,0.10563
4001.57247,0.10903
4003.50094,0.10774
4005.42941,0.10519
4007.35787,0.10882
4009.28634,0.11364
4011.21481,0.10914
4013.14328,0.10031
4015.07175,0.09594
4017.00022,0.09406
4018.92869,0.09378
4020.85715,0.09413
4022.78562,0.09294
4024.71409,0.09540
4026.64256,0.10185
4028.57103,0.10468
4030.49950,0.10188
4032.42797,0.09643
4034.35644,0.09405
4036.28490,0.09581
4038.21337,0.09856
4040.14184,0.10168
4042.07031,0.10138
4043.99878,0.09931
4045.92725,0.10097
4047.85572,0.10368
4049.78418,0.10511
4051.71265,0.10436
4053.64112,0.10085
4055.56959,0.09854
4057.49806,0.09906
4059.42653,0.09863
4061.35500,0.09712
4063.28346,0.09670
4065.21193,0.09592
4067.14040,0.09581
4069.06887,0.09935
4070.99734,0.10550
4072.92581,0.10824
4074.85428,0.10402
4076.78275,0.09936
4078.71121,0.09865
4080.63968,0.09700
4082.56815,0.09378
4084.49662,0.09332
4086.42509,0.09366
4088.35356,0.09238
4090.28203,0.09195
4092.21049,0.09131
4094.13896,0.09009
4096.06743,0.09284
4097.99590,0.09677
4099.92437,0.09518
4101.85284,0.09141
4103.78131,0.08939
4105.70978,0.08577
4107.63824,0.08190
4109.56671,0.08348
4111.49518,0.08820
4113.42365,0.09041
4115.35212,0.08915
4117.28059,0.08563
4119.20906,0.08322
4121.13752,0.08379
4123.06599,0.08446
4124.99446,0.08557
4126.92293,0.08900
4128.85140,0.09182
4130.77987,0.09063
4132.70834,0.08795
4134.63681,0.08749
4136.56527,0.08678
4138.49374,0.08349
4140.42221,0.08092
4142.35068,0.08232
4144.27915,0.08253
4146.20762,0.07680
4148.13609,0.07443
4150.06455,0.08162
4151.99302,0.09120
4153.92149,0.09776
4155.84996,0.10292
4157.77843,0.10417
4159.70690,0.09686
4161.63537,0.08939
4163.56384,0.08759
4165.49230,0.08770
4167.42077,0.09055
4169.34924,0.09134
4171.27771,0.08494
4173.20618,0.07753
4175.13465,0.07351
4177.06312,0.07226
4178.99158,0.07106
4180.92005,0.06931
4182.84852,0.07123
4184.77699,0.07713
4186.70546,0.08110
4188.63393,0.07915
4190.56240,0.07290
4192.49087,0.06728
4194.41933,0.06699
4196.34780,0.07148
4198.27627,0.07347
4200.20474,0.06972
4202.13321,0.06849
4204.06168,0.07152
4205.99015,0.07092
4207.91861,0.06862
4209.84708,0.06760
4211.77555,0.06578
4213.70402,0.06640
4215.63249,0.07093
4217.56096,0.07541
4219.48943,0.07733
4221.41789,0.07822
4223.34636,0.07733
4225.27483,0.07121
4227.20330,0.06426
4229.13177,0.06259
4231.06024,0.06140
4232.98871,0.05922
4234.91718,0.06319
4236.84564,0.06709
4238.77411,0.06201
4240.70258,0.05693
4242.63105,0.05947
4244.55952,0.06434
4246.48799,0.06747
4248.41646,0.06864
4250.34492,0.06754
4252.27339,0.06839
4254.20186,0.07087
4256.13033,0.07060
4258.05880,0.07073
4259.98727,0.07115
4261.91574,0.06716
4263.84421,0.06031
4265.77267,0.05746
4267.70114,0.05917
4269.62961,0.05838
4271.55808,0.05520
4273.48655,0.05309
4275.41502,0.05356
4277.34349,0.05740
4279.27195,0.05981
4281.20042,0.06071
4283.12889,0.06391
4285.05736,0.06417
4286.98583,0.06157
4288.91430,0.06423
4290.84277,0.06931
4292.77124,0.06793
4294.69970,0.05960
4296.62817,0.05160
4298.55664,0.04984
4300.48511,0.05453
4302.41358,0.06036
4304.34205,0.05883
4306.27052,0.05190
4308.19898,0.04919
4310.12745,0.05276
4312.05592,0.05911
4313.98439,0.06066
4315.91286,0.05419
4317.84133,0.04961
4319.76980,0.05068
4321.69827,0.05005
4323.62673,0.04739
4325.55520,0.04757
4327.48367,0.05068
4329.41214,0.05180
4331.34061,0.05073
4333.26908,0.05159
4335.19755,0.05200
4337.12601,0.05074
4339.05448,0.05113
4340.98295,0.05273
4342.91142,0.05281
4344.83989,0.05104
4346.76836,0.04725
4348.69683,0.04025
4350.62530,0.03655
4352.55376,0.03990
4354.48223,0.04455
4356.41070,0.05007
4358.33917,0.05431
4360.26764,0.05327
4362.19611,0.05170
4364.12458,0.05153
4366.05304,0.05058
4367.98151,0.05004
4369.90998,0.04822
4371.83845,0.04473
4373.76692,0.04604
4375.69539,0.05074
4377.62386,0.05348
4379.55232,0.05743
4381.48079,0.06099
4383.40926,0.05852
4385.33773,0.05137
4387.26620,0.04646
4389.19467,0.04723
4391.12314,0.04721
4393.05161,0.04307
4394.98007,0.03984
4396.90854,0.04010
4398.83701,0.04198
4400.76548,0.04380
4402.69395,0.04192
4404.62242,0.03558
4406.55089,0.03259
4408.47935,0.03642
4410.40782,0.04262
4412.33629,0.04503
4414.26476,0.04233
4416.19323,0.03849
4418.12170,0.03457
4420.05017,0.03050
4421.97864,0.03124
4423.90710,0.04129
4425.83557,0.04693
4427.76404,0.03488
4429.69251,0.02167
4431.62098,0.02336
4433.54945,0.03163
4435.47792,0.03416
4437.40638,0.03087
4439.33485,0.03148
4441.26332,0.03905
4443.19179,0.04054
4445.12026,0.03532
4447.04873,0.03802
4448.97720,0.04155
4450.90567,0.03803
4452.83413,0.03676
4454.76260,0.03641
4456.69107,0.02925
4458.61954,0.01963
4460.54801,0.01885
4462.47648,0.02753
4464.40495,0.03518
4466.33341,0.03629
4468.26188,0.03465
4470.19035,0.03335
4472.11882,0.02909
4474.04729,0.02264
4475.97576,0.01771
4477.90423,0.01182
4479.83270,0.00765
4481.76116,0.01432
4483.68963,0.02520
4485.61810,0.02767
4487.54657,0.02857
4489.47504,0.03340
4491.40351,0.03530
4493.33198,0.03432
4495.26044,0.03247
4497.18891,0.02652
4499.11738,0.01761
4501.04585,0.01113
4502.97432,0.00580
4504.90279,-0.00292
4506.83126,-0.00683
4508.75973,0.00580
4510.68819,0.02507
4512.61666,0.03286
4514.54513,0.02938
4516.47360,0.02262
4518.40207,0.01576
4520.33054,0.01318
4522.25901,0.01573
4524.18747,0.01779
4526.11594,0.01765
4528.04441,0.01607
4529.97288,0.01084
4531.90135,0.00610
4533.82982,0.01061
4535.75829,0.02216
4537.68676,0.02642
4539.61522,0.01840
4541.54369,0.01393
4543.47216,0.02143
4545.40063,0.02563
4547.32910,0.02053
4549.25757,0.02203
4551.18604,0.03150
4553.11450,0.03408
4555.04297,0.02573
4556.97144,0.01358
4558.89991,0.00906
4560.82838,0.01236
4562.75685,0.01190
4564.68532,0.00769
4566.61378,0.00913
4568.54225,0.01570
4570.47072,0.01920
4572.39919,0.01816
4574.32766,0.01746
4576.25613,0.01702
4578.18460,0.01274
4580.11307,0.00856
4582.04153,0.01310
4583.97000,0.02458
4585.89847,0.03220
4587.82694,0.02936
4589.75541,0.02315
4591.68388,0.02218
4593.61235,0.02537
4595.54081,0.03017
4597.46928,0.02901
4599.39775,0.01720
4601.32622,0.00675
4603.25469,0.00298
4605.18316,0.00523
4607.11163,0.01653
4609.04010,0.02140
4610.96856,0.01358
4612.89703,0.01338
4614.82550,0.02282
4616.75397,0.02563
4618.68244,0.01778
4620.61091,0.01078
4622.53938,0.01162
4624.46784,0.01090
4626.39631,0.00402
4628.32478,-0.00266
4630.25325,-0.00458
4632.18172,0.00650
4634.11019,0.02859
4636.03866,0.03881
4637.96713,0.03287
4639.89559,0.02992
4641.82406,0.02929
4643.75253,0.01811
4645.68100,0.00496
4647.60947,-0.00052
4649.53794,-0.00435
4651.46641,-0.00771
4653.39487,-0.00884
4655.32334,-0.00875
4657.25181,-0.00426
4659.18028,0.00363
4661.10875,0.01103
4663.03722,0.01689
4664.96569,0.02048
4666.89416,0.02419
4668.82262,0.02556
4670.75109,0.02096
4672.67956,0.01632
4674.60803,0.01497
4676.53650,0.01356
4678.46497,0.00950
4680.39344,0.00534
4682.32190,0.00536
4684.25037,0.00561
4686.17884,0.00164
4688.10731,-0.00148
4690.03578,-0.00137
4691.96425,-0.00097
4693.89272,0.00203
4695.82119,0.00601
4697.74965,0.00545
4699.67812,0.00390
4701.60659,0.00551
4703.53506,0.00742
4705.46353,0.00809
4707.39200,0.00832
4709.32047,0.01083
4711.24893,0.01777
4713.17740,0.01935
4715.10587,0.01440
4717.03434,0.02096
4718.96281,0.03862
4720.89128,0.04673
4722.81975,0.03619
4724.74821,0.01686
4726.67668,0.00526
4728.60515,0.00901
4730.53362,0.02106
4732.46209,0.02818
4734.39056,0.02372
4736.31903,0.01373
4738.24750,0.00691
4740.17596,0.00453
4742.10443,0.00587
4744.03290,0.00836
4745.96137,0.00687
4747.88984,0.00122
4749.81831,-0.00060
4751.74678,0.00602
4753.67524,0.01235
4755.60371,0.01523
4757.53218,0.01517
4759.46065,0.00626
4761.38912,-0.00114
4763.31759,0.00709
4765.24606,0.02101
4767.17453,0.02691
4769.10299,0.02873
4771.03146,0.03547
4772.95993,0.03883
4774.88840,0.02803
4776.81687,0.02013
4778.74534,0.02745
4780.67381,0.03097
4782.60227,0.02663
4784.53074,0.02755
4786.45921,0.02836
4788.38768,0.02520
4790.31615,0.02144
4792.24462,0.01332
4794.17309,0.00717
4796.10156,0.01054
4798.03002,0.01335
4799.95849,0.01020
4801.88696,0.00769
4803.81543,0.01004
4805.74390,0.01329
4807.67237,0.01279
4809.60084,0.00993
4811.52930,0.00475
4813.45777,0.00092
4815.38624,0.00540
4817.31471,0.01087
4819.24318,0.00741
4821.17165,0.00143
4823.10012,-0.00041
4825.02859,-0.00011
4826.95705,0.00041
4828.88552,-0.00172
4830.81399,-0.00399
4832.74246,0.00086
4834.67093,0.00741
4836.59940,0.00686
4838.52787,0.00288
4840.45633,0.00001
4842.38480,-0.00040
4844.31327,0.00537
4846.24174,0.01328
4848.17021,0.01603
4850.09868,0.01850
4852.02715,0.01980
4853.95562,0.01479
4855.88408,0.01637
4857.81255,0.02597
4859.74102,0.02679
4861.66949,0.01790
4863.59796,0.00819
4865.52643,0.00233
4867.45490,0.00181
4869.38336,0.00175
4871.31183,0.00372
4873.24030,0.00807
4875.16877,-0.00142
4877.09724,-0.01660
4879.02571,-0.00823
4880.95418,0.01237
4882.88265,0.01519
4884.81111,0.00597
4886.73958,-0.00056
4888.66805,-0.00911
4890.59652,-0.01346
4892.52499,-0.00419
4894.45346,0.00406
4896.38193,0.00748
4898.31039,0.01319
4900.23886,0.01290
4902.16733,0.00500
4904.09580,-0.00077
4906.02427,-0.00211
4907.95274,-0.00026
4909.88121,0.00276
4911.80967,0.00637
4913.73814,0.01402
4915.66661,0.02480
4917.59508,0.03760
4919.52355,0.04232
4921.45202,0.03085
4923.38049,0.01475
4925.30896,0.00448
4927.23742,0.00020
4929.16589,-0.00242
4931.09436,0.00315
4933.02283,0.01976
4934.95130,0.02546
4936.87977,0.01417
4938.80824,0.00614
4940.73670,0.00167
4942.66517,-0.00805
4944.59364,-0.01086
4946.52211,-0.00052
4948.45058,0.01384
4950.37905,0.01683
4952.30752,0.00025
4954.23599,-0.01289
4956.16445,-0.00205
4958.09292,0.01718
4960.02139,0.02976
4961.94986,0.03660
4963.87833,0.03320
4965.80680,0.02105
4967.73527,0.01138
4969.66373,0.00856
4971.59220,0.00820
4973.52067,0.00148
4975.44914,-0.00803
4977.37761,-0.01382
4979.30608,-0.01681
4981.23455,-0.01107
4983.16302,0.00883
4985.09148,0.02806
4987.01995,0.02480
4988.94842,0.01066
4990.87689,0.00694
4992.80536,0.00490
4994.73383,0.00476
4996.66230,0.01822
4998.59076,0.02987
5000.51923,0.02451
5002.44770,0.01448
5004.37617,0.01356
5006.30464,0.01497
5008.23311,0.01158
5010.16158,0.00792
5012.09005,0.00876
5014.01851,0.01407
5015.94698,0.01793
5017.87545,0.01594
5019.80392,0.00973
5021.73239,0.00502
5023.66086,0.00398
5025.58933,0.00502
5027.51779,0.01985
5029.44626,0.04349
5031.37473,0.04647
5033.30320,0.03573
5035.23167,0.03587
5037.16014,0.03562
5039.08861,0.02377
5041.01708,0.01283
5042.94554,0.01372
5044.87401,0.02421
5046.80248,0.03300
5048.73095,0.03892
5050.65942,0.04521
5052.58789,0.04274
5054.51636,0.03345
5056.44482,0.02624
5058.37329,0.02046
5060.30176,0.01682
5062.23023,0.00919
5064.15870,-0.00455
5066.08717,-0.00947
5068.01564,-0.00142
5069.94410,0.01723
5071.87257,0.03756
5073.80104,0.03948
5075.72951,0.02673
5077.65798,0.02036
5079.58645,0.02246
5081.51492,0.01677
5083.44339,0.00556
5085.37185,0.00505
5087.30032,0.01278
5089.22879,0.01895
5091.15726,0.02374
5093.08573,0.02543
5095.01420,0.01751
5096.94267,0.01121
5098.87113,0.01582
5100.79960,0.02327
5102.72807,0.03144
5104.65654,0.03593
5106.58501,0.03659
5108.51348,0.04009
5110.44195,0.04049
5112.37042,0.03711
5114.29888,0.03716
5116.22735,0.03769
5118.15582,0.03900
5120.08429,0.03738
5122.01276,0.02457
5123.94123,0.00667
5125.86970,-0.00434
5127.79816,0.00262
5129.72663,0.01745
5131.65510,0.02904
5133.58357,0.04487
5135.51204,0.05339
5137.44051,0.04086
5139.36898,0.01985
5141.29745,0.01258
5143.22591,0.02438
5145.15438,0.03506
5147.08285,0.02676
5149.01132,0.00836
5150.93979,-0.00044
5152.86826,-0.00085
5154.79673,0.00042
5156.72519,0.00845
5158.65366,0.01684
5160.58213,0.02316
5162.51060,0.03230
5164.43907,0.03208
5166.36754,0.02422
5168.29601,0.02702
5170.22448,0.04093
5172.15294,0.05259
5174.08141,0.05178
5176.00988,0.03980
5177.93835,0.03054
5179.86682,0.03532
5181.79529,0.04484
5183.72376,0.05347
5185.65222,0.06000
5187.58069,0.05246
5189.50916,0.04208
5191.43763,0.03911
5193.36610,0.04009
5195.29457,0.04651
5197.22304,0.04473
5199.15151,0.03437
5201.07997,0.03089
5203.00844,0.02224
5204.93691,0.00175
5206.86538,-0.00865
5208.79385,0.00020
5210.72232,0.00852
5212.65079,0.01142
5214.57925,0.02162
5216.50772,0.04093
5218.43619,0.05157
5220.36466,0.05017
5222.29313,0.05607
5224.22160,0.05614
5226.15007,0.03547
5228.07854,0.02813
5230.00700,0.04367
5231.93547,0.05823
5233.86394,0.06605
5235.79241,0.07740
5237.72088,0.09446
5239.64935,0.10494
5241.57782,0.10273
5243.50628,0.09455
5245.43475,0.07881
5247.36322,0.04812
5249.29169,0.02075
5251.22016,0.01881
5253.14863,0.03776
5255.07710,0.06338
5257.00556,0.07140
5258.93403,0.05955
5260.86250,0.05644
5262.79097,0.06867
5264.71944,0.06091
5266.64791,0.03321
5268.57638,0.02691
5270.50485,0.03944
5272.43331,0.03811
5274.36178,0.02084
5276.29025,0.00831
5278.21872,0.01616
5280.14719,0.03920
5282.07566,0.04612
5284.00413,0.02551
5285.93259,0.00494
5287.86106,0.00759
5289.78953,0.03123
5291.71800,0.05214
5293.64647,0.05314
5295.57494,0.04838
5297.50341,0.04837
5299.43188,0.04247
5301.36034,0.02638
5303.28881,0.01366
5305.21728,0.01970
5307.14575,0.04502
5309.07422,0.06790
5311.00269,0.07390
5312.93116,0.06524
5314.85962,0.05144
5316.78809,0.03884
5318.71656,0.02294
5320.64503,0.02905
5322.57350,0.06659
5324.50197,0.07477
5326.43044,0.03187
5328.35891,0.01093
5330.28737,0.04299
5332.21584,0.07741
5334.14431,0.08069
5336.07278,0.07940
5338.00125,0.09539
5339.92972,0.09126
5341.85819,0.05936
5343.78665,0.03783
5345.71512,0.03509
5347.64359,0.04029
5349.57206,0.05541
5351.50053,0.06476
5353.42900,0.06143
5355.35747,0.07353
5357.28594,0.09773
5359.21440,0.10412
5361.14287,0.08214
5363.07134,0.05176
5364.99981,0.03740
5366.92828,0.03889
5368.85675,0.05059
5370.78522,0.06473
5372.71368,0.06499
5374.64215,0.04719
5376.57062,0.03539
5378.49909,0.04178
5380.42756,0.03420
5382.35603,0.01082
5384.28450,0.00602
5386.21297,0.02359
5388.14143,0.04030
5390.06990,0.05465
5391.99837,0.07018
5393.92684,0.07573
5395.85531,0.05093
5397.78378,0.02042
5399.71225,0.02508
5401.64071,0.04691
5403.56918,0.05013
5405.49765,0.04446
5407.42612,0.05007
5409.35459,0.06003
5411.28306,0.06509
5413.21153,0.05465
5415.13999,0.03183
5417.06846,0.02922
5418.99693,0.04275
5420.92540,0.04244
5422.85387,0.03349
5424.78234,0.03708
5426.71081,0.03994
5428.63928,0.01963
5430.56774,0.00408
5432.49621,0.02830
5434.42468,0.06582
5436.35315,0.07995
5438.28162,0.08470
5440.21009,0.09026
5442.13856,0.09175
5444.06702,0.09676
5445.99549,0.10146
5447.92396,0.09779
5449.85243,0.09188
5451.78090,0.08494
5453.70937,0.07144
5455.63784,0.06509
5457.56631,0.07476
5459.49477,0.07302
5461.42324,0.06398
5463.35171,0.06459
5465.28018,0.06160
5467.20865,0.05677
5469.13712,0.05446
5471.06559,0.06145
5472.99405,0.08940
5474.92252,0.11442
5476.85099,0.10072
5478.77946,0.06720
5480.70793,0.05080
5482.63640,0.05674
5484.56487,0.06991
5486.49334,0.07757
5488.42180,0.06901
5490.35027,0.04305
5492.27874,0.01665
5494.20721,0.01068
5496.13568,0.02138
5498.06415,0.03428
5499.99262,0.05349
5501.92108,0.08073
5503.84955,0.09604
5505.77802,0.09184
5507.70649,0.09177
5509.63496,0.10527
5511.56343,0.10201
5513.49190,0.06937
5515.42037,0.04019
5517.34883,0.03464
5519.27730,0.03764
5521.20577,0.05091
5523.13424,0.08317
5525.06271,0.10284
5526.99118,0.08353
5528.91965,0.03978
5530.84811,0.00761
5532.77658,0.01272
5534.70505,0.03706
5536.63352,0.05967
5538.56199,0.08480
5540.49046,0.10594
5542.41893,0.11897
5544.34740,0.13731
5546.27586,0.13784
5548.20433,0.10386
5550.13280,0.08624
5552.06127,0.10098
5553.98974,0.09928
5555.91821,0.06315
5557.84668,0.04143
5559.77514,0.06776
5561.70361,0.10399
5563.63208,0.10673
5565.56055,0.07831
5567.48902,0.06346
5569.41749,0.09288
5571.34596,0.12822
5573.27443,0.12670
5575.20289,0.09926
5577.13136,0.07945
5579.05983,0.07002
5580.98830,0.06074
5582.91677,0.06941
5584.84524,0.09546
5586.77371,0.10178
5588.70217,0.07289
5590.63064,0.04009
5592.55911,0.03458
5594.48758,0.04789
5596.41605,0.06574
5598.34452,0.08023
5600.27299,0.08136
5602.20145,0.08702
5604.12992,0.11785
5606.05839,0.12963
5607.98686,0.09994
5609.91533,0.08537
5611.84380,0.08815
5613.77227,0.07077
5615.70074,0.05895
5617.62920,0.07041
5619.55767,0.08326
5621.48614,0.09625
5623.41461,0.10599
5625.34308,0.09680
5627.27155,0.09035
5629.20002,0.08542
5631.12848,0.07251
5633.05695,0.08741
5634.98542,0.11229
5636.91389,0.09123
5638.84236,0.04258
5640.77083,0.02264
5642.69930,0.04004
5644.62777,0.05532
5646.55623,0.05714
5648.48470,0.07472
5650.41317,0.08807
5652.34164,0.07530
5654.27011,0.07086
5656.19858,0.08899
5658.12705,0.10429
5660.05551,0.09642
5661.98398,0.08216
5663.91245,0.08034
5665.84092,0.08568
5667.76939,0.08914
5669.69786,0.08154
5671.62633,0.07211
5673.55480,0.07765
5675.48326,0.09744
5677.41173,0.11992
5679.34020,0.13260
5681.26867,0.13389
5683.19714,0.14054
5685.12561,0.15473
5687.05408,0.14129
5688.98254,0.10233
5690.91101,0.09034
5692.83948,0.09699
5694.76795,0.08243
5696.69642,0.05507
5698.62489,0.04360
5700.55336,0.05377
5702.48183,0.05383
5704.41029,0.04194
5706.33876,0.05285
5708.26723,0.07973
5710.19570,0.09756
5712.12417,0.08984
5714.05264,0.05296
5715.98111,0.02779
5717.90957,0.04810
5719.83804,0.08917
5721.76651,0.12478
5723.69498,0.14540
5725.62345,0.13578
5727.55192,0.10604
5729.48039,0.08138
5731.40886,0.07447
5733.33732,0.08596
5735.26579,0.08919
5737.19426,0.06544
5739.12273,0.05251
5741.05120,0.06820
5742.97967,0.09381
5744.90814,0.11591
5746.83660,0.11291
5748.76507,0.07966
5750.69354,0.04511
5752.62201,0.05431
5754.55048,0.09998
5756.47895,0.13045
5758.40742,0.13589
5760.33588,0.10678
5762.26435,0.04944
5764.19282,0.03003
5766.12129,0.05130
5768.04976,0.05904
5769.97823,0.05849
5771.90670,0.07470
5773.83517,0.10004
5775.76363,0.10909
5777.69210,0.09918
5779.62057,0.08577
5781.54904,0.06286
5783.47751,0.04458
5785.40598,0.05006
5787.33445,0.05072
5789.26291,0.04766
5791.19138,0.07574
5793.11985,0.10303
5795.04832,0.08272
5796.97679,0.04612
5798.90526,0.04330
5800.83373,0.06653
5802.76220,0.08264
5804.69066,0.08869
5806.61913,0.10568
5808.54760,0.13251
5810.47607,0.14514
5812.40454,0.12824
5814.33301,0.10721
5816.26148,0.11261
5818.18994,0.14013
5820.11841,0.16580
5822.04688,0.15169
5823.97535,0.10114
5825.90382,0.06389
5827.83229,0.06127
5829.76076,0.08676
5831.68923,0.11350
5833.61769,0.13892
5835.54616,0.16483
5837.47463,0.14368
5839.40310,0.09452
5841.33157,0.08471
5843.26004,0.09059
5845.18851,0.07206
5847.11697,0.06535
5849.04544,0.09424
5850.97391,0.11542
5852.90238,0.11422
5854.83085,0.10493
5856.75932,0.08896
5858.68779,0.07944
5860.61626,0.07811
5862.54472,0.05712
5864.47319,0.00856
5866.40166,-0.01823
5868.33013,0.01820
5870.25860,0.08356
5872.18707,0.11930
5874.11554,0.12200
5876.04400,0.10764
5877.97247,0.07890
5879.90094,0.05605
5881.82941,0.04853
5883.75788,0.03272
5885.68635,-0.00437
5887.61482,-0.02736
5889.54329,-0.00050
5891.47175,0.05146
5893.40022,0.08534
5895.32869,0.09431
5897.25716,0.09938
5899.18563,0.11248
5901.11410,0.13599
5903.04257,0.15493
5904.97103,0.15254
5906.89950,0.13840
5908.82797,0.11784
5910.75644,0.09460
5912.68491,0.06864
5914.61338,0.06357
5916.54185,0.09581
5918.47032,0.11641
5920.39878,0.10001
5922.32725,0.06047
5924.25572,0.01627
5926.18419,-0.00846
5928.11266,-0.01334
5930.04113,0.00904
5931.96960,0.04751
5933.89806,0.04877
5935.82653,0.03195
5937.75500,0.06611
5939.68347,0.12426
5941.61194,0.13971
5943.54041,0.10840
5945.46888,0.07830
5947.39734,0.07517
5949.32581,0.07307
5951.25428,0.06479
5953.18275,0.08255
5955.11122,0.10735
5957.03969,0.10436
5958.96816,0.10426
5960.89663,0.12330
5962.82509,0.12195
5964.75356,0.10660
5966.68203,0.10160
5968.61050,0.11190
5970.53897,0.14985
5972.46744,0.19236
5974.39591,0.19727
5976.32437,0.17425
5978.25284,0.16079
5980.18131,0.16006
5982.10978,0.13121
5984.03825,0.07016
5985.96672,0.03081
5987.89519,0.04248
5989.82366,0.08001
5991.75212,0.09854
5993.68059,0.09627
5995.60906,0.10209
5997.53753,0.11540
5999.46600,0.10506
6001.39447,0.04923
6003.32294,0.01037
6005.25140,0.04126
6007.17987,0.07305
6009.10834,0.08063
6011.03681,0.09182
6012.96528,0.09375
6014.89375,0.09176
6016.82222,0.09915
6018.75069,0.11994
6020.67915,0.14981
6022.60762,0.14283
6024.53609,0.11831
6026.46456,0.13244
6028.39303,0.13451
6030.32150,0.08958
6032.24997,0.04963
6034.17843,0.03181
6036.10690,0.03597
6038.03537,0.06191
6039.96384,0.08080
6041.89231,0.07651
6043.82078,0.05851
6045.74925,0.04843
6047.67772,0.06146
6049.60618,0.06535
6051.53465,0.04490
6053.46312,0.04970
6055.39159,0.09838
6057.32006,0.16247
6059.24853,0.17593
6061.17700,0.11795
6063.10546,0.08238
6065.03393,0.09466
6066.96240,0.09501
6068.89087,0.07854
6070.81934,0.05112
6072.74781,0.02088
6074.67628,0.02917
6076.60475,0.08400
6078.53321,0.11411
6080.46168,0.09401
6082.39015,0.07720
6084.31862,0.06096
6086.24709,0.02733
6088.17556,0.01390
6090.10403,0.02411
6092.03249,0.03815
6093.96096,0.06054
6095.88943,0.07809
6097.81790,0.08739
6099.74637,0.10468
6101.67484,0.10147
6103.60331,0.05259
6105.53177,0.00228
6107.46024,0.01117
6109.38871,0.06887
6111.31718,0.09231
6113.24565,0.07006
6115.17412,0.06128
6117.10259,0.06429
6119.03106,0.05027
6120.95952,0.02293
6122.88799,0.01155
6124.81646,0.04550
6126.74493,0.08938
6128.67340,0.10307
6130.60187,0.09870
6132.53034,0.06835
6134.45880,0.03933
6136.38727,0.04630
6138.31574,0.06599
6140.24421,0.09133
6142.17268,0.10377
6144.10115,0.07419
6146.02962,0.05446
6147.95809,0.07853
6149.88655,0.10182
6151.81502,0.08382
6153.74349,0.06564
6155.67196,0.09710
6157.60043,0.13698
6159.52890,0.15081
6161.45737,0.16753
6163.38583,0.18831
6165.31430,0.16306
6167.24277,0.09182
6169.17124,0.03894
6171.09971,0.03904
6173.02818,0.06937
6174.95665,0.10670
6176.88512,0.12076
6178.81358,0.09003
6180.74205,0.07578
6182.67052,0.11578
6184.59899,0.15222
6186.52746,0.12374
6188.45593,0.04733
6190.38440,0.01837
6192.31286,0.02778
6194.24133,0.01229
6196.16980,0.00831
6198.09827,0.04170
6200.02674,0.06357
6201.95521,0.06216
6203.88368,0.07165
6205.81215,0.09501
6207.74061,0.11091
6209.66908,0.11778
6211.59755,0.11573
6213.52602,0.08916
6215.45449,0.06169
6217.38296,0.07850
6219.31143,0.11365
6221.23989,0.13139
6223.16836,0.13755
6225.09683,0.14200
6227.02530,0.13887
6228.95377,0.13320
6230.88224,0.13312
6232.81071,0.10239
6234.73918,0.06086
6236.66764,0.05529
6238.59611,0.05468
6240.52458,0.04356
6242.45305,0.02736
6244.38152,0.00507
6246.30999,0.00516
6248.23846,0.02839
6250.16692,0.04004
6252.09539,0.02188
6254.02386,0.00301
6255.95233,0.03007
6257.88080,0.07733
6259.80927,0.08570
6261.73774,0.06542
6263.66621,0.05964
6265.59467,0.05756
6267.52314,0.03418
6269.45161,0.02137
6271.38008,0.01073
6273.30855,0.00552
6275.23702,0.04482
6277.16549,0.10224
6279.09395,0.15589
6281.02242,0.18652
6282.95089,0.16020
6284.87936,0.10762
6286.80783,0.07352
6288.73630,0.03564
6290.66477,-0.01029
6292.59323,-0.00284
6294.52170,0.04974
6296.45017,0.06691
6298.37864,0.03488
6300.30711,0.00828
6302.23558,0.02888
6304.16405,0.07060
6306.09252,0.06893
6308.02098,0.05408
6309.94945,0.07825
6311.87792,0.07330
6313.80639,0.04027
6315.73486,0.04253
6317.66333,0.05685
6319.59180,0.07455
6321.52026,0.08598
6323.44873,0.06762
6325.37720,0.05797
6327.30567,0.06388
6329.23414,0.05147
6331.16261,0.03903
6333.09108,0.05492
6335.01955,0.08962
6336.94801,0.13613
6338.87648,0.18312
6340.80495,0.19584
6342.73342,0.16959
6344.66189,0.11974
6346.59036,0.05196
6348.51883,-0.00061
6350.44729,-0.01490
6352.37576,0.02688
6354.30423,0.12318
6356.23270,0.18854
6358.16117,0.14846
6360.08964,0.06570
6362.01811,0.02760
6363.94658,0.02871
6365.87504,0.04943
6367.80351,0.07297
6369.73198,0.08763
6371.66045,0.09382
6373.58892,0.10033
6375.51739,0.09856
6377.44586,0.08732
6379.37432,0.12905
6381.30279,0.22569
6383.23126,0.29623
6385.15973,0.28768
6387.08820,0.22185
6389.01667,0.15166
6390.94514,0.11369
6392.87361,0.10704
6394.80207,0.11817
6396.73054,0.13382
6398.65901,0.14590
6400.58748,0.16403
6402.51595,0.19389
6404.44442,0.20387
6406.37289,0.16408
6408.30135,0.10746
6410.22982,0.11005
6412.15829,0.15703
6414.08676,0.14901
6416.01523,0.08617
6417.94370,0.02820
6419.87217,-0.01310
6421.80064,-0.03883
6423.72910,-0.02212
6425.65757,0.02462
6427.58604,0.04966
6429.51451,0.08030
6431.44298,0.13289
6433.37145,0.13473
6435.29992,0.09342
6437.22838,0.06309
6439.15685,0.06398
6441.08532,0.09389
6443.01379,0.11001
6444.94226,0.08081
6446.87073,0.08059
6448.79920,0.13120
6450.72766,0.13855
6452.65613,0.11620
6454.58460,0.12776
6456.51307,0.10667
6458.44154,0.03981
6460.37001,0.00645
6462.29848,0.01286
6464.22695,0.03046
6466.15541,0.04985
6468.08388,0.08312
6470.01235,0.14714
6471.94082,0.22649
6473.86929,0.27222
6475.79776,0.23311
6477.72623,0.14358
6479.65469,0.08097
6481.58316,0.05648
6483.51163,0.04378
6485.44010,0.01267
6487.36857,-0.01774
6489.29704,0.00901
6491.22551,0.09664
6493.15398,0.17486
6495.08244,0.17050
6497.01091,0.07006
6498.93938,-0.03692
6500.86785,-0.04689
6502.79632,0.00207
6504.72479,0.00853
6506.65326,-0.01951
6508.58172,-0.00693
6510.51019,0.04831
6512.43866,0.09429
6514.36713,0.09664
6516.29560,0.03565
6518.22407,-0.00778
6520.15254,0.03073
6522.08101,0.07736
6524.00947,0.07214
6525.93794,0.06561
6527.86641,0.06911
6529.79488,0.05377
6531.72335,0.05544
6533.65182,0.08785
6535.58029,0.12358
6537.50875,0.13248
6539.43722,0.10795
6541.36569,0.06228
6543.29416,-0.00933
6545.22263,-0.07250
6547.15110,-0.06594
6549.07957,0.00238
6551.00804,0.07849
6552.93650,0.13448
6554.86497,0.15740
6556.79344,0.14155
6558.72191,0.09500
6560.65038,0.03759
6562.57885,0.00099
6564.50732,-0.02371
6566.43578,-0.06893
6568.36425,-0.13507
6570.29272,-0.15655
6572.22119,-0.08013
6574.14966,-0.01278
6576.07813,-0.02170
6578.00660,-0.00809
6579.93507,0.02819
6581.86353,0.05500
6583.79200,0.12211
6585.72047,0.17615
6587.64894,0.18194
6589.57741,0.17618
6591.50588,0.16760
6593.43435,0.14065
6595.36281,0.08640
6597.29128,0.03144
6599.21975,0.01903
6601.14822,0.06237
6603.07669,0.10556
6605.00516,0.11185
6606.93363,0.07321
6608.86210,0.05301
6610.79056,0.15376
6612.71903,0.26595
6614.64750,0.22896
6616.57597,0.10183
6618.50444,0.00250
6620.43291,-0.04055
6622.36138,-0.02683
6624.28984,0.05556
6626.21831,0.16403
6628.14678,0.23196
6630.07525,0.24765
6632.00372,0.25927
6633.93219,0.26549
6635.86066,0.25693
6637.78912,0.27359
6639.71759,0.26407
6641.64606,0.19157
6643.57453,0.14771
6645.50300,0.15376
6647.43147,0.09614
6649.35994,-0.01547
6651.28841,-0.05209
6653.21687,0.02465
6655.14534,0.12789
6657.07381,0.14811
6659.00228,0.11195
6660.93075,0.07771
6662.85922,0.03961
6664.78769,0.04815
6666.71615,0.10379
6668.64462,0.12824
6670.57309,0.07587
6672.50156,-0.01751
6674.43003,-0.03336
6676.35850,0.04657
6678.28697,0.09666
6680.21544,0.07331
6682.14390,0.06450
6684.07237,0.10814
6686.00084,0.13055
6687.92931,0.08425
6689.85778,0.00343
6691.78625,-0.05441
6693.71472,-0.06619
6695.64318,-0.07500
6697.57165,-0.11396
6699.50012,-0.11570
6701.42859,-0.06750
6703.35706,-0.03832
6705.28553,-0.04119
6707.21400,-0.01928
6709.14247,0.05182
6711.07093,0.09162
6712.99940,0.04663
6714.92787,-0.00652
6716.85634,0.03163
6718.78481,0.11798
6720.71328,0.13701
6722.64175,0.06255
6724.57021,-0.04859
6726.49868,-0.10383
6728.42715,-0.05842
6730.35562,0.01226
6732.28409,0.02960
6734.21256,-0.00511
6736.14103,-0.02339
6738.06950,0.05345
6739.99796,0.16605
6741.92643,0.21739
6743.85490,0.18549
6745.78337,0.07523
6747.71184,-0.06757
6749.64031,-0.15740
6751.56878,-0.19833
6753.49724,-0.19160
6755.42571,-0.06327
6757.35418,0.12775
6759.28265,0.22752
6761.21112,0.17436
6763.13959,0.09418
6765.06806,0.08504
6766.99653,0.09264
6768.92499,0.04522
6770.85346,-0.01067
6772.78193,-0.00430
6774.71040,0.02503
6776.63887,0.05889
6778.56734,0.12634
6780.49581,0.17384
6782.42427,0.17504
6784.35274,0.16510
6786.28121,0.12808
6788.20968,0.09138
6790.13815,0.10535
6792.06662,0.12186
6793.99509,0.12681
6795.92355,0.13110
6797.85202,0.11276
6799.78049,0.12097
6801.70896,0.16271
6803.63743,0.14921
6805.56590,0.07489
6807.49437,0.06975
6809.42284,0.18399
6811.35130,0.27671
6813.27977,0.21203
6815.20824,0.06976
6817.13671,-0.04025
6819.06518,-0.07390
6820.99365,-0.04797
6822.92212,-0.00383
6824.85058,-0.00337
6826.77905,-0.03863
6828.70752,-0.03862
6830.63599,-0.03050
6832.56446,-0.07805
6834.49293,-0.13297
6836.42140,-0.15271
6838.34987,-0.09774
6840.27833,0.03540
6842.20680,0.11161
6844.13527,0.08973
6846.06374,0.10521
6847.99221,0.17364
6849.92068,0.18199
6851.84915,0.11486
6853.77761,0.02191
6855.70608,0.00884
6857.63455,0.07374
6859.56302,0.07535
6861.49149,0.03591
6863.41996,-0.00519
6865.34843,-0.06074
6867.27690,-0.08998
6869.20536,-0.09195
6871.13383,-0.07515
6873.06230,0.02540
6874.99077,0.15295
6876.91924,0.17093
6878.84771,0.09025
6880.77618,0.03360
6882.70464,0.06539
6884.63311,0.06818
6886.56158,-0.03931
6888.49005,-0.12774
6890.41852,-0.13817
6892.34699,-0.09052
6894.27546,0.05422
6896.20393,0.19349
6898.13239,0.12966
6900.06086,-0.07784
6901.98933,-0.23063
6903.91780,-0.23420
6905.84627,-0.08771
6907.77474,0.01562
6909.70321,0.02500
6911.63167,0.05471
6913.56014,0.07561
6915.48861,0.10233
6917.41708,0.19786
6919.34555,0.23530
6921.27402,0.16269
6923.20249,0.13254
6925.13096,0.15341
6927.05942,0.13878
6928.98789,0.11087
6930.91636,0.16447
6932.84483,0.20988
6934.77330,0.14261
6936.70177,0.09982
6938.63024,0.14555
6940.55870,0.18856
6942.48717,0.17459
6944.41564,0.13996
6946.34411,0.12446
6948.27258,0.17804
6950.20105,0.24904
6952.12952,0.25968
6954.05799,0.23077
6955.98645,0.16765
6957.91492,0.07845
6959.84339,0.04056
6961.77186,0.04828
6963.70033,0.03251
6965.62880,0.01671
6967.55727,0.04914
6969.48573,0.08274
6971.41420,-0.00403
6973.34267,-0.19482
6975.27114,-0.23936
6977.19961,-0.08562
6979.12808,0.01792
6981.05655,0.01803
6982.98501,0.03578
6984.91348,0.12591
6986.84195,0.22972
6988.77042,0.26057
6990.69889,0.21407
6992.62736,0.13992
6994.55583,0.06098
6996.48430,0.05790
6998.41276,0.17832
7000.34123,0.24599
7002.26970,0.13589
7004.19817,0.03567
7006.12664,0.12579
7008.05511,0.21749
7009.98358,0.08838
7011.91204,-0.08759
7013.84051,-0.07334
7015.76898,0.07251
7017.69745,0.11630
7019.62592,0.03356
7021.55439,-0.02704
7023.48286,-0.02276
7025.41133,0.03394
7027.33979,0.15407
7029.26826,0.17974
7031.19673,0.09643
7033.12520,0.08334
7035.05367,0.04998
7036.98214,-0.07752
7038.91061,-0.18706
7040.83907,-0.22121
7042.76754,-0.13711
7044.69601,0.00292
7046.62448,0.08829
7048.55295,0.09332
7050.48142,0.05140
7052.40989,0.05982
7054.33836,0.13380
7056.26682,0.20040
7058.19529,0.20541
7060.12376,0.11290
7062.05223,0.00129
7063.98070,0.01010
7065.90917,0.14265
7067.83764,0.26020
7069.76610,0.22855
7071.69457,0.07173
7073.62304,0.00608
7075.55151,0.04507
7077.47998,0.08030
7079.40845,0.08755
7081.33692,0.06719
7083.26539,0.08756
7085.19385,0.16162
7087.12232,0.17348
7089.05079,0.13210
7090.97926,0.10658
7092.90773,0.03195
7094.83620,-0.03113
7096.76467,0.01593
7098.69313,0.07611
7100.62160,0.04495
7102.55007,-0.00820
7104.47854,0.00650
7106.40701,0.09003
7108.33548,0.16429
7110.26395,0.18011
7112.19242,0.13776
7114.12088,0.10130
7116.04935,0.08669
7117.97782,0.02545
7119.90629,-0.02851
7121.83476,-0.01915
7123.76323,-0.02721
7125.69170,-0.03320
7127.62016,0.04897
7129.54863,0.16064
7131.47710,0.23577
7133.40557,0.22656
7135.33404,0.08572
7137.26251,-0.02158
7139.19098,0.09702
7141.11944,0.24035
7143.04791,0.14153
7144.97638,0.00846
7146.90485,0.08628
7148.83332,0.19978
7150.76179,0.17973
7152.69026,0.03608
7154.61873,-0.07042
7156.54719,-0.03121
7158.47566,0.01973
7160.40413,-0.00551
7162.33260,-0.00231
7164.26107,0.06963
7166.18954,0.03744
7168.11801,-0.07668
7170.04647,-0.02752
7171.97494,0.16214
7173.90341,0.32264
7175.83188,0.35334
7177.76035,0.22603
7179.68882,0.16398
7181.61729,0.22535
7183.54576,0.18874
7185.47422,0.09163
7187.40269,0.10984
7189.33116,0.11247
7191.25963,-0.02689
7193.18810,-0.11025
7195.11657,0.00356
7197.04504,0.16246
7198.97350,0.18815
7200.90197,0.15987
7202.83044,0.25665
7204.75891,0.36424
7206.68738,0.26742
7208.61585,0.15122
7210.54432,0.07193
7212.47279,-0.00640
7214.40125,-0.10154
7216.32972,-0.16401
7218.25819,-0.11171
7220.18666,-0.12131
7222.11513,-0.12270
7224.04360,0.00684
7225.97207,0.11741
7227.90053,0.15641
7229.82900,0.24502
7231.75747,0.34328
7233.68594,0.31320
7235.61441,0.16333
7237.54288,0.05232
7239.47135,0.14958
7241.39982,0.34937
7243.32828,0.39025
7245.25675,0.21783
7247.18522,0.03499
7249.11369,-0.00869
7251.04216,0.04647
7252.97063,-0.06695
7254.89910,-0.19102
7256.82756,-0.07136
7258.75603,0.07859
7260.68450,0.12680
7262.61297,0.15715
7264.54144,0.19046
7266.46991,0.16575
7268.39838,0.10860
7270.32685,0.05024
7272.25531,0.06552
7274.18378,0.20474
7276.11225,0.27042
7278.04072,0.16400
7279.96919,0.01132
7281.89766,0.00596
7283.82613,0.06669
7285.75459,0.09700
7287.68306,0.08131
7289.61153,0.02110
7291.54000,-0.01723
7293.46847,0.04562
7295.39694,0.07799
7297.32541,0.06017
7299.25387,0.13178
7301.18234,0.23933
7303.11081,0.25452
7305.03928,0.19095
7306.96775,0.12525
7308.89622,0.07912
7310.82469,0.05368
7312.75316,-0.00176
7314.68162,-0.06354
7316.61009,0.02674
7318.53856,0.19406
7320.46703,0.18259
7322.39550,0.12750
7324.32397,0.18068
7326.25244,0.23111
7328.18090,0.08579
7330.10937,-0.24740
7332.03784,-0.36691
7333.96631,-0.25076
7335.89478,-0.12642
7337.82325,-0.04744
7339.75172,0.00565
7341.68019,0.01516
7343.60865,-0.00513
7345.53712,0.04373
7347.46559,0.20879
7349.39406,0.33390
7351.32253,0.26162
7353.25100,0.08480
7355.17947,-0.01288
7357.10793,0.06247
7359.03640,0.30549
7360.96487,0.42444
7362.89334,0.29560
7364.82181,0.16885
7366.75028,0.15096
7368.67875,0.17811
7370.60722,0.16682
7372.53568,0.17911
7374.46415,0.40954
7376.39262,0.59887
7378.32109,0.41995
7380.24956,0.21920
7382.17803,0.12669
7384.10650,-0.02391
7386.03496,-0.17020
7387.96343,-0.12278
7389.89190,-0.01130
7391.82037,0.11137
7393.74884,0.25532
7395.67731,0.26741
7397.60578,0.16783
7399.53425,0.10364
7401.46271,0.03382
7403.39118,-0.01066
7405.31965,0.08748
7407.24812,0.16594
7409.17659,0.14820
7411.10506,0.16370
7413.03353,0.13361
7414.96199,0.02959
7416.89046,-0.09680
7418.81893,-0.20013
7420.74740,-0.14711
7422.67587,0.02812
7424.60434,0.09719
7426.53281,0.00749
7428.46128,-0.05935
7430.38974,0.07483
7432.31821,0.33171
7434.24668,0.46443
7436.17515,0.36357
7438.10362,0.23493
7440.03209,0.20842
7441.96056,0.19651
7443.88902,0.11481
7445.81749,0.00498
7447.74596,0.00281
7449.67443,0.12642
7451.60290,0.16888
7453.53137,0.03828
7455.45984,-0.07886
7457.38831,-0.03691
7459.31677,0.26417
7461.24524,0.52170
7463.17371,0.35718
7465.10218,0.12484
7467.03065,0.20954
7468.95912,0.35956
7470.88759,0.25895
7472.81605,-0.00692
7474.74452,-0.16570
7476.67299,-0.09795
7478.60146,0.07325
7480.52993,0.13418
7482.45840,0.17713
7484.38687,0.17078
7486.31533,-0.00009
7488.24380,-0.24478
7490.17227,-0.35339
7492.10074,-0.19632
7494.02921,0.03885
7495.95768,0.18992
7497.88615,0.18358
