399.19301,9.47596
401.12148,0.58109
403.04995,-0.05856
404.97842,-0.10678
406.90689,-0.16163
408.83536,-0.17383
410.76382,-0.05813
412.69229,0.01560
414.62076,-0.06521
416.54923,-0.22560
418.47770,-0.30248
420.40617,-0.15426
422.33464,-0.03264
424.26311,-0.01974
426.19157,-0.01063
428.12004,-0.02712
430.04851,-0.07482
431.97698,-0.03081
433.90545,0.05596
435.83392,0.05384
437.76239,0.01769
439.69085,0.01430
441.61932,0.02658
443.54779,0.07925
445.47626,0.16119
447.40473,0.16424
449.33320,0.08180
451.26167,0.06225
453.19013,0.13467
455.11860,0.15846
457.04707,0.10377
458.97554,0.05457
460.90401,0.04561
462.83248,0.07373
464.76095,0.12369
466.68942,0.17252
468.61788,0.18213
470.54635,0.18101
472.47482,0.28907
474.40329,0.43454
476.33176,0.34717
478.26023,0.21322
480.18870,0.15586
482.11716,0.13602
484.04563,0.10093
485.97410,0.07104
487.90257,0.07485
489.83104,0.11014
491.75951,0.15399
493.68798,0.18408
495.61645,0.18156
497.54491,0.16145
499.47338,0.16282
501.40185,0.17351
503.33032,0.16795
505.25879,0.15836
507.18726,0.13978
509.11573,0.11004
511.04419,0.09260
512.97266,0.08339
514.90113,0.09927
516.82960,0.14579
518.75807,0.15422
520.68654,0.11769
522.61501,0.09551
524.54348,0.08702
526.47194,0.05134
528.40041,0.02395
530.32888,0.05476
532.25735,0.11648
534.18582,0.16454
536.11429,0.17753
538.04276,0.15827
539.97122,0.14059
541.89969,0.14184
543.82816,0.13013
545.75663,0.09777
547.68510,0.09069
549.61357,0.12389
551.54204,0.19048
553.47051,0.26298
555.39897,0.25259
557.32744,0.15574
559.25591,0.10449
561.18438,0.13084
563.11285,0.15540
565.04132,0.15041
566.96979,0.12883
568.89825,0.10286
570.82672,0.08626
572.75519,0.07038
574.68366,0.06513
576.61213,0.10488
578.54060,0.15843
580.46907,0.16502
582.39754,0.14664
584.32600,0.15773
586.25447,0.17662
588.18294,0.17328
590.11141,0.15586
592.03988,0.13703
593.96835,0.13257
595.89682,0.13835
597.82528,0.14039
599.75375,0.12872
601.68222,0.10861
603.61069,0.11270
605.53916,0.12969
607.46763,0.11542
609.39610,0.08891
611.32456,0.08959
613.25303,0.11308
615.18150,0.13140
617.10997,0.12834
619.03844,0.11563
620.96691,0.10053
622.89538,0.08520
624.82385,0.09664
626.75231,0.13367
628.68078,0.14787
630.60925,0.12544
632.53772,0.09700
634.46619,0.07600
636.39466,0.07073
638.32313,0.09078
640.25159,0.11537
642.18006,0.11590
644.10853,0.10232
646.03700,0.10429
647.96547,0.11611
649.89394,0.11576
651.82241,0.11526
653.75088,0.12246
655.67934,0.13172
657.60781,0.14466
659.53628,0.14723
661.46475,0.12934
663.39322,0.11604
665.32169,0.12751
667.25016,0.15496
669.17862,0.16439
671.10709,0.14642
673.03556,0.13038
674.96403,0.12199
676.89250,0.11853
678.82097,0.11529
680.74944,0.10694
682.67791,0.10385
684.60637,0.11515
686.53484,0.12498
688.46331,0.12495
690.39178,0.12711
692.32025,0.13721
694.24872,0.14984
696.17719,0.16002
698.10565,0.16200
700.03412,0.15284
701.96259,0.13866
703.89106,0.12844
705.81953,0.12407
707.74800,0.12088
709.67647,0.12912
711.60494,0.15617
713.53340,0.17122
715.46187,0.15723
717.39034,0.14453
719.31881,0.13849
721.24728,0.12296
723.17575,0.11870
725.10422,0.13579
727.03268,0.15095
728.96115,0.15742
730.88962,0.15726
732.81809,0.14953
734.74656,0.14501
736.67503,0.14530
738.60350,0.14406
740.53197,0.13877
742.46043,0.12798
744.38890,0.12234
746.31737,0.12768
748.24584,0.13611
750.17431,0.14094
752.10278,0.13931
754.03125,0.13759
755.95971,0.13874
757.88818,0.13686
759.81665,0.13551
761.74512,0.13811
763.67359,0.13935
765.60206,0.13912
767.53053,0.13550
769.45900,0.12771
771.38746,0.13073
773.31593,0.14741
775.24440,0.15811
777.17287,0.15644
779.10134,0.15283
781.02981,0.15078
782.95828,0.14961
784.88674,0.14676
786.81521,0.13728
788.74368,0.12016
790.67215,0.10340
792.60062,0.10773
794.52909,0.12971
796.45756,0.14026
798.38602,0.14186
800.31449,0.14252
802.24296,0.13575
804.17143,0.13326
806.09990,0.14526
808.02837,0.15227
809.95684,0.13654
811.88531,0.11668
813.81377,0.11913
815.74224,0.13983
817.67071,0.15422
819.59918,0.15413
821.52765,0.14484
823.45612,0.13170
825.38459,0.12925
827.31305,0.13995
829.24152,0.14929
831.16999,0.14987
833.09846,0.14073
835.02693,0.13040
836.95540,0.12899
838.88387,0.12951
840.81234,0.12782
842.74080,0.13079
844.66927,0.13434
846.59774,0.13555
848.52621,0.13922
850.45468,0.13982
852.38315,0.13473
854.31162,0.13313
856.24008,0.13855
858.16855,0.14545
860.09702,0.15277
862.02549,0.16081
863.95396,0.16319
865.88243,0.15823
867.81090,0.14711
869.73937,0.13135
871.66783,0.12123
873.59630,0.12078
875.52477,0.12477
877.45324,0.13498
879.38171,0.14917
881.31018,0.15014
883.23865,0.13601
885.16711,0.12690
887.09558,0.12642
889.02405,0.12489
890.95252,0.12500
892.88099,0.13097
894.80946,0.13869
896.73793,0.14196
898.66640,0.14045
900.59486,0.14131
902.52333,0.14713
904.45180,0.15243
906.38027,0.15626
908.30874,0.16099
910.23721,0.16852
912.16568,0.17426
914.09414,0.16986
916.02261,0.16415
917.95108,0.16640
919.87955,0.16795
921.80802,0.16446
923.73649,0.15976
925.66496,0.15278
927.59343,0.14411
929.52189,0.14013
931.45036,0.14610
933.37883,0.15783
935.30730,0.16130
937.23577,0.15448
939.16424,0.14862
941.09271,0.14595
943.02117,0.14492
944.94964,0.14993
946.87811,0.15621
948.80658,0.15385
950.73505,0.14851
952.66352,0.14715
954.59199,0.14980
956.52045,0.15191
958.44892,0.14627
960.37739,0.13877
962.30586,0.13425
964.23433,0.12926
966.16280,0.13065
968.09127,0.14254
970.01974,0.15425
971.94820,0.15761
973.87667,0.15553
975.80514,0.15483
977.73361,0.15850
979.66208,0.16184
981.59055,0.15963
983.51902,0.15179
985.44748,0.14388
987.37595,0.14280
989.30442,0.14703
991.23289,0.15232
993.16136,0.15647
995.08983,0.15682
997.01830,0.15560
998.94677,0.15697
1000.87523,0.15978
1002.80370,0.16046
1004.73217,0.15484
1006.66064,0.14462
1008.58911,0.14354
1010.51758,0.15489
1012.44605,0.16131
1014.37451,0.15679
1016.30298,0.15296
1018.23145,0.15416
1020.15992,0.15809
1022.08839,0.16138
1024.01686,0.15741
1025.94533,0.14993
1027.87380,0.14546
1029.80226,0.14596
1031.73073,0.15489
1033.65920,0.16249
1035.58767,0.16022
1037.51614,0.15687
1039.44461,0.15431
1041.37308,0.14612
1043.30154,0.13958
1045.23001,0.14448
1047.15848,0.15135
1049.08695,0.15327
1051.01542,0.16187
1052.94389,0.17619
1054.87236,0.17670
1056.80083,0.16579
1058.72929,0.16101
1060.65776,0.15918
1062.58623,0.15340
1064.51470,0.14828
1066.44317,0.14893
1068.37164,0.15336
1070.30011,0.15567
1072.22857,0.15662
1074.15704,0.15626
1076.08551,0.15228
1078.01398,0.14869
1079.94245,0.15115
1081.87092,0.15845
1083.79939,0.16471
1085.72786,0.16608
1087.65632,0.16152
1089.58479,0.15294
1091.51326,0.14262
1093.44173,0.13961
1095.37020,0.14891
1097.29867,0.15442
1099.22714,0.15272
1101.15560,0.15889
1103.08407,0.16580
1105.01254,0.16534
1106.94101,0.17380
1108.86948,0.18710
1110.79795,0.18336
1112.72642,0.16817
1114.65489,0.15683
1116.58335,0.15575
1118.51182,0.16347
1120.44029,0.16974
1122.36876,0.17273
1124.29723,0.17584
1126.22570,0.17346
1128.15417,0.16049
1130.08263,0.14545
1132.01110,0.14106
1133.93957,0.14760
1135.86804,0.15687
1137.79651,0.16358
1139.72498,0.16585
1141.65345,0.16382
1143.58191,0.16163
1145.51038,0.16223
1147.43885,0.16395
1149.36732,0.16407
1151.29579,0.16052
1153.22426,0.15826
1155.15273,0.16493
1157.08120,0.17742
1159.00966,0.18336
1160.93813,0.17893
1162.86660,0.17422
1164.79507,0.17375
1166.72354,0.17310
1168.65201,0.16956
1170.58048,0.16724
1172.50894,0.16979
1174.43741,0.16967
1176.36588,0.16567
1178.29435,0.16719
1180.22282,0.17206
1182.15129,0.17040
1184.07976,0.16113
1186.00823,0.14708
1187.93669,0.13637
1189.86516,0.14003
1191.79363,0.15235
1193.72210,0.16027
1195.65057,0.15992
1197.57904,0.15908
1199.50751,0.16597
1201.43597,0.17267
1203.36444,0.17281
1205.29291,0.17114
1207.22138,0.16943
1209.14985,0.16730
1211.07832,0.16524
1213.00679,0.16347
1214.93526,0.16177
1216.86372,0.15751
1218.79219,0.15367
1220.72066,0.15593
1222.64913,0.16044
1224.57760,0.16332
1226.50607,0.16438
1228.43454,0.16328
1230.36300,0.16266
1232.29147,0.16293
1234.21994,0.16118
1236.14841,0.15974
1238.07688,0.16054
1240.00535,0.15967
1241.93382,0.15816
1243.86229,0.15862
1245.79075,0.15905
1247.71922,0.15977
1249.64769,0.16126
1251.57616,0.16091
1253.50463,0.15929
1255.43310,0.15980
1257.36157,0.16004
1259.29003,0.15852
1261.21850,0.15806
1263.14697,0.15808
1265.07544,0.15879
1267.00391,0.15939
1268.93238,0.15904
1270.86085,0.16308
1272.78932,0.16832
1274.71778,0.16664
1276.64625,0.16480
1278.57472,0.16677
1280.50319,0.16364
1282.43166,0.15913
1284.36013,0.16308
1286.28860,0.16642
1288.21706,0.16293
1290.14553,0.16215
1292.07400,0.16401
1294.00247,0.16216
1295.93094,0.15794
1297.85941,0.15350
1299.78788,0.14560
1301.71634,0.13000
1303.64481,0.11390
1305.57328,0.11534
1307.50175,0.13638
1309.43022,0.15448
1311.35869,0.15940
1313.28716,0.16186
1315.21563,0.16674
1317.14409,0.17120
1319.07256,0.17077
1321.00103,0.16454
1322.92950,0.16006
1324.85797,0.15853
1326.78644,0.15719
1328.71491,0.15900
1330.64337,0.15941
1332.57184,0.15755
1334.50031,0.15754
1336.42878,0.15441
1338.35725,0.15245
1340.28572,0.15405
1342.21419,0.15523
1344.14266,0.16238
1346.07112,0.17091
1347.99959,0.17084
1349.92806,0.16403
1351.85653,0.15822
1353.78500,0.15714
1355.71347,0.15833
1357.64194,0.16035
1359.57040,0.16509
1361.49887,0.17246
1363.42734,0.17674
1365.35581,0.17484
1367.28428,0.17140
1369.21275,0.16964
1371.14122,0.16999
1373.06969,0.17236
1374.99815,0.17446
1376.92662,0.17503
1378.85509,0.17681
1380.78356,0.17759
1382.71203,0.17744
1384.64050,0.18112
1386.56897,0.18441
1388.49743,0.18002
1390.42590,0.17486
1392.35437,0.17708
1394.28284,0.18556
1396.21131,0.19415
1398.13978,0.19707
1400.06825,0.19180
1401.99672,0.18677
1403.92518,0.18877
1405.85365,0.19092
1407.78212,0.18689
1409.71059,0.18049
1411.63906,0.17699
1413.56753,0.17736
1415.49600,0.18076
1417.42446,0.18893
1419.35293,0.19473
1421.28140,0.19067
1423.20987,0.18646
1425.13834,0.18635
1427.06681,0.18990
1428.99528,0.19383
1430.92375,0.19251
1432.85221,0.18795
1434.78068,0.18494
1436.70915,0.18406
1438.63762,0.18498
1440.56609,0.18467
1442.49456,0.18368
1444.42303,0.18515
1446.35149,0.18669
1448.27996,0.18462
1450.20843,0.18180
1452.13690,0.18181
1454.06537,0.18546
1455.99384,0.19655
1457.92231,0.20803
1459.85077,0.20190
1461.77924,0.19589
1463.70771,0.19532
1465.63618,0.19114
1467.56465,0.18537
1469.49312,0.18809
1471.42159,0.19841
1473.35006,0.20449
1475.27852,0.19953
1477.20699,0.19283
1479.13546,0.19157
1481.06393,0.19515
1482.99240,0.19629
1484.92087,0.19666
1486.84934,0.20362
1488.77780,0.21142
1490.70627,0.20528
1492.63474,0.19784
1494.56321,0.20119
1496.49168,0.20790
1498.42015,0.20604
1500.34862,0.20197
1502.27709,0.21653
1504.20555,0.25874
1506.13402,0.29250
1508.06249,0.23858
1509.99096,0.19851
1511.91943,0.19340
1513.84790,0.19749
1515.77637,0.20526
1517.70483,0.20994
1519.63330,0.21154
1521.56177,0.21073
1523.49024,0.20514
1525.41871,0.20001
1527.34718,0.19898
1529.27565,0.20116
1531.20412,0.20357
1533.13258,0.20436
1535.06105,0.20360
1536.98952,0.20814
1538.91799,0.22507
1540.84646,0.24386
1542.77493,0.23438
1544.70340,0.21394
1546.63186,0.20028
1548.56033,0.19752
1550.48880,0.20130
1552.41727,0.20733
1554.34574,0.21083
1556.27421,0.21119
1558.20268,0.21637
1560.13115,0.21072
1562.05961,0.19942
1563.98808,0.19551
1565.91655,0.19244
1567.84502,0.18835
1569.77349,0.18587
1571.70196,0.18629
1573.63043,0.18967
1575.55889,0.19280
1577.48736,0.18683
1579.41583,0.17857
1581.34430,0.17791
1583.27277,0.18186
1585.20124,0.18291
1587.12971,0.18058
1589.05818,0.17972
1590.98664,0.18062
1592.91511,0.18028
1594.84358,0.17955
1596.77205,0.17945
1598.70052,0.17969
1600.62899,0.18101
1602.55746,0.18217
1604.48592,0.18172
1606.41439,0.18132
1608.34286,0.18331
1610.27133,0.18602
1612.19980,0.18739
1614.12827,0.19026
1616.05674,0.19445
1617.98521,0.19158
1619.91367,0.18778
1621.84214,0.19294
1623.77061,0.20198
1625.69908,0.20349
1627.62755,0.20004
1629.55602,0.19759
1631.48449,0.19890
1633.41295,0.20497
1635.34142,0.21116
1637.26989,0.20345
1639.19836,0.19575
1641.12683,0.19614
1643.05530,0.19824
1644.98377,0.20542
1646.91223,0.21981
1648.84070,0.22150
1650.76917,0.22184
1652.69764,0.23051
1654.62611,0.21890
1656.55458,0.20287
1658.48305,0.19558
1660.41152,0.18922
1662.33998,0.18302
1664.26845,0.18598
1666.19692,0.19652
1668.12539,0.20716
1670.05386,0.21085
1671.98233,0.20653
1673.91080,0.20152
1675.83926,0.19737
1677.76773,0.19752
1679.69620,0.20335
1681.62467,0.21550
1683.55314,0.23027
1685.48161,0.22451
1687.41008,0.21191
1689.33855,0.20816
1691.26701,0.20575
1693.19548,0.20332
1695.12395,0.20682
1697.05242,0.21938
1698.98089,0.23179
1700.90936,0.22718
1702.83783,0.21414
1704.76629,0.20804
1706.69476,0.20303
1708.62323,0.19530
1710.55170,0.18989
1712.48017,0.19208
1714.40864,0.20151
1716.33711,0.20869
1718.26558,0.20257
1720.19404,0.19240
1722.12251,0.18636
1724.05098,0.18452
1725.97945,0.18686
1727.90792,0.19166
1729.83639,0.19737
1731.76486,0.20416
1733.69332,0.20956
1735.62179,0.20663
1737.55026,0.20221
1739.47873,0.19967
1741.40720,0.19724
1743.33567,0.19656
1745.26414,0.19838
1747.19261,0.20241
1749.12107,0.20826
1751.04954,0.20854
1752.97801,0.20090
1754.90648,0.19420
1756.83495,0.19142
1758.76342,0.19153
1760.69189,0.19347
1762.62035,0.19167
1764.54882,0.18641
1766.47729,0.18701
1768.40576,0.19544
1770.33423,0.20573
1772.26270,0.20802
1774.19117,0.19816
1776.11964,0.18866
1778.04810,0.18705
1779.97657,0.19192
1781.90504,0.19469
1783.83351,0.19155
1785.76198,0.18747
1787.69045,0.18777
1789.61892,0.19395
1791.54738,0.20137
1793.47585,0.20090
1795.40432,0.19466
1797.33279,0.19113
1799.26126,0.19371
1801.18973,0.19808
1803.11820,0.19684
1805.04666,0.19284
1806.97513,0.19187
1808.90360,0.19478
1810.83207,0.19719
1812.76054,0.19493
1814.68901,0.19197
1816.61748,0.19186
1818.54595,0.19273
1820.47441,0.19218
1822.40288,0.19118
1824.33135,0.19126
1826.25982,0.19268
1828.18829,0.19523
1830.11676,0.19555
1832.04523,0.19366
1833.97369,0.19308
1835.90216,0.19405
1837.83063,0.19594
1839.75910,0.19642
1841.68757,0.19683
1843.61604,0.20026
1845.54451,0.20110
1847.47298,0.19557
1849.40144,0.18831
1851.32991,0.18326
1853.25838,0.18336
1855.18685,0.18718
1857.11532,0.18931
1859.04379,0.18748
1860.97226,0.18541
1862.90072,0.18694
1864.82919,0.19165
1866.75766,0.19860
1868.68613,0.20363
1870.61460,0.19902
1872.54307,0.18995
1874.47154,0.18565
1876.40001,0.18656
1878.32847,0.18662
1880.25694,0.18410
1882.18541,0.18273
1884.11388,0.18429
1886.04235,0.18711
1887.97082,0.18965
1889.89929,0.19006
1891.82775,0.18743
1893.75622,0.18649
1895.68469,0.18977
1897.61316,0.19261
1899.54163,0.19175
1901.47010,0.18943
1903.39857,0.18754
1905.32704,0.18662
1907.25550,0.18740
1909.18397,0.18801
1911.11244,0.18634
1913.04091,0.18449
1914.96938,0.18653
1916.89785,0.19037
1918.82632,0.18807
1920.75478,0.18411
1922.68325,0.18706
1924.61172,0.19271
1926.54019,0.19454
1928.46866,0.19118
1930.39713,0.18674
1932.32560,0.18649
1934.25407,0.18809
1936.18253,0.18795
1938.11100,0.18703
1940.03947,0.18840
1941.96794,0.19321
1943.89641,0.19535
1945.82488,0.19033
1947.75335,0.18462
1949.68181,0.18470
1951.61028,0.18817
1953.53875,0.19024
1955.46722,0.19091
1957.39569,0.19057
1959.32416,0.18861
1961.25263,0.18711
1963.18110,0.18898
1965.10956,0.19470
1967.03803,0.19743
1968.96650,0.19169
1970.89497,0.18604
1972.82344,0.18651
1974.75191,0.18908
1976.68038,0.18939
1978.60884,0.18747
1980.53731,0.18585
1982.46578,0.18559
1984.39425,0.18680
1986.32272,0.18737
1988.25119,0.18590
1990.17966,0.18620
1992.10812,0.18871
1994.03659,0.18955
1995.96506,0.18928
1997.89353,0.18960
1999.82200,0.18974
2001.75047,0.18895
2003.67894,0.18707
2005.60741,0.18507
2007.53587,0.18429
2009.46434,0.18613
2011.39281,0.18989
2013.32128,0.19239
2015.24975,0.19271
2017.17822,0.19172
2019.10669,0.19037
2021.03515,0.18800
2022.96362,0.18483
2024.89209,0.18466
2026.82056,0.18716
2028.74903,0.18835
2030.67750,0.18853
2032.60597,0.18893
2034.53444,0.18764
2036.46290,0.18558
2038.39137,0.18579
2040.31984,0.18739
2042.24831,0.18873
2044.17678,0.18886
2046.10525,0.18803
2048.03372,0.18919
2049.96218,0.19049
2051.89065,0.18753
2053.81912,0.18420
2055.74759,0.18436
2057.67606,0.18587
2059.60453,0.18769
2061.53300,0.18902
2063.46147,0.18877
2065.38993,0.18921
2067.31840,0.19225
2069.24687,0.19377
2071.17534,0.19226
2073.10381,0.19195
2075.03228,0.19117
2076.96075,0.18775
2078.88921,0.18600
2080.81768,0.18789
2082.74615,0.19078
2084.67462,0.19222
2086.60309,0.19288
2088.53156,0.19361
2090.46003,0.19322
2092.38850,0.19110
2094.31696,0.18876
2096.24543,0.18813
2098.17390,0.18876
2100.10237,0.18922
2102.03084,0.18910
2103.95931,0.18816
2105.88778,0.18613
2107.81624,0.18473
2109.74471,0.18543
2111.67318,0.18643
2113.60165,0.18752
2115.53012,0.18878
2117.45859,0.19009
2119.38706,0.19427
2121.31553,0.19876
2123.24399,0.19862
2125.17246,0.19503
2127.10093,0.18964
2129.02940,0.18522
2130.95787,0.18558
2132.88634,0.18899
2134.81481,0.19147
2136.74327,0.19170
2138.67174,0.19116
2140.60021,0.19163
2142.52868,0.19279
2144.45715,0.19367
2146.38562,0.19373
2148.31409,0.19325
2150.24255,0.19231
2152.17102,0.18987
2154.09949,0.18654
2156.02796,0.18467
2157.95643,0.18585
2159.88490,0.18874
2161.81337,0.19069
2163.74184,0.19233
2165.67030,0.19444
2167.59877,0.19491
2169.52724,0.19379
2171.45571,0.19244
2173.38418,0.19192
2175.31265,0.19347
2177.24112,0.19536
2179.16958,0.19563
2181.09805,0.19480
2183.02652,0.19319
2184.95499,0.19107
2186.88346,0.18973
2188.81193,0.18893
2190.74040,0.18807
2192.66887,0.18826
2194.59733,0.18874
2196.52580,0.18910
2198.45427,0.19029
2200.38274,0.19060
2202.31121,0.18886
2204.23968,0.18834
2206.16815,0.19141
2208.09661,0.19388
2210.02508,0.19270
2211.95355,0.19059
2213.88202,0.18843
2215.81049,0.18542
2217.73896,0.18413
2219.66743,0.18629
2221.59590,0.18849
2223.52436,0.18950
2225.45283,0.19130
2227.38130,0.19108
2229.30977,0.18757
2231.23824,0.18555
2233.16671,0.18595
2235.09518,0.18608
2237.02364,0.18655
2238.95211,0.18731
2240.88058,0.18676
2242.80905,0.18697
2244.73752,0.18952
2246.66599,0.19152
2248.59446,0.19223
2250.52293,0.19296
2252.45139,0.19252
2254.37986,0.19155
2256.30833,0.19241
2258.23680,0.19405
2260.16527,0.19332
2262.09374,0.18924
2264.02221,0.18577
2265.95067,0.18670
2267.87914,0.18993
2269.80761,0.19150
2271.73608,0.19092
2273.66455,0.19027
2275.59302,0.19005
2277.52149,0.18985
2279.44996,0.18962
2281.37842,0.18835
2283.30689,0.18692
2285.23536,0.18765
2287.16383,0.18990
2289.09230,0.19032
2291.02077,0.18797
2292.94924,0.18736
2294.87770,0.19014
2296.80617,0.19091
2298.73464,0.18881
2300.66311,0.18841
2302.59158,0.18970
2304.52005,0.18975
2306.44852,0.18897
2308.37699,0.18811
2310.30545,0.18483
2312.23392,0.17980
2314.16239,0.17637
2316.09086,0.17663
2318.01933,0.18116
2319.94780,0.18481
2321.87627,0.18243
2323.80473,0.17364
2325.73320,0.16169
2327.66167,0.15726
2329.59014,0.16754
2331.51861,0.18291
2333.44708,0.19048
2335.37555,0.18714
2337.30401,0.17226
2339.23248,0.15671
2341.16095,0.15643
2343.08942,0.16815
2345.01789,0.17882
2346.94636,0.18285
2348.87483,0.18404
2350.80330,0.18501
2352.73176,0.18244
2354.66023,0.17178
2356.58870,0.15267
2358.51717,0.13561
2360.44564,0.13539
2362.37411,0.13313
2364.30258,0.13230
2366.23104,0.15929
2368.15951,0.18238
2370.08798,0.18590
2372.01645,0.18971
2373.94492,0.19177
2375.87339,0.18774
2377.80186,0.18469
2379.73033,0.18480
2381.65879,0.18570
2383.58726,0.18852
2385.51573,0.19231
2387.44420,0.19254
2389.37267,0.18927
2391.30114,0.18632
2393.22961,0.18603
2395.15807,0.18762
2397.08654,0.18856
2399.01501,0.18799
2400.94348,0.18735
2402.87195,0.18857
2404.80042,0.19150
2406.72889,0.19368
2408.65736,0.19456
2410.58582,0.19480
2412.51429,0.19297
2414.44276,0.18988
2416.37123,0.18845
2418.29970,0.19018
2420.22817,0.19482
2422.15664,0.19714
2424.08510,0.19416
2426.01357,0.19092
2427.94204,0.19028
2429.87051,0.19022
2431.79898,0.18916
2433.72745,0.18854
2435.65592,0.19056
2437.58439,0.19383
2439.51285,0.19463
2441.44132,0.19166
2443.36979,0.18856
2445.29826,0.18893
2447.22673,0.19109
2449.15520,0.19088
2451.08367,0.18796
2453.01213,0.18707
2454.94060,0.18917
2456.86907,0.19085
2458.79754,0.19168
2460.72601,0.19172
2462.65448,0.18988
2464.58295,0.18715
2466.51142,0.18525
2468.43988,0.18409
2470.36835,0.18347
2472.29682,0.18426
2474.22529,0.18746
2476.15376,0.19156
2478.08223,0.19261
2480.01070,0.19185
2481.93916,0.19339
2483.86763,0.19567
2485.79610,0.19574
2487.72457,0.19391
2489.65304,0.19160
2491.58151,0.19035
2493.50998,0.19067
2495.43844,0.19100
2497.36691,0.19045
2499.29538,0.19017
2501.22385,0.18998
2503.15232,0.18807
2505.08079,0.18544
2507.00926,0.18542
2508.93773,0.18756
2510.86619,0.18897
2512.79466,0.19001
2514.72313,0.19141
2516.65160,0.19356
2518.58007,0.19708
2520.50854,0.19818
2522.43701,0.19559
2524.36547,0.19397
2526.29394,0.19222
2528.22241,0.18891
2530.15088,0.18903
2532.07935,0.19158
2534.00782,0.19244
2535.93629,0.19337
2537.86476,0.19477
2539.79322,0.19492
2541.72169,0.19388
2543.65016,0.19256
2545.57863,0.19174
2547.50710,0.19045
2549.43557,0.18810
2551.36404,0.18739
2553.29250,0.18974
2555.22097,0.19178
2557.14944,0.19090
2559.07791,0.18936
2561.00638,0.19016
2562.93485,0.19208
2564.86332,0.19217
2566.79179,0.19139
2568.72025,0.19183
2570.64872,0.19202
2572.57719,0.19098
2574.50566,0.19143
2576.43413,0.19245
2578.36260,0.19106
2580.29107,0.18985
2582.21953,0.19154
2584.14800,0.19476
2586.07647,0.19648
2588.00494,0.19638
2589.93341,0.19706
2591.86188,0.19804
2593.79035,0.19730
2595.71882,0.19590
2597.64728,0.19441
2599.57575,0.19242
2601.50422,0.19157
2603.43269,0.19211
2605.36116,0.19364
2607.28963,0.19569
2609.21810,0.19722
2611.14656,0.19935
2613.07503,0.20143
2615.00350,0.20000
2616.93197,0.19392
2618.86044,0.18964
2620.78891,0.19190
2622.71738,0.19441
2624.64585,0.19370
2626.57431,0.19311
2628.50278,0.19389
2630.43125,0.19482
2632.35972,0.19433
2634.28819,0.19327
2636.21666,0.19286
2638.14513,0.19158
2640.07359,0.19017
2642.00206,0.19184
2643.93053,0.19404
2645.85900,0.19316
2647.78747,0.19184
2649.71594,0.19307
2651.64441,0.19560
2653.57288,0.19635
2655.50134,0.19599
2657.42981,0.19717
2659.35828,0.19814
2661.28675,0.19774
2663.21522,0.19822
2665.14369,0.19814
2667.07216,0.19735
2669.00062,0.19905
2670.92909,0.19943
2672.85756,0.19712
2674.78603,0.19768
2676.71450,0.19971
2678.64297,0.20033
2680.57144,0.20103
2682.49990,0.20207
2684.42837,0.20181
2686.35684,0.20011
2688.28531,0.19972
2690.21378,0.20091
2692.14225,0.20110
2694.07072,0.19968
2695.99919,0.19948
2697.92765,0.20166
2699.85612,0.20167
2701.78459,0.19825
2703.71306,0.19629
2705.64153,0.19855
2707.57000,0.20113
2709.49847,0.19870
2711.42693,0.19385
2713.35540,0.19262
2715.28387,0.19516
2717.21234,0.19848
2719.14081,0.19996
2721.06928,0.19879
2722.99775,0.19740
2724.92622,0.19725
2726.85468,0.19825
2728.78315,0.19977
2730.71162,0.20085
2732.64009,0.20162
2734.56856,0.20212
2736.49703,0.20262
2738.42550,0.20274
2740.35396,0.20190
2742.28243,0.20073
2744.21090,0.20055
2746.13937,0.20202
2748.06784,0.20142
2749.99631,0.19872
2751.92478,0.19938
2753.85325,0.20172
2755.78171,0.20252
2757.71018,0.20335
2759.63865,0.20397
2761.56712,0.20344
2763.49559,0.20163
2765.42406,0.19990
2767.35253,0.20028
2769.28099,0.20210
2771.20946,0.20524
2773.13793,0.20607
2775.06640,0.20153
2776.99487,0.19943
2778.92334,0.20218
2780.85181,0.20197
2782.78028,0.19800
2784.70874,0.19618
2786.63721,0.19752
2788.56568,0.19903
2790.49415,0.19956
2792.42262,0.19787
2794.35109,0.19625
2796.27956,0.19916
2798.20802,0.20366
2800.13649,0.20584
2802.06496,0.20654
2803.99343,0.20730
2805.92190,0.20915
2807.85037,0.21030
2809.77884,0.21012
2811.70731,0.21043
2813.63577,0.21030
2815.56424,0.20743
2817.49271,0.20296
2819.42118,0.20199
2821.34965,0.20557
2823.27812,0.20888
2825.20659,0.20961
2827.13505,0.21081
2829.06352,0.21317
2830.99199,0.21336
2832.92046,0.21288
2834.84893,0.21261
2836.77740,0.21113
2838.70587,0.21182
2840.63433,0.21380
2842.56280,0.21092
2844.49127,0.20530
2846.41974,0.20499
2848.34821,0.20797
2850.27668,0.20758
2852.20515,0.20662
2854.13362,0.20826
2856.06208,0.21071
2857.99055,0.21277
2859.91902,0.21204
2861.84749,0.20816
2863.77596,0.20514
2865.70443,0.20459
2867.63290,0.20592
2869.56136,0.20742
2871.48983,0.20467
2873.41830,0.19870
2875.34677,0.19584
2877.27524,0.19859
2879.20371,0.20515
2881.13218,0.20870
2883.06065,0.20526
2884.98911,0.20050
2886.91758,0.19831
2888.84605,0.19831
2890.77452,0.20064
2892.70299,0.20249
2894.63146,0.20019
2896.55993,0.19690
2898.48839,0.19715
2900.41686,0.20034
2902.34533,0.20107
2904.27380,0.19476
2906.20227,0.18927
2908.13074,0.19239
2910.05921,0.19786
2911.98768,0.19970
2913.91614,0.19626
2915.84461,0.18869
2917.77308,0.18698
2919.70155,0.19437
2921.63002,0.20117
2923.55849,0.20009
2925.48696,0.19233
2927.41542,0.19237
2929.34389,0.20393
2931.27236,0.20855
2933.20083,0.20162
2935.12930,0.19139
2937.05777,0.18407
2938.98624,0.18687
2940.91471,0.19447
2942.84317,0.19669
2944.77164,0.19071
2946.70011,0.17793
2948.62858,0.17309
2950.55705,0.18457
2952.48552,0.19851
2954.41399,0.20187
2956.34245,0.19012
2958.27092,0.17781
2960.19939,0.18407
2962.12786,0.19939
2964.05633,0.20618
2965.98480,0.19838
2967.91327,0.18598
2969.84174,0.18866
2971.77020,0.20160
2973.69867,0.20778
2975.62714,0.20329
2977.55561,0.19143
2979.48408,0.18672
2981.41255,0.19526
2983.34102,0.20449
2985.26948,0.20476
2987.19795,0.19446
2989.12642,0.18594
2991.05489,0.19073
2992.98336,0.19959
2994.91183,0.20308
2996.84030,0.20281
2998.76877,0.20255
3000.69723,0.20604
3002.62570,0.21212
3004.55417,0.21220
3006.48264,0.20362
3008.41111,0.19274
3010.33958,0.17762
3012.26805,0.15113
3014.19651,0.11469
3016.12498,0.08941
3018.05345,0.10859
3019.98192,0.16033
3021.91039,0.19781
3023.83886,0.21200
3025.76733,0.21381
3027.69579,0.20718
3029.62426,0.20407
3031.55273,0.20795
3033.48120,0.20721
3035.40967,0.19937
3037.33814,0.19520
3039.26661,0.20001
3041.19508,0.20533
3043.12354,0.20572
3045.05201,0.20448
3046.98048,0.20161
3048.90895,0.19996
3050.83742,0.20423
3052.76589,0.20938
3054.69436,0.20594
3056.62282,0.19543
3058.55129,0.19463
3060.47976,0.20406
3062.40823,0.20640
3064.33670,0.19953
3066.26517,0.19292
3068.19364,0.19738
3070.12211,0.21180
3072.05057,0.21748
3073.97904,0.20546
3075.90751,0.18997
3077.83598,0.18947
3079.76445,0.19995
3081.69292,0.20312
3083.62139,0.19244
3085.54985,0.17996
3087.47832,0.18143
3089.40679,0.19350
3091.33526,0.20150
3093.26373,0.19591
3095.19220,0.18727
3097.12067,0.19500
3099.04914,0.21070
3100.97760,0.21300
3102.90607,0.19825
3104.83454,0.18825
3106.76301,0.19770
3108.69148,0.20761
3110.61995,0.20061
3112.54842,0.18822
3114.47688,0.19095
3116.40535,0.20425
3118.33382,0.20854
3120.26229,0.19898
3122.19076,0.18820
3124.11923,0.19185
3126.04770,0.20381
3127.97617,0.20858
3129.90463,0.20610
3131.83310,0.20501
3133.76157,0.20897
3135.69004,0.21407
3137.61851,0.21447
3139.54698,0.21076
3141.47545,0.20865
3143.40391,0.20847
3145.33238,0.20699
3147.26085,0.20189
3149.18932,0.19880
3151.11779,0.20308
3153.04626,0.20533
3154.97473,0.20104
3156.90320,0.19855
3158.83166,0.20167
3160.76013,0.20632
3162.68860,0.20952
3164.61707,0.21050
3166.54554,0.20868
3168.47401,0.20636
3170.40248,0.20702
3172.33094,0.21176
3174.25941,0.21675
3176.18788,0.21726
3178.11635,0.21540
3180.04482,0.21685
3181.97329,0.22091
3183.90176,0.22328
3185.83022,0.22252
3187.75869,0.21796
3189.68716,0.21339
3191.61563,0.21480
3193.54410,0.22020
3195.47257,0.22140
3197.40104,0.21689
3199.32951,0.21326
3201.25797,0.21169
3203.18644,0.20984
3205.11491,0.20966
3207.04338,0.21124
3208.97185,0.21188
3210.90032,0.21153
3212.82879,0.21147
3214.75725,0.21183
3216.68572,0.21286
3218.61419,0.21430
3220.54266,0.21731
3222.47113,0.22302
3224.39960,0.22505
3226.32807,0.22075
3228.25654,0.21722
3230.18500,0.21551
3232.11347,0.21338
3234.04194,0.21295
3235.97041,0.21394
3237.89888,0.21433
3239.82735,0.21502
3241.75582,0.21528
3243.68428,0.21245
3245.61275,0.20884
3247.54122,0.20773
3249.46969,0.20929
3251.39816,0.21337
3253.32663,0.21677
3255.25510,0.21563
3257.18357,0.21221
3259.11203,0.21059
3261.04050,0.21194
3262.96897,0.21284
3264.89744,0.20904
3266.82591,0.20743
3268.75438,0.21395
3270.68285,0.21951
3272.61131,0.21782
3274.53978,0.21253
3276.46825,0.20832
3278.39672,0.20638
3280.32519,0.20547
3282.25366,0.20872
3284.18213,0.21529
3286.11060,0.21638
3288.03906,0.21209
3289.96753,0.20857
3291.89600,0.20543
3293.82447,0.20254
3295.75294,0.20285
3297.68141,0.20803
3299.60988,0.21590
3301.53834,0.21974
3303.46681,0.21892
3305.39528,0.21815
3307.32375,0.21493
3309.25222,0.20827
3311.18069,0.20355
3313.10916,0.20116
3315.03763,0.20213
3316.96609,0.20850
3318.89456,0.21337
3320.82303,0.21369
3322.75150,0.21476
3324.67997,0.21551
3326.60844,0.21579
3328.53691,0.21928
3330.46537,0.22076
3332.39384,0.21657
3334.32231,0.21236
3336.25078,0.21201
3338.17925,0.21623
3340.10772,0.22110
3342.03619,0.21933
3343.96466,0.21353
3345.89312,0.21128
3347.82159,0.21427
3349.75006,0.22160
3351.67853,0.22838
3353.60700,0.22813
3355.53547,0.22153
3357.46394,0.21695
3359.39240,0.21980
3361.32087,0.22382
3363.24934,0.22231
3365.17781,0.21664
3367.10628,0.21158
3369.03475,0.21216
3370.96322,0.21619
3372.89168,0.21822
3374.82015,0.22076
3376.74862,0.22262
3378.67709,0.21766
3380.60556,0.21123
3382.53403,0.20994
3384.46250,0.20989
3386.39097,0.20725
3388.31943,0.20511
3390.24790,0.20867
3392.17637,0.21583
3394.10484,0.21847
3396.03331,0.21370
3397.96178,0.20938
3399.89025,0.21156
3401.81871,0.21405
3403.74718,0.21428
3405.67565,0.21424
3407.60412,0.21163
3409.53259,0.20653
3411.46106,0.20250
3413.38953,0.20183
3415.31800,0.20245
3417.24646,0.20347
3419.17493,0.20417
3421.10340,0.20275
3423.03187,0.20297
3424.96034,0.20497
3426.88881,0.20565
3428.81728,0.20585
3430.74574,0.20572
3432.67421,0.20450
3434.60268,0.20552
3436.53115,0.20898
3438.45962,0.20950
3440.38809,0.20832
3442.31656,0.20832
3444.24503,0.21070
3446.17349,0.21513
3448.10196,0.21474
3450.03043,0.20733
3451.95890,0.19887
3453.88737,0.19618
3455.81584,0.20003
3457.74431,0.20420
3459.67277,0.20459
3461.60124,0.20266
3463.52971,0.20239
3465.45818,0.20190
3467.38665,0.19745
3469.31512,0.19245
3471.24359,0.18989
3473.17206,0.18922
3475.10052,0.19195
3477.02899,0.19649
3478.95746,0.19679
3480.88593,0.19284
3482.81440,0.18792
3484.74287,0.18356
3486.67134,0.18189
3488.59980,0.18092
3490.52827,0.17728
3492.45674,0.17408
3494.38521,0.17573
3496.31368,0.17948
3498.24215,0.17813
3500.17062,0.17426
3502.09909,0.17791
3504.02755,0.18700
3505.95602,0.19062
3507.88449,0.18885
3509.81296,0.18524
3511.74143,0.17950
3513.66990,0.17423
3515.59837,0.17280
3517.52683,0.17354
3519.45530,0.17547
3521.38377,0.17958
3523.31224,0.18274
3525.24071,0.18378
3527.16918,0.18450
3529.09765,0.18249
3531.02611,0.17750
3532.95458,0.17134
3534.88305,0.16562
3536.81152,0.16499
3538.73999,0.16809
3540.66846,0.17020
3542.59693,0.17514
3544.52540,0.18225
3546.45386,0.18091
3548.38233,0.17258
3550.31080,0.16749
3552.23927,0.16484
3554.16774,0.16116
3556.09621,0.15976
3558.02468,0.16074
3559.95314,0.16013
3561.88161,0.16027
3563.81008,0.16492
3565.73855,0.17078
3567.66702,0.17024
3569.59549,0.16602
3571.52396,0.16673
3573.45243,0.16942
3575.38089,0.16893
3577.30936,0.16574
3579.23783,0.16120
3581.16630,0.15669
3583.09477,0.15669
3585.02324,0.16596
3586.95171,0.17709
3588.88017,0.17397
3590.80864,0.16592
3592.73711,0.16297
3594.66558,0.16371
3596.59405,0.16538
3598.52252,0.16448
3600.45099,0.15873
3602.37946,0.15121
3604.30792,0.14979
3606.23639,0.15585
3608.16486,0.16077
3610.09333,0.15632
3612.02180,0.15214
3613.95027,0.15915
3615.87874,0.16924
3617.80720,0.17025
3619.73567,0.16133
3621.66414,0.15021
3623.59261,0.14329
3625.52108,0.14443
3627.44955,0.15387
3629.37802,0.15832
3631.30649,0.15206
3633.23495,0.15151
3635.16342,0.15364
3637.09189,0.14888
3639.02036,0.14381
3640.94883,0.14639
3642.87730,0.15085
3644.80577,0.15328
3646.73423,0.15553
3648.66270,0.15332
3650.59117,0.14502
3652.51964,0.13992
3654.44811,0.13544
3656.37658,0.13243
3658.30505,0.13603
3660.23352,0.13897
3662.16198,0.13586
3664.09045,0.13362
3666.01892,0.13848
3667.94739,0.14811
3669.87586,0.15729
3671.80433,0.16262
3673.73280,0.16372
3675.66126,0.15203
3677.58973,0.13576
3679.51820,0.13192
3681.44667,0.13432
3683.37514,0.13675
3685.30361,0.13889
3687.23208,0.13904
3689.16055,0.13371
3691.08901,0.13139
3693.01748,0.13296
3694.94595,0.13330
3696.87442,0.13330
3698.80289,0.13452
3700.73136,0.13922
3702.65983,0.14209
3704.58829,0.13919
3706.51676,0.14014
3708.44523,0.14944
3710.37370,0.15662
3712.30217,0.14908
3714.23064,0.13923
3716.15911,0.13405
3718.08757,0.12839
3720.01604,0.12189
3721.94451,0.12000
3723.87298,0.12260
3725.80145,0.12612
3727.72992,0.13076
3729.65839,0.13429
3731.58686,0.13804
3733.51532,0.14536
3735.44379,0.15025
3737.37226,0.14944
3739.30073,0.14670
3741.22920,0.14104
3743.15767,0.13554
3745.08614,0.13745
3747.01460,0.14191
3748.94307,0.14611
3750.87154,0.15102
3752.80001,0.14698
3754.72848,0.14038
3756.65695,0.13732
3758.58542,0.13339
3760.51389,0.12804
3762.44235,0.12844
3764.37082,0.13436
3766.29929,0.13817
3768.22776,0.13698
3770.15623,0.13487
3772.08470,0.13296
3774.01317,0.13217
3775.94163,0.13188
3777.87010,0.12979
3779.79857,0.12621
3781.72704,0.12561
3783.65551,0.12863
3785.58398,0.12839
3787.51245,0.12375
3789.44092,0.12128
3791.36938,0.12067
3793.29785,0.12134
3795.22632,0.12528
3797.15479,0.12989
3799.08326,0.13440
3801.01173,0.13667
3802.94020,0.13164
3804.86866,0.13221
3806.79713,0.13778
3808.72560,0.13547
3810.65407,0.12925
3812.58254,0.12445
3814.51101,0.12054
3816.43948,0.11777
3818.36795,0.11965
3820.29641,0.12776
3822.22488,0.13364
3824.15335,0.13436
3826.08182,0.13559
3828.01029,0.13434
3829.93876,0.12913
3831.86723,0.12366
3833.79569,0.12285
3835.72416,0.12873
3837.65263,0.13919
3839.58110,0.14488
3841.50957,0.14143
3843.43804,0.13916
3845.36651,0.14005
3847.29498,0.13692
3849.22344,0.13241
3851.15191,0.13598
3853.08038,0.14223
3855.00885,0.12576
3856.93732,0.11010
3858.86579,0.10945
3860.79426,0.11785
3862.72272,0.12439
3864.65119,0.12364
3866.57966,0.12448
3868.50813,0.13022
3870.43660,0.13294
3872.36507,0.12770
3874.29354,0.12124
3876.22200,0.11830
3878.15047,0.11985
3880.07894,0.12594
3882.00741,0.13262
3883.93588,0.13559
3885.86435,0.13513
3887.79282,0.13244
3889.72129,0.12679
3891.64975,0.11639
3893.57822,0.10822
3895.50669,0.10668
3897.43516,0.11037
3899.36363,0.11950
3901.29210,0.12961
3903.22057,0.13558
3905.14903,0.13289
3907.07750,0.12393
3909.00597,0.11648
3910.93444,0.11107
3912.86291,0.10743
3914.79138,0.10478
3916.71985,0.10087
3918.64832,0.10055
3920.57678,0.10573
3922.50525,0.11026
3924.43372,0.11315
3926.36219,0.11586
3928.29066,0.11677
3930.21913,0.11584
3932.14760,0.11410
3934.07606,0.11204
3936.00453,0.11230
3937.93300,0.11588
3939.86147,0.12088
3941.78994,0.12237
3943.71841,0.11469
3945.64688,0.10358
3947.57535,0.09983
3949.50381,0.10470
3951.43228,0.10944
3953.36075,0.11005
3955.28922,0.10926
3957.21769,0.10964
3959.14616,0.11220
3961.07463,0.11379
3963.00309,0.11318
3964.93156,0.11189
3966.86003,0.11044
3968.78850,0.10969
3970.71697,0.10773
3972.64544,0.10500
3974.57391,0.10636
3976.50238,0.10960
3978.43084,0.10848
3980.35931,0.10431
3982.28778,0.10129
3984.21625,0.10001
3986.14472,0.10034
3988.07319,0.10250
3990.00166,0.10287
3991.93012,0.09889
3993.85859,0.09477
3995.78706,0.09418
3997.71553,0.09493
3999.64400,0.09530
4001.57247,0.09888
4003.50094,0.10381
4005.42941,0.10475
4007.35787,0.10411
4009.28634,0.10552
4011.21481,0.10907
4013.14328,0.10898
4015.07175,0.10289
4017.00022,0.09812
4018.92869,0.09747
4020.85715,0.10160
4022.78562,0.10997
4024.71409,0.11454
4026.64256,0.11060
4028.57103,0.10406
4030.49950,0.10236
4032.42797,0.10431
4034.35644,0.10490
4036.28490,0.10317
4038.21337,0.10098
4040.14184,0.10298
4042.07031,0.10676
4043.99878,0.10118
4045.92725,0.08860
4047.85572,0.08436
4049.78418,0.09278
4051.71265,0.10095
4053.64112,0.09825
4055.56959,0.09200
4057.49806,0.09062
4059.42653,0.09229
4061.35500,0.09471
4063.28346,0.09708
4065.21193,0.09728
4067.14040,0.09446
4069.06887,0.09223
4070.99734,0.09280
4072.92581,0.09567
4074.85428,0.10124
4076.78275,0.10546
4078.71121,0.10306
4080.63968,0.09663
4082.56815,0.09257
4084.49662,0.09123
4086.42509,0.08986
4088.35356,0.09108
4090.28203,0.09447
4092.21049,0.09296
4094.13896,0.08782
4096.06743,0.08560
4097.99590,0.08572
4099.92437,0.08772
4101.85284,0.09112
4103.78131,0.09173
4105.70978,0.09152
4107.63824,0.09464
4109.56671,0.09983
4111.49518,0.10299
4113.42365,0.10011
4115.35212,0.09291
4117.28059,0.08891
4119.20906,0.09172
4121.13752,0.09575
4123.06599,0.09522
4124.99446,0.09020
4126.92293,0.08437
4128.85140,0.08167
4130.77987,0.08223
4132.70834,0.08324
4134.63681,0.08143
4136.56527,0.07860
4138.49374,0.07977
4140.42221,0.08453
4142.35068,0.08843
4144.27915,0.09006
4146.20762,0.09218
4148.13609,0.09175
4150.06455,0.08391
4151.99302,0.07914
4153.92149,0.08443
4155.84996,0.08820
4157.77843,0.08613
4159.70690,0.07953
4161.63537,0.06900
4163.56384,0.06368
4165.49230,0.06767
4167.42077,0.07688
4169.34924,0.08598
4171.27771,0.08862
4173.20618,0.08333
4175.13465,0.07793
4177.06312,0.07626
4178.99158,0.07383
4180.92005,0.07323
4182.84852,0.07811
4184.77699,0.08437
4186.70546,0.08671
4188.63393,0.08441
4190.56240,0.08204
4192.49087,0.08141
4194.41933,0.07801
4196.34780,0.07420
4198.27627,0.07661
4200.20474,0.07811
4202.13321,0.07434
4204.06168,0.07267
4205.99015,0.07509
4207.91861,0.07909
4209.84708,0.08029
4211.77555,0.07629
4213.70402,0.07364
4215.63249,0.07749
4217.56096,0.07881
4219.48943,0.07452
4221.41789,0.07353
4223.34636,0.07173
4225.27483,0.06499
4227.20330,0.06487
4229.13177,0.07211
4231.06024,0.07451
4232.98871,0.07299
4234.91718,0.07503
4236.84564,0.07896
4238.77411,0.07988
4240.70258,0.07725
4242.63105,0.07466
4244.55952,0.07292
4246.48799,0.07019
4248.41646,0.06408
4250.34492,0.05702
4252.27339,0.05766
4254.20186,0.06401
4256.13033,0.06405
4258.05880,0.05574
4259.98727,0.04892
4261.91574,0.04991
4263.84421,0.05734
4265.77267,0.06733
4267.70114,0.07364
4269.62961,0.07346
4271.55808,0.06924
4273.48655,0.06315
4275.41502,0.06018
4277.34349,0.06298
4279.27195,0.06776
4281.20042,0.07271
4283.12889,0.07392
4285.05736,0.06948
4286.98583,0.06395
4288.91430,0.05609
4290.84277,0.04823
4292.77124,0.04818
4294.69970,0.05137
4296.62817,0.05356
4298.55664,0.05945
4300.48511,0.06304
4302.41358,0.05850
4304.34205,0.05665
4306.27052,0.05980
4308.19898,0.05991
4310.12745,0.05926
4312.05592,0.06098
4313.98439,0.06351
4315.91286,0.06433
4317.84133,0.06055
4319.76980,0.05634
4321.69827,0.05640
4323.62673,0.05675
4325.55520,0.05627
4327.48367,0.05753
4329.41214,0.05689
4331.34061,0.05328
4333.26908,0.05232
4335.19755,0.05507
4337.12601,0.05558
4339.05448,0.05116
4340.98295,0.05032
4342.91142,0.05467
4344.83989,0.04999
4346.76836,0.03845
4348.69683,0.03558
4350.62530,0.04027
4352.55376,0.04430
4354.48223,0.04449
4356.41070,0.04688
4358.33917,0.05384
4360.26764,0.05177
4362.19611,0.04293
4364.12458,0.04291
4366.05304,0.04796
4367.98151,0.05116
4369.90998,0.05138
4371.83845,0.04523
4373.76692,0.03725
4375.69539,0.03392
4377.62386,0.03592
4379.55232,0.04089
4381.48079,0.04157
4383.40926,0.03551
4385.33773,0.03088
4387.26620,0.03156
4389.19467,0.03349
4391.12314,0.03662
4393.05161,0.04103
4394.98007,0.04119
4396.90854,0.03709
4398.83701,0.03549
4400.76548,0.03890
4402.69395,0.04360
4404.62242,0.04646
4406.55089,0.04515
4408.47935,0.03931
4410.40782,0.03267
4412.33629,0.02793
4414.26476,0.03012
4416.19323,0.04098
4418.12170,0.04861
4420.05017,0.04379
4421.97864,0.03430
4423.90710,0.03011
4425.83557,0.03213
4427.76404,0.03595
4429.69251,0.03636
4431.62098,0.03671
4433.54945,0.04062
4435.47792,0.04221
4437.40638,0.03960
4439.33485,0.03615
4441.26332,0.03332
4443.19179,0.03213
4445.12026,0.03296
4447.04873,0.03205
4448.97720,0.02855
4450.90567,0.02694
4452.83413,0.02577
4454.76260,0.02437
4456.69107,0.02553
4458.61954,0.02768
4460.54801,0.03237
4462.47648,0.04015
4464.40495,0.04181
4466.33341,0.03359
4468.26188,0.02479
4470.19035,0.01957
4472.11882,0.01627
4474.04729,0.01785
4475.97576,0.02100
4477.90423,0.02231
4479.83270,0.02527
4481.76116,0.02800
4483.68963,0.02765
4485.61810,0.02470
4487.54657,0.02246
4489.47504,0.02646
4491.40351,0.03066
4493.33198,0.02213
4495.26044,0.00414
4497.18891,-0.01114
4499.11738,-0.01515
4501.04585,-0.00705
4502.97432,0.00367
4504.90279,0.01206
4506.83126,0.01788
4508.75973,0.01887
4510.68819,0.01834
4512.61666,0.01881
4514.54513,0.01699
4516.47360,0.01496
4518.40207,0.01787
4520.33054,0.02046
4522.25901,0.01927
4524.18747,0.02151
4526.11594,0.02899
4528.04441,0.03665
4529.97288,0.03803
4531.90135,0.03092
4533.82982,0.02202
4535.75829,0.01555
4537.68676,0.00890
4539.61522,0.00353
4541.54369,0.00870
4543.47216,0.02440
4545.40063,0.03569
4547.32910,0.03327
4549.25757,0.02241
4551.18604,0.01375
4553.11450,0.01067
4555.04297,0.01240
4556.97144,0.01724
4558.89991,0.01713
4560.82838,0.01184
4562.75685,0.00937
4564.68532,0.01412
4566.61378,0.02151
4568.54225,0.02247
4570.47072,0.02097
4572.39919,0.02557
4574.32766,0.03342
4576.25613,0.03593
4578.18460,0.03163
4580.11307,0.02707
4582.04153,0.02656
4583.97000,0.02594
4585.89847,0.01527
4587.82694,-0.00098
4589.75541,-0.00572
4591.68388,-0.00120
4593.61235,0.00270
4595.54081,0.00994
4597.46928,0.01909
4599.39775,0.02317
4601.32622,0.02612
4603.25469,0.03118
4605.18316,0.02861
4607.11163,0.01485
4609.04010,0.00611
4610.96856,0.01019
4612.89703,0.01584
4614.82550,0.01833
4616.75397,0.01940
4618.68244,0.01713
4620.61091,0.01685
4622.53938,0.02275
4624.46784,0.02598
4626.39631,0.02303
4628.32478,0.02076
4630.25325,0.02105
4632.18172,0.02324
4634.11019,0.02624
4636.03866,0.02492
4637.96713,0.02004
4639.89559,0.01337
4641.82406,0.00596
4643.75253,0.00524
4645.68100,0.01071
4647.60947,0.01600
4649.53794,0.01866
4651.46641,0.01441
4653.39487,0.00301
4655.32334,-0.00499
4657.25181,-0.00486
4659.18028,-0.00099
4661.10875,0.00869
4663.03722,0.02070
4664.96569,0.02676
4666.89416,0.02699
4668.82262,0.02378
4670.75109,0.01773
4672.67956,0.00743
4674.60803,-0.00157
4676.53650,-0.00309
4678.46497,-0.00094
4680.39344,0.00400
4682.32190,0.01248
4684.25037,0.01695
4686.17884,0.01043
4688.10731,-0.00124
4690.03578,-0.00501
4691.96425,-0.00142
4693.89272,-0.00002
4695.82119,0.00134
4697.74965,0.00614
4699.67812,0.01079
4701.60659,0.01546
4703.53506,0.02301
4705.46353,0.03271
4707.39200,0.03674
4709.32047,0.02841
4711.24893,0.01308
4713.17740,0.00395
4715.10587,0.00542
4717.03434,0.00790
4718.96281,0.01004
4720.89128,0.01689
4722.81975,0.01527
4724.74821,-0.00262
4726.67668,-0.01506
4728.60515,-0.00486
4730.53362,0.01583
4732.46209,0.02893
4734.39056,0.02775
4736.31903,0.01649
4738.24750,0.00668
4740.17596,0.00819
4742.10443,0.01653
4744.03290,0.01685
4745.96137,0.01006
4747.88984,0.00911
4749.81831,0.00938
4751.74678,0.00120
4753.67524,-0.00764
4755.60371,-0.01052
4757.53218,-0.00748
4759.46065,0.00108
4761.38912,0.00710
4763.31759,0.01107
4765.24606,0.01972
4767.17453,0.02268
4769.10299,0.01497
4771.03146,0.00545
4772.95993,-0.00034
4774.88840,0.00196
4776.81687,0.01157
4778.74534,0.02022
4780.67381,0.02429
4782.60227,0.02719
4784.53074,0.02714
4786.45921,0.02144
4788.38768,0.01789
4790.31615,0.02052
4792.24462,0.02122
4794.17309,0.01222
4796.10156,-0.00178
4798.03002,-0.00751
4799.95849,-0.00144
4801.88696,0.00737
4803.81543,0.00618
4805.74390,-0.00383
4807.67237,-0.00754
4809.60084,-0.00230
4811.52930,0.00549
4813.45777,0.01134
4815.38624,0.01412
4817.31471,0.01414
4819.24318,0.00203
4821.17165,-0.01560
4823.10012,-0.01109
4825.02859,0.01029
4826.95705,0.02042
4828.88552,0.02087
4830.81399,0.01697
4832.74246,0.00720
4834.67093,0.00170
4836.59940,-0.00036
4838.52787,-0.00500
4840.45633,-0.00524
4842.38480,0.00370
4844.31327,0.01393
4846.24174,0.01912
4848.17021,0.02695
4850.09868,0.03831
4852.02715,0.03855
4853.95562,0.02538
4855.88408,0.01318
4857.81255,0.00829
4859.74102,0.00931
4861.66949,0.01493
4863.59796,0.01848
4865.52643,0.01780
4867.45490,0.01669
4869.38336,0.01248
4871.31183,0.00639
4873.24030,0.00562
4875.16877,0.00691
4877.09724,0.00552
4879.02571,0.00424
4880.95418,0.00545
4882.88265,0.00962
4884.81111,0.01633
4886.73958,0.02873
4888.66805,0.04591
4890.59652,0.05423
4892.52499,0.04616
4894.45346,0.02882
4896.38193,0.00977
4898.31039,-0.00689
4900.23886,-0.01559
4902.16733,-0.01049
4904.09580,0.00434
4906.02427,0.01340
4907.95274,0.01029
4909.88121,0.00928
4911.80967,0.01623
4913.73814,0.01585
4915.66661,0.00561
4917.59508,-0.00181
4919.52355,-0.00556
4921.45202,-0.00595
4923.38049,0.00176
4925.30896,0.01360
4927.23742,0.02196
4929.16589,0.02007
4931.09436,0.01011
4933.02283,0.00581
4934.95130,0.01033
4936.87977,0.01685
4938.80824,0.01899
4940.73670,0.01359
4942.66517,0.00445
4944.59364,-0.00206
4946.52211,0.00193
4948.45058,0.01567
4950.37905,0.02502
4952.30752,0.02262
4954.23599,0.01855
4956.16445,0.01762
4958.09292,0.01391
4960.02139,0.01812
4961.94986,0.03373
4963.87833,0.03246
4965.80680,0.01417
4967.73527,0.01471
4969.66373,0.03133
4971.59220,0.03081
4973.52067,0.01252
4975.44914,0.00547
4977.37761,0.01243
4979.30608,0.01038
4981.23455,0.00685
4983.16302,0.01731
4985.09148,0.02462
4987.01995,0.01743
4988.94842,0.00582
4990.87689,0.00250
4992.80536,0.01202
4994.73383,0.02304
4996.66230,0.01618
4998.59076,-0.00373
5000.51923,-0.01021
5002.44770,-0.00586
5004.37617,-0.01035
5006.30464,-0.01399
5008.23311,-0.00497
5010.16158,0.00662
5012.09005,0.01567
5014.01851,0.02102
5015.94698,0.01911
5017.87545,0.02292
5019.80392,0.03654
5021.73239,0.03728
5023.66086,0.02008
5025.58933,0.00695
5027.51779,0.01048
5029.44626,0.02133
5031.37473,0.02763
5033.30320,0.03164
5035.23167,0.03306
5037.16014,0.02449
5039.08861,0.01331
5041.01708,0.00770
5042.94554,0.00735
5044.87401,0.01449
5046.80248,0.01966
5048.73095,0.01415
5050.65942,0.00162
5052.58789,-0.00920
5054.51636,-0.00300
5056.44482,0.01432
5058.37329,0.02390
5060.30176,0.03006
5062.23023,0.04070
5064.15870,0.05057
5066.08717,0.04853
5068.01564,0.02635
5069.94410,-0.00031
5071.87257,-0.00339
5073.80104,0.01504
5075.72951,0.02671
5077.65798,0.02486
5079.58645,0.02259
5081.51492,0.01701
5083.44339,0.00718
5085.37185,0.00852
5087.30032,0.01882
5089.22879,0.02618
5091.15726,0.03458
5093.08573,0.04636
5095.01420,0.05695
5096.94267,0.05566
5098.87113,0.03013
5100.79960,-0.00800
5102.72807,-0.02411
5104.65654,-0.01058
5106.58501,0.00001
5108.51348,0.00143
5110.44195,0.01333
5112.37042,0.02658
5114.29888,0.03428
5116.22735,0.04649
5118.15582,0.05595
5120.08429,0.05326
5122.01276,0.04309
5123.94123,0.02883
5125.86970,0.01707
5127.79816,0.01576
5129.72663,0.01653
5131.65510,0.01817
5133.58357,0.03430
5135.51204,0.05235
5137.44051,0.04512
5139.36898,0.03089
5141.29745,0.04194
5143.22591,0.04899
5145.15438,0.02540
5147.08285,0.00755
5149.01132,0.00781
5150.93979,0.00204
5152.86826,-0.00448
5154.79673,0.00830
5156.72519,0.03592
5158.65366,0.05829
5160.58213,0.06942
5162.51060,0.06316
5164.43907,0.03376
5166.36754,0.00339
5168.29601,-0.00049
5170.22448,0.01666
5172.15294,0.02875
5174.08141,0.03368
5176.00988,0.03991
5177.93835,0.04274
5179.86682,0.04091
5181.79529,0.04071
5183.72376,0.03799
5185.65222,0.02649
5187.58069,0.02290
5189.50916,0.03313
5191.43763,0.04514
5193.36610,0.05255
5195.29457,0.04367
5197.22304,0.01617
5199.15151,-0.00389
5201.07997,0.00383
5203.00844,0.02341
5204.93691,0.03753
5206.86538,0.04831
5208.79385,0.04883
5210.72232,0.03953
5212.65079,0.03876
5214.57925,0.04895
5216.50772,0.06053
5218.43619,0.07089
5220.36466,0.07825
5222.29313,0.07267
5224.22160,0.05580
5226.15007,0.05091
5228.07854,0.06014
5230.00700,0.06048
5231.93547,0.04713
5233.86394,0.03239
5235.79241,0.02473
5237.72088,0.01976
5239.64935,0.01008
5241.57782,-0.00670
5243.50628,-0.01800
5245.43475,-0.01547
5247.36322,-0.00393
5249.29169,0.02358
5251.22016,0.04547
5253.14863,0.04129
5255.07710,0.03445
5257.00556,0.03717
5258.93403,0.03841
5260.86250,0.04434
5262.79097,0.06761
5264.71944,0.07610
5266.64791,0.04802
5268.57638,0.02190
5270.50485,0.02118
5272.43331,0.03757
5274.36178,0.05350
5276.29025,0.06342
5278.21872,0.06845
5280.14719,0.06488
5282.07566,0.06486
5284.00413,0.07725
5285.93259,0.08392
5287.86106,0.07121
5289.78953,0.05005
5291.71800,0.04085
5293.64647,0.04644
5295.57494,0.04908
5297.50341,0.04146
5299.43188,0.03335
5301.36034,0.03653
5303.28881,0.04893
5305.21728,0.05239
5307.14575,0.04869
5309.07422,0.06185
5311.00269,0.08442
5312.93116,0.08905
5314.85962,0.07898
5316.78809,0.06763
5318.71656,0.04982
5320.64503,0.03436
5322.57350,0.03567
5324.50197,0.04187
5326.43044,0.03566
5328.35891,0.02400
5330.28737,0.02340
5332.21584,0.03320
5334.14431,0.04412
5336.07278,0.04388
5338.00125,0.03603
5339.92972,0.03682
5341.85819,0.03569
5343.78665,0.03339
5345.71512,0.04919
5347.64359,0.06629
5349.57206,0.07908
5351.50053,0.09280
5353.42900,0.08925
5355.35747,0.08138
5357.28594,0.08755
5359.21440,0.08519
5361.14287,0.07136
5363.07134,0.06498
5364.99981,0.06636
5366.92828,0.06554
5368.85675,0.05707
5370.78522,0.05127
5372.71368,0.06398
5374.64215,0.07384
5376.57062,0.05682
5378.49909,0.04245
5380.42756,0.05889
5382.35603,0.08935
5384.28450,0.08964
5386.21297,0.06312
5388.14143,0.05116
5390.06990,0.04560
5391.99837,0.04856
5393.92684,0.06526
5395.85531,0.06951
5397.78378,0.06879
5399.71225,0.07736
5401.64071,0.07052
5403.56918,0.04456
5405.49765,0.03324
5407.42612,0.04628
5409.35459,0.06555
5411.28306,0.07175
5413.21153,0.05390
5415.13999,0.04261
5417.06846,0.06034
5418.99693,0.07351
5420.92540,0.06381
5422.85387,0.06091
5424.78234,0.07158
5426.71081,0.06715
5428.63928,0.05381
5430.56774,0.05729
5432.49621,0.06858
5434.42468,0.08110
5436.35315,0.09240
5438.28162,0.08540
5440.21009,0.06464
5442.13856,0.05734
5444.06702,0.06999
5445.99549,0.09237
5447.92396,0.08835
5449.85243,0.04888
5451.78090,0.03426
5453.70937,0.04226
5455.63784,0.04282
5457.56631,0.04945
5459.49477,0.05409
5461.42324,0.05452
5463.35171,0.06382
5465.28018,0.06662
5467.20865,0.06773
5469.13712,0.08023
5471.06559,0.08863
5472.99405,0.09109
5474.92252,0.08591
5476.85099,0.07116
5478.77946,0.06757
5480.70793,0.05695
5482.63640,0.03235
5484.56487,0.02951
5486.49334,0.03555
5488.42180,0.02643
5490.35027,0.02604
5492.27874,0.04159
5494.20721,0.06024
5496.13568,0.07570
5498.06415,0.07516
5499.99262,0.05685
5501.92108,0.04423
5503.84955,0.05520
5505.77802,0.07694
5507.70649,0.08074
5509.63496,0.06633
5511.56343,0.06049
5513.49190,0.06559
5515.42037,0.06535
5517.34883,0.05711
5519.27730,0.04998
5521.20577,0.04509
5523.13424,0.03526
5525.06271,0.03267
5526.99118,0.04464
5528.91965,0.06408
5530.84811,0.07965
5532.77658,0.05347
5534.70505,0.00735
5536.63352,0.01919
5538.56199,0.07296
5540.49046,0.10506
5542.41893,0.11599
5544.34740,0.11552
5546.27586,0.09412
5548.20433,0.06372
5550.13280,0.03752
5552.06127,0.01910
5553.98974,0.02795
5555.91821,0.06227
5557.84668,0.09073
5559.77514,0.10364
5561.70361,0.11348
5563.63208,0.11878
5565.56055,0.10377
5567.48902,0.07426
5569.41749,0.05713
5571.34596,0.06288
5573.27443,0.07426
5575.20289,0.06177
5577.13136,0.03709
5579.05983,0.03282
5580.98830,0.05113
5582.91677,0.07214
5584.84524,0.07414
5586.77371,0.06527
5588.70217,0.06669
5590.63064,0.07790
5592.55911,0.09575
5594.48758,0.11005
5596.41605,0.10584
5598.34452,0.09248
5600.27299,0.08273
5602.20145,0.07689
5604.12992,0.07509
5606.05839,0.07690
5607.98686,0.08887
5609.91533,0.10760
5611.84380,0.10914
5613.77227,0.08621
5615.70074,0.05081
5617.62920,0.03245
5619.55767,0.04558
5621.48614,0.05774
5623.41461,0.07147
5625.34308,0.09680
5627.27155,0.10515
5629.20002,0.09933
5631.12848,0.09521
5633.05695,0.10026
5634.98542,0.11102
5636.91389,0.11415
5638.84236,0.10443
5640.77083,0.07787
5642.69930,0.06035
5644.62777,0.06598
5646.55623,0.06712
5648.48470,0.05881
5650.41317,0.05219
5652.34164,0.04638
5654.27011,0.05858
5656.19858,0.09480
5658.12705,0.11286
5660.05551,0.09345
5661.98398,0.07160
5663.91245,0.07298
5665.84092,0.08290
5667.76939,0.07390
5669.69786,0.04418
5671.62633,0.01371
5673.55480,0.01386
5675.48326,0.04752
5677.41173,0.06428
5679.34020,0.05831
5681.26867,0.06349
5683.19714,0.07211
5685.12561,0.07575
5687.05408,0.07573
5688.98254,0.07093
5690.91101,0.07210
5692.83948,0.08318
5694.76795,0.09001
5696.69642,0.07303
5698.62489,0.04668
5700.55336,0.05565
5702.48183,0.09745
5704.41029,0.12288
5706.33876,0.11737
5708.26723,0.10554
5710.19570,0.08679
5712.12417,0.06763
5714.05264,0.08499
5715.98111,0.11193
5717.90957,0.09587
5719.83804,0.06055
5721.76651,0.04610
5723.69498,0.04994
5725.62345,0.05778
5727.55192,0.05726
5729.48039,0.04625
5731.40886,0.03905
5733.33732,0.04738
5735.26579,0.07978
5737.19426,0.12849
5739.12273,0.16154
5741.05120,0.15353
5742.97967,0.11018
5744.90814,0.07231
5746.83660,0.06780
5748.76507,0.08010
5750.69354,0.09358
5752.62201,0.10766
5754.55048,0.12181
5756.47895,0.12953
5758.40742,0.11280
5760.33588,0.07936
5762.26435,0.06227
5764.19282,0.07332
5766.12129,0.09267
5768.04976,0.10535
5769.97823,0.11561
5771.90670,0.11930
5773.83517,0.10708
5775.76363,0.09399
5777.69210,0.10893
5779.62057,0.13631
5781.54904,0.13446
5783.47751,0.10817
5785.40598,0.08144
5787.33445,0.07235
5789.26291,0.08781
5791.19138,0.10462
5793.11985,0.10069
5795.04832,0.07507
5796.97679,0.05366
5798.90526,0.07059
5800.83373,0.10564
5802.76220,0.12802
5804.69066,0.12852
5806.61913,0.09128
5808.54760,0.04169
5810.47607,0.01250
5812.40454,0.00158
5814.33301,0.01143
5816.26148,0.04283
5818.18994,0.07796
5820.11841,0.09117
5822.04688,0.08813
5823.97535,0.10022
5825.90382,0.11983
5827.83229,0.11974
5829.76076,0.09861
5831.68923,0.07265
5833.61769,0.05783
5835.54616,0.06011
5837.47463,0.06492
5839.40310,0.05789
5841.33157,0.05207
5843.26004,0.04562
5845.18851,0.00447
5847.11697,-0.03180
5849.04544,0.01764
5850.97391,0.11431
5852.90238,0.15467
5854.83085,0.12350
5856.75932,0.08168
5858.68779,0.06502
5860.61626,0.03719
5862.54472,0.00268
5864.47319,0.01842
5866.40166,0.05224
5868.33013,0.04860
5870.25860,0.04358
5872.18707,0.06295
5874.11554,0.10651
5876.04400,0.15347
5877.97247,0.14638
5879.90094,0.09857
5881.82941,0.06483
5883.75788,0.05671
5885.68635,0.07166
5887.61482,0.10655
5889.54329,0.14431
5891.47175,0.15425
5893.40022,0.14164
5895.32869,0.13455
5897.25716,0.11761
5899.18563,0.07506
5901.11410,0.04255
5903.04257,0.04320
5904.97103,0.04806
5906.89950,0.06109
5908.82797,0.09995
5910.75644,0.11564
5912.68491,0.09958
5914.61338,0.09770
5916.54185,0.09445
5918.47032,0.06937
5920.39878,0.05888
5922.32725,0.06881
5924.25572,0.07681
5926.18419,0.08890
5928.11266,0.08436
5930.04113,0.04418
5931.96960,0.01921
5933.89806,0.04388
5935.82653,0.06142
5937.75500,0.03841
5939.68347,0.03890
5941.61194,0.08770
5943.54041,0.12216
5945.46888,0.09974
5947.39734,0.05176
5949.32581,0.04362
5951.25428,0.08031
5953.18275,0.09345
5955.11122,0.07432
5957.03969,0.08308
5958.96816,0.13023
5960.89663,0.15974
5962.82509,0.14410
5964.75356,0.11061
5966.68203,0.09565
5968.61050,0.10846
5970.53897,0.13930
5972.46744,0.16481
5974.39591,0.15415
5976.32437,0.12659
5978.25284,0.12414
5980.18131,0.15464
5982.10978,0.17477
5984.03825,0.16168
5985.96672,0.15731
5987.89519,0.14259
5989.82366,0.08717
5991.75212,0.05748
5993.68059,0.07473
5995.60906,0.07579
5997.53753,0.04891
5999.46600,0.02409
6001.39447,0.00544
6003.32294,0.02249
6005.25140,0.06865
6007.17987,0.07873
6009.10834,0.07179
6011.03681,0.08127
6012.96528,0.07121
6014.89375,0.04842
6016.82222,0.05268
6018.75069,0.05587
6020.67915,0.02603
6022.60762,-0.00015
6024.53609,0.00936
6026.46456,0.03740
6028.39303,0.05619
6030.32150,0.08207
6032.24997,0.12092
6034.17843,0.13583
6036.10690,0.12867
6038.03537,0.10749
6039.96384,0.06106
6041.89231,0.03897
6043.82078,0.06656
6045.74925,0.08210
6047.67772,0.07682
6049.60618,0.08297
6051.53465,0.09882
6053.46312,0.12898
6055.39159,0.16375
6057.32006,0.17015
6059.24853,0.14465
6061.17700,0.11156
6063.10546,0.09039
6065.03393,0.07711
6066.96240,0.07917
6068.89087,0.10727
6070.81934,0.13011
6072.74781,0.13051
6074.67628,0.11803
6076.60475,0.11055
6078.53321,0.13157
6080.46168,0.14570
6082.39015,0.11015
6084.31862,0.04744
6086.24709,0.03330
6088.17556,0.08927
6090.10403,0.13064
6092.03249,0.14491
6093.96096,0.16425
6095.88943,0.16109
6097.81790,0.12457
6099.74637,0.08347
6101.67484,0.05060
6103.60331,0.02892
6105.53177,0.02612
6107.46024,0.03917
6109.38871,0.08430
6111.31718,0.14748
6113.24565,0.17315
6115.17412,0.15700
6117.10259,0.12193
6119.03106,0.08432
6120.95952,0.06884
6122.88799,0.09103
6124.81646,0.12051
6126.74493,0.12645
6128.67340,0.12217
6130.60187,0.11471
6132.53034,0.11359
6134.45880,0.13106
6136.38727,0.15235
6138.31574,0.16502
6140.24421,0.14011
6142.17268,0.07266
6144.10115,0.05949
6146.02962,0.11173
6147.95809,0.12429
6149.88655,0.08854
6151.81502,0.06400
6153.74349,0.06807
6155.67196,0.07870
6157.60043,0.08315
6159.52890,0.09824
6161.45737,0.12764
6163.38583,0.12553
6165.31430,0.08122
6167.24277,0.04940
6169.17124,0.02745
6171.09971,-0.00483
6173.02818,-0.01274
6174.95665,0.00546
6176.88512,0.01688
6178.81358,0.02236
6180.74205,0.05743
6182.67052,0.12736
6184.59899,0.17479
6186.52746,0.16788
6188.45593,0.15883
6190.38440,0.17934
6192.31286,0.17747
6194.24133,0.16949
6196.16980,0.17205
6198.09827,0.13123
6200.02674,0.06661
6201.95521,0.02021
6203.88368,0.01229
6205.81215,0.04256
6207.74061,0.07447
6209.66908,0.08444
6211.59755,0.05773
6213.52602,0.04070
6215.45449,0.06667
6217.38296,0.10661
6219.31143,0.13871
6221.23989,0.13554
6223.16836,0.09119
6225.09683,0.06913
6227.02530,0.08681
6228.95377,0.07776
6230.88224,0.03708
6232.81071,0.01078
6234.73918,-0.00446
6236.66764,-0.01111
6238.59611,0.00103
6240.52458,0.02273
6242.45305,0.07028
6244.38152,0.15354
6246.30999,0.21743
6248.23846,0.20432
6250.16692,0.14849
6252.09539,0.13550
6254.02386,0.14689
6255.95233,0.14073
6257.88080,0.14930
6259.80927,0.15933
6261.73774,0.11479
6263.66621,0.03996
6265.59467,0.02097
6267.52314,0.06485
6269.45161,0.09867
6271.38008,0.11507
6273.30855,0.12825
6275.23702,0.11637
6277.16549,0.12050
6279.09395,0.16364
6281.02242,0.16842
6282.95089,0.12209
6284.87936,0.07967
6286.80783,0.06633
6288.73630,0.09293
6290.66477,0.13889
6292.59323,0.13937
6294.52170,0.09454
6296.45017,0.05823
6298.37864,0.05020
6300.30711,0.06152
6302.23558,0.04870
6304.16405,0.01613
6306.09252,0.05090
6308.02098,0.14838
6309.94945,0.18897
6311.87792,0.13063
6313.80639,0.07953
6315.73486,0.08776
6317.66333,0.10919
6319.59180,0.15234
6321.52026,0.19824
6323.44873,0.17695
6325.37720,0.12139
6327.30567,0.08430
6329.23414,0.08219
6331.16261,0.11864
6333.09108,0.16006
6335.01955,0.18129
6336.94801,0.20236
6338.87648,0.21749
6340.80495,0.18177
6342.73342,0.11895
6344.66189,0.08875
6346.59036,0.10553
6348.51883,0.12447
6350.44729,0.10017
6352.37576,0.06282
6354.30423,0.05692
6356.23270,0.07754
6358.16117,0.09523
6360.08964,0.10941
6362.01811,0.13459
6363.94658,0.15262
6365.87504,0.19109
6367.80351,0.24632
6369.73198,0.20032
6371.66045,0.09338
6373.58892,0.07689
6375.51739,0.10292
6377.44586,0.11828
6379.37432,0.14695
6381.30279,0.13757
6383.23126,0.07781
6385.15973,0.04255
6387.08820,0.07381
6389.01667,0.14810
6390.94514,0.20049
6392.87361,0.18062
6394.80207,0.11468
6396.73054,0.08416
6398.65901,0.10176
6400.58748,0.08860
6402.51595,0.00059
6404.44442,-0.07739
6406.37289,-0.07812
6408.30135,-0.02350
6410.22982,0.05653
6412.15829,0.11883
6414.08676,0.13486
6416.01523,0.14728
6417.94370,0.17230
6419.87217,0.16189
6421.80064,0.11980
6423.72910,0.08338
6425.65757,0.06137
6427.58604,0.06413
6429.51451,0.08486
6431.44298,0.09009
6433.37145,0.05212
6435.29992,-0.00200
6437.22838,0.01136
6439.15685,0.08913
6441.08532,0.13287
6443.01379,0.11909
6444.94226,0.08981
6446.87073,0.06525
6448.79920,0.01587
6450.72766,-0.01639
6452.65613,0.04287
6454.58460,0.12291
6456.51307,0.12520
6458.44154,0.09002
6460.37001,0.11093
6462.29848,0.14659
6464.22695,0.11608
6466.15541,0.04899
6468.08388,-0.00117
6470.01235,-0.00394
6471.94082,0.04244
6473.86929,0.09592
6475.79776,0.13917
6477.72623,0.15813
6479.65469,0.14350
6481.58316,0.11614
6483.51163,0.10329
6485.44010,0.10286
6487.36857,0.08401
6489.29704,0.06223
6491.22551,0.08798
6493.15398,0.11963
6495.08244,0.08016
6497.01091,0.00063
6498.93938,-0.03937
6500.86785,0.00830
6502.79632,0.05917
6504.72479,0.04080
6506.65326,0.04479
6508.58172,0.08771
6510.51019,0.10114
6512.43866,0.08050
6514.36713,0.05909
6516.29560,0.08504
6518.22407,0.13667
6520.15254,0.15038
6522.08101,0.13376
6524.00947,0.10960
6525.93794,0.12773
6527.86641,0.20100
6529.79488,0.22403
6531.72335,0.15520
6533.65182,0.06148
6535.58029,0.00528
6537.50875,0.00715
6539.43722,0.02903
6541.36569,0.03460
6543.29416,0.02081
6545.22263,-0.03086
6547.15110,-0.09429
6549.07957,-0.09473
6551.00804,-0.00984
6552.93650,0.09427
6554.86497,0.14055
6556.79344,0.09166
6558.72191,0.01757
6560.65038,0.01482
6562.57885,0.08281
6564.50732,0.15829
6566.43578,0.16657
6568.36425,0.10637
6570.29272,0.04420
6572.22119,-0.01291
6574.14966,-0.05121
6576.07813,-0.02994
6578.00660,-0.00701
6579.93507,-0.03683
6581.86353,-0.07704
6583.79200,-0.07052
6585.72047,-0.03278
6587.64894,-0.00228
6589.57741,0.05363
6591.50588,0.13627
6593.43435,0.17571
6595.36281,0.12895
6597.29128,0.05845
6599.21975,0.04759
6601.14822,0.09827
6603.07669,0.11927
6605.00516,0.07895
6606.93363,0.02346
6608.86210,-0.00373
6610.79056,0.01530
6612.71903,0.04900
6614.64750,0.06020
6616.57597,0.05584
6618.50444,0.06484
6620.43291,0.10580
6622.36138,0.13527
6624.28984,0.10725
6626.21831,0.08183
6628.14678,0.10547
6630.07525,0.11596
6632.00372,0.11711
6633.93219,0.12358
6635.86066,0.07298
6637.78912,0.04606
6639.71759,0.08806
6641.64606,0.08679
6643.57453,0.00987
6645.50300,-0.05522
6647.43147,-0.01848
6649.35994,0.08613
6651.28841,0.14881
6653.21687,0.13807
6655.14534,0.11642
6657.07381,0.08689
6659.00228,-0.00103
6660.93075,-0.04771
6662.85922,0.00783
6664.78769,0.06823
6666.71615,0.09610
6668.64462,0.11542
6670.57309,0.13501
6672.50156,0.15376
6674.43003,0.13889
6676.35850,0.11216
6678.28697,0.10578
6680.21544,0.07759
6682.14390,0.03752
6684.07237,0.04915
6686.00084,0.09310
6687.92931,0.12256
6689.85778,0.14432
6691.78625,0.12363
6693.71472,0.05464
6695.64318,0.04562
6697.57165,0.13112
6699.50012,0.16266
6701.42859,0.10753
6703.35706,0.11076
6705.28553,0.20672
6707.21400,0.26172
6709.14247,0.21842
6711.07093,0.11876
6712.99940,0.00838
6714.92787,-0.02673
6716.85634,0.02571
6718.78481,0.09837
6720.71328,0.16223
6722.64175,0.17331
6724.57021,0.14011
6726.49868,0.09992
6728.42715,0.06260
6730.35562,0.08855
6732.28409,0.16122
6734.21256,0.15463
6736.14103,0.06039
6738.06950,0.02529
6739.99796,0.11541
6741.92643,0.19719
6743.85490,0.15577
6745.78337,0.05795
6747.71184,-0.00591
6749.64031,0.00644
6751.56878,0.01173
6753.49724,-0.04332
6755.42571,-0.06736
6757.35418,-0.00226
6759.28265,0.09329
6761.21112,0.10731
6763.13959,0.07516
6765.06806,0.10694
6766.99653,0.14893
6768.92499,0.11202
6770.85346,0.06869
6772.78193,0.12820
6774.71040,0.22758
6776.63887,0.17877
6778.56734,0.03054
6780.49581,-0.01575
6782.42427,-0.00960
6784.35274,-0.03561
6786.28121,-0.00815
6788.20968,0.05466
6790.13815,0.04094
6792.06662,-0.03688
6793.99509,-0.08766
6795.92355,-0.05204
6797.85202,0.03838
6799.78049,0.07576
6801.70896,0.09260
6803.63743,0.18808
6805.56590,0.22903
6807.49437,0.12459
6809.42284,-0.00362
6811.35130,-0.04522
6813.27977,0.01039
6815.20824,0.09793
6817.13671,0.13679
6819.06518,0.08091
6820.99365,0.01648
6822.92212,0.02163
6824.85058,-0.03423
6826.77905,-0.13684
6828.70752,-0.07481
6830.63599,0.11436
6832.56446,0.19751
6834.49293,0.17703
6836.42140,0.13873
6838.34987,0.10725
6840.27833,0.11643
6842.20680,0.15922
6844.13527,0.15585
6846.06374,0.08565
6847.99221,0.01825
6849.92068,0.01600
6851.84915,0.05949
6853.77761,0.13443
6855.70608,0.15730
6857.63455,0.05138
6859.56302,-0.00703
6861.49149,0.04292
6863.41996,0.08601
6865.34843,0.09437
6867.27690,0.06193
6869.20536,0.05661
6871.13383,0.13546
6873.06230,0.16808
6874.99077,0.07059
6876.91924,-0.02357
6878.84771,-0.00113
6880.77618,0.07835
6882.70464,0.08590
6884.63311,0.05076
6886.56158,0.06910
6888.49005,0.16170
6890.41852,0.21528
6892.34699,0.14034
6894.27546,0.03313
6896.20393,-0.02533
6898.13239,-0.00801
6900.06086,0.09362
6901.98933,0.16570
6903.91780,0.13240
6905.84627,0.04111
6907.77474,-0.03647
6909.70321,-0.05419
6911.63167,-0.02106
6913.56014,0.00946
6915.48861,0.06459
6917.41708,0.21922
6919.34555,0.36381
6921.27402,0.31126
6923.20249,0.17056
6925.13096,0.11897
6927.05942,0.17218
6928.98789,0.21702
6930.91636,0.17358
6932.84483,0.12701
6934.77330,0.14428
6936.70177,0.20691
6938.63024,0.27571
6940.55870,0.22280
6942.48717,0.08708
6944.41564,0.07209
6946.34411,0.18478
6948.27258,0.26954
6950.20105,0.19296
6952.12952,0.05804
6954.05799,0.11401
6955.98645,0.31122
6957.91492,0.30043
6959.84339,0.14375
6961.77186,0.06768
6963.70033,0.03989
6965.62880,0.01677
6967.55727,0.01098
6969.48573,-0.02977
6971.41420,-0.10177
6973.34267,-0.10953
6975.27114,-0.00032
6977.19961,0.05347
6979.12808,-0.05260
6981.05655,-0.13202
6982.98501,-0.00597
6984.91348,0.18606
6986.84195,0.25898
6988.77042,0.25865
6990.69889,0.20727
6992.62736,0.12042
6994.55583,0.07876
6996.48430,0.03857
6998.41276,-0.04562
7000.34123,-0.01112
7002.26970,0.11648
7004.19817,0.16677
7006.12664,0.17150
7008.05511,0.18910
7009.98358,0.15961
7011.91204,0.06640
7013.84051,-0.00472
7015.76898,-0.03796
7017.69745,-0.03481
7019.62592,0.11414
7021.55439,0.32715
7023.48286,0.33613
7025.41133,0.12353
7027.33979,-0.05800
7029.26826,-0.09147
7031.19673,-0.04556
7033.12520,0.03313
7035.05367,0.13740
7036.98214,0.17233
7038.91061,0.09941
7040.83907,-0.03143
7042.76754,-0.14664
7044.69601,-0.06123
7046.62448,0.18252
7048.55295,0.28867
7050.48142,0.24853
7052.40989,0.25953
7054.33836,0.30220
7056.26682,0.20268
7058.19529,0.00896
7060.12376,-0.08991
7062.05223,-0.11009
7063.98070,-0.06777
7065.90917,-0.00048
7067.83764,0.02052
7069.76610,0.03878
7071.69457,0.11843
7073.62304,0.14368
7075.55151,0.09997
7077.47998,0.10029
7079.40845,0.14011
7081.33692,0.13619
7083.26539,0.02751
7085.19385,-0.11553
7087.12232,-0.19022
7089.05079,-0.15819
7090.97926,-0.03237
7092.90773,0.12107
7094.83620,0.17714
7096.76467,0.15834
7098.69313,0.14971
7100.62160,0.16387
7102.55007,0.20782
7104.47854,0.28136
7106.40701,0.31318
7108.33548,0.23006
7110.26395,0.08168
7112.19242,-0.04083
7114.12088,-0.09812
7116.04935,-0.08020
7117.97782,0.03509
7119.90629,0.18671
7121.83476,0.26169
7123.76323,0.21777
7125.69170,0.10363
7127.62016,0.01045
7129.54863,-0.02211
7131.47710,-0.05142
7133.40557,-0.06859
7135.33404,-0.04589
7137.26251,-0.00018
7139.19098,0.06092
7141.11944,0.08210
7143.04791,0.03670
7144.97638,-0.02606
7146.90485,-0.07792
7148.83332,-0.04979
7150.76179,0.06999
7152.69026,0.20623
7154.61873,0.23400
7156.54719,0.10804
7158.47566,-0.01657
7160.40413,-0.06621
7162.33260,-0.08103
7164.26107,0.00084
7166.18954,0.20260
7168.11801,0.31060
7170.04647,0.17306
7171.97494,-0.05802
7173.90341,-0.05585
7175.83188,0.23743
7177.76035,0.42782
7179.68882,0.31915
7181.61729,0.10669
7183.54576,-0.09504
7185.47422,-0.10228
7187.40269,0.04930
7189.33116,0.11396
7191.25963,0.05507
7193.18810,-0.00194
7195.11657,-0.02009
7197.04504,-0.02497
7198.97350,-0.04364
7200.90197,-0.03162
7202.83044,0.01453
7204.75891,-0.03609
7206.68738,-0.12291
7208.61585,-0.07104
7210.54432,0.05914
7212.47279,0.13940
7214.40125,0.06957
7216.32972,-0.02902
7218.25819,0.04445
7220.18666,0.06230
7222.11513,-0.01782
7224.04360,-0.01887
7225.97207,0.10896
7227.90053,0.29620
7229.82900,0.37598
7231.75747,0.25890
7233.68594,0.10191
7235.61441,0.03188
7237.54288,0.08464
7239.47135,0.29266
7241.39982,0.51572
7243.32828,0.49657
7245.25675,0.33825
7247.18522,0.28690
7249.11369,0.29403
7251.04216,0.27394
7252.97063,0.25102
7254.89910,0.29496
7256.82756,0.37020
7258.75603,0.44427
7260.68450,0.43292
7262.61297,0.31281
7264.54144,0.14889
7266.46991,0.01146
7268.39838,-0.01934
7270.32685,-0.00959
7272.25531,-0.03890
7274.18378,-0.13744
7276.11225,-0.24154
7278.04072,-0.26148
7279.96919,-0.16701
7281.89766,-0.02178
7283.82613,0.06907
7285.75459,0.17637
7287.68306,0.16835
7289.61153,0.01443
7291.54000,0.00915
7293.46847,0.10595
7295.39694,0.04562
7297.32541,0.02678
7299.25387,0.20253
7301.18234,0.40890
7303.11081,0.40453
7305.03928,0.06044
7306.96775,-0.36311
7308.89622,-0.32669
7310.82469,0.08120
7312.75316,0.24740
7314.68162,0.12509
7316.61009,0.04466
7318.53856,0.08427
7320.46703,0.08211
7322.39550,0.06853
7324.32397,0.13894
7326.25244,0.25391
7328.18090,0.23495
7330.10937,0.03962
7332.03784,0.00046
7333.96631,0.17319
7335.89478,0.29737
7337.82325,0.25980
7339.75172,0.12564
7341.68019,0.08346
7343.60865,0.14140
7345.53712,0.19482
7347.46559,0.12336
7349.39406,-0.03639
7351.32253,-0.06219
7353.25100,0.03770
7355.17947,0.12264
7357.10793,0.24492
7359.03640,0.42023
7360.96487,0.43687
7362.89334,0.32287
7364.82181,0.24783
7366.75028,0.20523
7368.67875,0.14855
7370.60722,0.12460
7372.53568,0.17749
7374.46415,0.31604
7376.39262,0.39691
7378.32109,0.23317
7380.24956,-0.00880
7382.17803,-0.10126
7384.10650,-0.06082
7386.03496,-0.02919
7387.96343,-0.05860
7389.89190,-0.07526
7391.82037,0.03576
7393.74884,0.13830
7395.67731,0.06475
7397.60578,-0.00304
7399.53425,0.02531
7401.46271,0.06870
7403.39118,0.08484
7405.31965,0.05490
7407.24812,0.09453
7409.17659,0.16055
7411.10506,0.19743
7413.03353,0.26636
7414.96199,0.25305
7416.89046,0.07977
7418.81893,-0.01682
7420.74740,0.11228
7422.67587,0.16281
7424.60434,0.05765
7426.53281,-0.04773
7428.46128,-0.07019
7430.38974,-0.03671
7432.31821,0.05548
7434.24668,0.21412
7436.17515,0.27846
7438.10362,0.17494
7440.03209,0.00283
7441.96056,-0.20353
7443.88902,-0.38655
7445.81749,-0.41674
7447.74596,-0.28374
7449.67443,-0.15190
7451.60290,-0.10238
7453.53137,-0.00165
7455.45984,0.12562
7457.38831,0.24464
7459.31677,0.42288
7461.24524,0.56651
7463.17371,0.46741
7465.10218,0.20344
7467.03065,0.04202
7468.95912,0.07929
7470.88759,0.19999
7472.81605,0.23737
7474.74452,0.19160
7476.67299,0.19966
7478.60146,0.21792
7480.52993,0.12543
7482.45840,0.09135
7484.38687,0.22845
7486.31533,0.33694
7488.24380,0.29783
7490.17227,0.23193
7492.10074,0.21099
7494.02921,0.14042
7495.95768,0.07343
7497.88615,0.08767
