399.19301,0.99128
401.12148,0.08971
403.04995,-0.09577
404.97842,-0.04413
406.90689,0.06746
408.83536,0.05139
410.76382,-0.07424
412.69229,-0.17334
414.62076,-0.14349
416.54923,-0.01354
418.47770,0.12693
420.40617,0.03164
422.33464,-0.13460
424.26311,-0.10190
426.19157,0.06435
428.12004,0.19895
430.04851,0.23291
431.97698,0.17727
433.90545,0.11763
435.83392,0.06323
437.76239,0.07327
439.69085,0.15417
441.61932,0.13343
443.54779,0.01668
445.47626,0.04039
447.40473,0.15576
449.33320,0.21751
451.26167,0.23129
453.19013,0.21588
455.11860,0.15870
457.04707,0.09611
458.97554,0.07416
460.90401,0.07928
462.83248,0.07988
464.76095,0.05364
466.68942,0.00155
468.61788,-0.00507
470.54635,0.09645
472.47482,0.23040
474.40329,0.20743
476.33176,0.14425
478.26023,0.16886
480.18870,0.21012
482.11716,0.23138
484.04563,0.19148
485.97410,0.11102
487.90257,0.08226
489.83104,0.11234
491.75951,0.12878
493.68798,0.10266
495.61645,0.08591
497.54491,0.09932
499.47338,0.11094
501.40185,0.11636
503.33032,0.10212
505.25879,0.06138
507.18726,0.03040
509.11573,0.01798
511.04419,0.02001
512.97266,0.06307
514.90113,0.11522
516.82960,0.13480
518.75807,0.13512
520.68654,0.13470
522.61501,0.13348
524.54348,0.12230
526.47194,0.11149
528.40041,0.11449
530.32888,0.15057
532.25735,0.19444
534.18582,0.17226
536.11429,0.09089
538.04276,0.05398
539.97122,0.07027
541.89969,0.07784
543.82816,0.08599
545.75663,0.09447
547.68510,0.07907
549.61357,0.18420
551.54204,0.81747
553.47051,1.53718
555.39897,1.27797
557.32744,0.47635
559.25591,0.15690
561.18438,0.13819
563.11285,0.11659
565.04132,0.12444
566.96979,0.15440
568.89825,0.16937
570.82672,0.15188
572.75519,0.13349
574.68366,0.13990
576.61213,0.15013
578.54060,0.12873
580.46907,0.10825
582.39754,0.11661
584.32600,0.12778
586.25447,0.12634
588.18294,0.11354
590.11141,0.09790
592.03988,0.09631
593.96835,0.10998
595.89682,0.11077
597.82528,0.09679
599.75375,0.08305
601.68222,0.07485
603.61069,0.07962
605.53916,0.09746
607.46763,0.12469
609.39610,0.14860
611.32456,0.14154
613.25303,0.10838
615.18150,0.09183
617.10997,0.09878
619.03844,0.10729
620.96691,0.11141
622.89538,0.11303
624.82385,0.11664
626.75231,0.11885
628.68078,0.11427
630.60925,0.11413
632.53772,0.12366
634.46619,0.14199
636.39466,0.16820
638.32313,0.17529
640.25159,0.15197
642.18006,0.13235
644.10853,0.13463
646.03700,0.13304
647.96547,0.11204
649.89394,0.10290
651.82241,0.12521
653.75088,0.14315
655.67934,0.13002
657.60781,0.12180
659.53628,0.13402
661.46475,0.13337
663.39322,0.12381
665.32169,0.12437
667.25016,0.13778
669.17862,0.15493
671.10709,0.16100
673.03556,0.16169
674.96403,0.14876
676.89250,0.12056
678.82097,0.09633
680.74944,0.09466
682.67791,0.11210
684.60637,0.12754
686.53484,0.13141
688.46331,0.13034
690.39178,0.13221
692.32025,0.13964
694.24872,0.14866
696.17719,0.15477
698.10565,0.15500
700.03412,0.15072
701.96259,0.14457
703.89106,0.13480
705.81953,0.12222
707.74800,0.11644
709.67647,0.12839
711.60494,0.14912
713.53340,0.15823
715.46187,0.15642
717.39034,0.15525
719.31881,0.15093
721.24728,0.14765
723.17575,0.14874
725.10422,0.14152
727.03268,0.13390
728.96115,0.13061
730.88962,0.13003
732.81809,0.13871
734.74656,0.14584
736.67503,0.14933
738.60350,0.15488
740.53197,0.15410
742.46043,0.14710
744.38890,0.14146
746.31737,0.13850
748.24584,0.14142
750.17431,0.14860
752.10278,0.14889
754.03125,0.14304
755.95971,0.13561
757.88818,0.12679
759.81665,0.12384
761.74512,0.12763
763.67359,0.13625
765.60206,0.14936
767.53053,0.15744
769.45900,0.15315
771.38746,0.13783
773.31593,0.12471
775.24440,0.12433
777.17287,0.12778
779.10134,0.13009
781.02981,0.13340
782.95828,0.13596
784.88674,0.13537
786.81521,0.13422
788.74368,0.14431
790.67215,0.15945
792.60062,0.15466
794.52909,0.13407
796.45756,0.12645
798.38602,0.13220
800.31449,0.13279
802.24296,0.12482
804.17143,0.12048
806.09990,0.12637
808.02837,0.13122
809.95684,0.12908
811.88531,0.13182
813.81377,0.13746
815.74224,0.13702
817.67071,0.14071
819.59918,0.14402
821.52765,0.13395
823.45612,0.12172
825.38459,0.11979
827.31305,0.12809
829.24152,0.13533
831.16999,0.13484
833.09846,0.13914
835.02693,0.14953
836.95540,0.14976
838.88387,0.14298
840.81234,0.14376
842.74080,0.14548
844.66927,0.13683
846.59774,0.12884
848.52621,0.13054
850.45468,0.13334
852.38315,0.13068
854.31162,0.12827
856.24008,0.13517
858.16855,0.14672
860.09702,0.15358
862.02549,0.15663
863.95396,0.15585
865.88243,0.15011
867.81090,0.14934
869.73937,0.15573
871.66783,0.15658
873.59630,0.15075
875.52477,0.14253
877.45324,0.13526
879.38171,0.13658
881.31018,0.13840
883.23865,0.13119
885.16711,0.12647
887.09558,0.12908
889.02405,0.13702
890.95252,0.15436
892.88099,0.17016
894.80946,0.16950
896.73793,0.15343
898.66640,0.13748
900.59486,0.13437
902.52333,0.13696
904.45180,0.13599
906.38027,0.13551
908.30874,0.13772
910.23721,0.13466
912.16568,0.12859
914.09414,0.13231
916.02261,0.14660
917.95108,0.15811
919.87955,0.15889
921.80802,0.15772
923.73649,0.15435
925.66496,0.14624
927.59343,0.14498
929.52189,0.14688
931.45036,0.14465
933.37883,0.14751
935.30730,0.15414
937.23577,0.14993
939.16424,0.13707
941.09271,0.13465
943.02117,0.14722
944.94964,0.15759
946.87811,0.14894
948.80658,0.12919
950.73505,0.12580
952.66352,0.13990
954.59199,0.14564
956.52045,0.14045
958.44892,0.14101
960.37739,0.14700
962.30586,0.14889
964.23433,0.14523
966.16280,0.13887
968.09127,0.13383
970.01974,0.13594
971.94820,0.14374
973.87667,0.14734
975.80514,0.14121
977.73361,0.13334
979.66208,0.13356
981.59055,0.13947
983.51902,0.14608
985.44748,0.15018
987.37595,0.14984
989.30442,0.14803
991.23289,0.15066
993.16136,0.15966
995.08983,0.16471
997.01830,0.16152
998.94677,0.15956
1000.87523,0.15663
1002.80370,0.14716
1004.73217,0.14179
1006.66064,0.14494
1008.58911,0.14532
1010.51758,0.14461
1012.44605,0.15008
1014.37451,0.15400
1016.30298,0.15504
1018.23145,0.15881
1020.15992,0.15951
1022.08839,0.15249
1024.01686,0.14772
1025.94533,0.15991
1027.87380,0.18422
1029.80226,0.18928
1031.73073,0.16989
1033.65920,0.15701
1035.58767,0.15509
1037.51614,0.15415
1039.44461,0.15618
1041.37308,0.15737
1043.30154,0.16109
1045.23001,0.17183
1047.15848,0.17401
1049.08695,0.16026
1051.01542,0.14483
1052.94389,0.13999
1054.87236,0.14767
1056.80083,0.15647
1058.72929,0.15325
1060.65776,0.14359
1062.58623,0.14189
1064.51470,0.14979
1066.44317,0.15711
1068.37164,0.16380
1070.30011,0.17281
1072.22857,0.17685
1074.15704,0.17702
1076.08551,0.17838
1078.01398,0.17604
1079.94245,0.16767
1081.87092,0.15804
1083.79939,0.14896
1085.72786,0.14144
1087.65632,0.14262
1089.58479,0.15319
1091.51326,0.15707
1093.44173,0.15277
1095.37020,0.15756
1097.29867,0.16753
1099.22714,0.17133
1101.15560,0.17004
1103.08407,0.16324
1105.01254,0.14809
1106.94101,0.13272
1108.86948,0.13756
1110.79795,0.15821
1112.72642,0.17260
1114.65489,0.17574
1116.58335,0.16915
1118.51182,0.16045
1120.44029,0.15773
1122.36876,0.15902
1124.29723,0.16116
1126.22570,0.16031
1128.15417,0.15893
1130.08263,0.16161
1132.01110,0.16155
1133.93957,0.15512
1135.86804,0.14986
1137.79651,0.15495
1139.72498,0.16529
1141.65345,0.16577
1143.58191,0.16113
1145.51038,0.16310
1147.43885,0.16588
1149.36732,0.16505
1151.29579,0.16300
1153.22426,0.16057
1155.15273,0.16338
1157.08120,0.17070
1159.00966,0.17185
1160.93813,0.16745
1162.86660,0.16498
1164.79507,0.16284
1166.72354,0.15666
1168.65201,0.15304
1170.58048,0.16058
1172.50894,0.16964
1174.43741,0.17135
1176.36588,0.17359
1178.29435,0.17654
1180.22282,0.17320
1182.15129,0.16620
1184.07976,0.16217
1186.00823,0.16368
1187.93669,0.16453
1189.86516,0.15959
1191.79363,0.15384
1193.72210,0.15295
1195.65057,0.15617
1197.57904,0.15870
1199.50751,0.16099
1201.43597,0.16501
1203.36444,0.16817
1205.29291,0.17006
1207.22138,0.16983
1209.14985,0.16676
1211.07832,0.16474
1213.00679,0.16519
1214.93526,0.16500
1216.86372,0.16462
1218.79219,0.16650
1220.72066,0.16803
1222.64913,0.16723
1224.57760,0.16676
1226.50607,0.16703
1228.43454,0.16633
1230.36300,0.16596
1232.29147,0.16538
1234.21994,0.16263
1236.14841,0.16238
1238.07688,0.16693
1240.00535,0.16964
1241.93382,0.16613
1243.86229,0.16034
1245.79075,0.15733
1247.71922,0.15755
1249.64769,0.16073
1251.57616,0.16435
1253.50463,0.16484
1255.43310,0.16442
1257.36157,0.16213
1259.29003,0.15434
1261.21850,0.14833
1263.14697,0.15091
1265.07544,0.15739
1267.00391,0.16308
1268.93238,0.16741
1270.86085,0.16961
1272.78932,0.16750
1274.71778,0.16296
1276.64625,0.16465
1278.57472,0.17201
1280.50319,0.17270
1282.43166,0.16662
1284.36013,0.16353
1286.28860,0.16296
1288.21706,0.16323
1290.14553,0.16432
1292.07400,0.16154
1294.00247,0.15735
1295.93094,0.15784
1297.85941,0.15963
1299.78788,0.15240
1301.71634,0.13150
1303.64481,0.11056
1305.57328,0.11398
1307.50175,0.14177
1309.43022,0.16424
1311.35869,0.17135
1313.28716,0.17478
1315.21563,0.17393
1317.14409,0.16926
1319.07256,0.16671
1321.00103,0.16557
1322.92950,0.16551
1324.85797,0.16455
1326.78644,0.16291
1328.71491,0.16362
1330.64337,0.16014
1332.57184,0.15666
1334.50031,0.16253
1336.42878,0.16896
1338.35725,0.17029
1340.28572,0.16499
1342.21419,0.15559
1344.14266,0.14945
1346.07112,0.14753
1347.99959,0.15264
1349.92806,0.15961
1351.85653,0.16164
1353.78500,0.16145
1355.71347,0.16017
1357.64194,0.16129
1359.57040,0.16530
1361.49887,0.16729
1363.42734,0.16514
1365.35581,0.16255
1367.28428,0.16492
1369.21275,0.16963
1371.14122,0.17271
1373.06969,0.17682
1374.99815,0.18066
1376.92662,0.18078
1378.85509,0.17871
1380.78356,0.17635
1382.71203,0.17695
1384.64050,0.18055
1386.56897,0.18261
1388.49743,0.18157
1390.42590,0.18225
1392.35437,0.18542
1394.28284,0.18784
1396.21131,0.19058
1398.13978,0.19125
1400.06825,0.18466
1401.99672,0.17876
1403.92518,0.17967
1405.85365,0.18167
1407.78212,0.17998
1409.71059,0.17919
1411.63906,0.18044
1413.56753,0.18037
1415.49600,0.18124
1417.42446,0.18582
1419.35293,0.19028
1421.28140,0.19191
1423.20987,0.19170
1425.13834,0.18701
1427.06681,0.18302
1428.99528,0.18640
1430.92375,0.19057
1432.85221,0.18983
1434.78068,0.19049
1436.70915,0.19417
1438.63762,0.19391
1440.56609,0.18966
1442.49456,0.18548
1444.42303,0.18489
1446.35149,0.18814
1448.27996,0.18881
1450.20843,0.18575
1452.13690,0.18750
1454.06537,0.19627
1455.99384,0.20952
1457.92231,0.21436
1459.85077,0.20390
1461.77924,0.19517
1463.70771,0.18880
1465.63618,0.18445
1467.56465,0.18771
1469.49312,0.19651
1471.42159,0.20707
1473.35006,0.21359
1475.27852,0.20640
1477.20699,0.19417
1479.13546,0.18984
1481.06393,0.19042
1482.99240,0.18777
1484.92087,0.18415
1486.84934,0.18476
1488.77780,0.18954
1490.70627,0.19151
1492.63474,0.19133
1494.56321,0.19590
1496.49168,0.20146
1498.42015,0.19769
1500.34862,0.18983
1502.27709,0.18669
1504.20555,0.19309
1506.13402,0.21311
1508.06249,0.22090
1509.99096,0.21023
1511.91943,0.20460
1513.84790,0.20728
1515.77637,0.21780
1517.70483,0.22550
1519.63330,0.22311
1521.56177,0.21201
1523.49024,0.19826
1525.41871,0.19298
1527.34718,0.19353
1529.27565,0.19705
1531.20412,0.20291
1533.13258,0.20632
1535.06105,0.20554
1536.98952,0.21050
1538.91799,0.22667
1540.84646,0.24022
1542.77493,0.23107
1544.70340,0.21428
1546.63186,0.19981
1548.56033,0.19383
1550.48880,0.19371
1552.41727,0.19625
1554.34574,0.20300
1556.27421,0.21353
1558.20268,0.22475
1560.13115,0.22085
1562.05961,0.21132
1563.98808,0.20490
1565.91655,0.20034
1567.84502,0.19998
1569.77349,0.19884
1571.70196,0.19322
1573.63043,0.19172
1575.55889,0.19600
1577.48736,0.19676
1579.41583,0.19478
1581.34430,0.19556
1583.27277,0.19312
1585.20124,0.18383
1587.12971,0.17629
1589.05818,0.17866
1590.98664,0.18387
1592.91511,0.18345
1594.84358,0.18176
1596.77205,0.17964
1598.70052,0.17465
1600.62899,0.17198
1602.55746,0.17528
1604.48592,0.18081
1606.41439,0.18385
1608.34286,0.18397
1610.27133,0.18351
1612.19980,0.18530
1614.12827,0.19037
1616.05674,0.19599
1617.98521,0.19770
1619.91367,0.19883
1621.84214,0.20025
1623.77061,0.19693
1625.69908,0.19243
1627.62755,0.19127
1629.55602,0.19018
1631.48449,0.19247
1633.41295,0.20359
1635.34142,0.21704
1637.26989,0.20985
1639.19836,0.19657
1641.12683,0.19281
1643.05530,0.19682
1644.98377,0.20709
1646.91223,0.21654
1648.84070,0.21429
1650.76917,0.21551
1652.69764,0.22518
1654.62611,0.21613
1656.55458,0.20070
1658.48305,0.19464
1660.41152,0.19510
1662.33998,0.19971
1664.26845,0.20292
1666.19692,0.20362
1668.12539,0.20794
1670.05386,0.21296
1671.98233,0.21133
1673.91080,0.20875
1675.83926,0.20397
1677.76773,0.19888
1679.69620,0.19976
1681.62467,0.20726
1683.55314,0.21818
1685.48161,0.21665
1687.41008,0.20885
1689.33855,0.20553
1691.26701,0.20396
1693.19548,0.20569
1695.12395,0.21233
1697.05242,0.22066
1698.98089,0.22762
1700.90936,0.22405
1702.83783,0.21412
1704.76629,0.20847
1706.69476,0.20186
1708.62323,0.19345
1710.55170,0.18920
1712.48017,0.19338
1714.40864,0.20615
1716.33711,0.21886
1718.26558,0.21237
1720.19404,0.19678
1722.12251,0.18911
1724.05098,0.18665
1725.97945,0.18591
1727.90792,0.18852
1729.83639,0.19468
1731.76486,0.20173
1733.69332,0.20606
1735.62179,0.20294
1737.55026,0.19963
1739.47873,0.19942
1741.40720,0.20051
1743.33567,0.20215
1745.26414,0.20334
1747.19261,0.20376
1749.12107,0.20271
1751.04954,0.19696
1752.97801,0.19068
1754.90648,0.18990
1756.83495,0.19235
1758.76342,0.19293
1760.69189,0.19166
1762.62035,0.18974
1764.54882,0.18883
1766.47729,0.19074
1768.40576,0.19664
1770.33423,0.20724
1772.26270,0.21250
1774.19117,0.20353
1776.11964,0.19472
1778.04810,0.19189
1779.97657,0.19157
1781.90504,0.19069
1783.83351,0.18998
1785.76198,0.19159
1787.69045,0.19492
1789.61892,0.19958
1791.54738,0.20480
1793.47585,0.20377
1795.40432,0.19793
1797.33279,0.19614
1799.26126,0.19790
1801.18973,0.19559
1803.11820,0.19078
1805.04666,0.19005
1806.97513,0.19191
1808.90360,0.19521
1810.83207,0.19787
1812.76054,0.19498
1814.68901,0.18907
1816.61748,0.18584
1818.54595,0.18723
1820.47441,0.19117
1822.40288,0.19508
1824.33135,0.19577
1826.25982,0.19155
1828.18829,0.18800
1830.11676,0.18852
1832.04523,0.19047
1833.97369,0.19336
1835.90216,0.19653
1837.83063,0.19672
1839.75910,0.19597
1841.68757,0.19828
1843.61604,0.20168
1845.54451,0.19898
1847.47298,0.19152
1849.40144,0.18626
1851.32991,0.18469
1853.25838,0.18486
1855.18685,0.18566
1857.11532,0.18843
1859.04379,0.19210
1860.97226,0.19275
1862.90072,0.19142
1864.82919,0.19292
1866.75766,0.19788
1868.68613,0.20050
1870.61460,0.19568
1872.54307,0.18834
1874.47154,0.18399
1876.40001,0.18324
1878.32847,0.18394
1880.25694,0.18467
1882.18541,0.18561
1884.11388,0.18751
1886.04235,0.18919
1887.97082,0.19042
1889.89929,0.19140
1891.82775,0.19027
1893.75622,0.18874
1895.68469,0.18879
1897.61316,0.18903
1899.54163,0.18832
1901.47010,0.18729
1903.39857,0.18730
1905.32704,0.18840
1907.25550,0.18941
1909.18397,0.18879
1911.11244,0.18675
1913.04091,0.18546
1914.96938,0.18633
1916.89785,0.19034
1918.82632,0.19413
1920.75478,0.19393
1922.68325,0.19178
1924.61172,0.18922
1926.54019,0.18784
1928.46866,0.18813
1930.39713,0.18779
1932.32560,0.18699
1934.25407,0.18876
1936.18253,0.19260
1938.11100,0.19492
1940.03947,0.19466
1941.96794,0.19228
1943.89641,0.18961
1945.82488,0.18891
1947.75335,0.18811
1949.68181,0.18562
1951.61028,0.18477
1953.53875,0.18838
1955.46722,0.19285
1957.39569,0.19355
1959.32416,0.19162
1961.25263,0.19027
1963.18110,0.19043
1965.10956,0.19124
1967.03803,0.19091
1968.96650,0.18846
1970.89497,0.18643
1972.82344,0.18675
1974.75191,0.18662
1976.68038,0.18416
1978.60884,0.18342
1980.53731,0.18728
1982.46578,0.19104
1984.39425,0.19145
1986.32272,0.19148
1988.25119,0.19241
1990.17966,0.19398
1992.10812,0.19627
1994.03659,0.19690
1995.96506,0.19485
1997.89353,0.19203
1999.82200,0.18976
2001.75047,0.18895
2003.67894,0.18867
2005.60741,0.18740
2007.53587,0.18729
2009.46434,0.18874
2011.39281,0.18949
2013.32128,0.18989
2015.24975,0.19064
2017.17822,0.19105
2019.10669,0.19072
2021.03515,0.18889
2022.96362,0.18645
2024.89209,0.18640
2026.82056,0.18842
2028.74903,0.19049
2030.67750,0.19157
2032.60597,0.19024
2034.53444,0.18874
2036.46290,0.18917
2038.39137,0.18799
2040.31984,0.18434
2042.24831,0.18231
2044.17678,0.18496
2046.10525,0.19038
2048.03372,0.19260
2049.96218,0.19149
2051.89065,0.19122
2053.81912,0.19056
2055.74759,0.18875
2057.67606,0.18648
2059.60453,0.18415
2061.53300,0.18519
2063.46147,0.18906
2065.38993,0.19104
2067.31840,0.19098
2069.24687,0.19070
2071.17534,0.18971
2073.10381,0.18854
2075.03228,0.18869
2076.96075,0.18983
2078.88921,0.19053
2080.81768,0.19027
2082.74615,0.18930
2084.67462,0.18750
2086.60309,0.18622
2088.53156,0.18772
2090.46003,0.19110
2092.38850,0.19312
2094.31696,0.19220
2096.24543,0.19004
2098.17390,0.18872
2100.10237,0.18759
2102.03084,0.18600
2103.95931,0.18661
2105.88778,0.19043
2107.81624,0.19340
2109.74471,0.19246
2111.67318,0.18949
2113.60165,0.18753
2115.53012,0.18687
2117.45859,0.18734
2119.38706,0.18813
2121.31553,0.18881
2123.24399,0.19132
2125.17246,0.19397
2127.10093,0.19383
2129.02940,0.19197
2130.95787,0.19041
2132.88634,0.18707
2134.81481,0.17681
2136.74327,0.16735
2138.67174,0.17260
2140.60021,0.18408
2142.52868,0.18826
2144.45715,0.19000
2146.38562,0.19188
2148.31409,0.18988
2150.24255,0.18669
2152.17102,0.18666
2154.09949,0.18884
2156.02796,0.19028
2157.95643,0.19064
2159.88490,0.19016
2161.81337,0.19125
2163.74184,0.19556
2165.67030,0.19802
2167.59877,0.19646
2169.52724,0.19343
2171.45571,0.19107
2173.38418,0.18987
2175.31265,0.18867
2177.24112,0.18909
2179.16958,0.19214
2181.09805,0.19388
2183.02652,0.19136
2184.95499,0.18699
2186.88346,0.18524
2188.81193,0.18744
2190.74040,0.19140
2192.66887,0.19431
2194.59733,0.19520
2196.52580,0.19501
2198.45427,0.19351
2200.38274,0.19083
2202.31121,0.18954
2204.23968,0.18975
2206.16815,0.18947
2208.09661,0.18945
2210.02508,0.19031
2211.95355,0.19063
2213.88202,0.19012
2215.81049,0.18987
2217.73896,0.19043
2219.66743,0.19061
2221.59590,0.19007
2223.52436,0.19037
2225.45283,0.19069
2227.38130,0.18954
2229.30977,0.18819
2231.23824,0.18753
2233.16671,0.18694
2235.09518,0.18698
2237.02364,0.18735
2238.95211,0.18639
2240.88058,0.18518
2242.80905,0.18527
2244.73752,0.18622
2246.66599,0.18871
2248.59446,0.19281
2250.52293,0.19557
2252.45139,0.19459
2254.37986,0.19067
2256.30833,0.18696
2258.23680,0.18600
2260.16527,0.18768
2262.09374,0.18993
2264.02221,0.19106
2265.95067,0.19078
2267.87914,0.18897
2269.80761,0.18673
2271.73608,0.18708
2273.66455,0.19056
2275.59302,0.19187
2277.52149,0.18851
2279.44996,0.18681
2281.37842,0.18894
2283.30689,0.19032
2285.23536,0.18977
2287.16383,0.18864
2289.09230,0.18742
2291.02077,0.18837
2292.94924,0.19478
2294.87770,0.20116
2296.80617,0.19815
2298.73464,0.18968
2300.66311,0.18516
2302.59158,0.18566
2304.52005,0.18866
2306.44852,0.19140
2308.37699,0.18914
2310.30545,0.18137
2312.23392,0.17608
2314.16239,0.17730
2316.09086,0.17993
2318.01933,0.18173
2319.94780,0.18405
2321.87627,0.18815
2323.80473,0.19552
2325.73320,0.19958
2327.66167,0.19450
2329.59014,0.18492
2331.51861,0.17471
2333.44708,0.17157
2335.37555,0.18184
2337.30401,0.19130
2339.23248,0.18860
2341.16095,0.18229
2343.08942,0.17842
2345.01789,0.18091
2346.94636,0.18636
2348.87483,0.18750
2350.80330,0.18880
2352.73176,0.19406
2354.66023,0.18796
2356.58870,0.16945
2358.51717,0.17716
2360.44564,0.19359
2362.37411,0.17989
2364.30258,0.16189
2366.23104,0.16524
2368.15951,0.18184
2370.08798,0.19252
2372.01645,0.19377
2373.94492,0.19294
2375.87339,0.19246
2377.80186,0.19188
2379.73033,0.19130
2381.65879,0.19014
2383.58726,0.18976
2385.51573,0.19225
2387.44420,0.19467
2389.37267,0.19423
2391.30114,0.19237
2393.22961,0.19044
2395.15807,0.18935
2397.08654,0.18997
2399.01501,0.19082
2400.94348,0.19028
2402.87195,0.19076
2404.80042,0.19401
2406.72889,0.19685
2408.65736,0.19624
2410.58582,0.19381
2412.51429,0.19139
2414.44276,0.18865
2416.37123,0.18754
2418.29970,0.18861
2420.22817,0.18935
2422.15664,0.18932
2424.08510,0.18916
2426.01357,0.18897
2427.94204,0.18968
2429.87051,0.19183
2431.79898,0.19326
2433.72745,0.19231
2435.65592,0.19107
2437.58439,0.18961
2439.51285,0.18835
2441.44132,0.19060
2443.36979,0.19341
2445.29826,0.19334
2447.22673,0.19243
2449.15520,0.19254
2451.08367,0.19401
2453.01213,0.19470
2454.94060,0.19381
2456.86907,0.19254
2458.79754,0.19095
2460.72601,0.19029
2462.65448,0.19055
2464.58295,0.18939
2466.51142,0.18847
2468.43988,0.19054
2470.36835,0.19343
2472.29682,0.19510
2474.22529,0.19477
2476.15376,0.19354
2478.08223,0.19462
2480.01070,0.19698
2481.93916,0.19724
2483.86763,0.19487
2485.79610,0.19237
2487.72457,0.19234
2489.65304,0.19284
2491.58151,0.19199
2493.50998,0.19177
2495.43844,0.19232
2497.36691,0.19309
2499.29538,0.19375
2501.22385,0.19235
2503.15232,0.18993
2505.08079,0.18928
2507.00926,0.18987
2508.93773,0.18993
2510.86619,0.19026
2512.79466,0.19149
2514.72313,0.19264
2516.65160,0.19248
2518.58007,0.19178
2520.50854,0.19275
2522.43701,0.19263
2524.36547,0.19107
2526.29394,0.19318
2528.22241,0.19735
2530.15088,0.19794
2532.07935,0.19543
2534.00782,0.19445
2535.93629,0.19626
2537.86476,0.19797
2539.79322,0.19645
2541.72169,0.19290
2543.65016,0.19181
2545.57863,0.19392
2547.50710,0.19519
2549.43557,0.19261
2551.36404,0.18979
2553.29250,0.19053
2555.22097,0.19165
2557.14944,0.19048
2559.07791,0.18995
2561.00638,0.19232
2562.93485,0.19498
2564.86332,0.19507
2566.79179,0.19294
2568.72025,0.19039
2570.64872,0.18933
2572.57719,0.19221
2574.50566,0.19878
2576.43413,0.20199
2578.36260,0.19806
2580.29107,0.19360
2582.21953,0.19187
2584.14800,0.18900
2586.07647,0.18577
2588.00494,0.18657
2589.93341,0.19042
2591.86188,0.19217
2593.79035,0.19072
2595.71882,0.18988
2597.64728,0.19077
2599.57575,0.19211
2601.50422,0.19376
2603.43269,0.19530
2605.36116,0.19684
2607.28963,0.19881
2609.21810,0.20200
2611.14656,0.20473
2613.07503,0.20171
2615.00350,0.19569
2616.93197,0.19330
2618.86044,0.19279
2620.78891,0.19197
2622.71738,0.19214
2624.64585,0.19368
2626.57431,0.19512
2628.50278,0.19527
2630.43125,0.19662
2632.35972,0.20040
2634.28819,0.20151
2636.21666,0.19755
2638.14513,0.19519
2640.07359,0.19758
2642.00206,0.19923
2643.93053,0.19866
2645.85900,0.19851
2647.78747,0.19821
2649.71594,0.19689
2651.64441,0.19518
2653.57288,0.19381
2655.50134,0.19434
2657.42981,0.19605
2659.35828,0.19810
2661.28675,0.20249
2663.21522,0.20512
2665.14369,0.20189
2667.07216,0.19856
2669.00062,0.19843
2670.92909,0.19720
2672.85756,0.19401
2674.78603,0.19316
2676.71450,0.19255
2678.64297,0.18879
2680.57144,0.18833
2682.49990,0.19292
2684.42837,0.19494
2686.35684,0.19359
2688.28531,0.19359
2690.21378,0.19499
2692.14225,0.19669
2694.07072,0.19790
2695.99919,0.19720
2697.92765,0.19703
2699.85612,0.19804
2701.78459,0.19780
2703.71306,0.19795
2705.64153,0.19897
2707.57000,0.19929
2709.49847,0.19983
2711.42693,0.20151
2713.35540,0.20229
2715.28387,0.19985
2717.21234,0.19789
2719.14081,0.20015
2721.06928,0.20218
2722.99775,0.19906
2724.92622,0.19316
2726.85468,0.19053
2728.78315,0.19342
2730.71162,0.19810
2732.64009,0.20104
2734.56856,0.20243
2736.49703,0.20167
2738.42550,0.19927
2740.35396,0.19862
2742.28243,0.19978
2744.21090,0.20111
2746.13937,0.20224
2748.06784,0.20369
2749.99631,0.20592
2751.92478,0.20750
2753.85325,0.20759
2755.78171,0.20657
2757.71018,0.20557
2759.63865,0.20520
2761.56712,0.20382
2763.49559,0.20273
2765.42406,0.20381
2767.35253,0.20376
2769.28099,0.20210
2771.20946,0.20294
2773.13793,0.20507
2775.06640,0.20463
2776.99487,0.20259
2778.92334,0.20186
2780.85181,0.20336
2782.78028,0.20449
2784.70874,0.20295
2786.63721,0.20220
2788.56568,0.20400
2790.49415,0.20413
2792.42262,0.20126
2794.35109,0.19825
2796.27956,0.19791
2798.20802,0.20166
2800.13649,0.20638
2802.06496,0.20652
2803.99343,0.20292
2805.92190,0.20177
2807.85037,0.20416
2809.77884,0.20678
2811.70731,0.20918
2813.63577,0.21077
2815.56424,0.20938
2817.49271,0.20713
2819.42118,0.20779
2821.34965,0.21011
2823.27812,0.21048
2825.20659,0.20915
2827.13505,0.20765
2829.06352,0.20477
2830.99199,0.20192
2832.92046,0.20199
2834.84893,0.20427
2836.77740,0.20727
2838.70587,0.20848
2840.63433,0.20671
2842.56280,0.20510
2844.49127,0.20599
2846.41974,0.20770
2848.34821,0.20811
2850.27668,0.20792
2852.20515,0.20809
2854.13362,0.20744
2856.06208,0.20721
2857.99055,0.20935
2859.91902,0.20989
2861.84749,0.20729
2863.77596,0.20617
2865.70443,0.20663
2867.63290,0.20698
2869.56136,0.20778
2871.48983,0.20764
2873.41830,0.20650
2875.34677,0.20578
2877.27524,0.20562
2879.20371,0.20670
2881.13218,0.20773
2883.06065,0.20718
2884.98911,0.20583
2886.91758,0.20338
2888.84605,0.19937
2890.77452,0.19641
2892.70299,0.19770
2894.63146,0.20004
2896.55993,0.19850
2898.48839,0.19629
2900.41686,0.19869
2902.34533,0.20461
2904.27380,0.20768
2906.20227,0.20551
2908.13074,0.20062
2910.05921,0.19693
2911.98768,0.19997
2913.91614,0.20347
2915.84461,0.19831
2917.77308,0.19439
2919.70155,0.19960
2921.63002,0.20649
2923.55849,0.20729
2925.48696,0.20477
2927.41542,0.20911
2929.34389,0.21392
2931.27236,0.20702
2933.20083,0.19707
2935.12930,0.18864
2937.05777,0.17951
2938.98624,0.18128
2940.91471,0.19408
2942.84317,0.20267
2944.77164,0.19849
2946.70011,0.18544
2948.62858,0.18186
2950.55705,0.19202
2952.48552,0.19886
2954.41399,0.19554
2956.34245,0.18394
2958.27092,0.17497
2960.19939,0.18160
2962.12786,0.19534
2964.05633,0.20157
2965.98480,0.19758
2967.91327,0.19213
2969.84174,0.19579
2971.77020,0.20321
2973.69867,0.20543
2975.62714,0.20169
2977.55561,0.19307
2979.48408,0.18999
2981.41255,0.19964
2983.34102,0.21097
2985.26948,0.21228
2987.19795,0.20368
2989.12642,0.19662
2991.05489,0.19971
2992.98336,0.20615
2994.91183,0.20825
2996.84030,0.20694
2998.76877,0.20727
3000.69723,0.21123
3002.62570,0.21315
3004.55417,0.20988
3006.48264,0.20467
3008.41111,0.19807
3010.33958,0.18512
3012.26805,0.15939
3014.19651,0.11969
3016.12498,0.08707
3018.05345,0.09930
3019.98192,0.14995
3021.91039,0.18919
3023.83886,0.20168
3025.76733,0.20471
3027.69579,0.20558
3029.62426,0.20610
3031.55273,0.20759
3033.48120,0.20857
3035.40967,0.20911
3037.33814,0.20809
3039.26661,0.20840
3041.19508,0.21320
3043.12354,0.21595
3045.05201,0.21115
3046.98048,0.20234
3048.90895,0.20143
3050.83742,0.20955
3052.76589,0.21195
3054.69436,0.20344
3056.62282,0.19314
3058.55129,0.19388
3060.47976,0.20185
3062.40823,0.20187
3064.33670,0.19213
3066.26517,0.18284
3068.19364,0.18809
3070.12211,0.20536
3072.05057,0.21513
3073.97904,0.20690
3075.90751,0.19410
3077.83598,0.19769
3079.76445,0.21029
3081.69292,0.21198
3083.62139,0.19776
3085.54985,0.18254
3087.47832,0.18827
3089.40679,0.20441
3091.33526,0.20490
3093.26373,0.19136
3095.19220,0.18729
3097.12067,0.20051
3099.04914,0.21165
3100.97760,0.20798
3102.90607,0.19497
3104.83454,0.18998
3106.76301,0.19863
3108.69148,0.20504
3110.61995,0.20043
3112.54842,0.19273
3114.47688,0.19605
3116.40535,0.20720
3118.33382,0.20927
3120.26229,0.19940
3122.19076,0.19186
3124.11923,0.19795
3126.04770,0.20716
3127.97617,0.20817
3129.90463,0.20299
3131.83310,0.19925
3133.76157,0.20301
3135.69004,0.20917
3137.61851,0.21017
3139.54698,0.20709
3141.47545,0.20728
3143.40391,0.21199
3145.33238,0.21354
3147.26085,0.20954
3149.18932,0.20818
3151.11779,0.21224
3153.04626,0.21536
3154.97473,0.21661
3156.90320,0.21529
3158.83166,0.20964
3160.76013,0.20466
3162.68860,0.20666
3164.61707,0.21535
3166.54554,0.22295
3168.47401,0.22400
3170.40248,0.21990
3172.33094,0.21477
3174.25941,0.21239
3176.18788,0.21332
3178.11635,0.21621
3180.04482,0.22027
3181.97329,0.22210
3183.90176,0.21943
3185.83022,0.21621
3187.75869,0.21504
3189.68716,0.21326
3191.61563,0.21131
3193.54410,0.21498
3195.47257,0.22110
3197.40104,0.22056
3199.32951,0.21571
3201.25797,0.21331
3203.18644,0.21450
3205.11491,0.21587
3207.04338,0.21586
3208.97185,0.21640
3210.90032,0.21815
3212.82879,0.21897
3214.75725,0.21672
3216.68572,0.21556
3218.61419,0.21804
3220.54266,0.21988
3222.47113,0.21949
3224.39960,0.21721
3226.32807,0.21273
3228.25654,0.20831
3230.18500,0.20823
3232.11347,0.21231
3234.04194,0.21577
3235.97041,0.21611
3237.89888,0.21373
3239.82735,0.21082
3241.75582,0.21091
3243.68428,0.21585
3245.61275,0.22188
3247.54122,0.22267
3249.46969,0.21830
3251.39816,0.21535
3253.32663,0.21593
3255.25510,0.21567
3257.18357,0.21464
3259.11203,0.21461
3261.04050,0.21492
3262.96897,0.21562
3264.89744,0.21517
3266.82591,0.21470
3268.75438,0.21770
3270.68285,0.22308
3272.61131,0.22431
3274.53978,0.21584
3276.46825,0.20238
3278.39672,0.19313
3280.32519,0.19236
3282.25366,0.19924
3284.18213,0.20752
3286.11060,0.21022
3288.03906,0.20902
3289.96753,0.21075
3291.89600,0.21460
3293.82447,0.21629
3295.75294,0.21658
3297.68141,0.21448
3299.60988,0.20908
3301.53834,0.20537
3303.46681,0.20629
3305.39528,0.20973
3307.32375,0.21183
3309.25222,0.21063
3311.18069,0.21026
3313.10916,0.21364
3315.03763,0.21673
3316.96609,0.21722
3318.89456,0.21684
3320.82303,0.21577
3322.75150,0.21313
3324.67997,0.21101
3326.60844,0.21179
3328.53691,0.21378
3330.46537,0.21542
3332.39384,0.21887
3334.32231,0.22361
3336.25078,0.22304
3338.17925,0.21565
3340.10772,0.21061
3342.03619,0.21158
3343.96466,0.21129
3345.89312,0.20803
3347.82159,0.20901
3349.75006,0.21504
3351.67853,0.21823
3353.60700,0.21659
3355.53547,0.21399
3357.46394,0.21203
3359.39240,0.21184
3361.32087,0.21326
3363.24934,0.21543
3365.17781,0.21860
3367.10628,0.22045
3369.03475,0.21966
3370.96322,0.21743
3372.89168,0.21462
3374.82015,0.21429
3376.74862,0.21611
3378.67709,0.21676
3380.60556,0.21849
3382.53403,0.22058
3384.46250,0.22008
3386.39097,0.21999
3388.31943,0.21721
3390.24790,0.20958
3392.17637,0.20821
3394.10484,0.21572
3396.03331,0.21861
3397.96178,0.21174
3399.89025,0.20890
3401.81871,0.21477
3403.74718,0.21347
3405.67565,0.20408
3407.60412,0.20128
3409.53259,0.20557
3411.46106,0.20907
3413.38953,0.21156
3415.31800,0.21460
3417.24646,0.21411
3419.17493,0.21091
3421.10340,0.20969
3423.03187,0.20970
3424.96034,0.21181
3426.88881,0.21367
3428.81728,0.20971
3430.74574,0.20389
3432.67421,0.20037
3434.60268,0.19786
3436.53115,0.19864
3438.45962,0.20362
3440.38809,0.20946
3442.31656,0.21250
3444.24503,0.21023
3446.17349,0.20520
3448.10196,0.20221
3450.03043,0.19966
3451.95890,0.19340
3453.88737,0.18696
3455.81584,0.18585
3457.74431,0.18813
3459.67277,0.18999
3461.60124,0.19285
3463.52971,0.19740
3465.45818,0.19759
3467.38665,0.19291
3469.31512,0.19130
3471.24359,0.19466
3473.17206,0.19775
3475.10052,0.19719
3477.02899,0.19423
3478.95746,0.19090
3480.88593,0.18811
3482.81440,0.18817
3484.74287,0.19121
3486.67134,0.19237
3488.59980,0.19083
3490.52827,0.19224
3492.45674,0.19591
3494.38521,0.19528
3496.31368,0.19086
3498.24215,0.18894
3500.17062,0.19044
3502.09909,0.19086
3504.02755,0.18793
3505.95602,0.18383
3507.88449,0.18016
3509.81296,0.17706
3511.74143,0.17358
3513.66990,0.16912
3515.59837,0.16818
3517.52683,0.17205
3519.45530,0.17521
3521.38377,0.17658
3523.31224,0.17693
3525.24071,0.17649
3527.16918,0.17777
3529.09765,0.17718
3531.02611,0.17374
3532.95458,0.17562
3534.88305,0.18150
3536.81152,0.18127
3538.73999,0.17341
3540.66846,0.16604
3542.59693,0.16385
3544.52540,0.16519
3546.45386,0.16732
3548.38233,0.16760
3550.31080,0.16752
3552.23927,0.16751
3554.16774,0.16292
3556.09621,0.15931
3558.02468,0.16306
3559.95314,0.16795
3561.88161,0.16857
3563.81008,0.16942
3565.73855,0.17350
3567.66702,0.17042
3569.59549,0.15991
3571.52396,0.15776
3573.45243,0.16396
3575.38089,0.16831
3577.30936,0.16532
3579.23783,0.15763
3581.16630,0.15211
3583.09477,0.15556
3585.02324,0.16727
3586.95171,0.17687
3588.88017,0.17264
3590.80864,0.16291
3592.73711,0.15730
3594.66558,0.15431
3596.59405,0.15178
3598.52252,0.15209
3600.45099,0.15287
3602.37946,0.15060
3604.30792,0.15090
3606.23639,0.15755
3608.16486,0.16399
3610.09333,0.16352
3612.02180,0.16156
3613.95027,0.16115
3615.87874,0.16146
3617.80720,0.16204
3619.73567,0.15810
3621.66414,0.15078
3623.59261,0.14826
3625.52108,0.15367
3627.44955,0.16438
3629.37802,0.16396
3631.30649,0.15071
3633.23495,0.14442
3635.16342,0.14316
3637.09189,0.14027
3639.02036,0.13858
3640.94883,0.14187
3642.87730,0.14547
3644.80577,0.14878
3646.73423,0.16035
3648.66270,0.17673
3650.59117,0.16740
3652.51964,0.15000
3654.44811,0.14418
3656.37658,0.14101
3658.30505,0.13693
3660.23352,0.13587
3662.16198,0.13544
3664.09045,0.13382
3666.01892,0.13396
3667.94739,0.13962
3669.87586,0.14707
3671.80433,0.14565
3673.73280,0.14129
3675.66126,0.13974
3677.58973,0.13814
3679.51820,0.13497
3681.44667,0.13058
3683.37514,0.12711
3685.30361,0.12993
3687.23208,0.14205
3689.16055,0.15358
3691.08901,0.14604
3693.01748,0.13619
3694.94595,0.13741
3696.87442,0.13951
3698.80289,0.13653
3700.73136,0.13299
3702.65983,0.13043
3704.58829,0.13130
3706.51676,0.13991
3708.44523,0.15261
3710.37370,0.15653
3712.30217,0.14296
3714.23064,0.12923
3716.15911,0.12557
3718.08757,0.12715
3720.01604,0.13054
3721.94451,0.13485
3723.87298,0.13599
3725.80145,0.13228
3727.72992,0.12952
3729.65839,0.13120
3731.58686,0.13535
3733.51532,0.14370
3735.44379,0.15457
3737.37226,0.15284
3739.30073,0.14587
3741.22920,0.14510
3743.15767,0.14838
3745.08614,0.15100
3747.01460,0.15374
3748.94307,0.15779
3750.87154,0.15545
3752.80001,0.14175
3754.72848,0.13216
3756.65695,0.13238
3758.58542,0.13867
3760.51389,0.14303
3762.44235,0.14156
3764.37082,0.13605
3766.29929,0.13076
3768.22776,0.13289
3770.15623,0.13830
3772.08470,0.13615
3774.01317,0.13207
3775.94163,0.13367
3777.87010,0.13957
3779.79857,0.14236
3781.72704,0.13946
3783.65551,0.13642
3785.58398,0.13367
3787.51245,0.13135
3789.44092,0.13014
3791.36938,0.12654
3793.29785,0.12081
3795.22632,0.12048
3797.15479,0.12438
3799.08326,0.12297
3801.01173,0.12281
3802.94020,0.12893
3804.86866,0.13195
3806.79713,0.13111
3808.72560,0.12614
3810.65407,0.12016
3812.58254,0.11770
3814.51101,0.12189
3816.43948,0.13217
3818.36795,0.14271
3820.29641,0.14871
3822.22488,0.14137
3824.15335,0.13401
3826.08182,0.13551
3828.01029,0.13749
3829.93876,0.13803
3831.86723,0.13788
3833.79569,0.13483
3835.72416,0.13112
3837.65263,0.12902
3839.58110,0.13035
3841.50957,0.13273
3843.43804,0.13032
3845.36651,0.12325
3847.29498,0.11867
3849.22344,0.12251
3851.15191,0.13364
3853.08038,0.14209
3855.00885,0.13516
3856.93732,0.12807
3858.86579,0.12654
3860.79426,0.12624
3862.72272,0.12519
3864.65119,0.12440
3866.57966,0.12219
3868.50813,0.11999
3870.43660,0.12326
3872.36507,0.12938
3874.29354,0.12870
3876.22200,0.12143
3878.15047,0.11768
3880.07894,0.12147
3882.00741,0.12609
3883.93588,0.12435
3885.86435,0.11897
3887.79282,0.11634
3889.72129,0.11617
3891.64975,0.11845
3893.57822,0.12266
3895.50669,0.12622
3897.43516,0.12947
3899.36363,0.12983
3901.29210,0.12959
3903.22057,0.13287
3905.14903,0.12940
3907.07750,0.12016
3909.00597,0.11509
3910.93444,0.11324
3912.86291,0.11350
3914.79138,0.11597
3916.71985,0.11485
3918.64832,0.10987
3920.57678,0.10802
3922.50525,0.11009
3924.43372,0.11490
3926.36219,0.11887
3928.29066,0.11847
3930.21913,0.11643
3932.14760,0.11284
3934.07606,0.10685
3936.00453,0.10347
3937.93300,0.10318
3939.86147,0.10416
3941.78994,0.10599
3943.71841,0.10924
3945.64688,0.11595
3947.57535,0.12135
3949.50381,0.11871
3951.43228,0.11198
3953.36075,0.10574
3955.28922,0.10054
3957.21769,0.10319
3959.14616,0.11270
3961.07463,0.11601
3963.00309,0.11230
3964.93156,0.10859
3966.86003,0.10583
3968.78850,0.10491
3970.71697,0.10361
3972.64544,0.09996
3974.57391,0.09908
3976.50238,0.10050
3978.43084,0.10051
3980.35931,0.10121
3982.28778,0.10293
3984.21625,0.10514
3986.14472,0.10812
3988.07319,0.10920
3990.00166,0.10606
3991.93012,0.10214
3993.85859,0.10234
3995.78706,0.10512
3997.71553,0.10554
3999.64400,0.10245
4001.57247,0.09938
4003.50094,0.09958
4005.42941,0.10383
4007.35787,0.10923
4009.28634,0.11170
4011.21481,0.11114
4013.14328,0.10688
4015.07175,0.09932
4017.00022,0.09432
4018.92869,0.09524
4020.85715,0.09672
4022.78562,0.09241
4024.71409,0.08616
4026.64256,0.08450
4028.57103,0.08766
4030.49950,0.09441
4032.42797,0.10338
4034.35644,0.10924
4036.28490,0.10705
4038.21337,0.10122
4040.14184,0.10027
4042.07031,0.10196
4043.99878,0.10019
4045.92725,0.09973
4047.85572,0.10291
4049.78418,0.10280
4051.71265,0.10097
4053.64112,0.10084
4055.56959,0.09826
4057.49806,0.09368
4059.42653,0.09229
4061.35500,0.09513
4063.28346,0.09777
4065.21193,0.09591
4067.14040,0.09222
4069.06887,0.09076
4070.99734,0.09095
4072.92581,0.09340
4074.85428,0.09622
4076.78275,0.09534
4078.71121,0.09304
4080.63968,0.09396
4082.56815,0.09778
4084.49662,0.09614
4086.42509,0.08820
4088.35356,0.08555
4090.28203,0.08883
4092.21049,0.09352
4094.13896,0.09908
4096.06743,0.09859
4097.99590,0.09328
4099.92437,0.09251
4101.85284,0.09133
4103.78131,0.08490
4105.70978,0.08481
4107.63824,0.09387
4109.56671,0.09592
4111.49518,0.09118
4113.42365,0.09381
4115.35212,0.09437
4117.28059,0.08443
4119.20906,0.07870
4121.13752,0.08221
4123.06599,0.08472
4124.99446,0.08362
4126.92293,0.08508
4128.85140,0.08911
4130.77987,0.09220
4132.70834,0.09330
4134.63681,0.09146
4136.56527,0.08863
4138.49374,0.08662
4140.42221,0.08455
4142.35068,0.08372
4144.27915,0.08730
4146.20762,0.09135
4148.13609,0.09059
4150.06455,0.08805
4151.99302,0.08465
4153.92149,0.07794
4155.84996,0.07146
4157.77843,0.07019
4159.70690,0.07137
4161.63537,0.07166
4163.56384,0.07398
4165.49230,0.08134
4167.42077,0.09077
4169.34924,0.09567
4171.27771,0.09490
4173.20618,0.08980
4175.13465,0.08189
4177.06312,0.07617
4178.99158,0.07403
4180.92005,0.07433
4182.84852,0.07793
4184.77699,0.08223
4186.70546,0.08289
4188.63393,0.08141
4190.56240,0.08057
4192.49087,0.07765
4194.41933,0.07282
4196.34780,0.07221
4198.27627,0.07632
4200.20474,0.08052
4202.13321,0.08270
4204.06168,0.08374
4205.99015,0.08370
4207.91861,0.08059
4209.84708,0.07690
4211.77555,0.07577
4213.70402,0.07778
4215.63249,0.08344
4217.56096,0.08784
4219.48943,0.08599
4221.41789,0.08114
4223.34636,0.07840
4225.27483,0.07433
4227.20330,0.06822
4229.13177,0.06916
4231.06024,0.07510
4232.98871,0.07672
4234.91718,0.07544
4236.84564,0.07618
4238.77411,0.08146
4240.70258,0.08790
4242.63105,0.08503
4244.55952,0.07291
4246.48799,0.06370
4248.41646,0.06399
4250.34492,0.07015
4252.27339,0.07347
4254.20186,0.06922
4256.13033,0.06226
4258.05880,0.06017
4259.98727,0.06374
4261.91574,0.06668
4263.84421,0.06499
4265.77267,0.06409
4267.70114,0.06815
4269.62961,0.07258
4271.55808,0.07498
4273.48655,0.07551
4275.41502,0.07358
4277.34349,0.06844
4279.27195,0.05899
4281.20042,0.05077
4283.12889,0.04781
4285.05736,0.04783
4286.98583,0.05346
4288.91430,0.06203
4290.84277,0.06330
4292.77124,0.06031
4294.69970,0.06244
4296.62817,0.06581
4298.55664,0.06570
4300.48511,0.06396
4302.41358,0.06012
4304.34205,0.05777
4306.27052,0.06162
4308.19898,0.06796
4310.12745,0.06848
4312.05592,0.06263
4313.98439,0.06079
4315.91286,0.06309
4317.84133,0.05683
4319.76980,0.04155
4321.69827,0.03217
4323.62673,0.03592
4325.55520,0.04418
4327.48367,0.05057
4329.41214,0.05596
4331.34061,0.05632
4333.26908,0.05114
4335.19755,0.05252
4337.12601,0.06114
4339.05448,0.06024
4340.98295,0.04889
4342.91142,0.04037
4344.83989,0.03896
4346.76836,0.04310
4348.69683,0.04498
4350.62530,0.03988
4352.55376,0.03727
4354.48223,0.03831
4356.41070,0.03881
4358.33917,0.04061
4360.26764,0.04056
4362.19611,0.04320
4364.12458,0.05392
4366.05304,0.05997
4367.98151,0.05262
4369.90998,0.03925
4371.83845,0.03010
4373.76692,0.03226
4375.69539,0.04136
4377.62386,0.04554
4379.55232,0.04581
4381.48079,0.04619
4383.40926,0.04485
4385.33773,0.04309
4387.26620,0.04025
4389.19467,0.03824
4391.12314,0.04159
4393.05161,0.04586
4394.98007,0.04458
4396.90854,0.04051
4398.83701,0.04104
4400.76548,0.04635
4402.69395,0.04991
4404.62242,0.04825
4406.55089,0.04289
4408.47935,0.03718
4410.40782,0.03032
4412.33629,0.02211
4414.26476,0.02412
4416.19323,0.03726
4418.12170,0.04462
4420.05017,0.04424
4421.97864,0.04521
4423.90710,0.04493
4425.83557,0.04080
4427.76404,0.03958
4429.69251,0.04077
4431.62098,0.03845
4433.54945,0.03349
4435.47792,0.03051
4437.40638,0.03014
4439.33485,0.02568
4441.26332,0.01909
4443.19179,0.01915
4445.12026,0.02496
4447.04873,0.02964
4448.97720,0.02817
4450.90567,0.02312
4452.83413,0.02114
4454.76260,0.02582
4456.69107,0.03278
4458.61954,0.03209
4460.54801,0.02733
4462.47648,0.03169
4464.40495,0.03932
4466.33341,0.03992
4468.26188,0.03974
4470.19035,0.03860
4472.11882,0.03410
4474.04729,0.03126
4475.97576,0.02451
4477.90423,0.01403
4479.83270,0.01111
4481.76116,0.01453
4483.68963,0.01639
4485.61810,0.01701
4487.54657,0.02223
4489.47504,0.02996
4491.40351,0.03229
4493.33198,0.02936
4495.26044,0.02527
4497.18891,0.02343
4499.11738,0.02745
4501.04585,0.03428
4502.97432,0.03660
4504.90279,0.03152
4506.83126,0.02488
4508.75973,0.02249
4510.68819,0.01974
4512.61666,0.01488
4514.54513,0.01448
4516.47360,0.02087
4518.40207,0.02894
4520.33054,0.02764
4522.25901,0.01753
4524.18747,0.00926
4526.11594,0.00148
4528.04441,-0.00106
4529.97288,0.00983
4531.90135,0.01907
4533.82982,0.01412
4535.75829,0.00494
4537.68676,0.00048
4539.61522,0.00132
4541.54369,0.00768
4543.47216,0.01559
4545.40063,0.01637
4547.32910,0.00972
4549.25757,0.00836
4551.18604,0.01321
4553.11450,0.01467
4555.04297,0.01385
4556.97144,0.01296
4558.89991,0.01210
4560.82838,0.01301
4562.75685,0.01926
4564.68532,0.02811
4566.61378,0.02701
4568.54225,0.01278
4570.47072,-0.00086
4572.39919,0.00537
4574.32766,0.02680
4576.25613,0.03848
4578.18460,0.03361
4580.11307,0.02342
4582.04153,0.01562
4583.97000,0.00778
4585.89847,-0.00156
4587.82694,-0.00750
4589.75541,-0.00461
4591.68388,0.00590
4593.61235,0.01694
4595.54081,0.02206
4597.46928,0.01302
4599.39775,-0.00523
4601.32622,-0.01283
4603.25469,-0.00658
4605.18316,0.00273
4607.11163,0.01203
4609.04010,0.01673
4610.96856,0.01312
4612.89703,0.01036
4614.82550,0.01402
4616.75397,0.02007
4618.68244,0.02052
4620.61091,0.01361
4622.53938,0.00983
4624.46784,0.01429
4626.39631,0.01821
4628.32478,0.01380
4630.25325,0.01176
4632.18172,0.01950
4634.11019,0.01946
4636.03866,0.00502
4637.96713,-0.00366
4639.89559,0.00168
4641.82406,0.00693
4643.75253,0.00478
4645.68100,0.00067
4647.60947,-0.00128
4649.53794,-0.00071
4651.46641,-0.00272
4653.39487,-0.01071
4655.32334,-0.01188
4657.25181,0.00064
4659.18028,0.01261
4661.10875,0.01610
4663.03722,0.01314
4664.96569,0.01388
4666.89416,0.02190
4668.82262,0.01960
4670.75109,0.00618
4672.67956,-0.00022
4674.60803,0.00773
4676.53650,0.02128
4678.46497,0.02075
4680.39344,0.00143
4682.32190,-0.01600
4684.25037,-0.01493
4686.17884,-0.00190
4688.10731,0.01181
4690.03578,0.01846
4691.96425,0.01122
4693.89272,-0.00004
4695.82119,0.00308
4697.74965,0.01670
4699.67812,0.02032
4701.60659,0.00993
4703.53506,-0.00048
4705.46353,-0.00064
4707.39200,0.00733
4709.32047,0.01361
4711.24893,0.01822
4713.17740,0.02502
4715.10587,0.02289
4717.03434,0.00923
4718.96281,-0.00048
4720.89128,0.00136
4722.81975,0.00866
4724.74821,0.01347
4726.67668,0.01535
4728.60515,0.01545
4730.53362,0.01140
4732.46209,0.00611
4734.39056,0.00977
4736.31903,0.02349
4738.24750,0.02892
4740.17596,0.01485
4742.10443,-0.00404
4744.03290,-0.00681
4745.96137,0.00858
4747.88984,0.02248
4749.81831,0.01953
4751.74678,0.01017
4753.67524,0.01265
4755.60371,0.02153
4757.53218,0.02216
4759.46065,0.01676
4761.38912,0.01489
4763.31759,0.01852
4765.24606,0.01367
4767.17453,-0.00588
4769.10299,-0.02219
4771.03146,-0.02015
4772.95993,-0.00636
4774.88840,-0.00303
4776.81687,-0.01124
4778.74534,-0.00881
4780.67381,0.00534
4782.60227,0.01604
4784.53074,0.01630
4786.45921,0.00913
4788.38768,0.00917
4790.31615,0.01920
4792.24462,0.02297
4794.17309,0.01549
4796.10156,0.00582
4798.03002,0.00202
4799.95849,0.00371
4801.88696,0.00712
4803.81543,0.01266
4805.74390,0.02024
4807.67237,0.02762
4809.60084,0.03076
4811.52930,0.03117
4813.45777,0.03482
4815.38624,0.03723
4817.31471,0.03310
4819.24318,0.02406
4821.17165,0.01312
4823.10012,0.00461
4825.02859,-0.00026
4826.95705,-0.00640
4828.88552,-0.01213
4830.81399,-0.00609
4832.74246,0.00557
4834.67093,0.00561
4836.59940,0.00042
4838.52787,0.00599
4840.45633,0.01773
4842.38480,0.02318
4844.31327,0.02552
4846.24174,0.02903
4848.17021,0.02559
4850.09868,0.01153
4852.02715,-0.00104
4853.95562,-0.00044
4855.88408,0.00578
4857.81255,0.00259
4859.74102,-0.00762
4861.66949,-0.00779
4863.59796,0.00240
4865.52643,0.01403
4867.45490,0.02716
4869.38336,0.03131
4871.31183,0.02093
4873.24030,0.01390
4875.16877,0.01538
4877.09724,0.00906
4879.02571,-0.00519
4880.95418,-0.00875
4882.88265,0.00238
4884.81111,0.01185
4886.73958,0.01203
4888.66805,0.01053
4890.59652,0.01015
4892.52499,0.00640
4894.45346,0.00334
4896.38193,0.00701
4898.31039,0.00751
4900.23886,0.00255
4902.16733,0.00639
4904.09580,0.01656
4906.02427,0.01810
4907.95274,0.01049
4909.88121,0.00463
4911.80967,0.00513
4913.73814,0.01002
4915.66661,0.01715
4917.59508,0.01800
4919.52355,0.00828
4921.45202,-0.00505
4923.38049,-0.01614
4925.30896,-0.01900
4927.23742,-0.00696
4929.16589,0.01237
4931.09436,0.02162
4933.02283,0.01728
4934.95130,0.00706
4936.87977,-0.00401
4938.80824,-0.00380
4940.73670,0.00737
4942.66517,0.01067
4944.59364,0.00398
4946.52211,-0.00208
4948.45058,-0.00112
4950.37905,0.00356
4952.30752,0.00245
4954.23599,-0.00141
4956.16445,0.00620
4958.09292,0.02138
4960.02139,0.02608
4961.94986,0.02299
4963.87833,0.01573
4965.80680,-0.00220
4967.73527,-0.01275
4969.66373,-0.00680
4971.59220,-0.00352
4973.52067,-0.00065
4975.44914,0.01292
4977.37761,0.02510
4979.30608,0.02426
4981.23455,0.01427
4983.16302,0.00703
4985.09148,0.00741
4987.01995,0.00822
4988.94842,0.01235
4990.87689,0.02774
4992.80536,0.03909
4994.73383,0.02842
4996.66230,0.01070
4998.59076,0.00541
5000.51923,0.00581
5002.44770,0.00773
5004.37617,0.01074
5006.30464,0.00110
5008.23311,-0.01171
5010.16158,-0.00029
5012.09005,0.02189
5014.01851,0.02637
5015.94698,0.02107
5017.87545,0.02458
5019.80392,0.03107
5021.73239,0.02683
5023.66086,0.01695
5025.58933,0.01483
5027.51779,0.02158
5029.44626,0.02384
5031.37473,0.01689
5033.30320,0.01424
5035.23167,0.01711
5037.16014,0.01653
5039.08861,0.02134
5041.01708,0.03285
5042.94554,0.03839
5044.87401,0.03776
5046.80248,0.03675
5048.73095,0.04196
5050.65942,0.04886
5052.58789,0.04481
5054.51636,0.03151
5056.44482,0.01760
5058.37329,0.00957
5060.30176,0.00753
5062.23023,0.00724
5064.15870,0.01094
5066.08717,0.01968
5068.01564,0.02453
5069.94410,0.02624
5071.87257,0.02762
5073.80104,0.01468
5075.72951,-0.00363
5077.65798,-0.00256
5079.58645,0.01133
5081.51492,0.01946
5083.44339,0.01723
5085.37185,0.01568
5087.30032,0.02127
5089.22879,0.02004
5091.15726,0.01291
5093.08573,0.01643
5095.01420,0.02565
5096.94267,0.02866
5098.87113,0.02226
5100.79960,0.00788
5102.72807,-0.00670
5104.65654,-0.00867
5106.58501,0.00666
5108.51348,0.02485
5110.44195,0.03431
5112.37042,0.03295
5114.29888,0.02418
5116.22735,0.02487
5118.15582,0.03388
5120.08429,0.02936
5122.01276,0.01652
5123.94123,0.00773
5125.86970,0.00031
5127.79816,0.00589
5129.72663,0.02459
5131.65510,0.03791
5133.58357,0.04328
5135.51204,0.03960
5137.44051,0.02341
5139.36898,0.01567
5141.29745,0.03746
5143.22591,0.06597
5145.15438,0.07270
5147.08285,0.05857
5149.01132,0.03978
5150.93979,0.03700
5152.86826,0.04945
5154.79673,0.05335
5156.72519,0.03486
5158.65366,0.01963
5160.58213,0.03116
5162.51060,0.05207
5164.43907,0.07071
5166.36754,0.08089
5168.29601,0.06129
5170.22448,0.02201
5172.15294,0.00495
5174.08141,0.01369
5176.00988,0.02233
5177.93835,0.02356
5179.86682,0.02557
5181.79529,0.03905
5183.72376,0.05500
5185.65222,0.05538
5187.58069,0.05659
5189.50916,0.07270
5191.43763,0.07892
5193.36610,0.06020
5195.29457,0.03791
5197.22304,0.03639
5199.15151,0.04918
5201.07997,0.05714
5203.00844,0.05802
5204.93691,0.05418
5206.86538,0.05356
5208.79385,0.05880
5210.72232,0.05727
5212.65079,0.04670
5214.57925,0.03580
5216.50772,0.03637
5218.43619,0.05048
5220.36466,0.06425
5222.29313,0.06547
5224.22160,0.05484
5226.15007,0.05326
5228.07854,0.06789
5230.00700,0.06789
5231.93547,0.05471
5233.86394,0.05295
5235.79241,0.05420
5237.72088,0.05409
5239.64935,0.05910
5241.57782,0.05761
5243.50628,0.04521
5245.43475,0.03739
5247.36322,0.03719
5249.29169,0.02965
5251.22016,0.01311
5253.14863,0.00880
5255.07710,0.03256
5257.00556,0.05947
5258.93403,0.05879
5260.86250,0.04085
5262.79097,0.04250
5264.71944,0.07110
5266.64791,0.07730
5268.57638,0.04768
5270.50485,0.02412
5272.43331,0.02738
5274.36178,0.04023
5276.29025,0.04985
5278.21872,0.05813
5280.14719,0.06364
5282.07566,0.06364
5284.00413,0.05941
5285.93259,0.05276
5287.86106,0.05644
5289.78953,0.06969
5291.71800,0.07020
5293.64647,0.06398
5295.57494,0.06837
5297.50341,0.07246
5299.43188,0.06803
5301.36034,0.06111
5303.28881,0.04037
5305.21728,0.01915
5307.14575,0.03152
5309.07422,0.04351
5311.00269,0.02853
5312.93116,0.02671
5314.85962,0.03471
5316.78809,0.02097
5318.71656,0.01424
5320.64503,0.04080
5322.57350,0.07528
5324.50197,0.09148
5326.43044,0.07764
5328.35891,0.05152
5330.28737,0.04253
5332.21584,0.04428
5334.14431,0.04723
5336.07278,0.05030
5338.00125,0.03781
5339.92972,0.01627
5341.85819,0.02342
5343.78665,0.05272
5345.71512,0.06651
5347.64359,0.06273
5349.57206,0.05411
5351.50053,0.04761
5353.42900,0.05812
5355.35747,0.08196
5357.28594,0.09301
5359.21440,0.08118
5361.14287,0.06432
5363.07134,0.06458
5364.99981,0.07758
5366.92828,0.08427
5368.85675,0.07607
5370.78522,0.06036
5372.71368,0.05376
5374.64215,0.06326
5376.57062,0.06594
5378.49909,0.04971
5380.42756,0.04053
5382.35603,0.03848
5384.28450,0.03190
5386.21297,0.02447
5388.14143,0.01903
5390.06990,0.01357
5391.99837,0.00370
5393.92684,0.00103
5395.85531,0.02059
5397.78378,0.03059
5399.71225,0.01464
5401.64071,0.01660
5403.56918,0.05119
5405.49765,0.07707
5407.42612,0.08059
5409.35459,0.08137
5411.28306,0.08397
5413.21153,0.07486
5415.13999,0.05868
5417.06846,0.05165
5418.99693,0.05696
5420.92540,0.06768
5422.85387,0.06537
5424.78234,0.04538
5426.71081,0.02864
5428.63928,0.03937
5430.56774,0.06960
5432.49621,0.07891
5434.42468,0.04617
5436.35315,0.01133
5438.28162,0.02119
5440.21009,0.05472
5442.13856,0.07062
5444.06702,0.06215
5445.99549,0.05139
5447.92396,0.05490
5449.85243,0.06949
5451.78090,0.08589
5453.70937,0.09789
5455.63784,0.09858
5457.56631,0.09094
5459.49477,0.08937
5461.42324,0.09537
5463.35171,0.10021
5465.28018,0.09701
5467.20865,0.08244
5469.13712,0.06362
5471.06559,0.05607
5472.99405,0.05866
5474.92252,0.06073
5476.85099,0.05868
5478.77946,0.05274
5480.70793,0.04182
5482.63640,0.02610
5484.56487,0.01695
5486.49334,0.02553
5488.42180,0.04425
5490.35027,0.05398
5492.27874,0.05767
5494.20721,0.07125
5496.13568,0.08596
5498.06415,0.09461
5499.99262,0.09738
5501.92108,0.09755
5503.84955,0.09414
5505.77802,0.07565
5507.70649,0.05347
5509.63496,0.06680
5511.56343,0.11688
5513.49190,0.14477
5515.42037,0.12819
5517.34883,0.10873
5519.27730,0.10085
5521.20577,0.09512
5523.13424,0.09551
5525.06271,0.10043
5526.99118,0.10374
5528.91965,0.11470
5530.84811,0.11776
5532.77658,0.09410
5534.70505,0.07710
5536.63352,0.09553
5538.56199,0.12546
5540.49046,0.12118
5542.41893,0.08729
5544.34740,0.06712
5546.27586,0.06463
5548.20433,0.06639
5550.13280,0.07047
5552.06127,0.07460
5553.98974,0.07285
5555.91821,0.06103
5557.84668,0.05538
5559.77514,0.07143
5561.70361,0.08398
5563.63208,0.06994
5565.56055,0.05094
5567.48902,0.04110
5569.41749,0.04529
5571.34596,0.07464
5573.27443,0.10030
5575.20289,0.09724
5577.13136,0.09285
5579.05983,0.10349
5580.98830,0.11342
5582.91677,0.10015
5584.84524,0.06732
5586.77371,0.04592
5588.70217,0.05764
5590.63064,0.08457
5592.55911,0.08511
5594.48758,0.05483
5596.41605,0.02804
5598.34452,0.02176
5600.27299,0.03400
5602.20145,0.06424
5604.12992,0.09626
5606.05839,0.11030
5607.98686,0.10511
5609.91533,0.09002
5611.84380,0.08373
5613.77227,0.08817
5615.70074,0.08470
5617.62920,0.07946
5619.55767,0.08042
5621.48614,0.08751
5623.41461,0.10648
5625.34308,0.11622
5627.27155,0.10127
5629.20002,0.09074
5631.12848,0.09476
5633.05695,0.09724
5634.98542,0.10157
5636.91389,0.11302
5638.84236,0.12211
5640.77083,0.10997
5642.69930,0.07987
5644.62777,0.06919
5646.55623,0.08210
5648.48470,0.09381
5650.41317,0.10101
5652.34164,0.10754
5654.27011,0.11835
5656.19858,0.12000
5658.12705,0.09539
5660.05551,0.06380
5661.98398,0.05538
5663.91245,0.07674
5665.84092,0.11286
5667.76939,0.13444
5669.69786,0.12926
5671.62633,0.10361
5673.55480,0.06371
5675.48326,0.04006
5677.41173,0.05169
5679.34020,0.06760
5681.26867,0.05963
5683.19714,0.05001
5685.12561,0.08522
5687.05408,0.13830
5688.98254,0.13457
5690.91101,0.07843
5692.83948,0.04540
5694.76795,0.07049
5696.69642,0.10835
5698.62489,0.10868
5700.55336,0.08938
5702.48183,0.08208
5704.41029,0.08044
5706.33876,0.07482
5708.26723,0.07937
5710.19570,0.09076
5712.12417,0.07412
5714.05264,0.03958
5715.98111,0.02135
5717.90957,0.00959
5719.83804,-0.00369
5721.76651,-0.00827
5723.69498,-0.00561
5725.62345,-0.00412
5727.55192,0.01283
5729.48039,0.05518
5731.40886,0.09000
5733.33732,0.09901
5735.26579,0.10466
5737.19426,0.11405
5739.12273,0.08731
5741.05120,0.04776
5742.97967,0.03928
5744.90814,0.03203
5746.83660,0.03341
5748.76507,0.06894
5750.69354,0.08783
5752.62201,0.05851
5754.55048,0.03691
5756.47895,0.04544
5758.40742,0.04901
5760.33588,0.04148
5762.26435,0.05236
5764.19282,0.08170
5766.12129,0.07433
5768.04976,0.02865
5769.97823,0.02052
5771.90670,0.05792
5773.83517,0.07025
5775.76363,0.04887
5777.69210,0.03506
5779.62057,0.03622
5781.54904,0.04742
5783.47751,0.07365
5785.40598,0.09250
5787.33445,0.07286
5789.26291,0.03867
5791.19138,0.03186
5793.11985,0.05917
5795.04832,0.09651
5796.97679,0.09508
5798.90526,0.06405
5800.83373,0.06838
5802.76220,0.09230
5804.69066,0.08552
5806.61913,0.06903
5808.54760,0.07748
5810.47607,0.10732
5812.40454,0.11725
5814.33301,0.10315
5816.26148,0.11229
5818.18994,0.12869
5820.11841,0.12051
5822.04688,0.09545
5823.97535,0.04948
5825.90382,0.00617
5827.83229,0.01484
5829.76076,0.05302
5831.68923,0.05713
5833.61769,0.05442
5835.54616,0.06792
5837.47463,0.06596
5839.40310,0.08828
5841.33157,0.14009
5843.26004,0.13582
5845.18851,0.08341
5847.11697,0.07198
5849.04544,0.11554
5850.97391,0.13286
5852.90238,0.09263
5854.83085,0.06077
5856.75932,0.06684
5858.68779,0.07273
5860.61626,0.07558
5862.54472,0.11196
5864.47319,0.16121
5866.40166,0.15052
5868.33013,0.09501
5870.25860,0.07206
5872.18707,0.08311
5874.11554,0.11001
5876.04400,0.13755
5877.97247,0.11716
5879.90094,0.07078
5881.82941,0.06101
5883.75788,0.07618
5885.68635,0.09034
5887.61482,0.10698
5889.54329,0.11789
5891.47175,0.09916
5893.40022,0.06183
5895.32869,0.05023
5897.25716,0.07868
5899.18563,0.10340
5901.11410,0.08462
5903.04257,0.05756
5904.97103,0.06066
5906.89950,0.06325
5908.82797,0.04534
5910.75644,0.03472
5912.68491,0.04214
5914.61338,0.05033
5916.54185,0.06446
5918.47032,0.08294
5920.39878,0.10256
5922.32725,0.13736
5924.25572,0.14286
5926.18419,0.09451
5928.11266,0.06242
5930.04113,0.07707
5931.96960,0.10378
5933.89806,0.11724
5935.82653,0.10524
5937.75500,0.08122
5939.68347,0.06837
5941.61194,0.08310
5943.54041,0.11422
5945.46888,0.10618
5947.39734,0.07300
5949.32581,0.09514
5951.25428,0.14760
5953.18275,0.13594
5955.11122,0.08343
5957.03969,0.07604
5958.96816,0.11104
5960.89663,0.13256
5962.82509,0.12332
5964.75356,0.09014
5966.68203,0.06661
5968.61050,0.08709
5970.53897,0.11263
5972.46744,0.10228
5974.39591,0.09112
5976.32437,0.10735
5978.25284,0.12836
5980.18131,0.11344
5982.10978,0.07072
5984.03825,0.07111
5985.96672,0.10358
5987.89519,0.08914
5989.82366,0.02575
5991.75212,-0.02477
5993.68059,-0.00697
5995.60906,0.05128
5997.53753,0.08148
5999.46600,0.07748
6001.39447,0.05818
6003.32294,0.05019
6005.25140,0.05908
6007.17987,0.05275
6009.10834,0.05410
6011.03681,0.09288
6012.96528,0.11272
6014.89375,0.08435
6016.82222,0.04695
6018.75069,0.01321
6020.67915,-0.02872
6022.60762,-0.05329
6024.53609,-0.01785
6026.46456,0.07768
6028.39303,0.16517
6030.32150,0.16975
6032.24997,0.11655
6034.17843,0.06580
6036.10690,0.03911
6038.03537,0.03780
6039.96384,0.06373
6041.89231,0.10487
6043.82078,0.12550
6045.74925,0.12479
6047.67772,0.12144
6049.60618,0.11017
6051.53465,0.10912
6053.46312,0.14556
6055.39159,0.18089
6057.32006,0.15822
6059.24853,0.12048
6061.17700,0.11117
6063.10546,0.09319
6065.03393,0.05519
6066.96240,0.03673
6068.89087,0.04052
6070.81934,0.02855
6072.74781,0.00198
6074.67628,0.00715
6076.60475,0.04636
6078.53321,0.07918
6080.46168,0.10135
6082.39015,0.11047
6084.31862,0.11312
6086.24709,0.14400
6088.17556,0.15308
6090.10403,0.11211
6092.03249,0.09267
6093.96096,0.09678
6095.88943,0.09117
6097.81790,0.09101
6099.74637,0.09393
6101.67484,0.10279
6103.60331,0.14222
6105.53177,0.17485
6107.46024,0.14328
6109.38871,0.09382
6111.31718,0.09353
6113.24565,0.10987
6115.17412,0.12186
6117.10259,0.13213
6119.03106,0.11272
6120.95952,0.07990
6122.88799,0.07885
6124.81646,0.09989
6126.74493,0.09613
6128.67340,0.04389
6130.60187,-0.01193
6132.53034,-0.02901
6134.45880,-0.02958
6136.38727,-0.02638
6138.31574,-0.00035
6140.24421,0.03642
6142.17268,0.05771
6144.10115,0.07513
6146.02962,0.08639
6147.95809,0.08100
6149.88655,0.07946
6151.81502,0.06966
6153.74349,0.05312
6155.67196,0.07391
6157.60043,0.12085
6159.52890,0.15652
6161.45737,0.14540
6163.38583,0.08134
6165.31430,0.00321
6167.24277,-0.03252
6169.17124,-0.00389
6171.09971,0.06129
6173.02818,0.13962
6174.95665,0.18159
6176.88512,0.14805
6178.81358,0.10304
6180.74205,0.10159
6182.67052,0.10990
6184.59899,0.08553
6186.52746,0.06806
6188.45593,0.09127
6190.38440,0.09698
6192.31286,0.08685
6194.24133,0.08069
6196.16980,0.05986
6198.09827,0.05076
6200.02674,0.06364
6201.95521,0.08441
6203.88368,0.11922
6205.81215,0.13580
6207.74061,0.08492
6209.66908,0.00638
6211.59755,-0.00403
6213.52602,0.03091
6215.45449,0.06277
6217.38296,0.09279
6219.31143,0.08427
6221.23989,0.05749
6223.16836,0.07871
6225.09683,0.11177
6227.02530,0.08826
6228.95377,0.04399
6230.88224,0.03688
6232.81071,0.05920
6234.73918,0.08324
6236.66764,0.10648
6238.59611,0.10428
6240.52458,0.06772
6242.45305,0.06287
6244.38152,0.09118
6246.30999,0.08225
6248.23846,0.07506
6250.16692,0.10570
6252.09539,0.10537
6254.02386,0.07666
6255.95233,0.06916
6257.88080,0.06670
6259.80927,0.05715
6261.73774,0.03348
6263.66621,0.00344
6265.59467,0.01884
6267.52314,0.05210
6269.45161,0.05404
6271.38008,0.04992
6273.30855,0.04317
6275.23702,0.03203
6277.16549,0.02351
6279.09395,0.00586
6281.02242,-0.00225
6282.95089,0.02697
6284.87936,0.06453
6286.80783,0.07426
6288.73630,0.06122
6290.66477,0.04448
6292.59323,0.04351
6294.52170,0.05432
6296.45017,0.05382
6298.37864,0.03957
6300.30711,0.06000
6302.23558,0.15104
6304.16405,0.23217
6306.09252,0.21210
6308.02098,0.11886
6309.94945,0.05260
6311.87792,0.05133
6313.80639,0.07511
6315.73486,0.06234
6317.66333,0.00204
6319.59180,-0.00905
6321.52026,0.07144
6323.44873,0.15487
6325.37720,0.20484
6327.30567,0.22702
6329.23414,0.20292
6331.16261,0.14435
6333.09108,0.08918
6335.01955,0.05988
6336.94801,0.02733
6338.87648,-0.01700
6340.80495,-0.02319
6342.73342,0.05847
6344.66189,0.18999
6346.59036,0.19841
6348.51883,0.07045
6350.44729,0.02622
6352.37576,0.08861
6354.30423,0.08790
6356.23270,0.02564
6358.16117,0.00771
6360.08964,0.05997
6362.01811,0.11387
6363.94658,0.08863
6365.87504,0.01419
6367.80351,0.00527
6369.73198,0.04837
6371.66045,0.04739
6373.58892,-0.01147
6375.51739,-0.04784
6377.44586,-0.02377
6379.37432,0.01985
6381.30279,0.06011
6383.23126,0.09474
6385.15973,0.09467
6387.08820,0.05658
6389.01667,0.01733
6390.94514,0.01756
6392.87361,0.05727
6394.80207,0.06986
6396.73054,0.04106
6398.65901,0.02535
6400.58748,0.04830
6402.51595,0.08794
6404.44442,0.11620
6406.37289,0.09847
6408.30135,0.04674
6410.22982,0.03820
6412.15829,0.04701
6414.08676,0.03591
6416.01523,0.01905
6417.94370,-0.01108
6419.87217,-0.00219
6421.80064,0.05632
6423.72910,0.10170
6425.65757,0.10891
6427.58604,0.08755
6429.51451,0.05712
6431.44298,0.03506
6433.37145,0.03835
6435.29992,0.06325
6437.22838,0.08818
6439.15685,0.11328
6441.08532,0.12588
6443.01379,0.10660
6444.94226,0.09772
6446.87073,0.09421
6448.79920,0.05317
6450.72766,0.02543
6452.65613,0.05285
6454.58460,0.09282
6456.51307,0.08974
6458.44154,0.04383
6460.37001,0.04050
6462.29848,0.10300
6464.22695,0.14188
6466.15541,0.12330
6468.08388,0.11142
6470.01235,0.10879
6471.94082,0.07959
6473.86929,0.07542
6475.79776,0.08329
6477.72623,0.05500
6479.65469,0.03338
6481.58316,0.03903
6483.51163,0.05251
6485.44010,0.07016
6487.36857,0.09496
6489.29704,0.11464
6491.22551,0.14685
6493.15398,0.18586
6495.08244,0.16444
6497.01091,0.11067
6498.93938,0.07985
6500.86785,0.07664
6502.79632,0.08652
6504.72479,0.09639
6506.65326,0.11813
6508.58172,0.14980
6510.51019,0.16329
6512.43866,0.13787
6514.36713,0.09455
6516.29560,0.04771
6518.22407,0.00230
6520.15254,-0.00360
6522.08101,0.04347
6524.00947,0.10213
6525.93794,0.12844
6527.86641,0.12129
6529.79488,0.07997
6531.72335,0.03244
6533.65182,0.03937
6535.58029,0.09963
6537.50875,0.12800
6539.43722,0.04712
6541.36569,-0.07571
6543.29416,-0.08780
6545.22263,-0.00911
6547.15110,0.02121
6549.07957,0.03401
6551.00804,0.09887
6552.93650,0.14441
6554.86497,0.13449
6556.79344,0.11645
6558.72191,0.10373
6560.65038,0.10660
6562.57885,0.12758
6564.50732,0.11938
6566.43578,0.07877
6568.36425,0.03966
6570.29272,0.00197
6572.22119,-0.01615
6574.14966,0.00397
6576.07813,0.05219
6578.00660,0.14092
6579.93507,0.22822
6581.86353,0.22155
6583.79200,0.18043
6585.72047,0.14022
6587.64894,0.06054
6589.57741,0.05096
6591.50588,0.12785
6593.43435,0.14474
6595.36281,0.06120
6597.29128,-0.00575
6599.21975,-0.00078
6601.14822,0.05576
6603.07669,0.11148
6605.00516,0.13577
6606.93363,0.14018
6608.86210,0.11473
6610.79056,0.07997
6612.71903,0.09149
6614.64750,0.13587
6616.57597,0.14045
6618.50444,0.11643
6620.43291,0.13776
6622.36138,0.16845
6624.28984,0.14644
6626.21831,0.06245
6628.14678,-0.01779
6630.07525,-0.01017
6632.00372,-0.01193
6633.93219,-0.07002
6635.86066,-0.07699
6637.78912,-0.03935
6639.71759,-0.01510
6641.64606,0.03931
6643.57453,0.10530
6645.50300,0.14215
6647.43147,0.17659
6649.35994,0.15940
6651.28841,0.07240
6653.21687,0.01382
6655.14534,0.02285
6657.07381,0.01807
6659.00228,-0.03835
6660.93075,-0.06282
6662.85922,-0.03056
6664.78769,0.01431
6666.71615,0.08725
6668.64462,0.19388
6670.57309,0.25301
6672.50156,0.19880
6674.43003,0.07739
6676.35850,0.01784
6678.28697,0.05592
6680.21544,0.11859
6682.14390,0.18927
6684.07237,0.22959
6686.00084,0.18087
6687.92931,0.11206
6689.85778,0.05618
6691.78625,-0.00530
6693.71472,-0.03483
6695.64318,-0.03587
6697.57165,0.00647
6699.50012,0.06801
6701.42859,0.02423
6703.35706,-0.07017
6705.28553,-0.09096
6707.21400,-0.08118
6709.14247,-0.06117
6711.07093,-0.02156
6712.99940,-0.01404
6714.92787,-0.03928
6716.85634,-0.01900
6718.78481,0.05357
6720.71328,0.12587
6722.64175,0.13993
6724.57021,0.04355
6726.49868,-0.04118
6728.42715,-0.00812
6730.35562,0.05248
6732.28409,0.05703
6734.21256,0.03252
6736.14103,0.02044
6738.06950,0.04101
6739.99796,0.06998
6741.92643,0.07552
6743.85490,0.08995
6745.78337,0.12852
6747.71184,0.13525
6749.64031,0.12770
6751.56878,0.17655
6753.49724,0.19494
6755.42571,0.14197
6757.35418,0.11445
6759.28265,0.07876
6761.21112,0.01315
6763.13959,0.01906
6765.06806,0.07448
6766.99653,0.05774
6768.92499,-0.02808
6770.85346,-0.04223
6772.78193,0.01979
6774.71040,0.07784
6776.63887,0.10543
6778.56734,0.07006
6780.49581,0.01147
6782.42427,-0.01490
6784.35274,-0.00428
6786.28121,0.03917
6788.20968,0.06886
6790.13815,0.07346
6792.06662,0.08751
6793.99509,0.08941
6795.92355,0.08028
6797.85202,0.07357
6799.78049,0.05667
6801.70896,0.05996
6803.63743,0.13121
6805.56590,0.19864
6807.49437,0.15041
6809.42284,0.03641
6811.35130,-0.03089
6813.27977,-0.03050
6815.20824,-0.02188
6817.13671,-0.00305
6819.06518,0.01056
6820.99365,-0.00863
6822.92212,0.05504
6824.85058,0.20714
6826.77905,0.25764
6828.70752,0.20150
6830.63599,0.14222
6832.56446,0.11573
6834.49293,0.12245
6836.42140,0.12507
6838.34987,0.07516
6840.27833,0.02402
6842.20680,-0.00421
6844.13527,-0.02592
6846.06374,-0.00594
6847.99221,0.07713
6849.92068,0.12953
6851.84915,0.10524
6853.77761,0.11429
6855.70608,0.15625
6857.63455,0.15924
6859.56302,0.11506
6861.49149,0.00630
6863.41996,-0.09582
6865.34843,-0.09618
6867.27690,-0.00919
6869.20536,0.10778
6871.13383,0.19978
6873.06230,0.18914
6874.99077,0.09617
6876.91924,0.07049
6878.84771,0.15338
6880.77618,0.23454
6882.70464,0.22677
6884.63311,0.16581
6886.56158,0.11428
6888.49005,0.09875
6890.41852,0.12974
6892.34699,0.23210
6894.27546,0.30141
6896.20393,0.20589
6898.13239,0.04639
6900.06086,0.01777
6901.98933,0.10554
6903.91780,0.19996
6905.84627,0.21946
6907.77474,0.22628
6909.70321,0.24451
6911.63167,0.17760
6913.56014,0.07147
6915.48861,0.01618
6917.41708,-0.01710
6919.34555,-0.01364
6921.27402,-0.01820
6923.20249,-0.06728
6925.13096,-0.03522
6927.05942,0.07895
6928.98789,0.10132
6930.91636,-0.00979
6932.84483,-0.03968
6934.77330,0.04873
6936.70177,0.08987
6938.63024,0.07553
6940.55870,0.08038
6942.48717,0.06168
6944.41564,0.01049
6946.34411,0.00157
6948.27258,0.00972
6950.20105,0.01945
6952.12952,0.04547
6954.05799,0.05913
6955.98645,0.01502
6957.91492,-0.03380
6959.84339,0.00947
6961.77186,0.04566
6963.70033,0.03229
6965.62880,0.04960
6967.55727,0.04891
6969.48573,0.02081
6971.41420,0.04840
6973.34267,0.09121
6975.27114,0.04429
6977.19961,-0.00732
6979.12808,0.03905
6981.05655,0.12053
6982.98501,0.21800
6984.91348,0.28281
6986.84195,0.21455
6988.77042,0.06436
6990.69889,-0.06413
6992.62736,-0.11868
6994.55583,-0.13216
6996.48430,-0.12928
6998.41276,-0.00706
7000.34123,0.18239
7002.26970,0.23995
7004.19817,0.20372
7006.12664,0.18256
7008.05511,0.11416
7009.98358,0.03257
7011.91204,0.09119
7013.84051,0.14740
7015.76898,0.00054
7017.69745,-0.14418
7019.62592,-0.10088
7021.55439,0.03558
7023.48286,0.10633
7025.41133,0.07632
7027.33979,0.03295
7029.26826,0.12192
7031.19673,0.31076
7033.12520,0.39104
7035.05367,0.26787
7036.98214,0.10574
7038.91061,0.05887
7040.83907,0.06177
7042.76754,0.02171
7044.69601,-0.03025
7046.62448,-0.03041
7048.55295,-0.00573
7050.48142,0.01639
7052.40989,0.02615
7054.33836,0.02365
7056.26682,-0.01740
7058.19529,-0.13716
7060.12376,-0.20853
7062.05223,-0.18590
7063.98070,-0.13520
7065.90917,-0.08214
7067.83764,-0.05094
7069.76610,-0.07494
7071.69457,-0.14448
7073.62304,-0.14267
7075.55151,-0.05878
7077.47998,-0.00224
7079.40845,0.03652
7081.33692,0.14416
7083.26539,0.23593
7085.19385,0.21542
7087.12232,0.12515
7089.05079,0.15142
7090.97926,0.33723
7092.90773,0.43029
7094.83620,0.39692
7096.76467,0.38783
7098.69313,0.32439
7100.62160,0.13009
7102.55007,-0.01798
7104.47854,0.00897
7106.40701,0.06539
7108.33548,-0.02564
7110.26395,-0.13139
7112.19242,-0.10641
7114.12088,-0.03270
7116.04935,0.03030
7117.97782,0.10633
7119.90629,0.10629
7121.83476,0.11815
7123.76323,0.23958
7125.69170,0.33840
7127.62016,0.27671
7129.54863,0.14692
7131.47710,0.11691
7133.40557,0.18146
7135.33404,0.19040
7137.26251,0.10627
7139.19098,0.03861
7141.11944,0.00491
7143.04791,-0.01550
7144.97638,0.04721
7146.90485,0.16417
7148.83332,0.20936
7150.76179,0.14407
7152.69026,0.01884
7154.61873,-0.05543
7156.54719,-0.02961
7158.47566,0.05221
7160.40413,0.12481
7162.33260,0.14466
7164.26107,0.15424
7166.18954,0.17692
7168.11801,0.09317
7170.04647,-0.10075
7171.97494,-0.19725
7173.90341,-0.21285
7175.83188,-0.23577
7177.76035,-0.16382
7179.68882,-0.00175
7181.61729,0.10772
7183.54576,0.07000
7185.47422,0.05393
7187.40269,0.07784
7189.33116,-0.03983
7191.25963,-0.12811
7193.18810,0.02815
7195.11657,0.17462
7197.04504,0.16211
7198.97350,0.09494
7200.90197,0.03219
7202.83044,0.00283
7204.75891,0.04740
7206.68738,0.13850
7208.61585,0.17973
7210.54432,0.10874
7212.47279,0.05300
7214.40125,0.13636
7216.32972,0.21245
7218.25819,0.12333
7220.18666,0.04015
7222.11513,0.05785
7224.04360,0.12208
7225.97207,0.13382
7227.90053,0.03187
7229.82900,-0.08439
7231.75747,-0.08573
7233.68594,-0.01421
7235.61441,0.00330
7237.54288,-0.03380
7239.47135,-0.07411
7241.39982,-0.00547
7243.32828,0.21082
7245.25675,0.26089
7247.18522,0.11407
7249.11369,-0.01751
7251.04216,-0.04913
7252.97063,0.06923
7254.89910,0.25759
7256.82756,0.28050
7258.75603,0.18611
7260.68450,0.13300
7262.61297,0.22283
7264.54144,0.33991
7266.46991,0.34084
7268.39838,0.24200
7270.32685,0.17426
7272.25531,0.09901
7274.18378,0.01935
7276.11225,0.18856
7278.04072,0.46909
7279.96919,0.44722
7281.89766,0.14286
7283.82613,-0.02929
7285.75459,-0.06832
7287.68306,-0.05854
7289.61153,0.02730
7291.54000,0.21577
7293.46847,0.34971
7295.39694,0.31240
7297.32541,0.17818
7299.25387,-0.00135
7301.18234,-0.12314
7303.11081,-0.07817
7305.03928,-0.01440
7306.96775,-0.00080
7308.89622,0.18159
7310.82469,0.48098
7312.75316,0.66012
7314.68162,0.60890
7316.61009,0.26677
7318.53856,0.03675
7320.46703,0.03247
7322.39550,-0.02378
7324.32397,-0.08000
7326.25244,-0.06018
7328.18090,-0.06577
7330.10937,-0.05336
7332.03784,0.08180
7333.96631,0.17603
7335.89478,0.15737
7337.82325,0.12926
7339.75172,0.00275
7341.68019,-0.16462
7343.60865,-0.02115
7345.53712,0.25505
7347.46559,0.26937
7349.39406,0.09724
7351.32253,0.11207
7353.25100,0.25405
7355.17947,0.27096
7357.10793,0.13127
7359.03640,0.05116
7360.96487,0.20477
7362.89334,0.32824
7364.82181,0.20917
7366.75028,0.02535
7368.67875,-0.05722
7370.60722,-0.04929
7372.53568,-0.00056
7374.46415,0.05127
7376.39262,0.13354
7378.32109,0.26565
7380.24956,0.34129
7382.17803,0.30356
7384.10650,0.27576
7386.03496,0.31157
7387.96343,0.31546
7389.89190,0.27630
7391.82037,0.16507
7393.74884,-0.00564
7395.67731,-0.07760
7397.60578,-0.05785
7399.53425,-0.01368
7401.46271,0.06716
7403.39118,0.10733
7405.31965,0.03752
7407.24812,-0.01037
7409.17659,0.09118
7411.10506,0.24596
7413.03353,0.30274
7414.96199,0.28165
7416.89046,0.26536
7418.81893,0.27265
7420.74740,0.11308
7422.67587,-0.18518
7424.60434,-0.36072
7426.53281,-0.32724
7428.46128,-0.09822
7430.38974,0.18071
7432.31821,0.16436
7434.24668,-0.06658
7436.17515,-0.12413
7438.10362,0.06847
7440.03209,0.16030
7441.96056,0.07575
7443.88902,-0.07414
7445.81749,-0.17332
7447.74596,-0.12951
7449.67443,-0.02302
7451.60290,0.02310
7453.53137,0.06842
7455.45984,0.12316
7457.38831,0.15395
7459.31677,0.15401
7461.24524,0.00458
7463.17371,-0.15511
7465.10218,-0.08602
7467.03065,0.02286
7468.95912,0.01071
7470.88759,-0.01461
7472.81605,0.00762
7474.74452,0.01479
7476.67299,-0.03872
7478.60146,-0.06255
7480.52993,0.04305
7482.45840,0.02873
7484.38687,-0.11682
7486.31533,-0.12512
7488.24380,-0.07782
7490.17227,0.00144
7492.10074,0.17301
7494.02921,0.19654
7495.95768,0.07478
7497.88615,0.01962
