399.19301,3.94569
401.12148,0.67848
403.04995,0.47154
404.97842,0.23725
406.90689,-0.14891
408.83536,-0.37887
410.76382,-0.40264
412.69229,-0.32835
414.62076,-0.15831
416.54923,0.03367
418.47770,0.12527
420.40617,0.14058
422.33464,0.15100
424.26311,0.08034
426.19157,0.03197
428.12004,0.09491
430.04851,0.17406
431.97698,0.17015
433.90545,0.10092
435.83392,0.01426
437.76239,-0.05263
439.69085,-0.08046
441.61932,-0.09748
443.54779,-0.08519
445.47626,-0.03175
447.40473,-0.01835
449.33320,-0.09210
451.26167,-0.14491
453.19013,-0.07363
455.11860,0.04178
457.04707,0.08854
458.97554,0.08197
460.90401,0.07175
462.83248,0.07804
464.76095,0.11851
466.68942,0.12347
468.61788,0.07123
470.54635,0.14327
472.47482,0.94697
474.40329,2.00213
476.33176,1.27113
478.26023,0.32214
480.18870,0.06157
482.11716,0.07207
484.04563,0.08386
485.97410,0.13114
487.90257,0.19775
489.83104,0.21776
491.75951,0.17272
493.68798,0.13358
495.61645,0.12550
497.54491,0.12497
499.47338,0.13854
501.40185,0.16049
503.33032,0.13135
505.25879,0.05049
507.18726,0.00708
509.11573,0.03575
511.04419,0.06302
512.97266,0.06657
514.90113,0.08858
516.82960,0.11599
518.75807,0.11997
520.68654,0.14652
522.61501,0.19703
524.54348,0.21787
526.47194,0.19365
528.40041,0.16316
530.32888,0.16213
532.25735,0.16596
534.18582,0.14259
536.11429,0.12336
538.04276,0.12196
539.97122,0.10718
541.89969,0.10281
543.82816,0.13030
545.75663,0.13964
547.68510,0.12362
549.61357,0.11036
551.54204,0.11928
553.47051,0.13915
555.39897,0.11810
557.32744,0.08660
559.25591,0.08928
561.18438,0.08974
563.11285,0.08783
565.04132,0.11292
566.96979,0.14217
568.89825,0.13774
570.82672,0.10874
572.75519,0.08198
574.68366,0.06892
576.61213,0.07687
578.54060,0.09673
580.46907,0.10165
582.39754,0.08219
584.32600,0.07716
586.25447,0.12065
588.18294,0.17985
590.11141,0.19482
592.03988,0.16986
593.96835,0.16413
595.89682,0.17915
597.82528,0.17611
599.75375,0.15753
601.68222,0.14026
603.61069,0.12637
605.53916,0.12130
607.46763,0.11654
609.39610,0.10739
611.32456,0.10890
613.25303,0.11520
615.18150,0.11730
617.10997,0.12143
619.03844,0.12268
620.96691,0.10835
622.89538,0.09720
624.82385,0.11630
626.75231,0.13349
628.68078,0.11371
630.60925,0.09374
632.53772,0.10266
634.46619,0.11491
636.39466,0.12365
638.32313,0.12945
640.25159,0.11718
642.18006,0.10471
644.10853,0.10633
646.03700,0.11640
647.96547,0.13683
649.89394,0.15353
651.82241,0.15454
653.75088,0.14400
655.67934,0.13034
657.60781,0.13036
659.53628,0.13679
661.46475,0.13176
663.39322,0.11955
665.32169,0.10738
667.25016,0.11258
669.17862,0.14789
671.10709,0.15810
673.03556,0.13965
674.96403,0.11817
676.89250,0.11582
678.82097,0.13333
680.74944,0.14203
682.67791,0.12276
684.60637,0.10211
686.53484,0.10255
688.46331,0.11083
690.39178,0.12315
692.32025,0.13707
694.24872,0.14011
696.17719,0.13507
698.10565,0.13450
700.03412,0.13911
701.96259,0.13700
703.89106,0.12807
705.81953,0.12580
707.74800,0.13291
709.67647,0.14887
711.60494,0.17215
713.53340,0.17811
715.46187,0.15936
717.39034,0.14233
719.31881,0.13452
721.24728,0.13432
723.17575,0.13920
725.10422,0.13983
727.03268,0.13789
728.96115,0.13142
730.88962,0.11850
732.81809,0.11064
734.74656,0.11699
736.67503,0.12986
738.60350,0.13572
740.53197,0.13444
742.46043,0.13105
744.38890,0.12640
746.31737,0.12314
748.24584,0.12070
750.17431,0.11120
752.10278,0.09924
754.03125,0.10501
755.95971,0.12647
757.88818,0.13933
759.81665,0.13528
761.74512,0.12749
763.67359,0.13288
765.60206,0.15331
767.53053,0.16435
769.45900,0.14649
771.38746,0.12729
773.31593,0.13499
775.24440,0.14995
777.17287,0.15201
779.10134,0.14562
781.02981,0.13843
782.95828,0.13728
784.88674,0.14417
786.81521,0.14674
788.74368,0.13499
790.67215,0.12296
792.60062,0.12584
794.52909,0.13665
796.45756,0.13400
798.38602,0.11961
800.31449,0.11940
802.24296,0.13185
804.17143,0.13833
806.09990,0.13889
808.02837,0.13692
809.95684,0.13219
811.88531,0.12681
813.81377,0.12759
815.74224,0.13327
817.67071,0.13402
819.59918,0.13336
821.52765,0.13855
823.45612,0.14234
825.38459,0.13743
827.31305,0.13356
829.24152,0.13622
831.16999,0.13706
833.09846,0.14251
835.02693,0.15892
836.95540,0.16604
838.88387,0.15383
840.81234,0.14682
842.74080,0.15600
844.66927,0.16093
846.59774,0.15480
848.52621,0.14545
850.45468,0.14096
852.38315,0.14643
854.31162,0.14680
856.24008,0.13652
858.16855,0.12996
860.09702,0.12992
862.02549,0.13276
863.95396,0.13616
865.88243,0.13467
867.81090,0.12898
869.73937,0.12671
871.66783,0.13432
873.59630,0.14834
875.52477,0.15371
877.45324,0.14716
879.38171,0.13861
881.31018,0.13287
883.23865,0.13170
885.16711,0.13233
887.09558,0.13274
889.02405,0.13453
890.95252,0.13503
892.88099,0.13438
894.80946,0.13647
896.73793,0.14278
898.66640,0.15088
900.59486,0.15274
902.52333,0.14477
904.45180,0.13728
906.38027,0.13752
908.30874,0.14020
910.23721,0.14322
912.16568,0.14835
914.09414,0.15349
916.02261,0.15858
917.95108,0.16171
919.87955,0.15642
921.80802,0.14706
923.73649,0.14440
925.66496,0.14636
927.59343,0.14550
929.52189,0.14473
931.45036,0.14979
933.37883,0.15500
935.30730,0.15173
937.23577,0.14339
939.16424,0.13990
941.09271,0.14112
943.02117,0.13828
944.94964,0.13229
946.87811,0.12990
948.80658,0.13052
950.73505,0.13528
952.66352,0.14835
954.59199,0.15959
956.52045,0.15686
958.44892,0.14936
960.37739,0.14600
962.30586,0.14325
964.23433,0.14168
966.16280,0.14580
968.09127,0.15191
970.01974,0.15262
971.94820,0.15258
973.87667,0.15381
975.80514,0.14871
977.73361,0.14595
979.66208,0.15442
981.59055,0.16284
983.51902,0.16334
985.44748,0.16001
987.37595,0.15818
989.30442,0.15810
991.23289,0.15357
993.16136,0.14290
995.08983,0.13447
997.01830,0.13599
998.94677,0.14511
1000.87523,0.15450
1002.80370,0.15917
1004.73217,0.15753
1006.66064,0.15236
1008.58911,0.14697
1010.51758,0.14355
1012.44605,0.14406
1014.37451,0.14601
1016.30298,0.14776
1018.23145,0.15020
1020.15992,0.15281
1022.08839,0.15690
1024.01686,0.16186
1025.94533,0.16686
1027.87380,0.17182
1029.80226,0.16928
1031.73073,0.15786
1033.65920,0.15004
1035.58767,0.14790
1037.51614,0.14724
1039.44461,0.15422
1041.37308,0.15963
1043.30154,0.15052
1045.23001,0.14266
1047.15848,0.14783
1049.08695,0.15858
1051.01542,0.16572
1052.94389,0.16335
1054.87236,0.15800
1056.80083,0.15560
1058.72929,0.15391
1060.65776,0.15569
1062.58623,0.16030
1064.51470,0.15996
1066.44317,0.15561
1068.37164,0.15834
1070.30011,0.16581
1072.22857,0.16897
1074.15704,0.17118
1076.08551,0.16841
1078.01398,0.15515
1079.94245,0.14531
1081.87092,0.14739
1083.79939,0.15303
1085.72786,0.16093
1087.65632,0.17232
1089.58479,0.17781
1091.51326,0.17209
1093.44173,0.15907
1095.37020,0.14793
1097.29867,0.14867
1099.22714,0.16033
1101.15560,0.17029
1103.08407,0.17488
1105.01254,0.17630
1106.94101,0.16932
1108.86948,0.16243
1110.79795,0.16540
1112.72642,0.17077
1114.65489,0.17481
1116.58335,0.17583
1118.51182,0.16923
1120.44029,0.16154
1122.36876,0.16037
1124.29723,0.16159
1126.22570,0.16387
1128.15417,0.16530
1130.08263,0.15846
1132.01110,0.14904
1133.93957,0.15042
1135.86804,0.16036
1137.79651,0.16421
1139.72498,0.15886
1141.65345,0.15292
1143.58191,0.15319
1145.51038,0.15966
1147.43885,0.16835
1149.36732,0.17547
1151.29579,0.17465
1153.22426,0.16886
1155.15273,0.16822
1157.08120,0.17029
1159.00966,0.16993
1160.93813,0.16927
1162.86660,0.17069
1164.79507,0.17369
1166.72354,0.17463
1168.65201,0.17192
1170.58048,0.16804
1172.50894,0.16259
1174.43741,0.15633
1176.36588,0.15558
1178.29435,0.15792
1180.22282,0.15746
1182.15129,0.15884
1184.07976,0.16083
1186.00823,0.15743
1187.93669,0.15580
1189.86516,0.15986
1191.79363,0.16273
1193.72210,0.16298
1195.65057,0.16128
1197.57904,0.15861
1199.50751,0.15733
1201.43597,0.15693
1203.36444,0.15953
1205.29291,0.16457
1207.22138,0.16557
1209.14985,0.16265
1211.07832,0.16129
1213.00679,0.16223
1214.93526,0.16458
1216.86372,0.16933
1218.79219,0.17392
1220.72066,0.17456
1222.64913,0.17279
1224.57760,0.17261
1226.50607,0.17245
1228.43454,0.16873
1230.36300,0.16269
1232.29147,0.15716
1234.21994,0.15620
1236.14841,0.16032
1238.07688,0.16327
1240.00535,0.16251
1241.93382,0.16275
1243.86229,0.16396
1245.79075,0.16097
1247.71922,0.15936
1249.64769,0.16438
1251.57616,0.16767
1253.50463,0.16671
1255.43310,0.16739
1257.36157,0.16794
1259.29003,0.16437
1261.21850,0.15983
1263.14697,0.15828
1265.07544,0.16011
1267.00391,0.16234
1268.93238,0.16218
1270.86085,0.16255
1272.78932,0.16419
1274.71778,0.16495
1276.64625,0.16622
1278.57472,0.16790
1280.50319,0.16622
1282.43166,0.16332
1284.36013,0.16499
1286.28860,0.16507
1288.21706,0.15973
1290.14553,0.15793
1292.07400,0.16063
1294.00247,0.16206
1295.93094,0.16087
1297.85941,0.15683
1299.78788,0.14787
1301.71634,0.13145
1303.64481,0.11352
1305.57328,0.11381
1307.50175,0.13712
1309.43022,0.15854
1311.35869,0.16705
1313.28716,0.17311
1315.21563,0.17725
1317.14409,0.17754
1319.07256,0.17667
1321.00103,0.17452
1322.92950,0.17087
1324.85797,0.16500
1326.78644,0.16073
1328.71491,0.16018
1330.64337,0.15616
1332.57184,0.15480
1334.50031,0.16236
1336.42878,0.16684
1338.35725,0.16329
1340.28572,0.15331
1342.21419,0.15177
1344.14266,0.17344
1346.07112,0.19047
1347.99959,0.17775
1349.92806,0.16019
1351.85653,0.15661
1353.78500,0.15647
1355.71347,0.15620
1357.64194,0.15844
1359.57040,0.16386
1361.49887,0.17344
1363.42734,0.17856
1365.35581,0.17261
1367.28428,0.16582
1369.21275,0.16554
1371.14122,0.16974
1373.06969,0.17430
1374.99815,0.17843
1376.92662,0.18108
1378.85509,0.17994
1380.78356,0.17688
1382.71203,0.17669
1384.64050,0.18204
1386.56897,0.18905
1388.49743,0.18954
1390.42590,0.18714
1392.35437,0.18875
1394.28284,0.19167
1396.21131,0.19087
1398.13978,0.18707
1400.06825,0.18364
1401.99672,0.18370
1403.92518,0.18378
1405.85365,0.17952
1407.78212,0.17903
1409.71059,0.18537
1411.63906,0.18831
1413.56753,0.18522
1415.49600,0.18464
1417.42446,0.18951
1419.35293,0.19243
1421.28140,0.19178
1423.20987,0.19117
1425.13834,0.18747
1427.06681,0.18304
1428.99528,0.17921
1430.92375,0.17633
1432.85221,0.17942
1434.78068,0.18436
1436.70915,0.18334
1438.63762,0.17846
1440.56609,0.17692
1442.49456,0.18144
1444.42303,0.18851
1446.35149,0.19004
1448.27996,0.18606
1450.20843,0.18642
1452.13690,0.19305
1454.06537,0.20126
1455.99384,0.21082
1457.92231,0.20962
1459.85077,0.19267
1461.77924,0.18222
1463.70771,0.18227
1465.63618,0.18711
1467.56465,0.18829
1469.49312,0.18994
1471.42159,0.19727
1473.35006,0.20238
1475.27852,0.19895
1477.20699,0.19382
1479.13546,0.18764
1481.06393,0.18310
1482.99240,0.18349
1484.92087,0.19067
1486.84934,0.20703
1488.77780,0.22203
1490.70627,0.21356
1492.63474,0.19882
1494.56321,0.19682
1496.49168,0.20156
1498.42015,0.20069
1500.34862,0.19588
1502.27709,0.19426
1504.20555,0.20105
1506.13402,0.22510
1508.06249,0.23456
1509.99096,0.21124
1511.91943,0.19427
1513.84790,0.19192
1515.77637,0.20176
1517.70483,0.21533
1519.63330,0.22556
1521.56177,0.22706
1523.49024,0.21687
1525.41871,0.20849
1527.34718,0.20361
1529.27565,0.20053
1531.20412,0.20105
1533.13258,0.20402
1535.06105,0.20474
1536.98952,0.20657
1538.91799,0.21747
1540.84646,0.22905
1542.77493,0.21796
1544.70340,0.20295
1546.63186,0.19672
1548.56033,0.19639
1550.48880,0.19679
1552.41727,0.19987
1554.34574,0.20905
1556.27421,0.22425
1558.20268,0.23865
1560.13115,0.22203
1562.05961,0.20429
1563.98808,0.19793
1565.91655,0.19478
1567.84502,0.19532
1569.77349,0.19766
1571.70196,0.19547
1573.63043,0.19369
1575.55889,0.19515
1577.48736,0.19322
1579.41583,0.18784
1581.34430,0.18544
1583.27277,0.18535
1585.20124,0.18361
1587.12971,0.18259
1589.05818,0.18352
1590.98664,0.18161
1592.91511,0.17891
1594.84358,0.17849
1596.77205,0.17714
1598.70052,0.17443
1600.62899,0.17361
1602.55746,0.17633
1604.48592,0.17837
1606.41439,0.17729
1608.34286,0.17687
1610.27133,0.17767
1612.19980,0.18004
1614.12827,0.18748
1616.05674,0.19731
1617.98521,0.19514
1619.91367,0.18778
1621.84214,0.18911
1623.77061,0.19488
1625.69908,0.19559
1627.62755,0.19354
1629.55602,0.19237
1631.48449,0.19419
1633.41295,0.20086
1635.34142,0.21150
1637.26989,0.21305
1639.19836,0.20675
1641.12683,0.20491
1643.05530,0.21024
1644.98377,0.22007
1646.91223,0.22606
1648.84070,0.22360
1650.76917,0.22734
1652.69764,0.23861
1654.62611,0.22704
1656.55458,0.20767
1658.48305,0.19882
1660.41152,0.19879
1662.33998,0.20041
1664.26845,0.19566
1666.19692,0.19347
1668.12539,0.20087
1670.05386,0.20864
1671.98233,0.20880
1673.91080,0.20796
1675.83926,0.20275
1677.76773,0.19890
1679.69620,0.20311
1681.62467,0.21038
1683.55314,0.21567
1685.48161,0.21106
1687.41008,0.20340
1689.33855,0.20007
1691.26701,0.19760
1693.19548,0.19581
1695.12395,0.19957
1697.05242,0.20939
1698.98089,0.21669
1700.90936,0.21441
1702.83783,0.20993
1704.76629,0.20872
1706.69476,0.20391
1708.62323,0.19693
1710.55170,0.19432
1712.48017,0.19714
1714.40864,0.20421
1716.33711,0.21059
1718.26558,0.20452
1720.19404,0.19287
1722.12251,0.18768
1724.05098,0.18631
1725.97945,0.18439
1727.90792,0.18408
1729.83639,0.18841
1731.76486,0.19518
1733.69332,0.19870
1735.62179,0.19628
1737.55026,0.19653
1739.47873,0.20042
1741.40720,0.20160
1743.33567,0.19989
1745.26414,0.20125
1747.19261,0.20462
1749.12107,0.20337
1751.04954,0.19773
1752.97801,0.19409
1754.90648,0.19233
1756.83495,0.19161
1758.76342,0.19316
1760.69189,0.19457
1762.62035,0.19234
1764.54882,0.19053
1766.47729,0.19190
1768.40576,0.19457
1770.33423,0.20074
1772.26270,0.20899
1774.19117,0.20662
1776.11964,0.19938
1778.04810,0.19817
1779.97657,0.19982
1781.90504,0.19719
1783.83351,0.19259
1785.76198,0.18871
1787.69045,0.18644
1789.61892,0.18995
1791.54738,0.19839
1793.47585,0.20175
1795.40432,0.19908
1797.33279,0.19553
1799.26126,0.19279
1801.18973,0.19157
1803.11820,0.18873
1805.04666,0.18603
1806.97513,0.18768
1808.90360,0.19185
1810.83207,0.19301
1812.76054,0.18970
1814.68901,0.18820
1816.61748,0.19134
1818.54595,0.19837
1820.47441,0.20575
1822.40288,0.20390
1824.33135,0.19496
1826.25982,0.19433
1828.18829,0.20105
1830.11676,0.20256
1832.04523,0.19753
1833.97369,0.19333
1835.90216,0.19120
1837.83063,0.18980
1839.75910,0.19028
1841.68757,0.19415
1843.61604,0.19745
1845.54451,0.19328
1847.47298,0.18779
1849.40144,0.18733
1851.32991,0.18955
1853.25838,0.19120
1855.18685,0.19101
1857.11532,0.18946
1859.04379,0.18773
1860.97226,0.18726
1862.90072,0.18860
1864.82919,0.19110
1866.75766,0.19556
1868.68613,0.19954
1870.61460,0.19582
1872.54307,0.18857
1874.47154,0.18545
1876.40001,0.18723
1878.32847,0.18981
1880.25694,0.18946
1882.18541,0.18753
1884.11388,0.18765
1886.04235,0.19037
1887.97082,0.19380
1889.89929,0.19396
1891.82775,0.18988
1893.75622,0.18748
1895.68469,0.18839
1897.61316,0.19050
1899.54163,0.19307
1901.47010,0.19322
1903.39857,0.19102
1905.32704,0.19020
1907.25550,0.19149
1909.18397,0.19289
1911.11244,0.19260
1913.04091,0.19217
1914.96938,0.19352
1916.89785,0.19518
1918.82632,0.19347
1920.75478,0.18970
1922.68325,0.18780
1924.61172,0.18675
1926.54019,0.18534
1928.46866,0.18481
1930.39713,0.18689
1932.32560,0.19078
1934.25407,0.19223
1936.18253,0.19037
1938.11100,0.18802
1940.03947,0.18618
1941.96794,0.18574
1943.89641,0.18761
1945.82488,0.18908
1947.75335,0.18952
1949.68181,0.19159
1951.61028,0.19346
1953.53875,0.19091
1955.46722,0.18705
1957.39569,0.18752
1959.32416,0.19013
1961.25263,0.19094
1963.18110,0.19095
1965.10956,0.19218
1967.03803,0.19338
1968.96650,0.19227
1970.89497,0.18930
1972.82344,0.18711
1974.75191,0.18848
1976.68038,0.19195
1978.60884,0.19389
1980.53731,0.19284
1982.46578,0.18870
1984.39425,0.18586
1986.32272,0.18803
1988.25119,0.19109
1990.17966,0.19138
1992.10812,0.18994
1994.03659,0.18670
1995.96506,0.18323
1997.89353,0.18342
1999.82200,0.18647
2001.75047,0.18796
2003.67894,0.18673
2005.60741,0.18462
2007.53587,0.18348
2009.46434,0.18349
2011.39281,0.18391
2013.32128,0.18669
2015.24975,0.19203
2017.17822,0.19470
2019.10669,0.19226
2021.03515,0.18797
2022.96362,0.18585
2024.89209,0.18764
2026.82056,0.19055
2028.74903,0.19104
2030.67750,0.18971
2032.60597,0.18979
2034.53444,0.19161
2036.46290,0.19136
2038.39137,0.18851
2040.31984,0.18695
2042.24831,0.18709
2044.17678,0.18691
2046.10525,0.18785
2048.03372,0.19016
2049.96218,0.19106
2051.89065,0.19121
2053.81912,0.19131
2055.74759,0.18900
2057.67606,0.18624
2059.60453,0.18789
2061.53300,0.19116
2063.46147,0.18978
2065.38993,0.18656
2067.31840,0.18742
2069.24687,0.19037
2071.17534,0.19157
2073.10381,0.19288
2075.03228,0.19504
2076.96075,0.19358
2078.88921,0.18941
2080.81768,0.18834
2082.74615,0.19048
2084.67462,0.19156
2086.60309,0.18934
2088.53156,0.18706
2090.46003,0.18698
2092.38850,0.18747
2094.31696,0.18915
2096.24543,0.19153
2098.17390,0.19173
2100.10237,0.18995
2102.03084,0.18912
2103.95931,0.19023
2105.88778,0.19130
2107.81624,0.19133
2109.74471,0.19173
2111.67318,0.19279
2113.60165,0.19172
2115.53012,0.18776
2117.45859,0.18499
2119.38706,0.18488
2121.31553,0.18509
2123.24399,0.18540
2125.17246,0.18673
2127.10093,0.18848
2129.02940,0.19021
2130.95787,0.19101
2132.88634,0.18950
2134.81481,0.18673
2136.74327,0.18601
2138.67174,0.18952
2140.60021,0.19457
2142.52868,0.19644
2144.45715,0.19475
2146.38562,0.19154
2148.31409,0.19057
2150.24255,0.19382
2152.17102,0.19581
2154.09949,0.19457
2156.02796,0.19382
2157.95643,0.19291
2159.88490,0.19082
2161.81337,0.18908
2163.74184,0.18882
2165.67030,0.19037
2167.59877,0.19168
2169.52724,0.19113
2171.45571,0.19015
2173.38418,0.18962
2175.31265,0.18903
2177.24112,0.18758
2179.16958,0.18588
2181.09805,0.18646
2183.02652,0.18943
2184.95499,0.19231
2186.88346,0.19307
2188.81193,0.19171
2190.74040,0.18985
2192.66887,0.18847
2194.59733,0.18756
2196.52580,0.18669
2198.45427,0.18492
2200.38274,0.18321
2202.31121,0.18348
2204.23968,0.18525
2206.16815,0.18891
2208.09661,0.19264
2210.02508,0.19123
2211.95355,0.18850
2213.88202,0.19073
2215.81049,0.19371
2217.73896,0.19288
2219.66743,0.18951
2221.59590,0.18501
2223.52436,0.18312
2225.45283,0.18632
2227.38130,0.19061
2229.30977,0.19354
2231.23824,0.19424
2233.16671,0.19204
2235.09518,0.18986
2237.02364,0.18958
2238.95211,0.19125
2240.88058,0.19421
2242.80905,0.19608
2244.73752,0.19512
2246.66599,0.19348
2248.59446,0.19338
2250.52293,0.19273
2252.45139,0.19014
2254.37986,0.18844
2256.30833,0.18976
2258.23680,0.19181
2260.16527,0.19161
2262.09374,0.18999
2264.02221,0.19037
2265.95067,0.19317
2267.87914,0.19447
2269.80761,0.19238
2271.73608,0.18949
2273.66455,0.18882
2275.59302,0.18839
2277.52149,0.18669
2279.44996,0.18786
2281.37842,0.19096
2283.30689,0.19072
2285.23536,0.18769
2287.16383,0.18597
2289.09230,0.18625
2291.02077,0.18595
2292.94924,0.18515
2294.87770,0.18574
2296.80617,0.18567
2298.73464,0.18342
2300.66311,0.18233
2302.59158,0.18257
2304.52005,0.18101
2306.44852,0.17839
2308.37699,0.17771
2310.30545,0.17975
2312.23392,0.18347
2314.16239,0.18677
2316.09086,0.18494
2318.01933,0.17867
2319.94780,0.17526
2321.87627,0.17267
2323.80473,0.16259
2325.73320,0.15622
2327.66167,0.16850
2329.59014,0.18275
2331.51861,0.18272
2333.44708,0.18254
2335.37555,0.19099
2337.30401,0.20018
2339.23248,0.20037
2341.16095,0.19266
2343.08942,0.18501
2345.01789,0.17968
2346.94636,0.17776
2348.87483,0.17711
2350.80330,0.17140
2352.73176,0.16120
2354.66023,0.16142
2356.58870,0.17500
2358.51717,0.19274
2360.44564,0.21019
2362.37411,0.20994
2364.30258,0.19072
2366.23104,0.17389
2368.15951,0.16594
2370.08798,0.16292
2372.01645,0.16582
2373.94492,0.17277
2375.87339,0.18013
2377.80186,0.18517
2379.73033,0.18768
2381.65879,0.18865
2383.58726,0.18796
2385.51573,0.18727
2387.44420,0.18696
2389.37267,0.18635
2391.30114,0.18772
2393.22961,0.19058
2395.15807,0.19194
2397.08654,0.19230
2399.01501,0.19193
2400.94348,0.19064
2402.87195,0.19026
2404.80042,0.19131
2406.72889,0.19270
2408.65736,0.19335
2410.58582,0.19332
2412.51429,0.19344
2414.44276,0.19296
2416.37123,0.19143
2418.29970,0.19073
2420.22817,0.19102
2422.15664,0.19052
2424.08510,0.18892
2426.01357,0.18793
2427.94204,0.18951
2429.87051,0.19210
2431.79898,0.19311
2433.72745,0.19201
2435.65592,0.19001
2437.58439,0.19001
2439.51285,0.19145
2441.44132,0.19017
2443.36979,0.18703
2445.29826,0.18732
2447.22673,0.19154
2449.15520,0.19466
2451.08367,0.19236
2453.01213,0.18677
2454.94060,0.18532
2456.86907,0.18916
2458.79754,0.19253
2460.72601,0.19346
2462.65448,0.19253
2464.58295,0.18958
2466.51142,0.18808
2468.43988,0.19210
2470.36835,0.19786
2472.29682,0.19799
2474.22529,0.19265
2476.15376,0.18914
2478.08223,0.19042
2480.01070,0.19316
2481.93916,0.19436
2483.86763,0.19272
2485.79610,0.19023
2487.72457,0.19073
2489.65304,0.19316
2491.58151,0.19374
2493.50998,0.19308
2495.43844,0.19223
2497.36691,0.19004
2499.29538,0.18786
2501.22385,0.18808
2503.15232,0.19097
2505.08079,0.19372
2507.00926,0.19414
2508.93773,0.19350
2510.86619,0.19163
2512.79466,0.18880
2514.72313,0.18809
2516.65160,0.18915
2518.58007,0.19024
2520.50854,0.19193
2522.43701,0.19360
2524.36547,0.19413
2526.29394,0.19404
2528.22241,0.19418
2530.15088,0.19376
2532.07935,0.19138
2534.00782,0.18829
2535.93629,0.18747
2537.86476,0.18900
2539.79322,0.19005
2541.72169,0.19087
2543.65016,0.19403
2545.57863,0.19678
2547.50710,0.19464
2549.43557,0.19004
2551.36404,0.18718
2553.29250,0.18717
2555.22097,0.18845
2557.14944,0.18861
2559.07791,0.18860
2561.00638,0.18859
2562.93485,0.18771
2564.86332,0.18826
2566.79179,0.19189
2568.72025,0.19556
2570.64872,0.19506
2572.57719,0.19366
2574.50566,0.19604
2576.43413,0.19813
2578.36260,0.19622
2580.29107,0.19382
2582.21953,0.19480
2584.14800,0.19737
2586.07647,0.19696
2588.00494,0.19469
2589.93341,0.19418
2591.86188,0.19320
2593.79035,0.19090
2595.71882,0.19041
2597.64728,0.19110
2599.57575,0.19092
2601.50422,0.18957
2603.43269,0.18799
2605.36116,0.18705
2607.28963,0.18813
2609.21810,0.19244
2611.14656,0.19470
2613.07503,0.19197
2615.00350,0.19037
2616.93197,0.19264
2618.86044,0.19595
2620.78891,0.19723
2622.71738,0.19622
2624.64585,0.19483
2626.57431,0.19345
2628.50278,0.19364
2630.43125,0.19576
2632.35972,0.19734
2634.28819,0.19816
2636.21666,0.19843
2638.14513,0.19773
2640.07359,0.19702
2642.00206,0.19715
2643.93053,0.19674
2645.85900,0.19608
2647.78747,0.19834
2649.71594,0.20177
2651.64441,0.20207
2653.57288,0.19934
2655.50134,0.19686
2657.42981,0.19588
2659.35828,0.19489
2661.28675,0.19443
2663.21522,0.19464
2665.14369,0.19475
2667.07216,0.19615
2669.00062,0.19799
2670.92909,0.19866
2672.85756,0.19931
2674.78603,0.20057
2676.71450,0.20124
2678.64297,0.20076
2680.57144,0.20048
2682.49990,0.19942
2684.42837,0.19571
2686.35684,0.19357
2688.28531,0.19618
2690.21378,0.19894
2692.14225,0.19886
2694.07072,0.19856
2695.99919,0.19772
2697.92765,0.19499
2699.85612,0.19263
2701.78459,0.19090
2703.71306,0.18958
2705.64153,0.19047
2707.57000,0.19419
2709.49847,0.20035
2711.42693,0.20580
2713.35540,0.20684
2715.28387,0.20474
2717.21234,0.20162
2719.14081,0.19873
2721.06928,0.19829
2722.99775,0.19774
2724.92622,0.19445
2726.85468,0.19315
2728.78315,0.19682
2730.71162,0.20120
2732.64009,0.20285
2734.56856,0.20390
2736.49703,0.20474
2738.42550,0.20397
2740.35396,0.20242
2742.28243,0.19987
2744.21090,0.19732
2746.13937,0.19645
2748.06784,0.19672
2749.99631,0.19676
2751.92478,0.19561
2753.85325,0.19472
2755.78171,0.19690
2757.71018,0.20154
2759.63865,0.20427
2761.56712,0.20485
2763.49559,0.20494
2765.42406,0.20338
2767.35253,0.20182
2769.28099,0.20045
2771.20946,0.19813
2773.13793,0.19708
2775.06640,0.19667
2776.99487,0.19769
2778.92334,0.20300
2780.85181,0.20819
2782.78028,0.20989
2784.70874,0.21090
2786.63721,0.21172
2788.56568,0.21118
2790.49415,0.20913
2792.42262,0.20572
2794.35109,0.20204
2796.27956,0.20028
2798.20802,0.20159
2800.13649,0.20441
2802.06496,0.20650
2803.99343,0.20702
2805.92190,0.20698
2807.85037,0.20595
2809.77884,0.20328
2811.70731,0.20149
2813.63577,0.20113
2815.56424,0.20097
2817.49271,0.20176
2819.42118,0.20332
2821.34965,0.20304
2823.27812,0.20177
2825.20659,0.20244
2827.13505,0.20497
2829.06352,0.20781
2830.99199,0.20886
2832.92046,0.20869
2834.84893,0.20892
2836.77740,0.20882
2838.70587,0.20753
2840.63433,0.20532
2842.56280,0.20337
2844.49127,0.20348
2846.41974,0.20656
2848.34821,0.20748
2850.27668,0.20308
2852.20515,0.19956
2854.13362,0.20097
2856.06208,0.20545
2857.99055,0.20963
2859.91902,0.21127
2861.84749,0.20926
2863.77596,0.20628
2865.70443,0.20795
2867.63290,0.21048
2869.56136,0.20738
2871.48983,0.20207
2873.41830,0.20010
2875.34677,0.20129
2877.27524,0.20308
2879.20371,0.20627
2881.13218,0.20836
2883.06065,0.20438
2884.98911,0.19982
2886.91758,0.20207
2888.84605,0.20776
2890.77452,0.21057
2892.70299,0.20973
2894.63146,0.20568
2896.55993,0.20152
2898.48839,0.20291
2900.41686,0.20753
2902.34533,0.20810
2904.27380,0.20180
2906.20227,0.19466
2908.13074,0.19403
2910.05921,0.19915
2911.98768,0.20440
2913.91614,0.20140
2915.84461,0.19297
2917.77308,0.19290
2919.70155,0.20034
2921.63002,0.20717
2923.55849,0.20752
2925.48696,0.19440
2927.41542,0.18143
2929.34389,0.18794
2931.27236,0.20218
2933.20083,0.20323
2935.12930,0.19026
2937.05777,0.17881
2938.98624,0.18243
2940.91471,0.19475
2942.84317,0.20288
2944.77164,0.20084
2946.70011,0.18960
2948.62858,0.18501
2950.55705,0.19443
2952.48552,0.20230
2954.41399,0.19896
2956.34245,0.18515
2958.27092,0.17376
2960.19939,0.18137
2962.12786,0.19846
2964.05633,0.20698
2965.98480,0.20312
2967.91327,0.19205
2969.84174,0.18580
2971.77020,0.19159
2973.69867,0.20408
2975.62714,0.20937
2977.55561,0.20146
2979.48408,0.19422
2981.41255,0.19610
2983.34102,0.19980
2985.26948,0.19821
2987.19795,0.18980
2989.12642,0.18632
2991.05489,0.19731
2992.98336,0.21065
2994.91183,0.21455
2996.84030,0.21157
2998.76877,0.21038
3000.69723,0.21477
3002.62570,0.21795
3004.55417,0.21439
3006.48264,0.20604
3008.41111,0.19688
3010.33958,0.18436
3012.26805,0.15905
3014.19651,0.12063
3016.12498,0.09101
3018.05345,0.10296
3019.98192,0.15284
3021.91039,0.19522
3023.83886,0.20826
3025.76733,0.20654
3027.69579,0.20476
3029.62426,0.20813
3031.55273,0.21334
3033.48120,0.21677
3035.40967,0.21777
3037.33814,0.21308
3039.26661,0.20917
3041.19508,0.21219
3043.12354,0.21342
3045.05201,0.20706
3046.98048,0.19899
3048.90895,0.20058
3050.83742,0.21226
3052.76589,0.21958
3054.69436,0.21183
3056.62282,0.19583
3058.55129,0.19268
3060.47976,0.20564
3062.40823,0.21607
3064.33670,0.21150
3066.26517,0.19756
3068.19364,0.19429
3070.12211,0.20452
3072.05057,0.21108
3073.97904,0.20644
3075.90751,0.19885
3077.83598,0.20094
3079.76445,0.20876
3081.69292,0.20625
3083.62139,0.18914
3085.54985,0.17789
3087.47832,0.18924
3089.40679,0.20359
3091.33526,0.20241
3093.26373,0.19077
3095.19220,0.18428
3097.12067,0.19505
3099.04914,0.21180
3100.97760,0.21475
3102.90607,0.20153
3104.83454,0.19226
3106.76301,0.19984
3108.69148,0.20994
3110.61995,0.20372
3112.54842,0.18828
3114.47688,0.18854
3116.40535,0.20093
3118.33382,0.20321
3120.26229,0.19542
3122.19076,0.19292
3124.11923,0.20024
3126.04770,0.20875
3127.97617,0.21214
3129.90463,0.20810
3131.83310,0.20426
3133.76157,0.20760
3135.69004,0.21013
3137.61851,0.20781
3139.54698,0.20748
3141.47545,0.21338
3143.40391,0.21936
3145.33238,0.21988
3147.26085,0.21621
3149.18932,0.21036
3151.11779,0.20618
3153.04626,0.20865
3154.97473,0.21682
3156.90320,0.22086
3158.83166,0.21592
3160.76013,0.21025
3162.68860,0.20992
3164.61707,0.21170
3166.54554,0.21323
3168.47401,0.21492
3170.40248,0.21458
3172.33094,0.21265
3174.25941,0.21353
3176.18788,0.21614
3178.11635,0.21707
3180.04482,0.21845
3181.97329,0.22212
3183.90176,0.22567
3185.83022,0.22467
3187.75869,0.21750
3189.68716,0.21385
3191.61563,0.21962
3193.54410,0.22468
3195.47257,0.22339
3197.40104,0.21913
3199.32951,0.21384
3201.25797,0.20942
3203.18644,0.20910
3205.11491,0.21374
3207.04338,0.21620
3208.97185,0.21412
3210.90032,0.21571
3212.82879,0.22262
3214.75725,0.22744
3216.68572,0.22471
3218.61419,0.21574
3220.54266,0.20685
3222.47113,0.20512
3224.39960,0.20848
3226.32807,0.20976
3228.25654,0.20802
3230.18500,0.20502
3232.11347,0.20285
3234.04194,0.20297
3235.97041,0.20450
3237.89888,0.20611
3239.82735,0.20644
3241.75582,0.20607
3243.68428,0.20642
3245.61275,0.20819
3247.54122,0.21125
3249.46969,0.21238
3251.39816,0.21054
3253.32663,0.20888
3255.25510,0.20839
3257.18357,0.20900
3259.11203,0.21016
3261.04050,0.21013
3262.96897,0.21113
3264.89744,0.21394
3266.82591,0.21336
3268.75438,0.21125
3270.68285,0.21269
3272.61131,0.21322
3274.53978,0.21139
3276.46825,0.21150
3278.39672,0.21191
3280.32519,0.21001
3282.25366,0.20987
3284.18213,0.21343
3286.11060,0.21564
3288.03906,0.21193
3289.96753,0.20442
3291.89600,0.20215
3293.82447,0.20874
3295.75294,0.21673
3297.68141,0.21806
3299.60988,0.21379
3301.53834,0.21160
3303.46681,0.21329
3305.39528,0.21581
3307.32375,0.21624
3309.25222,0.21448
3311.18069,0.21397
3313.10916,0.21400
3315.03763,0.21057
3316.96609,0.20508
3318.89456,0.20210
3320.82303,0.20142
3322.75150,0.20229
3324.67997,0.20693
3326.60844,0.21288
3328.53691,0.21431
3330.46537,0.21210
3332.39384,0.21101
3334.32231,0.21048
3336.25078,0.20912
3338.17925,0.20867
3340.10772,0.21095
3342.03619,0.21589
3343.96466,0.21888
3345.89312,0.21692
3347.82159,0.21369
3349.75006,0.21018
3351.67853,0.20698
3353.60700,0.20769
3355.53547,0.20984
3357.46394,0.21024
3359.39240,0.21009
3361.32087,0.21190
3363.24934,0.21533
3365.17781,0.21628
3367.10628,0.21618
3369.03475,0.21651
3370.96322,0.21634
3372.89168,0.21639
3374.82015,0.21295
3376.74862,0.20833
3378.67709,0.21196
3380.60556,0.21917
3382.53403,0.21781
3384.46250,0.21125
3386.39097,0.20884
3388.31943,0.20997
3390.24790,0.21189
3392.17637,0.21296
3394.10484,0.21285
3396.03331,0.21415
3397.96178,0.21571
3399.89025,0.21385
3401.81871,0.20934
3403.74718,0.20518
3405.67565,0.20322
3407.60412,0.20720
3409.53259,0.21526
3411.46106,0.21605
3413.38953,0.20867
3415.31800,0.20522
3417.24646,0.20895
3419.17493,0.21144
3421.10340,0.21174
3423.03187,0.21251
3424.96034,0.20761
3426.88881,0.20138
3428.81728,0.20494
3430.74574,0.21048
3432.67421,0.20523
3434.60268,0.19409
3436.53115,0.18769
3438.45962,0.18862
3440.38809,0.19595
3442.31656,0.20464
3444.24503,0.20832
3446.17349,0.20920
3448.10196,0.20777
3450.03043,0.20129
3451.95890,0.19483
3453.88737,0.19195
3455.81584,0.19025
3457.74431,0.18914
3459.67277,0.19158
3461.60124,0.19651
3463.52971,0.19698
3465.45818,0.19279
3467.38665,0.19059
3469.31512,0.19096
3471.24359,0.19023
3473.17206,0.18859
3475.10052,0.18661
3477.02899,0.18312
3478.95746,0.18093
3480.88593,0.18561
3482.81440,0.19464
3484.74287,0.19813
3486.67134,0.19446
3488.59980,0.18811
3490.52827,0.18320
3492.45674,0.18337
3494.38521,0.18638
3496.31368,0.18724
3498.24215,0.18484
3500.17062,0.18039
3502.09909,0.17608
3504.02755,0.17552
3505.95602,0.18042
3507.88449,0.18562
3509.81296,0.18647
3511.74143,0.18575
3513.66990,0.18276
3515.59837,0.17479
3517.52683,0.16856
3519.45530,0.16996
3521.38377,0.17443
3523.31224,0.17458
3525.24071,0.17220
3527.16918,0.17277
3529.09765,0.17283
3531.02611,0.16965
3532.95458,0.16652
3534.88305,0.16652
3536.81152,0.16962
3538.73999,0.17299
3540.66846,0.17679
3542.59693,0.17971
3544.52540,0.17874
3546.45386,0.17473
3548.38233,0.16904
3550.31080,0.16599
3552.23927,0.16666
3554.16774,0.16465
3556.09621,0.16068
3558.02468,0.15998
3559.95314,0.16162
3561.88161,0.16317
3563.81008,0.16608
3565.73855,0.17042
3567.66702,0.16989
3569.59549,0.16601
3571.52396,0.16538
3573.45243,0.16544
3575.38089,0.16214
3577.30936,0.15665
3579.23783,0.15368
3581.16630,0.15377
3583.09477,0.15600
3585.02324,0.16492
3586.95171,0.17856
3588.88017,0.17947
3590.80864,0.17060
3592.73711,0.16678
3594.66558,0.16788
3596.59405,0.16735
3598.52252,0.16601
3600.45099,0.16499
3602.37946,0.16254
3604.30792,0.16030
3606.23639,0.15759
3608.16486,0.15256
3610.09333,0.15093
3612.02180,0.15693
3613.95027,0.16212
3615.87874,0.15967
3617.80720,0.15411
3619.73567,0.14893
3621.66414,0.14615
3623.59261,0.14500
3625.52108,0.14646
3627.44955,0.15283
3629.37802,0.15382
3631.30649,0.14510
3633.23495,0.14124
3635.16342,0.14188
3637.09189,0.14166
3639.02036,0.14085
3640.94883,0.14049
3642.87730,0.13967
3644.80577,0.14144
3646.73423,0.15149
3648.66270,0.16807
3650.59117,0.16542
3652.51964,0.15007
3654.44811,0.14364
3656.37658,0.14173
3658.30505,0.13816
3660.23352,0.13949
3662.16198,0.14385
3664.09045,0.14258
3666.01892,0.13946
3667.94739,0.14192
3669.87586,0.14398
3671.80433,0.13985
3673.73280,0.14236
3675.66126,0.15070
3677.58973,0.14733
3679.51820,0.13814
3681.44667,0.13280
3683.37514,0.13255
3685.30361,0.13580
3687.23208,0.14191
3689.16055,0.14796
3691.08901,0.14476
3693.01748,0.13646
3694.94595,0.13278
3696.87442,0.13738
3698.80289,0.14737
3700.73136,0.15114
3702.65983,0.14113
3704.58829,0.13175
3706.51676,0.13216
3708.44523,0.13688
3710.37370,0.14136
3712.30217,0.14127
3714.23064,0.13696
3716.15911,0.13511
3718.08757,0.13663
3720.01604,0.13722
3721.94451,0.13397
3723.87298,0.12994
3725.80145,0.13145
3727.72992,0.13821
3729.65839,0.14241
3731.58686,0.14472
3733.51532,0.15337
3735.44379,0.16240
3737.37226,0.15598
3739.30073,0.14498
3741.22920,0.13989
3743.15767,0.14104
3745.08614,0.14227
3747.01460,0.13878
3748.94307,0.14331
3750.87154,0.15611
3752.80001,0.15085
3754.72848,0.13892
3756.65695,0.13825
3758.58542,0.14328
3760.51389,0.13978
3762.44235,0.13198
3764.37082,0.12878
3766.29929,0.12885
3768.22776,0.13415
3770.15623,0.14111
3772.08470,0.13895
3774.01317,0.13460
3775.94163,0.13450
3777.87010,0.13532
3779.79857,0.13290
3781.72704,0.12836
3783.65551,0.12725
3785.58398,0.12765
3787.51245,0.12330
3789.44092,0.11911
3791.36938,0.12155
3793.29785,0.12849
3795.22632,0.13691
3797.15479,0.14337
3799.08326,0.14643
3801.01173,0.14852
3802.94020,0.14693
3804.86866,0.14389
3806.79713,0.13892
3808.72560,0.12814
3810.65407,0.11907
3812.58254,0.11767
3814.51101,0.12395
3816.43948,0.13394
3818.36795,0.14201
3820.29641,0.14595
3822.22488,0.14038
3824.15335,0.13351
3826.08182,0.13299
3828.01029,0.13467
3829.93876,0.13418
3831.86723,0.13308
3833.79569,0.13607
3835.72416,0.14102
3837.65263,0.13987
3839.58110,0.13598
3841.50957,0.13469
3843.43804,0.12939
3845.36651,0.12170
3847.29498,0.11754
3849.22344,0.11894
3851.15191,0.12940
3853.08038,0.14554
3855.00885,0.14492
3856.93732,0.13635
3858.86579,0.12896
3860.79426,0.12481
3862.72272,0.12783
3864.65119,0.12962
3866.57966,0.12805
3868.50813,0.13806
3870.43660,0.15119
3872.36507,0.14589
3874.29354,0.13499
3876.22200,0.12728
3878.15047,0.12275
3880.07894,0.12528
3882.00741,0.12962
3883.93588,0.12787
3885.86435,0.12454
3887.79282,0.12520
3889.72129,0.13131
3891.64975,0.13747
3893.57822,0.13248
3895.50669,0.12527
3897.43516,0.12598
3899.36363,0.12989
3901.29210,0.12794
3903.22057,0.12117
3905.14903,0.11595
3907.07750,0.11373
3909.00597,0.11380
3910.93444,0.11516
3912.86291,0.11571
3914.79138,0.11400
3916.71985,0.11179
3918.64832,0.11409
3920.57678,0.11813
3922.50525,0.11934
3924.43372,0.11934
3926.36219,0.11754
3928.29066,0.11379
3930.21913,0.11036
3932.14760,0.10865
3934.07606,0.10964
3936.00453,0.11135
3937.93300,0.11202
3939.86147,0.11239
3941.78994,0.11223
3943.71841,0.11189
3945.64688,0.11291
3947.57535,0.11417
3949.50381,0.11336
3951.43228,0.11133
3953.36075,0.10961
3955.28922,0.10682
3957.21769,0.10461
3959.14616,0.10684
3961.07463,0.11142
3963.00309,0.11334
3964.93156,0.11234
3966.86003,0.11006
3968.78850,0.10769
3970.71697,0.10959
3972.64544,0.11429
3974.57391,0.11500
3976.50238,0.11167
3978.43084,0.10791
3980.35931,0.10721
3982.28778,0.10841
3984.21625,0.10801
3986.14472,0.10872
3988.07319,0.11046
3990.00166,0.11206
3991.93012,0.11557
3993.85859,0.11608
3995.78706,0.11094
3997.71553,0.10392
3999.64400,0.09748
4001.57247,0.09753
4003.50094,0.10295
4005.42941,0.10263
4007.35787,0.09662
4009.28634,0.09477
4011.21481,0.10123
4013.14328,0.11030
4015.07175,0.11224
4017.00022,0.10680
4018.92869,0.10156
4020.85715,0.09678
4022.78562,0.09109
4024.71409,0.09064
4026.64256,0.09639
4028.57103,0.10062
4030.49950,0.09968
4032.42797,0.09447
4034.35644,0.08901
4036.28490,0.08960
4038.21337,0.09647
4040.14184,0.10084
4042.07031,0.09955
4043.99878,0.10051
4045.92725,0.10167
4047.85572,0.09367
4049.78418,0.08416
4051.71265,0.08703
4053.64112,0.09962
4055.56959,0.10643
4057.49806,0.10194
4059.42653,0.09646
4061.35500,0.09480
4063.28346,0.09366
4065.21193,0.09515
4067.14040,0.09963
4069.06887,0.10161
4070.99734,0.10015
4072.92581,0.09835
4074.85428,0.09496
4076.78275,0.08913
4078.71121,0.08536
4080.63968,0.08819
4082.56815,0.09764
4084.49662,0.10473
4086.42509,0.10142
4088.35356,0.09192
4090.28203,0.08395
4092.21049,0.08191
4094.13896,0.08679
4096.06743,0.09516
4097.99590,0.09992
4099.92437,0.09774
4101.85284,0.09529
4103.78131,0.09931
4105.70978,0.10444
4107.63824,0.10327
4109.56671,0.09847
4111.49518,0.09411
4113.42365,0.08993
4115.35212,0.08426
4117.28059,0.07985
4119.20906,0.08281
4121.13752,0.08804
4123.06599,0.08800
4124.99446,0.08750
4126.92293,0.08796
4128.85140,0.08571
4130.77987,0.08500
4132.70834,0.08653
4134.63681,0.08470
4136.56527,0.08395
4138.49374,0.08860
4140.42221,0.09293
4142.35068,0.09459
4144.27915,0.09242
4146.20762,0.08581
4148.13609,0.08051
4150.06455,0.07872
4151.99302,0.07848
4153.92149,0.07973
4155.84996,0.08178
4157.77843,0.08313
4159.70690,0.08165
4161.63537,0.07692
4163.56384,0.07576
4165.49230,0.08203
4167.42077,0.08838
4169.34924,0.09032
4171.27771,0.08819
4173.20618,0.08334
4175.13465,0.08421
4177.06312,0.09135
4178.99158,0.08976
4180.92005,0.07585
4182.84852,0.06280
4184.77699,0.05959
4186.70546,0.06464
4188.63393,0.06996
4190.56240,0.07152
4192.49087,0.07402
4194.41933,0.08025
4196.34780,0.08653
4198.27627,0.08791
4200.20474,0.08248
4202.13321,0.07504
4204.06168,0.07308
4205.99015,0.07324
4207.91861,0.06701
4209.84708,0.05971
4211.77555,0.06178
4213.70402,0.06909
4215.63249,0.07332
4217.56096,0.07411
4219.48943,0.07120
4221.41789,0.06965
4223.34636,0.07544
4225.27483,0.08241
4227.20330,0.08600
4229.13177,0.08472
4231.06024,0.07715
4232.98871,0.07105
4234.91718,0.07427
4236.84564,0.08074
4238.77411,0.07800
4240.70258,0.06770
4242.63105,0.06097
4244.55952,0.05910
4246.48799,0.05961
4248.41646,0.06455
4250.34492,0.07167
4252.27339,0.07552
4254.20186,0.07653
4256.13033,0.07845
4258.05880,0.07932
4259.98727,0.07502
4261.91574,0.06926
4263.84421,0.06697
4265.77267,0.06540
4267.70114,0.06166
4269.62961,0.06014
4271.55808,0.06342
4273.48655,0.06667
4275.41502,0.06624
4277.34349,0.06367
4279.27195,0.06432
4281.20042,0.06782
4283.12889,0.06901
4285.05736,0.06950
4286.98583,0.06980
4288.91430,0.06462
4290.84277,0.05468
4292.77124,0.05112
4294.69970,0.05774
4296.62817,0.06402
4298.55664,0.06292
4300.48511,0.05690
4302.41358,0.05298
4304.34205,0.05443
4306.27052,0.05674
4308.19898,0.05806
4310.12745,0.05787
4312.05592,0.05164
4313.98439,0.04413
4315.91286,0.04640
4317.84133,0.05272
4319.76980,0.05123
4321.69827,0.04693
4323.62673,0.04710
4325.55520,0.04854
4327.48367,0.04729
4329.41214,0.04562
4331.34061,0.04702
4333.26908,0.04827
4335.19755,0.04842
4337.12601,0.05205
4339.05448,0.05442
4340.98295,0.04821
4342.91142,0.03994
4344.83989,0.03740
4346.76836,0.03852
4348.69683,0.04458
4350.62530,0.05435
4352.55376,0.05823
4354.48223,0.05458
4356.41070,0.04808
4358.33917,0.04341
4360.26764,0.04667
4362.19611,0.05473
4364.12458,0.05666
4366.05304,0.05196
4367.98151,0.04503
4369.90998,0.03737
4371.83845,0.03253
4373.76692,0.03271
4375.69539,0.03958
4377.62386,0.04794
4379.55232,0.05127
4381.48079,0.05336
4383.40926,0.05399
4385.33773,0.05125
4387.26620,0.04950
4389.19467,0.04828
4391.12314,0.04567
4393.05161,0.04243
4394.98007,0.03854
4396.90854,0.03680
4398.83701,0.03763
4400.76548,0.04081
4402.69395,0.04596
4404.62242,0.04811
4406.55089,0.04707
4408.47935,0.04234
4410.40782,0.03691
4412.33629,0.03762
4414.26476,0.04194
4416.19323,0.04641
4418.12170,0.04559
4420.05017,0.03818
4421.97864,0.03544
4423.90710,0.03769
4425.83557,0.03146
4427.76404,0.02157
4429.69251,0.02492
4431.62098,0.03460
4433.54945,0.03810
4435.47792,0.03937
4437.40638,0.04156
4439.33485,0.04300
4441.26332,0.04206
4443.19179,0.03754
4445.12026,0.03073
4447.04873,0.02634
4448.97720,0.02734
4450.90567,0.03188
4452.83413,0.03659
4454.76260,0.03731
4456.69107,0.03288
4458.61954,0.02938
4460.54801,0.03426
4462.47648,0.04400
4464.40495,0.04721
4466.33341,0.04170
4468.26188,0.03647
4470.19035,0.03576
4472.11882,0.03144
4474.04729,0.02114
4475.97576,0.01522
4477.90423,0.02113
4479.83270,0.03527
4481.76116,0.04259
4483.68963,0.03605
4485.61810,0.02842
4487.54657,0.02895
4489.47504,0.03137
4491.40351,0.02763
4493.33198,0.02194
4495.26044,0.01867
4497.18891,0.01519
4499.11738,0.01702
4501.04585,0.02509
4502.97432,0.03066
4504.90279,0.03237
4506.83126,0.03033
4508.75973,0.02577
4510.68819,0.02769
4512.61666,0.03561
4514.54513,0.03560
4516.47360,0.02785
4518.40207,0.02688
4520.33054,0.03049
4522.25901,0.02444
4524.18747,0.01048
4526.11594,0.00436
4528.04441,0.01265
4529.97288,0.02171
4531.90135,0.02021
4533.82982,0.01680
4535.75829,0.01801
4537.68676,0.02141
4539.61522,0.02509
4541.54369,0.02107
4543.47216,0.01235
4545.40063,0.01711
4547.32910,0.02872
4549.25757,0.03067
4551.18604,0.02829
4553.11450,0.02497
4555.04297,0.01930
4556.97144,0.01642
4558.89991,0.01890
4560.82838,0.02050
4562.75685,0.01463
4564.68532,0.00810
4566.61378,0.00989
4568.54225,0.01211
4570.47072,0.00546
4572.39919,0.00069
4574.32766,0.00498
4576.25613,0.00841
4578.18460,0.00894
4580.11307,0.00874
4582.04153,0.00850
4583.97000,0.01040
4585.89847,0.00890
4587.82694,0.00200
4589.75541,0.00136
4591.68388,0.01179
4593.61235,0.01781
4595.54081,0.01221
4597.46928,0.00776
4599.39775,0.00432
4601.32622,-0.00502
4603.25469,-0.00768
4605.18316,0.00182
4607.11163,0.00932
4609.04010,0.00987
4610.96856,0.01218
4612.89703,0.01924
4614.82550,0.02091
4616.75397,0.01641
4618.68244,0.01618
4620.61091,0.01673
4622.53938,0.01377
4624.46784,0.01358
4626.39631,0.01361
4628.32478,0.00852
4630.25325,0.00647
4632.18172,0.01076
4634.11019,0.01367
4636.03866,0.01687
4637.96713,0.02494
4639.89559,0.03455
4641.82406,0.03948
4643.75253,0.03242
4645.68100,0.02106
4647.60947,0.02174
4649.53794,0.02559
4651.46641,0.01805
4653.39487,0.00744
4655.32334,0.00586
4657.25181,0.00904
4659.18028,0.00678
4661.10875,0.00174
4663.03722,0.00125
4664.96569,0.00578
4666.89416,0.01048
4668.82262,0.01753
4670.75109,0.03390
4672.67956,0.04403
4674.60803,0.03166
4676.53650,0.01149
4678.46497,0.00463
4680.39344,0.00733
4682.32190,0.00386
4684.25037,-0.00080
4686.17884,0.00217
4688.10731,0.00612
4690.03578,0.00808
4691.96425,0.00745
4693.89272,0.00379
4695.82119,-0.00117
4697.74965,-0.00305
4699.67812,0.00677
4701.60659,0.01489
4703.53506,0.00498
4705.46353,-0.00534
4707.39200,-0.00103
4709.32047,0.01133
4711.24893,0.02216
4713.17740,0.02332
4715.10587,0.01403
4717.03434,0.00442
4718.96281,0.00595
4720.89128,0.01468
4722.81975,0.01477
4724.74821,0.00605
4726.67668,0.00149
4728.60515,-0.00028
4730.53362,-0.00665
4732.46209,-0.00721
4734.39056,0.00830
4736.31903,0.02523
4738.24750,0.02650
4740.17596,0.01476
4742.10443,0.00756
4744.03290,0.01350
4745.96137,0.01835
4747.88984,0.01952
4749.81831,0.02725
4751.74678,0.03089
4753.67524,0.01782
4755.60371,0.00367
4757.53218,0.00543
4759.46065,0.01359
4761.38912,0.01856
4763.31759,0.01517
4765.24606,0.00077
4767.17453,-0.00708
4769.10299,0.00169
4771.03146,0.01188
4772.95993,0.01264
4774.88840,0.00720
4776.81687,0.00286
4778.74534,0.00820
4780.67381,0.02191
4782.60227,0.02928
4784.53074,0.02073
4786.45921,0.00887
4788.38768,0.00966
4790.31615,0.01780
4792.24462,0.02304
4794.17309,0.02296
4796.10156,0.02031
4798.03002,0.01743
4799.95849,0.01401
4801.88696,0.00755
4803.81543,-0.00286
4805.74390,-0.00465
4807.67237,0.00284
4809.60084,0.00387
4811.52930,0.00423
4813.45777,0.01069
4815.38624,0.01123
4817.31471,0.00503
4819.24318,0.00136
4821.17165,0.00456
4823.10012,0.01318
4825.02859,0.01632
4826.95705,0.01308
4828.88552,0.01725
4830.81399,0.02553
4832.74246,0.02480
4834.67093,0.02117
4836.59940,0.02409
4838.52787,0.02345
4840.45633,0.01119
4842.38480,-0.00090
4844.31327,-0.00416
4846.24174,-0.00840
4848.17021,-0.01709
4850.09868,-0.01710
4852.02715,-0.00768
4853.95562,-0.00287
4855.88408,-0.00484
4857.81255,-0.00910
4859.74102,-0.01145
4861.66949,-0.00309
4863.59796,0.00838
4865.52643,0.00483
4867.45490,-0.00664
4869.38336,-0.00706
4871.31183,0.00488
4873.24030,0.02020
4875.16877,0.02995
4877.09724,0.02932
4879.02571,0.01941
4880.95418,0.00754
4882.88265,0.00895
4884.81111,0.02374
4886.73958,0.03022
4888.66805,0.02079
4890.59652,0.01042
4892.52499,0.00987
4894.45346,0.01065
4896.38193,0.00812
4898.31039,0.01272
4900.23886,0.01999
4902.16733,0.01760
4904.09580,0.00756
4906.02427,0.00095
4907.95274,0.00569
4909.88121,0.01405
4911.80967,0.02045
4913.73814,0.03315
4915.66661,0.04901
4917.59508,0.04577
4919.52355,0.01548
4921.45202,-0.00957
4923.38049,-0.00462
4925.30896,0.01486
4927.23742,0.03172
4929.16589,0.03627
4931.09436,0.02413
4933.02283,0.01150
4934.95130,0.00942
4936.87977,0.01127
4938.80824,0.01082
4940.73670,0.00800
4942.66517,0.00958
4944.59364,0.01351
4946.52211,0.01703
4948.45058,0.02083
4950.37905,0.01508
4952.30752,0.00519
4954.23599,0.00651
4956.16445,0.01317
4958.09292,0.01767
4960.02139,0.02121
4961.94986,0.01324
4963.87833,-0.00422
4965.80680,-0.00418
4967.73527,0.01339
4969.66373,0.02694
4971.59220,0.03180
4973.52067,0.02958
4975.44914,0.02575
4977.37761,0.02441
4979.30608,0.01755
4981.23455,0.00718
4983.16302,0.00356
4985.09148,0.00601
4987.01995,0.00848
4988.94842,0.00496
4990.87689,-0.00003
4992.80536,-0.00288
4994.73383,-0.01387
4996.66230,-0.02302
4998.59076,-0.00300
5000.51923,0.03042
5002.44770,0.03873
5004.37617,0.02441
5006.30464,0.01310
5008.23311,0.01333
5010.16158,0.01890
5012.09005,0.01984
5014.01851,0.01272
5015.94698,0.00178
5017.87545,-0.00375
5019.80392,-0.00341
5021.73239,-0.00359
5023.66086,0.00082
5025.58933,0.02035
5027.51779,0.04448
5029.44626,0.04899
5031.37473,0.03259
5033.30320,0.01451
5035.23167,0.01185
5037.16014,0.02665
5039.08861,0.04332
5041.01708,0.04315
5042.94554,0.03246
5044.87401,0.02628
5046.80248,0.01997
5048.73095,0.01816
5050.65942,0.02763
5052.58789,0.02582
5054.51636,0.00451
5056.44482,-0.00580
5058.37329,0.00846
5060.30176,0.01668
5062.23023,0.00890
5064.15870,0.01240
5066.08717,0.02506
5068.01564,0.03045
5069.94410,0.03371
5071.87257,0.03917
5073.80104,0.04407
5075.72951,0.04323
5077.65798,0.04097
5079.58645,0.04221
5081.51492,0.03664
5083.44339,0.02697
5085.37185,0.02374
5087.30032,0.02178
5089.22879,0.02127
5091.15726,0.02934
5093.08573,0.03498
5095.01420,0.02906
5096.94267,0.01948
5098.87113,0.01761
5100.79960,0.03069
5102.72807,0.04178
5104.65654,0.03316
5106.58501,0.01714
5108.51348,0.01019
5110.44195,0.01810
5112.37042,0.03034
5114.29888,0.03580
5116.22735,0.03408
5118.15582,0.01498
5120.08429,-0.00592
5122.01276,0.00108
5123.94123,0.01918
5125.86970,0.02603
5127.79816,0.02625
5129.72663,0.02307
5131.65510,0.02230
5133.58357,0.02797
5135.51204,0.02589
5137.44051,0.01632
5139.36898,0.01396
5141.29745,0.01883
5143.22591,0.02564
5145.15438,0.02496
5147.08285,0.01753
5149.01132,0.01952
5150.93979,0.03069
5152.86826,0.04057
5154.79673,0.03934
5156.72519,0.03044
5158.65366,0.03444
5160.58213,0.03944
5162.51060,0.02884
5164.43907,0.01745
5166.36754,0.01420
5168.29601,0.02456
5170.22448,0.04357
5172.15294,0.05472
5174.08141,0.05423
5176.00988,0.03997
5177.93835,0.02650
5179.86682,0.03095
5181.79529,0.04644
5183.72376,0.05690
5185.65222,0.04606
5187.58069,0.02728
5189.50916,0.02923
5191.43763,0.04143
5193.36610,0.04184
5195.29457,0.03786
5197.22304,0.03736
5199.15151,0.04194
5201.07997,0.05736
5203.00844,0.06245
5204.93691,0.04008
5206.86538,0.01793
5208.79385,0.01915
5210.72232,0.02945
5212.65079,0.03616
5214.57925,0.04302
5216.50772,0.05156
5218.43619,0.04709
5220.36466,0.02874
5222.29313,0.00803
5224.22160,-0.01001
5226.15007,-0.00890
5228.07854,0.01226
5230.00700,0.02966
5231.93547,0.03626
5233.86394,0.04023
5235.79241,0.04518
5237.72088,0.04553
5239.64935,0.04386
5241.57782,0.04934
5243.50628,0.05476
5245.43475,0.05930
5247.36322,0.07936
5249.29169,0.09340
5251.22016,0.07229
5253.14863,0.05198
5255.07710,0.06556
5257.00556,0.08428
5258.93403,0.07770
5260.86250,0.06193
5262.79097,0.06260
5264.71944,0.06790
5266.64791,0.06155
5268.57638,0.06062
5270.50485,0.06762
5272.43331,0.06730
5274.36178,0.05688
5276.29025,0.04325
5278.21872,0.03686
5280.14719,0.03998
5282.07566,0.04168
5284.00413,0.03744
5285.93259,0.03602
5287.86106,0.04197
5289.78953,0.05315
5291.71800,0.06105
5293.64647,0.06099
5295.57494,0.06838
5297.50341,0.08197
5299.43188,0.07759
5301.36034,0.06413
5303.28881,0.07352
5305.21728,0.08572
5307.14575,0.06779
5309.07422,0.04100
5311.00269,0.02788
5312.93116,0.03227
5314.85962,0.05647
5316.78809,0.07009
5318.71656,0.05314
5320.64503,0.03347
5322.57350,0.02736
5324.50197,0.03415
5326.43044,0.05495
5328.35891,0.06532
5330.28737,0.05709
5332.21584,0.05050
5334.14431,0.04125
5336.07278,0.03137
5338.00125,0.03871
5339.92972,0.05863
5341.85819,0.07062
5343.78665,0.05768
5345.71512,0.03510
5347.64359,0.03952
5349.57206,0.05695
5351.50053,0.06823
5353.42900,0.06833
5355.35747,0.05689
5357.28594,0.05756
5359.21440,0.08231
5361.14287,0.10547
5363.07134,0.09113
5364.99981,0.05629
5366.92828,0.05140
5368.85675,0.06869
5370.78522,0.07102
5372.71368,0.05484
5374.64215,0.04085
5376.57062,0.04324
5378.49909,0.05475
5380.42756,0.07017
5382.35603,0.08149
5384.28450,0.06643
5386.21297,0.03827
5388.14143,0.03453
5390.06990,0.04505
5391.99837,0.05037
5393.92684,0.05235
5395.85531,0.05861
5397.78378,0.06395
5399.71225,0.05632
5401.64071,0.04406
5403.56918,0.05354
5405.49765,0.07020
5407.42612,0.05717
5409.35459,0.03307
5411.28306,0.03143
5413.21153,0.03563
5415.13999,0.02707
5417.06846,0.02815
5418.99693,0.04363
5420.92540,0.05771
5422.85387,0.06356
5424.78234,0.05849
5426.71081,0.04854
5428.63928,0.04175
5430.56774,0.03668
5432.49621,0.04302
5434.42468,0.06128
5436.35315,0.06388
5438.28162,0.05128
5440.21009,0.04944
5442.13856,0.06186
5444.06702,0.06740
5445.99549,0.06809
5447.92396,0.08726
5449.85243,0.09983
5451.78090,0.08659
5453.70937,0.07769
5455.63784,0.08850
5457.56631,0.10820
5459.49477,0.10615
5461.42324,0.07962
5463.35171,0.06220
5465.28018,0.05961
5467.20865,0.06440
5469.13712,0.07511
5471.06559,0.07305
5472.99405,0.05580
5474.92252,0.03987
5476.85099,0.03278
5478.77946,0.04078
5480.70793,0.06410
5482.63640,0.07948
5484.56487,0.07127
5486.49334,0.06320
5488.42180,0.07112
5490.35027,0.07967
5492.27874,0.08456
5494.20721,0.08347
5496.13568,0.06862
5498.06415,0.05234
5499.99262,0.05650
5501.92108,0.08069
5503.84955,0.09450
5505.77802,0.07924
5507.70649,0.05121
5509.63496,0.03682
5511.56343,0.04733
5513.49190,0.06642
5515.42037,0.07131
5517.34883,0.08903
5519.27730,0.13021
5521.20577,0.15452
5523.13424,0.14599
5525.06271,0.11595
5526.99118,0.08550
5528.91965,0.05347
5530.84811,0.01849
5532.77658,0.01732
5534.70505,0.04725
5536.63352,0.06430
5538.56199,0.05180
5540.49046,0.03589
5542.41893,0.05183
5544.34740,0.07973
5546.27586,0.07422
5548.20433,0.05095
5550.13280,0.04334
5552.06127,0.05465
5553.98974,0.08012
5555.91821,0.08960
5557.84668,0.06579
5559.77514,0.04315
5561.70361,0.03885
5563.63208,0.04131
5565.56055,0.04720
5567.48902,0.05439
5569.41749,0.06920
5571.34596,0.09681
5573.27443,0.11139
5575.20289,0.10699
5577.13136,0.09995
5579.05983,0.08483
5580.98830,0.07795
5582.91677,0.09055
5584.84524,0.10026
5586.77371,0.09572
5588.70217,0.07561
5590.63064,0.05918
5592.55911,0.06019
5594.48758,0.05346
5596.41605,0.03010
5598.34452,0.02242
5600.27299,0.05028
5602.20145,0.09747
5604.12992,0.12753
5606.05839,0.11424
5607.98686,0.09438
5609.91533,0.11573
5611.84380,0.14167
5613.77227,0.13156
5615.70074,0.12314
5617.62920,0.13575
5619.55767,0.13241
5621.48614,0.08985
5623.41461,0.03177
5625.34308,0.00842
5627.27155,0.04582
5629.20002,0.09491
5631.12848,0.10627
5633.05695,0.09933
5634.98542,0.08900
5636.91389,0.07436
5638.84236,0.06723
5640.77083,0.04934
5642.69930,0.01377
5644.62777,-0.00527
5646.55623,-0.00130
5648.48470,0.02204
5650.41317,0.06441
5652.34164,0.08774
5654.27011,0.09159
5656.19858,0.10235
5658.12705,0.09962
5660.05551,0.08527
5661.98398,0.08691
5663.91245,0.08959
5665.84092,0.07788
5667.76939,0.06699
5669.69786,0.06043
5671.62633,0.04947
5673.55480,0.04004
5675.48326,0.05309
5677.41173,0.08778
5679.34020,0.10082
5681.26867,0.08616
5683.19714,0.08704
5685.12561,0.10461
5687.05408,0.11475
5688.98254,0.11643
5690.91101,0.10468
5692.83948,0.07734
5694.76795,0.05895
5696.69642,0.05889
5698.62489,0.05849
5700.55336,0.06539
5702.48183,0.08301
5704.41029,0.09722
5706.33876,0.12153
5708.26723,0.13264
5710.19570,0.10468
5712.12417,0.07655
5714.05264,0.05919
5715.98111,0.04844
5717.90957,0.05027
5719.83804,0.04753
5721.76651,0.05791
5723.69498,0.08035
5725.62345,0.08127
5727.55192,0.07716
5729.48039,0.09203
5731.40886,0.11816
5733.33732,0.13198
5735.26579,0.10269
5737.19426,0.04164
5739.12273,0.00479
5741.05120,0.00823
5742.97967,0.02722
5744.90814,0.05198
5746.83660,0.07446
5748.76507,0.09829
5750.69354,0.13050
5752.62201,0.13764
5754.55048,0.12356
5756.47895,0.12269
5758.40742,0.12150
5760.33588,0.10263
5762.26435,0.07898
5764.19282,0.06973
5766.12129,0.06266
5768.04976,0.04966
5769.97823,0.05287
5771.90670,0.06062
5773.83517,0.05504
5775.76363,0.04976
5777.69210,0.05064
5779.62057,0.05624
5781.54904,0.06224
5783.47751,0.07552
5785.40598,0.09250
5787.33445,0.08916
5789.26291,0.06518
5791.19138,0.03532
5793.11985,0.03077
5795.04832,0.05174
5796.97679,0.04548
5798.90526,0.02532
5800.83373,0.04822
5802.76220,0.09439
5804.69066,0.09929
5806.61913,0.06277
5808.54760,0.05623
5810.47607,0.09196
5812.40454,0.10903
5814.33301,0.10471
5816.26148,0.11150
5818.18994,0.12267
5820.11841,0.14018
5822.04688,0.15099
5823.97535,0.13837
5825.90382,0.14178
5827.83229,0.16910
5829.76076,0.16891
5831.68923,0.13519
5833.61769,0.10469
5835.54616,0.08723
5837.47463,0.07645
5839.40310,0.06259
5841.33157,0.05003
5843.26004,0.05561
5845.18851,0.05664
5847.11697,0.04691
5849.04544,0.06930
5850.97391,0.11089
5852.90238,0.13176
5854.83085,0.12590
5856.75932,0.07911
5858.68779,0.02350
5860.61626,0.01961
5862.54472,0.04856
5864.47319,0.06775
5866.40166,0.09353
5868.33013,0.11747
5870.25860,0.10923
5872.18707,0.09159
5874.11554,0.08663
5876.04400,0.10750
5877.97247,0.14237
5879.90094,0.13373
5881.82941,0.09564
5883.75788,0.08289
5885.68635,0.07823
5887.61482,0.06730
5889.54329,0.07533
5891.47175,0.09085
5893.40022,0.08596
5895.32869,0.07097
5897.25716,0.07210
5899.18563,0.09948
5901.11410,0.12114
5903.04257,0.09896
5904.97103,0.06743
5906.89950,0.06862
5908.82797,0.08629
5910.75644,0.10571
5912.68491,0.11527
5914.61338,0.09790
5916.54185,0.09602
5918.47032,0.14350
5920.39878,0.17629
5922.32725,0.14694
5924.25572,0.08397
5926.18419,0.02198
5928.11266,0.00023
5930.04113,0.01657
5931.96960,0.02559
5933.89806,0.03463
5935.82653,0.05116
5937.75500,0.05055
5939.68347,0.05414
5941.61194,0.07413
5943.54041,0.07916
5945.46888,0.06846
5947.39734,0.06637
5949.32581,0.07602
5951.25428,0.08302
5953.18275,0.07739
5955.11122,0.08093
5957.03969,0.11710
5958.96816,0.14934
5960.89663,0.14684
5962.82509,0.14634
5964.75356,0.15774
5966.68203,0.16004
5968.61050,0.14924
5970.53897,0.13392
5972.46744,0.12590
5974.39591,0.12372
5976.32437,0.11853
5978.25284,0.11157
5980.18131,0.09998
5982.10978,0.08409
5984.03825,0.08697
5985.96672,0.10911
5987.89519,0.12349
5989.82366,0.13357
5991.75212,0.14647
5993.68059,0.16095
5995.60906,0.15936
5997.53753,0.11800
5999.46600,0.07426
6001.39447,0.04893
6003.32294,0.01852
6005.25140,0.01791
6007.17987,0.07414
6009.10834,0.10445
6011.03681,0.07546
6012.96528,0.05090
6014.89375,0.05880
6016.82222,0.09725
6018.75069,0.13997
6020.67915,0.14345
6022.60762,0.11988
6024.53609,0.09039
6026.46456,0.06576
6028.39303,0.05766
6030.32150,0.04483
6032.24997,0.02410
6034.17843,0.03627
6036.10690,0.06450
6038.03537,0.06469
6039.96384,0.06452
6041.89231,0.08254
6043.82078,0.09563
6045.74925,0.08296
6047.67772,0.03404
6049.60618,-0.01312
6051.53465,0.00148
6053.46312,0.05251
6055.39159,0.08127
6057.32006,0.06982
6059.24853,0.04810
6061.17700,0.07105
6063.10546,0.10658
6065.03393,0.08607
6066.96240,0.06493
6068.89087,0.07447
6070.81934,0.07118
6072.74781,0.05751
6074.67628,0.05728
6076.60475,0.07801
6078.53321,0.11882
6080.46168,0.14776
6082.39015,0.13277
6084.31862,0.08477
6086.24709,0.04313
6088.17556,0.05725
6090.10403,0.11886
6092.03249,0.16755
6093.96096,0.18689
6095.88943,0.15995
6097.81790,0.08394
6099.74637,0.04183
6101.67484,0.06053
6103.60331,0.07465
6105.53177,0.05530
6107.46024,0.05554
6109.38871,0.12234
6111.31718,0.18084
6113.24565,0.16474
6115.17412,0.11595
6117.10259,0.09368
6119.03106,0.11182
6120.95952,0.11238
6122.88799,0.04916
6124.81646,-0.02782
6126.74493,-0.03343
6128.67340,0.04520
6130.60187,0.12758
6132.53034,0.14545
6134.45880,0.12743
6136.38727,0.10152
6138.31574,0.06034
6140.24421,0.03660
6142.17268,0.02975
6144.10115,0.02329
6146.02962,0.05853
6147.95809,0.11026
6149.88655,0.12602
6151.81502,0.14431
6153.74349,0.19717
6155.67196,0.22597
6157.60043,0.20810
6159.52890,0.18532
6161.45737,0.18274
6163.38583,0.17482
6165.31430,0.12844
6167.24277,0.08997
6169.17124,0.11249
6171.09971,0.13303
6173.02818,0.09227
6174.95665,0.04760
6176.88512,0.04962
6178.81358,0.08324
6180.74205,0.08877
6182.67052,0.04519
6184.59899,0.02334
6186.52746,0.07392
6188.45593,0.13136
6190.38440,0.11545
6192.31286,0.08758
6194.24133,0.11622
6196.16980,0.16277
6198.09827,0.16757
6200.02674,0.13724
6201.95521,0.12112
6203.88368,0.12745
6205.81215,0.12079
6207.74061,0.11832
6209.66908,0.14249
6211.59755,0.14799
6213.52602,0.12695
6215.45449,0.10677
6217.38296,0.07861
6219.31143,0.04399
6221.23989,0.00678
6223.16836,-0.03213
6225.09683,-0.04340
6227.02530,-0.02534
6228.95377,0.01301
6230.88224,0.08577
6232.81071,0.15172
6234.73918,0.15403
6236.66764,0.11291
6238.59611,0.08767
6240.52458,0.10259
6242.45305,0.11553
6244.38152,0.09477
6246.30999,0.07305
6248.23846,0.07500
6250.16692,0.08377
6252.09539,0.08957
6254.02386,0.10595
6255.95233,0.14225
6257.88080,0.15214
6259.80927,0.11384
6261.73774,0.08839
6263.66621,0.10639
6265.59467,0.15117
6267.52314,0.16398
6269.45161,0.10707
6271.38008,0.03777
6273.30855,0.00878
6275.23702,-0.00274
6277.16549,-0.02887
6279.09395,-0.02634
6281.02242,0.01550
6282.95089,0.03392
6284.87936,0.00899
6286.80783,0.00336
6288.73630,0.04230
6290.66477,0.08110
6292.59323,0.09755
6294.52170,0.10769
6296.45017,0.11203
6298.37864,0.08936
6300.30711,0.04638
6302.23558,0.02021
6304.16405,0.02979
6306.09252,0.06790
6308.02098,0.09697
6309.94945,0.08985
6311.87792,0.06479
6313.80639,0.05930
6315.73486,0.08662
6317.66333,0.10988
6319.59180,0.11736
6321.52026,0.12738
6323.44873,0.12816
6325.37720,0.10925
6327.30567,0.06697
6329.23414,0.02404
6331.16261,0.02464
6333.09108,0.03671
6335.01955,0.00815
6336.94801,-0.03037
6338.87648,-0.00986
6340.80495,0.07205
6342.73342,0.12674
6344.66189,0.11076
6346.59036,0.06607
6348.51883,0.03388
6350.44729,0.02849
6352.37576,0.05231
6354.30423,0.09941
6356.23270,0.17329
6358.16117,0.20621
6360.08964,0.12633
6362.01811,0.04643
6363.94658,0.03139
6365.87504,-0.00238
6367.80351,-0.02653
6369.73198,-0.00276
6371.66045,0.05404
6373.58892,0.11992
6375.51739,0.12336
6377.44586,0.08992
6379.37432,0.05631
6381.30279,-0.00908
6383.23126,-0.07458
6385.15973,-0.04682
6387.08820,0.05210
6389.01667,0.15442
6390.94514,0.21925
6392.87361,0.21226
6394.80207,0.15707
6396.73054,0.10709
6398.65901,0.06812
6400.58748,0.03503
6402.51595,0.02748
6404.44442,0.05447
6406.37289,0.08046
6408.30135,0.08407
6410.22982,0.07687
6412.15829,0.07738
6414.08676,0.10089
6416.01523,0.10308
6417.94370,0.03730
6419.87217,-0.02605
6421.80064,-0.02019
6423.72910,0.02172
6425.65757,0.07102
6427.58604,0.08932
6429.51451,0.06094
6431.44298,0.04948
6433.37145,0.05989
6435.29992,0.06387
6437.22838,0.08845
6439.15685,0.10265
6441.08532,0.10710
6443.01379,0.13023
6444.94226,0.10603
6446.87073,0.04134
6448.79920,0.03178
6450.72766,0.08967
6452.65613,0.12462
6454.58460,0.08544
6456.51307,0.02241
6458.44154,0.01721
6460.37001,0.07597
6462.29848,0.14245
6464.22695,0.16295
6466.15541,0.10368
6468.08388,0.01925
6470.01235,0.01578
6471.94082,0.07418
6473.86929,0.11873
6475.79776,0.12735
6477.72623,0.06905
6479.65469,-0.03937
6481.58316,-0.10560
6483.51163,-0.06577
6485.44010,0.02720
6487.36857,0.07908
6489.29704,0.07662
6491.22551,0.06969
6493.15398,0.06135
6495.08244,0.05368
6497.01091,0.07298
6498.93938,0.10406
6500.86785,0.11927
6502.79632,0.08823
6504.72479,0.01783
6506.65326,-0.02753
6508.58172,-0.02360
6510.51019,-0.00568
6512.43866,0.02113
6514.36713,0.08177
6516.29560,0.13816
6518.22407,0.13848
6520.15254,0.12940
6522.08101,0.15176
6524.00947,0.18330
6525.93794,0.21158
6527.86641,0.22324
6529.79488,0.19673
6531.72335,0.11926
6533.65182,0.02208
6535.58029,0.01254
6537.50875,0.11346
6539.43722,0.18581
6541.36569,0.14871
6543.29416,0.09731
6545.22263,0.12793
6547.15110,0.17704
6549.07957,0.18769
6551.00804,0.18726
6552.93650,0.16387
6554.86497,0.11244
6556.79344,0.05794
6558.72191,-0.00156
6560.65038,-0.01876
6562.57885,0.00956
6564.50732,0.00953
6566.43578,-0.01418
6568.36425,0.01094
6570.29272,0.12109
6572.22119,0.23048
6574.14966,0.19927
6576.07813,0.08123
6578.00660,0.01923
6579.93507,0.00287
6581.86353,-0.01781
6583.79200,-0.02427
6585.72047,-0.02329
6587.64894,0.01295
6589.57741,0.06836
6591.50588,0.06072
6593.43435,0.04219
6595.36281,0.08850
6597.29128,0.15267
6599.21975,0.18163
6601.14822,0.15155
6603.07669,0.11390
6605.00516,0.11324
6606.93363,0.10290
6608.86210,0.04462
6610.79056,0.00285
6612.71903,0.02306
6614.64750,0.05716
6616.57597,0.11258
6618.50444,0.19301
6620.43291,0.22551
6622.36138,0.18601
6624.28984,0.11982
6626.21831,0.08705
6628.14678,0.10097
6630.07525,0.13377
6632.00372,0.14710
6633.93219,0.12405
6635.86066,0.08243
6637.78912,0.04413
6639.71759,0.05419
6641.64606,0.12881
6643.57453,0.17875
6645.50300,0.16977
6647.43147,0.13198
6649.35994,0.07833
6651.28841,0.04498
6653.21687,0.02191
6655.14534,0.01371
6657.07381,0.07264
6659.00228,0.15130
6660.93075,0.16521
6662.85922,0.14675
6664.78769,0.14330
6666.71615,0.13899
6668.64462,0.10769
6670.57309,0.03789
6672.50156,-0.02368
6674.43003,-0.00048
6676.35850,0.06882
6678.28697,0.14469
6680.21544,0.22805
6682.14390,0.24372
6684.07237,0.14873
6686.00084,0.04025
6687.92931,0.02725
6689.85778,0.09659
6691.78625,0.10445
6693.71472,0.04796
6695.64318,0.06527
6697.57165,0.16268
6699.50012,0.18286
6701.42859,0.12198
6703.35706,0.07273
6705.28553,0.06111
6707.21400,0.10224
6709.14247,0.12689
6711.07093,0.06511
6712.99940,-0.02030
6714.92787,-0.05275
6716.85634,0.00915
6718.78481,0.13217
6720.71328,0.21208
6722.64175,0.23008
6724.57021,0.24020
6726.49868,0.21676
6728.42715,0.15992
6730.35562,0.12306
6732.28409,0.09936
6734.21256,0.09812
6736.14103,0.11603
6738.06950,0.04689
6739.99796,-0.07346
6741.92643,-0.07260
6743.85490,0.02976
6745.78337,0.07586
6747.71184,0.03268
6749.64031,0.00339
6751.56878,0.06314
6753.49724,0.13614
6755.42571,0.13115
6757.35418,0.09269
6759.28265,0.11575
6761.21112,0.18114
6763.13959,0.17507
6765.06806,0.09883
6766.99653,0.06557
6768.92499,0.13593
6770.85346,0.22105
6772.78193,0.23255
6774.71040,0.19803
6776.63887,0.10220
6778.56734,-0.05076
6780.49581,-0.12311
6782.42427,-0.05523
6784.35274,0.07801
6786.28121,0.17687
6788.20968,0.17941
6790.13815,0.09679
6792.06662,0.01754
6793.99509,0.06063
6795.92355,0.14501
6797.85202,0.10741
6799.78049,0.03252
6801.70896,0.09732
6803.63743,0.22844
6805.56590,0.21244
6807.49437,0.12276
6809.42284,0.11737
6811.35130,0.14340
6813.27977,0.11326
6815.20824,0.07376
6817.13671,0.07776
6819.06518,0.11139
6820.99365,0.11108
6822.92212,0.07278
6824.85058,0.09847
6826.77905,0.14644
6828.70752,0.10377
6830.63599,0.00880
6832.56446,-0.04901
6834.49293,-0.04413
6836.42140,0.02403
6838.34987,0.07838
6840.27833,0.08922
6842.20680,0.06662
6844.13527,0.03155
6846.06374,0.07984
6847.99221,0.16342
6849.92068,0.10201
6851.84915,0.01972
6853.77761,0.02360
6855.70608,0.03201
6857.63455,0.08905
6859.56302,0.17693
6861.49149,0.19076
6863.41996,0.18050
6865.34843,0.19063
6867.27690,0.11901
6869.20536,-0.02425
6871.13383,-0.10914
6873.06230,-0.12490
6874.99077,-0.09706
6876.91924,-0.04687
6878.84771,-0.00636
6880.77618,0.06870
6882.70464,0.12183
6884.63311,0.09644
6886.56158,0.07391
6888.49005,0.09568
6890.41852,0.08947
6892.34699,-0.03955
6894.27546,-0.16570
6896.20393,-0.11329
6898.13239,-0.03431
6900.06086,-0.11354
6901.98933,-0.18844
6903.91780,-0.15763
6905.84627,-0.05844
6907.77474,0.08196
6909.70321,0.17504
6911.63167,0.18785
6913.56014,0.17504
6915.48861,0.13191
6917.41708,0.04382
6919.34555,-0.04712
6921.27402,-0.11133
6923.20249,-0.12569
6925.13096,-0.05444
6927.05942,0.04875
6928.98789,0.13635
6930.91636,0.21181
6932.84483,0.20130
6934.77330,0.14234
6936.70177,0.15106
6938.63024,0.18645
6940.55870,0.21335
6942.48717,0.28397
6944.41564,0.29890
6946.34411,0.19366
6948.27258,0.10814
6950.20105,0.09853
6952.12952,0.11416
6954.05799,0.14822
6955.98645,0.16763
6957.91492,0.13958
6959.84339,0.11984
6961.77186,0.11961
6963.70033,0.05254
6965.62880,-0.00724
6967.55727,0.07353
6969.48573,0.18889
6971.41420,0.17825
6973.34267,0.12622
6975.27114,0.12287
6977.19961,0.10804
6979.12808,0.09267
6981.05655,0.08470
6982.98501,0.05642
6984.91348,0.06823
6986.84195,0.11352
6988.77042,0.12444
6990.69889,0.12857
6992.62736,0.13263
6994.55583,0.09426
6996.48430,-0.01424
6998.41276,-0.11520
7000.34123,-0.07566
7002.26970,-0.00673
7004.19817,-0.05887
7006.12664,-0.18546
7008.05511,-0.23917
7009.98358,-0.16358
7011.91204,-0.04888
7013.84051,0.03252
7015.76898,0.06088
7017.69745,0.02583
7019.62592,-0.04247
7021.55439,-0.05242
7023.48286,-0.00650
7025.41133,0.04012
7027.33979,0.09704
7029.26826,0.17932
7031.19673,0.26558
7033.12520,0.30277
7035.05367,0.26747
7036.98214,0.19125
7038.91061,0.13510
7040.83907,0.13043
7042.76754,0.12785
7044.69601,0.09170
7046.62448,0.04231
7048.55295,0.02540
7050.48142,0.06921
7052.40989,0.14230
7054.33836,0.17028
7056.26682,0.08317
7058.19529,-0.02665
7060.12376,0.02258
7062.05223,0.18956
7063.98070,0.25399
7065.90917,0.12064
7067.83764,-0.02727
7069.76610,-0.05190
7071.69457,-0.00231
7073.62304,0.05802
7075.55151,0.10980
7077.47998,0.11417
7079.40845,0.10387
7081.33692,0.14957
7083.26539,0.21404
7085.19385,0.20827
7087.12232,0.08984
7089.05079,-0.09789
7090.97926,-0.22150
7092.90773,-0.23337
7094.83620,-0.14247
7096.76467,0.03113
7098.69313,0.15611
7100.62160,0.14586
7102.55007,0.11798
7104.47854,0.11236
7106.40701,0.05901
7108.33548,-0.03315
7110.26395,-0.02156
7112.19242,0.08166
7114.12088,0.12388
7116.04935,0.13170
7117.97782,0.17713
7119.90629,0.14942
7121.83476,0.09383
7123.76323,0.19427
7125.69170,0.36245
7127.62016,0.35882
7129.54863,0.24098
7131.47710,0.20393
7133.40557,0.27873
7135.33404,0.35196
7137.26251,0.30407
7139.19098,0.19008
7141.11944,0.14851
7143.04791,0.17046
7144.97638,0.17393
7146.90485,0.15118
7148.83332,0.13059
7150.76179,0.07157
7152.69026,0.06367
7154.61873,0.21440
7156.54719,0.25508
7158.47566,0.10494
7160.40413,0.02694
7162.33260,0.05811
7164.26107,0.01059
7166.18954,0.01027
7168.11801,0.13220
7170.04647,0.13855
7171.97494,0.05081
7173.90341,0.04590
7175.83188,0.06668
7177.76035,0.05416
7179.68882,0.10560
7181.61729,0.21993
7183.54576,0.21236
7185.47422,0.08986
7187.40269,0.04336
7189.33116,0.07481
7191.25963,0.09360
7193.18810,0.03719
7195.11657,-0.04042
7197.04504,-0.08628
7198.97350,-0.14012
7200.90197,-0.18118
7202.83044,-0.13315
7204.75891,0.05052
7206.68738,0.20577
7208.61585,0.24126
7210.54432,0.24533
7212.47279,0.24663
7214.40125,0.29629
7216.32972,0.33782
7218.25819,0.25230
7220.18666,0.20115
7222.11513,0.16412
7224.04360,0.02542
7225.97207,-0.12283
7227.90053,-0.18380
7229.82900,-0.23715
7231.75747,-0.24838
7233.68594,-0.11509
7235.61441,0.06801
7237.54288,0.20493
7239.47135,0.16876
7241.39982,0.01820
7243.32828,-0.05677
7245.25675,-0.06092
7247.18522,0.00353
7249.11369,0.05662
7251.04216,-0.04990
7252.97063,-0.14970
7254.89910,-0.03786
7256.82756,0.14628
7258.75603,0.33338
7260.68450,0.45333
7262.61297,0.41806
7264.54144,0.27802
7266.46991,0.16726
7268.39838,0.11594
7270.32685,-0.01388
7272.25531,-0.17904
7274.18378,-0.05328
7276.11225,0.19507
7278.04072,0.31318
7279.96919,0.27188
7281.89766,0.14691
7283.82613,0.02204
7285.75459,0.00348
7287.68306,0.11193
7289.61153,0.18205
7291.54000,0.14099
7293.46847,0.14364
7295.39694,0.15769
7297.32541,0.01739
7299.25387,-0.15045
7301.18234,-0.13359
7303.11081,0.05807
7305.03928,0.22415
7306.96775,0.22266
7308.89622,0.09118
7310.82469,-0.02944
7312.75316,-0.09143
7314.68162,-0.10339
7316.61009,-0.03413
7318.53856,0.07313
7320.46703,0.15939
7322.39550,0.20200
7324.32397,0.15810
7326.25244,0.05919
7328.18090,0.05339
7330.10937,0.17433
7332.03784,0.19324
7333.96631,0.17168
7335.89478,0.18984
7337.82325,0.14616
7339.75172,-0.03949
7341.68019,-0.16162
7343.60865,-0.04450
7345.53712,0.14872
7347.46559,0.23887
7349.39406,0.17293
7351.32253,0.08666
7353.25100,0.05217
7355.17947,0.00302
7357.10793,0.04226
7359.03640,0.20114
7360.96487,0.28626
7362.89334,0.36005
7364.82181,0.37432
7366.75028,0.14401
7368.67875,-0.16267
7370.60722,-0.16891
7372.53568,0.07725
7374.46415,0.34782
7376.39262,0.35803
7378.32109,0.10833
7380.24956,-0.03457
7382.17803,0.07596
7384.10650,0.19355
7386.03496,0.17058
7387.96343,0.12889
7389.89190,0.08283
7391.82037,0.02941
7393.74884,0.03924
7395.67731,0.07972
7397.60578,0.08886
7399.53425,0.08255
7401.46271,0.06227
7403.39118,0.08495
7405.31965,0.21091
7407.24812,0.25634
7409.17659,0.09103
7411.10506,-0.08654
7413.03353,-0.01532
7414.96199,0.21625
7416.89046,0.37527
7418.81893,0.36609
7420.74740,0.21652
7422.67587,0.06955
7424.60434,0.05606
7426.53281,0.09657
7428.46128,0.03680
7430.38974,-0.08708
7432.31821,-0.10286
7434.24668,-0.04887
7436.17515,0.03415
7438.10362,0.14046
7440.03209,0.14412
7441.96056,0.06014
7443.88902,0.06780
7445.81749,0.17273
7447.74596,0.21776
7449.67443,0.13132
7451.60290,0.03653
7453.53137,0.09036
7455.45984,0.23390
7457.38831,0.40225
7459.31677,0.48319
7461.24524,0.29915
7463.17371,0.06247
7465.10218,-0.03794
7467.03065,-0.08175
7468.95912,-0.12302
7470.88759,-0.16281
7472.81605,-0.23203
7474.74452,-0.25465
7476.67299,-0.11621
7478.60146,0.12394
7480.52993,0.16278
7482.45840,0.01986
7484.38687,0.09786
7486.31533,0.29221
7488.24380,0.34139
7490.17227,0.35722
7492.10074,0.38762
7494.02921,0.31664
7495.95768,0.22255
7497.88615,0.20474
