399.19301,-0.45496
401.12148,-0.50351
403.04995,-0.11104
404.97842,0.18301
406.90689,0.09305
408.83536,-0.02548
410.76382,0.04832
412.69229,0.16208
414.62076,0.18602
416.54923,0.13489
418.47770,0.07531
420.40617,0.14717
422.33464,0.24221
424.26311,0.21882
426.19157,0.09593
428.12004,-0.03356
430.04851,-0.08048
431.97698,0.03558
433.90545,0.15300
435.83392,0.15405
437.76239,0.17260
439.69085,0.24045
441.61932,0.22200
443.54779,0.14677
445.47626,0.17176
447.40473,0.21322
449.33320,0.19175
451.26167,0.16464
453.19013,0.15676
455.11860,0.18868
457.04707,0.24077
458.97554,0.21093
460.90401,0.11613
462.83248,0.06411
464.76095,0.11384
466.68942,0.21102
468.61788,0.22911
470.54635,0.15325
472.47482,0.15431
474.40329,0.31045
476.33176,0.32592
478.26023,0.26063
480.18870,0.20833
482.11716,0.17164
484.04563,0.14773
485.97410,0.11530
487.90257,0.08894
489.83104,0.09563
491.75951,0.11765
493.68798,0.11391
495.61645,0.09412
497.54491,0.10059
499.47338,0.14002
501.40185,0.17403
503.33032,0.16388
505.25879,0.12875
507.18726,0.12420
509.11573,0.16634
511.04419,0.20024
512.97266,0.18890
514.90113,0.13433
516.82960,0.07714
518.75807,0.10062
520.68654,0.19516
522.61501,0.25801
524.54348,0.24285
526.47194,0.18934
528.40041,0.14334
530.32888,0.10586
532.25735,0.07658
534.18582,0.05960
536.11429,0.05405
538.04276,0.08251
539.97122,0.11667
541.89969,0.11000
543.82816,0.09612
545.75663,0.10111
547.68510,0.10329
549.61357,0.12941
551.54204,0.26550
553.47051,0.40546
555.39897,0.33426
557.32744,0.14297
559.25591,0.04523
561.18438,0.05304
563.11285,0.09789
565.04132,0.11760
566.96979,0.10386
568.89825,0.08597
570.82672,0.09144
572.75519,0.12991
574.68366,0.15305
576.61213,0.14163
578.54060,0.13579
580.46907,0.12638
582.39754,0.09857
584.32600,0.08800
586.25447,0.10415
588.18294,0.12015
590.11141,0.12526
592.03988,0.13448
593.96835,0.14616
595.89682,0.13968
597.82528,0.12603
599.75375,0.12400
601.68222,0.12461
603.61069,0.10391
605.53916,0.07933
607.46763,0.09476
609.39610,0.13087
611.32456,0.14256
613.25303,0.13395
615.18150,0.13095
617.10997,0.13082
619.03844,0.11897
620.96691,0.10737
622.89538,0.10850
624.82385,0.11286
626.75231,0.11883
628.68078,0.13091
630.60925,0.14381
632.53772,0.14283
634.46619,0.12985
636.39466,0.13218
638.32313,0.13364
640.25159,0.11081
642.18006,0.09875
644.10853,0.11616
646.03700,0.13177
647.96547,0.12584
649.89394,0.11397
651.82241,0.11910
653.75088,0.13596
655.67934,0.13907
657.60781,0.13030
659.53628,0.12570
661.46475,0.12724
663.39322,0.13802
665.32169,0.15484
667.25016,0.15885
669.17862,0.11907
671.10709,0.08993
673.03556,0.10063
674.96403,0.12653
676.89250,0.14550
678.82097,0.15148
680.74944,0.14732
682.67791,0.13024
684.60637,0.11326
686.53484,0.11870
688.46331,0.13196
690.39178,0.13093
692.32025,0.12633
694.24872,0.12738
696.17719,0.13504
698.10565,0.14822
700.03412,0.15837
701.96259,0.15852
703.89106,0.14546
705.81953,0.13561
707.74800,0.15464
709.67647,0.20356
711.60494,0.23763
713.53340,0.20962
715.46187,0.15662
717.39034,0.13625
719.31881,0.13771
721.24728,0.13469
723.17575,0.13144
725.10422,0.13870
727.03268,0.14750
728.96115,0.14365
730.88962,0.13461
732.81809,0.13690
734.74656,0.13921
736.67503,0.12927
738.60350,0.12776
740.53197,0.14293
742.46043,0.15609
744.38890,0.15905
746.31737,0.16280
748.24584,0.17294
750.17431,0.17463
752.10278,0.16001
754.03125,0.14327
755.95971,0.13924
757.88818,0.14788
759.81665,0.15543
761.74512,0.15698
763.67359,0.15775
765.60206,0.15135
767.53053,0.13949
769.45900,0.14042
771.38746,0.15201
773.31593,0.15969
775.24440,0.15835
777.17287,0.14680
779.10134,0.13907
781.02981,0.14283
782.95828,0.14404
784.88674,0.14116
786.81521,0.14078
788.74368,0.13723
790.67215,0.13032
792.60062,0.13364
794.52909,0.14844
796.45756,0.16107
798.38602,0.16908
800.31449,0.17142
802.24296,0.15907
804.17143,0.13403
806.09990,0.11585
808.02837,0.11341
809.95684,0.11883
811.88531,0.12892
813.81377,0.13526
815.74224,0.12891
817.67071,0.11519
819.59918,0.10955
821.52765,0.12479
823.45612,0.15053
825.38459,0.16082
827.31305,0.14308
829.24152,0.11799
831.16999,0.11604
833.09846,0.13382
835.02693,0.14709
836.95540,0.15455
838.88387,0.15934
840.81234,0.15369
842.74080,0.13716
844.66927,0.11938
846.59774,0.11628
848.52621,0.12758
850.45468,0.14306
852.38315,0.15737
854.31162,0.15907
856.24008,0.14763
858.16855,0.14160
860.09702,0.15307
862.02549,0.17210
863.95396,0.18056
865.88243,0.17253
867.81090,0.15371
869.73937,0.13349
871.66783,0.12584
873.59630,0.13469
875.52477,0.14447
877.45324,0.14016
879.38171,0.12698
881.31018,0.12410
883.23865,0.13365
885.16711,0.14072
887.09558,0.13706
889.02405,0.13137
890.95252,0.13840
892.88099,0.15110
894.80946,0.15341
896.73793,0.14523
898.66640,0.13894
900.59486,0.14441
902.52333,0.15506
904.45180,0.15933
906.38027,0.15947
908.30874,0.16244
910.23721,0.16242
912.16568,0.15216
914.09414,0.14011
916.02261,0.13554
917.95108,0.13479
919.87955,0.13499
921.80802,0.13959
923.73649,0.14434
925.66496,0.14266
927.59343,0.13853
929.52189,0.14089
931.45036,0.15089
933.37883,0.15506
935.30730,0.14800
937.23577,0.14341
939.16424,0.14364
941.09271,0.14051
943.02117,0.13938
944.94964,0.14787
946.87811,0.15607
948.80658,0.15500
950.73505,0.15221
952.66352,0.15364
954.59199,0.15856
956.52045,0.16036
958.44892,0.15425
960.37739,0.14991
962.30586,0.15464
964.23433,0.15963
966.16280,0.15639
968.09127,0.14939
970.01974,0.14576
971.94820,0.14712
973.87667,0.15196
975.80514,0.15701
977.73361,0.15811
979.66208,0.15545
981.59055,0.15204
983.51902,0.14573
985.44748,0.13989
987.37595,0.14529
989.30442,0.15502
991.23289,0.15606
993.16136,0.15679
995.08983,0.16012
997.01830,0.15920
998.94677,0.15714
1000.87523,0.15189
1002.80370,0.14649
1004.73217,0.14807
1006.66064,0.15025
1008.58911,0.15473
1010.51758,0.16297
1012.44605,0.16207
1014.37451,0.15424
1016.30298,0.15096
1018.23145,0.15117
1020.15992,0.15365
1022.08839,0.15842
1024.01686,0.15933
1025.94533,0.15626
1027.87380,0.15417
1029.80226,0.15212
1031.73073,0.15075
1033.65920,0.15300
1035.58767,0.15603
1037.51614,0.15428
1039.44461,0.14879
1041.37308,0.14863
1043.30154,0.15209
1045.23001,0.14717
1047.15848,0.13806
1049.08695,0.14071
1051.01542,0.15237
1052.94389,0.15386
1054.87236,0.14215
1056.80083,0.13399
1058.72929,0.13826
1060.65776,0.14998
1062.58623,0.16514
1064.51470,0.17864
1066.44317,0.18299
1068.37164,0.18098
1070.30011,0.18128
1072.22857,0.18398
1074.15704,0.18406
1076.08551,0.18146
1078.01398,0.17553
1079.94245,0.16883
1081.87092,0.16678
1083.79939,0.16483
1085.72786,0.15841
1087.65632,0.15270
1089.58479,0.15308
1091.51326,0.15629
1093.44173,0.15603
1095.37020,0.15574
1097.29867,0.16240
1099.22714,0.16833
1101.15560,0.16627
1103.08407,0.16405
1105.01254,0.16875
1106.94101,0.18057
1108.86948,0.18733
1110.79795,0.17812
1112.72642,0.16739
1114.65489,0.16931
1116.58335,0.17317
1118.51182,0.16818
1120.44029,0.16479
1122.36876,0.16946
1124.29723,0.17197
1126.22570,0.16515
1128.15417,0.15417
1130.08263,0.15135
1132.01110,0.15766
1133.93957,0.16138
1135.86804,0.15774
1137.79651,0.15276
1139.72498,0.15291
1141.65345,0.15799
1143.58191,0.16372
1145.51038,0.16858
1147.43885,0.17207
1149.36732,0.16797
1151.29579,0.15454
1153.22426,0.14608
1155.15273,0.15228
1157.08120,0.16309
1159.00966,0.16893
1160.93813,0.17083
1162.86660,0.17074
1164.79507,0.16746
1166.72354,0.16124
1168.65201,0.15820
1170.58048,0.16105
1172.50894,0.16626
1174.43741,0.17052
1176.36588,0.17149
1178.29435,0.16750
1180.22282,0.16264
1182.15129,0.16461
1184.07976,0.16831
1186.00823,0.16591
1187.93669,0.16331
1189.86516,0.16571
1191.79363,0.16848
1193.72210,0.16712
1195.65057,0.16516
1197.57904,0.16590
1199.50751,0.16750
1201.43597,0.16831
1203.36444,0.16536
1205.29291,0.15923
1207.22138,0.15751
1209.14985,0.16281
1211.07832,0.16936
1213.00679,0.17057
1214.93526,0.16579
1216.86372,0.16263
1218.79219,0.16583
1220.72066,0.16885
1222.64913,0.16748
1224.57760,0.16500
1226.50607,0.16167
1228.43454,0.15962
1230.36300,0.16340
1232.29147,0.16887
1234.21994,0.17076
1236.14841,0.17013
1238.07688,0.16997
1240.00535,0.17170
1241.93382,0.17216
1243.86229,0.16896
1245.79075,0.16335
1247.71922,0.15924
1249.64769,0.16005
1251.57616,0.16003
1253.50463,0.15792
1255.43310,0.15901
1257.36157,0.15695
1259.29003,0.15073
1261.21850,0.15223
1263.14697,0.16152
1265.07544,0.16817
1267.00391,0.16758
1268.93238,0.16230
1270.86085,0.15968
1272.78932,0.16214
1274.71778,0.16406
1276.64625,0.16515
1278.57472,0.16738
1280.50319,0.16614
1282.43166,0.16197
1284.36013,0.15961
1286.28860,0.15688
1288.21706,0.15615
1290.14553,0.16274
1292.07400,0.16954
1294.00247,0.16824
1295.93094,0.16111
1297.85941,0.15294
1299.78788,0.14365
1301.71634,0.12846
1303.64481,0.10992
1305.57328,0.11086
1307.50175,0.13924
1309.43022,0.16450
1311.35869,0.17029
1313.28716,0.16992
1315.21563,0.17125
1317.14409,0.17201
1319.07256,0.16837
1321.00103,0.16231
1322.92950,0.16116
1324.85797,0.16112
1326.78644,0.15774
1328.71491,0.15639
1330.64337,0.15216
1332.57184,0.14605
1334.50031,0.14990
1336.42878,0.15853
1338.35725,0.16599
1340.28572,0.16769
1342.21419,0.14764
1344.14266,0.11582
1346.07112,0.10853
1347.99959,0.13195
1349.92806,0.15331
1351.85653,0.15949
1353.78500,0.15896
1355.71347,0.15747
1357.64194,0.15959
1359.57040,0.16561
1361.49887,0.17147
1363.42734,0.17186
1365.35581,0.17095
1367.28428,0.17292
1369.21275,0.17251
1371.14122,0.17187
1373.06969,0.17833
1374.99815,0.18553
1376.92662,0.18297
1378.85509,0.17512
1380.78356,0.17025
1382.71203,0.17266
1384.64050,0.17967
1386.56897,0.18464
1388.49743,0.18364
1390.42590,0.18238
1392.35437,0.18575
1394.28284,0.18891
1396.21131,0.18722
1398.13978,0.18559
1400.06825,0.18528
1401.99672,0.18414
1403.92518,0.18470
1405.85365,0.18732
1407.78212,0.18671
1409.71059,0.18314
1411.63906,0.18195
1413.56753,0.18347
1415.49600,0.18471
1417.42446,0.18505
1419.35293,0.18429
1421.28140,0.18582
1423.20987,0.18844
1425.13834,0.18634
1427.06681,0.18541
1428.99528,0.19049
1430.92375,0.19207
1432.85221,0.19078
1434.78068,0.19707
1436.70915,0.20472
1438.63762,0.20024
1440.56609,0.19039
1442.49456,0.18224
1444.42303,0.18015
1446.35149,0.18224
1448.27996,0.18173
1450.20843,0.18069
1452.13690,0.18439
1454.06537,0.19216
1455.99384,0.20303
1457.92231,0.20734
1459.85077,0.19826
1461.77924,0.19287
1463.70771,0.19400
1465.63618,0.19289
1467.56465,0.18897
1469.49312,0.19366
1471.42159,0.20698
1473.35006,0.21015
1475.27852,0.19808
1477.20699,0.18987
1479.13546,0.18787
1481.06393,0.18786
1482.99240,0.18918
1484.92087,0.19345
1486.84934,0.20023
1488.77780,0.20621
1490.70627,0.20368
1492.63474,0.19663
1494.56321,0.19532
1496.49168,0.20134
1498.42015,0.20692
1500.34862,0.20760
1502.27709,0.20893
1504.20555,0.21691
1506.13402,0.23696
1508.06249,0.23782
1509.99096,0.21437
1511.91943,0.20170
1513.84790,0.20384
1515.77637,0.21451
1517.70483,0.21933
1519.63330,0.21413
1521.56177,0.20955
1523.49024,0.21147
1525.41871,0.21622
1527.34718,0.21466
1529.27565,0.20598
1531.20412,0.20125
1533.13258,0.20389
1535.06105,0.20572
1536.98952,0.20597
1538.91799,0.21150
1540.84646,0.21966
1542.77493,0.21579
1544.70340,0.20402
1546.63186,0.19557
1548.56033,0.19608
1550.48880,0.19828
1552.41727,0.19541
1554.34574,0.19517
1556.27421,0.20662
1558.20268,0.22752
1560.13115,0.21932
1562.05961,0.20185
1563.98808,0.19616
1565.91655,0.19375
1567.84502,0.19446
1569.77349,0.19545
1571.70196,0.18944
1573.63043,0.18610
1575.55889,0.18896
1577.48736,0.18573
1579.41583,0.17912
1581.34430,0.17847
1583.27277,0.17956
1585.20124,0.17862
1587.12971,0.17889
1589.05818,0.18106
1590.98664,0.18167
1592.91511,0.18077
1594.84358,0.17889
1596.77205,0.17584
1598.70052,0.17420
1600.62899,0.17397
1602.55746,0.17530
1604.48592,0.17951
1606.41439,0.18457
1608.34286,0.18723
1610.27133,0.18545
1612.19980,0.18297
1614.12827,0.18596
1616.05674,0.19536
1617.98521,0.19986
1619.91367,0.19903
1621.84214,0.20149
1623.77061,0.20239
1625.69908,0.20043
1627.62755,0.20034
1629.55602,0.19888
1631.48449,0.19630
1633.41295,0.19924
1635.34142,0.21177
1637.26989,0.21485
1639.19836,0.20439
1641.12683,0.19769
1643.05530,0.19943
1644.98377,0.20979
1646.91223,0.22081
1648.84070,0.22086
1650.76917,0.22673
1652.69764,0.24287
1654.62611,0.22995
1656.55458,0.20813
1658.48305,0.19847
1660.41152,0.19424
1662.33998,0.19169
1664.26845,0.19318
1666.19692,0.20298
1668.12539,0.21950
1670.05386,0.22728
1671.98233,0.21744
1673.91080,0.20522
1675.83926,0.19734
1677.76773,0.19788
1679.69620,0.20454
1681.62467,0.21440
1683.55314,0.22297
1685.48161,0.21681
1687.41008,0.20685
1689.33855,0.20282
1691.26701,0.20218
1693.19548,0.20552
1695.12395,0.21429
1697.05242,0.21994
1698.98089,0.21359
1700.90936,0.20448
1702.83783,0.20436
1704.76629,0.20683
1706.69476,0.20342
1708.62323,0.19594
1710.55170,0.19170
1712.48017,0.19482
1714.40864,0.20566
1716.33711,0.21516
1718.26558,0.20648
1720.19404,0.19376
1722.12251,0.18955
1724.05098,0.18788
1725.97945,0.18648
1727.90792,0.18901
1729.83639,0.19345
1731.76486,0.19648
1733.69332,0.20132
1735.62179,0.20392
1737.55026,0.20207
1739.47873,0.19969
1741.40720,0.19989
1743.33567,0.20335
1745.26414,0.20722
1747.19261,0.21102
1749.12107,0.21282
1751.04954,0.20651
1752.97801,0.19733
1754.90648,0.19392
1756.83495,0.19382
1758.76342,0.19377
1760.69189,0.19464
1762.62035,0.19275
1764.54882,0.18983
1766.47729,0.19247
1768.40576,0.19844
1770.33423,0.20458
1772.26270,0.20765
1774.19117,0.20188
1776.11964,0.19505
1778.04810,0.19190
1779.97657,0.19072
1781.90504,0.18978
1783.83351,0.18920
1785.76198,0.18896
1787.69045,0.18977
1789.61892,0.19433
1791.54738,0.19970
1793.47585,0.19937
1795.40432,0.19621
1797.33279,0.19308
1799.26126,0.19080
1801.18973,0.18979
1803.11820,0.18784
1805.04666,0.18635
1806.97513,0.18772
1808.90360,0.18998
1810.83207,0.19108
1812.76054,0.19040
1814.68901,0.18833
1816.61748,0.18883
1818.54595,0.19202
1820.47441,0.19250
1822.40288,0.19228
1824.33135,0.19594
1826.25982,0.20018
1828.18829,0.20264
1830.11676,0.20018
1832.04523,0.19215
1833.97369,0.18811
1835.90216,0.19011
1837.83063,0.19222
1839.75910,0.19100
1841.68757,0.19082
1843.61604,0.19465
1845.54451,0.19813
1847.47298,0.19867
1849.40144,0.19688
1851.32991,0.19291
1853.25838,0.18902
1855.18685,0.18826
1857.11532,0.18946
1859.04379,0.18888
1860.97226,0.18785
1862.90072,0.18985
1864.82919,0.19524
1866.75766,0.19984
1868.68613,0.19717
1870.61460,0.19151
1872.54307,0.18997
1874.47154,0.18936
1876.40001,0.18715
1878.32847,0.18469
1880.25694,0.18387
1882.18541,0.18472
1884.11388,0.18623
1886.04235,0.18838
1887.97082,0.19188
1889.89929,0.19585
1891.82775,0.19735
1893.75622,0.19502
1895.68469,0.19007
1897.61316,0.18654
1899.54163,0.18700
1901.47010,0.18985
1903.39857,0.19233
1905.32704,0.19246
1907.25550,0.19012
1909.18397,0.18648
1911.11244,0.18426
1913.04091,0.18524
1914.96938,0.18857
1916.89785,0.19077
1918.82632,0.18969
1920.75478,0.19095
1922.68325,0.19409
1924.61172,0.19231
1926.54019,0.18888
1928.46866,0.18721
1930.39713,0.18418
1932.32560,0.18130
1934.25407,0.18318
1936.18253,0.18767
1938.11100,0.19071
1940.03947,0.19297
1941.96794,0.19479
1943.89641,0.19374
1945.82488,0.19062
1947.75335,0.18849
1949.68181,0.18779
1951.61028,0.18822
1953.53875,0.18865
1955.46722,0.18682
1957.39569,0.18395
1959.32416,0.18348
1961.25263,0.18453
1963.18110,0.18503
1965.10956,0.18775
1967.03803,0.19263
1968.96650,0.19527
1970.89497,0.19611
1972.82344,0.19657
1974.75191,0.19622
1976.68038,0.19565
1978.60884,0.19424
1980.53731,0.19134
1982.46578,0.18924
1984.39425,0.18932
1986.32272,0.18981
1988.25119,0.18937
1990.17966,0.18855
1992.10812,0.18950
1994.03659,0.19200
1995.96506,0.19285
1997.89353,0.19215
1999.82200,0.19110
2001.75047,0.18957
2003.67894,0.18848
2005.60741,0.18832
2007.53587,0.18729
2009.46434,0.18502
2011.39281,0.18436
2013.32128,0.18529
2015.24975,0.18603
2017.17822,0.18742
2019.10669,0.18974
2021.03515,0.19083
2022.96362,0.18965
2024.89209,0.18851
2026.82056,0.18790
2028.74903,0.18665
2030.67750,0.18586
2032.60597,0.18612
2034.53444,0.18685
2036.46290,0.18656
2038.39137,0.18609
2040.31984,0.18776
2042.24831,0.18908
2044.17678,0.18852
2046.10525,0.18741
2048.03372,0.18620
2049.96218,0.18609
2051.89065,0.18638
2053.81912,0.18616
2055.74759,0.18684
2057.67606,0.18889
2059.60453,0.19149
2061.53300,0.19215
2063.46147,0.19091
2065.38993,0.19103
2067.31840,0.19184
2069.24687,0.19115
2071.17534,0.19009
2073.10381,0.19059
2075.03228,0.19232
2076.96075,0.19267
2078.88921,0.19035
2080.81768,0.18820
2082.74615,0.18937
2084.67462,0.19218
2086.60309,0.19244
2088.53156,0.18902
2090.46003,0.18578
2092.38850,0.18625
2094.31696,0.18933
2096.24543,0.19236
2098.17390,0.19379
2100.10237,0.19315
2102.03084,0.19134
2103.95931,0.19025
2105.88778,0.18961
2107.81624,0.18888
2109.74471,0.18942
2111.67318,0.19054
2113.60165,0.18972
2115.53012,0.18636
2117.45859,0.18396
2119.38706,0.18503
2121.31553,0.18698
2123.24399,0.18803
2125.17246,0.18990
2127.10093,0.19345
2129.02940,0.19567
2130.95787,0.19318
2132.88634,0.18782
2134.81481,0.18451
2136.74327,0.18418
2138.67174,0.18480
2140.60021,0.18683
2142.52868,0.19052
2144.45715,0.19313
2146.38562,0.19242
2148.31409,0.18991
2150.24255,0.18906
2152.17102,0.19103
2154.09949,0.19265
2156.02796,0.19203
2157.95643,0.19146
2159.88490,0.19188
2161.81337,0.19303
2163.74184,0.19267
2165.67030,0.18987
2167.59877,0.18897
2169.52724,0.19002
2171.45571,0.19076
2173.38418,0.19087
2175.31265,0.19006
2177.24112,0.19021
2179.16958,0.19032
2181.09805,0.18778
2183.02652,0.18487
2184.95499,0.18415
2186.88346,0.18538
2188.81193,0.18777
2190.74040,0.19012
2192.66887,0.19108
2194.59733,0.19102
2196.52580,0.19175
2198.45427,0.19219
2200.38274,0.19058
2202.31121,0.19011
2204.23968,0.19207
2206.16815,0.19249
2208.09661,0.19137
2210.02508,0.19203
2211.95355,0.19384
2213.88202,0.19386
2215.81049,0.19226
2217.73896,0.19131
2219.66743,0.19050
2221.59590,0.18908
2223.52436,0.18905
2225.45283,0.19076
2227.38130,0.19183
2229.30977,0.19100
2231.23824,0.18918
2233.16671,0.18818
2235.09518,0.18867
2237.02364,0.18916
2238.95211,0.18826
2240.88058,0.18752
2242.80905,0.18901
2244.73752,0.19104
2246.66599,0.19098
2248.59446,0.18979
2250.52293,0.18937
2252.45139,0.18930
2254.37986,0.18907
2256.30833,0.18889
2258.23680,0.18874
2260.16527,0.18966
2262.09374,0.19067
2264.02221,0.19038
2265.95067,0.19082
2267.87914,0.19163
2269.80761,0.19167
2271.73608,0.19212
2273.66455,0.19261
2275.59302,0.19300
2277.52149,0.19406
2279.44996,0.19390
2281.37842,0.19160
2283.30689,0.19015
2285.23536,0.19081
2287.16383,0.19051
2289.09230,0.18725
2291.02077,0.18343
2292.94924,0.18211
2294.87770,0.18380
2296.80617,0.18615
2298.73464,0.18570
2300.66311,0.18373
2302.59158,0.18438
2304.52005,0.18801
2306.44852,0.19205
2308.37699,0.19350
2310.30545,0.19071
2312.23392,0.18795
2314.16239,0.18907
2316.09086,0.18832
2318.01933,0.18554
2319.94780,0.18861
2321.87627,0.19268
2323.80473,0.19086
2325.73320,0.18995
2327.66167,0.19216
2329.59014,0.19301
2331.51861,0.18963
2333.44708,0.18032
2335.37555,0.17243
2337.30401,0.17499
2339.23248,0.17632
2341.16095,0.16182
2343.08942,0.14767
2345.01789,0.15214
2346.94636,0.16796
2348.87483,0.17739
2350.80330,0.16930
2352.73176,0.15309
2354.66023,0.15607
2356.58870,0.17368
2358.51717,0.19215
2360.44564,0.21190
2362.37411,0.21642
2364.30258,0.20534
2366.23104,0.19667
2368.15951,0.19254
2370.08798,0.19075
2372.01645,0.19009
2373.94492,0.18419
2375.87339,0.17939
2377.80186,0.18408
2379.73033,0.19094
2381.65879,0.19190
2383.58726,0.18946
2385.51573,0.18706
2387.44420,0.18542
2389.37267,0.18569
2391.30114,0.18751
2393.22961,0.19000
2395.15807,0.19226
2397.08654,0.19254
2399.01501,0.19088
2400.94348,0.19028
2402.87195,0.19204
2404.80042,0.19313
2406.72889,0.19273
2408.65736,0.19194
2410.58582,0.19023
2412.51429,0.18817
2414.44276,0.18641
2416.37123,0.18696
2418.29970,0.19050
2420.22817,0.19252
2422.15664,0.19173
2424.08510,0.19078
2426.01357,0.19006
2427.94204,0.18924
2429.87051,0.18900
2431.79898,0.19000
2433.72745,0.19057
2435.65592,0.19004
2437.58439,0.19020
2439.51285,0.19008
2441.44132,0.18893
2443.36979,0.18918
2445.29826,0.19153
2447.22673,0.19407
2449.15520,0.19440
2451.08367,0.19206
2453.01213,0.18860
2454.94060,0.18634
2456.86907,0.18836
2458.79754,0.19243
2460.72601,0.19306
2462.65448,0.19132
2464.58295,0.18968
2466.51142,0.18993
2468.43988,0.19343
2470.36835,0.19557
2472.29682,0.19389
2474.22529,0.19142
2476.15376,0.19015
2478.08223,0.19104
2480.01070,0.19253
2481.93916,0.19120
2483.86763,0.18760
2485.79610,0.18630
2487.72457,0.18932
2489.65304,0.19195
2491.58151,0.19090
2493.50998,0.19003
2495.43844,0.19066
2497.36691,0.19102
2499.29538,0.19160
2501.22385,0.19212
2503.15232,0.19234
2505.08079,0.19203
2507.00926,0.19200
2508.93773,0.19311
2510.86619,0.19368
2512.79466,0.19356
2514.72313,0.19272
2516.65160,0.19090
2518.58007,0.18948
2520.50854,0.18893
2522.43701,0.19020
2524.36547,0.19374
2526.29394,0.19676
2528.22241,0.19737
2530.15088,0.19725
2532.07935,0.19649
2534.00782,0.19420
2535.93629,0.19196
2537.86476,0.19019
2539.79322,0.18853
2541.72169,0.18785
2543.65016,0.18824
2545.57863,0.18971
2547.50710,0.19264
2549.43557,0.19446
2551.36404,0.19265
2553.29250,0.18956
2555.22097,0.18899
2557.14944,0.19067
2559.07791,0.19101
2561.00638,0.19039
2562.93485,0.19107
2564.86332,0.19143
2566.79179,0.19099
2568.72025,0.19123
2570.64872,0.19170
2572.57719,0.19207
2574.50566,0.19282
2576.43413,0.19304
2578.36260,0.19289
2580.29107,0.19434
2582.21953,0.19637
2584.14800,0.19597
2586.07647,0.19431
2588.00494,0.19430
2589.93341,0.19493
2591.86188,0.19420
2593.79035,0.19349
2595.71882,0.19449
2597.64728,0.19543
2599.57575,0.19472
2601.50422,0.19268
2603.43269,0.19007
2605.36116,0.18839
2607.28963,0.18944
2609.21810,0.19413
2611.14656,0.19836
2613.07503,0.19748
2615.00350,0.19451
2616.93197,0.19379
2618.86044,0.19466
2620.78891,0.19586
2622.71738,0.19787
2624.64585,0.19941
2626.57431,0.19821
2628.50278,0.19485
2630.43125,0.19259
2632.35972,0.19445
2634.28819,0.19804
2636.21666,0.19833
2638.14513,0.19709
2640.07359,0.19712
2642.00206,0.19555
2643.93053,0.19341
2645.85900,0.19420
2647.78747,0.19544
2649.71594,0.19533
2651.64441,0.19593
2653.57288,0.19748
2655.50134,0.19821
2657.42981,0.19773
2659.35828,0.19637
2661.28675,0.19372
2663.21522,0.19150
2665.14369,0.19282
2667.07216,0.19682
2669.00062,0.19854
2670.92909,0.19621
2672.85756,0.19457
2674.78603,0.19465
2676.71450,0.19317
2678.64297,0.19171
2680.57144,0.19198
2682.49990,0.19207
2684.42837,0.19241
2686.35684,0.19499
2688.28531,0.19852
2690.21378,0.20030
2692.14225,0.19996
2694.07072,0.19895
2695.99919,0.19814
2697.92765,0.19882
2699.85612,0.20050
2701.78459,0.19921
2703.71306,0.19608
2705.64153,0.19520
2707.57000,0.19643
2709.49847,0.19817
2711.42693,0.19933
2713.35540,0.20042
2715.28387,0.20086
2717.21234,0.19864
2719.14081,0.19532
2721.06928,0.19461
2722.99775,0.19754
2724.92622,0.20155
2726.85468,0.20375
2728.78315,0.20417
2730.71162,0.20359
2732.64009,0.20086
2734.56856,0.19819
2736.49703,0.19984
2738.42550,0.20265
2740.35396,0.20231
2742.28243,0.20169
2744.21090,0.20191
2746.13937,0.20114
2748.06784,0.20149
2749.99631,0.20313
2751.92478,0.20392
2753.85325,0.20415
2755.78171,0.20365
2757.71018,0.20269
2759.63865,0.20236
2761.56712,0.20295
2763.49559,0.20364
2765.42406,0.20247
2767.35253,0.20134
2769.28099,0.20380
2771.20946,0.20714
2773.13793,0.20756
2775.06640,0.20553
2776.99487,0.20411
2778.92334,0.20593
2780.85181,0.20847
2782.78028,0.20954
2784.70874,0.20898
2786.63721,0.20546
2788.56568,0.20257
2790.49415,0.20301
2792.42262,0.20404
2794.35109,0.20430
2796.27956,0.20389
2798.20802,0.20333
2800.13649,0.20254
2802.06496,0.20100
2803.99343,0.20020
2805.92190,0.20170
2807.85037,0.20411
2809.77884,0.20481
2811.70731,0.20542
2813.63577,0.20877
2815.56424,0.21238
2817.49271,0.21290
2819.42118,0.21031
2821.34965,0.20621
2823.27812,0.20176
2825.20659,0.19643
2827.13505,0.19284
2829.06352,0.19679
2830.99199,0.20496
2832.92046,0.20696
2834.84893,0.20308
2836.77740,0.20214
2838.70587,0.20451
2840.63433,0.20512
2842.56280,0.20432
2844.49127,0.20465
2846.41974,0.20508
2848.34821,0.20573
2850.27668,0.20852
2852.20515,0.20832
2854.13362,0.20196
2856.06208,0.19761
2857.99055,0.19880
2859.91902,0.19921
2861.84749,0.19801
2863.77596,0.19889
2865.70443,0.20183
2867.63290,0.20586
2869.56136,0.20675
2871.48983,0.20324
2873.41830,0.20101
2875.34677,0.20086
2877.27524,0.20305
2879.20371,0.20840
2881.13218,0.21156
2883.06065,0.20940
2884.98911,0.20518
2886.91758,0.20323
2888.84605,0.20438
2890.77452,0.20541
2892.70299,0.20347
2894.63146,0.19887
2896.55993,0.19591
2898.48839,0.19863
2900.41686,0.20377
2902.34533,0.20260
2904.27380,0.19375
2906.20227,0.18958
2908.13074,0.19470
2910.05921,0.19888
2911.98768,0.19897
2913.91614,0.19510
2915.84461,0.18671
2917.77308,0.18357
2919.70155,0.19018
2921.63002,0.19816
2923.55849,0.20085
2925.48696,0.19654
2927.41542,0.19355
2929.34389,0.19971
2931.27236,0.20376
2933.20083,0.19830
2935.12930,0.18926
2937.05777,0.18233
2938.98624,0.18514
2940.91471,0.19317
2942.84317,0.19506
2944.77164,0.19073
2946.70011,0.18247
2948.62858,0.17982
2950.55705,0.18935
2952.48552,0.19950
2954.41399,0.19948
2956.34245,0.18596
2958.27092,0.17364
2960.19939,0.18354
2962.12786,0.20432
2964.05633,0.21287
2965.98480,0.20485
2967.91327,0.19238
2969.84174,0.19255
2971.77020,0.20469
2973.69867,0.21431
2975.62714,0.21051
2977.55561,0.19580
2979.48408,0.19021
2981.41255,0.20007
2983.34102,0.20800
2985.26948,0.20626
2987.19795,0.19860
2989.12642,0.19235
2991.05489,0.19807
2992.98336,0.21148
2994.91183,0.21752
2996.84030,0.21138
2998.76877,0.20263
3000.69723,0.20248
3002.62570,0.20788
3004.55417,0.20972
3006.48264,0.20617
3008.41111,0.19733
3010.33958,0.18142
3012.26805,0.15469
3014.19651,0.11542
3016.12498,0.08564
3018.05345,0.10289
3019.98192,0.15753
3021.91039,0.19865
3023.83886,0.20955
3025.76733,0.20389
3027.69579,0.19466
3029.62426,0.19304
3031.55273,0.19727
3033.48120,0.20309
3035.40967,0.20923
3037.33814,0.21044
3039.26661,0.21102
3041.19508,0.21378
3043.12354,0.21189
3045.05201,0.20537
3046.98048,0.19959
3048.90895,0.19970
3050.83742,0.20726
3052.76589,0.21389
3054.69436,0.20736
3056.62282,0.18968
3058.55129,0.18346
3060.47976,0.19685
3062.40823,0.20757
3064.33670,0.20106
3066.26517,0.19052
3068.19364,0.19559
3070.12211,0.21176
3072.05057,0.21928
3073.97904,0.20848
3075.90751,0.18856
3077.83598,0.18416
3079.76445,0.19731
3081.69292,0.20620
3083.62139,0.20194
3085.54985,0.19456
3087.47832,0.19855
3089.40679,0.20702
3091.33526,0.20374
3093.26373,0.19152
3095.19220,0.18750
3097.12067,0.19783
3099.04914,0.20689
3100.97760,0.20259
3102.90607,0.18983
3104.83454,0.18547
3106.76301,0.19570
3108.69148,0.20546
3110.61995,0.20152
3112.54842,0.19221
3114.47688,0.19604
3116.40535,0.20733
3118.33382,0.20880
3120.26229,0.20065
3122.19076,0.19581
3124.11923,0.20341
3126.04770,0.21226
3127.97617,0.20892
3129.90463,0.19735
3131.83310,0.19139
3133.76157,0.19587
3135.69004,0.20217
3137.61851,0.20436
3139.54698,0.20253
3141.47545,0.20187
3143.40391,0.20546
3145.33238,0.20846
3147.26085,0.20762
3149.18932,0.20687
3151.11779,0.21189
3153.04626,0.21881
3154.97473,0.21817
3156.90320,0.21219
3158.83166,0.21111
3160.76013,0.21271
3162.68860,0.21115
3164.61707,0.21143
3166.54554,0.21525
3168.47401,0.22015
3170.40248,0.22421
3172.33094,0.22318
3174.25941,0.21928
3176.18788,0.21701
3178.11635,0.21552
3180.04482,0.21467
3181.97329,0.21359
3183.90176,0.21306
3185.83022,0.21719
3187.75869,0.21861
3189.68716,0.21090
3191.61563,0.20658
3193.54410,0.21171
3195.47257,0.21655
3197.40104,0.21748
3199.32951,0.21936
3201.25797,0.22179
3203.18644,0.21928
3205.11491,0.21408
3207.04338,0.21452
3208.97185,0.22004
3210.90032,0.22467
3212.82879,0.22699
3214.75725,0.22440
3216.68572,0.21738
3218.61419,0.21362
3220.54266,0.21290
3222.47113,0.21165
3224.39960,0.21345
3226.32807,0.21770
3228.25654,0.21784
3230.18500,0.21416
3232.11347,0.21148
3234.04194,0.21095
3235.97041,0.21170
3237.89888,0.21245
3239.82735,0.21281
3241.75582,0.21284
3243.68428,0.21328
3245.61275,0.21691
3247.54122,0.21989
3249.46969,0.21556
3251.39816,0.20927
3253.32663,0.20766
3255.25510,0.20851
3257.18357,0.21029
3259.11203,0.21138
3261.04050,0.21024
3262.96897,0.20896
3264.89744,0.20979
3266.82591,0.21232
3268.75438,0.21316
3270.68285,0.21205
3272.61131,0.21168
3274.53978,0.21338
3276.46825,0.21465
3278.39672,0.21081
3280.32519,0.20398
3282.25366,0.19943
3284.18213,0.19948
3286.11060,0.20491
3288.03906,0.21229
3289.96753,0.21655
3291.89600,0.21936
3293.82447,0.22127
3295.75294,0.21894
3297.68141,0.21708
3299.60988,0.21789
3301.53834,0.21780
3303.46681,0.22002
3305.39528,0.22272
3307.32375,0.22098
3309.25222,0.21799
3311.18069,0.21299
3313.10916,0.20631
3315.03763,0.20525
3316.96609,0.20913
3318.89456,0.20949
3320.82303,0.20604
3322.75150,0.20729
3324.67997,0.21340
3326.60844,0.21750
3328.53691,0.21713
3330.46537,0.21419
3332.39384,0.21259
3334.32231,0.21329
3336.25078,0.21444
3338.17925,0.21328
3340.10772,0.20773
3342.03619,0.20352
3343.96466,0.20778
3345.89312,0.21509
3347.82159,0.21754
3349.75006,0.21679
3351.67853,0.21701
3353.60700,0.22013
3355.53547,0.22311
3357.46394,0.22225
3359.39240,0.22105
3361.32087,0.22080
3363.24934,0.21783
3365.17781,0.21370
3367.10628,0.21250
3369.03475,0.21513
3370.96322,0.21992
3372.89168,0.22365
3374.82015,0.22602
3376.74862,0.22803
3378.67709,0.22772
3380.60556,0.22372
3382.53403,0.21915
3384.46250,0.21704
3386.39097,0.21506
3388.31943,0.21146
3390.24790,0.21003
3392.17637,0.21519
3394.10484,0.22174
3396.03331,0.22132
3397.96178,0.21472
3399.89025,0.20760
3401.81871,0.20385
3403.74718,0.20364
3405.67565,0.20702
3407.60412,0.21180
3409.53259,0.21240
3411.46106,0.20635
3413.38953,0.20026
3415.31800,0.20393
3417.24646,0.21323
3419.17493,0.21656
3421.10340,0.21197
3423.03187,0.20662
3424.96034,0.20799
3426.88881,0.21726
3428.81728,0.22446
3430.74574,0.21773
3432.67421,0.20413
3434.60268,0.19932
3436.53115,0.20518
3438.45962,0.21308
3440.38809,0.21561
3442.31656,0.21097
3444.24503,0.20634
3446.17349,0.20705
3448.10196,0.20577
3450.03043,0.20165
3451.95890,0.19981
3453.88737,0.19807
3455.81584,0.19455
3457.74431,0.19229
3459.67277,0.19410
3461.60124,0.19422
3463.52971,0.18869
3465.45818,0.18507
3467.38665,0.18809
3469.31512,0.19255
3471.24359,0.19495
3473.17206,0.19632
3475.10052,0.19582
3477.02899,0.19324
3478.95746,0.19153
3480.88593,0.19403
3482.81440,0.19817
3484.74287,0.20077
3486.67134,0.20235
3488.59980,0.19874
3490.52827,0.19093
3492.45674,0.18738
3494.38521,0.19015
3496.31368,0.19611
3498.24215,0.20031
3500.17062,0.19881
3502.09909,0.19253
3504.02755,0.18358
3505.95602,0.17615
3507.88449,0.17297
3509.81296,0.17120
3511.74143,0.17115
3513.66990,0.17386
3515.59837,0.17502
3517.52683,0.17316
3519.45530,0.17317
3521.38377,0.17854
3523.31224,0.18491
3525.24071,0.18622
3527.16918,0.18224
3529.09765,0.17401
3531.02611,0.16538
3532.95458,0.16253
3534.88305,0.16445
3536.81152,0.16792
3538.73999,0.17136
3540.66846,0.17209
3542.59693,0.17359
3544.52540,0.17877
3546.45386,0.17958
3548.38233,0.17304
3550.31080,0.16704
3552.23927,0.16432
3554.16774,0.16381
3556.09621,0.16679
3558.02468,0.17156
3559.95314,0.17194
3561.88161,0.16794
3563.81008,0.16773
3565.73855,0.17424
3567.66702,0.17654
3569.59549,0.16821
3571.52396,0.15796
3573.45243,0.14914
3575.38089,0.14494
3577.30936,0.14678
3579.23783,0.15007
3581.16630,0.15224
3583.09477,0.15328
3585.02324,0.15558
3586.95171,0.15912
3588.88017,0.15668
3590.80864,0.15529
3592.73711,0.16181
3594.66558,0.16649
3596.59405,0.16378
3598.52252,0.16164
3600.45099,0.16053
3602.37946,0.15717
3604.30792,0.15321
3606.23639,0.15190
3608.16486,0.15499
3610.09333,0.15979
3612.02180,0.16429
3613.95027,0.16475
3615.87874,0.16160
3617.80720,0.16344
3619.73567,0.16564
3621.66414,0.16045
3623.59261,0.15768
3625.52108,0.16078
3627.44955,0.16280
3629.37802,0.15376
3631.30649,0.14257
3633.23495,0.13848
3635.16342,0.13802
3637.09189,0.13759
3639.02036,0.13475
3640.94883,0.13217
3642.87730,0.13323
3644.80577,0.13869
3646.73423,0.14994
3648.66270,0.16138
3650.59117,0.15575
3652.51964,0.14421
3654.44811,0.13978
3656.37658,0.14149
3658.30505,0.14281
3660.23352,0.13878
3662.16198,0.13369
3664.09045,0.13430
3666.01892,0.14120
3667.94739,0.15286
3669.87586,0.16033
3671.80433,0.15055
3673.73280,0.14095
3675.66126,0.14124
3677.58973,0.14013
3679.51820,0.13688
3681.44667,0.13640
3683.37514,0.13749
3685.30361,0.13960
3687.23208,0.14317
3689.16055,0.14579
3691.08901,0.14169
3693.01748,0.13589
3694.94595,0.13366
3696.87442,0.13274
3698.80289,0.13194
3700.73136,0.13106
3702.65983,0.12849
3704.58829,0.12626
3706.51676,0.12652
3708.44523,0.12902
3710.37370,0.13169
3712.30217,0.12958
3714.23064,0.12813
3716.15911,0.13338
3718.08757,0.13861
3720.01604,0.13563
3721.94451,0.13085
3723.87298,0.13482
3725.80145,0.14099
3727.72992,0.14177
3729.65839,0.14204
3731.58686,0.14506
3733.51532,0.14825
3735.44379,0.14608
3737.37226,0.13705
3739.30073,0.12934
3741.22920,0.12692
3743.15767,0.13112
3745.08614,0.14503
3747.01460,0.15609
3748.94307,0.15990
3750.87154,0.15778
3752.80001,0.14607
3754.72848,0.14069
3756.65695,0.14390
3758.58542,0.14309
3760.51389,0.13233
3762.44235,0.12353
3764.37082,0.12499
3766.29929,0.13098
3768.22776,0.13150
3770.15623,0.12739
3772.08470,0.12406
3774.01317,0.12393
3775.94163,0.12704
3777.87010,0.13306
3779.79857,0.13726
3781.72704,0.13477
3783.65551,0.12865
3785.58398,0.12146
3787.51245,0.11690
3789.44092,0.11652
3791.36938,0.11749
3793.29785,0.11907
3795.22632,0.12406
3797.15479,0.13246
3799.08326,0.14054
3801.01173,0.14473
3802.94020,0.13697
3804.86866,0.12569
3806.79713,0.12134
3808.72560,0.12118
3810.65407,0.11913
3812.58254,0.11953
3814.51101,0.12675
3816.43948,0.13705
3818.36795,0.14251
3820.29641,0.14025
3822.22488,0.12951
3824.15335,0.12038
3826.08182,0.11697
3828.01029,0.11992
3829.93876,0.12559
3831.86723,0.12918
3833.79569,0.13408
3835.72416,0.14151
3837.65263,0.14381
3839.58110,0.13870
3841.50957,0.13147
3843.43804,0.12450
3845.36651,0.12205
3847.29498,0.12405
3849.22344,0.12968
3851.15191,0.14264
3853.08038,0.15142
3855.00885,0.13392
3856.93732,0.12066
3858.86579,0.11592
3860.79426,0.11656
3862.72272,0.12741
3864.65119,0.13985
3866.57966,0.14118
3868.50813,0.13950
3870.43660,0.13577
3872.36507,0.12943
3874.29354,0.12831
3876.22200,0.12819
3878.15047,0.12720
3880.07894,0.12742
3882.00741,0.12595
3883.93588,0.12396
3885.86435,0.12231
3887.79282,0.12278
3889.72129,0.12664
3891.64975,0.12794
3893.57822,0.12168
3895.50669,0.11514
3897.43516,0.11454
3899.36363,0.11766
3901.29210,0.11601
3903.22057,0.11201
3905.14903,0.11489
3907.07750,0.11799
3909.00597,0.11643
3910.93444,0.11586
3912.86291,0.11820
3914.79138,0.11829
3916.71985,0.11288
3918.64832,0.10820
3920.57678,0.11224
3922.50525,0.12034
3924.43372,0.12223
3926.36219,0.11909
3928.29066,0.11877
3930.21913,0.11799
3932.14760,0.11481
3934.07606,0.11703
3936.00453,0.12209
3937.93300,0.12102
3939.86147,0.11633
3941.78994,0.11424
3943.71841,0.11274
3945.64688,0.11099
3947.57535,0.11131
3949.50381,0.11112
3951.43228,0.10914
3953.36075,0.11023
3955.28922,0.11233
3957.21769,0.10989
3959.14616,0.10874
3961.07463,0.11135
3963.00309,0.11140
3964.93156,0.10884
3966.86003,0.10494
3968.78850,0.09767
3970.71697,0.08923
3972.64544,0.08656
3974.57391,0.09190
3976.50238,0.09949
3978.43084,0.10302
3980.35931,0.10324
3982.28778,0.10571
3984.21625,0.10927
3986.14472,0.10897
3988.07319,0.10576
3990.00166,0.10231
3991.93012,0.10273
3993.85859,0.10918
3995.78706,0.11236
3997.71553,0.10693
3999.64400,0.10226
4001.57247,0.10224
4003.50094,0.10169
4005.42941,0.09811
4007.35787,0.09486
4009.28634,0.09779
4011.21481,0.10386
4013.14328,0.10613
4015.07175,0.10662
4017.00022,0.10829
4018.92869,0.10971
4020.85715,0.11090
4022.78562,0.11149
4024.71409,0.10982
4026.64256,0.10575
4028.57103,0.10053
4030.49950,0.09728
4032.42797,0.09834
4034.35644,0.10143
4036.28490,0.10236
4038.21337,0.10020
4040.14184,0.09747
4042.07031,0.09634
4043.99878,0.09528
4045.92725,0.09290
4047.85572,0.09349
4049.78418,0.09805
4051.71265,0.10024
4053.64112,0.09844
4055.56959,0.09756
4057.49806,0.09786
4059.42653,0.09606
4061.35500,0.09476
4063.28346,0.09505
4065.21193,0.09311
4067.14040,0.09144
4069.06887,0.09217
4070.99734,0.09055
4072.92581,0.08750
4074.85428,0.08738
4076.78275,0.08912
4078.71121,0.09099
4080.63968,0.09194
4082.56815,0.08969
4084.49662,0.08518
4086.42509,0.08391
4088.35356,0.08705
4090.28203,0.08993
4092.21049,0.09015
4094.13896,0.08922
4096.06743,0.08928
4097.99590,0.09007
4099.92437,0.09160
4101.85284,0.09349
4103.78131,0.09197
4105.70978,0.08778
4107.63824,0.08524
4109.56671,0.08438
4111.49518,0.08484
4113.42365,0.08688
4115.35212,0.08884
4117.28059,0.08920
4119.20906,0.08722
4121.13752,0.08557
4123.06599,0.08655
4124.99446,0.08704
4126.92293,0.08874
4128.85140,0.09314
4130.77987,0.09281
4132.70834,0.08688
4134.63681,0.08110
4136.56527,0.07803
4138.49374,0.07880
4140.42221,0.08260
4142.35068,0.08748
4144.27915,0.09168
4146.20762,0.09161
4148.13609,0.08485
4150.06455,0.07709
4151.99302,0.07699
4153.92149,0.08458
4155.84996,0.09274
4157.77843,0.09600
4159.70690,0.09434
4161.63537,0.09213
4163.56384,0.09123
4165.49230,0.08815
4167.42077,0.08395
4169.34924,0.08381
4171.27771,0.08570
4173.20618,0.08498
4175.13465,0.08221
4177.06312,0.08004
4178.99158,0.07734
4180.92005,0.07269
4182.84852,0.07162
4184.77699,0.07791
4186.70546,0.08931
4188.63393,0.09661
4190.56240,0.08887
4192.49087,0.07648
4194.41933,0.07469
4196.34780,0.07768
4198.27627,0.07813
4200.20474,0.07929
4202.13321,0.08264
4204.06168,0.07847
4205.99015,0.06675
4207.91861,0.06248
4209.84708,0.06510
4211.77555,0.06761
4213.70402,0.07006
4215.63249,0.07180
4217.56096,0.07722
4219.48943,0.08591
4221.41789,0.08948
4223.34636,0.08428
4225.27483,0.07287
4227.20330,0.06346
4229.13177,0.06170
4231.06024,0.06497
4232.98871,0.06780
4234.91718,0.06871
4236.84564,0.07123
4238.77411,0.07222
4240.70258,0.06598
4242.63105,0.05843
4244.55952,0.05713
4246.48799,0.05963
4248.41646,0.05978
4250.34492,0.05845
4252.27339,0.06030
4254.20186,0.06327
4256.13033,0.06099
4258.05880,0.05348
4259.98727,0.04815
4261.91574,0.05191
4263.84421,0.06479
4265.77267,0.07920
4267.70114,0.08668
4269.62961,0.08463
4271.55808,0.07609
4273.48655,0.06533
4275.41502,0.05549
4277.34349,0.05140
4279.27195,0.05467
4281.20042,0.05868
4283.12889,0.06054
4285.05736,0.06193
4286.98583,0.05939
4288.91430,0.05634
4290.84277,0.05932
4292.77124,0.06241
4294.69970,0.06238
4296.62817,0.06087
4298.55664,0.05754
4300.48511,0.05699
4302.41358,0.06056
4304.34205,0.06387
4306.27052,0.06416
4308.19898,0.05881
4310.12745,0.04919
4312.05592,0.04180
4313.98439,0.04054
4315.91286,0.04462
4317.84133,0.05108
4319.76980,0.05369
4321.69827,0.04956
4323.62673,0.04617
4325.55520,0.04756
4327.48367,0.04677
4329.41214,0.04164
4331.34061,0.04038
4333.26908,0.04374
4335.19755,0.04364
4337.12601,0.04172
4339.05448,0.04136
4340.98295,0.04101
4342.91142,0.04649
4344.83989,0.05716
4346.76836,0.05896
4348.69683,0.05043
4350.62530,0.04273
4352.55376,0.04036
4354.48223,0.04396
4356.41070,0.04949
4358.33917,0.04807
4360.26764,0.04351
4362.19611,0.04340
4364.12458,0.04394
4366.05304,0.04229
4367.98151,0.04104
4369.90998,0.04085
4371.83845,0.04331
4373.76692,0.04983
4375.69539,0.05345
4377.62386,0.05075
4379.55232,0.04916
4381.48079,0.04832
4383.40926,0.04586
4385.33773,0.04554
4387.26620,0.04289
4389.19467,0.03716
4391.12314,0.03568
4393.05161,0.03644
4394.98007,0.03817
4396.90854,0.04208
4398.83701,0.04236
4400.76548,0.03823
4402.69395,0.03561
4404.62242,0.03431
4406.55089,0.03128
4408.47935,0.02767
4410.40782,0.02342
4412.33629,0.01949
4414.26476,0.02137
4416.19323,0.02913
4418.12170,0.03518
4420.05017,0.03565
4421.97864,0.03517
4423.90710,0.03683
4425.83557,0.03613
4427.76404,0.02992
4429.69251,0.02431
4431.62098,0.02636
4433.54945,0.03140
4435.47792,0.03195
4437.40638,0.02847
4439.33485,0.02139
4441.26332,0.01356
4443.19179,0.01476
4445.12026,0.02559
4447.04873,0.03373
4448.97720,0.03315
4450.90567,0.03095
4452.83413,0.03096
4454.76260,0.02771
4456.69107,0.02132
4458.61954,0.02013
4460.54801,0.02562
4462.47648,0.02666
4464.40495,0.02078
4466.33341,0.01857
4468.26188,0.01988
4470.19035,0.02065
4472.11882,0.02533
4474.04729,0.03082
4475.97576,0.03119
4477.90423,0.02993
4479.83270,0.02676
4481.76116,0.02254
4483.68963,0.02412
4485.61810,0.02978
4487.54657,0.03191
4489.47504,0.02544
4491.40351,0.01492
4493.33198,0.01229
4495.26044,0.01762
4497.18891,0.02308
4499.11738,0.02542
4501.04585,0.02577
4502.97432,0.02763
4504.90279,0.02756
4506.83126,0.02061
4508.75973,0.01166
4510.68819,0.00640
4512.61666,0.00845
4514.54513,0.01508
4516.47360,0.01754
4518.40207,0.01916
4520.33054,0.02482
4522.25901,0.02774
4524.18747,0.02583
4526.11594,0.02097
4528.04441,0.01290
4529.97288,0.00915
4531.90135,0.01154
4533.82982,0.01252
4535.75829,0.01289
4537.68676,0.01210
4539.61522,0.00860
4541.54369,0.01009
4543.47216,0.01547
4545.40063,0.01572
4547.32910,0.01399
4549.25757,0.01806
4551.18604,0.02502
4553.11450,0.02398
4555.04297,0.01493
4556.97144,0.01420
4558.89991,0.02242
4560.82838,0.02170
4562.75685,0.01099
4564.68532,0.00795
4566.61378,0.02210
4568.54225,0.03590
4570.47072,0.02855
4572.39919,0.01377
4574.32766,0.01656
4576.25613,0.02908
4578.18460,0.03293
4580.11307,0.02898
4582.04153,0.02119
4583.97000,0.01320
4585.89847,0.01271
4587.82694,0.01824
4589.75541,0.02230
4591.68388,0.02484
4593.61235,0.02682
4595.54081,0.02527
4597.46928,0.02368
4599.39775,0.02611
4601.32622,0.02675
4603.25469,0.01973
4605.18316,0.00658
4607.11163,-0.00294
4609.04010,0.00166
4610.96856,0.01334
4612.89703,0.01452
4614.82550,0.00496
4616.75397,-0.00258
4618.68244,0.00069
4620.61091,0.01316
4622.53938,0.02580
4624.46784,0.03273
4626.39631,0.02927
4628.32478,0.01897
4630.25325,0.01460
4632.18172,0.01807
4634.11019,0.02718
4636.03866,0.03737
4637.96713,0.03499
4639.89559,0.02555
4641.82406,0.02410
4643.75253,0.02473
4645.68100,0.02063
4647.60947,0.01396
4649.53794,0.00908
4651.46641,0.00977
4653.39487,0.01243
4655.32334,0.01635
4657.25181,0.02342
4659.18028,0.02274
4661.10875,0.00828
4663.03722,-0.00178
4664.96569,0.00406
4666.89416,0.00882
4668.82262,0.00271
4670.75109,-0.00204
4672.67956,-0.00149
4674.60803,-0.00105
4676.53650,-0.00026
4678.46497,-0.00052
4680.39344,-0.00276
4682.32190,-0.00214
4684.25037,0.00240
4686.17884,0.00764
4688.10731,0.01137
4690.03578,0.01156
4691.96425,0.00740
4693.89272,0.00413
4695.82119,0.00755
4697.74965,0.01030
4699.67812,0.00516
4701.60659,0.00135
4703.53506,0.00620
4705.46353,0.01386
4707.39200,0.01381
4709.32047,0.00642
4711.24893,0.00188
4713.17740,-0.00381
4715.10587,-0.01129
4717.03434,-0.00480
4718.96281,0.01317
4720.89128,0.02639
4722.81975,0.02848
4724.74821,0.02265
4726.67668,0.01401
4728.60515,0.00650
4730.53362,0.00704
4732.46209,0.01172
4734.39056,0.00665
4736.31903,-0.00831
4738.24750,-0.01743
4740.17596,-0.01081
4742.10443,0.00051
4744.03290,0.00618
4745.96137,0.00532
4747.88984,-0.00675
4749.81831,-0.02505
4751.74678,-0.02607
4753.67524,-0.00636
4755.60371,0.00270
4757.53218,-0.00247
4759.46065,0.00015
4761.38912,0.00630
4763.31759,0.00439
4765.24606,0.00039
4767.17453,0.00115
4769.10299,0.00513
4771.03146,0.01308
4772.95993,0.02162
4774.88840,0.01974
4776.81687,0.01013
4778.74534,0.00601
4780.67381,0.01004
4782.60227,0.01096
4784.53074,0.00025
4786.45921,-0.01028
4788.38768,-0.00991
4790.31615,-0.00441
4792.24462,-0.00231
4794.17309,-0.00529
4796.10156,-0.00980
4798.03002,-0.00445
4799.95849,0.00759
4801.88696,0.00881
4803.81543,0.00880
4805.74390,0.01817
4807.67237,0.01812
4809.60084,0.00543
4811.52930,-0.00131
4813.45777,0.00212
4815.38624,0.01031
4817.31471,0.02087
4819.24318,0.02247
4821.17165,0.01128
4823.10012,0.00150
4825.02859,-0.00043
4826.95705,0.00061
4828.88552,0.00018
4830.81399,0.00211
4832.74246,0.01137
4834.67093,0.02454
4836.59940,0.03171
4838.52787,0.02949
4840.45633,0.02367
4842.38480,0.01211
4844.31327,0.00213
4846.24174,0.00494
4848.17021,0.00835
4850.09868,0.00432
4852.02715,-0.00089
4853.95562,-0.00115
4855.88408,0.00345
4857.81255,0.00374
4859.74102,0.00107
4861.66949,0.00300
4863.59796,0.00461
4865.52643,0.00219
4867.45490,-0.00018
4869.38336,0.00338
4871.31183,0.01444
4873.24030,0.02528
4875.16877,0.02498
4877.09724,0.01754
4879.02571,0.01594
4880.95418,0.01763
4882.88265,0.01446
4884.81111,0.00935
4886.73958,0.01643
4888.66805,0.03814
4890.59652,0.04900
4892.52499,0.03927
4894.45346,0.02834
4896.38193,0.02525
4898.31039,0.02873
4900.23886,0.03349
4902.16733,0.02953
4904.09580,0.01676
4906.02427,-0.00098
4907.95274,-0.01168
4909.88121,0.00064
4911.80967,0.01265
4913.73814,0.00596
4915.66661,0.00359
4917.59508,0.01361
4919.52355,0.01924
4921.45202,0.01162
4923.38049,0.00348
4925.30896,0.00472
4927.23742,0.01162
4929.16589,0.01792
4931.09436,0.01172
4933.02283,0.00041
4934.95130,0.00316
4936.87977,0.01045
4938.80824,0.00950
4940.73670,0.00930
4942.66517,0.01154
4944.59364,0.00802
4946.52211,0.01112
4948.45058,0.02162
4950.37905,0.01707
4952.30752,0.00385
4954.23599,0.00135
4956.16445,-0.00240
4958.09292,-0.01609
4960.02139,-0.02278
4961.94986,-0.01677
4963.87833,-0.00309
4965.80680,0.01127
4967.73527,0.01537
4969.66373,0.01465
4971.59220,0.01320
4973.52067,0.00914
4975.44914,0.00630
4977.37761,0.00202
4979.30608,-0.00210
4981.23455,0.00480
4983.16302,0.01518
4985.09148,0.00929
4987.01995,-0.00525
4988.94842,-0.01112
4990.87689,-0.01129
4992.80536,-0.00760
4994.73383,0.00295
4996.66230,0.01980
4998.59076,0.04105
5000.51923,0.05623
5002.44770,0.05635
5004.37617,0.04321
5006.30464,0.02587
5008.23311,0.02001
5010.16158,0.02891
5012.09005,0.03612
5014.01851,0.03202
5015.94698,0.01894
5017.87545,0.00635
5019.80392,0.00345
5021.73239,0.00598
5023.66086,0.01091
5025.58933,0.02273
5027.51779,0.03384
5029.44626,0.03237
5031.37473,0.02133
5033.30320,0.01341
5035.23167,0.01813
5037.16014,0.02502
5039.08861,0.02009
5041.01708,0.00969
5042.94554,-0.00090
5044.87401,-0.00765
5046.80248,0.00034
5048.73095,0.01907
5050.65942,0.04082
5052.58789,0.05857
5054.51636,0.05715
5056.44482,0.04047
5058.37329,0.02896
5060.30176,0.02463
5062.23023,0.01784
5064.15870,0.01518
5066.08717,0.02468
5068.01564,0.03274
5069.94410,0.02666
5071.87257,0.01295
5073.80104,0.00660
5075.72951,0.01330
5077.65798,0.02701
5079.58645,0.04352
5081.51492,0.05716
5083.44339,0.06106
5085.37185,0.05123
5087.30032,0.03530
5089.22879,0.03301
5091.15726,0.04269
5093.08573,0.04664
5095.01420,0.04150
5096.94267,0.03051
5098.87113,0.01748
5100.79960,0.01290
5102.72807,0.02184
5104.65654,0.03223
5106.58501,0.03350
5108.51348,0.02641
5110.44195,0.01118
5112.37042,-0.00673
5114.29888,-0.00893
5116.22735,0.00668
5118.15582,0.01790
5120.08429,0.01898
5122.01276,0.02572
5123.94123,0.03706
5125.86970,0.04160
5127.79816,0.04153
5129.72663,0.03484
5131.65510,0.02500
5133.58357,0.02275
5135.51204,0.02521
5137.44051,0.03527
5139.36898,0.04413
5141.29745,0.03654
5143.22591,0.02936
5145.15438,0.03111
5147.08285,0.02004
5149.01132,-0.00265
5150.93979,-0.00634
5152.86826,0.00843
5154.79673,0.01351
5156.72519,0.00770
5158.65366,0.01655
5160.58213,0.04217
5162.51060,0.05363
5164.43907,0.04243
5166.36754,0.03274
5168.29601,0.03197
5170.22448,0.03031
5172.15294,0.02234
5174.08141,0.00979
5176.00988,0.00073
5177.93835,0.00760
5179.86682,0.02678
5181.79529,0.03868
5183.72376,0.04628
5185.65222,0.05181
5187.58069,0.03595
5189.50916,0.01396
5191.43763,0.01326
5193.36610,0.03138
5195.29457,0.05063
5197.22304,0.04916
5199.15151,0.03203
5201.07997,0.03052
5203.00844,0.03995
5204.93691,0.03760
5206.86538,0.02774
5208.79385,0.01400
5210.72232,0.00701
5212.65079,0.02447
5214.57925,0.03810
5216.50772,0.03142
5218.43619,0.03401
5220.36466,0.05207
5222.29313,0.06709
5224.22160,0.07601
5226.15007,0.08154
5228.07854,0.07627
5230.00700,0.05863
5231.93547,0.04687
5233.86394,0.05675
5235.79241,0.07253
5237.72088,0.07107
5239.64935,0.05933
5241.57782,0.05273
5243.50628,0.05517
5245.43475,0.06303
5247.36322,0.05829
5249.29169,0.04231
5251.22016,0.03803
5253.14863,0.04285
5255.07710,0.04852
5257.00556,0.05501
5258.93403,0.05579
5260.86250,0.04728
5262.79097,0.04790
5264.71944,0.06397
5266.64791,0.06234
5268.57638,0.04818
5270.50485,0.05132
5272.43331,0.06146
5274.36178,0.05497
5276.29025,0.03731
5278.21872,0.03196
5280.14719,0.03537
5282.07566,0.03332
5284.00413,0.03266
5285.93259,0.03758
5287.86106,0.04772
5289.78953,0.05799
5291.71800,0.06275
5293.64647,0.06216
5295.57494,0.04706
5297.50341,0.02894
5299.43188,0.04205
5301.36034,0.06718
5303.28881,0.04950
5305.21728,0.00971
5307.14575,0.00106
5309.07422,0.02013
5311.00269,0.03998
5312.93116,0.05255
5314.85962,0.06122
5316.78809,0.05885
5318.71656,0.04463
5320.64503,0.03958
5322.57350,0.03975
5324.50197,0.03402
5326.43044,0.03183
5328.35891,0.04020
5330.28737,0.05697
5332.21584,0.06617
5334.14431,0.05800
5336.07278,0.04684
5338.00125,0.03596
5339.92972,0.01979
5341.85819,0.01409
5343.78665,0.03426
5345.71512,0.06532
5347.64359,0.07728
5349.57206,0.07307
5351.50053,0.06587
5353.42900,0.06914
5355.35747,0.08061
5357.28594,0.07418
5359.21440,0.05842
5361.14287,0.05163
5363.07134,0.04663
5364.99981,0.04329
5366.92828,0.04317
5368.85675,0.04812
5370.78522,0.06175
5372.71368,0.06531
5374.64215,0.05071
5376.57062,0.05018
5378.49909,0.06801
5380.42756,0.06952
5382.35603,0.05285
5384.28450,0.04143
5386.21297,0.05462
5388.14143,0.07289
5390.06990,0.07419
5391.99837,0.06534
5393.92684,0.05423
5395.85531,0.04474
5397.78378,0.04034
5399.71225,0.04260
5401.64071,0.04774
5403.56918,0.05896
5405.49765,0.07317
5407.42612,0.07446
5409.35459,0.07069
5411.28306,0.07637
5413.21153,0.08736
5415.13999,0.08765
5417.06846,0.07438
5418.99693,0.06091
5420.92540,0.04847
5422.85387,0.04772
5424.78234,0.07773
5426.71081,0.11097
5428.63928,0.10633
5430.56774,0.07875
5432.49621,0.06127
5434.42468,0.06259
5436.35315,0.08452
5438.28162,0.10793
5440.21009,0.10082
5442.13856,0.07027
5444.06702,0.05904
5445.99549,0.07628
5447.92396,0.10551
5449.85243,0.11959
5451.78090,0.11560
5453.70937,0.11610
5455.63784,0.11793
5457.56631,0.10799
5459.49477,0.07825
5461.42324,0.03884
5463.35171,0.02182
5465.28018,0.02259
5467.20865,0.02078
5469.13712,0.02991
5471.06559,0.06188
5472.99405,0.10199
5474.92252,0.12546
5476.85099,0.11339
5478.77946,0.08088
5480.70793,0.05111
5482.63640,0.04270
5484.56487,0.05771
5486.49334,0.07551
5488.42180,0.08350
5490.35027,0.08240
5492.27874,0.07971
5494.20721,0.08028
5496.13568,0.08374
5498.06415,0.09217
5499.99262,0.09718
5501.92108,0.08747
5503.84955,0.06014
5505.77802,0.02894
5507.70649,0.02901
5509.63496,0.06098
5511.56343,0.08723
5513.49190,0.08387
5515.42037,0.04756
5517.34883,0.01319
5519.27730,0.01403
5521.20577,0.03007
5523.13424,0.04813
5525.06271,0.06930
5526.99118,0.07616
5528.91965,0.07530
5530.84811,0.08611
5532.77658,0.09167
5534.70505,0.08171
5536.63352,0.07633
5538.56199,0.08442
5540.49046,0.09690
5542.41893,0.09336
5544.34740,0.07898
5546.27586,0.08988
5548.20433,0.10990
5550.13280,0.10468
5552.06127,0.09267
5553.98974,0.09437
5555.91821,0.09018
5557.84668,0.06484
5559.77514,0.04070
5561.70361,0.03536
5563.63208,0.05082
5565.56055,0.06687
5567.48902,0.05725
5569.41749,0.04287
5571.34596,0.06019
5573.27443,0.09107
5575.20289,0.08099
5577.13136,0.04906
5579.05983,0.04480
5580.98830,0.05701
5582.91677,0.07229
5584.84524,0.08541
5586.77371,0.07689
5588.70217,0.06265
5590.63064,0.07797
5592.55911,0.10526
5594.48758,0.10303
5596.41605,0.06628
5598.34452,0.02247
5600.27299,0.01711
5602.20145,0.05195
5604.12992,0.08091
5606.05839,0.09689
5607.98686,0.10443
5609.91533,0.10387
5611.84380,0.10860
5613.77227,0.10468
5615.70074,0.09216
5617.62920,0.09386
5619.55767,0.09353
5621.48614,0.08152
5623.41461,0.06968
5625.34308,0.05373
5627.27155,0.04107
5629.20002,0.02618
5631.12848,0.00197
5633.05695,-0.00258
5634.98542,0.01611
5636.91389,0.03495
5638.84236,0.05846
5640.77083,0.09231
5642.69930,0.10943
5644.62777,0.09679
5646.55623,0.07297
5648.48470,0.05066
5650.41317,0.04063
5652.34164,0.05263
5654.27011,0.08398
5656.19858,0.11633
5658.12705,0.13151
5660.05551,0.13663
5661.98398,0.13662
5663.91245,0.13233
5665.84092,0.13020
5667.76939,0.12558
5669.69786,0.10716
5671.62633,0.07970
5673.55480,0.07378
5675.48326,0.08795
5677.41173,0.08555
5679.34020,0.06883
5681.26867,0.05358
5683.19714,0.03481
5685.12561,0.02331
5687.05408,0.02947
5688.98254,0.04328
5690.91101,0.05939
5692.83948,0.07448
5694.76795,0.09183
5696.69642,0.11052
5698.62489,0.10585
5700.55336,0.09187
5702.48183,0.09606
5704.41029,0.09413
5706.33876,0.07828
5708.26723,0.06984
5710.19570,0.06564
5712.12417,0.05946
5714.05264,0.05431
5715.98111,0.05431
5717.90957,0.06786
5719.83804,0.07701
5721.76651,0.07977
5723.69498,0.08368
5725.62345,0.05797
5727.55192,0.02521
5729.48039,0.03855
5731.40886,0.07085
5733.33732,0.08401
5735.26579,0.08832
5737.19426,0.09375
5739.12273,0.07940
5741.05120,0.04508
5742.97967,0.02763
5744.90814,0.04886
5746.83660,0.07869
5748.76507,0.08396
5750.69354,0.08738
5752.62201,0.10031
5754.55048,0.09348
5756.47895,0.07223
5758.40742,0.07493
5760.33588,0.09186
5762.26435,0.07559
5764.19282,0.03521
5766.12129,0.00841
5768.04976,0.01049
5769.97823,0.03421
5771.90670,0.05415
5773.83517,0.07194
5775.76363,0.09157
5777.69210,0.09311
5779.62057,0.07895
5781.54904,0.08021
5783.47751,0.11072
5785.40598,0.14901
5787.33445,0.16176
5789.26291,0.13794
5791.19138,0.10040
5793.11985,0.06212
5795.04832,0.03548
5796.97679,0.05275
5798.90526,0.09041
5800.83373,0.09861
5802.76220,0.09628
5804.69066,0.11764
5806.61913,0.13262
5808.54760,0.11109
5810.47607,0.07480
5812.40454,0.05578
5814.33301,0.05389
5816.26148,0.04255
5818.18994,0.03929
5820.11841,0.08559
5822.04688,0.13799
5823.97535,0.12538
5825.90382,0.07420
5827.83229,0.04127
5829.76076,0.04157
5831.68923,0.05272
5833.61769,0.03092
5835.54616,-0.01103
5837.47463,-0.01735
5839.40310,0.00954
5841.33157,0.05674
5843.26004,0.10886
5845.18851,0.11366
5847.11697,0.07634
5849.04544,0.04919
5850.97391,0.03818
5852.90238,0.02406
5854.83085,0.02038
5856.75932,0.05279
5858.68779,0.09269
5860.61626,0.08692
5862.54472,0.05752
5864.47319,0.04614
5866.40166,0.03987
5868.33013,0.03718
5870.25860,0.04348
5872.18707,0.05149
5874.11554,0.08155
5876.04400,0.12510
5877.97247,0.12427
5879.90094,0.07699
5881.82941,0.04453
5883.75788,0.05184
5885.68635,0.07016
5887.61482,0.07445
5889.54329,0.06469
5891.47175,0.06404
5893.40022,0.08148
5895.32869,0.08260
5897.25716,0.05723
5899.18563,0.04749
5901.11410,0.05377
5903.04257,0.04225
5904.97103,0.03598
5906.89950,0.05894
5908.82797,0.07914
5910.75644,0.08416
5912.68491,0.10576
5914.61338,0.13145
5916.54185,0.12014
5918.47032,0.08164
5920.39878,0.05641
5922.32725,0.07307
5924.25572,0.11588
5926.18419,0.12604
5928.11266,0.09571
5930.04113,0.07801
5931.96960,0.07651
5933.89806,0.06877
5935.82653,0.05716
5937.75500,0.03584
5939.68347,0.00997
5941.61194,0.02072
5943.54041,0.07726
5945.46888,0.10796
5947.39734,0.09605
5949.32581,0.09597
5951.25428,0.09356
5953.18275,0.07073
5955.11122,0.05732
5957.03969,0.05592
5958.96816,0.05408
5960.89663,0.03432
5962.82509,0.01156
5964.75356,0.02155
5966.68203,0.03738
5968.61050,0.03404
5970.53897,0.04584
5972.46744,0.06293
5974.39591,0.05053
5976.32437,0.01936
5978.25284,-0.00400
5980.18131,-0.00023
5982.10978,0.02781
5984.03825,0.07105
5985.96672,0.12406
5987.89519,0.16648
5989.82366,0.16142
5991.75212,0.10380
5993.68059,0.05423
5995.60906,0.06273
5997.53753,0.08155
5999.46600,0.05802
6001.39447,0.04267
6003.32294,0.07482
6005.25140,0.10461
6007.17987,0.09580
6009.10834,0.07215
6011.03681,0.05804
6012.96528,0.04395
6014.89375,0.03937
6016.82222,0.06244
6018.75069,0.06448
6020.67915,0.04156
6022.60762,0.05930
6024.53609,0.08737
6026.46456,0.07808
6028.39303,0.06873
6030.32150,0.09662
6032.24997,0.14637
6034.17843,0.17766
6036.10690,0.15931
6038.03537,0.11676
6039.96384,0.08546
6041.89231,0.06408
6043.82078,0.06442
6045.74925,0.08978
6047.67772,0.10389
6049.60618,0.09072
6051.53465,0.07522
6053.46312,0.08331
6055.39159,0.10733
6057.32006,0.10799
6059.24853,0.07874
6061.17700,0.04660
6063.10546,0.02962
6065.03393,0.02253
6066.96240,0.02885
6068.89087,0.05941
6070.81934,0.08519
6072.74781,0.08741
6074.67628,0.07788
6076.60475,0.06769
6078.53321,0.07580
6080.46168,0.10786
6082.39015,0.15558
6084.31862,0.19544
6086.24709,0.18275
6088.17556,0.13764
6090.10403,0.11598
6092.03249,0.11195
6093.96096,0.09562
6095.88943,0.05240
6097.81790,0.01178
6099.74637,0.00592
6101.67484,0.03312
6103.60331,0.08631
6105.53177,0.13821
6107.46024,0.14710
6109.38871,0.10765
6111.31718,0.07355
6113.24565,0.08216
6115.17412,0.10072
6117.10259,0.06443
6119.03106,-0.00767
6120.95952,0.01165
6122.88799,0.08571
6124.81646,0.08249
6126.74493,0.03099
6128.67340,0.03391
6130.60187,0.07986
6132.53034,0.10407
6134.45880,0.09484
6136.38727,0.06332
6138.31574,0.04190
6140.24421,0.06043
6142.17268,0.07908
6144.10115,0.05619
6146.02962,0.02500
6147.95809,0.01131
6149.88655,0.00773
6151.81502,0.00091
6153.74349,-0.01900
6155.67196,-0.02059
6157.60043,0.03403
6159.52890,0.12219
6161.45737,0.16458
6163.38583,0.13688
6165.31430,0.11238
6167.24277,0.11572
6169.17124,0.10905
6171.09971,0.08387
6173.02818,0.03418
6174.95665,-0.01420
6176.88512,-0.00451
6178.81358,0.03959
6180.74205,0.06009
6182.67052,0.04708
6184.59899,0.00242
6186.52746,-0.05723
6188.45593,-0.07351
6190.38440,-0.03016
6192.31286,0.00666
6194.24133,0.01243
6196.16980,0.02768
6198.09827,0.06744
6200.02674,0.07878
6201.95521,0.05383
6203.88368,0.04551
6205.81215,0.06556
6207.74061,0.10024
6209.66908,0.08854
6211.59755,-0.01772
6213.52602,-0.10063
6215.45449,-0.08788
6217.38296,-0.04492
6219.31143,-0.02022
6221.23989,0.00185
6223.16836,0.04139
6225.09683,0.09540
6227.02530,0.10471
6228.95377,0.04048
6230.88224,0.00349
6232.81071,0.06622
6234.73918,0.12303
6236.66764,0.11269
6238.59611,0.10265
6240.52458,0.12079
6242.45305,0.12687
6244.38152,0.10664
6246.30999,0.11497
6248.23846,0.14735
6250.16692,0.13190
6252.09539,0.08618
6254.02386,0.05934
6255.95233,0.05038
6257.88080,0.05065
6259.80927,0.04251
6261.73774,0.02610
6263.66621,0.05132
6265.59467,0.13359
6267.52314,0.18046
6269.45161,0.15494
6271.38008,0.11942
6273.30855,0.10767
6275.23702,0.11635
6277.16549,0.11301
6279.09395,0.07940
6281.02242,0.06920
6282.95089,0.09544
6284.87936,0.10400
6286.80783,0.09083
6288.73630,0.07916
6290.66477,0.09186
6292.59323,0.10828
6294.52170,0.10997
6296.45017,0.13737
6298.37864,0.15675
6300.30711,0.11992
6302.23558,0.08176
6304.16405,0.07871
6306.09252,0.09346
6308.02098,0.14626
6309.94945,0.20937
6311.87792,0.21977
6313.80639,0.18541
6315.73486,0.15785
6317.66333,0.14904
6319.59180,0.10616
6321.52026,0.04103
6323.44873,0.01639
6325.37720,-0.00701
6327.30567,-0.06609
6329.23414,-0.09192
6331.16261,-0.02470
6333.09108,0.03569
6335.01955,0.00659
6336.94801,-0.01205
6338.87648,0.02074
6340.80495,0.02944
6342.73342,0.03022
6344.66189,0.07367
6346.59036,0.14416
6348.51883,0.19702
6350.44729,0.19906
6352.37576,0.16668
6354.30423,0.11095
6356.23270,0.04608
6358.16117,0.01874
6360.08964,0.00017
6362.01811,-0.04349
6363.94658,-0.05334
6365.87504,-0.00052
6367.80351,0.07802
6369.73198,0.14906
6371.66045,0.16663
6373.58892,0.09861
6375.51739,0.00981
6377.44586,-0.02328
6379.37432,0.02268
6381.30279,0.12539
6383.23126,0.23529
6385.15973,0.27038
6387.08820,0.21175
6389.01667,0.14977
6390.94514,0.11024
6392.87361,0.04762
6394.80207,-0.01133
6396.73054,-0.00466
6398.65901,0.09199
6400.58748,0.18442
6402.51595,0.15594
6404.44442,0.08921
6406.37289,0.08249
6408.30135,0.11297
6410.22982,0.12000
6412.15829,0.06035
6414.08676,-0.02373
6416.01523,-0.03523
6417.94370,0.00797
6419.87217,0.00329
6421.80064,-0.02373
6423.72910,-0.04556
6425.65757,-0.07134
6427.58604,-0.04028
6429.51451,0.02384
6431.44298,0.01957
6433.37145,-0.01360
6435.29992,0.01302
6437.22838,0.06251
6439.15685,0.06731
6441.08532,0.04151
6443.01379,0.02084
6444.94226,0.02468
6446.87073,0.06188
6448.79920,0.10091
6450.72766,0.09391
6452.65613,0.10219
6454.58460,0.15758
6456.51307,0.17125
6458.44154,0.15117
6460.37001,0.13778
6462.29848,0.09330
6464.22695,0.06176
6466.15541,0.07015
6468.08388,0.04086
6470.01235,0.00472
6471.94082,0.03665
6473.86929,0.06415
6475.79776,0.04041
6477.72623,0.00214
6479.65469,-0.02741
6481.58316,-0.02595
6483.51163,0.01940
6485.44010,0.04579
6487.36857,0.04094
6489.29704,0.09114
6491.22551,0.19718
6493.15398,0.23542
6495.08244,0.17757
6497.01091,0.09724
6498.93938,0.02804
6500.86785,0.00574
6502.79632,0.05230
6504.72479,0.14289
6506.65326,0.20680
6508.58172,0.17165
6510.51019,0.13046
6512.43866,0.17098
6514.36713,0.19936
6516.29560,0.16330
6518.22407,0.11947
6520.15254,0.11980
6522.08101,0.15735
6524.00947,0.16949
6525.93794,0.11663
6527.86641,0.09425
6529.79488,0.12497
6531.72335,0.11290
6533.65182,0.06555
6535.58029,0.03831
6537.50875,0.00738
6539.43722,-0.02256
6541.36569,0.01228
6543.29416,0.06576
6545.22263,0.06459
6547.15110,0.03859
6549.07957,0.02760
6551.00804,0.05415
6552.93650,0.07927
6554.86497,0.05592
6556.79344,0.01682
6558.72191,0.02319
6560.65038,0.07182
6562.57885,0.11319
6564.50732,0.09835
6566.43578,0.03430
6568.36425,0.04887
6570.29272,0.11312
6572.22119,0.07171
6574.14966,-0.01612
6576.07813,-0.02168
6578.00660,0.02993
6579.93507,0.04428
6581.86353,0.04254
6583.79200,0.08085
6585.72047,0.09402
6587.64894,0.06545
6589.57741,0.05085
6591.50588,0.03429
6593.43435,0.01083
6595.36281,0.03042
6597.29128,0.07081
6599.21975,0.09285
6601.14822,0.08393
6603.07669,0.07214
6605.00516,0.10546
6606.93363,0.15751
6608.86210,0.20537
6610.79056,0.23311
6612.71903,0.15968
6614.64750,0.00348
6616.57597,-0.11745
6618.50444,-0.14184
6620.43291,-0.07167
6622.36138,0.02896
6624.28984,0.04852
6626.21831,-0.01065
6628.14678,-0.06862
6630.07525,-0.10656
6632.00372,-0.12131
6633.93219,-0.11956
6635.86066,-0.12188
6637.78912,-0.10665
6639.71759,-0.07508
6641.64606,-0.02935
6643.57453,0.05273
6645.50300,0.13108
6647.43147,0.14078
6649.35994,0.08603
6651.28841,0.02849
6653.21687,0.04562
6655.14534,0.14738
6657.07381,0.20910
6659.00228,0.13517
6660.93075,0.02926
6662.85922,-0.01666
6664.78769,0.00955
6666.71615,0.07683
6668.64462,0.09777
6670.57309,0.05272
6672.50156,-0.01235
6674.43003,-0.05069
6676.35850,-0.06446
6678.28697,-0.10244
6680.21544,-0.12596
6682.14390,-0.07872
6684.07237,0.00487
6686.00084,0.03184
6687.92931,-0.00888
6689.85778,-0.00388
6691.78625,0.06844
6693.71472,0.12618
6695.64318,0.12629
6697.57165,0.07118
6699.50012,0.00037
6701.42859,-0.03134
6703.35706,0.01020
6705.28553,0.05067
6707.21400,0.03016
6709.14247,0.01878
6711.07093,0.01967
6712.99940,-0.02245
6714.92787,-0.04854
6716.85634,-0.01026
6718.78481,0.02914
6720.71328,0.03154
6722.64175,0.01238
6724.57021,0.02622
6726.49868,0.08347
6728.42715,0.12814
6730.35562,0.15477
6732.28409,0.18538
6734.21256,0.16875
6736.14103,0.06372
6738.06950,-0.00029
6739.99796,0.05816
6741.92643,0.12724
6743.85490,0.14761
6745.78337,0.14101
6747.71184,0.08616
6749.64031,0.05125
6751.56878,0.08384
6753.49724,0.08916
6755.42571,0.03567
6757.35418,-0.02831
6759.28265,-0.05524
6761.21112,0.01075
6763.13959,0.10116
6765.06806,0.11056
6766.99653,0.05367
6768.92499,0.02162
6770.85346,0.04601
6772.78193,0.09249
6774.71040,0.16250
6776.63887,0.20534
6778.56734,0.12407
6780.49581,-0.01287
6782.42427,-0.07059
6784.35274,0.00352
6786.28121,0.13156
6788.20968,0.15808
6790.13815,0.07956
6792.06662,0.04484
6793.99509,0.07749
6795.92355,0.11956
6797.85202,0.17823
6799.78049,0.19220
6801.70896,0.09691
6803.63743,0.01417
6805.56590,0.03332
6807.49437,0.03948
6809.42284,-0.02530
6811.35130,-0.07666
6813.27977,-0.03375
6815.20824,0.04892
6817.13671,0.09365
6819.06518,0.10287
6820.99365,0.08354
6822.92212,0.08821
6824.85058,0.18714
6826.77905,0.21756
6828.70752,0.10501
6830.63599,-0.02366
6832.56446,-0.10616
6834.49293,-0.10183
6836.42140,0.04733
6838.34987,0.21734
6840.27833,0.23241
6842.20680,0.12616
6844.13527,0.02494
6846.06374,-0.05127
6847.99221,-0.13527
6849.92068,-0.16534
6851.84915,-0.08200
6853.77761,-0.02185
6855.70608,-0.04222
6857.63455,-0.05092
6859.56302,-0.01734
6861.49149,0.05951
6863.41996,0.13078
6865.34843,0.11266
6867.27690,0.04178
6869.20536,-0.01174
6871.13383,-0.03364
6873.06230,-0.02735
6874.99077,-0.00001
6876.91924,0.06214
6878.84771,0.11126
6880.77618,0.05916
6882.70464,-0.02000
6884.63311,0.00296
6886.56158,0.07318
6888.49005,0.05029
6890.41852,0.00107
6892.34699,0.06287
6894.27546,0.15168
6896.20393,0.18769
6898.13239,0.19600
6900.06086,0.18537
6901.98933,0.12057
6903.91780,-0.03029
6905.84627,-0.12592
6907.77474,-0.01571
6909.70321,0.13414
6911.63167,0.14731
6913.56014,0.06545
6915.48861,-0.03966
6917.41708,-0.12562
6919.34555,-0.07577
6921.27402,0.03009
6923.20249,0.05796
6925.13096,0.07228
6927.05942,0.08602
6928.98789,0.10026
6930.91636,0.15226
6932.84483,0.14209
6934.77330,0.03234
6936.70177,-0.06186
6938.63024,-0.12043
6940.55870,-0.14673
6942.48717,-0.15721
6944.41564,-0.17341
6946.34411,-0.14504
6948.27258,-0.06839
6950.20105,0.04660
6952.12952,0.18305
6954.05799,0.26975
6955.98645,0.24820
6957.91492,0.19950
6959.84339,0.14693
6961.77186,0.00729
6963.70033,-0.08798
6965.62880,-0.03334
6967.55727,0.05147
6969.48573,0.08557
6971.41420,0.13133
6973.34267,0.21938
6975.27114,0.26987
6977.19961,0.24379
6979.12808,0.22802
6981.05655,0.25977
6982.98501,0.26898
6984.91348,0.22337
6986.84195,0.18753
6988.77042,0.18871
6990.69889,0.22599
6992.62736,0.27782
6994.55583,0.27709
6996.48430,0.19369
6998.41276,0.11779
7000.34123,0.15398
7002.26970,0.20001
7004.19817,0.10747
7006.12664,-0.04975
7008.05511,-0.07608
7009.98358,0.05068
7011.91204,0.21920
7013.84051,0.31177
7015.76898,0.26532
7017.69745,0.13957
7019.62592,0.03752
7021.55439,0.02001
7023.48286,0.04623
7025.41133,0.07426
7027.33979,0.07827
7029.26826,0.06101
7031.19673,0.09049
7033.12520,0.18906
7035.05367,0.23374
7036.98214,0.14044
7038.91061,0.02753
7040.83907,-0.06149
7042.76754,-0.09648
7044.69601,-0.01990
7046.62448,0.06958
7048.55295,0.10162
7050.48142,0.13922
7052.40989,0.20079
7054.33836,0.23803
7056.26682,0.24411
7058.19529,0.20323
7060.12376,0.09866
7062.05223,-0.03475
7063.98070,-0.12962
7065.90917,-0.12127
7067.83764,-0.06279
7069.76610,0.00754
7071.69457,0.05115
7073.62304,0.03055
7075.55151,0.03672
7077.47998,0.04541
7079.40845,-0.04092
7081.33692,-0.06658
7083.26539,0.08666
7085.19385,0.17068
7087.12232,0.14216
7089.05079,0.11318
7090.97926,0.07784
7092.90773,0.08611
7094.83620,0.23603
7096.76467,0.41071
7098.69313,0.39423
7100.62160,0.22595
7102.55007,0.07995
7104.47854,0.01088
7106.40701,0.08827
7108.33548,0.23504
7110.26395,0.24869
7112.19242,0.13970
7114.12088,0.08544
7116.04935,0.12145
7117.97782,0.11286
7119.90629,0.09479
7121.83476,0.14392
7123.76323,0.12543
7125.69170,0.07571
7127.62016,0.09002
7129.54863,0.09444
7131.47710,0.09433
7133.40557,0.07304
7135.33404,-0.00324
7137.26251,-0.01907
7139.19098,0.04840
7141.11944,0.10086
7143.04791,0.10027
7144.97638,0.06040
7146.90485,0.07730
7148.83332,0.17436
7150.76179,0.19260
7152.69026,0.06131
7154.61873,-0.05047
7156.54719,-0.02079
7158.47566,0.04753
7160.40413,0.05899
7162.33260,0.01027
7164.26107,-0.02505
7166.18954,0.02635
7168.11801,0.17556
7170.04647,0.31796
7171.97494,0.33849
7173.90341,0.29566
7175.83188,0.18590
7177.76035,0.01434
7179.68882,-0.01768
7181.61729,0.13898
7183.54576,0.30892
7185.47422,0.30944
7187.40269,0.13991
7189.33116,-0.03746
7191.25963,-0.04955
7193.18810,-0.00049
7195.11657,0.01619
7197.04504,0.05028
7198.97350,0.07017
7200.90197,0.07764
7202.83044,0.13934
7204.75891,0.29429
7206.68738,0.28918
7208.61585,0.11320
7210.54432,0.02599
7212.47279,-0.02139
7214.40125,-0.11801
7216.32972,-0.18148
7218.25819,-0.12373
7220.18666,0.02312
7222.11513,0.01892
7224.04360,-0.16800
7225.97207,-0.32294
7227.90053,-0.26593
7229.82900,0.00652
7231.75747,0.27514
7233.68594,0.14520
7235.61441,-0.13061
7237.54288,-0.21298
7239.47135,-0.11459
7241.39982,0.00828
7243.32828,0.05030
7245.25675,0.01021
7247.18522,0.05540
7249.11369,0.23246
7251.04216,0.41858
7252.97063,0.42352
7254.89910,0.30224
7256.82756,0.24211
7258.75603,0.19699
7260.68450,0.15888
7262.61297,0.14012
7264.54144,0.04442
7266.46991,-0.06045
7268.39838,-0.11381
7270.32685,-0.14920
7272.25531,-0.18073
7274.18378,-0.18371
7276.11225,-0.15016
7278.04072,-0.12687
7279.96919,-0.12430
7281.89766,-0.06234
7283.82613,0.07986
7285.75459,0.26769
7287.68306,0.41931
7289.61153,0.38490
7291.54000,0.20845
7293.46847,0.10841
7295.39694,0.06026
7297.32541,-0.04106
7299.25387,-0.10486
7301.18234,0.01082
7303.11081,0.22113
7305.03928,0.36309
7306.96775,0.48354
7308.89622,0.49154
7310.82469,0.27454
7312.75316,0.12968
7314.68162,0.07748
7316.61009,0.01105
7318.53856,0.07059
7320.46703,0.17082
7322.39550,0.16593
7324.32397,0.08869
7326.25244,-0.02629
7328.18090,-0.13237
7330.10937,-0.12504
7332.03784,0.00637
7333.96631,0.08515
7335.89478,0.03854
7337.82325,-0.07597
7339.75172,-0.23587
7341.68019,-0.25057
7343.60865,-0.12500
7345.53712,-0.06590
7347.46559,-0.05073
7349.39406,0.06773
7351.32253,0.17697
7353.25100,0.07426
7355.17947,-0.15659
7357.10793,-0.19402
7359.03640,0.21015
7360.96487,0.61583
7362.89334,0.55423
7364.82181,0.23549
7366.75028,0.05264
7368.67875,0.05784
7370.60722,0.14137
7372.53568,0.26028
7374.46415,0.35894
7376.39262,0.29525
7378.32109,0.11697
7380.24956,-0.00027
7382.17803,0.05322
7384.10650,0.17967
7386.03496,0.22090
7387.96343,0.19537
7389.89190,0.18435
7391.82037,0.15139
7393.74884,0.04372
7395.67731,-0.05250
7397.60578,-0.08962
7399.53425,-0.09383
7401.46271,-0.06233
7403.39118,0.05469
7405.31965,0.31070
7407.24812,0.42654
7409.17659,0.27828
7411.10506,0.09493
7413.03353,0.03459
7414.96199,0.08055
7416.89046,0.13776
7418.81893,0.06488
7420.74740,-0.04218
7422.67587,0.00221
7424.60434,0.13659
7426.53281,0.20917
7428.46128,0.14637
7430.38974,0.06265
7432.31821,0.04209
7434.24668,-0.05887
7436.17515,-0.18030
7438.10362,-0.12818
7440.03209,0.04868
7441.96056,0.13652
7443.88902,0.08297
7445.81749,0.01554
7447.74596,0.05144
7449.67443,0.21020
7451.60290,0.25100
7453.53137,0.06435
7455.45984,0.00647
7457.38831,0.12575
7459.31677,0.17025
7461.24524,0.00426
7463.17371,-0.14466
7465.10218,-0.17866
7467.03065,-0.17338
7468.95912,-0.12613
7470.88759,-0.01156
7472.81605,0.02556
7474.74452,-0.08155
7476.67299,-0.18202
7478.60146,-0.20616
7480.52993,-0.12410
7482.45840,-0.00356
7484.38687,-0.01659
7486.31533,0.00084
7488.24380,0.21371
7490.17227,0.37132
7492.10074,0.30127
7494.02921,0.27460
7495.95768,0.30748
7497.88615,0.20430
