399.19301,6.84747
401.12148,0.80229
403.04995,0.34760
404.97842,-0.01713
406.90689,-0.21445
408.83536,-0.27905
410.76382,-0.27615
412.69229,-0.28080
414.62076,-0.24804
416.54923,-0.13053
418.47770,0.01743
420.40617,-0.00626
422.33464,-0.09909
424.26311,-0.10140
426.19157,-0.00921
428.12004,0.10141
430.04851,0.17869
431.97698,0.15221
433.90545,0.03555
435.83392,-0.03990
437.76239,-0.01313
439.69085,0.05802
441.61932,0.09057
443.54779,0.07241
445.47626,0.04012
447.40473,0.05254
449.33320,0.12277
451.26167,0.11949
453.19013,0.03200
455.11860,0.00919
457.04707,0.06034
458.97554,0.05602
460.90401,-0.00234
462.83248,-0.03530
464.76095,-0.04038
466.68942,-0.06014
468.61788,-0.07324
470.54635,-0.03080
472.47482,0.03197
474.40329,0.04449
476.33176,0.04553
478.26023,0.06180
480.18870,0.05533
482.11716,0.02522
484.04563,0.04243
485.97410,0.10973
487.90257,0.12264
489.83104,0.09813
491.75951,0.11304
493.68798,0.14038
495.61645,0.13184
497.54491,0.09006
499.47338,0.08289
501.40185,0.11460
503.33032,0.10947
505.25879,0.10309
507.18726,0.15348
509.11573,0.19144
511.04419,0.16901
512.97266,0.11817
514.90113,0.07676
516.82960,0.06116
518.75807,0.05534
520.68654,0.04132
522.61501,0.04377
524.54348,0.08630
526.47194,0.11632
528.40041,0.08961
530.32888,0.05819
532.25735,0.06076
534.18582,0.09197
536.11429,0.13921
538.04276,0.16833
539.97122,0.18774
541.89969,0.22464
543.82816,0.22024
545.75663,0.16584
547.68510,0.13666
549.61357,0.11300
551.54204,0.07874
553.47051,0.08690
555.39897,0.11020
557.32744,0.10304
559.25591,0.09651
561.18438,0.11822
563.11285,0.13193
565.04132,0.12136
566.96979,0.12916
568.89825,0.14692
570.82672,0.14393
572.75519,0.14345
574.68366,0.14341
576.61213,0.12708
578.54060,0.12741
580.46907,0.14362
582.39754,0.13305
584.32600,0.11181
586.25447,0.11920
588.18294,0.14528
590.11141,0.16047
592.03988,0.14397
593.96835,0.10434
595.89682,0.08957
597.82528,0.10795
599.75375,0.11925
601.68222,0.11833
603.61069,0.13101
605.53916,0.15069
607.46763,0.15764
609.39610,0.16423
611.32456,0.17292
613.25303,0.16481
615.18150,0.15267
617.10997,0.15144
619.03844,0.14328
620.96691,0.12274
622.89538,0.11123
624.82385,0.11860
626.75231,0.12571
628.68078,0.12321
630.60925,0.12670
632.53772,0.13294
634.46619,0.13785
636.39466,0.14930
638.32313,0.15527
640.25159,0.15560
642.18006,0.15973
644.10853,0.15776
646.03700,0.14424
647.96547,0.12355
649.89394,0.10898
651.82241,0.10889
653.75088,0.11046
655.67934,0.11859
657.60781,0.14185
659.53628,0.15184
661.46475,0.14257
663.39322,0.13692
665.32169,0.12787
667.25016,0.10917
669.17862,0.12137
671.10709,0.15497
673.03556,0.16679
674.96403,0.16528
676.89250,0.16407
678.82097,0.16188
680.74944,0.15383
682.67791,0.14042
684.60637,0.12383
686.53484,0.11522
688.46331,0.12269
690.39178,0.13653
692.32025,0.14866
694.24872,0.15213
696.17719,0.14222
698.10565,0.13048
700.03412,0.12658
701.96259,0.12806
703.89106,0.13338
705.81953,0.14115
707.74800,0.15078
709.67647,0.16268
711.60494,0.16726
713.53340,0.15968
715.46187,0.15375
717.39034,0.15958
719.31881,0.17174
721.24728,0.17590
723.17575,0.16275
725.10422,0.14493
727.03268,0.14280
728.96115,0.15161
730.88962,0.15415
732.81809,0.14837
734.74656,0.13533
736.67503,0.11908
738.60350,0.11045
740.53197,0.11258
742.46043,0.12293
744.38890,0.13506
746.31737,0.13519
748.24584,0.12604
750.17431,0.12483
752.10278,0.13063
754.03125,0.12873
755.95971,0.11773
757.88818,0.11313
759.81665,0.12140
761.74512,0.13085
763.67359,0.12916
765.60206,0.12314
767.53053,0.13211
769.45900,0.14686
771.38746,0.14451
773.31593,0.13081
775.24440,0.12038
777.17287,0.11889
779.10134,0.12609
781.02981,0.13702
782.95828,0.14343
784.88674,0.13487
786.81521,0.12351
788.74368,0.12814
790.67215,0.13546
792.60062,0.13490
794.52909,0.13454
796.45756,0.14205
798.38602,0.15655
800.31449,0.16367
802.24296,0.15463
804.17143,0.13840
806.09990,0.12809
808.02837,0.12606
809.95684,0.12190
811.88531,0.11316
813.81377,0.10972
815.74224,0.11418
817.67071,0.12421
819.59918,0.14073
821.52765,0.15223
823.45612,0.14996
825.38459,0.14697
827.31305,0.14841
829.24152,0.14534
831.16999,0.14043
833.09846,0.14132
835.02693,0.14159
836.95540,0.13520
838.88387,0.13155
840.81234,0.12857
842.74080,0.12211
844.66927,0.12586
846.59774,0.13903
848.52621,0.15072
850.45468,0.15820
852.38315,0.15954
854.31162,0.15739
856.24008,0.15656
858.16855,0.15888
860.09702,0.15816
862.02549,0.14965
863.95396,0.14587
865.88243,0.15557
867.81090,0.16370
869.73937,0.15943
871.66783,0.15492
873.59630,0.15958
875.52477,0.16385
877.45324,0.15775
879.38171,0.14831
881.31018,0.14519
883.23865,0.14645
885.16711,0.14550
887.09558,0.14113
889.02405,0.13808
890.95252,0.13900
892.88099,0.14409
894.80946,0.14795
896.73793,0.14272
898.66640,0.13167
900.59486,0.12696
902.52333,0.13396
904.45180,0.14069
906.38027,0.13857
908.30874,0.13707
910.23721,0.14108
912.16568,0.14534
914.09414,0.14700
916.02261,0.14872
917.95108,0.15416
919.87955,0.15904
921.80802,0.16065
923.73649,0.16086
925.66496,0.15625
927.59343,0.14674
929.52189,0.13812
931.45036,0.13753
933.37883,0.14112
935.30730,0.13796
937.23577,0.13717
939.16424,0.14585
941.09271,0.15052
943.02117,0.14892
944.94964,0.15030
946.87811,0.15061
948.80658,0.14528
950.73505,0.14171
952.66352,0.14101
954.59199,0.13967
956.52045,0.14142
958.44892,0.14761
960.37739,0.15443
962.30586,0.15652
964.23433,0.15035
966.16280,0.14282
968.09127,0.13967
970.01974,0.13989
971.94820,0.14700
973.87667,0.15301
975.80514,0.14624
977.73361,0.13985
979.66208,0.14383
981.59055,0.14688
983.51902,0.14556
985.44748,0.14516
987.37595,0.14562
989.30442,0.14945
991.23289,0.15577
993.16136,0.15862
995.08983,0.16123
997.01830,0.16572
998.94677,0.16707
1000.87523,0.16308
1002.80370,0.15863
1004.73217,0.15873
1006.66064,0.15670
1008.58911,0.15086
1010.51758,0.15315
1012.44605,0.16041
1014.37451,0.15821
1016.30298,0.15083
1018.23145,0.15138
1020.15992,0.16098
1022.08839,0.17027
1024.01686,0.16802
1025.94533,0.15559
1027.87380,0.14984
1029.80226,0.15717
1031.73073,0.16114
1033.65920,0.15552
1035.58767,0.15262
1037.51614,0.15614
1039.44461,0.15839
1041.37308,0.15370
1043.30154,0.14731
1045.23001,0.14568
1047.15848,0.14700
1049.08695,0.15256
1051.01542,0.16080
1052.94389,0.16615
1054.87236,0.16906
1056.80083,0.16983
1058.72929,0.16766
1060.65776,0.16331
1062.58623,0.16096
1064.51470,0.16036
1066.44317,0.15200
1068.37164,0.14118
1070.30011,0.14410
1072.22857,0.15951
1074.15704,0.17397
1076.08551,0.17618
1078.01398,0.16621
1079.94245,0.15958
1081.87092,0.16034
1083.79939,0.15603
1085.72786,0.14897
1087.65632,0.14855
1089.58479,0.14914
1091.51326,0.14875
1093.44173,0.15629
1095.37020,0.16875
1097.29867,0.17207
1099.22714,0.16270
1101.15560,0.15326
1103.08407,0.15658
1105.01254,0.16967
1106.94101,0.17985
1108.86948,0.17645
1110.79795,0.16750
1112.72642,0.16964
1114.65489,0.17682
1116.58335,0.17860
1118.51182,0.17525
1120.44029,0.16497
1122.36876,0.15299
1124.29723,0.14801
1126.22570,0.14938
1128.15417,0.15224
1130.08263,0.15029
1132.01110,0.14614
1133.93957,0.14935
1135.86804,0.15443
1137.79651,0.15281
1139.72498,0.15167
1141.65345,0.15668
1143.58191,0.16676
1145.51038,0.17789
1147.43885,0.17958
1149.36732,0.17011
1151.29579,0.16064
1153.22426,0.15919
1155.15273,0.16277
1157.08120,0.16341
1159.00966,0.16230
1160.93813,0.16424
1162.86660,0.16695
1164.79507,0.16983
1166.72354,0.17408
1168.65201,0.17622
1170.58048,0.17521
1172.50894,0.17300
1174.43741,0.16857
1176.36588,0.16332
1178.29435,0.16244
1180.22282,0.16531
1182.15129,0.16414
1184.07976,0.15823
1186.00823,0.15439
1187.93669,0.15555
1189.86516,0.15881
1191.79363,0.16103
1193.72210,0.16403
1195.65057,0.16762
1197.57904,0.16922
1199.50751,0.16844
1201.43597,0.16610
1203.36444,0.16669
1205.29291,0.16994
1207.22138,0.16785
1209.14985,0.16092
1211.07832,0.15909
1213.00679,0.16474
1214.93526,0.17052
1216.86372,0.17190
1218.79219,0.17138
1220.72066,0.17023
1222.64913,0.16827
1224.57760,0.16818
1226.50607,0.16935
1228.43454,0.16910
1230.36300,0.16814
1232.29147,0.16868
1234.21994,0.17000
1236.14841,0.17043
1238.07688,0.17048
1240.00535,0.16874
1241.93382,0.16664
1243.86229,0.16717
1245.79075,0.16680
1247.71922,0.16394
1249.64769,0.16248
1251.57616,0.16084
1253.50463,0.15741
1255.43310,0.15890
1257.36157,0.16321
1259.29003,0.16126
1261.21850,0.15842
1263.14697,0.16152
1265.07544,0.16420
1267.00391,0.16388
1268.93238,0.16479
1270.86085,0.16792
1272.78932,0.16955
1274.71778,0.16508
1276.64625,0.16030
1278.57472,0.16214
1280.50319,0.16496
1282.43166,0.16488
1284.36013,0.16434
1286.28860,0.16263
1288.21706,0.16217
1290.14553,0.16601
1292.07400,0.16786
1294.00247,0.16575
1295.93094,0.16473
1297.85941,0.16138
1299.78788,0.15044
1301.71634,0.13232
1303.64481,0.11449
1305.57328,0.11791
1307.50175,0.14589
1309.43022,0.16897
1311.35869,0.17523
1313.28716,0.17410
1315.21563,0.17003
1317.14409,0.17070
1319.07256,0.17425
1321.00103,0.17109
1322.92950,0.16581
1324.85797,0.16035
1326.78644,0.15459
1328.71491,0.15455
1330.64337,0.15537
1332.57184,0.15758
1334.50031,0.16638
1336.42878,0.17141
1338.35725,0.16808
1340.28572,0.15763
1342.21419,0.14822
1344.14266,0.15062
1346.07112,0.15565
1347.99959,0.15505
1349.92806,0.15297
1351.85653,0.15248
1353.78500,0.15346
1355.71347,0.15601
1357.64194,0.16096
1359.57040,0.16720
1361.49887,0.17326
1363.42734,0.17706
1365.35581,0.17652
1367.28428,0.17232
1369.21275,0.16863
1371.14122,0.16940
1373.06969,0.17245
1374.99815,0.17424
1376.92662,0.17455
1378.85509,0.17531
1380.78356,0.17399
1382.71203,0.17153
1384.64050,0.17517
1386.56897,0.18256
1388.49743,0.18377
1390.42590,0.18209
1392.35437,0.18491
1394.28284,0.18840
1396.21131,0.18796
1398.13978,0.18845
1400.06825,0.18934
1401.99672,0.18673
1403.92518,0.18092
1405.85365,0.17486
1407.78212,0.17350
1409.71059,0.17648
1411.63906,0.17974
1413.56753,0.18164
1415.49600,0.18579
1417.42446,0.19530
1419.35293,0.20144
1421.28140,0.19711
1423.20987,0.19331
1425.13834,0.19200
1427.06681,0.19024
1428.99528,0.18821
1430.92375,0.18473
1432.85221,0.18318
1434.78068,0.18853
1436.70915,0.19271
1438.63762,0.18740
1440.56609,0.18472
1442.49456,0.18616
1444.42303,0.18683
1446.35149,0.18751
1448.27996,0.18786
1450.20843,0.18779
1452.13690,0.18992
1454.06537,0.19544
1455.99384,0.20789
1457.92231,0.21430
1459.85077,0.20120
1461.77924,0.19389
1463.70771,0.19629
1465.63618,0.19750
1467.56465,0.19609
1469.49312,0.20247
1471.42159,0.21706
1473.35006,0.22201
1475.27852,0.20958
1477.20699,0.19794
1479.13546,0.19210
1481.06393,0.18962
1482.99240,0.18897
1484.92087,0.19266
1486.84934,0.20094
1488.77780,0.20658
1490.70627,0.20373
1492.63474,0.20123
1494.56321,0.20518
1496.49168,0.21270
1498.42015,0.21273
1500.34862,0.20350
1502.27709,0.19675
1504.20555,0.20173
1506.13402,0.22542
1508.06249,0.23372
1509.99096,0.21409
1511.91943,0.20400
1513.84790,0.20597
1515.77637,0.21413
1517.70483,0.22135
1519.63330,0.22629
1521.56177,0.22553
1523.49024,0.21329
1525.41871,0.20471
1527.34718,0.20258
1529.27565,0.20127
1531.20412,0.20335
1533.13258,0.20888
1535.06105,0.21096
1536.98952,0.21670
1538.91799,0.23608
1540.84646,0.25400
1542.77493,0.24248
1544.70340,0.21893
1546.63186,0.20080
1548.56033,0.19605
1550.48880,0.19918
1552.41727,0.20332
1554.34574,0.20882
1556.27421,0.22257
1558.20268,0.24559
1560.13115,0.23085
1562.05961,0.20655
1563.98808,0.19867
1565.91655,0.19500
1567.84502,0.19217
1569.77349,0.19209
1571.70196,0.19303
1573.63043,0.19688
1575.55889,0.20424
1577.48736,0.20230
1579.41583,0.19261
1581.34430,0.18691
1583.27277,0.18542
1585.20124,0.18567
1587.12971,0.18437
1589.05818,0.17906
1590.98664,0.17443
1592.91511,0.17581
1594.84358,0.17916
1596.77205,0.17828
1598.70052,0.17619
1600.62899,0.17734
1602.55746,0.17758
1604.48592,0.17679
1606.41439,0.18026
1608.34286,0.18348
1610.27133,0.18272
1612.19980,0.18489
1614.12827,0.19380
1616.05674,0.20402
1617.98521,0.20389
1619.91367,0.19919
1621.84214,0.19870
1623.77061,0.19965
1625.69908,0.19978
1627.62755,0.20103
1629.55602,0.20030
1631.48449,0.19946
1633.41295,0.20779
1635.34142,0.22606
1637.26989,0.22525
1639.19836,0.20874
1641.12683,0.19915
1643.05530,0.19986
1644.98377,0.21146
1646.91223,0.22507
1648.84070,0.22212
1650.76917,0.21890
1652.69764,0.22304
1654.62611,0.21651
1656.55458,0.20589
1658.48305,0.20623
1660.41152,0.23244
1662.33998,0.27060
1664.26845,0.25798
1666.19692,0.21886
1668.12539,0.20663
1670.05386,0.21170
1671.98233,0.20938
1673.91080,0.20820
1675.83926,0.20665
1677.76773,0.20500
1679.69620,0.20917
1681.62467,0.21857
1683.55314,0.22657
1685.48161,0.21727
1687.41008,0.20653
1689.33855,0.20515
1691.26701,0.20675
1693.19548,0.20929
1695.12395,0.21471
1697.05242,0.22137
1698.98089,0.22833
1700.90936,0.22741
1702.83783,0.21774
1704.76629,0.21051
1706.69476,0.20523
1708.62323,0.20129
1710.55170,0.20062
1712.48017,0.20516
1714.40864,0.21618
1716.33711,0.22512
1718.26558,0.21401
1720.19404,0.19844
1722.12251,0.19167
1724.05098,0.18943
1725.97945,0.19017
1727.90792,0.19521
1729.83639,0.20279
1731.76486,0.20795
1733.69332,0.20548
1735.62179,0.19788
1737.55026,0.19712
1739.47873,0.20125
1741.40720,0.20338
1743.33567,0.20272
1745.26414,0.20436
1747.19261,0.21064
1749.12107,0.21736
1751.04954,0.21442
1752.97801,0.20343
1754.90648,0.19584
1756.83495,0.19341
1758.76342,0.19508
1760.69189,0.20111
1762.62035,0.20325
1764.54882,0.19838
1766.47729,0.19602
1768.40576,0.19950
1770.33423,0.20789
1772.26270,0.21271
1774.19117,0.20482
1776.11964,0.19691
1778.04810,0.19443
1779.97657,0.19310
1781.90504,0.19090
1783.83351,0.18904
1785.76198,0.18769
1787.69045,0.18804
1789.61892,0.19315
1791.54738,0.20195
1793.47585,0.20661
1795.40432,0.20478
1797.33279,0.20126
1799.26126,0.19917
1801.18973,0.19673
1803.11820,0.19222
1805.04666,0.19126
1806.97513,0.19446
1808.90360,0.19536
1810.83207,0.19173
1812.76054,0.18897
1814.68901,0.19110
1816.61748,0.19422
1818.54595,0.19551
1820.47441,0.19828
1822.40288,0.20188
1824.33135,0.20253
1826.25982,0.20184
1828.18829,0.20331
1830.11676,0.20205
1832.04523,0.19681
1833.97369,0.19677
1835.90216,0.20140
1837.83063,0.20372
1839.75910,0.20321
1841.68757,0.20423
1843.61604,0.20572
1845.54451,0.20151
1847.47298,0.19418
1849.40144,0.18979
1851.32991,0.18983
1853.25838,0.19153
1855.18685,0.19311
1857.11532,0.19561
1859.04379,0.19836
1860.97226,0.19972
1862.90072,0.19868
1864.82919,0.19760
1866.75766,0.20012
1868.68613,0.20250
1870.61460,0.19847
1872.54307,0.19281
1874.47154,0.18936
1876.40001,0.18758
1878.32847,0.18697
1880.25694,0.18596
1882.18541,0.18589
1884.11388,0.18844
1886.04235,0.19065
1887.97082,0.19200
1889.89929,0.19234
1891.82775,0.19053
1893.75622,0.18963
1895.68469,0.19121
1897.61316,0.19192
1899.54163,0.18983
1901.47010,0.18944
1903.39857,0.19334
1905.32704,0.19703
1907.25550,0.19790
1909.18397,0.19792
1911.11244,0.19860
1913.04091,0.19807
1914.96938,0.19563
1916.89785,0.19299
1918.82632,0.19059
1920.75478,0.19107
1922.68325,0.19402
1924.61172,0.19203
1926.54019,0.18613
1928.46866,0.18436
1930.39713,0.18626
1932.32560,0.18814
1934.25407,0.19017
1936.18253,0.19138
1938.11100,0.19222
1940.03947,0.19470
1941.96794,0.19635
1943.89641,0.19474
1945.82488,0.19282
1947.75335,0.19264
1949.68181,0.19254
1951.61028,0.19133
1953.53875,0.19069
1955.46722,0.19115
1957.39569,0.19056
1959.32416,0.19052
1961.25263,0.19304
1963.18110,0.19500
1965.10956,0.19502
1967.03803,0.19327
1968.96650,0.19014
1970.89497,0.18901
1972.82344,0.19014
1974.75191,0.19052
1976.68038,0.19024
1978.60884,0.19037
1980.53731,0.18957
1982.46578,0.18842
1984.39425,0.18880
1986.32272,0.19005
1988.25119,0.19178
1990.17966,0.19400
1992.10812,0.19427
1994.03659,0.19120
1995.96506,0.18804
1997.89353,0.18806
1999.82200,0.19098
2001.75047,0.19441
2003.67894,0.19578
2005.60741,0.19387
2007.53587,0.19027
2009.46434,0.18862
2011.39281,0.19097
2013.32128,0.19447
2015.24975,0.19604
2017.17822,0.19672
2019.10669,0.19608
2021.03515,0.19253
2022.96362,0.18995
2024.89209,0.19150
2026.82056,0.19289
2028.74903,0.19198
2030.67750,0.19189
2032.60597,0.19200
2034.53444,0.19008
2036.46290,0.18818
2038.39137,0.18913
2040.31984,0.19104
2042.24831,0.18972
2044.17678,0.18750
2046.10525,0.18917
2048.03372,0.19292
2049.96218,0.19530
2051.89065,0.19496
2053.81912,0.19186
2055.74759,0.18865
2057.67606,0.18784
2059.60453,0.18906
2061.53300,0.19059
2063.46147,0.19184
2065.38993,0.19303
2067.31840,0.19307
2069.24687,0.19090
2071.17534,0.18873
2073.10381,0.18954
2075.03228,0.19190
2076.96075,0.19254
2078.88921,0.19254
2080.81768,0.19382
2082.74615,0.19406
2084.67462,0.19396
2086.60309,0.19604
2088.53156,0.19688
2090.46003,0.19361
2092.38850,0.18774
2094.31696,0.18450
2096.24543,0.18799
2098.17390,0.19244
2100.10237,0.19239
2102.03084,0.19202
2103.95931,0.19329
2105.88778,0.19285
2107.81624,0.19099
2109.74471,0.19005
2111.67318,0.19089
2113.60165,0.19487
2115.53012,0.19988
2117.45859,0.20015
2119.38706,0.19597
2121.31553,0.19202
2123.24399,0.18981
2125.17246,0.18924
2127.10093,0.18928
2129.02940,0.18967
2130.95787,0.19134
2132.88634,0.19276
2134.81481,0.19223
2136.74327,0.18913
2138.67174,0.18562
2140.60021,0.18724
2142.52868,0.19249
2144.45715,0.19416
2146.38562,0.19286
2148.31409,0.19271
2150.24255,0.19287
2152.17102,0.19238
2154.09949,0.19194
2156.02796,0.19133
2157.95643,0.19095
2159.88490,0.19148
2161.81337,0.19126
2163.74184,0.18920
2165.67030,0.18860
2167.59877,0.19121
2169.52724,0.19334
2171.45571,0.19297
2173.38418,0.19111
2175.31265,0.18776
2177.24112,0.18615
2179.16958,0.18991
2181.09805,0.19465
2183.02652,0.19653
2184.95499,0.19719
2186.88346,0.19696
2188.81193,0.19627
2190.74040,0.19577
2192.66887,0.19499
2194.59733,0.19405
2196.52580,0.19279
2198.45427,0.19187
2200.38274,0.19276
2202.31121,0.19500
2204.23968,0.19666
2206.16815,0.19671
2208.09661,0.19502
2210.02508,0.19290
2211.95355,0.19175
2213.88202,0.19223
2215.81049,0.19456
2217.73896,0.19573
2219.66743,0.19431
2221.59590,0.19299
2223.52436,0.19214
2225.45283,0.19036
2227.38130,0.18880
2229.30977,0.18932
2231.23824,0.19077
2233.16671,0.19190
2235.09518,0.19258
2237.02364,0.19173
2238.95211,0.18975
2240.88058,0.18834
2242.80905,0.18820
2244.73752,0.18860
2246.66599,0.18876
2248.59446,0.18916
2250.52293,0.18965
2252.45139,0.18951
2254.37986,0.19019
2256.30833,0.19234
2258.23680,0.19304
2260.16527,0.19138
2262.09374,0.19010
2264.02221,0.19097
2265.95067,0.19261
2267.87914,0.19268
2269.80761,0.19166
2271.73608,0.19059
2273.66455,0.18992
2275.59302,0.19093
2277.52149,0.19203
2279.44996,0.19092
2281.37842,0.18919
2283.30689,0.18758
2285.23536,0.18624
2287.16383,0.18805
2289.09230,0.19191
2291.02077,0.19204
2292.94924,0.18893
2294.87770,0.18885
2296.80617,0.19219
2298.73464,0.19452
2300.66311,0.19481
2302.59158,0.19360
2304.52005,0.19068
2306.44852,0.18808
2308.37699,0.18774
2310.30545,0.18935
2312.23392,0.19182
2314.16239,0.19160
2316.09086,0.18564
2318.01933,0.17696
2319.94780,0.17277
2321.87627,0.17717
2323.80473,0.18556
2325.73320,0.18658
2327.66167,0.17754
2329.59014,0.17310
2331.51861,0.18086
2333.44708,0.18996
2335.37555,0.19379
2337.30401,0.19267
2339.23248,0.18670
2341.16095,0.18146
2343.08942,0.18413
2345.01789,0.18472
2346.94636,0.18001
2348.87483,0.18268
2350.80330,0.19492
2352.73176,0.20669
2354.66023,0.20023
2356.58870,0.18388
2358.51717,0.18534
2360.44564,0.19295
2362.37411,0.18232
2364.30258,0.16508
2366.23104,0.16313
2368.15951,0.17222
2370.08798,0.18175
2372.01645,0.18951
2373.94492,0.19141
2375.87339,0.18849
2377.80186,0.18802
2379.73033,0.19142
2381.65879,0.19518
2383.58726,0.19710
2385.51573,0.19591
2387.44420,0.19270
2389.37267,0.19068
2391.30114,0.19118
2393.22961,0.19285
2395.15807,0.19354
2397.08654,0.19208
2399.01501,0.18894
2400.94348,0.18731
2402.87195,0.19010
2404.80042,0.19468
2406.72889,0.19706
2408.65736,0.19790
2410.58582,0.19815
2412.51429,0.19682
2414.44276,0.19432
2416.37123,0.19147
2418.29970,0.18967
2420.22817,0.18953
2422.15664,0.19048
2424.08510,0.19265
2426.01357,0.19311
2427.94204,0.19096
2429.87051,0.19122
2431.79898,0.19504
2433.72745,0.19839
2435.65592,0.19865
2437.58439,0.19689
2439.51285,0.19558
2441.44132,0.19470
2443.36979,0.19235
2445.29826,0.18975
2447.22673,0.18933
2449.15520,0.18993
2451.08367,0.18960
2453.01213,0.18875
2454.94060,0.18873
2456.86907,0.19014
2458.79754,0.19259
2460.72601,0.19454
2462.65448,0.19373
2464.58295,0.19118
2466.51142,0.19132
2468.43988,0.19331
2470.36835,0.19354
2472.29682,0.19463
2474.22529,0.19777
2476.15376,0.19989
2478.08223,0.20054
2480.01070,0.19929
2481.93916,0.19590
2483.86763,0.19412
2485.79610,0.19499
2487.72457,0.19318
2489.65304,0.18940
2491.58151,0.18949
2493.50998,0.19147
2495.43844,0.19291
2497.36691,0.19667
2499.29538,0.20161
2501.22385,0.20196
2503.15232,0.19766
2505.08079,0.19400
2507.00926,0.19204
2508.93773,0.19098
2510.86619,0.19034
2512.79466,0.18972
2514.72313,0.19058
2516.65160,0.19146
2518.58007,0.19094
2520.50854,0.19160
2522.43701,0.19432
2524.36547,0.19685
2526.29394,0.19754
2528.22241,0.19787
2530.15088,0.19797
2532.07935,0.19554
2534.00782,0.19287
2535.93629,0.19287
2537.86476,0.19393
2539.79322,0.19545
2541.72169,0.19865
2543.65016,0.20144
2545.57863,0.19963
2547.50710,0.19417
2549.43557,0.19081
2551.36404,0.19116
2553.29250,0.19147
2555.22097,0.19050
2557.14944,0.19181
2559.07791,0.19596
2561.00638,0.19865
2562.93485,0.19732
2564.86332,0.19355
2566.79179,0.19131
2568.72025,0.19237
2570.64872,0.19361
2572.57719,0.19248
2574.50566,0.19155
2576.43413,0.19278
2578.36260,0.19372
2580.29107,0.19299
2582.21953,0.19127
2584.14800,0.18978
2586.07647,0.19095
2588.00494,0.19298
2589.93341,0.19446
2591.86188,0.19799
2593.79035,0.20041
2595.71882,0.19927
2597.64728,0.19838
2599.57575,0.19944
2601.50422,0.20059
2603.43269,0.19964
2605.36116,0.19711
2607.28963,0.19569
2609.21810,0.19617
2611.14656,0.19624
2613.07503,0.19500
2615.00350,0.19451
2616.93197,0.19530
2618.86044,0.19583
2620.78891,0.19419
2622.71738,0.19231
2624.64585,0.19442
2626.57431,0.19909
2628.50278,0.20160
2630.43125,0.20036
2632.35972,0.19806
2634.28819,0.19837
2636.21666,0.20044
2638.14513,0.20044
2640.07359,0.19815
2642.00206,0.19638
2643.93053,0.19670
2645.85900,0.19864
2647.78747,0.19940
2649.71594,0.19742
2651.64441,0.19523
2653.57288,0.19519
2655.50134,0.19832
2657.42981,0.20316
2659.35828,0.20470
2661.28675,0.20139
2663.21522,0.19827
2665.14369,0.19853
2667.07216,0.19958
2669.00062,0.20024
2670.92909,0.20011
2672.85756,0.19756
2674.78603,0.19403
2676.71450,0.19223
2678.64297,0.19340
2680.57144,0.19657
2682.49990,0.19982
2684.42837,0.20171
2686.35684,0.20123
2688.28531,0.19831
2690.21378,0.19496
2692.14225,0.19477
2694.07072,0.19821
2695.99919,0.20227
2697.92765,0.20337
2699.85612,0.20074
2701.78459,0.19807
2703.71306,0.19773
2705.64153,0.19881
2707.57000,0.20109
2709.49847,0.20440
2711.42693,0.20586
2713.35540,0.20495
2715.28387,0.20432
2717.21234,0.20474
2719.14081,0.20516
2721.06928,0.20414
2722.99775,0.20229
2724.92622,0.20110
2726.85468,0.20036
2728.78315,0.20034
2730.71162,0.20307
2732.64009,0.20749
2734.56856,0.20861
2736.49703,0.20525
2738.42550,0.20029
2740.35396,0.19609
2742.28243,0.19512
2744.21090,0.19755
2746.13937,0.19995
2748.06784,0.20156
2749.99631,0.20369
2751.92478,0.20454
2753.85325,0.20191
2755.78171,0.19784
2757.71018,0.19791
2759.63865,0.20370
2761.56712,0.20891
2763.49559,0.20932
2765.42406,0.20911
2767.35253,0.20983
2769.28099,0.20820
2771.20946,0.20511
2773.13793,0.20403
2775.06640,0.20616
2776.99487,0.20815
2778.92334,0.20620
2780.85181,0.20348
2782.78028,0.20409
2784.70874,0.20555
2786.63721,0.20506
2788.56568,0.20332
2790.49415,0.20202
2792.42262,0.20257
2794.35109,0.20284
2796.27956,0.20132
2798.20802,0.19933
2800.13649,0.19812
2802.06496,0.20014
2803.99343,0.20475
2805.92190,0.20810
2807.85037,0.20848
2809.77884,0.20782
2811.70731,0.20901
2813.63577,0.21031
2815.56424,0.20888
2817.49271,0.20631
2819.42118,0.20388
2821.34965,0.20209
2823.27812,0.20275
2825.20659,0.20581
2827.13505,0.20915
2829.06352,0.20944
2830.99199,0.20725
2832.92046,0.20667
2834.84893,0.20719
2836.77740,0.20840
2838.70587,0.21209
2840.63433,0.21410
2842.56280,0.21124
2844.49127,0.20878
2846.41974,0.20950
2848.34821,0.21011
2850.27668,0.20926
2852.20515,0.20904
2854.13362,0.21020
2856.06208,0.21078
2857.99055,0.21094
2859.91902,0.21194
2861.84749,0.21239
2863.77596,0.20990
2865.70443,0.20691
2867.63290,0.20755
2869.56136,0.21012
2871.48983,0.21032
2873.41830,0.20703
2875.34677,0.20469
2877.27524,0.20506
2879.20371,0.20639
2881.13218,0.20947
2883.06065,0.21099
2884.98911,0.20953
2886.91758,0.21036
2888.84605,0.21316
2890.77452,0.21344
2892.70299,0.21102
2894.63146,0.20667
2896.55993,0.20205
2898.48839,0.20124
2900.41686,0.20496
2902.34533,0.20871
2904.27380,0.20622
2906.20227,0.20076
2908.13074,0.20330
2910.05921,0.21123
2911.98768,0.21214
2913.91614,0.20173
2915.84461,0.18800
2917.77308,0.18422
2919.70155,0.19164
2921.63002,0.20000
2923.55849,0.20030
2925.48696,0.19301
2927.41542,0.18807
2929.34389,0.18976
2931.27236,0.19662
2933.20083,0.20047
2935.12930,0.19020
2937.05777,0.17949
2938.98624,0.18776
2940.91471,0.20300
2942.84317,0.20850
2944.77164,0.20361
2946.70011,0.19199
2948.62858,0.18777
2950.55705,0.19535
2952.48552,0.19947
2954.41399,0.19596
2956.34245,0.18530
2958.27092,0.17536
2960.19939,0.18103
2962.12786,0.19515
2964.05633,0.20404
2965.98480,0.20277
2967.91327,0.19582
2969.84174,0.19693
2971.77020,0.20598
2973.69867,0.21326
2975.62714,0.21218
2977.55561,0.20121
2979.48408,0.19489
2981.41255,0.20152
2983.34102,0.20958
2985.26948,0.21054
2987.19795,0.20453
2989.12642,0.20023
2991.05489,0.20422
2992.98336,0.20994
2994.91183,0.21333
2996.84030,0.21443
2998.76877,0.21360
3000.69723,0.21434
3002.62570,0.21573
3004.55417,0.21524
3006.48264,0.21141
3008.41111,0.20023
3010.33958,0.17919
3012.26805,0.14959
3014.19651,0.11443
3016.12498,0.09034
3018.05345,0.10893
3019.98192,0.16315
3021.91039,0.20383
3023.83886,0.21349
3025.76733,0.21072
3027.69579,0.20939
3029.62426,0.21113
3031.55273,0.21162
3033.48120,0.20971
3035.40967,0.20729
3037.33814,0.20600
3039.26661,0.20838
3041.19508,0.21092
3043.12354,0.21020
3045.05201,0.20777
3046.98048,0.20277
3048.90895,0.20163
3050.83742,0.21192
3052.76589,0.22189
3054.69436,0.21403
3056.62282,0.19431
3058.55129,0.18911
3060.47976,0.20165
3062.40823,0.20964
3064.33670,0.20273
3066.26517,0.19098
3068.19364,0.19157
3070.12211,0.20214
3072.05057,0.20511
3073.97904,0.19562
3075.90751,0.18585
3077.83598,0.19208
3079.76445,0.20613
3081.69292,0.20813
3083.62139,0.19727
3085.54985,0.18710
3087.47832,0.19185
3089.40679,0.20401
3091.33526,0.20585
3093.26373,0.19664
3095.19220,0.19120
3097.12067,0.19822
3099.04914,0.20782
3100.97760,0.20849
3102.90607,0.19711
3104.83454,0.19005
3106.76301,0.20080
3108.69148,0.21266
3110.61995,0.20844
3112.54842,0.19516
3114.47688,0.19411
3116.40535,0.20683
3118.33382,0.21205
3120.26229,0.20227
3122.19076,0.19405
3124.11923,0.19930
3126.04770,0.20775
3127.97617,0.20892
3129.90463,0.20255
3131.83310,0.19831
3133.76157,0.20337
3135.69004,0.20869
3137.61851,0.20595
3139.54698,0.20143
3141.47545,0.20531
3143.40391,0.21277
3145.33238,0.21591
3147.26085,0.21554
3149.18932,0.21494
3151.11779,0.21753
3153.04626,0.21942
3154.97473,0.21792
3156.90320,0.21609
3158.83166,0.21487
3160.76013,0.21615
3162.68860,0.21943
3164.61707,0.22030
3166.54554,0.21798
3168.47401,0.21436
3170.40248,0.21120
3172.33094,0.21096
3174.25941,0.21627
3176.18788,0.22603
3178.11635,0.23286
3180.04482,0.23236
3181.97329,0.22696
3183.90176,0.22125
3185.83022,0.21834
3187.75869,0.21641
3189.68716,0.21501
3191.61563,0.21710
3193.54410,0.22148
3195.47257,0.22393
3197.40104,0.22401
3199.32951,0.22223
3201.25797,0.21731
3203.18644,0.21147
3205.11491,0.20966
3207.04338,0.21316
3208.97185,0.21736
3210.90032,0.21893
3212.82879,0.21847
3214.75725,0.21768
3216.68572,0.21834
3218.61419,0.21773
3220.54266,0.21333
3222.47113,0.21124
3224.39960,0.21683
3226.32807,0.22412
3228.25654,0.22613
3230.18500,0.22261
3232.11347,0.21663
3234.04194,0.21528
3235.97041,0.21984
3237.89888,0.22177
3239.82735,0.21952
3241.75582,0.21915
3243.68428,0.22069
3245.61275,0.21901
3247.54122,0.21427
3249.46969,0.21383
3251.39816,0.21680
3253.32663,0.21517
3255.25510,0.21387
3257.18357,0.21791
3259.11203,0.22050
3261.04050,0.21890
3262.96897,0.21659
3264.89744,0.21499
3266.82591,0.21423
3268.75438,0.21702
3270.68285,0.22110
3272.61131,0.22080
3274.53978,0.22064
3276.46825,0.22136
3278.39672,0.21595
3280.32519,0.20935
3282.25366,0.20669
3284.18213,0.20664
3286.11060,0.21159
3288.03906,0.21724
3289.96753,0.21515
3291.89600,0.20935
3293.82447,0.20785
3295.75294,0.20853
3297.68141,0.20720
3299.60988,0.20588
3301.53834,0.20813
3303.46681,0.21237
3305.39528,0.21298
3307.32375,0.21266
3309.25222,0.21540
3311.18069,0.21482
3313.10916,0.20992
3315.03763,0.20734
3316.96609,0.20807
3318.89456,0.20968
3320.82303,0.21089
3322.75150,0.20938
3324.67997,0.20548
3326.60844,0.20509
3328.53691,0.20945
3330.46537,0.21390
3332.39384,0.21884
3334.32231,0.22665
3336.25078,0.23036
3338.17925,0.22363
3340.10772,0.21402
3342.03619,0.20973
3343.96466,0.21118
3345.89312,0.21577
3347.82159,0.21914
3349.75006,0.21782
3351.67853,0.21240
3353.60700,0.21057
3355.53547,0.21550
3357.46394,0.21811
3359.39240,0.21586
3361.32087,0.21352
3363.24934,0.21304
3365.17781,0.21624
3367.10628,0.21918
3369.03475,0.21874
3370.96322,0.21833
3372.89168,0.21817
3374.82015,0.21953
3376.74862,0.22061
3378.67709,0.21611
3380.60556,0.21352
3382.53403,0.21652
3384.46250,0.21525
3386.39097,0.21023
3388.31943,0.21000
3390.24790,0.21562
3392.17637,0.22035
3394.10484,0.22132
3396.03331,0.22401
3397.96178,0.22429
3399.89025,0.21718
3401.81871,0.21260
3403.74718,0.21589
3405.67565,0.22097
3407.60412,0.22376
3409.53259,0.22472
3411.46106,0.22395
3413.38953,0.22137
3415.31800,0.22046
3417.24646,0.22280
3419.17493,0.22178
3421.10340,0.21371
3423.03187,0.20327
3424.96034,0.19610
3426.88881,0.19694
3428.81728,0.20327
3430.74574,0.20729
3432.67421,0.20695
3434.60268,0.20552
3436.53115,0.20588
3438.45962,0.20655
3440.38809,0.20497
3442.31656,0.20319
3444.24503,0.20371
3446.17349,0.20476
3448.10196,0.20444
3450.03043,0.20249
3451.95890,0.19837
3453.88737,0.19351
3455.81584,0.19201
3457.74431,0.19400
3459.67277,0.19535
3461.60124,0.19583
3463.52971,0.19581
3465.45818,0.19495
3467.38665,0.19583
3469.31512,0.19721
3471.24359,0.19588
3473.17206,0.19357
3475.10052,0.19363
3477.02899,0.19619
3478.95746,0.19819
3480.88593,0.19738
3482.81440,0.19516
3484.74287,0.19473
3486.67134,0.19676
3488.59980,0.19849
3490.52827,0.19655
3492.45674,0.19250
3494.38521,0.19010
3496.31368,0.18686
3498.24215,0.18138
3500.17062,0.18078
3502.09909,0.18842
3504.02755,0.19503
3505.95602,0.19346
3507.88449,0.19069
3509.81296,0.19090
3511.74143,0.19069
3513.66990,0.18823
3515.59837,0.18311
3517.52683,0.17583
3519.45530,0.16948
3521.38377,0.16818
3523.31224,0.17166
3525.24071,0.17649
3527.16918,0.18038
3529.09765,0.18137
3531.02611,0.18073
3532.95458,0.18029
3534.88305,0.17954
3536.81152,0.17669
3538.73999,0.17136
3540.66846,0.16762
3542.59693,0.16841
3544.52540,0.17410
3546.45386,0.18043
3548.38233,0.18031
3550.31080,0.17609
3552.23927,0.17333
3554.16774,0.17162
3556.09621,0.17008
3558.02468,0.17045
3559.95314,0.17273
3561.88161,0.17529
3563.81008,0.17755
3565.73855,0.18120
3567.66702,0.18411
3569.59549,0.18115
3571.52396,0.17580
3573.45243,0.16985
3575.38089,0.16377
3577.30936,0.16247
3579.23783,0.16571
3581.16630,0.16537
3583.09477,0.16140
3585.02324,0.15926
3586.95171,0.15905
3588.88017,0.16035
3590.80864,0.16146
3592.73711,0.16112
3594.66558,0.16224
3596.59405,0.16473
3598.52252,0.16272
3600.45099,0.15573
3602.37946,0.14951
3604.30792,0.14796
3606.23639,0.15372
3608.16486,0.16293
3610.09333,0.16452
3612.02180,0.16052
3613.95027,0.15784
3615.87874,0.15706
3617.80720,0.15713
3619.73567,0.15914
3621.66414,0.15893
3623.59261,0.15646
3625.52108,0.15900
3627.44955,0.16465
3629.37802,0.15956
3631.30649,0.14964
3633.23495,0.14693
3635.16342,0.14695
3637.09189,0.14611
3639.02036,0.14568
3640.94883,0.14787
3642.87730,0.15139
3644.80577,0.15617
3646.73423,0.16397
3648.66270,0.16989
3650.59117,0.16285
3652.51964,0.15116
3654.44811,0.14498
3656.37658,0.14299
3658.30505,0.14028
3660.23352,0.13756
3662.16198,0.13587
3664.09045,0.13357
3666.01892,0.13247
3667.94739,0.13679
3669.87586,0.14460
3671.80433,0.15130
3673.73280,0.16474
3675.66126,0.17730
3677.58973,0.16361
3679.51820,0.14408
3681.44667,0.13414
3683.37514,0.13144
3685.30361,0.13364
3687.23208,0.14102
3689.16055,0.14995
3691.08901,0.15056
3693.01748,0.14242
3694.94595,0.13561
3696.87442,0.13485
3698.80289,0.13569
3700.73136,0.13437
3702.65983,0.13262
3704.58829,0.13261
3706.51676,0.13477
3708.44523,0.13997
3710.37370,0.14839
3712.30217,0.15226
3714.23064,0.14654
3716.15911,0.13899
3718.08757,0.13405
3720.01604,0.13374
3721.94451,0.13823
3723.87298,0.14189
3725.80145,0.13864
3727.72992,0.13512
3729.65839,0.13826
3731.58686,0.14414
3733.51532,0.15017
3735.44379,0.15473
3737.37226,0.15337
3739.30073,0.15137
3741.22920,0.15026
3743.15767,0.14712
3745.08614,0.14521
3747.01460,0.15196
3748.94307,0.16398
3750.87154,0.16749
3752.80001,0.15385
3754.72848,0.14346
3756.65695,0.14221
3758.58542,0.14437
3760.51389,0.13983
3762.44235,0.13231
3764.37082,0.13397
3766.29929,0.14059
3768.22776,0.13938
3770.15623,0.13263
3772.08470,0.12613
3774.01317,0.12221
3775.94163,0.12343
3777.87010,0.12763
3779.79857,0.12917
3781.72704,0.12792
3783.65551,0.12777
3785.58398,0.12807
3787.51245,0.12748
3789.44092,0.12611
3791.36938,0.12344
3793.29785,0.12215
3795.22632,0.12584
3797.15479,0.13290
3799.08326,0.13848
3801.01173,0.14038
3802.94020,0.13750
3804.86866,0.13612
3806.79713,0.13799
3808.72560,0.13615
3810.65407,0.12833
3812.58254,0.12162
3814.51101,0.12448
3816.43948,0.13386
3818.36795,0.14004
3820.29641,0.14737
3822.22488,0.14651
3824.15335,0.13756
3826.08182,0.13205
3828.01029,0.12777
3829.93876,0.12616
3831.86723,0.12913
3833.79569,0.13308
3835.72416,0.13978
3837.65263,0.14795
3839.58110,0.14691
3841.50957,0.14317
3843.43804,0.13809
3845.36651,0.12688
3847.29498,0.12040
3849.22344,0.12530
3851.15191,0.13837
3853.08038,0.15165
3855.00885,0.14696
3856.93732,0.13428
3858.86579,0.12420
3860.79426,0.11953
3862.72272,0.12167
3864.65119,0.12482
3866.57966,0.12872
3868.50813,0.13826
3870.43660,0.14408
3872.36507,0.13824
3874.29354,0.13059
3876.22200,0.12597
3878.15047,0.12522
3880.07894,0.12765
3882.00741,0.13352
3883.93588,0.14089
3885.86435,0.13926
3887.79282,0.12815
3889.72129,0.12235
3891.64975,0.12265
3893.57822,0.12099
3895.50669,0.12190
3897.43516,0.12952
3899.36363,0.13600
3901.29210,0.13237
3903.22057,0.12056
3905.14903,0.11080
3907.07750,0.10914
3909.00597,0.11160
3910.93444,0.11572
3912.86291,0.12078
3914.79138,0.12534
3916.71985,0.12637
3918.64832,0.12255
3920.57678,0.11665
3922.50525,0.11231
3924.43372,0.11281
3926.36219,0.11563
3928.29066,0.11714
3930.21913,0.11813
3932.14760,0.11765
3934.07606,0.11467
3936.00453,0.11150
3937.93300,0.10782
3939.86147,0.10376
3941.78994,0.10518
3943.71841,0.11134
3945.64688,0.11369
3947.57535,0.11410
3949.50381,0.11656
3951.43228,0.11736
3953.36075,0.11641
3955.28922,0.11707
3957.21769,0.11647
3959.14616,0.11170
3961.07463,0.10800
3963.00309,0.11023
3964.93156,0.11520
3966.86003,0.11664
3968.78850,0.11270
3970.71697,0.10831
3972.64544,0.10936
3974.57391,0.11530
3976.50238,0.11799
3978.43084,0.11235
3980.35931,0.10443
3982.28778,0.09815
3984.21625,0.09397
3986.14472,0.09553
3988.07319,0.09992
3990.00166,0.10261
3991.93012,0.10361
3993.85859,0.10273
3995.78706,0.10105
3997.71553,0.09976
3999.64400,0.09924
4001.57247,0.09937
4003.50094,0.09793
4005.42941,0.09461
4007.35787,0.09377
4009.28634,0.09757
4011.21481,0.10189
4013.14328,0.10249
4015.07175,0.10066
4017.00022,0.09996
4018.92869,0.10096
4020.85715,0.10347
4022.78562,0.10692
4024.71409,0.10836
4026.64256,0.10544
4028.57103,0.09984
4030.49950,0.09632
4032.42797,0.09732
4034.35644,0.10209
4036.28490,0.10636
4038.21337,0.10536
4040.14184,0.10311
4042.07031,0.10294
4043.99878,0.10078
4045.92725,0.09872
4047.85572,0.10106
4049.78418,0.10267
4051.71265,0.09847
4053.64112,0.09287
4055.56959,0.09173
4057.49806,0.09553
4059.42653,0.10239
4061.35500,0.10495
4063.28346,0.09841
4065.21193,0.09067
4067.14040,0.08816
4069.06887,0.08913
4070.99734,0.08808
4072.92581,0.08338
4074.85428,0.08471
4076.78275,0.09531
4078.71121,0.10195
4080.63968,0.09651
4082.56815,0.08667
4084.49662,0.08203
4086.42509,0.08353
4088.35356,0.08776
4090.28203,0.09076
4092.21049,0.09151
4094.13896,0.09275
4096.06743,0.09129
4097.99590,0.08692
4099.92437,0.08688
4101.85284,0.09045
4103.78131,0.09405
4105.70978,0.09720
4107.63824,0.09876
4109.56671,0.09890
4111.49518,0.09629
4113.42365,0.09064
4115.35212,0.08725
4117.28059,0.08609
4119.20906,0.08489
4121.13752,0.08804
4123.06599,0.09141
4124.99446,0.08886
4126.92293,0.08697
4128.85140,0.08737
4130.77987,0.08615
4132.70834,0.08602
4134.63681,0.08762
4136.56527,0.09133
4138.49374,0.09889
4140.42221,0.10174
4142.35068,0.09632
4144.27915,0.09325
4146.20762,0.09368
4148.13609,0.09050
4150.06455,0.08568
4151.99302,0.08265
4153.92149,0.07987
4155.84996,0.07732
4157.77843,0.07877
4159.70690,0.08432
4161.63537,0.08600
4163.56384,0.08399
4165.49230,0.08549
4167.42077,0.08699
4169.34924,0.08526
4171.27771,0.08296
4173.20618,0.07812
4175.13465,0.06928
4177.06312,0.06513
4178.99158,0.07282
4180.92005,0.08285
4182.84852,0.08387
4184.77699,0.07881
4186.70546,0.07714
4188.63393,0.08104
4190.56240,0.08583
4192.49087,0.08570
4194.41933,0.07775
4196.34780,0.06672
4198.27627,0.05873
4200.20474,0.05639
4202.13321,0.05766
4204.06168,0.05998
4205.99015,0.06679
4207.91861,0.07693
4209.84708,0.08213
4211.77555,0.08024
4213.70402,0.07639
4215.63249,0.07369
4217.56096,0.07223
4219.48943,0.07509
4221.41789,0.08151
4223.34636,0.08224
4225.27483,0.07602
4227.20330,0.07090
4229.13177,0.06929
4231.06024,0.07076
4232.98871,0.07422
4234.91718,0.07555
4236.84564,0.07277
4238.77411,0.06848
4240.70258,0.06649
4242.63105,0.06728
4244.55952,0.06755
4246.48799,0.06568
4248.41646,0.06317
4250.34492,0.06295
4252.27339,0.06488
4254.20186,0.06351
4256.13033,0.06069
4258.05880,0.06335
4259.98727,0.06511
4261.91574,0.05897
4263.84421,0.05122
4265.77267,0.04789
4267.70114,0.05073
4269.62961,0.05544
4271.55808,0.05533
4273.48655,0.05517
4275.41502,0.05808
4277.34349,0.05870
4279.27195,0.05827
4281.20042,0.05919
4283.12889,0.05743
4285.05736,0.05177
4286.98583,0.04752
4288.91430,0.04975
4290.84277,0.05753
4292.77124,0.06365
4294.69970,0.06368
4296.62817,0.06203
4298.55664,0.06296
4300.48511,0.06224
4302.41358,0.05400
4304.34205,0.04507
4306.27052,0.04542
4308.19898,0.05203
4310.12745,0.05704
4312.05592,0.05639
4313.98439,0.05387
4315.91286,0.05817
4317.84133,0.06588
4319.76980,0.06600
4321.69827,0.06179
4323.62673,0.06053
4325.55520,0.05968
4327.48367,0.05428
4329.41214,0.04794
4331.34061,0.05063
4333.26908,0.05429
4335.19755,0.04741
4337.12601,0.04156
4339.05448,0.04480
4340.98295,0.04908
4342.91142,0.05146
4344.83989,0.05589
4346.76836,0.05824
4348.69683,0.05499
4350.62530,0.05406
4352.55376,0.05761
4354.48223,0.05945
4356.41070,0.05927
4358.33917,0.05846
4360.26764,0.05269
4362.19611,0.04209
4364.12458,0.03642
4366.05304,0.04086
4367.98151,0.04687
4369.90998,0.04705
4371.83845,0.04379
4373.76692,0.03785
4375.69539,0.03305
4377.62386,0.03544
4379.55232,0.03775
4381.48079,0.03620
4383.40926,0.04020
4385.33773,0.04960
4387.26620,0.05249
4389.19467,0.04556
4391.12314,0.03928
4393.05161,0.04037
4394.98007,0.04539
4396.90854,0.05181
4398.83701,0.05398
4400.76548,0.04595
4402.69395,0.03640
4404.62242,0.03404
4406.55089,0.03706
4408.47935,0.04399
4410.40782,0.04667
4412.33629,0.03991
4414.26476,0.03285
4416.19323,0.03104
4418.12170,0.03505
4420.05017,0.04063
4421.97864,0.04145
4423.90710,0.03826
4425.83557,0.03325
4427.76404,0.02937
4429.69251,0.03011
4431.62098,0.03246
4433.54945,0.02914
4435.47792,0.02438
4437.40638,0.02561
4439.33485,0.03046
4441.26332,0.03604
4443.19179,0.03692
4445.12026,0.03323
4447.04873,0.03232
4448.97720,0.03391
4450.90567,0.03472
4452.83413,0.03390
4454.76260,0.03002
4456.69107,0.02521
4458.61954,0.02559
4460.54801,0.02713
4462.47648,0.02498
4464.40495,0.02441
4466.33341,0.02677
4468.26188,0.02849
4470.19035,0.02838
4472.11882,0.02977
4474.04729,0.03197
4475.97576,0.02866
4477.90423,0.01903
4479.83270,0.01171
4481.76116,0.01468
4483.68963,0.02356
4485.61810,0.03092
4487.54657,0.03958
4489.47504,0.04833
4491.40351,0.04534
4493.33198,0.03512
4495.26044,0.03083
4497.18891,0.03165
4499.11738,0.03249
4501.04585,0.02644
4502.97432,0.01349
4504.90279,0.00263
4506.83126,0.00124
4508.75973,0.00998
4510.68819,0.01914
4512.61666,0.02121
4514.54513,0.02245
4516.47360,0.02682
4518.40207,0.02640
4520.33054,0.02013
4522.25901,0.01669
4524.18747,0.02006
4526.11594,0.02207
4528.04441,0.01491
4529.97288,0.00844
4531.90135,0.01216
4533.82982,0.01698
4535.75829,0.01429
4537.68676,0.01363
4539.61522,0.02180
4541.54369,0.02591
4543.47216,0.01909
4545.40063,0.01382
4547.32910,0.01358
4549.25757,0.00714
4551.18604,0.00142
4553.11450,0.00841
4555.04297,0.01770
4556.97144,0.02057
4558.89991,0.01968
4560.82838,0.01548
4562.75685,0.01033
4564.68532,0.01290
4566.61378,0.02350
4568.54225,0.02697
4570.47072,0.01681
4572.39919,0.00663
4574.32766,0.00769
4576.25613,0.01332
4578.18460,0.01309
4580.11307,0.01206
4582.04153,0.01811
4583.97000,0.02440
4585.89847,0.02512
4587.82694,0.01809
4589.75541,0.00506
4591.68388,0.00177
4593.61235,0.01253
4595.54081,0.02124
4597.46928,0.02062
4599.39775,0.01542
4601.32622,0.01124
4603.25469,0.01232
4605.18316,0.01589
4607.11163,0.01585
4609.04010,0.01156
4610.96856,0.00606
4612.89703,0.00412
4614.82550,0.00549
4616.75397,0.00942
4618.68244,0.01602
4620.61091,0.01697
4622.53938,0.01025
4624.46784,0.00364
4626.39631,-0.00083
4628.32478,-0.00201
4630.25325,0.00424
4632.18172,0.01254
4634.11019,0.01748
4636.03866,0.02038
4637.96713,0.01548
4639.89559,0.00498
4641.82406,0.00039
4643.75253,0.00127
4645.68100,0.00185
4647.60947,0.00439
4649.53794,0.01322
4651.46641,0.02038
4653.39487,0.01703
4655.32334,0.00468
4657.25181,-0.00578
4659.18028,0.00142
4661.10875,0.01701
4663.03722,0.01791
4664.96569,0.01349
4666.89416,0.01962
4668.82262,0.02535
4670.75109,0.02208
4672.67956,0.01419
4674.60803,0.00338
4676.53650,-0.00316
4678.46497,0.00463
4680.39344,0.01822
4682.32190,0.02405
4684.25037,0.02169
4686.17884,0.01316
4688.10731,0.00771
4690.03578,0.01251
4691.96425,0.01750
4693.89272,0.01966
4695.82119,0.02133
4697.74965,0.01818
4699.67812,0.01507
4701.60659,0.01635
4703.53506,0.00963
4705.46353,-0.00820
4707.39200,-0.01985
4709.32047,-0.01279
4711.24893,0.00181
4713.17740,0.00119
4715.10587,-0.01110
4717.03434,-0.01184
4718.96281,0.00085
4720.89128,0.00749
4722.81975,0.00380
4724.74821,0.00020
4726.67668,-0.00549
4728.60515,-0.00665
4730.53362,0.00444
4732.46209,0.01134
4734.39056,0.00983
4736.31903,0.01115
4738.24750,0.01399
4740.17596,0.01080
4742.10443,0.00231
4744.03290,-0.00184
4745.96137,0.00324
4747.88984,0.01423
4749.81831,0.02443
4751.74678,0.02223
4753.67524,0.00496
4755.60371,-0.00632
4757.53218,0.00287
4759.46065,0.01491
4761.38912,0.01385
4763.31759,0.00960
4765.24606,0.00696
4767.17453,0.00042
4769.10299,0.00087
4771.03146,0.01080
4772.95993,0.01357
4774.88840,0.00517
4776.81687,-0.00589
4778.74534,-0.01163
4780.67381,-0.00973
4782.60227,-0.00251
4784.53074,0.00604
4786.45921,0.01372
4788.38768,0.02402
4790.31615,0.03229
4792.24462,0.02883
4794.17309,0.01575
4796.10156,-0.00154
4798.03002,-0.01462
4799.95849,-0.01387
4801.88696,-0.00103
4803.81543,0.01512
4805.74390,0.02309
4807.67237,0.02080
4809.60084,0.01986
4811.52930,0.01961
4813.45777,0.01122
4815.38624,0.00546
4817.31471,0.00872
4819.24318,0.00537
4821.17165,0.00010
4823.10012,0.01094
4825.02859,0.02624
4826.95705,0.02379
4828.88552,0.00980
4830.81399,0.00401
4832.74246,0.00716
4834.67093,0.01064
4836.59940,0.00983
4838.52787,0.00383
4840.45633,-0.00451
4842.38480,-0.01047
4844.31327,-0.00930
4846.24174,-0.00756
4848.17021,-0.00853
4850.09868,-0.00287
4852.02715,0.00386
4853.95562,0.00453
4855.88408,0.01035
4857.81255,0.02197
4859.74102,0.02763
4861.66949,0.02199
4863.59796,0.01164
4865.52643,0.00209
4867.45490,-0.00650
4869.38336,-0.00883
4871.31183,-0.00514
4873.24030,0.00236
4875.16877,0.01309
4877.09724,0.01634
4879.02571,0.00589
4880.95418,-0.00049
4882.88265,0.00814
4884.81111,0.00990
4886.73958,0.00003
4888.66805,-0.00539
4890.59652,-0.00767
4892.52499,-0.00981
4894.45346,-0.00502
4896.38193,0.00391
4898.31039,0.00894
4900.23886,0.01006
4902.16733,0.00648
4904.09580,0.00132
4906.02427,-0.00104
4907.95274,-0.00284
4909.88121,-0.00398
4911.80967,-0.00442
4913.73814,-0.00160
4915.66661,0.00637
4917.59508,0.01004
4919.52355,0.00425
4921.45202,0.00250
4923.38049,0.01376
4925.30896,0.02432
4927.23742,0.01576
4929.16589,-0.00356
4931.09436,-0.00692
4933.02283,0.00540
4934.95130,0.00658
4936.87977,-0.00873
4938.80824,-0.02140
4940.73670,-0.02070
4942.66517,-0.00777
4944.59364,0.00950
4946.52211,0.02120
4948.45058,0.02671
4950.37905,0.02815
4952.30752,0.02225
4954.23599,0.00884
4956.16445,0.00457
4958.09292,0.01181
4960.02139,0.00865
4961.94986,-0.00128
4963.87833,0.00279
4965.80680,0.01642
4967.73527,0.02134
4969.66373,0.01031
4971.59220,-0.00847
4973.52067,-0.01523
4975.44914,-0.00017
4977.37761,0.01963
4979.30608,0.02217
4981.23455,0.01410
4983.16302,0.01276
4985.09148,0.01434
4987.01995,0.01312
4988.94842,0.01458
4990.87689,0.02009
4992.80536,0.02637
4994.73383,0.02900
4996.66230,0.02073
4998.59076,0.00662
5000.51923,0.00335
5002.44770,0.00992
5004.37617,0.00803
5006.30464,-0.00317
5008.23311,-0.00992
5010.16158,-0.00976
5012.09005,-0.00416
5014.01851,-0.00007
5015.94698,-0.00034
5017.87545,0.00724
5019.80392,0.01822
5021.73239,0.02384
5023.66086,0.02644
5025.58933,0.01923
5027.51779,0.01008
5029.44626,0.01840
5031.37473,0.03349
5033.30320,0.03643
5035.23167,0.03054
5037.16014,0.02871
5039.08861,0.03483
5041.01708,0.03704
5042.94554,0.02988
5044.87401,0.02035
5046.80248,0.01049
5048.73095,0.00502
5050.65942,0.00685
5052.58789,0.01104
5054.51636,0.01810
5056.44482,0.02301
5058.37329,0.01455
5060.30176,-0.00016
5062.23023,-0.01230
5064.15870,-0.01873
5066.08717,-0.01357
5068.01564,-0.00657
5069.94410,-0.00147
5071.87257,0.00864
5073.80104,0.02466
5075.72951,0.04407
5077.65798,0.04891
5079.58645,0.03509
5081.51492,0.02618
5083.44339,0.03395
5085.37185,0.04976
5087.30032,0.05346
5089.22879,0.03444
5091.15726,0.01413
5093.08573,0.00832
5095.01420,0.00259
5096.94267,-0.00075
5098.87113,0.01358
5100.79960,0.02852
5102.72807,0.01922
5104.65654,-0.00068
5106.58501,0.00184
5108.51348,0.01842
5110.44195,0.01765
5112.37042,0.00904
5114.29888,0.00833
5116.22735,0.01541
5118.15582,0.03091
5120.08429,0.03059
5122.01276,0.01054
5123.94123,0.00047
5125.86970,0.00871
5127.79816,0.02554
5129.72663,0.03361
5131.65510,0.02586
5133.58357,0.01460
5135.51204,0.01298
5137.44051,0.02217
5139.36898,0.03316
5141.29745,0.04105
5143.22591,0.04548
5145.15438,0.04367
5147.08285,0.03787
5149.01132,0.03597
5150.93979,0.03347
5152.86826,0.02744
5154.79673,0.02660
5156.72519,0.02863
5158.65366,0.02000
5160.58213,0.00377
5162.51060,0.00624
5164.43907,0.03152
5166.36754,0.05834
5168.29601,0.07507
5170.22448,0.07368
5172.15294,0.05985
5174.08141,0.05188
5176.00988,0.05241
5177.93835,0.04362
5179.86682,0.01482
5181.79529,-0.01406
5183.72376,-0.01328
5185.65222,0.01670
5187.58069,0.03768
5189.50916,0.03807
5191.43763,0.03947
5193.36610,0.04201
5195.29457,0.04131
5197.22304,0.04539
5199.15151,0.05148
5201.07997,0.05617
5203.00844,0.05922
5204.93691,0.05722
5206.86538,0.05234
5208.79385,0.04159
5210.72232,0.02928
5212.65079,0.02612
5214.57925,0.02788
5216.50772,0.03842
5218.43619,0.05914
5220.36466,0.06181
5222.29313,0.04407
5224.22160,0.03715
5226.15007,0.04277
5228.07854,0.04305
5230.00700,0.04258
5231.93547,0.04102
5233.86394,0.03059
5235.79241,0.02470
5237.72088,0.03451
5239.64935,0.04855
5241.57782,0.05187
5243.50628,0.04697
5245.43475,0.05451
5247.36322,0.07126
5249.29169,0.06983
5251.22016,0.05123
5253.14863,0.03117
5255.07710,0.02375
5257.00556,0.03196
5258.93403,0.03965
5260.86250,0.04460
5262.79097,0.04377
5264.71944,0.03180
5266.64791,0.02046
5268.57638,0.01647
5270.50485,0.02379
5272.43331,0.03810
5274.36178,0.04089
5276.29025,0.03406
5278.21872,0.04079
5280.14719,0.05717
5282.07566,0.06107
5284.00413,0.05819
5285.93259,0.05652
5287.86106,0.04910
5289.78953,0.04033
5291.71800,0.03620
5293.64647,0.03316
5295.57494,0.04060
5297.50341,0.05956
5299.43188,0.07024
5301.36034,0.07267
5303.28881,0.07387
5305.21728,0.06804
5307.14575,0.06420
5309.07422,0.06563
5311.00269,0.05806
5312.93116,0.04596
5314.85962,0.04039
5316.78809,0.03577
5318.71656,0.02801
5320.64503,0.03188
5322.57350,0.05010
5324.50197,0.06085
5326.43044,0.05408
5328.35891,0.03607
5330.28737,0.02092
5332.21584,0.02088
5334.14431,0.02941
5336.07278,0.03833
5338.00125,0.05065
5339.92972,0.06426
5341.85819,0.07273
5343.78665,0.07874
5345.71512,0.08813
5347.64359,0.08593
5349.57206,0.06315
5351.50053,0.03760
5353.42900,0.01720
5355.35747,0.00604
5357.28594,0.01399
5359.21440,0.03071
5361.14287,0.04357
5363.07134,0.05256
5364.99981,0.05782
5366.92828,0.05509
5368.85675,0.05176
5370.78522,0.05235
5372.71368,0.05930
5374.64215,0.08311
5376.57062,0.10601
5378.49909,0.10410
5380.42756,0.09464
5382.35603,0.10304
5384.28450,0.12338
5386.21297,0.12259
5388.14143,0.10672
5390.06990,0.08874
5391.99837,0.06426
5393.92684,0.05223
5395.85531,0.07048
5397.78378,0.09353
5399.71225,0.08721
5401.64071,0.05770
5403.56918,0.03928
5405.49765,0.04218
5407.42612,0.04244
5409.35459,0.03789
5411.28306,0.05031
5413.21153,0.07299
5415.13999,0.08852
5417.06846,0.09084
5418.99693,0.08040
5420.92540,0.06740
5422.85387,0.06000
5424.78234,0.06844
5426.71081,0.08582
5428.63928,0.08018
5430.56774,0.06158
5432.49621,0.05872
5434.42468,0.05672
5436.35315,0.04474
5438.28162,0.04262
5440.21009,0.06782
5442.13856,0.10607
5444.06702,0.12304
5445.99549,0.10612
5447.92396,0.07121
5449.85243,0.05394
5451.78090,0.06795
5453.70937,0.09097
5455.63784,0.10189
5457.56631,0.08980
5459.49477,0.06617
5461.42324,0.06594
5463.35171,0.08757
5465.28018,0.09344
5467.20865,0.08433
5469.13712,0.08000
5471.06559,0.06476
5472.99405,0.03331
5474.92252,0.02118
5476.85099,0.03791
5478.77946,0.05676
5480.70793,0.07544
5482.63640,0.08843
5484.56487,0.07980
5486.49334,0.05642
5488.42180,0.04388
5490.35027,0.05162
5492.27874,0.06377
5494.20721,0.06558
5496.13568,0.06638
5498.06415,0.08256
5499.99262,0.10017
5501.92108,0.09284
5503.84955,0.07579
5505.77802,0.06934
5507.70649,0.06771
5509.63496,0.07322
5511.56343,0.08870
5513.49190,0.09610
5515.42037,0.08558
5517.34883,0.07134
5519.27730,0.05243
5521.20577,0.02636
5523.13424,0.02334
5525.06271,0.05446
5526.99118,0.09046
5528.91965,0.10549
5530.84811,0.09740
5532.77658,0.08592
5534.70505,0.08649
5536.63352,0.09142
5538.56199,0.08927
5540.49046,0.09048
5542.41893,0.08918
5544.34740,0.07166
5546.27586,0.05750
5548.20433,0.05778
5550.13280,0.07216
5552.06127,0.09404
5553.98974,0.09752
5555.91821,0.08402
5557.84668,0.06715
5559.77514,0.03964
5561.70361,0.02515
5563.63208,0.04498
5565.56055,0.06028
5567.48902,0.05371
5569.41749,0.06170
5571.34596,0.07267
5573.27443,0.04449
5575.20289,0.01347
5577.13136,0.01875
5579.05983,0.03695
5580.98830,0.05419
5582.91677,0.06833
5584.84524,0.08837
5586.77371,0.11594
5588.70217,0.11981
5590.63064,0.10164
5592.55911,0.09952
5594.48758,0.09614
5596.41605,0.05833
5598.34452,0.02821
5600.27299,0.04061
5602.20145,0.05632
5604.12992,0.05955
5606.05839,0.06505
5607.98686,0.06707
5609.91533,0.06176
5611.84380,0.06098
5613.77227,0.08496
5615.70074,0.11602
5617.62920,0.10985
5619.55767,0.07622
5621.48614,0.06580
5623.41461,0.10375
5625.34308,0.14048
5627.27155,0.10220
5629.20002,0.04129
5631.12848,0.04699
5633.05695,0.08253
5634.98542,0.08051
5636.91389,0.04297
5638.84236,0.02136
5640.77083,0.03801
5642.69930,0.05452
5644.62777,0.05402
5646.55623,0.06447
5648.48470,0.08808
5650.41317,0.09053
5652.34164,0.07155
5654.27011,0.07104
5656.19858,0.08080
5658.12705,0.07848
5660.05551,0.06618
5661.98398,0.04151
5663.91245,0.04404
5665.84092,0.08627
5667.76939,0.09844
5669.69786,0.06774
5671.62633,0.05359
5673.55480,0.05992
5675.48326,0.04268
5677.41173,0.01991
5679.34020,0.02986
5681.26867,0.04166
5683.19714,0.04450
5685.12561,0.06054
5687.05408,0.07325
5688.98254,0.07646
5690.91101,0.08642
5692.83948,0.10512
5694.76795,0.12654
5696.69642,0.12869
5698.62489,0.10911
5700.55336,0.09529
5702.48183,0.08942
5704.41029,0.08756
5706.33876,0.09294
5708.26723,0.09946
5710.19570,0.10214
5712.12417,0.10262
5714.05264,0.10795
5715.98111,0.11051
5717.90957,0.10986
5719.83804,0.12051
5721.76651,0.13664
5723.69498,0.14618
5725.62345,0.12872
5727.55192,0.09099
5729.48039,0.07724
5731.40886,0.08747
5733.33732,0.09456
5735.26579,0.08676
5737.19426,0.06798
5739.12273,0.06859
5741.05120,0.10354
5742.97967,0.12932
5744.90814,0.11665
5746.83660,0.09649
5748.76507,0.09761
5750.69354,0.10333
5752.62201,0.09176
5754.55048,0.09414
5756.47895,0.10847
5758.40742,0.08236
5760.33588,0.04729
5762.26435,0.05577
5764.19282,0.06775
5766.12129,0.04794
5768.04976,0.01684
5769.97823,0.00543
5771.90670,0.03622
5773.83517,0.09205
5775.76363,0.13324
5777.69210,0.13155
5779.62057,0.11329
5781.54904,0.11689
5783.47751,0.11531
5785.40598,0.10229
5787.33445,0.09232
5789.26291,0.08118
5791.19138,0.09673
5793.11985,0.12455
5795.04832,0.11684
5796.97679,0.09505
5798.90526,0.08900
5800.83373,0.08856
5802.76220,0.08580
5804.69066,0.07995
5806.61913,0.08105
5808.54760,0.09618
5810.47607,0.11435
5812.40454,0.12291
5814.33301,0.11456
5816.26148,0.10320
5818.18994,0.10662
5820.11841,0.10364
5822.04688,0.07612
5823.97535,0.04381
5825.90382,0.01952
5827.83229,0.01276
5829.76076,0.03494
5831.68923,0.08465
5833.61769,0.14167
5835.54616,0.15375
5837.47463,0.10663
5839.40310,0.06266
5841.33157,0.06841
5843.26004,0.10181
5845.18851,0.11836
5847.11697,0.10650
5849.04544,0.09909
5850.97391,0.10088
5852.90238,0.10856
5854.83085,0.13572
5856.75932,0.14855
5858.68779,0.14984
5860.61626,0.14738
5862.54472,0.11815
5864.47319,0.09654
5866.40166,0.09228
5868.33013,0.08045
5870.25860,0.07051
5872.18707,0.07535
5874.11554,0.07883
5876.04400,0.07274
5877.97247,0.09472
5879.90094,0.15004
5881.82941,0.18807
5883.75788,0.18647
5885.68635,0.15752
5887.61482,0.11472
5889.54329,0.07957
5891.47175,0.07411
5893.40022,0.10741
5895.32869,0.14851
5897.25716,0.15283
5899.18563,0.12692
5901.11410,0.09971
5903.04257,0.09098
5904.97103,0.08914
5906.89950,0.07198
5908.82797,0.05845
5910.75644,0.07069
5912.68491,0.09558
5914.61338,0.10594
5916.54185,0.10318
5918.47032,0.10873
5920.39878,0.10441
5922.32725,0.05278
5924.25572,-0.02465
5926.18419,-0.05418
5928.11266,-0.00342
5930.04113,0.06057
5931.96960,0.08631
5933.89806,0.11168
5935.82653,0.14722
5937.75500,0.16016
5939.68347,0.16095
5941.61194,0.18256
5943.54041,0.20377
5945.46888,0.18888
5947.39734,0.16916
5949.32581,0.14334
5951.25428,0.08159
5953.18275,0.02535
5955.11122,0.01174
5957.03969,0.02987
5958.96816,0.05383
5960.89663,0.06063
5962.82509,0.06553
5964.75356,0.08805
5966.68203,0.10335
5968.61050,0.09534
5970.53897,0.07785
5972.46744,0.04899
5974.39591,0.01909
5976.32437,0.01990
5978.25284,0.06202
5980.18131,0.11377
5982.10978,0.13538
5984.03825,0.13520
5985.96672,0.13981
5987.89519,0.15024
5989.82366,0.14149
5991.75212,0.09538
5993.68059,0.05147
5995.60906,0.04957
5997.53753,0.06557
5999.46600,0.07321
6001.39447,0.07166
6003.32294,0.06963
6005.25140,0.08636
6007.17987,0.10092
6009.10834,0.07207
6011.03681,0.03562
6012.96528,0.04733
6014.89375,0.08369
6016.82222,0.08999
6018.75069,0.07811
6020.67915,0.08710
6022.60762,0.07382
6024.53609,0.04151
6026.46456,0.06110
6028.39303,0.09270
6030.32150,0.08173
6032.24997,0.07213
6034.17843,0.05325
6036.10690,0.01595
6038.03537,0.00495
6039.96384,0.01268
6041.89231,0.03598
6043.82078,0.07652
6045.74925,0.09730
6047.67772,0.07283
6049.60618,0.03675
6051.53465,0.03007
6053.46312,0.03407
6055.39159,0.05383
6057.32006,0.10643
6059.24853,0.14159
6061.17700,0.11106
6063.10546,0.08616
6065.03393,0.12695
6066.96240,0.15096
6068.89087,0.13792
6070.81934,0.12450
6072.74781,0.10826
6074.67628,0.09627
6076.60475,0.08162
6078.53321,0.06576
6080.46168,0.08858
6082.39015,0.14769
6084.31862,0.18337
6086.24709,0.15703
6088.17556,0.11479
6090.10403,0.09880
6092.03249,0.08682
6093.96096,0.07108
6095.88943,0.07254
6097.81790,0.10449
6099.74637,0.14603
6101.67484,0.16481
6103.60331,0.14603
6105.53177,0.10020
6107.46024,0.07509
6109.38871,0.08462
6111.31718,0.09245
6113.24565,0.08992
6115.17412,0.08691
6117.10259,0.08703
6119.03106,0.09163
6120.95952,0.10359
6122.88799,0.11388
6124.81646,0.10719
6126.74493,0.09059
6128.67340,0.08248
6130.60187,0.08010
6132.53034,0.08195
6134.45880,0.07884
6136.38727,0.06202
6138.31574,0.06886
6140.24421,0.10663
6142.17268,0.12818
6144.10115,0.12049
6146.02962,0.10661
6147.95809,0.09881
6149.88655,0.09379
6151.81502,0.09192
6153.74349,0.08127
6155.67196,0.04879
6157.60043,0.02816
6159.52890,0.03699
6161.45737,0.04947
6163.38583,0.07731
6165.31430,0.12169
6167.24277,0.14865
6169.17124,0.15996
6171.09971,0.16614
6173.02818,0.17416
6174.95665,0.17072
6176.88512,0.14657
6178.81358,0.13433
6180.74205,0.13709
6182.67052,0.13004
6184.59899,0.12972
6186.52746,0.15018
6188.45593,0.14345
6190.38440,0.08895
6192.31286,0.05265
6194.24133,0.07069
6196.16980,0.11031
6198.09827,0.11789
6200.02674,0.09158
6201.95521,0.09220
6203.88368,0.10777
6205.81215,0.07391
6207.74061,0.04792
6209.66908,0.08276
6211.59755,0.12236
6213.52602,0.12075
6215.45449,0.08483
6217.38296,0.06686
6219.31143,0.09830
6221.23989,0.12411
6223.16836,0.11193
6225.09683,0.09402
6227.02530,0.11032
6228.95377,0.16142
6230.88224,0.18943
6232.81071,0.15956
6234.73918,0.12621
6236.66764,0.14269
6238.59611,0.17934
6240.52458,0.18178
6242.45305,0.16319
6244.38152,0.13635
6246.30999,0.09366
6248.23846,0.08314
6250.16692,0.11562
6252.09539,0.10948
6254.02386,0.05325
6255.95233,0.02510
6257.88080,0.05181
6259.80927,0.10869
6261.73774,0.14807
6263.66621,0.12918
6265.59467,0.08846
6267.52314,0.06789
6269.45161,0.05187
6271.38008,0.06340
6273.30855,0.11608
6275.23702,0.13745
6277.16549,0.10620
6279.09395,0.07259
6281.02242,0.05854
6282.95089,0.07946
6284.87936,0.10820
6286.80783,0.11485
6288.73630,0.13042
6290.66477,0.15469
6292.59323,0.14479
6294.52170,0.11935
6296.45017,0.09157
6298.37864,0.05771
6300.30711,0.06100
6302.23558,0.09933
6304.16405,0.13141
6306.09252,0.14946
6308.02098,0.16093
6309.94945,0.17144
6311.87792,0.13382
6313.80639,0.05261
6315.73486,0.02663
6317.66333,0.06602
6319.59180,0.08049
6321.52026,0.03334
6323.44873,-0.02461
6325.37720,-0.03961
6327.30567,-0.00083
6329.23414,0.06442
6331.16261,0.09045
6333.09108,0.07106
6335.01955,0.10470
6336.94801,0.19806
6338.87648,0.22351
6340.80495,0.14506
6342.73342,0.09608
6344.66189,0.14848
6346.59036,0.17550
6348.51883,0.10821
6350.44729,0.07346
6352.37576,0.10320
6354.30423,0.11182
6356.23270,0.09664
6358.16117,0.09900
6360.08964,0.12880
6362.01811,0.12802
6363.94658,0.06874
6365.87504,0.03550
6367.80351,0.04480
6369.73198,0.03791
6371.66045,0.06727
6373.58892,0.15986
6375.51739,0.22634
6377.44586,0.22266
6379.37432,0.18646
6381.30279,0.15331
6383.23126,0.10339
6385.15973,0.04867
6387.08820,0.07202
6389.01667,0.13179
6390.94514,0.10810
6392.87361,0.02612
6394.80207,0.00767
6396.73054,0.03213
6398.65901,0.02033
6400.58748,-0.01661
6402.51595,-0.03741
6404.44442,-0.04733
6406.37289,-0.04411
6408.30135,-0.04192
6410.22982,-0.05057
6412.15829,-0.02129
6414.08676,0.01205
6416.01523,-0.01039
6417.94370,-0.04490
6419.87217,-0.01896
6421.80064,0.04048
6423.72910,0.08141
6425.65757,0.11144
6427.58604,0.12608
6429.51451,0.11841
6431.44298,0.12825
6433.37145,0.17014
6435.29992,0.19774
6437.22838,0.15987
6439.15685,0.08519
6441.08532,0.06508
6443.01379,0.11570
6444.94226,0.15603
6446.87073,0.15330
6448.79920,0.15507
6450.72766,0.16706
6452.65613,0.18638
6454.58460,0.22729
6456.51307,0.24225
6458.44154,0.16798
6460.37001,0.06710
6462.29848,0.03159
6464.22695,0.04809
6466.15541,0.05396
6468.08388,0.02333
6470.01235,0.00574
6471.94082,0.06594
6473.86929,0.14551
6475.79776,0.14600
6477.72623,0.11078
6479.65469,0.10981
6481.58316,0.09270
6483.51163,0.05867
6485.44010,0.04880
6487.36857,0.05396
6489.29704,0.04801
6491.22551,0.02818
6493.15398,0.03502
6495.08244,0.06672
6497.01091,0.06666
6498.93938,0.02066
6500.86785,-0.02739
6502.79632,-0.05710
6504.72479,-0.04786
6506.65326,0.05575
6508.58172,0.15829
6510.51019,0.15041
6512.43866,0.14400
6514.36713,0.18052
6516.29560,0.15568
6518.22407,0.08228
6520.15254,0.01982
6522.08101,-0.04026
6524.00947,-0.03709
6525.93794,0.09398
6527.86641,0.20758
6529.79488,0.19648
6531.72335,0.13476
6533.65182,0.08630
6535.58029,0.04401
6537.50875,0.00491
6539.43722,-0.00020
6541.36569,0.03691
6543.29416,0.09486
6545.22263,0.13613
6547.15110,0.12594
6549.07957,0.11051
6551.00804,0.11945
6552.93650,0.06110
6554.86497,-0.03421
6556.79344,-0.04634
6558.72191,-0.02339
6560.65038,-0.01963
6562.57885,0.00342
6564.50732,0.04678
6566.43578,0.06422
6568.36425,0.06639
6570.29272,0.08740
6572.22119,0.09445
6574.14966,0.06368
6576.07813,0.01151
6578.00660,0.02101
6579.93507,0.13789
6581.86353,0.22675
6583.79200,0.21910
6585.72047,0.20281
6587.64894,0.18485
6589.57741,0.12588
6591.50588,0.05346
6593.43435,-0.02165
6595.36281,-0.07620
6597.29128,-0.06430
6599.21975,-0.00390
6601.14822,0.08326
6603.07669,0.14097
6605.00516,0.13444
6606.93363,0.12233
6608.86210,0.15947
6610.79056,0.20632
6612.71903,0.17812
6614.64750,0.10946
6616.57597,0.05698
6618.50444,-0.00638
6620.43291,-0.02285
6622.36138,0.05135
6624.28984,0.13150
6626.21831,0.17475
6628.14678,0.17651
6630.07525,0.13860
6632.00372,0.11374
6633.93219,0.08670
6635.86066,0.05791
6637.78912,0.03488
6639.71759,-0.00620
6641.64606,-0.04313
6643.57453,-0.07211
6645.50300,-0.07098
6647.43147,-0.00488
6649.35994,0.09394
6651.28841,0.15049
6653.21687,0.13589
6655.14534,0.12944
6657.07381,0.19401
6659.00228,0.24500
6660.93075,0.19200
6662.85922,0.07911
6664.78769,0.00761
6666.71615,-0.00056
6668.64462,-0.01974
6670.57309,-0.02267
6672.50156,0.10262
6674.43003,0.21892
6676.35850,0.14853
6678.28697,0.00668
6680.21544,-0.03937
6682.14390,-0.02718
6684.07237,-0.01322
6686.00084,0.02130
6687.92931,0.03150
6689.85778,-0.02426
6691.78625,-0.05679
6693.71472,0.00347
6695.64318,0.07020
6697.57165,0.03637
6699.50012,-0.05729
6701.42859,-0.09854
6703.35706,-0.06866
6705.28553,-0.05916
6707.21400,-0.07278
6709.14247,-0.02839
6711.07093,0.03706
6712.99940,0.05073
6714.92787,0.04059
6716.85634,0.04808
6718.78481,0.02644
6720.71328,-0.00877
6722.64175,0.01353
6724.57021,0.05339
6726.49868,0.06741
6728.42715,0.08040
6730.35562,0.13001
6732.28409,0.18124
6734.21256,0.17271
6736.14103,0.09236
6738.06950,-0.04335
6739.99796,-0.14459
6741.92643,-0.13097
6743.85490,-0.07231
6745.78337,-0.05871
6747.71184,-0.06810
6749.64031,-0.05058
6751.56878,-0.05788
6753.49724,-0.04936
6755.42571,0.05759
6757.35418,0.15341
6759.28265,0.16599
6761.21112,0.11510
6763.13959,0.06220
6765.06806,0.07138
6766.99653,0.09706
6768.92499,0.05066
6770.85346,0.00305
6772.78193,0.00677
6774.71040,-0.00404
6776.63887,0.04152
6778.56734,0.14375
6780.49581,0.16172
6782.42427,0.08375
6784.35274,0.01167
6786.28121,0.02485
6788.20968,0.04286
6790.13815,0.00432
6792.06662,0.00817
6793.99509,0.03645
6795.92355,0.02615
6797.85202,0.02541
6799.78049,0.02870
6801.70896,0.03532
6803.63743,0.08010
6805.56590,0.07356
6807.49437,0.01431
6809.42284,0.02072
6811.35130,0.06895
6813.27977,0.04430
6815.20824,-0.06377
6817.13671,-0.15275
6819.06518,-0.13574
6820.99365,-0.05302
6822.92212,0.01474
6824.85058,0.04802
6826.77905,0.08423
6828.70752,0.10549
6830.63599,0.07716
6832.56446,0.03417
6834.49293,0.04918
6836.42140,0.14928
6838.34987,0.22863
6840.27833,0.20134
6842.20680,0.16486
6844.13527,0.17459
6846.06374,0.13716
6847.99221,0.07554
6849.92068,0.06955
6851.84915,0.07871
6853.77761,0.08201
6855.70608,0.03174
6857.63455,-0.05308
6859.56302,-0.05000
6861.49149,0.04691
6863.41996,0.13098
6865.34843,0.16833
6867.27690,0.17365
6869.20536,0.14196
6871.13383,0.16773
6873.06230,0.22429
6874.99077,0.17132
6876.91924,0.12388
6878.84771,0.17246
6880.77618,0.18627
6882.70464,0.13281
6884.63311,0.12287
6886.56158,0.13974
6888.49005,0.12211
6890.41852,0.09117
6892.34699,0.10062
6894.27546,0.13548
6896.20393,0.14320
6898.13239,0.12375
6900.06086,0.09103
6901.98933,0.07730
6903.91780,0.06241
6905.84627,0.00255
6907.77474,0.00881
6909.70321,0.12359
6911.63167,0.22833
6913.56014,0.21942
6915.48861,0.12229
6917.41708,0.03855
6919.34555,-0.00231
6921.27402,-0.05094
6923.20249,-0.08010
6925.13096,-0.00299
6927.05942,0.14005
6928.98789,0.25054
6930.91636,0.26245
6932.84483,0.14336
6934.77330,0.04410
6936.70177,0.05826
6938.63024,0.06383
6940.55870,0.03042
6942.48717,0.05824
6944.41564,0.08352
6946.34411,0.07418
6948.27258,0.05987
6950.20105,-0.01846
6952.12952,-0.11623
6954.05799,-0.10473
6955.98645,-0.01215
6957.91492,0.05256
6959.84339,0.05374
6961.77186,-0.00060
6963.70033,-0.04263
6965.62880,-0.03651
6967.55727,0.00402
6969.48573,0.08118
6971.41420,0.20296
6973.34267,0.25739
6975.27114,0.11085
6977.19961,-0.02741
6979.12808,0.07191
6981.05655,0.23876
6982.98501,0.22049
6984.91348,0.08240
6986.84195,0.01189
6988.77042,-0.00461
6990.69889,-0.03753
6992.62736,-0.05739
6994.55583,-0.01236
6996.48430,0.06462
6998.41276,0.04076
7000.34123,-0.09894
7002.26970,-0.17414
7004.19817,-0.14974
7006.12664,-0.10716
7008.05511,-0.02106
7009.98358,0.11454
7011.91204,0.15283
7013.84051,0.06179
7015.76898,0.05784
7017.69745,0.15187
7019.62592,0.20457
7021.55439,0.21750
7023.48286,0.22649
7025.41133,0.16945
7027.33979,-0.01883
7029.26826,-0.16386
7031.19673,-0.05877
7033.12520,0.09273
7035.05367,0.11959
7036.98214,0.10772
7038.91061,0.09740
7040.83907,0.07912
7042.76754,0.12566
7044.69601,0.19983
7046.62448,0.16179
7048.55295,0.06528
7050.48142,0.04881
7052.40989,0.04987
7054.33836,-0.00618
7056.26682,-0.02308
7058.19529,0.04999
7060.12376,0.14071
7062.05223,0.20600
7063.98070,0.17580
7065.90917,0.08621
7067.83764,0.08692
7069.76610,0.18899
7071.69457,0.22669
7073.62304,0.08548
7075.55151,-0.06130
7077.47998,-0.05000
7079.40845,0.05508
7081.33692,0.13995
7083.26539,0.18923
7085.19385,0.20061
7087.12232,0.14208
7089.05079,0.07040
7090.97926,0.13154
7092.90773,0.24782
7094.83620,0.19966
7096.76467,-0.01631
7098.69313,-0.23428
7100.62160,-0.24724
7102.55007,-0.09514
7104.47854,0.06185
7106.40701,0.15144
7108.33548,0.18594
7110.26395,0.16941
7112.19242,0.14115
7114.12088,0.17425
7116.04935,0.20082
7117.97782,0.12031
7119.90629,0.03740
7121.83476,-0.01830
7123.76323,-0.04632
7125.69170,-0.01598
7127.62016,0.02359
7129.54863,0.06358
7131.47710,0.08231
7133.40557,0.04385
7135.33404,-0.01946
7137.26251,-0.04524
7139.19098,-0.05390
7141.11944,-0.13587
7143.04791,-0.25195
7144.97638,-0.26583
7146.90485,-0.12300
7148.83332,0.06222
7150.76179,0.17550
7152.69026,0.20253
7154.61873,0.13659
7156.54719,0.04132
7158.47566,0.09103
7160.40413,0.21809
7162.33260,0.26241
7164.26107,0.34067
7166.18954,0.45648
7168.11801,0.33937
7170.04647,0.04974
7171.97494,-0.03004
7173.90341,0.08238
7175.83188,0.15647
7177.76035,0.13281
7179.68882,0.08333
7181.61729,0.09329
7183.54576,0.12746
7185.47422,0.11404
7187.40269,0.00494
7189.33116,-0.16807
7191.25963,-0.22724
7193.18810,-0.12335
7195.11657,-0.02410
7197.04504,-0.00379
7198.97350,-0.00903
7200.90197,0.05396
7202.83044,0.17001
7204.75891,0.17906
7206.68738,0.01384
7208.61585,-0.06741
7210.54432,0.05520
7212.47279,0.25233
7214.40125,0.32689
7216.32972,0.18975
7218.25819,0.03758
7220.18666,0.14756
7222.11513,0.31630
7224.04360,0.34102
7225.97207,0.16057
7227.90053,-0.04860
7229.82900,-0.10610
7231.75747,-0.08191
7233.68594,-0.06253
7235.61441,-0.07157
7237.54288,-0.09642
7239.47135,-0.06206
7241.39982,0.01067
7243.32828,0.02157
7245.25675,-0.06464
7247.18522,-0.17726
7249.11369,-0.27106
7251.04216,-0.33942
7252.97063,-0.34865
7254.89910,-0.26035
7256.82756,-0.14248
7258.75603,-0.06234
7260.68450,-0.03191
7262.61297,0.02103
7264.54144,0.04350
7266.46991,-0.00353
7268.39838,0.01088
7270.32685,0.11235
7272.25531,0.21354
7274.18378,0.21443
7276.11225,0.16277
7278.04072,0.17753
7279.96919,0.27527
7281.89766,0.28731
7283.82613,0.22832
7285.75459,0.19855
7287.68306,0.16675
7289.61153,0.14664
7291.54000,0.20856
7293.46847,0.22413
7295.39694,0.17580
7297.32541,0.20371
7299.25387,0.20736
7301.18234,0.15275
7303.11081,0.15440
7305.03928,0.20234
7306.96775,0.27617
7308.89622,0.35866
7310.82469,0.28875
7312.75316,0.15817
7314.68162,0.11018
7316.61009,0.05062
7318.53856,-0.05999
7320.46703,-0.12157
7322.39550,-0.12809
7324.32397,-0.07325
7326.25244,-0.07668
7328.18090,-0.13611
7330.10937,-0.05344
7332.03784,0.06675
7333.96631,0.07646
7335.89478,0.05806
7337.82325,0.05071
7339.75172,0.07167
7341.68019,0.10586
7343.60865,0.00666
7345.53712,-0.14682
7347.46559,-0.20683
7349.39406,-0.23235
7351.32253,-0.25555
7353.25100,-0.16745
7355.17947,0.03733
7357.10793,0.08667
7359.03640,-0.10378
7360.96487,-0.13066
7362.89334,0.02793
7364.82181,0.12899
7366.75028,0.14064
7368.67875,0.08869
7370.60722,0.00312
7372.53568,-0.03965
7374.46415,0.03196
7376.39262,0.15617
7378.32109,0.15667
7380.24956,0.10463
7382.17803,0.05116
7384.10650,0.10255
7386.03496,0.27482
7387.96343,0.32743
7389.89190,0.17880
7391.82037,0.08213
7393.74884,0.11990
7395.67731,0.14279
7397.60578,0.16966
7399.53425,0.19118
7401.46271,0.12281
7403.39118,0.09181
7405.31965,0.13311
7407.24812,0.02248
7409.17659,-0.12657
7411.10506,-0.09672
7413.03353,-0.00372
7414.96199,0.02987
7416.89046,0.01248
7418.81893,-0.07909
7420.74740,-0.10825
7422.67587,-0.02563
7424.60434,-0.06369
7426.53281,-0.22054
7428.46128,-0.26775
7430.38974,-0.12239
7432.31821,0.01596
7434.24668,0.16481
7436.17515,0.32694
7438.10362,0.31010
7440.03209,0.17731
7441.96056,0.12678
7443.88902,0.12049
7445.81749,0.08046
7447.74596,0.08360
7449.67443,0.20776
7451.60290,0.28800
7453.53137,0.12973
7455.45984,-0.10680
7457.38831,-0.24456
7459.31677,-0.16642
7461.24524,0.00641
7463.17371,-0.01042
7465.10218,-0.12996
7467.03065,-0.17601
7468.95912,-0.10654
7470.88759,0.05938
7472.81605,0.23653
7474.74452,0.27092
7476.67299,0.23104
7478.60146,0.29461
7480.52993,0.36167
7482.45840,0.26695
7484.38687,0.11878
7486.31533,0.02369
7488.24380,0.03613
7490.17227,0.12505
7492.10074,0.12922
7494.02921,0.05867
7495.95768,0.03892
7497.88615,0.00898
