399.19301,11.28909
401.12148,0.07227
403.04995,-0.23927
404.97842,0.02983
406.90689,0.15042
408.83536,0.21261
410.76382,0.19555
412.69229,0.06018
414.62076,-0.03962
416.54923,-0.04663
418.47770,-0.00065
420.40617,-0.02749
422.33464,-0.10385
424.26311,-0.17676
426.19157,-0.15965
428.12004,-0.05577
430.04851,0.04207
431.97698,0.04980
433.90545,-0.03494
435.83392,-0.11599
437.76239,-0.15600
439.69085,-0.15743
441.61932,-0.13549
443.54779,-0.03279
445.47626,0.12485
447.40473,0.22320
449.33320,0.24235
451.26167,0.20734
453.19013,0.13929
455.11860,0.03767
457.04707,-0.03522
458.97554,-0.01632
460.90401,0.05001
462.83248,0.07847
464.76095,0.05392
466.68942,0.02778
468.61788,0.03567
470.54635,0.11658
472.47482,0.23915
474.40329,0.25783
476.33176,0.24190
478.26023,0.21801
480.18870,0.10960
482.11716,0.02760
484.04563,0.05089
485.97410,0.07072
487.90257,0.05300
489.83104,0.03179
491.75951,0.06169
493.68798,0.15833
495.61645,0.22039
497.54491,0.18418
499.47338,0.11139
501.40185,0.08561
503.33032,0.11326
505.25879,0.12406
507.18726,0.10102
509.11573,0.09007
511.04419,0.09029
512.97266,0.07153
514.90113,0.01854
516.82960,-0.01919
518.75807,0.01529
520.68654,0.06436
522.61501,0.08950
524.54348,0.10228
526.47194,0.11491
528.40041,0.12919
530.32888,0.12801
532.25735,0.11770
534.18582,0.10842
536.11429,0.11151
538.04276,0.13512
539.97122,0.14733
541.89969,0.14694
543.82816,0.14490
545.75663,0.11396
547.68510,0.07455
549.61357,0.06964
551.54204,0.08943
553.47051,0.11850
555.39897,0.13719
557.32744,0.12243
559.25591,0.10820
561.18438,0.13179
563.11285,0.16091
565.04132,0.15761
566.96979,0.12867
568.89825,0.09163
570.82672,0.07242
572.75519,0.09252
574.68366,0.13858
576.61213,0.18327
578.54060,0.20309
580.46907,0.18817
582.39754,0.15688
584.32600,0.13198
586.25447,0.12740
588.18294,0.13125
590.11141,0.11627
592.03988,0.10210
593.96835,0.10876
595.89682,0.12608
597.82528,0.14309
599.75375,0.14047
601.68222,0.13297
603.61069,0.14065
605.53916,0.14952
607.46763,0.15211
609.39610,0.14213
611.32456,0.12714
613.25303,0.12069
615.18150,0.11291
617.10997,0.09988
619.03844,0.08547
620.96691,0.07649
622.89538,0.07954
624.82385,0.08491
626.75231,0.08238
628.68078,0.08185
630.60925,0.10537
632.53772,0.13472
634.46619,0.13143
636.39466,0.11623
638.32313,0.12905
640.25159,0.15925
642.18006,0.16084
644.10853,0.13106
646.03700,0.10679
647.96547,0.10451
649.89394,0.11505
651.82241,0.11652
653.75088,0.11342
655.67934,0.12316
657.60781,0.12130
659.53628,0.09862
661.46475,0.08979
663.39322,0.09629
665.32169,0.09935
667.25016,0.10980
669.17862,0.14064
671.10709,0.14758
673.03556,0.13479
674.96403,0.12993
676.89250,0.13295
678.82097,0.12764
680.74944,0.12812
682.67791,0.14742
684.60637,0.15029
686.53484,0.13181
688.46331,0.13521
690.39178,0.15076
692.32025,0.15122
694.24872,0.15029
696.17719,0.15520
698.10565,0.15212
700.03412,0.14013
701.96259,0.12737
703.89106,0.11878
705.81953,0.12393
707.74800,0.13760
709.67647,0.14236
711.60494,0.13649
713.53340,0.12834
715.46187,0.12237
717.39034,0.11921
719.31881,0.11995
721.24728,0.12350
723.17575,0.12882
725.10422,0.13488
727.03268,0.13741
728.96115,0.13501
730.88962,0.13364
732.81809,0.13596
734.74656,0.13584
736.67503,0.13630
738.60350,0.14196
740.53197,0.14394
742.46043,0.13583
744.38890,0.12698
746.31737,0.13005
748.24584,0.14019
750.17431,0.14648
752.10278,0.14644
754.03125,0.14006
755.95971,0.13326
757.88818,0.13591
759.81665,0.14644
761.74512,0.15556
763.67359,0.15547
765.60206,0.14372
767.53053,0.13095
769.45900,0.12464
771.38746,0.12427
773.31593,0.13147
775.24440,0.13677
777.17287,0.13641
779.10134,0.13915
781.02981,0.13823
782.95828,0.13083
784.88674,0.13032
786.81521,0.13599
788.74368,0.14101
790.67215,0.14872
792.60062,0.15057
794.52909,0.13708
796.45756,0.12526
798.38602,0.12923
800.31449,0.13744
802.24296,0.14233
804.17143,0.14653
806.09990,0.14098
808.02837,0.13000
809.95684,0.13606
811.88531,0.15344
813.81377,0.15961
815.74224,0.15784
817.67071,0.15676
819.59918,0.14554
821.52765,0.13234
823.45612,0.13833
825.38459,0.15460
827.31305,0.16460
829.24152,0.16721
831.16999,0.16214
833.09846,0.15093
835.02693,0.14221
836.95540,0.14086
838.88387,0.14534
840.81234,0.14805
842.74080,0.14307
844.66927,0.13803
846.59774,0.13767
848.52621,0.13649
850.45468,0.13008
852.38315,0.12588
854.31162,0.13967
856.24008,0.16526
858.16855,0.17723
860.09702,0.16473
862.02549,0.14271
863.95396,0.12820
865.88243,0.12388
867.81090,0.12649
869.73937,0.13080
871.66783,0.13472
873.59630,0.13328
875.52477,0.12436
877.45324,0.11795
879.38171,0.11510
881.31018,0.11646
883.23865,0.12780
885.16711,0.13980
887.09558,0.14351
889.02405,0.14542
890.95252,0.14644
892.88099,0.14132
894.80946,0.13817
896.73793,0.14278
898.66640,0.14870
900.59486,0.15235
902.52333,0.15321
904.45180,0.15175
906.38027,0.14826
908.30874,0.14493
910.23721,0.14754
912.16568,0.15574
914.09414,0.16050
916.02261,0.15750
917.95108,0.15386
919.87955,0.15388
921.80802,0.15388
923.73649,0.15322
925.66496,0.15187
927.59343,0.14676
929.52189,0.14351
931.45036,0.14833
933.37883,0.15303
935.30730,0.14919
937.23577,0.14300
939.16424,0.14748
941.09271,0.16124
943.02117,0.17123
944.94964,0.17237
946.87811,0.16610
948.80658,0.15449
950.73505,0.14274
952.66352,0.13671
954.59199,0.13851
956.52045,0.14838
958.44892,0.15994
960.37739,0.16478
962.30586,0.16456
964.23433,0.16080
966.16280,0.15208
968.09127,0.14421
970.01974,0.14318
971.94820,0.14408
973.87667,0.14518
975.80514,0.14813
977.73361,0.14566
979.66208,0.14021
981.59055,0.14274
983.51902,0.15171
985.44748,0.15859
987.37595,0.16045
989.30442,0.15922
991.23289,0.15860
993.16136,0.15942
995.08983,0.15725
997.01830,0.15092
998.94677,0.14653
1000.87523,0.15164
1002.80370,0.15974
1004.73217,0.15871
1006.66064,0.15549
1008.58911,0.15855
1010.51758,0.16189
1012.44605,0.16138
1014.37451,0.15889
1016.30298,0.15541
1018.23145,0.15314
1020.15992,0.15448
1022.08839,0.15697
1024.01686,0.15303
1025.94533,0.14526
1027.87380,0.14734
1029.80226,0.15612
1031.73073,0.15944
1033.65920,0.15658
1035.58767,0.15115
1037.51614,0.15144
1039.44461,0.15798
1041.37308,0.16054
1043.30154,0.16127
1045.23001,0.16141
1047.15848,0.15509
1049.08695,0.15101
1051.01542,0.15539
1052.94389,0.16412
1054.87236,0.17452
1056.80083,0.17694
1058.72929,0.16489
1060.65776,0.15015
1062.58623,0.14594
1064.51470,0.15402
1066.44317,0.16809
1068.37164,0.17665
1070.30011,0.17531
1072.22857,0.16702
1074.15704,0.15587
1076.08551,0.15067
1078.01398,0.15593
1079.94245,0.16375
1081.87092,0.16270
1083.79939,0.15556
1085.72786,0.15203
1087.65632,0.14927
1089.58479,0.14306
1091.51326,0.14273
1093.44173,0.15549
1095.37020,0.16603
1097.29867,0.16429
1099.22714,0.16471
1101.15560,0.17008
1103.08407,0.17092
1105.01254,0.16925
1106.94101,0.16869
1108.86948,0.16909
1110.79795,0.17160
1112.72642,0.17780
1114.65489,0.18382
1116.58335,0.18063
1118.51182,0.16977
1120.44029,0.16385
1122.36876,0.16717
1124.29723,0.17110
1126.22570,0.16883
1128.15417,0.16291
1130.08263,0.15871
1132.01110,0.15668
1133.93957,0.15318
1135.86804,0.15000
1137.79651,0.15078
1139.72498,0.15263
1141.65345,0.15134
1143.58191,0.14993
1145.51038,0.15663
1147.43885,0.16828
1149.36732,0.17472
1151.29579,0.17469
1153.22426,0.17033
1155.15273,0.16464
1157.08120,0.16383
1159.00966,0.16594
1160.93813,0.16613
1162.86660,0.16777
1164.79507,0.16974
1166.72354,0.16902
1168.65201,0.16719
1170.58048,0.16400
1172.50894,0.16166
1174.43741,0.16503
1176.36588,0.17250
1178.29435,0.17759
1180.22282,0.17609
1182.15129,0.16965
1184.07976,0.15783
1186.00823,0.13378
1187.93669,0.11809
1189.86516,0.13396
1191.79363,0.15457
1193.72210,0.15995
1195.65057,0.16294
1197.57904,0.16752
1199.50751,0.17076
1201.43597,0.17292
1203.36444,0.17382
1205.29291,0.17080
1207.22138,0.16617
1209.14985,0.16536
1211.07832,0.16336
1213.00679,0.15904
1214.93526,0.16190
1216.86372,0.16972
1218.79219,0.17346
1220.72066,0.17236
1222.64913,0.17106
1224.57760,0.17338
1226.50607,0.17425
1228.43454,0.16854
1230.36300,0.16141
1232.29147,0.15882
1234.21994,0.15970
1236.14841,0.16102
1238.07688,0.16292
1240.00535,0.16505
1241.93382,0.16514
1243.86229,0.16170
1245.79075,0.15648
1247.71922,0.15349
1249.64769,0.15570
1251.57616,0.15971
1253.50463,0.16183
1255.43310,0.16458
1257.36157,0.16318
1259.29003,0.15377
1261.21850,0.14812
1263.14697,0.15153
1265.07544,0.15557
1267.00391,0.15778
1268.93238,0.16038
1270.86085,0.16494
1272.78932,0.17027
1274.71778,0.16896
1276.64625,0.16499
1278.57472,0.16669
1280.50319,0.16554
1282.43166,0.16034
1284.36013,0.16138
1286.28860,0.16531
1288.21706,0.16828
1290.14553,0.17244
1292.07400,0.17339
1294.00247,0.16915
1295.93094,0.16416
1297.85941,0.16021
1299.78788,0.15077
1301.71634,0.12966
1303.64481,0.10746
1305.57328,0.10726
1307.50175,0.13406
1309.43022,0.16165
1311.35869,0.17218
1313.28716,0.17467
1315.21563,0.17559
1317.14409,0.17422
1319.07256,0.17049
1321.00103,0.16441
1322.92950,0.16186
1324.85797,0.16138
1326.78644,0.15844
1328.71491,0.15865
1330.64337,0.15791
1332.57184,0.15631
1334.50031,0.15957
1336.42878,0.15987
1338.35725,0.15953
1340.28572,0.15895
1342.21419,0.15348
1344.14266,0.15174
1346.07112,0.15333
1347.99959,0.15502
1349.92806,0.15545
1351.85653,0.15457
1353.78500,0.15640
1355.71347,0.15936
1357.64194,0.16099
1359.57040,0.16169
1361.49887,0.16224
1363.42734,0.16508
1365.35581,0.17079
1367.28428,0.17609
1369.21275,0.17693
1371.14122,0.17451
1373.06969,0.17442
1374.99815,0.17743
1376.92662,0.17875
1378.85509,0.17849
1380.78356,0.17872
1382.71203,0.17901
1384.64050,0.18234
1386.56897,0.18894
1388.49743,0.19085
1390.42590,0.18807
1392.35437,0.18655
1394.28284,0.18769
1396.21131,0.19225
1398.13978,0.19666
1400.06825,0.19398
1401.99672,0.18727
1403.92518,0.18452
1405.85365,0.18597
1407.78212,0.18651
1409.71059,0.18467
1411.63906,0.18255
1413.56753,0.18316
1415.49600,0.18926
1417.42446,0.19892
1419.35293,0.20020
1421.28140,0.19367
1423.20987,0.19158
1425.13834,0.18993
1427.06681,0.18583
1428.99528,0.18346
1430.92375,0.18105
1432.85221,0.17869
1434.78068,0.18370
1436.70915,0.19335
1438.63762,0.19357
1440.56609,0.18954
1442.49456,0.18900
1444.42303,0.18999
1446.35149,0.19084
1448.27996,0.19331
1450.20843,0.19478
1452.13690,0.19426
1454.06537,0.19768
1455.99384,0.20985
1457.92231,0.21678
1459.85077,0.20649
1461.77924,0.20169
1463.70771,0.20577
1465.63618,0.20501
1467.56465,0.19575
1469.49312,0.19199
1471.42159,0.19661
1473.35006,0.19952
1475.27852,0.19739
1477.20699,0.19673
1479.13546,0.19579
1481.06393,0.19538
1482.99240,0.19692
1484.92087,0.20207
1486.84934,0.21238
1488.77780,0.21858
1490.70627,0.21050
1492.63474,0.20265
1494.56321,0.20508
1496.49168,0.21202
1498.42015,0.20943
1500.34862,0.20085
1502.27709,0.19708
1504.20555,0.20182
1506.13402,0.22118
1508.06249,0.23113
1509.99096,0.21449
1511.91943,0.20221
1513.84790,0.20376
1515.77637,0.21657
1517.70483,0.22922
1519.63330,0.23626
1521.56177,0.23784
1523.49024,0.22959
1525.41871,0.21877
1527.34718,0.20836
1529.27565,0.20211
1531.20412,0.20264
1533.13258,0.20574
1535.06105,0.20855
1536.98952,0.21933
1538.91799,0.24614
1540.84646,0.26478
1542.77493,0.23852
1544.70340,0.20703
1546.63186,0.19253
1548.56033,0.19295
1550.48880,0.19731
1552.41727,0.20194
1554.34574,0.21017
1556.27421,0.22307
1558.20268,0.23831
1560.13115,0.22552
1562.05961,0.20582
1563.98808,0.19800
1565.91655,0.19707
1567.84502,0.20209
1569.77349,0.20466
1571.70196,0.19882
1573.63043,0.19684
1575.55889,0.20073
1577.48736,0.19833
1579.41583,0.18806
1581.34430,0.17984
1583.27277,0.17552
1585.20124,0.17373
1587.12971,0.17616
1589.05818,0.18001
1590.98664,0.18107
1592.91511,0.18265
1594.84358,0.18495
1596.77205,0.18236
1598.70052,0.17638
1600.62899,0.17549
1602.55746,0.18150
1604.48592,0.18631
1606.41439,0.18610
1608.34286,0.18444
1610.27133,0.18267
1612.19980,0.18070
1614.12827,0.18360
1616.05674,0.19396
1617.98521,0.19711
1619.91367,0.19275
1621.84214,0.19396
1623.77061,0.19727
1625.69908,0.19760
1627.62755,0.19744
1629.55602,0.19596
1631.48449,0.19655
1633.41295,0.20397
1635.34142,0.21376
1637.26989,0.21010
1639.19836,0.20161
1641.12683,0.19936
1643.05530,0.20464
1644.98377,0.21976
1646.91223,0.23652
1648.84070,0.23272
1650.76917,0.22973
1652.69764,0.24161
1654.62611,0.23451
1656.55458,0.21556
1658.48305,0.20739
1660.41152,0.20765
1662.33998,0.20905
1664.26845,0.20673
1666.19692,0.20755
1668.12539,0.21425
1670.05386,0.21633
1671.98233,0.21079
1673.91080,0.20781
1675.83926,0.20248
1677.76773,0.19723
1679.69620,0.20247
1681.62467,0.21775
1683.55314,0.23082
1685.48161,0.21967
1687.41008,0.20479
1689.33855,0.20031
1691.26701,0.20091
1693.19548,0.20447
1695.12395,0.21446
1697.05242,0.22909
1698.98089,0.23693
1700.90936,0.22649
1702.83783,0.21237
1704.76629,0.21021
1706.69476,0.21028
1708.62323,0.20410
1710.55170,0.19899
1712.48017,0.20227
1714.40864,0.21533
1716.33711,0.22964
1718.26558,0.22035
1720.19404,0.20007
1722.12251,0.19094
1724.05098,0.19001
1725.97945,0.19277
1727.90792,0.19649
1729.83639,0.20107
1731.76486,0.20979
1733.69332,0.21691
1735.62179,0.20910
1737.55026,0.20098
1739.47873,0.19881
1741.40720,0.19819
1743.33567,0.19904
1745.26414,0.20189
1747.19261,0.20530
1749.12107,0.20582
1751.04954,0.19925
1752.97801,0.19229
1754.90648,0.19138
1756.83495,0.19373
1758.76342,0.19571
1760.69189,0.19828
1762.62035,0.19873
1764.54882,0.19640
1766.47729,0.19729
1768.40576,0.20153
1770.33423,0.20805
1772.26270,0.21288
1774.19117,0.20546
1776.11964,0.19521
1778.04810,0.19307
1779.97657,0.19534
1781.90504,0.19436
1783.83351,0.19190
1785.76198,0.19105
1787.69045,0.19310
1789.61892,0.20006
1791.54738,0.20849
1793.47585,0.20890
1795.40432,0.20156
1797.33279,0.19534
1799.26126,0.19476
1801.18973,0.19445
1803.11820,0.18984
1805.04666,0.18693
1806.97513,0.18782
1808.90360,0.19006
1810.83207,0.19220
1812.76054,0.19230
1814.68901,0.18988
1816.61748,0.18745
1818.54595,0.18769
1820.47441,0.19061
1822.40288,0.19453
1824.33135,0.19634
1826.25982,0.19574
1828.18829,0.19956
1830.11676,0.20430
1832.04523,0.19948
1833.97369,0.19399
1835.90216,0.19523
1837.83063,0.19758
1839.75910,0.19796
1841.68757,0.19956
1843.61604,0.20124
1845.54451,0.19832
1847.47298,0.19289
1849.40144,0.18878
1851.32991,0.18682
1853.25838,0.18710
1855.18685,0.18915
1857.11532,0.19074
1859.04379,0.19044
1860.97226,0.18963
1862.90072,0.19008
1864.82919,0.19326
1866.75766,0.19808
1868.68613,0.19886
1870.61460,0.19384
1872.54307,0.18894
1874.47154,0.18607
1876.40001,0.18414
1878.32847,0.18490
1880.25694,0.18966
1882.18541,0.19370
1884.11388,0.19345
1886.04235,0.19213
1887.97082,0.19301
1889.89929,0.19366
1891.82775,0.19287
1893.75622,0.19381
1895.68469,0.19380
1897.61316,0.19032
1899.54163,0.18888
1901.47010,0.19019
1903.39857,0.18978
1905.32704,0.18877
1907.25550,0.18949
1909.18397,0.18960
1911.11244,0.18730
1913.04091,0.18510
1914.96938,0.18599
1916.89785,0.18915
1918.82632,0.19112
1920.75478,0.19173
1922.68325,0.19032
1924.61172,0.18622
1926.54019,0.18506
1928.46866,0.18733
1930.39713,0.18999
1932.32560,0.19273
1934.25407,0.19293
1936.18253,0.19049
1938.11100,0.18870
1940.03947,0.18984
1941.96794,0.19499
1943.89641,0.19884
1945.82488,0.19613
1947.75335,0.19130
1949.68181,0.18932
1951.61028,0.18887
1953.53875,0.18755
1955.46722,0.18671
1957.39569,0.18640
1959.32416,0.18611
1961.25263,0.18775
1963.18110,0.18985
1965.10956,0.19070
1967.03803,0.19165
1968.96650,0.19141
1970.89497,0.18959
1972.82344,0.18916
1974.75191,0.19073
1976.68038,0.19207
1978.60884,0.19199
1980.53731,0.19243
1982.46578,0.19424
1984.39425,0.19376
1986.32272,0.18949
1988.25119,0.18557
1990.17966,0.18611
1992.10812,0.18913
1994.03659,0.19023
1995.96506,0.18919
1997.89353,0.18805
1999.82200,0.18918
2001.75047,0.19220
2003.67894,0.19417
2005.60741,0.19385
2007.53587,0.19277
2009.46434,0.19232
2011.39281,0.19176
2013.32128,0.19204
2015.24975,0.19333
2017.17822,0.19339
2019.10669,0.19183
2021.03515,0.19052
2022.96362,0.19117
2024.89209,0.19238
2026.82056,0.19134
2028.74903,0.18915
2030.67750,0.18977
2032.60597,0.19313
2034.53444,0.19570
2036.46290,0.19565
2038.39137,0.19359
2040.31984,0.19132
2042.24831,0.18998
2044.17678,0.18957
2046.10525,0.18959
2048.03372,0.18946
2049.96218,0.18859
2051.89065,0.18882
2053.81912,0.19193
2055.74759,0.19249
2057.67606,0.18730
2059.60453,0.18380
2061.53300,0.18495
2063.46147,0.18573
2065.38993,0.18664
2067.31840,0.18992
2069.24687,0.19213
2071.17534,0.19144
2073.10381,0.19125
2075.03228,0.19313
2076.96075,0.19274
2078.88921,0.18854
2080.81768,0.18638
2082.74615,0.18854
2084.67462,0.19158
2086.60309,0.19386
2088.53156,0.19437
2090.46003,0.19308
2092.38850,0.19254
2094.31696,0.19209
2096.24543,0.19015
2098.17390,0.18885
2100.10237,0.18905
2102.03084,0.18940
2103.95931,0.18991
2105.88778,0.19046
2107.81624,0.19054
2109.74471,0.19017
2111.67318,0.19008
2113.60165,0.19188
2115.53012,0.19560
2117.45859,0.19822
2119.38706,0.19677
2121.31553,0.19248
2123.24399,0.19007
2125.17246,0.19125
2127.10093,0.19329
2129.02940,0.19458
2130.95787,0.19445
2132.88634,0.19234
2134.81481,0.19088
2136.74327,0.19163
2138.67174,0.19150
2140.60021,0.18942
2142.52868,0.18852
2144.45715,0.19040
2146.38562,0.19322
2148.31409,0.19443
2150.24255,0.19378
2152.17102,0.19308
2154.09949,0.19234
2156.02796,0.19098
2157.95643,0.19085
2159.88490,0.19306
2161.81337,0.19551
2163.74184,0.19574
2165.67030,0.19408
2167.59877,0.19294
2169.52724,0.19424
2171.45571,0.19636
2173.38418,0.19502
2175.31265,0.19037
2177.24112,0.18770
2179.16958,0.18897
2181.09805,0.18991
2183.02652,0.18770
2184.95499,0.18522
2186.88346,0.18559
2188.81193,0.18820
2190.74040,0.19030
2192.66887,0.19160
2194.59733,0.19269
2196.52580,0.19140
2198.45427,0.18825
2200.38274,0.18614
2202.31121,0.18614
2204.23968,0.18743
2206.16815,0.18794
2208.09661,0.18756
2210.02508,0.18770
2211.95355,0.18906
2213.88202,0.19107
2215.81049,0.19214
2217.73896,0.19048
2219.66743,0.18658
2221.59590,0.18519
2223.52436,0.18828
2225.45283,0.19148
2227.38130,0.19177
2229.30977,0.19151
2231.23824,0.19260
2233.16671,0.19259
2235.09518,0.19150
2237.02364,0.19204
2238.95211,0.19415
2240.88058,0.19646
2242.80905,0.19749
2244.73752,0.19634
2246.66599,0.19406
2248.59446,0.19229
2250.52293,0.19174
2252.45139,0.19218
2254.37986,0.19226
2256.30833,0.19104
2258.23680,0.19021
2260.16527,0.19222
2262.09374,0.19575
2264.02221,0.19671
2265.95067,0.19525
2267.87914,0.19482
2269.80761,0.19606
2271.73608,0.19636
2273.66455,0.19410
2275.59302,0.19095
2277.52149,0.18845
2279.44996,0.18754
2281.37842,0.18944
2283.30689,0.19240
2285.23536,0.19312
2287.16383,0.19047
2289.09230,0.18615
2291.02077,0.18368
2292.94924,0.18466
2294.87770,0.18797
2296.80617,0.19181
2298.73464,0.19245
2300.66311,0.18927
2302.59158,0.18747
2304.52005,0.18863
2306.44852,0.19065
2308.37699,0.19204
2310.30545,0.19242
2312.23392,0.19404
2314.16239,0.19397
2316.09086,0.18750
2318.01933,0.17976
2319.94780,0.17701
2321.87627,0.18218
2323.80473,0.19466
2325.73320,0.20182
2327.66167,0.19556
2329.59014,0.18707
2331.51861,0.18676
2333.44708,0.19040
2335.37555,0.19089
2337.30401,0.18541
2339.23248,0.17833
2341.16095,0.17645
2343.08942,0.17016
2345.01789,0.15741
2346.94636,0.15929
2348.87483,0.17333
2350.80330,0.18994
2352.73176,0.20557
2354.66023,0.20664
2356.58870,0.18730
2358.51717,0.17627
2360.44564,0.19200
2362.37411,0.20056
2364.30258,0.18559
2366.23104,0.17937
2368.15951,0.19037
2370.08798,0.19828
2372.01645,0.19418
2373.94492,0.18781
2375.87339,0.18774
2377.80186,0.18958
2379.73033,0.18915
2381.65879,0.18952
2383.58726,0.19227
2385.51573,0.19459
2387.44420,0.19435
2389.37267,0.19220
2391.30114,0.19175
2393.22961,0.19362
2395.15807,0.19391
2397.08654,0.19326
2399.01501,0.19398
2400.94348,0.19504
2402.87195,0.19606
2404.80042,0.19696
2406.72889,0.19682
2408.65736,0.19577
2410.58582,0.19443
2412.51429,0.19202
2414.44276,0.18986
2416.37123,0.19012
2418.29970,0.19137
2420.22817,0.19310
2422.15664,0.19594
2424.08510,0.19676
2426.01357,0.19275
2427.94204,0.18907
2429.87051,0.19146
2431.79898,0.19491
2433.72745,0.19295
2435.65592,0.18869
2437.58439,0.18726
2439.51285,0.18740
2441.44132,0.18787
2443.36979,0.19102
2445.29826,0.19499
2447.22673,0.19571
2449.15520,0.19436
2451.08367,0.19345
2453.01213,0.19234
2454.94060,0.19167
2456.86907,0.19193
2458.79754,0.19047
2460.72601,0.18880
2462.65448,0.18996
2464.58295,0.19200
2466.51142,0.19429
2468.43988,0.19634
2470.36835,0.19641
2472.29682,0.19598
2474.22529,0.19417
2476.15376,0.19042
2478.08223,0.18840
2480.01070,0.18871
2481.93916,0.19050
2483.86763,0.19289
2485.79610,0.19441
2487.72457,0.19516
2489.65304,0.19471
2491.58151,0.19375
2493.50998,0.19480
2495.43844,0.19721
2497.36691,0.19828
2499.29538,0.19809
2501.22385,0.19720
2503.15232,0.19498
2505.08079,0.19274
2507.00926,0.19357
2508.93773,0.19648
2510.86619,0.19655
2512.79466,0.19416
2514.72313,0.19267
2516.65160,0.19235
2518.58007,0.19238
2520.50854,0.19232
2522.43701,0.19302
2524.36547,0.19394
2526.29394,0.19348
2528.22241,0.19339
2530.15088,0.19416
2532.07935,0.19320
2534.00782,0.19405
2535.93629,0.19977
2537.86476,0.20269
2539.79322,0.19932
2541.72169,0.19553
2543.65016,0.19398
2545.57863,0.19356
2547.50710,0.19407
2549.43557,0.19481
2551.36404,0.19503
2553.29250,0.19478
2555.22097,0.19260
2557.14944,0.18894
2559.07791,0.18784
2561.00638,0.19050
2562.93485,0.19375
2564.86332,0.19400
2566.79179,0.19199
2568.72025,0.19261
2570.64872,0.19617
2572.57719,0.19750
2574.50566,0.19499
2576.43413,0.19126
2578.36260,0.19020
2580.29107,0.19344
2582.21953,0.19635
2584.14800,0.19553
2586.07647,0.19401
2588.00494,0.19419
2589.93341,0.19492
2591.86188,0.19518
2593.79035,0.19610
2595.71882,0.19820
2597.64728,0.19846
2599.57575,0.19638
2601.50422,0.19635
2603.43269,0.19862
2605.36116,0.19868
2607.28963,0.19518
2609.21810,0.19191
2611.14656,0.19156
2613.07503,0.19249
2615.00350,0.19316
2616.93197,0.19372
2618.86044,0.19494
2620.78891,0.19648
2622.71738,0.19628
2624.64585,0.19590
2626.57431,0.19773
2628.50278,0.19968
2630.43125,0.19996
2632.35972,0.19784
2634.28819,0.19410
2636.21666,0.19281
2638.14513,0.19385
2640.07359,0.19347
2642.00206,0.19301
2643.93053,0.19442
2645.85900,0.19589
2647.78747,0.19753
2649.71594,0.20008
2651.64441,0.20233
2653.57288,0.20146
2655.50134,0.19763
2657.42981,0.19667
2659.35828,0.19883
2661.28675,0.19952
2663.21522,0.19856
2665.14369,0.19701
2667.07216,0.19736
2669.00062,0.20080
2670.92909,0.20230
2672.85756,0.20098
2674.78603,0.20122
2676.71450,0.20168
2678.64297,0.19991
2680.57144,0.19691
2682.49990,0.19429
2684.42837,0.19397
2686.35684,0.19470
2688.28531,0.19417
2690.21378,0.19478
2692.14225,0.19752
2694.07072,0.19891
2695.99919,0.19884
2697.92765,0.19885
2699.85612,0.19957
2701.78459,0.20211
2703.71306,0.20389
2705.64153,0.20272
2707.57000,0.20181
2709.49847,0.20459
2711.42693,0.20804
2713.35540,0.20629
2715.28387,0.20136
2717.21234,0.19912
2719.14081,0.19989
2721.06928,0.20106
2722.99775,0.20130
2724.92622,0.20113
2726.85468,0.20123
2728.78315,0.20120
2730.71162,0.20166
2732.64009,0.20288
2734.56856,0.20401
2736.49703,0.20627
2738.42550,0.20942
2740.35396,0.20912
2742.28243,0.20454
2744.21090,0.20084
2746.13937,0.20019
2748.06784,0.20122
2749.99631,0.20328
2751.92478,0.20446
2753.85325,0.20335
2755.78171,0.20125
2757.71018,0.20087
2759.63865,0.20225
2761.56712,0.20405
2763.49559,0.20558
2765.42406,0.20588
2767.35253,0.20716
2769.28099,0.20924
2771.20946,0.20887
2773.13793,0.20701
2775.06640,0.20528
2776.99487,0.20378
2778.92334,0.20257
2780.85181,0.20216
2782.78028,0.20338
2784.70874,0.20448
2786.63721,0.20314
2788.56568,0.20262
2790.49415,0.20528
2792.42262,0.20739
2794.35109,0.20833
2796.27956,0.20989
2798.20802,0.21090
2800.13649,0.21091
2802.06496,0.21027
2803.99343,0.20923
2805.92190,0.20984
2807.85037,0.21050
2809.77884,0.20821
2811.70731,0.20590
2813.63577,0.20533
2815.56424,0.20524
2817.49271,0.20565
2819.42118,0.20573
2821.34965,0.20486
2823.27812,0.20413
2825.20659,0.20292
2827.13505,0.20129
2829.06352,0.20178
2830.99199,0.20296
2832.92046,0.20387
2834.84893,0.20580
2836.77740,0.20785
2838.70587,0.21088
2840.63433,0.21336
2842.56280,0.21053
2844.49127,0.20469
2846.41974,0.20279
2848.34821,0.20606
2850.27668,0.20969
2852.20515,0.21045
2854.13362,0.20911
2856.06208,0.20652
2857.99055,0.20452
2859.91902,0.20506
2861.84749,0.20593
2863.77596,0.20577
2865.70443,0.20526
2867.63290,0.20393
2869.56136,0.20169
2871.48983,0.19894
2873.41830,0.19709
2875.34677,0.19790
2877.27524,0.20022
2879.20371,0.20144
2881.13218,0.20305
2883.06065,0.20582
2884.98911,0.20651
2886.91758,0.20568
2888.84605,0.20684
2890.77452,0.20943
2892.70299,0.20936
2894.63146,0.20544
2896.55993,0.20341
2898.48839,0.20764
2900.41686,0.21188
2902.34533,0.20912
2904.27380,0.20107
2906.20227,0.19629
2908.13074,0.19941
2910.05921,0.20260
2911.98768,0.20198
2913.91614,0.19922
2915.84461,0.19329
2917.77308,0.19057
2919.70155,0.19307
2921.63002,0.19353
2923.55849,0.18946
2925.48696,0.18227
2927.41542,0.17956
2929.34389,0.18751
2931.27236,0.19943
2933.20083,0.20488
2935.12930,0.19740
2937.05777,0.18528
2938.98624,0.18489
2940.91471,0.19346
2942.84317,0.20049
2944.77164,0.19996
2946.70011,0.18980
2948.62858,0.18447
2950.55705,0.19209
2952.48552,0.20247
2954.41399,0.20670
2956.34245,0.19599
2958.27092,0.18125
2960.19939,0.18648
2962.12786,0.20280
2964.05633,0.20982
2965.98480,0.20388
2967.91327,0.19217
2969.84174,0.19202
2971.77020,0.20370
2973.69867,0.21097
2975.62714,0.20661
2977.55561,0.19393
2979.48408,0.18988
2981.41255,0.19973
2983.34102,0.20861
2985.26948,0.20989
2987.19795,0.20390
2989.12642,0.19915
2991.05489,0.20463
2992.98336,0.21148
2994.91183,0.21205
2996.84030,0.21041
2998.76877,0.21107
3000.69723,0.21362
3002.62570,0.21445
3004.55417,0.21123
3006.48264,0.20449
3008.41111,0.19688
3010.33958,0.18558
3012.26805,0.16244
3014.19651,0.12418
3016.12498,0.09216
3018.05345,0.10680
3019.98192,0.15970
3021.91039,0.19754
3023.83886,0.20724
3025.76733,0.20866
3027.69579,0.20966
3029.62426,0.21217
3031.55273,0.21626
3033.48120,0.21797
3035.40967,0.21485
3037.33814,0.20865
3039.26661,0.20599
3041.19508,0.20815
3043.12354,0.20796
3045.05201,0.20210
3046.98048,0.19649
3048.90895,0.19920
3050.83742,0.20680
3052.76589,0.21066
3054.69436,0.20715
3056.62282,0.19806
3058.55129,0.19649
3060.47976,0.20584
3062.40823,0.21080
3064.33670,0.20193
3066.26517,0.18826
3068.19364,0.18813
3070.12211,0.19992
3072.05057,0.20610
3073.97904,0.20026
3075.90751,0.19258
3077.83598,0.19819
3079.76445,0.21279
3081.69292,0.21779
3083.62139,0.20175
3085.54985,0.18100
3087.47832,0.18475
3089.40679,0.20491
3091.33526,0.21287
3093.26373,0.20187
3095.19220,0.19268
3097.12067,0.20060
3099.04914,0.21070
3100.97760,0.20925
3102.90607,0.19886
3104.83454,0.19473
3106.76301,0.20446
3108.69148,0.21301
3110.61995,0.20698
3112.54842,0.19435
3114.47688,0.19472
3116.40535,0.20629
3118.33382,0.21130
3120.26229,0.20612
3122.19076,0.20072
3124.11923,0.20304
3126.04770,0.20866
3127.97617,0.20945
3129.90463,0.20450
3131.83310,0.20412
3133.76157,0.21112
3135.69004,0.21363
3137.61851,0.20880
3139.54698,0.20450
3141.47545,0.20686
3143.40391,0.21322
3145.33238,0.21600
3147.26085,0.21158
3149.18932,0.20643
3151.11779,0.21083
3153.04626,0.22069
3154.97473,0.22301
3156.90320,0.21791
3158.83166,0.21600
3160.76013,0.21627
3162.68860,0.21264
3164.61707,0.20890
3166.54554,0.20980
3168.47401,0.21639
3170.40248,0.22239
3172.33094,0.21914
3174.25941,0.21148
3176.18788,0.21083
3178.11635,0.21793
3180.04482,0.22293
3181.97329,0.22056
3183.90176,0.21752
3185.83022,0.22025
3187.75869,0.22363
3189.68716,0.22042
3191.61563,0.21457
3193.54410,0.21328
3195.47257,0.21645
3197.40104,0.21981
3199.32951,0.21939
3201.25797,0.21642
3203.18644,0.21626
3205.11491,0.21973
3207.04338,0.22346
3208.97185,0.22503
3210.90032,0.22238
3212.82879,0.21657
3214.75725,0.21219
3216.68572,0.21291
3218.61419,0.21831
3220.54266,0.22245
3222.47113,0.22300
3224.39960,0.22170
3226.32807,0.21801
3228.25654,0.21537
3230.18500,0.21527
3232.11347,0.21278
3234.04194,0.20817
3235.97041,0.20785
3237.89888,0.21242
3239.82735,0.21638
3241.75582,0.21688
3243.68428,0.21405
3245.61275,0.21109
3247.54122,0.21184
3249.46969,0.21583
3251.39816,0.21841
3253.32663,0.21704
3255.25510,0.21632
3257.18357,0.21527
3259.11203,0.21119
3261.04050,0.21187
3262.96897,0.21663
3264.89744,0.21658
3266.82591,0.21525
3268.75438,0.21847
3270.68285,0.21977
3272.61131,0.21353
3274.53978,0.20839
3276.46825,0.21215
3278.39672,0.21863
3280.32519,0.22167
3282.25366,0.22072
3284.18213,0.21697
3286.11060,0.21553
3288.03906,0.21778
3289.96753,0.21962
3291.89600,0.21818
3293.82447,0.21571
3295.75294,0.21618
3297.68141,0.21613
3299.60988,0.21311
3301.53834,0.21045
3303.46681,0.21037
3305.39528,0.21037
3307.32375,0.20445
3309.25222,0.19752
3311.18069,0.19786
3313.10916,0.20211
3315.03763,0.20738
3316.96609,0.21353
3318.89456,0.21822
3320.82303,0.21881
3322.75150,0.21313
3324.67997,0.20757
3326.60844,0.20941
3328.53691,0.21206
3330.46537,0.21131
3332.39384,0.21176
3334.32231,0.21405
3336.25078,0.21557
3338.17925,0.21385
3340.10772,0.21057
3342.03619,0.21042
3343.96466,0.21220
3345.89312,0.21095
3347.82159,0.20916
3349.75006,0.21105
3351.67853,0.21227
3353.60700,0.21159
3355.53547,0.21300
3357.46394,0.21481
3359.39240,0.21427
3361.32087,0.21302
3363.24934,0.21170
3365.17781,0.20943
3367.10628,0.20829
3369.03475,0.21097
3370.96322,0.21468
3372.89168,0.21426
3374.82015,0.21385
3376.74862,0.21978
3378.67709,0.22273
3380.60556,0.21615
3382.53403,0.21230
3384.46250,0.21550
3386.39097,0.21858
3388.31943,0.22041
3390.24790,0.21914
3392.17637,0.21324
3394.10484,0.20786
3396.03331,0.20711
3397.96178,0.21121
3399.89025,0.21707
3401.81871,0.21858
3403.74718,0.21521
3405.67565,0.21277
3407.60412,0.21262
3409.53259,0.21071
3411.46106,0.20796
3413.38953,0.21037
3415.31800,0.21623
3417.24646,0.21930
3419.17493,0.21926
3421.10340,0.21853
3423.03187,0.21670
3424.96034,0.21150
3426.88881,0.20527
3428.81728,0.20349
3430.74574,0.20688
3432.67421,0.20956
3434.60268,0.20730
3436.53115,0.20414
3438.45962,0.20537
3440.38809,0.21026
3442.31656,0.21374
3444.24503,0.21128
3446.17349,0.20578
3448.10196,0.20334
3450.03043,0.19993
3451.95890,0.19295
3453.88737,0.18964
3455.81584,0.19256
3457.74431,0.19850
3459.67277,0.20194
3461.60124,0.20011
3463.52971,0.19877
3465.45818,0.19868
3467.38665,0.19514
3469.31512,0.19249
3471.24359,0.19513
3473.17206,0.19871
3475.10052,0.19762
3477.02899,0.19066
3478.95746,0.18661
3480.88593,0.19186
3482.81440,0.19625
3484.74287,0.19337
3486.67134,0.19058
3488.59980,0.19186
3490.52827,0.19332
3492.45674,0.19191
3494.38521,0.19124
3496.31368,0.19330
3498.24215,0.19327
3500.17062,0.19217
3502.09909,0.19335
3504.02755,0.18974
3505.95602,0.18163
3507.88449,0.18092
3509.81296,0.18583
3511.74143,0.18412
3513.66990,0.17840
3515.59837,0.17944
3517.52683,0.18346
3519.45530,0.18179
3521.38377,0.18089
3523.31224,0.18563
3525.24071,0.18784
3527.16918,0.18531
3529.09765,0.17913
3531.02611,0.17032
3532.95458,0.16520
3534.88305,0.16616
3536.81152,0.16960
3538.73999,0.16880
3540.66846,0.16511
3542.59693,0.16658
3544.52540,0.17149
3546.45386,0.17372
3548.38233,0.17283
3550.31080,0.17190
3552.23927,0.17430
3554.16774,0.17739
3556.09621,0.17626
3558.02468,0.17048
3559.95314,0.16260
3561.88161,0.15951
3563.81008,0.16541
3565.73855,0.17226
3567.66702,0.16963
3569.59549,0.16349
3571.52396,0.16048
3573.45243,0.16054
3575.38089,0.16311
3577.30936,0.16375
3579.23783,0.15957
3581.16630,0.15466
3583.09477,0.15388
3585.02324,0.15753
3586.95171,0.16203
3588.88017,0.15993
3590.80864,0.15634
3592.73711,0.15967
3594.66558,0.16473
3596.59405,0.16540
3598.52252,0.16449
3600.45099,0.16113
3602.37946,0.15577
3604.30792,0.15473
3606.23639,0.16120
3608.16486,0.16809
3610.09333,0.16701
3612.02180,0.16653
3613.95027,0.16875
3615.87874,0.16934
3617.80720,0.17250
3619.73567,0.17291
3621.66414,0.16299
3623.59261,0.15347
3625.52108,0.15175
3627.44955,0.15549
3629.37802,0.15562
3631.30649,0.15412
3633.23495,0.15669
3635.16342,0.15613
3637.09189,0.14962
3639.02036,0.14297
3640.94883,0.14097
3642.87730,0.14398
3644.80577,0.15107
3646.73423,0.16167
3648.66270,0.16563
3650.59117,0.14842
3652.51964,0.13438
3654.44811,0.13524
3656.37658,0.14259
3658.30505,0.14440
3660.23352,0.14052
3662.16198,0.13468
3664.09045,0.12915
3666.01892,0.12860
3667.94739,0.13393
3669.87586,0.14265
3671.80433,0.15247
3673.73280,0.16271
3675.66126,0.16487
3677.58973,0.15208
3679.51820,0.14255
3681.44667,0.14025
3683.37514,0.13963
3685.30361,0.13896
3687.23208,0.14156
3689.16055,0.14737
3691.08901,0.14468
3693.01748,0.13547
3694.94595,0.13213
3696.87442,0.13450
3698.80289,0.13605
3700.73136,0.13486
3702.65983,0.13297
3704.58829,0.13113
3706.51676,0.12936
3708.44523,0.13160
3710.37370,0.14134
3712.30217,0.14775
3714.23064,0.14173
3716.15911,0.13266
3718.08757,0.12807
3720.01604,0.13194
3721.94451,0.14091
3723.87298,0.14566
3725.80145,0.14154
3727.72992,0.13443
3729.65839,0.13167
3731.58686,0.13434
3733.51532,0.14092
3735.44379,0.14553
3737.37226,0.14564
3739.30073,0.14779
3741.22920,0.15304
3743.15767,0.15650
3745.08614,0.15160
3747.01460,0.14785
3748.94307,0.15080
3750.87154,0.14862
3752.80001,0.14210
3754.72848,0.14322
3756.65695,0.14748
3758.58542,0.14768
3760.51389,0.14151
3762.44235,0.13745
3764.37082,0.13747
3766.29929,0.13750
3768.22776,0.14121
3770.15623,0.14556
3772.08470,0.13860
3774.01317,0.12911
3775.94163,0.12639
3777.87010,0.12807
3779.79857,0.13145
3781.72704,0.13290
3783.65551,0.12951
3785.58398,0.12462
3787.51245,0.12271
3789.44092,0.12135
3791.36938,0.11875
3793.29785,0.11943
3795.22632,0.12638
3797.15479,0.13486
3799.08326,0.13900
3801.01173,0.14171
3802.94020,0.14362
3804.86866,0.14504
3806.79713,0.14338
3808.72560,0.13429
3810.65407,0.13000
3812.58254,0.13481
3814.51101,0.14283
3816.43948,0.14704
3818.36795,0.14729
3820.29641,0.14767
3822.22488,0.14230
3824.15335,0.13758
3826.08182,0.13670
3828.01029,0.13409
3829.93876,0.13156
3831.86723,0.13072
3833.79569,0.13122
3835.72416,0.13694
3837.65263,0.14871
3839.58110,0.15443
3841.50957,0.14838
3843.43804,0.13826
3845.36651,0.12790
3847.29498,0.12062
3849.22344,0.11955
3851.15191,0.12585
3853.08038,0.13466
3855.00885,0.12889
3856.93732,0.12125
3858.86579,0.12082
3860.79426,0.12467
3862.72272,0.13128
3864.65119,0.13262
3866.57966,0.12644
3868.50813,0.12601
3870.43660,0.13311
3872.36507,0.13579
3874.29354,0.13186
3876.22200,0.12708
3878.15047,0.12504
3880.07894,0.12206
3882.00741,0.11565
3883.93588,0.11355
3885.86435,0.11738
3887.79282,0.12237
3889.72129,0.12807
3891.64975,0.13198
3893.57822,0.12890
3895.50669,0.12593
3897.43516,0.13154
3899.36363,0.14065
3901.29210,0.14115
3903.22057,0.13767
3905.14903,0.13097
3907.07750,0.12046
3909.00597,0.11384
3910.93444,0.11261
3912.86291,0.11512
3914.79138,0.11937
3916.71985,0.12265
3918.64832,0.12434
3920.57678,0.12809
3922.50525,0.13127
3924.43372,0.12730
3926.36219,0.12052
3928.29066,0.11643
3930.21913,0.11138
3932.14760,0.10709
3934.07606,0.10973
3936.00453,0.11485
3937.93300,0.11553
3939.86147,0.11294
3941.78994,0.11110
3943.71841,0.10720
3945.64688,0.10131
3947.57535,0.10152
3949.50381,0.10956
3951.43228,0.11691
3953.36075,0.11560
3955.28922,0.10779
3957.21769,0.10287
3959.14616,0.10579
3961.07463,0.11450
3963.00309,0.12076
3964.93156,0.11757
3966.86003,0.11223
3968.78850,0.11263
3970.71697,0.11258
3972.64544,0.10678
3974.57391,0.10210
3976.50238,0.10399
3978.43084,0.10741
3980.35931,0.10734
3982.28778,0.10724
3984.21625,0.11027
3986.14472,0.10972
3988.07319,0.10445
3990.00166,0.10353
3991.93012,0.10378
3993.85859,0.09910
3995.78706,0.09716
3997.71553,0.10050
3999.64400,0.10373
4001.57247,0.10656
4003.50094,0.10991
4005.42941,0.11074
4007.35787,0.10873
4009.28634,0.10652
4011.21481,0.10358
4013.14328,0.10038
4015.07175,0.09699
4017.00022,0.09206
4018.92869,0.08884
4020.85715,0.09003
4022.78562,0.09366
4024.71409,0.09690
4026.64256,0.09726
4028.57103,0.09406
4030.49950,0.09215
4032.42797,0.09654
4034.35644,0.10327
4036.28490,0.10481
4038.21337,0.10038
4040.14184,0.09754
4042.07031,0.09938
4043.99878,0.09900
4045.92725,0.09650
4047.85572,0.09851
4049.78418,0.10189
4051.71265,0.10056
4053.64112,0.09703
4055.56959,0.09569
4057.49806,0.09603
4059.42653,0.09623
4061.35500,0.09551
4063.28346,0.09414
4065.21193,0.09363
4067.14040,0.09434
4069.06887,0.09257
4070.99734,0.08723
4072.92581,0.08498
4074.85428,0.08988
4076.78275,0.09663
4078.71121,0.09912
4080.63968,0.09972
4082.56815,0.10049
4084.49662,0.09903
4086.42509,0.09660
4088.35356,0.09335
4090.28203,0.09093
4092.21049,0.09235
4094.13896,0.09313
4096.06743,0.09281
4097.99590,0.09366
4099.92437,0.09173
4101.85284,0.09040
4103.78131,0.09445
4105.70978,0.09615
4107.63824,0.09444
4109.56671,0.09474
4111.49518,0.09270
4113.42365,0.08767
4115.35212,0.08472
4117.28059,0.08415
4119.20906,0.08590
4121.13752,0.08741
4123.06599,0.08493
4124.99446,0.08191
4126.92293,0.08208
4128.85140,0.08454
4130.77987,0.08774
4132.70834,0.08829
4134.63681,0.08723
4136.56527,0.09024
4138.49374,0.09135
4140.42221,0.08604
4142.35068,0.08477
4144.27915,0.08889
4146.20762,0.09086
4148.13609,0.09081
4150.06455,0.08829
4151.99302,0.08311
4153.92149,0.08178
4155.84996,0.08406
4157.77843,0.08210
4159.70690,0.07796
4161.63537,0.07835
4163.56384,0.08226
4165.49230,0.08715
4167.42077,0.09108
4169.34924,0.08971
4171.27771,0.08291
4173.20618,0.07751
4175.13465,0.07493
4177.06312,0.07125
4178.99158,0.06772
4180.92005,0.06787
4182.84852,0.07228
4184.77699,0.07693
4186.70546,0.07831
4188.63393,0.07961
4190.56240,0.08189
4192.49087,0.07939
4194.41933,0.07271
4196.34780,0.07069
4198.27627,0.07790
4200.20474,0.08630
4202.13321,0.08468
4204.06168,0.08037
4205.99015,0.08297
4207.91861,0.08304
4209.84708,0.07691
4211.77555,0.07290
4213.70402,0.07436
4215.63249,0.07919
4217.56096,0.08073
4219.48943,0.07941
4221.41789,0.08052
4223.34636,0.07898
4225.27483,0.07446
4227.20330,0.07455
4229.13177,0.07869
4231.06024,0.08093
4232.98871,0.07746
4234.91718,0.07095
4236.84564,0.06665
4238.77411,0.06648
4240.70258,0.06965
4242.63105,0.07149
4244.55952,0.06921
4246.48799,0.06686
4248.41646,0.06705
4250.34492,0.06892
4252.27339,0.07153
4254.20186,0.07281
4256.13033,0.07265
4258.05880,0.07374
4259.98727,0.07534
4261.91574,0.07251
4263.84421,0.06826
4265.77267,0.06774
4267.70114,0.06227
4269.62961,0.05177
4271.55808,0.05061
4273.48655,0.05988
4275.41502,0.06915
4277.34349,0.07000
4279.27195,0.06261
4281.20042,0.05701
4283.12889,0.05883
4285.05736,0.06116
4286.98583,0.05859
4288.91430,0.05696
4290.84277,0.06076
4292.77124,0.06452
4294.69970,0.06470
4296.62817,0.06491
4298.55664,0.06314
4300.48511,0.05496
4302.41358,0.04774
4304.34205,0.04825
4306.27052,0.04940
4308.19898,0.04889
4310.12745,0.05425
4312.05592,0.06171
4313.98439,0.06485
4315.91286,0.06913
4317.84133,0.07422
4319.76980,0.06894
4321.69827,0.05506
4323.62673,0.04921
4325.55520,0.05556
4327.48367,0.06205
4329.41214,0.06033
4331.34061,0.05260
4333.26908,0.04566
4335.19755,0.04484
4337.12601,0.05005
4339.05448,0.05223
4340.98295,0.04714
4342.91142,0.04513
4344.83989,0.04919
4346.76836,0.04775
4348.69683,0.04065
4350.62530,0.03815
4352.55376,0.03863
4354.48223,0.03949
4356.41070,0.04131
4358.33917,0.04090
4360.26764,0.04181
4362.19611,0.04397
4364.12458,0.04298
4366.05304,0.04407
4367.98151,0.04802
4369.90998,0.04858
4371.83845,0.04674
4373.76692,0.04238
4375.69539,0.03544
4377.62386,0.03402
4379.55232,0.04057
4381.48079,0.04942
4383.40926,0.05186
4385.33773,0.04355
4387.26620,0.03353
4389.19467,0.03205
4391.12314,0.03751
4393.05161,0.04305
4394.98007,0.04632
4396.90854,0.04602
4398.83701,0.04265
4400.76548,0.04100
4402.69395,0.04151
4404.62242,0.03788
4406.55089,0.03302
4408.47935,0.03611
4410.40782,0.04469
4412.33629,0.05185
4414.26476,0.04884
4416.19323,0.03722
4418.12170,0.03430
4420.05017,0.03935
4421.97864,0.03817
4423.90710,0.03399
4425.83557,0.03473
4427.76404,0.03487
4429.69251,0.03300
4431.62098,0.03392
4433.54945,0.03521
4435.47792,0.03523
4437.40638,0.03604
4439.33485,0.03872
4441.26332,0.03957
4443.19179,0.03406
4445.12026,0.02508
4447.04873,0.01630
4448.97720,0.00900
4450.90567,0.00828
4452.83413,0.01708
4454.76260,0.02955
4456.69107,0.03592
4458.61954,0.03506
4460.54801,0.03270
4462.47648,0.02491
4464.40495,0.01518
4466.33341,0.01502
4468.26188,0.01973
4470.19035,0.02219
4472.11882,0.02262
4474.04729,0.02206
4475.97576,0.02484
4477.90423,0.03012
4479.83270,0.02997
4481.76116,0.02705
4483.68963,0.02592
4485.61810,0.02143
4487.54657,0.01534
4489.47504,0.01514
4491.40351,0.01834
4493.33198,0.01644
4495.26044,0.01088
4497.18891,0.01262
4499.11738,0.02356
4501.04585,0.03104
4502.97432,0.02806
4504.90279,0.02105
4506.83126,0.01947
4508.75973,0.02457
4510.68819,0.02421
4512.61666,0.01699
4514.54513,0.01544
4516.47360,0.01765
4518.40207,0.01809
4520.33054,0.02218
4522.25901,0.02514
4524.18747,0.01937
4526.11594,0.01620
4528.04441,0.02160
4529.97288,0.02710
4531.90135,0.02726
4533.82982,0.02274
4535.75829,0.02166
4537.68676,0.02366
4539.61522,0.01760
4541.54369,0.00772
4543.47216,0.00622
4545.40063,0.01274
4547.32910,0.01905
4549.25757,0.02525
4551.18604,0.03133
4553.11450,0.02529
4555.04297,0.01297
4556.97144,0.01177
4558.89991,0.01566
4560.82838,0.01410
4562.75685,0.01098
4564.68532,0.01269
4566.61378,0.01961
4568.54225,0.02794
4570.47072,0.02917
4572.39919,0.02220
4574.32766,0.01827
4576.25613,0.01529
4578.18460,0.00466
4580.11307,-0.00293
4582.04153,0.00310
4583.97000,0.01469
4585.89847,0.02295
4587.82694,0.02765
4589.75541,0.03462
4591.68388,0.04171
4593.61235,0.03723
4595.54081,0.02622
4597.46928,0.01711
4599.39775,0.00845
4601.32622,0.00486
4603.25469,0.00805
4605.18316,0.01260
4607.11163,0.01566
4609.04010,0.01685
4610.96856,0.01884
4612.89703,0.02246
4614.82550,0.02443
4616.75397,0.02272
4618.68244,0.02043
4620.61091,0.02427
4622.53938,0.02385
4624.46784,0.00868
4626.39631,-0.00115
4628.32478,0.00636
4630.25325,0.01518
4632.18172,0.01472
4634.11019,0.00931
4636.03866,0.00552
4637.96713,0.00621
4639.89559,0.01191
4641.82406,0.02057
4643.75253,0.02646
4645.68100,0.02656
4647.60947,0.02367
4649.53794,0.02015
4651.46641,0.01899
4653.39487,0.01749
4655.32334,0.01170
4657.25181,0.00904
4659.18028,0.01261
4661.10875,0.01683
4663.03722,0.01913
4664.96569,0.02081
4666.89416,0.02275
4668.82262,0.02483
4670.75109,0.02598
4672.67956,0.02554
4674.60803,0.02500
4676.53650,0.02487
4678.46497,0.02436
4680.39344,0.02071
4682.32190,0.01960
4684.25037,0.02700
4686.17884,0.02999
4688.10731,0.02174
4690.03578,0.01428
4691.96425,0.01403
4693.89272,0.01435
4695.82119,0.01245
4697.74965,0.01291
4699.67812,0.01816
4701.60659,0.02576
4703.53506,0.02839
4705.46353,0.02502
4707.39200,0.02292
4709.32047,0.02290
4711.24893,0.01974
4713.17740,0.01326
4715.10587,0.00861
4717.03434,0.00566
4718.96281,-0.00179
4720.89128,-0.00882
4722.81975,-0.00312
4724.74821,0.01248
4726.67668,0.02565
4728.60515,0.02819
4730.53362,0.02664
4732.46209,0.02535
4734.39056,0.01351
4736.31903,-0.00104
4738.24750,-0.00057
4740.17596,0.00960
4742.10443,0.01437
4744.03290,0.01200
4745.96137,0.01312
4747.88984,0.01847
4749.81831,0.01774
4751.74678,0.01389
4753.67524,0.01533
4755.60371,0.01676
4757.53218,0.01957
4759.46065,0.02415
4761.38912,0.01690
4763.31759,0.00667
4765.24606,0.00924
4767.17453,0.01446
4769.10299,0.01382
4771.03146,0.01229
4772.95993,0.01274
4774.88840,0.01094
4776.81687,0.00556
4778.74534,0.00306
4780.67381,0.00765
4782.60227,0.01770
4784.53074,0.02496
4786.45921,0.02301
4788.38768,0.01623
4790.31615,0.00931
4792.24462,0.00074
4794.17309,-0.00775
4796.10156,-0.00820
4798.03002,-0.00134
4799.95849,0.00018
4801.88696,-0.00617
4803.81543,-0.00656
4805.74390,0.00550
4807.67237,0.01568
4809.60084,0.01482
4811.52930,0.00905
4813.45777,0.00027
4815.38624,-0.00684
4817.31471,-0.00338
4819.24318,0.00907
4821.17165,0.02398
4823.10012,0.03246
4825.02859,0.02877
4826.95705,0.02009
4828.88552,0.01479
4830.81399,0.00772
4832.74246,-0.00007
4834.67093,0.00492
4836.59940,0.02114
4838.52787,0.03312
4840.45633,0.03140
4842.38480,0.01955
4844.31327,0.00627
4846.24174,-0.00466
4848.17021,-0.01402
4850.09868,-0.01909
4852.02715,-0.01212
4853.95562,0.00131
4855.88408,0.00638
4857.81255,0.00245
4859.74102,0.00060
4861.66949,0.00061
4863.59796,-0.00283
4865.52643,-0.00106
4867.45490,0.00254
4869.38336,-0.00053
4871.31183,-0.00334
4873.24030,-0.00577
4875.16877,-0.00625
4877.09724,0.00156
4879.02571,0.01107
4880.95418,0.01584
4882.88265,0.01633
4884.81111,0.01063
4886.73958,0.00347
4888.66805,0.00156
4890.59652,0.00231
4892.52499,0.00457
4894.45346,0.00730
4896.38193,0.00956
4898.31039,0.01251
4900.23886,0.01341
4902.16733,0.01196
4904.09580,0.01106
4906.02427,0.01127
4907.95274,0.01159
4909.88121,0.01612
4911.80967,0.02765
4913.73814,0.03453
4915.66661,0.02259
4917.59508,0.00454
4919.52355,0.00654
4921.45202,0.02259
4923.38049,0.03423
4925.30896,0.03951
4927.23742,0.03880
4929.16589,0.03598
4931.09436,0.03150
4933.02283,0.02435
4934.95130,0.01735
4936.87977,0.00796
4938.80824,-0.00422
4940.73670,-0.01369
4942.66517,-0.00939
4944.59364,0.00863
4946.52211,0.01721
4948.45058,0.01191
4950.37905,0.01280
4952.30752,0.01156
4954.23599,-0.00298
4956.16445,-0.00718
4958.09292,0.00260
4960.02139,0.01153
4961.94986,0.01769
4963.87833,0.01591
4965.80680,0.00477
4967.73527,-0.00010
4969.66373,0.01099
4971.59220,0.01963
4973.52067,0.01584
4975.44914,0.01636
4977.37761,0.01953
4979.30608,0.01165
4981.23455,0.00079
4983.16302,-0.00239
4985.09148,0.00260
4987.01995,0.01585
4988.94842,0.03164
4990.87689,0.03702
4992.80536,0.02308
4994.73383,0.00778
4996.66230,0.01055
4998.59076,0.01091
5000.51923,-0.00237
5002.44770,-0.00513
5004.37617,0.01382
5006.30464,0.03000
5008.23311,0.02783
5010.16158,0.02178
5012.09005,0.01641
5014.01851,0.00558
5015.94698,-0.00008
5017.87545,0.00074
5019.80392,-0.00114
5021.73239,0.00016
5023.66086,-0.00065
5025.58933,-0.00691
5027.51779,-0.00209
5029.44626,0.01017
5031.37473,0.01887
5033.30320,0.02650
5035.23167,0.03500
5037.16014,0.04581
5039.08861,0.05646
5041.01708,0.05502
5042.94554,0.04595
5044.87401,0.04562
5046.80248,0.04693
5048.73095,0.03793
5050.65942,0.02142
5052.58789,0.00202
5054.51636,-0.01403
5056.44482,-0.01830
5058.37329,-0.00711
5060.30176,0.01107
5062.23023,0.02506
5064.15870,0.02936
5066.08717,0.02541
5068.01564,0.02472
5069.94410,0.02352
5071.87257,0.01423
5073.80104,0.01430
5075.72951,0.02927
5077.65798,0.03929
5079.58645,0.03105
5081.51492,0.00958
5083.44339,-0.00541
5085.37185,-0.00071
5087.30032,0.01641
5089.22879,0.03168
5091.15726,0.03899
5093.08573,0.03796
5095.01420,0.03341
5096.94267,0.03481
5098.87113,0.04279
5100.79960,0.05258
5102.72807,0.05950
5104.65654,0.05382
5106.58501,0.03503
5108.51348,0.02036
5110.44195,0.01988
5112.37042,0.01869
5114.29888,0.00752
5116.22735,-0.00523
5118.15582,-0.00996
5120.08429,-0.00425
5122.01276,-0.00087
5123.94123,0.00204
5125.86970,0.01734
5127.79816,0.03349
5129.72663,0.03402
5131.65510,0.02397
5133.58357,0.01481
5135.51204,0.00528
5137.44051,-0.00130
5139.36898,0.00629
5141.29745,0.02654
5143.22591,0.04757
5145.15438,0.05902
5147.08285,0.05918
5149.01132,0.05227
5150.93979,0.03808
5152.86826,0.02330
5154.79673,0.02737
5156.72519,0.04692
5158.65366,0.06156
5160.58213,0.06391
5162.51060,0.05342
5164.43907,0.04607
5166.36754,0.04592
5168.29601,0.03756
5170.22448,0.02699
5172.15294,0.02299
5174.08141,0.02203
5176.00988,0.02192
5177.93835,0.02117
5179.86682,0.02104
5181.79529,0.02449
5183.72376,0.03490
5185.65222,0.04545
5187.58069,0.04928
5189.50916,0.05024
5191.43763,0.04207
5193.36610,0.03797
5195.29457,0.05236
5197.22304,0.05590
5199.15151,0.03788
5201.07997,0.02996
5203.00844,0.04146
5204.93691,0.04807
5206.86538,0.03865
5208.79385,0.03883
5210.72232,0.04807
5212.65079,0.04344
5214.57925,0.03360
5216.50772,0.03297
5218.43619,0.03557
5220.36466,0.03960
5222.29313,0.05167
5224.22160,0.06376
5226.15007,0.05622
5228.07854,0.03669
5230.00700,0.02780
5231.93547,0.03115
5233.86394,0.04415
5235.79241,0.06116
5237.72088,0.06334
5239.64935,0.04561
5241.57782,0.03262
5243.50628,0.03052
5245.43475,0.02608
5247.36322,0.03173
5249.29169,0.04642
5251.22016,0.04441
5253.14863,0.03176
5255.07710,0.03109
5257.00556,0.04348
5258.93403,0.04568
5260.86250,0.03181
5262.79097,0.02828
5264.71944,0.04390
5266.64791,0.05477
5268.57638,0.05211
5270.50485,0.05487
5272.43331,0.07016
5274.36178,0.07742
5276.29025,0.07042
5278.21872,0.05776
5280.14719,0.04875
5282.07566,0.04796
5284.00413,0.04758
5285.93259,0.04617
5287.86106,0.04928
5289.78953,0.05410
5291.71800,0.05567
5293.64647,0.05712
5295.57494,0.05659
5297.50341,0.05268
5299.43188,0.05329
5301.36034,0.06058
5303.28881,0.06739
5305.21728,0.06822
5307.14575,0.06728
5309.07422,0.05764
5311.00269,0.03438
5312.93116,0.02526
5314.85962,0.04325
5316.78809,0.05632
5318.71656,0.04697
5320.64503,0.03766
5322.57350,0.03676
5324.50197,0.03927
5326.43044,0.04612
5328.35891,0.05168
5330.28737,0.05876
5332.21584,0.07768
5334.14431,0.10005
5336.07278,0.10821
5338.00125,0.09677
5339.92972,0.07529
5341.85819,0.05113
5343.78665,0.02837
5345.71512,0.02988
5347.64359,0.05337
5349.57206,0.06617
5351.50053,0.05067
5353.42900,0.02861
5355.35747,0.03403
5357.28594,0.04882
5359.21440,0.06273
5361.14287,0.07927
5363.07134,0.08501
5364.99981,0.07912
5366.92828,0.06522
5368.85675,0.05557
5370.78522,0.06021
5372.71368,0.06377
5374.64215,0.06483
5376.57062,0.07170
5378.49909,0.07294
5380.42756,0.06541
5382.35603,0.04941
5384.28450,0.02857
5386.21297,0.02771
5388.14143,0.04696
5390.06990,0.05915
5391.99837,0.06166
5393.92684,0.06820
5395.85531,0.08599
5397.78378,0.09686
5399.71225,0.09322
5401.64071,0.08626
5403.56918,0.06644
5405.49765,0.03667
5407.42612,0.03339
5409.35459,0.06154
5411.28306,0.08174
5413.21153,0.07569
5415.13999,0.06064
5417.06846,0.05011
5418.99693,0.05237
5420.92540,0.06228
5422.85387,0.07115
5424.78234,0.08311
5426.71081,0.09028
5428.63928,0.09318
5430.56774,0.11326
5432.49621,0.13422
5434.42468,0.12836
5436.35315,0.10713
5438.28162,0.08876
5440.21009,0.07661
5442.13856,0.07017
5444.06702,0.07035
5445.99549,0.08713
5447.92396,0.09935
5449.85243,0.07856
5451.78090,0.04844
5453.70937,0.03873
5455.63784,0.04576
5457.56631,0.04478
5459.49477,0.03582
5461.42324,0.04522
5463.35171,0.06384
5465.28018,0.07318
5467.20865,0.07575
5469.13712,0.06361
5471.06559,0.05336
5472.99405,0.06329
5474.92252,0.07165
5476.85099,0.06869
5478.77946,0.06384
5480.70793,0.06693
5482.63640,0.07377
5484.56487,0.07042
5486.49334,0.06200
5488.42180,0.05388
5490.35027,0.04760
5492.27874,0.03728
5494.20721,0.03035
5496.13568,0.04238
5498.06415,0.04956
5499.99262,0.04307
5501.92108,0.04947
5503.84955,0.07020
5505.77802,0.09042
5507.70649,0.10039
5509.63496,0.08893
5511.56343,0.07915
5513.49190,0.10597
5515.42037,0.13592
5517.34883,0.12192
5519.27730,0.09416
5521.20577,0.09097
5523.13424,0.09196
5525.06271,0.07578
5526.99118,0.07550
5528.91965,0.10692
5530.84811,0.11424
5532.77658,0.08548
5534.70505,0.07531
5536.63352,0.08221
5538.56199,0.07053
5540.49046,0.05593
5542.41893,0.06263
5544.34740,0.07594
5546.27586,0.07752
5548.20433,0.06664
5550.13280,0.06022
5552.06127,0.06470
5553.98974,0.07190
5555.91821,0.08806
5557.84668,0.09933
5559.77514,0.09095
5561.70361,0.09134
5563.63208,0.10670
5565.56055,0.10783
5567.48902,0.08887
5569.41749,0.06523
5571.34596,0.05670
5573.27443,0.06910
5575.20289,0.07237
5577.13136,0.05464
5579.05983,0.04489
5580.98830,0.06430
5582.91677,0.08524
5584.84524,0.06911
5586.77371,0.03705
5588.70217,0.03221
5590.63064,0.06016
5592.55911,0.09166
5594.48758,0.10108
5596.41605,0.07788
5598.34452,0.04459
5600.27299,0.04532
5602.20145,0.06846
5604.12992,0.07578
5606.05839,0.07187
5607.98686,0.07397
5609.91533,0.09104
5611.84380,0.11601
5613.77227,0.11627
5615.70074,0.09438
5617.62920,0.09260
5619.55767,0.10474
5621.48614,0.09091
5623.41461,0.06638
5625.34308,0.06680
5627.27155,0.07501
5629.20002,0.07338
5631.12848,0.07700
5633.05695,0.08711
5634.98542,0.09039
5636.91389,0.08377
5638.84236,0.07633
5640.77083,0.06753
5642.69930,0.06767
5644.62777,0.08435
5646.55623,0.09778
5648.48470,0.11373
5650.41317,0.14376
5652.34164,0.16079
5654.27011,0.13937
5656.19858,0.09052
5658.12705,0.05546
5660.05551,0.05103
5661.98398,0.05606
5663.91245,0.05553
5665.84092,0.05375
5667.76939,0.06244
5669.69786,0.07486
5671.62633,0.07277
5673.55480,0.07705
5675.48326,0.10578
5677.41173,0.11516
5679.34020,0.08642
5681.26867,0.06725
5683.19714,0.07669
5685.12561,0.08494
5687.05408,0.07465
5688.98254,0.06660
5690.91101,0.06703
5692.83948,0.04985
5694.76795,0.02398
5696.69642,0.01989
5698.62489,0.03977
5700.55336,0.06214
5702.48183,0.06821
5704.41029,0.06186
5706.33876,0.04674
5708.26723,0.02069
5710.19570,0.00900
5712.12417,0.03727
5714.05264,0.07933
5715.98111,0.09991
5717.90957,0.10365
5719.83804,0.09690
5721.76651,0.08188
5723.69498,0.06994
5725.62345,0.06361
5727.55192,0.05448
5729.48039,0.04621
5731.40886,0.05634
5733.33732,0.08347
5735.26579,0.10196
5737.19426,0.08656
5739.12273,0.05057
5741.05120,0.03383
5742.97967,0.03921
5744.90814,0.04601
5746.83660,0.04376
5748.76507,0.03126
5750.69354,0.04299
5752.62201,0.08482
5754.55048,0.09773
5756.47895,0.07362
5758.40742,0.05779
5760.33588,0.07541
5762.26435,0.10468
5764.19282,0.09676
5766.12129,0.05936
5768.04976,0.04929
5769.97823,0.07473
5771.90670,0.10719
5773.83517,0.13530
5775.76363,0.14576
5777.69210,0.12715
5779.62057,0.09733
5781.54904,0.07868
5783.47751,0.06949
5785.40598,0.06723
5787.33445,0.08184
5789.26291,0.09549
5791.19138,0.09217
5793.11985,0.07918
5795.04832,0.06347
5796.97679,0.06776
5798.90526,0.07674
5800.83373,0.05756
5802.76220,0.03469
5804.69066,0.04130
5806.61913,0.06826
5808.54760,0.08714
5810.47607,0.08635
5812.40454,0.06604
5814.33301,0.04876
5816.26148,0.05477
5818.18994,0.07119
5820.11841,0.08960
5822.04688,0.09904
5823.97535,0.09162
5825.90382,0.07883
5827.83229,0.06629
5829.76076,0.07746
5831.68923,0.11614
5833.61769,0.12230
5835.54616,0.06799
5837.47463,0.01407
5839.40310,0.01769
5841.33157,0.06220
5843.26004,0.09581
5845.18851,0.10147
5847.11697,0.09886
5849.04544,0.10582
5850.97391,0.10539
5852.90238,0.10466
5854.83085,0.13279
5856.75932,0.15706
5858.68779,0.15150
5860.61626,0.13974
5862.54472,0.12582
5864.47319,0.10131
5866.40166,0.08631
5868.33013,0.08023
5870.25860,0.05646
5872.18707,0.04281
5874.11554,0.05108
5876.04400,0.04496
5877.97247,0.04134
5879.90094,0.06043
5881.82941,0.05339
5883.75788,0.01372
5885.68635,0.00404
5887.61482,0.01302
5889.54329,-0.00478
5891.47175,-0.00003
5893.40022,0.04450
5895.32869,0.06026
5897.25716,0.03951
5899.18563,0.06277
5901.11410,0.13918
5903.04257,0.15677
5904.97103,0.10945
5906.89950,0.09251
5908.82797,0.09479
5910.75644,0.10631
5912.68491,0.13882
5914.61338,0.14236
5916.54185,0.12589
5918.47032,0.12508
5920.39878,0.12275
5922.32725,0.11528
5924.25572,0.12384
5926.18419,0.14784
5928.11266,0.16274
5930.04113,0.16461
5931.96960,0.15107
5933.89806,0.11184
5935.82653,0.08481
5937.75500,0.09595
5939.68347,0.10765
5941.61194,0.09796
5943.54041,0.07493
5945.46888,0.05008
5947.39734,0.04920
5949.32581,0.09662
5951.25428,0.15200
5953.18275,0.13338
5955.11122,0.04954
5957.03969,-0.00655
5958.96816,0.02331
5960.89663,0.10078
5962.82509,0.13661
5964.75356,0.11971
5966.68203,0.10562
5968.61050,0.10211
5970.53897,0.08052
5972.46744,0.04761
5974.39591,0.02708
5976.32437,0.04243
5978.25284,0.08105
5980.18131,0.10238
5982.10978,0.09899
5984.03825,0.09079
5985.96672,0.08690
5987.89519,0.08555
5989.82366,0.09185
5991.75212,0.08516
5993.68059,0.06018
5995.60906,0.06124
5997.53753,0.07201
5999.46600,0.06309
6001.39447,0.06257
6003.32294,0.07505
6005.25140,0.08577
6007.17987,0.09550
6009.10834,0.10383
6011.03681,0.11109
6012.96528,0.13143
6014.89375,0.15432
6016.82222,0.13999
6018.75069,0.10835
6020.67915,0.11619
6022.60762,0.13035
6024.53609,0.11688
6026.46456,0.12228
6028.39303,0.15645
6030.32150,0.16016
6032.24997,0.13291
6034.17843,0.12763
6036.10690,0.12370
6038.03537,0.09312
6039.96384,0.09229
6041.89231,0.10036
6043.82078,0.05687
6045.74925,0.00440
6047.67772,-0.00922
6049.60618,0.02385
6051.53465,0.07761
6053.46312,0.12256
6055.39159,0.14810
6057.32006,0.13512
6059.24853,0.09624
6061.17700,0.06620
6063.10546,0.06592
6065.03393,0.08993
6066.96240,0.10048
6068.89087,0.09230
6070.81934,0.09853
6072.74781,0.10318
6074.67628,0.09200
6076.60475,0.11612
6078.53321,0.15561
6080.46168,0.13793
6082.39015,0.09477
6084.31862,0.08456
6086.24709,0.08213
6088.17556,0.07245
6090.10403,0.08018
6092.03249,0.08680
6093.96096,0.10112
6095.88943,0.13656
6097.81790,0.12328
6099.74637,0.04572
6101.67484,0.00155
6103.60331,0.03700
6105.53177,0.09379
6107.46024,0.11201
6109.38871,0.09622
6111.31718,0.08986
6113.24565,0.10005
6115.17412,0.12397
6117.10259,0.15762
6119.03106,0.15279
6120.95952,0.10193
6122.88799,0.07527
6124.81646,0.08569
6126.74493,0.08312
6128.67340,0.06098
6130.60187,0.04648
6132.53034,0.05594
6134.45880,0.09862
6136.38727,0.12992
6138.31574,0.11547
6140.24421,0.10351
6142.17268,0.12696
6144.10115,0.15083
6146.02962,0.14657
6147.95809,0.11640
6149.88655,0.06808
6151.81502,-0.00118
6153.74349,-0.06532
6155.67196,-0.04313
6157.60043,0.05529
6159.52890,0.12636
6161.45737,0.14241
6163.38583,0.13903
6165.31430,0.12493
6167.24277,0.10828
6169.17124,0.11176
6171.09971,0.13721
6173.02818,0.16298
6174.95665,0.17587
6176.88512,0.14991
6178.81358,0.11971
6180.74205,0.14464
6182.67052,0.16290
6184.59899,0.13816
6186.52746,0.08813
6188.45593,0.00735
6190.38440,-0.03132
6192.31286,0.02141
6194.24133,0.08071
6196.16980,0.04703
6198.09827,-0.04198
6200.02674,-0.04692
6201.95521,0.03177
6203.88368,0.05248
6205.81215,0.00631
6207.74061,-0.00095
6209.66908,0.00803
6211.59755,-0.00304
6213.52602,0.00156
6215.45449,0.02899
6217.38296,0.07612
6219.31143,0.11090
6221.23989,0.09580
6223.16836,0.03991
6225.09683,-0.00097
6227.02530,0.01721
6228.95377,0.06130
6230.88224,0.08163
6232.81071,0.07050
6234.73918,0.07102
6236.66764,0.10466
6238.59611,0.12831
6240.52458,0.12528
6242.45305,0.12404
6244.38152,0.10381
6246.30999,0.06536
6248.23846,0.08520
6250.16692,0.13206
6252.09539,0.12759
6254.02386,0.10679
6255.95233,0.09285
6257.88080,0.08438
6259.80927,0.08954
6261.73774,0.08886
6263.66621,0.06488
6265.59467,0.05256
6267.52314,0.05933
6269.45161,0.02479
6271.38008,-0.02300
6273.30855,-0.02087
6275.23702,0.02698
6277.16549,0.09844
6279.09395,0.16322
6281.02242,0.17357
6282.95089,0.12479
6284.87936,0.06774
6286.80783,0.04781
6288.73630,0.06556
6290.66477,0.09709
6292.59323,0.11924
6294.52170,0.13666
6296.45017,0.15320
6298.37864,0.14222
6300.30711,0.09505
6302.23558,0.05837
6304.16405,0.07622
6306.09252,0.09005
6308.02098,0.04069
6309.94945,-0.01349
6311.87792,-0.02208
6313.80639,0.00516
6315.73486,0.04981
6317.66333,0.10328
6319.59180,0.18814
6321.52026,0.24791
6323.44873,0.16990
6325.37720,0.04169
6327.30567,0.03399
6329.23414,0.11789
6331.16261,0.14435
6333.09108,0.10060
6335.01955,0.06879
6336.94801,0.07963
6338.87648,0.10274
6340.80495,0.09257
6342.73342,0.06872
6344.66189,0.06818
6346.59036,0.06367
6348.51883,0.07226
6350.44729,0.11099
6352.37576,0.13541
6354.30423,0.13799
6356.23270,0.12034
6358.16117,0.12180
6360.08964,0.16025
6362.01811,0.17535
6363.94658,0.15973
6365.87504,0.15174
6367.80351,0.16439
6369.73198,0.16955
6371.66045,0.11703
6373.58892,0.03640
6375.51739,0.01718
6377.44586,0.04784
6379.37432,0.08334
6381.30279,0.09954
6383.23126,0.08549
6385.15973,0.07639
6387.08820,0.06117
6389.01667,0.01708
6390.94514,0.00738
6392.87361,0.05810
6394.80207,0.06013
6396.73054,0.00695
6398.65901,-0.00389
6400.58748,0.02621
6402.51595,0.06033
6404.44442,0.10001
6406.37289,0.15821
6408.30135,0.17449
6410.22982,0.07506
6412.15829,-0.03079
6414.08676,-0.02182
6416.01523,0.04478
6417.94370,0.10355
6419.87217,0.15616
6421.80064,0.21060
6423.72910,0.24572
6425.65757,0.23488
6427.58604,0.20509
6429.51451,0.17414
6431.44298,0.11867
6433.37145,0.08364
6435.29992,0.10083
6437.22838,0.12998
6439.15685,0.13488
6441.08532,0.11527
6443.01379,0.06219
6444.94226,-0.00289
6446.87073,0.01209
6448.79920,0.10210
6450.72766,0.17624
6452.65613,0.18947
6454.58460,0.13030
6456.51307,0.05363
6458.44154,0.05379
6460.37001,0.09083
6462.29848,0.06945
6464.22695,0.01066
6466.15541,0.00721
6468.08388,0.05384
6470.01235,0.04454
6471.94082,-0.03548
6473.86929,-0.06811
6475.79776,-0.00405
6477.72623,0.09508
6479.65469,0.15593
6481.58316,0.14838
6483.51163,0.13547
6485.44010,0.15149
6487.36857,0.13449
6489.29704,0.07270
6491.22551,0.04248
6493.15398,0.09498
6495.08244,0.12071
6497.01091,0.06920
6498.93938,0.03144
6500.86785,0.00316
6502.79632,-0.02537
6504.72479,0.02357
6506.65326,0.12682
6508.58172,0.16495
6510.51019,0.12241
6512.43866,0.10569
6514.36713,0.11031
6516.29560,0.10035
6518.22407,0.10798
6520.15254,0.08046
6522.08101,0.00423
6524.00947,-0.01832
6525.93794,0.01590
6527.86641,0.01857
6529.79488,0.02813
6531.72335,0.06646
6533.65182,0.06409
6535.58029,0.04004
6537.50875,0.04825
6539.43722,0.07673
6541.36569,0.09215
6543.29416,0.07539
6545.22263,0.05055
6547.15110,0.03261
6549.07957,0.03139
6551.00804,0.07329
6552.93650,0.13577
6554.86497,0.14743
6556.79344,0.08546
6558.72191,0.01472
6560.65038,-0.03971
6562.57885,-0.04656
6564.50732,0.06769
6566.43578,0.21453
6568.36425,0.26900
6570.29272,0.27490
6572.22119,0.24631
6574.14966,0.14233
6576.07813,0.01658
6578.00660,-0.04342
6579.93507,0.00912
6581.86353,0.12410
6583.79200,0.21563
6585.72047,0.27471
6587.64894,0.26062
6589.57741,0.17049
6591.50588,0.10705
6593.43435,0.10232
6595.36281,0.09795
6597.29128,0.07448
6599.21975,0.07251
6601.14822,0.07303
6603.07669,0.06328
6605.00516,0.07458
6606.93363,0.08809
6608.86210,0.11716
6610.79056,0.15101
6612.71903,0.13813
6614.64750,0.12364
6616.57597,0.12590
6618.50444,0.09374
6620.43291,0.02401
6622.36138,-0.03418
6624.28984,0.00256
6626.21831,0.11383
6628.14678,0.17705
6630.07525,0.14919
6632.00372,0.11431
6633.93219,0.11251
6635.86066,0.11067
6637.78912,0.10544
6639.71759,0.12764
6641.64606,0.15458
6643.57453,0.10694
6645.50300,-0.02012
6647.43147,-0.11008
6649.35994,-0.08884
6651.28841,-0.03662
6653.21687,-0.07642
6655.14534,-0.15815
6657.07381,-0.14341
6659.00228,-0.09356
6660.93075,-0.05950
6662.85922,0.01417
6664.78769,0.09416
6666.71615,0.14245
6668.64462,0.15876
6670.57309,0.14934
6672.50156,0.15217
6674.43003,0.17509
6676.35850,0.14465
6678.28697,0.08376
6680.21544,0.10035
6682.14390,0.15816
6684.07237,0.10437
6686.00084,-0.03496
6687.92931,-0.06086
6689.85778,0.01674
6691.78625,0.02124
6693.71472,-0.03567
6695.64318,-0.01629
6697.57165,0.12530
6699.50012,0.20388
6701.42859,0.15427
6703.35706,0.08745
6705.28553,0.04194
6707.21400,0.04028
6709.14247,0.10688
6711.07093,0.19287
6712.99940,0.21766
6714.92787,0.16420
6716.85634,0.10811
6718.78481,0.10528
6720.71328,0.11365
6722.64175,0.08161
6724.57021,0.03566
6726.49868,0.01101
6728.42715,0.00197
6730.35562,0.00888
6732.28409,0.03200
6734.21256,0.03763
6736.14103,0.02834
6738.06950,0.06219
6739.99796,0.12333
6741.92643,0.11149
6743.85490,0.04851
6745.78337,0.04471
6747.71184,0.07616
6749.64031,0.10149
6751.56878,0.13018
6753.49724,0.14208
6755.42571,0.13503
6757.35418,0.09360
6759.28265,0.00531
6761.21112,-0.02496
6763.13959,0.06605
6765.06806,0.15349
6766.99653,0.12535
6768.92499,0.04432
6770.85346,0.02661
6772.78193,0.06506
6774.71040,0.09477
6776.63887,0.09168
6778.56734,0.09286
6780.49581,0.14539
6782.42427,0.20850
6784.35274,0.19846
6786.28121,0.10186
6788.20968,-0.02308
6790.13815,-0.08746
6792.06662,-0.04931
6793.99509,0.03091
6795.92355,0.09866
6797.85202,0.09324
6799.78049,0.01047
6801.70896,-0.01753
6803.63743,0.04285
6805.56590,0.00112
6807.49437,-0.14734
6809.42284,-0.25527
6811.35130,-0.26706
6813.27977,-0.20134
6815.20824,-0.11595
6817.13671,-0.03462
6819.06518,0.00524
6820.99365,-0.02224
6822.92212,-0.04086
6824.85058,0.01134
6826.77905,0.05150
6828.70752,0.08404
6830.63599,0.14664
6832.56446,0.13964
6834.49293,0.06925
6836.42140,0.04899
6838.34987,0.09468
6840.27833,0.14144
6842.20680,0.15168
6844.13527,0.14992
6846.06374,0.14460
6847.99221,0.11196
6849.92068,0.09594
6851.84915,0.10745
6853.77761,0.08863
6855.70608,0.02989
6857.63455,-0.03552
6859.56302,-0.04602
6861.49149,0.02958
6863.41996,0.10777
6865.34843,0.10219
6867.27690,0.03107
6869.20536,0.00059
6871.13383,0.03004
6873.06230,0.02481
6874.99077,0.02716
6876.91924,0.10313
6878.84771,0.13137
6880.77618,0.04485
6882.70464,0.00269
6884.63311,0.06463
6886.56158,0.10832
6888.49005,0.05198
6890.41852,-0.00660
6892.34699,0.05981
6894.27546,0.16651
6896.20393,0.13505
6898.13239,0.00115
6900.06086,-0.00989
6901.98933,0.11505
6903.91780,0.23553
6905.84627,0.18884
6907.77474,0.00879
6909.70321,-0.08235
6911.63167,-0.08783
6913.56014,-0.09358
6915.48861,-0.08830
6917.41708,-0.06847
6919.34555,0.03978
6921.27402,0.20450
6923.20249,0.27084
6925.13096,0.23667
6927.05942,0.15892
6928.98789,0.06381
6930.91636,-0.01154
6932.84483,-0.00920
6934.77330,0.01677
6936.70177,-0.00046
6938.63024,-0.03028
6940.55870,-0.03834
6942.48717,-0.01935
6944.41564,0.01816
6946.34411,0.07331
6948.27258,0.11490
6950.20105,0.09236
6952.12952,0.07788
6954.05799,0.13966
6955.98645,0.14799
6957.91492,0.08408
6959.84339,0.08949
6961.77186,0.13086
6963.70033,0.13236
6965.62880,0.09254
6967.55727,0.04012
6969.48573,0.05737
6971.41420,0.13716
6973.34267,0.20847
6975.27114,0.24116
6977.19961,0.12344
6979.12808,-0.11715
6981.05655,-0.21420
6982.98501,-0.05433
6984.91348,0.12316
6986.84195,0.12653
6988.77042,0.03110
6990.69889,0.02155
6992.62736,0.11853
6994.55583,0.18745
6996.48430,0.22040
6998.41276,0.28760
7000.34123,0.30824
7002.26970,0.23269
7004.19817,0.13535
7006.12664,0.07176
7008.05511,0.04207
7009.98358,0.00598
7011.91204,-0.00524
7013.84051,0.06875
7015.76898,0.18043
7017.69745,0.23612
7019.62592,0.19822
7021.55439,0.12207
7023.48286,0.11005
7025.41133,0.14220
7027.33979,0.05201
7029.26826,-0.09234
7031.19673,-0.03578
7033.12520,0.11050
7035.05367,0.17299
7036.98214,0.19022
7038.91061,0.17363
7040.83907,0.06772
7042.76754,-0.06429
7044.69601,-0.10971
7046.62448,-0.08702
7048.55295,-0.04854
7050.48142,-0.05037
7052.40989,-0.07477
7054.33836,-0.02447
7056.26682,0.09941
7058.19529,0.12144
7060.12376,0.01015
7062.05223,-0.06678
7063.98070,-0.03618
7065.90917,0.01888
7067.83764,-0.01224
7069.76610,-0.03900
7071.69457,0.06416
7073.62304,0.12015
7075.55151,0.07709
7077.47998,0.03600
7079.40845,-0.03878
7081.33692,-0.11216
7083.26539,-0.03168
7085.19385,0.05983
7087.12232,-0.01558
7089.05079,-0.12377
7090.97926,-0.06768
7092.90773,0.02540
7094.83620,0.01863
7096.76467,-0.01797
7098.69313,-0.02277
7100.62160,-0.00691
7102.55007,0.01415
7104.47854,0.03982
7106.40701,0.05262
7108.33548,0.02919
7110.26395,0.01816
7112.19242,0.01139
7114.12088,-0.01276
7116.04935,0.03465
7117.97782,0.17546
7119.90629,0.26788
7121.83476,0.26306
7123.76323,0.19826
7125.69170,0.12026
7127.62016,0.07142
7129.54863,0.00257
7131.47710,-0.09338
7133.40557,-0.10177
7135.33404,-0.03396
7137.26251,-0.00249
7139.19098,0.01409
7141.11944,0.05887
7143.04791,0.08083
7144.97638,0.05948
7146.90485,0.00082
7148.83332,-0.06646
7150.76179,-0.05359
7152.69026,0.06356
7154.61873,0.09772
7156.54719,-0.07028
7158.47566,-0.24160
7160.40413,-0.24430
7162.33260,-0.09951
7164.26107,0.05994
7166.18954,0.12544
7168.11801,0.03999
7170.04647,-0.09991
7171.97494,-0.11757
7173.90341,-0.06953
7175.83188,-0.05662
7177.76035,0.03422
7179.68882,0.28237
7181.61729,0.57303
7183.54576,0.66537
7185.47422,0.41712
7187.40269,0.13980
7189.33116,0.10137
7191.25963,0.13785
7193.18810,0.04185
7195.11657,-0.02778
7197.04504,0.03096
7198.97350,0.08457
7200.90197,0.08335
7202.83044,0.17324
7204.75891,0.33154
7206.68738,0.32082
7208.61585,0.22495
7210.54432,0.19869
7212.47279,0.28225
7214.40125,0.34780
7216.32972,0.22461
7218.25819,0.00435
7220.18666,-0.06305
7222.11513,-0.04596
7224.04360,-0.05462
7225.97207,-0.07205
7227.90053,-0.02515
7229.82900,0.09508
7231.75747,0.16843
7233.68594,0.13302
7235.61441,0.11237
7237.54288,0.13402
7239.47135,0.10490
7241.39982,0.04611
7243.32828,0.07485
7245.25675,0.13899
7247.18522,0.19707
7249.11369,0.27972
7251.04216,0.30353
7252.97063,0.19156
7254.89910,0.06783
7256.82756,-0.02430
7258.75603,-0.11149
7260.68450,-0.06400
7262.61297,0.06190
7264.54144,0.01750
7266.46991,-0.06375
7268.39838,0.00455
7270.32685,0.13081
7272.25531,0.12165
7274.18378,0.04157
7276.11225,0.07893
7278.04072,0.14843
7279.96919,0.11922
7281.89766,0.13162
7283.82613,0.24084
7285.75459,0.28327
7287.68306,0.19996
7289.61153,0.00922
7291.54000,-0.18695
7293.46847,-0.26524
7295.39694,-0.20611
7297.32541,-0.00364
7299.25387,0.16069
7301.18234,0.11798
7303.11081,-0.03676
7305.03928,-0.16095
7306.96775,-0.23317
7308.89622,-0.22190
7310.82469,-0.05843
7312.75316,0.17890
7314.68162,0.31116
7316.61009,0.22345
7318.53856,0.13179
7320.46703,0.25251
7322.39550,0.38285
7324.32397,0.30332
7326.25244,0.15804
7328.18090,0.07477
7330.10937,0.00264
7332.03784,-0.02845
7333.96631,-0.01835
7335.89478,-0.08612
7337.82325,-0.19391
7339.75172,-0.06426
7341.68019,0.22981
7343.60865,0.26414
7345.53712,0.16502
7347.46559,0.08828
7349.39406,0.12190
7351.32253,0.26762
7353.25100,0.25889
7355.17947,0.03659
7357.10793,-0.08506
7359.03640,0.03156
7360.96487,0.12604
7362.89334,0.10409
7364.82181,0.08374
7366.75028,0.13298
7368.67875,0.13270
7370.60722,0.04320
7372.53568,-0.00857
7374.46415,-0.06588
7376.39262,-0.14599
7378.32109,-0.05129
7380.24956,0.14696
7382.17803,0.32325
7384.10650,0.45389
7386.03496,0.37466
7387.96343,0.09358
7389.89190,0.08626
7391.82037,0.32326
7393.74884,0.36941
7395.67731,0.21911
7397.60578,0.08353
7399.53425,-0.03686
7401.46271,-0.14523
7403.39118,-0.19919
7405.31965,-0.10064
7407.24812,-0.02211
7409.17659,-0.08798
7411.10506,-0.12049
7413.03353,-0.12903
7414.96199,-0.17986
7416.89046,-0.21960
7418.81893,-0.22144
7420.74740,-0.19215
7422.67587,-0.23619
7424.60434,-0.31635
7426.53281,-0.29190
7428.46128,-0.14868
7430.38974,-0.00989
7432.31821,0.06790
7434.24668,0.22891
7436.17515,0.36089
7438.10362,0.26054
7440.03209,0.07024
7441.96056,0.01637
7443.88902,0.04711
7445.81749,-0.01568
7447.74596,-0.17683
7449.67443,-0.20728
7451.60290,0.05657
7453.53137,0.28258
7455.45984,0.28049
7457.38831,0.28264
7459.31677,0.31266
7461.24524,0.11527
7463.17371,-0.11056
7465.10218,-0.07881
7467.03065,-0.01882
7468.95912,-0.03345
7470.88759,0.01659
7472.81605,0.03767
7474.74452,-0.01546
7476.67299,0.05797
7478.60146,0.36261
7480.52993,0.60633
7482.45840,0.53273
7484.38687,0.32198
7486.31533,0.07018
7488.24380,-0.15160
7490.17227,-0.17727
7492.10074,-0.08380
7494.02921,-0.00098
7495.95768,0.12687
7497.88615,0.28166
