399.19301,-0.77637
401.12148,-0.20965
403.04995,0.27695
404.97842,0.44867
406.90689,0.43246
408.83536,0.35107
410.76382,0.21440
412.69229,0.01919
414.62076,-0.11084
416.54923,-0.13754
418.47770,-0.05997
420.40617,0.08329
422.33464,0.16597
424.26311,0.16603
426.19157,0.08852
428.12004,0.02325
430.04851,0.02280
431.97698,0.05190
433.90545,0.04509
435.83392,0.01104
437.76239,-0.02545
439.69085,-0.01930
441.61932,0.04958
443.54779,0.09402
445.47626,0.09567
447.40473,0.12594
449.33320,0.15403
451.26167,0.10700
453.19013,-0.00459
455.11860,-0.10703
457.04707,-0.09002
458.97554,0.08432
460.90401,0.24039
462.83248,0.27409
464.76095,0.20101
466.68942,0.10443
468.61788,0.07483
470.54635,0.11527
472.47482,0.18787
474.40329,0.23651
476.33176,0.18762
478.26023,0.09631
480.18870,0.03488
482.11716,0.02746
484.04563,0.05123
485.97410,0.06306
487.90257,0.06903
489.83104,0.09524
491.75951,0.12769
493.68798,0.15486
495.61645,0.17294
497.54491,0.17145
499.47338,0.13938
501.40185,0.08612
503.33032,0.04693
505.25879,0.04388
507.18726,0.06982
509.11573,0.09699
511.04419,0.09940
512.97266,0.08679
514.90113,0.09175
516.82960,0.10611
518.75807,0.11066
520.68654,0.12493
522.61501,0.14257
524.54348,0.14419
526.47194,0.13973
528.40041,0.12801
530.32888,0.10319
532.25735,0.09680
534.18582,0.11627
536.11429,0.13936
538.04276,0.15662
539.97122,0.16417
541.89969,0.16144
543.82816,0.16051
545.75663,0.16223
547.68510,0.14357
549.61357,0.06560
551.54204,-0.16061
553.47051,-0.39813
555.39897,-0.32748
557.32744,-0.05583
559.25591,0.08269
561.18438,0.10013
563.11285,0.11982
565.04132,0.15257
566.96979,0.16830
568.89825,0.15621
570.82672,0.12658
572.75519,0.08952
574.68366,0.07799
576.61213,0.09716
578.54060,0.11432
580.46907,0.12513
582.39754,0.13008
584.32600,0.11838
586.25447,0.10306
588.18294,0.11486
590.11141,0.15601
592.03988,0.18012
593.96835,0.15429
595.89682,0.12644
597.82528,0.12712
599.75375,0.12955
601.68222,0.12802
603.61069,0.13010
605.53916,0.13395
607.46763,0.14310
609.39610,0.14669
611.32456,0.13651
613.25303,0.12934
615.18150,0.12899
617.10997,0.11355
619.03844,0.08678
620.96691,0.07993
622.89538,0.09139
624.82385,0.09790
626.75231,0.10617
628.68078,0.13310
630.60925,0.15694
632.53772,0.15495
634.46619,0.14060
636.39466,0.12864
638.32313,0.12829
640.25159,0.12916
642.18006,0.11243
644.10853,0.10205
646.03700,0.11634
647.96547,0.12875
649.89394,0.11447
651.82241,0.09232
653.75088,0.08902
655.67934,0.09605
657.60781,0.11040
659.53628,0.13841
661.46475,0.14871
663.39322,0.13091
665.32169,0.11760
667.25016,0.13052
669.17862,0.15354
671.10709,0.14477
673.03556,0.12171
674.96403,0.10681
676.89250,0.11635
678.82097,0.14348
680.74944,0.16346
682.67791,0.15670
684.60637,0.13414
686.53484,0.13009
688.46331,0.14182
690.39178,0.14090
692.32025,0.12940
694.24872,0.11630
696.17719,0.10195
698.10565,0.09968
700.03412,0.11101
701.96259,0.11980
703.89106,0.12605
705.81953,0.13890
707.74800,0.15634
709.67647,0.17270
711.60494,0.18148
713.53340,0.17006
715.46187,0.15157
717.39034,0.14651
719.31881,0.14059
721.24728,0.12759
723.17575,0.12574
725.10422,0.14042
727.03268,0.15641
728.96115,0.15702
730.88962,0.14455
732.81809,0.13622
734.74656,0.13616
736.67503,0.13309
738.60350,0.12483
740.53197,0.12459
742.46043,0.14067
744.38890,0.15044
746.31737,0.14022
748.24584,0.13657
750.17431,0.14891
752.10278,0.15401
754.03125,0.14509
755.95971,0.13984
757.88818,0.13797
759.81665,0.12959
761.74512,0.12680
763.67359,0.13012
765.60206,0.13322
767.53053,0.14404
769.45900,0.15124
771.38746,0.14475
773.31593,0.14177
775.24440,0.14915
777.17287,0.15117
779.10134,0.14621
781.02981,0.14820
782.95828,0.15227
784.88674,0.15013
786.81521,0.14491
788.74368,0.13772
790.67215,0.13389
792.60062,0.13879
794.52909,0.14341
796.45756,0.14077
798.38602,0.13527
800.31449,0.13160
802.24296,0.13835
804.17143,0.14878
806.09990,0.14776
808.02837,0.14220
809.95684,0.14370
811.88531,0.14932
813.81377,0.14908
815.74224,0.13889
817.67071,0.12786
819.59918,0.12259
821.52765,0.11996
823.45612,0.12644
825.38459,0.14055
827.31305,0.14688
829.24152,0.13833
831.16999,0.11814
833.09846,0.10880
835.02693,0.12400
836.95540,0.14412
838.88387,0.14899
840.81234,0.13849
842.74080,0.12926
844.66927,0.13634
846.59774,0.14795
848.52621,0.14677
850.45468,0.14290
852.38315,0.14253
854.31162,0.14365
856.24008,0.15391
858.16855,0.16384
860.09702,0.16176
862.02549,0.15266
863.95396,0.14252
865.88243,0.14051
867.81090,0.15057
869.73937,0.15768
871.66783,0.15170
873.59630,0.14494
875.52477,0.14341
877.45324,0.13862
879.38171,0.13381
881.31018,0.13499
883.23865,0.13886
885.16711,0.14614
887.09558,0.15124
889.02405,0.14538
890.95252,0.14062
892.88099,0.14749
894.80946,0.15493
896.73793,0.15437
898.66640,0.15136
900.59486,0.15154
902.52333,0.15345
904.45180,0.15303
906.38027,0.14991
908.30874,0.14879
910.23721,0.15312
912.16568,0.15865
914.09414,0.16183
916.02261,0.16320
917.95108,0.16249
919.87955,0.16162
921.80802,0.15885
923.73649,0.15436
925.66496,0.15397
927.59343,0.15530
929.52189,0.15452
931.45036,0.15136
933.37883,0.14859
935.30730,0.14880
937.23577,0.14705
939.16424,0.14262
941.09271,0.14126
943.02117,0.14576
944.94964,0.15428
946.87811,0.15686
948.80658,0.14815
950.73505,0.14283
952.66352,0.14925
954.59199,0.15654
956.52045,0.15907
958.44892,0.15787
960.37739,0.15171
962.30586,0.14467
964.23433,0.14320
966.16280,0.14246
968.09127,0.13815
970.01974,0.13590
971.94820,0.13698
973.87667,0.14065
975.80514,0.14624
977.73361,0.14995
979.66208,0.14680
981.59055,0.13912
983.51902,0.13794
985.44748,0.14524
987.37595,0.15232
989.30442,0.15407
991.23289,0.15779
993.16136,0.16545
995.08983,0.16283
997.01830,0.15039
998.94677,0.14602
1000.87523,0.15359
1002.80370,0.16131
1004.73217,0.15891
1006.66064,0.14937
1008.58911,0.14253
1010.51758,0.14081
1012.44605,0.14678
1014.37451,0.15958
1016.30298,0.16390
1018.23145,0.15618
1020.15992,0.15098
1022.08839,0.15263
1024.01686,0.15336
1025.94533,0.13503
1027.87380,0.10014
1029.80226,0.09638
1031.73073,0.12958
1033.65920,0.15245
1035.58767,0.15719
1037.51614,0.15956
1039.44461,0.15993
1041.37308,0.15675
1043.30154,0.15115
1045.23001,0.14900
1047.15848,0.15377
1049.08695,0.15568
1051.01542,0.15329
1052.94389,0.15573
1054.87236,0.15829
1056.80083,0.15349
1058.72929,0.14999
1060.65776,0.15664
1062.58623,0.16626
1064.51470,0.17169
1066.44317,0.16964
1068.37164,0.15999
1070.30011,0.15557
1072.22857,0.15971
1074.15704,0.16115
1076.08551,0.16002
1078.01398,0.15983
1079.94245,0.15751
1081.87092,0.15233
1083.79939,0.14841
1085.72786,0.15035
1087.65632,0.15435
1089.58479,0.15710
1091.51326,0.16007
1093.44173,0.16202
1095.37020,0.16186
1097.29867,0.16057
1099.22714,0.16180
1101.15560,0.16155
1103.08407,0.15597
1105.01254,0.15321
1106.94101,0.15716
1108.86948,0.16267
1110.79795,0.16441
1112.72642,0.16579
1114.65489,0.16885
1116.58335,0.16813
1118.51182,0.16656
1120.44029,0.16726
1122.36876,0.16386
1124.29723,0.15838
1126.22570,0.15782
1128.15417,0.15792
1130.08263,0.15362
1132.01110,0.14720
1133.93957,0.14369
1135.86804,0.14499
1137.79651,0.14935
1139.72498,0.15646
1141.65345,0.16593
1143.58191,0.17431
1145.51038,0.17375
1147.43885,0.16569
1149.36732,0.16224
1151.29579,0.16491
1153.22426,0.16747
1155.15273,0.16617
1157.08120,0.16271
1159.00966,0.16272
1160.93813,0.16734
1162.86660,0.17282
1164.79507,0.17461
1166.72354,0.17201
1168.65201,0.16564
1170.58048,0.15931
1172.50894,0.15907
1174.43741,0.16275
1176.36588,0.16562
1178.29435,0.16721
1180.22282,0.16753
1182.15129,0.16548
1184.07976,0.16327
1186.00823,0.16473
1187.93669,0.16657
1189.86516,0.16474
1191.79363,0.16124
1193.72210,0.15836
1195.65057,0.15615
1197.57904,0.15685
1199.50751,0.16246
1201.43597,0.16960
1203.36444,0.17312
1205.29291,0.17080
1207.22138,0.16821
1209.14985,0.17097
1211.07832,0.17430
1213.00679,0.17425
1214.93526,0.17148
1216.86372,0.16707
1218.79219,0.16474
1220.72066,0.16451
1222.64913,0.16282
1224.57760,0.15925
1226.50607,0.15643
1228.43454,0.15803
1230.36300,0.16405
1232.29147,0.16999
1234.21994,0.17100
1236.14841,0.16656
1238.07688,0.16058
1240.00535,0.15815
1241.93382,0.16112
1243.86229,0.16447
1245.79075,0.16374
1247.71922,0.16222
1249.64769,0.16429
1251.57616,0.16535
1253.50463,0.16184
1255.43310,0.16128
1257.36157,0.16417
1259.29003,0.16272
1261.21850,0.15995
1263.14697,0.16187
1265.07544,0.16436
1267.00391,0.16424
1268.93238,0.16337
1270.86085,0.16095
1272.78932,0.15803
1274.71778,0.15820
1276.64625,0.16194
1278.57472,0.16533
1280.50319,0.16145
1282.43166,0.15629
1284.36013,0.16086
1286.28860,0.16599
1288.21706,0.16532
1290.14553,0.16670
1292.07400,0.16864
1294.00247,0.16860
1295.93094,0.16838
1297.85941,0.16376
1299.78788,0.15020
1301.71634,0.12847
1303.64481,0.11014
1305.57328,0.11578
1307.50175,0.14377
1309.43022,0.16637
1311.35869,0.17534
1313.28716,0.17949
1315.21563,0.17893
1317.14409,0.17762
1319.07256,0.17675
1321.00103,0.17130
1322.92950,0.16570
1324.85797,0.16191
1326.78644,0.15877
1328.71491,0.15948
1330.64337,0.16022
1332.57184,0.16014
1334.50031,0.16395
1336.42878,0.16803
1338.35725,0.16887
1340.28572,0.16270
1342.21419,0.15725
1344.14266,0.16263
1346.07112,0.16458
1347.99959,0.15809
1349.92806,0.15527
1351.85653,0.15529
1353.78500,0.15696
1355.71347,0.16107
1357.64194,0.16198
1359.57040,0.16158
1361.49887,0.16589
1363.42734,0.17074
1365.35581,0.17041
1367.28428,0.16991
1369.21275,0.17059
1371.14122,0.17043
1373.06969,0.17243
1374.99815,0.17524
1376.92662,0.17400
1378.85509,0.17208
1380.78356,0.17288
1382.71203,0.17597
1384.64050,0.17938
1386.56897,0.17892
1388.49743,0.17508
1390.42590,0.17609
1392.35437,0.18408
1394.28284,0.19411
1396.21131,0.19513
1398.13978,0.18831
1400.06825,0.18404
1401.99672,0.18292
1403.92518,0.18243
1405.85365,0.18158
1407.78212,0.18238
1409.71059,0.18378
1411.63906,0.18069
1413.56753,0.17704
1415.49600,0.18131
1417.42446,0.19293
1419.35293,0.19765
1421.28140,0.18958
1423.20987,0.18278
1425.13834,0.18148
1427.06681,0.18289
1428.99528,0.18472
1430.92375,0.18566
1432.85221,0.18624
1434.78068,0.18901
1436.70915,0.18872
1438.63762,0.17983
1440.56609,0.17416
1442.49456,0.17559
1444.42303,0.17972
1446.35149,0.18506
1448.27996,0.19049
1450.20843,0.19315
1452.13690,0.19600
1454.06537,0.20413
1455.99384,0.21708
1457.92231,0.21383
1459.85077,0.19837
1461.77924,0.19589
1463.70771,0.20064
1465.63618,0.19990
1467.56465,0.19391
1469.49312,0.19423
1471.42159,0.20261
1473.35006,0.20712
1475.27852,0.20249
1477.20699,0.19865
1479.13546,0.19658
1481.06393,0.19504
1482.99240,0.19254
1484.92087,0.19266
1486.84934,0.20050
1488.77780,0.20732
1490.70627,0.19881
1492.63474,0.19066
1494.56321,0.19458
1496.49168,0.20303
1498.42015,0.20257
1500.34862,0.19779
1502.27709,0.20187
1504.20555,0.21944
1506.13402,0.24445
1508.06249,0.23812
1509.99096,0.21563
1511.91943,0.20374
1513.84790,0.20446
1515.77637,0.21818
1517.70483,0.23171
1519.63330,0.23599
1521.56177,0.23217
1523.49024,0.22140
1525.41871,0.21451
1527.34718,0.20762
1529.27565,0.19937
1531.20412,0.19590
1533.13258,0.19705
1535.06105,0.20123
1536.98952,0.21317
1538.91799,0.23995
1540.84646,0.25625
1542.77493,0.23465
1544.70340,0.21473
1546.63186,0.20397
1548.56033,0.20110
1550.48880,0.20092
1552.41727,0.20179
1554.34574,0.20799
1556.27421,0.21974
1558.20268,0.23425
1560.13115,0.22061
1562.05961,0.20177
1563.98808,0.19720
1565.91655,0.19827
1567.84502,0.20119
1569.77349,0.20211
1571.70196,0.19793
1573.63043,0.19618
1575.55889,0.19684
1577.48736,0.19079
1579.41583,0.18271
1581.34430,0.18140
1583.27277,0.18402
1585.20124,0.18350
1587.12971,0.17945
1589.05818,0.17574
1590.98664,0.17600
1592.91511,0.18036
1594.84358,0.18451
1596.77205,0.18409
1598.70052,0.18045
1600.62899,0.17895
1602.55746,0.17970
1604.48592,0.18020
1606.41439,0.18160
1608.34286,0.18417
1610.27133,0.18507
1612.19980,0.18605
1614.12827,0.19438
1616.05674,0.20624
1617.98521,0.20246
1619.91367,0.19573
1621.84214,0.20049
1623.77061,0.20591
1625.69908,0.20507
1627.62755,0.20547
1629.55602,0.20535
1631.48449,0.20578
1633.41295,0.21407
1635.34142,0.22644
1637.26989,0.21908
1639.19836,0.20496
1641.12683,0.20089
1643.05530,0.20691
1644.98377,0.22299
1646.91223,0.23728
1648.84070,0.23165
1650.76917,0.23001
1652.69764,0.24072
1654.62611,0.22861
1656.55458,0.20883
1658.48305,0.20135
1660.41152,0.20255
1662.33998,0.20732
1664.26845,0.20909
1666.19692,0.21232
1668.12539,0.22207
1670.05386,0.22368
1671.98233,0.21080
1673.91080,0.20476
1675.83926,0.20530
1677.76773,0.20472
1679.69620,0.20739
1681.62467,0.21717
1683.55314,0.23184
1685.48161,0.23112
1687.41008,0.21854
1689.33855,0.20834
1691.26701,0.20128
1693.19548,0.20164
1695.12395,0.21249
1697.05242,0.22791
1698.98089,0.23542
1700.90936,0.22733
1702.83783,0.21685
1704.76629,0.21500
1706.69476,0.21104
1708.62323,0.20182
1710.55170,0.19559
1712.48017,0.19606
1714.40864,0.20327
1716.33711,0.21079
1718.26558,0.20608
1720.19404,0.19488
1722.12251,0.18776
1724.05098,0.18454
1725.97945,0.18381
1727.90792,0.18673
1729.83639,0.19376
1731.76486,0.20251
1733.69332,0.20643
1735.62179,0.19968
1737.55026,0.19605
1739.47873,0.19977
1741.40720,0.20268
1743.33567,0.20127
1745.26414,0.20163
1747.19261,0.20537
1749.12107,0.20820
1751.04954,0.20457
1752.97801,0.19783
1754.90648,0.19423
1756.83495,0.19200
1758.76342,0.19101
1760.69189,0.19420
1762.62035,0.19527
1764.54882,0.19159
1766.47729,0.19271
1768.40576,0.20075
1770.33423,0.20790
1772.26270,0.20601
1774.19117,0.19696
1776.11964,0.19061
1778.04810,0.19018
1779.97657,0.19355
1781.90504,0.19430
1783.83351,0.19170
1785.76198,0.18980
1787.69045,0.19220
1789.61892,0.20134
1791.54738,0.21170
1793.47585,0.20938
1795.40432,0.20068
1797.33279,0.19899
1799.26126,0.20165
1801.18973,0.19963
1803.11820,0.19343
1805.04666,0.19096
1806.97513,0.19269
1808.90360,0.19424
1810.83207,0.19393
1812.76054,0.19116
1814.68901,0.18877
1816.61748,0.18635
1818.54595,0.17411
1820.47441,0.16153
1822.40288,0.17098
1824.33135,0.19121
1826.25982,0.19721
1828.18829,0.19646
1830.11676,0.19629
1832.04523,0.19230
1833.97369,0.18964
1835.90216,0.18993
1837.83063,0.18932
1839.75910,0.18809
1841.68757,0.19045
1843.61604,0.19524
1845.54451,0.19591
1847.47298,0.19338
1849.40144,0.19279
1851.32991,0.19378
1853.25838,0.19263
1855.18685,0.19005
1857.11532,0.18989
1859.04379,0.19153
1860.97226,0.19191
1862.90072,0.19125
1864.82919,0.19286
1866.75766,0.19895
1868.68613,0.20247
1870.61460,0.19494
1872.54307,0.18676
1874.47154,0.18579
1876.40001,0.18865
1878.32847,0.19082
1880.25694,0.19127
1882.18541,0.19079
1884.11388,0.19084
1886.04235,0.19168
1887.97082,0.19333
1889.89929,0.19532
1891.82775,0.19544
1893.75622,0.19445
1895.68469,0.19326
1897.61316,0.19132
1899.54163,0.18969
1901.47010,0.18868
1903.39857,0.18731
1905.32704,0.18595
1907.25550,0.18710
1909.18397,0.19008
1911.11244,0.19170
1913.04091,0.19217
1914.96938,0.19254
1916.89785,0.19255
1918.82632,0.19236
1920.75478,0.19428
1922.68325,0.19678
1924.61172,0.19622
1926.54019,0.19465
1928.46866,0.19364
1930.39713,0.19186
1932.32560,0.18951
1934.25407,0.18968
1936.18253,0.19180
1938.11100,0.19137
1940.03947,0.19095
1941.96794,0.19318
1943.89641,0.19381
1945.82488,0.19312
1947.75335,0.19459
1949.68181,0.19591
1951.61028,0.19417
1953.53875,0.19176
1955.46722,0.19162
1957.39569,0.19266
1959.32416,0.19307
1961.25263,0.19256
1963.18110,0.19233
1965.10956,0.19458
1967.03803,0.19682
1968.96650,0.19472
1970.89497,0.19069
1972.82344,0.18749
1974.75191,0.18484
1976.68038,0.18269
1978.60884,0.18232
1980.53731,0.18478
1982.46578,0.18806
1984.39425,0.18952
1986.32272,0.19062
1988.25119,0.19261
1990.17966,0.19147
1992.10812,0.18714
1994.03659,0.18564
1995.96506,0.18702
1997.89353,0.18792
1999.82200,0.18913
2001.75047,0.19176
2003.67894,0.19497
2005.60741,0.19799
2007.53587,0.19897
2009.46434,0.19729
2011.39281,0.19462
2013.32128,0.19261
2015.24975,0.19255
2017.17822,0.19265
2019.10669,0.19244
2021.03515,0.19428
2022.96362,0.19576
2024.89209,0.19359
2026.82056,0.18940
2028.74903,0.18645
2030.67750,0.18629
2032.60597,0.18791
2034.53444,0.18918
2036.46290,0.18951
2038.39137,0.18949
2040.31984,0.18910
2042.24831,0.18851
2044.17678,0.18845
2046.10525,0.18928
2048.03372,0.19059
2049.96218,0.19230
2051.89065,0.19451
2053.81912,0.19539
2055.74759,0.19351
2057.67606,0.19126
2059.60453,0.19130
2061.53300,0.19185
2063.46147,0.19146
2065.38993,0.19192
2067.31840,0.19262
2069.24687,0.19295
2071.17534,0.19429
2073.10381,0.19426
2075.03228,0.19173
2076.96075,0.19040
2078.88921,0.19102
2080.81768,0.19266
2082.74615,0.19395
2084.67462,0.19186
2086.60309,0.18855
2088.53156,0.18794
2090.46003,0.18868
2092.38850,0.18917
2094.31696,0.18999
2096.24543,0.18993
2098.17390,0.18893
2100.10237,0.18897
2102.03084,0.18943
2103.95931,0.18989
2105.88778,0.19071
2107.81624,0.19099
2109.74471,0.19112
2111.67318,0.19214
2113.60165,0.19442
2115.53012,0.19631
2117.45859,0.19456
2119.38706,0.19088
2121.31553,0.19138
2123.24399,0.19530
2125.17246,0.19526
2127.10093,0.19191
2129.02940,0.19156
2130.95787,0.19334
2132.88634,0.19469
2134.81481,0.19523
2136.74327,0.19494
2138.67174,0.19369
2140.60021,0.18928
2142.52868,0.18628
2144.45715,0.18962
2146.38562,0.19331
2148.31409,0.19393
2150.24255,0.19286
2152.17102,0.19067
2154.09949,0.18995
2156.02796,0.19167
2157.95643,0.19360
2159.88490,0.19493
2161.81337,0.19657
2163.74184,0.19755
2165.67030,0.19692
2167.59877,0.19589
2169.52724,0.19463
2171.45571,0.19375
2173.38418,0.19377
2175.31265,0.19210
2177.24112,0.18987
2179.16958,0.19115
2181.09805,0.19365
2183.02652,0.19370
2184.95499,0.19274
2186.88346,0.19293
2188.81193,0.19422
2190.74040,0.19502
2192.66887,0.19464
2194.59733,0.19428
2196.52580,0.19501
2198.45427,0.19668
2200.38274,0.19726
2202.31121,0.19562
2204.23968,0.19319
2206.16815,0.19184
2208.09661,0.19201
2210.02508,0.19206
2211.95355,0.19108
2213.88202,0.18935
2215.81049,0.18777
2217.73896,0.18814
2219.66743,0.18982
2221.59590,0.19033
2223.52436,0.18985
2225.45283,0.19115
2227.38130,0.19417
2229.30977,0.19501
2231.23824,0.19419
2233.16671,0.19552
2235.09518,0.19651
2237.02364,0.19398
2238.95211,0.19056
2240.88058,0.18885
2242.80905,0.18989
2244.73752,0.19211
2246.66599,0.19179
2248.59446,0.19090
2250.52293,0.19235
2252.45139,0.19320
2254.37986,0.19301
2256.30833,0.19456
2258.23680,0.19712
2260.16527,0.19873
2262.09374,0.19860
2264.02221,0.19673
2265.95067,0.19411
2267.87914,0.19131
2269.80761,0.18941
2271.73608,0.18922
2273.66455,0.18942
2275.59302,0.19062
2277.52149,0.19318
2279.44996,0.19371
2281.37842,0.19239
2283.30689,0.19233
2285.23536,0.19198
2287.16383,0.19045
2289.09230,0.19198
2291.02077,0.19502
2292.94924,0.19380
2294.87770,0.19132
2296.80617,0.19148
2298.73464,0.19226
2300.66311,0.19180
2302.59158,0.18919
2304.52005,0.18605
2306.44852,0.18526
2308.37699,0.18685
2310.30545,0.19006
2312.23392,0.19150
2314.16239,0.18658
2316.09086,0.18192
2318.01933,0.18412
2319.94780,0.18477
2321.87627,0.18171
2323.80473,0.18491
2325.73320,0.19306
2327.66167,0.19259
2329.59014,0.18129
2331.51861,0.18047
2333.44708,0.19544
2335.37555,0.20269
2337.30401,0.19232
2339.23248,0.18034
2341.16095,0.18160
2343.08942,0.18750
2345.01789,0.19360
2346.94636,0.20050
2348.87483,0.20149
2350.80330,0.19791
2352.73176,0.19699
2354.66023,0.19883
2356.58870,0.19207
2358.51717,0.18284
2360.44564,0.18240
2362.37411,0.18425
2364.30258,0.18336
2366.23104,0.18074
2368.15951,0.17840
2370.08798,0.17786
2372.01645,0.18170
2373.94492,0.18759
2375.87339,0.19213
2377.80186,0.19332
2379.73033,0.19099
2381.65879,0.18869
2383.58726,0.18871
2385.51573,0.19091
2387.44420,0.19284
2389.37267,0.19254
2391.30114,0.19259
2393.22961,0.19337
2395.15807,0.19257
2397.08654,0.19276
2399.01501,0.19429
2400.94348,0.19305
2402.87195,0.19046
2404.80042,0.18962
2406.72889,0.19066
2408.65736,0.19379
2410.58582,0.19743
2412.51429,0.19830
2414.44276,0.19560
2416.37123,0.19222
2418.29970,0.19021
2420.22817,0.19069
2422.15664,0.19444
2424.08510,0.19743
2426.01357,0.19546
2427.94204,0.19143
2429.87051,0.19038
2431.79898,0.19204
2433.72745,0.19319
2435.65592,0.19281
2437.58439,0.19185
2439.51285,0.19097
2441.44132,0.19138
2443.36979,0.19430
2445.29826,0.19712
2447.22673,0.19697
2449.15520,0.19470
2451.08367,0.19118
2453.01213,0.18779
2454.94060,0.18816
2456.86907,0.19223
2458.79754,0.19519
2460.72601,0.19506
2462.65448,0.19379
2464.58295,0.19238
2466.51142,0.19112
2468.43988,0.19144
2470.36835,0.19293
2472.29682,0.19429
2474.22529,0.19591
2476.15376,0.19705
2478.08223,0.19578
2480.01070,0.19250
2481.93916,0.19154
2483.86763,0.19428
2485.79610,0.19590
2487.72457,0.19498
2489.65304,0.19336
2491.58151,0.19158
2493.50998,0.19190
2495.43844,0.19373
2497.36691,0.19281
2499.29538,0.19080
2501.22385,0.19214
2503.15232,0.19459
2505.08079,0.19402
2507.00926,0.19288
2508.93773,0.19436
2510.86619,0.19643
2512.79466,0.19704
2514.72313,0.19618
2516.65160,0.19460
2518.58007,0.19254
2520.50854,0.19072
2522.43701,0.19078
2524.36547,0.19139
2526.29394,0.19216
2528.22241,0.19446
2530.15088,0.19590
2532.07935,0.19462
2534.00782,0.19339
2535.93629,0.19447
2537.86476,0.19504
2539.79322,0.19275
2541.72169,0.19030
2543.65016,0.19035
2545.57863,0.19107
2547.50710,0.19081
2549.43557,0.19291
2551.36404,0.19690
2553.29250,0.19668
2555.22097,0.19241
2557.14944,0.18973
2559.07791,0.19092
2561.00638,0.19355
2562.93485,0.19426
2564.86332,0.19290
2566.79179,0.19240
2568.72025,0.19295
2570.64872,0.19159
2572.57719,0.18917
2574.50566,0.18962
2576.43413,0.19256
2578.36260,0.19536
2580.29107,0.19742
2582.21953,0.19745
2584.14800,0.19569
2586.07647,0.19435
2588.00494,0.19450
2589.93341,0.19583
2591.86188,0.19641
2593.79035,0.19466
2595.71882,0.19154
2597.64728,0.19074
2599.57575,0.19231
2601.50422,0.19204
2603.43269,0.19132
2605.36116,0.19354
2607.28963,0.19598
2609.21810,0.19460
2611.14656,0.19141
2613.07503,0.19119
2615.00350,0.19458
2616.93197,0.19941
2618.86044,0.20314
2620.78891,0.20305
2622.71738,0.19920
2624.64585,0.19563
2626.57431,0.19497
2628.50278,0.19573
2630.43125,0.19725
2632.35972,0.20032
2634.28819,0.20261
2636.21666,0.20138
2638.14513,0.19888
2640.07359,0.19797
2642.00206,0.19682
2643.93053,0.19351
2645.85900,0.18985
2647.78747,0.18789
2649.71594,0.18762
2651.64441,0.18870
2653.57288,0.19064
2655.50134,0.19189
2657.42981,0.19281
2659.35828,0.19583
2661.28675,0.20033
2663.21522,0.20264
2665.14369,0.20233
2667.07216,0.20275
2669.00062,0.20384
2670.92909,0.20193
2672.85756,0.19800
2674.78603,0.19679
2676.71450,0.19857
2678.64297,0.20118
2680.57144,0.20274
2682.49990,0.20027
2684.42837,0.19631
2686.35684,0.19648
2688.28531,0.19887
2690.21378,0.19983
2692.14225,0.20110
2694.07072,0.20349
2695.99919,0.20496
2697.92765,0.20570
2699.85612,0.20537
2701.78459,0.20221
2703.71306,0.19952
2705.64153,0.20081
2707.57000,0.20357
2709.49847,0.20457
2711.42693,0.20446
2713.35540,0.20535
2715.28387,0.20611
2717.21234,0.20511
2719.14081,0.20418
2721.06928,0.20333
2722.99775,0.19997
2724.92622,0.19549
2726.85468,0.19469
2728.78315,0.19781
2730.71162,0.20122
2732.64009,0.20406
2734.56856,0.20574
2736.49703,0.20485
2738.42550,0.20412
2740.35396,0.20542
2742.28243,0.20555
2744.21090,0.20424
2746.13937,0.20282
2748.06784,0.19939
2749.99631,0.19663
2751.92478,0.19816
2753.85325,0.19983
2755.78171,0.19891
2757.71018,0.19852
2759.63865,0.19985
2761.56712,0.20346
2763.49559,0.20818
2765.42406,0.20788
2767.35253,0.20464
2769.28099,0.20653
2771.20946,0.20941
2773.13793,0.20809
2775.06640,0.20673
2776.99487,0.20546
2778.92334,0.20295
2780.85181,0.20361
2782.78028,0.20722
2784.70874,0.20864
2786.63721,0.20713
2788.56568,0.20536
2790.49415,0.20594
2792.42262,0.20831
2794.35109,0.20875
2796.27956,0.20642
2798.20802,0.20289
2800.13649,0.20029
2802.06496,0.20109
2803.99343,0.20305
2805.92190,0.20450
2807.85037,0.20703
2809.77884,0.20667
2811.70731,0.20289
2813.63577,0.20249
2815.56424,0.20539
2817.49271,0.20745
2819.42118,0.20857
2821.34965,0.20982
2823.27812,0.21032
2825.20659,0.20835
2827.13505,0.20642
2829.06352,0.20595
2830.99199,0.20347
2832.92046,0.20089
2834.84893,0.20307
2836.77740,0.20727
2838.70587,0.20878
2840.63433,0.20834
2842.56280,0.20805
2844.49127,0.20777
2846.41974,0.20654
2848.34821,0.20453
2850.27668,0.20301
2852.20515,0.20297
2854.13362,0.20411
2856.06208,0.20553
2857.99055,0.20714
2859.91902,0.20792
2861.84749,0.20631
2863.77596,0.20344
2865.70443,0.20085
2867.63290,0.19858
2869.56136,0.19745
2871.48983,0.19745
2873.41830,0.19810
2875.34677,0.20199
2877.27524,0.20766
2879.20371,0.21071
2881.13218,0.21097
2883.06065,0.20614
2884.98911,0.19638
2886.91758,0.19066
2888.84605,0.19506
2890.77452,0.20402
2892.70299,0.20637
2894.63146,0.20111
2896.55993,0.19844
2898.48839,0.20062
2900.41686,0.20170
2902.34533,0.20126
2904.27380,0.20092
2906.20227,0.20109
2908.13074,0.20141
2910.05921,0.19989
2911.98768,0.19827
2913.91614,0.19568
2915.84461,0.19096
2917.77308,0.19412
2919.70155,0.20494
2921.63002,0.21011
2923.55849,0.20653
2925.48696,0.19838
2927.41542,0.19489
2929.34389,0.20182
2931.27236,0.20862
2933.20083,0.20635
2935.12930,0.19713
2937.05777,0.18780
2938.98624,0.18958
2940.91471,0.20159
2942.84317,0.20822
2944.77164,0.20127
2946.70011,0.18760
2948.62858,0.18413
2950.55705,0.19456
2952.48552,0.20291
2954.41399,0.20064
2956.34245,0.18905
2958.27092,0.18100
2960.19939,0.19031
2962.12786,0.20384
2964.05633,0.20624
2965.98480,0.19996
2967.91327,0.19386
2969.84174,0.19874
2971.77020,0.21047
2973.69867,0.21618
2975.62714,0.21055
2977.55561,0.19627
2979.48408,0.18940
2981.41255,0.19668
2983.34102,0.20536
2985.26948,0.20703
2987.19795,0.20182
2989.12642,0.19779
2991.05489,0.20194
2992.98336,0.20993
2994.91183,0.21531
2996.84030,0.21581
2998.76877,0.21624
3000.69723,0.21946
3002.62570,0.21877
3004.55417,0.21319
3006.48264,0.20686
3008.41111,0.19763
3010.33958,0.18256
3012.26805,0.15799
3014.19651,0.12128
3016.12498,0.09263
3018.05345,0.10843
3019.98192,0.16098
3021.91039,0.20163
3023.83886,0.21590
3025.76733,0.21793
3027.69579,0.21421
3029.62426,0.21118
3031.55273,0.21033
3033.48120,0.20945
3035.40967,0.21027
3037.33814,0.21103
3039.26661,0.21178
3041.19508,0.21332
3043.12354,0.21297
3045.05201,0.20959
3046.98048,0.20360
3048.90895,0.20053
3050.83742,0.20351
3052.76589,0.20558
3054.69436,0.19838
3056.62282,0.18525
3058.55129,0.18466
3060.47976,0.19915
3062.40823,0.20899
3064.33670,0.20243
3066.26517,0.18851
3068.19364,0.18866
3070.12211,0.20243
3072.05057,0.20969
3073.97904,0.20259
3075.90751,0.19142
3077.83598,0.19289
3079.76445,0.20381
3081.69292,0.20681
3083.62139,0.19417
3085.54985,0.18127
3087.47832,0.18958
3089.40679,0.20765
3091.33526,0.21039
3093.26373,0.19308
3095.19220,0.18012
3097.12067,0.19098
3099.04914,0.20645
3100.97760,0.20756
3102.90607,0.19657
3104.83454,0.19092
3106.76301,0.20009
3108.69148,0.20947
3110.61995,0.20675
3112.54842,0.19659
3114.47688,0.19571
3116.40535,0.20744
3118.33382,0.21454
3120.26229,0.20607
3122.19076,0.19547
3124.11923,0.20208
3126.04770,0.21556
3127.97617,0.21558
3129.90463,0.20335
3131.83310,0.19601
3133.76157,0.20219
3135.69004,0.20863
3137.61851,0.20364
3139.54698,0.19608
3141.47545,0.20003
3143.40391,0.21023
3145.33238,0.21422
3147.26085,0.21283
3149.18932,0.21128
3151.11779,0.21168
3153.04626,0.21304
3154.97473,0.21114
3156.90320,0.20667
3158.83166,0.20784
3160.76013,0.21450
3162.68860,0.21843
3164.61707,0.21775
3166.54554,0.21719
3168.47401,0.22064
3170.40248,0.22379
3172.33094,0.22143
3174.25941,0.21751
3176.18788,0.21934
3178.11635,0.22785
3180.04482,0.23458
3181.97329,0.23144
3183.90176,0.22229
3185.83022,0.21573
3187.75869,0.21333
3189.68716,0.21393
3191.61563,0.21791
3193.54410,0.22267
3195.47257,0.22268
3197.40104,0.21893
3199.32951,0.21683
3201.25797,0.21563
3203.18644,0.21448
3205.11491,0.21646
3207.04338,0.21961
3208.97185,0.21866
3210.90032,0.21657
3212.82879,0.21678
3214.75725,0.21664
3216.68572,0.21692
3218.61419,0.21750
3220.54266,0.21630
3222.47113,0.21567
3224.39960,0.21670
3226.32807,0.21740
3228.25654,0.21686
3230.18500,0.21493
3232.11347,0.21211
3234.04194,0.21232
3235.97041,0.21794
3237.89888,0.22043
3239.82735,0.21469
3241.75582,0.20744
3243.68428,0.20305
3245.61275,0.20569
3247.54122,0.21450
3249.46969,0.21880
3251.39816,0.21603
3253.32663,0.21210
3255.25510,0.21184
3257.18357,0.21651
3259.11203,0.21948
3261.04050,0.21530
3262.96897,0.21024
3264.89744,0.20943
3266.82591,0.21066
3268.75438,0.21107
3270.68285,0.21000
3272.61131,0.21191
3274.53978,0.21660
3276.46825,0.21831
3278.39672,0.21695
3280.32519,0.21291
3282.25366,0.20774
3284.18213,0.20636
3286.11060,0.20865
3288.03906,0.21237
3289.96753,0.21609
3291.89600,0.21703
3293.82447,0.21417
3295.75294,0.21020
3297.68141,0.20992
3299.60988,0.21310
3301.53834,0.21500
3303.46681,0.21353
3305.39528,0.20870
3307.32375,0.20428
3309.25222,0.20353
3311.18069,0.20288
3313.10916,0.20209
3315.03763,0.20658
3316.96609,0.21649
3318.89456,0.22483
3320.82303,0.22335
3322.75150,0.21560
3324.67997,0.21370
3326.60844,0.21806
3328.53691,0.22044
3330.46537,0.21739
3332.39384,0.21304
3334.32231,0.21197
3336.25078,0.21259
3338.17925,0.21364
3340.10772,0.21676
3342.03619,0.22038
3343.96466,0.22099
3345.89312,0.21953
3347.82159,0.21841
3349.75006,0.21626
3351.67853,0.21395
3353.60700,0.21543
3355.53547,0.21727
3357.46394,0.21561
3359.39240,0.21656
3361.32087,0.22240
3363.24934,0.22543
3365.17781,0.22257
3367.10628,0.22074
3369.03475,0.22400
3370.96322,0.22679
3372.89168,0.22431
3374.82015,0.22064
3376.74862,0.22108
3378.67709,0.22284
3380.60556,0.22108
3382.53403,0.21532
3384.46250,0.20767
3386.39097,0.20217
3388.31943,0.20068
3390.24790,0.20217
3392.17637,0.20783
3394.10484,0.21598
3396.03331,0.21901
3397.96178,0.21536
3399.89025,0.21114
3401.81871,0.20823
3403.74718,0.20625
3405.67565,0.20961
3407.60412,0.21738
3409.53259,0.22297
3411.46106,0.22486
3413.38953,0.22125
3415.31800,0.21344
3417.24646,0.20977
3419.17493,0.20925
3421.10340,0.20516
3423.03187,0.20201
3424.96034,0.20368
3426.88881,0.20496
3428.81728,0.20447
3430.74574,0.20553
3432.67421,0.20662
3434.60268,0.20374
3436.53115,0.19729
3438.45962,0.18909
3440.38809,0.18442
3442.31656,0.19013
3444.24503,0.19963
3446.17349,0.20147
3448.10196,0.19684
3450.03043,0.19274
3451.95890,0.19201
3453.88737,0.19443
3455.81584,0.19564
3457.74431,0.19339
3459.67277,0.19247
3461.60124,0.19311
3463.52971,0.19326
3465.45818,0.19594
3467.38665,0.19858
3469.31512,0.19664
3471.24359,0.19536
3473.17206,0.19853
3475.10052,0.20054
3477.02899,0.19708
3478.95746,0.19095
3480.88593,0.18908
3482.81440,0.19195
3484.74287,0.19018
3486.67134,0.18383
3488.59980,0.18283
3490.52827,0.18494
3492.45674,0.18327
3494.38521,0.18470
3496.31368,0.19282
3498.24215,0.19639
3500.17062,0.19163
3502.09909,0.18596
3504.02755,0.18215
3505.95602,0.18167
3507.88449,0.18484
3509.81296,0.18501
3511.74143,0.18197
3513.66990,0.18209
3515.59837,0.18357
3517.52683,0.18337
3519.45530,0.18355
3521.38377,0.18480
3523.31224,0.18547
3525.24071,0.18649
3527.16918,0.18965
3529.09765,0.19096
3531.02611,0.18544
3532.95458,0.17656
3534.88305,0.17101
3536.81152,0.17103
3538.73999,0.17396
3540.66846,0.17660
3542.59693,0.17745
3544.52540,0.17740
3546.45386,0.17679
3548.38233,0.17414
3550.31080,0.17336
3552.23927,0.17603
3554.16774,0.17585
3556.09621,0.17181
3558.02468,0.16710
3559.95314,0.16215
3561.88161,0.16098
3563.81008,0.16643
3565.73855,0.17378
3567.66702,0.17599
3569.59549,0.17250
3571.52396,0.16963
3573.45243,0.16683
3575.38089,0.16326
3577.30936,0.16212
3579.23783,0.16080
3581.16630,0.16009
3583.09477,0.16503
3585.02324,0.17180
3586.95171,0.17201
3588.88017,0.16267
3590.80864,0.15533
3592.73711,0.15602
3594.66558,0.15895
3596.59405,0.15638
3598.52252,0.15090
3600.45099,0.14875
3602.37946,0.15007
3604.30792,0.15157
3606.23639,0.15198
3608.16486,0.15290
3610.09333,0.15800
3612.02180,0.16196
3613.95027,0.15721
3615.87874,0.15265
3617.80720,0.15646
3619.73567,0.15749
3621.66414,0.14908
3623.59261,0.14435
3625.52108,0.14917
3627.44955,0.15940
3629.37802,0.16168
3631.30649,0.15645
3633.23495,0.15649
3635.16342,0.15440
3637.09189,0.14625
3639.02036,0.14016
3640.94883,0.14006
3642.87730,0.14367
3644.80577,0.15190
3646.73423,0.16517
3648.66270,0.17288
3650.59117,0.16347
3652.51964,0.15183
3654.44811,0.14587
3656.37658,0.14337
3658.30505,0.14155
3660.23352,0.13906
3662.16198,0.13550
3664.09045,0.13367
3666.01892,0.13577
3667.94739,0.14120
3669.87586,0.14771
3671.80433,0.14894
3673.73280,0.14784
3675.66126,0.14884
3677.58973,0.14812
3679.51820,0.14222
3681.44667,0.13252
3683.37514,0.12583
3685.30361,0.12866
3687.23208,0.14016
3689.16055,0.15214
3691.08901,0.15120
3693.01748,0.14330
3694.94595,0.13945
3696.87442,0.13887
3698.80289,0.13730
3700.73136,0.13180
3702.65983,0.12387
3704.58829,0.12254
3706.51676,0.12898
3708.44523,0.13783
3710.37370,0.14515
3712.30217,0.14470
3714.23064,0.13769
3716.15911,0.13219
3718.08757,0.13085
3720.01604,0.13138
3721.94451,0.12901
3723.87298,0.12941
3725.80145,0.13653
3727.72992,0.13988
3729.65839,0.14016
3731.58686,0.14742
3733.51532,0.15930
3735.44379,0.16040
3737.37226,0.15021
3739.30073,0.14175
3741.22920,0.13855
3743.15767,0.14169
3745.08614,0.15173
3747.01460,0.16031
3748.94307,0.16723
3750.87154,0.16830
3752.80001,0.15571
3754.72848,0.14574
3756.65695,0.14497
3758.58542,0.14832
3760.51389,0.14543
3762.44235,0.14032
3764.37082,0.13968
3766.29929,0.13795
3768.22776,0.13221
3770.15623,0.12527
3772.08470,0.12248
3774.01317,0.12535
3775.94163,0.12887
3777.87010,0.13103
3779.79857,0.13237
3781.72704,0.13210
3783.65551,0.13092
3785.58398,0.12907
3787.51245,0.12725
3789.44092,0.12658
3791.36938,0.12541
3793.29785,0.12604
3795.22632,0.13230
3797.15479,0.13842
3799.08326,0.13891
3801.01173,0.13572
3802.94020,0.13081
3804.86866,0.12901
3806.79713,0.12782
3808.72560,0.12306
3810.65407,0.11864
3812.58254,0.12028
3814.51101,0.13209
3816.43948,0.14520
3818.36795,0.14604
3820.29641,0.14602
3822.22488,0.14332
3824.15335,0.13199
3826.08182,0.12361
3828.01029,0.12392
3829.93876,0.13155
3831.86723,0.14221
3833.79569,0.15047
3835.72416,0.15404
3837.65263,0.15208
3839.58110,0.14755
3841.50957,0.14696
3843.43804,0.14435
3845.36651,0.13650
3847.29498,0.13084
3849.22344,0.13101
3851.15191,0.13305
3853.08038,0.13014
3855.00885,0.12588
3856.93732,0.12609
3858.86579,0.12621
3860.79426,0.12595
3862.72272,0.12543
3864.65119,0.12239
3866.57966,0.12228
3868.50813,0.12990
3870.43660,0.13187
3872.36507,0.12105
3874.29354,0.11512
3876.22200,0.11818
3878.15047,0.12305
3880.07894,0.12575
3882.00741,0.12543
3883.93588,0.12575
3885.86435,0.12475
3887.79282,0.12199
3889.72129,0.12395
3891.64975,0.12726
3893.57822,0.12385
3895.50669,0.12029
3897.43516,0.12077
3899.36363,0.12307
3901.29210,0.12708
3903.22057,0.12834
3905.14903,0.12332
3907.07750,0.11884
3909.00597,0.11666
3910.93444,0.11467
3912.86291,0.11297
3914.79138,0.11304
3916.71985,0.11584
3918.64832,0.11821
3920.57678,0.11842
3922.50525,0.11956
3924.43372,0.12119
3926.36219,0.12019
3928.29066,0.11536
3930.21913,0.11079
3932.14760,0.11388
3934.07606,0.11747
3936.00453,0.11282
3937.93300,0.10916
3939.86147,0.11183
3941.78994,0.11640
3943.71841,0.12055
3945.64688,0.12051
3947.57535,0.11552
3949.50381,0.11311
3951.43228,0.11568
3953.36075,0.12019
3955.28922,0.12435
3957.21769,0.12388
3959.14616,0.12103
3961.07463,0.11848
3963.00309,0.11305
3964.93156,0.10712
3966.86003,0.10314
3968.78850,0.09958
3970.71697,0.09762
3972.64544,0.09760
3974.57391,0.09960
3976.50238,0.10391
3978.43084,0.10621
3980.35931,0.10429
3982.28778,0.10388
3984.21625,0.10953
3986.14472,0.11458
3988.07319,0.11370
3990.00166,0.11296
3991.93012,0.11462
3993.85859,0.11397
3995.78706,0.11092
3997.71553,0.10845
3999.64400,0.10680
4001.57247,0.10394
4003.50094,0.09946
4005.42941,0.09782
4007.35787,0.10192
4009.28634,0.10432
4011.21481,0.10141
4013.14328,0.10254
4015.07175,0.10845
4017.00022,0.10964
4018.92869,0.10566
4020.85715,0.10140
4022.78562,0.09730
4024.71409,0.09319
4026.64256,0.09286
4028.57103,0.09732
4030.49950,0.09942
4032.42797,0.09576
4034.35644,0.08984
4036.28490,0.08524
4038.21337,0.08507
4040.14184,0.08928
4042.07031,0.09479
4043.99878,0.09817
4045.92725,0.09910
4047.85572,0.10105
4049.78418,0.10303
4051.71265,0.10303
4053.64112,0.10338
4055.56959,0.10240
4057.49806,0.09667
4059.42653,0.09034
4061.35500,0.08810
4063.28346,0.08672
4065.21193,0.08569
4067.14040,0.08948
4069.06887,0.09661
4070.99734,0.10310
4072.92581,0.10510
4074.85428,0.10351
4076.78275,0.10459
4078.71121,0.10467
4080.63968,0.09861
4082.56815,0.08974
4084.49662,0.08336
4086.42509,0.08473
4088.35356,0.09215
4090.28203,0.09631
4092.21049,0.09457
4094.13896,0.09128
4096.06743,0.08690
4097.99590,0.08522
4099.92437,0.09074
4101.85284,0.09525
4103.78131,0.09178
4105.70978,0.08678
4107.63824,0.08630
4109.56671,0.08868
4111.49518,0.09204
4113.42365,0.09451
4115.35212,0.09553
4117.28059,0.09597
4119.20906,0.09239
4121.13752,0.08477
4123.06599,0.08220
4124.99446,0.08738
4126.92293,0.09040
4128.85140,0.08775
4130.77987,0.08526
4132.70834,0.08392
4134.63681,0.08443
4136.56527,0.08646
4138.49374,0.08470
4140.42221,0.08038
4142.35068,0.07674
4144.27915,0.07461
4146.20762,0.07638
4148.13609,0.07732
4150.06455,0.07390
4151.99302,0.07282
4153.92149,0.07750
4155.84996,0.08410
4157.77843,0.08920
4159.70690,0.09192
4161.63537,0.09183
4163.56384,0.08747
4165.49230,0.08268
4167.42077,0.08469
4169.34924,0.08669
4171.27771,0.08015
4173.20618,0.07251
4175.13465,0.07000
4177.06312,0.07105
4178.99158,0.07067
4180.92005,0.06866
4182.84852,0.07339
4184.77699,0.08259
4186.70546,0.08497
4188.63393,0.08268
4190.56240,0.08589
4192.49087,0.09008
4194.41933,0.08620
4196.34780,0.08050
4198.27627,0.07905
4200.20474,0.08047
4202.13321,0.08323
4204.06168,0.08203
4205.99015,0.07970
4207.91861,0.08233
4209.84708,0.08239
4211.77555,0.07604
4213.70402,0.06974
4215.63249,0.06675
4217.56096,0.06353
4219.48943,0.05921
4221.41789,0.06092
4223.34636,0.07048
4225.27483,0.08006
4227.20330,0.08207
4229.13177,0.07898
4231.06024,0.07719
4232.98871,0.07352
4234.91718,0.06686
4236.84564,0.06322
4238.77411,0.06412
4240.70258,0.06630
4242.63105,0.06527
4244.55952,0.06357
4246.48799,0.06776
4248.41646,0.07377
4250.34492,0.07580
4252.27339,0.07586
4254.20186,0.07412
4256.13033,0.07144
4258.05880,0.07112
4259.98727,0.07138
4261.91574,0.06935
4263.84421,0.06550
4265.77267,0.06261
4267.70114,0.06285
4269.62961,0.06244
4271.55808,0.05791
4273.48655,0.05509
4275.41502,0.05948
4277.34349,0.06662
4279.27195,0.06957
4281.20042,0.06904
4283.12889,0.06996
4285.05736,0.06924
4286.98583,0.06624
4288.91430,0.06888
4290.84277,0.07435
4292.77124,0.07304
4294.69970,0.06488
4296.62817,0.05704
4298.55664,0.05434
4300.48511,0.05632
4302.41358,0.05895
4304.34205,0.05888
4306.27052,0.05629
4308.19898,0.05519
4310.12745,0.06002
4312.05592,0.06359
4313.98439,0.05803
4315.91286,0.05046
4317.84133,0.04978
4319.76980,0.05394
4321.69827,0.05419
4323.62673,0.05052
4325.55520,0.04961
4327.48367,0.04938
4329.41214,0.04480
4331.34061,0.04080
4333.26908,0.04415
4335.19755,0.05095
4337.12601,0.05255
4339.05448,0.04812
4340.98295,0.04489
4342.91142,0.04506
4344.83989,0.04488
4346.76836,0.04402
4348.69683,0.04412
4350.62530,0.04536
4352.55376,0.04825
4354.48223,0.05110
4356.41070,0.04875
4358.33917,0.04361
4360.26764,0.04535
4362.19611,0.05217
4364.12458,0.05336
4366.05304,0.05025
4367.98151,0.04699
4369.90998,0.03878
4371.83845,0.02960
4373.76692,0.03325
4375.69539,0.04728
4377.62386,0.05200
4379.55232,0.04579
4381.48079,0.04126
4383.40926,0.04024
4385.33773,0.04253
4387.26620,0.04495
4389.19467,0.04148
4391.12314,0.03497
4393.05161,0.03115
4394.98007,0.03175
4396.90854,0.03242
4398.83701,0.02882
4400.76548,0.02752
4402.69395,0.03312
4404.62242,0.03845
4406.55089,0.03832
4408.47935,0.03602
4410.40782,0.03773
4412.33629,0.04405
4414.26476,0.04845
4416.19323,0.04612
4418.12170,0.04108
4420.05017,0.03892
4421.97864,0.03981
4423.90710,0.04066
4425.83557,0.03742
4427.76404,0.03434
4429.69251,0.03651
4431.62098,0.03646
4433.54945,0.03278
4435.47792,0.03425
4437.40638,0.03691
4439.33485,0.03436
4441.26332,0.03297
4443.19179,0.03431
4445.12026,0.03156
4447.04873,0.02430
4448.97720,0.02235
4450.90567,0.03115
4452.83413,0.04311
4454.76260,0.04575
4456.69107,0.03441
4458.61954,0.02269
4460.54801,0.02382
4462.47648,0.03187
4464.40495,0.03715
4466.33341,0.03882
4468.26188,0.03775
4470.19035,0.03026
4472.11882,0.01991
4474.04729,0.01858
4475.97576,0.02570
4477.90423,0.02865
4479.83270,0.02831
4481.76116,0.03104
4483.68963,0.03004
4485.61810,0.02319
4487.54657,0.01638
4489.47504,0.01183
4491.40351,0.01080
4493.33198,0.01180
4495.26044,0.01375
4497.18891,0.01839
4499.11738,0.01957
4501.04585,0.01278
4502.97432,0.00662
4504.90279,0.00818
4506.83126,0.01578
4508.75973,0.02078
4510.68819,0.01931
4512.61666,0.01619
4514.54513,0.01025
4516.47360,-0.00058
4518.40207,-0.00937
4520.33054,-0.00780
4522.25901,0.00112
4524.18747,0.01107
4526.11594,0.02137
4528.04441,0.02448
4529.97288,0.01547
4531.90135,0.00528
4533.82982,0.00596
4535.75829,0.01562
4537.68676,0.02343
4539.61522,0.02379
4541.54369,0.01972
4543.47216,0.01566
4545.40063,0.01035
4547.32910,0.00620
4549.25757,0.00846
4551.18604,0.01067
4553.11450,0.01058
4555.04297,0.01256
4556.97144,0.01032
4558.89991,0.00507
4560.82838,0.00932
4562.75685,0.01768
4564.68532,0.01451
4566.61378,0.00417
4568.54225,0.00150
4570.47072,0.00984
4572.39919,0.02040
4574.32766,0.02055
4576.25613,0.01273
4578.18460,0.01225
4580.11307,0.02106
4582.04153,0.02718
4583.97000,0.02653
4585.89847,0.02342
4587.82694,0.01898
4589.75541,0.01370
4591.68388,0.00623
4593.61235,-0.00203
4595.54081,-0.00176
4597.46928,0.00805
4599.39775,0.01653
4601.32622,0.02117
4603.25469,0.02726
4605.18316,0.02830
4607.11163,0.02321
4609.04010,0.02206
4610.96856,0.02050
4612.89703,0.01544
4614.82550,0.01300
4616.75397,0.01282
4618.68244,0.01387
4620.61091,0.01310
4622.53938,0.00689
4624.46784,0.00222
4626.39631,0.00516
4628.32478,0.01253
4630.25325,0.01736
4632.18172,0.01187
4634.11019,0.00411
4636.03866,0.01043
4637.96713,0.01987
4639.89559,0.01384
4641.82406,0.00505
4643.75253,0.01064
4645.68100,0.01965
4647.60947,0.01632
4649.53794,0.00290
4651.46641,-0.00911
4653.39487,-0.01333
4655.32334,-0.01181
4657.25181,-0.00891
4659.18028,-0.00459
4661.10875,0.00315
4663.03722,0.01385
4664.96569,0.01918
4666.89416,0.01419
4668.82262,0.01076
4670.75109,0.01309
4672.67956,0.00879
4674.60803,-0.00419
4676.53650,-0.01046
4678.46497,-0.00568
4680.39344,-0.00211
4682.32190,-0.00111
4684.25037,-0.00252
4686.17884,-0.00495
4688.10731,0.00135
4690.03578,0.01079
4691.96425,0.01342
4693.89272,0.01196
4695.82119,0.01022
4697.74965,0.01053
4699.67812,0.01323
4701.60659,0.01810
4703.53506,0.02018
4705.46353,0.00862
4707.39200,-0.00525
4709.32047,-0.00253
4711.24893,0.00392
4713.17740,-0.00335
4715.10587,-0.01332
4717.03434,-0.01397
4718.96281,-0.01581
4720.89128,-0.02149
4722.81975,-0.01951
4724.74821,-0.00958
4726.67668,0.00447
4728.60515,0.01635
4730.53362,0.01847
4732.46209,0.01365
4734.39056,0.00459
4736.31903,-0.00467
4738.24750,-0.00667
4740.17596,-0.00544
4742.10443,-0.00402
4744.03290,0.00650
4745.96137,0.02471
4747.88984,0.03125
4749.81831,0.02303
4751.74678,0.01721
4753.67524,0.01184
4755.60371,0.00402
4757.53218,0.00535
4759.46065,0.01231
4761.38912,0.01315
4763.31759,0.00942
4765.24606,0.00225
4767.17453,-0.00887
4769.10299,-0.01463
4771.03146,-0.01173
4772.95993,-0.00247
4774.88840,0.00660
4776.81687,0.00687
4778.74534,0.00488
4780.67381,0.00657
4782.60227,0.00777
4784.53074,0.00406
4786.45921,-0.00505
4788.38768,-0.00598
4790.31615,0.01206
4792.24462,0.02994
4794.17309,0.03188
4796.10156,0.02915
4798.03002,0.02696
4799.95849,0.02692
4801.88696,0.03312
4803.81543,0.03489
4805.74390,0.02485
4807.67237,0.01034
4809.60084,0.00097
4811.52930,-0.00154
4813.45777,-0.00279
4815.38624,-0.00063
4817.31471,0.00635
4819.24318,0.01005
4821.17165,0.00969
4823.10012,0.00902
4825.02859,0.01089
4826.95705,0.01164
4828.88552,-0.00041
4830.81399,-0.01708
4832.74246,-0.02100
4834.67093,-0.01675
4836.59940,-0.01120
4838.52787,0.00031
4840.45633,0.01530
4842.38480,0.02662
4844.31327,0.02978
4846.24174,0.02180
4848.17021,0.01059
4850.09868,0.00759
4852.02715,0.00819
4853.95562,0.00293
4855.88408,-0.00361
4857.81255,-0.00193
4859.74102,0.00896
4861.66949,0.01536
4863.59796,0.01244
4865.52643,0.01438
4867.45490,0.01730
4869.38336,0.01275
4871.31183,0.01300
4873.24030,0.01493
4875.16877,0.00498
4877.09724,-0.00355
4879.02571,0.00022
4880.95418,0.00454
4882.88265,0.00493
4884.81111,0.00896
4886.73958,0.01670
4888.66805,0.01670
4890.59652,0.00341
4892.52499,-0.00789
4894.45346,-0.00966
4896.38193,-0.01169
4898.31039,-0.00640
4900.23886,0.01280
4902.16733,0.02432
4904.09580,0.01553
4906.02427,0.00405
4907.95274,0.00064
4909.88121,-0.00143
4911.80967,0.00511
4913.73814,0.01787
4915.66661,0.01940
4917.59508,0.01539
4919.52355,0.01127
4921.45202,0.00389
4923.38049,0.00767
4925.30896,0.02538
4927.23742,0.03254
4929.16589,0.02578
4931.09436,0.02023
4933.02283,0.01216
4934.95130,0.00448
4936.87977,0.01148
4938.80824,0.02368
4940.73670,0.02809
4942.66517,0.02900
4944.59364,0.02954
4946.52211,0.02736
4948.45058,0.01941
4950.37905,0.00854
4952.30752,0.00392
4954.23599,0.01043
4956.16445,0.02297
4958.09292,0.02699
4960.02139,0.01428
4961.94986,-0.00120
4963.87833,-0.00010
4965.80680,0.01128
4967.73527,0.01295
4969.66373,0.01004
4971.59220,0.01671
4973.52067,0.02391
4975.44914,0.01782
4977.37761,0.00779
4979.30608,0.00245
4981.23455,-0.00691
4983.16302,-0.00960
4985.09148,0.00469
4987.01995,0.01558
4988.94842,0.01419
4990.87689,0.00931
4992.80536,0.00561
4994.73383,0.00915
4996.66230,0.01958
4998.59076,0.01838
5000.51923,-0.00214
5002.44770,-0.01317
5004.37617,0.00079
5006.30464,0.01422
5008.23311,0.01640
5010.16158,0.01863
5012.09005,0.02428
5014.01851,0.02911
5015.94698,0.03448
5017.87545,0.04201
5019.80392,0.04165
5021.73239,0.02733
5023.66086,0.00939
5025.58933,0.00350
5027.51779,0.00819
5029.44626,0.00921
5031.37473,0.01051
5033.30320,0.01883
5035.23167,0.02507
5037.16014,0.03026
5039.08861,0.03921
5041.01708,0.03695
5042.94554,0.02157
5044.87401,0.01708
5046.80248,0.02633
5048.73095,0.02970
5050.65942,0.01901
5052.58789,0.00042
5054.51636,-0.00613
5056.44482,0.00280
5058.37329,0.00316
5060.30176,-0.01209
5062.23023,-0.02662
5064.15870,-0.02450
5066.08717,-0.01199
5068.01564,-0.00776
5069.94410,-0.00092
5071.87257,0.01703
5073.80104,0.02533
5075.72951,0.02507
5077.65798,0.03004
5079.58645,0.03183
5081.51492,0.02526
5083.44339,0.01559
5085.37185,0.01293
5087.30032,0.02321
5089.22879,0.03245
5091.15726,0.02859
5093.08573,0.02163
5095.01420,0.02507
5096.94267,0.03621
5098.87113,0.04891
5100.79960,0.05649
5102.72807,0.04816
5104.65654,0.03107
5106.58501,0.01945
5108.51348,0.01031
5110.44195,-0.00050
5112.37042,0.00019
5114.29888,0.01451
5116.22735,0.02426
5118.15582,0.02793
5120.08429,0.02905
5122.01276,0.02253
5123.94123,0.01866
5125.86970,0.02347
5127.79816,0.02585
5129.72663,0.03018
5131.65510,0.04072
5133.58357,0.04750
5135.51204,0.05612
5137.44051,0.06458
5139.36898,0.05331
5141.29745,0.02871
5143.22591,0.01473
5145.15438,0.02083
5147.08285,0.03562
5149.01132,0.04468
5150.93979,0.04727
5152.86826,0.03512
5154.79673,0.01604
5156.72519,0.02407
5158.65366,0.04192
5160.58213,0.03572
5162.51060,0.02895
5164.43907,0.03614
5166.36754,0.03559
5168.29601,0.02350
5170.22448,0.01266
5172.15294,0.00883
5174.08141,0.01011
5176.00988,0.01767
5177.93835,0.02540
5179.86682,0.02290
5181.79529,0.01660
5183.72376,0.00964
5185.65222,0.00731
5187.58069,0.01798
5189.50916,0.03253
5191.43763,0.04742
5193.36610,0.05795
5195.29457,0.05298
5197.22304,0.03480
5199.15151,0.02317
5201.07997,0.02967
5203.00844,0.04203
5204.93691,0.05363
5206.86538,0.06830
5208.79385,0.07201
5210.72232,0.05879
5212.65079,0.04921
5214.57925,0.04411
5216.50772,0.03568
5218.43619,0.03404
5220.36466,0.04399
5222.29313,0.06015
5224.22160,0.06709
5226.15007,0.05957
5228.07854,0.05842
5230.00700,0.06386
5231.93547,0.06442
5233.86394,0.07146
5235.79241,0.08713
5237.72088,0.09037
5239.64935,0.07082
5241.57782,0.03516
5243.50628,0.00446
5245.43475,-0.00108
5247.36322,0.01113
5249.29169,0.02446
5251.22016,0.02758
5253.14863,0.02642
5255.07710,0.03363
5257.00556,0.04738
5258.93403,0.05558
5260.86250,0.05023
5262.79097,0.05278
5264.71944,0.07077
5266.64791,0.06329
5268.57638,0.04116
5270.50485,0.03976
5272.43331,0.04153
5274.36178,0.03301
5276.29025,0.03083
5278.21872,0.04365
5280.14719,0.06080
5282.07566,0.06404
5284.00413,0.05737
5285.93259,0.05667
5287.86106,0.05614
5289.78953,0.05069
5291.71800,0.05405
5293.64647,0.05872
5295.57494,0.05078
5297.50341,0.05251
5299.43188,0.06763
5301.36034,0.06759
5303.28881,0.05953
5305.21728,0.05533
5307.14575,0.04899
5309.07422,0.04757
5311.00269,0.04937
5312.93116,0.04738
5314.85962,0.04366
5316.78809,0.03905
5318.71656,0.03083
5320.64503,0.02704
5322.57350,0.03667
5324.50197,0.04997
5326.43044,0.05696
5328.35891,0.05066
5330.28737,0.03315
5332.21584,0.02669
5334.14431,0.04244
5336.07278,0.05526
5338.00125,0.04770
5339.92972,0.04130
5341.85819,0.05093
5343.78665,0.07108
5345.71512,0.08880
5347.64359,0.09279
5349.57206,0.08096
5351.50053,0.05166
5353.42900,0.01940
5355.35747,0.00960
5357.28594,0.02322
5359.21440,0.04038
5361.14287,0.04586
5363.07134,0.03828
5364.99981,0.03998
5366.92828,0.06834
5368.85675,0.08995
5370.78522,0.08141
5372.71368,0.07275
5374.64215,0.07744
5376.57062,0.07643
5378.49909,0.06198
5380.42756,0.03456
5382.35603,0.01216
5384.28450,0.01793
5386.21297,0.03945
5388.14143,0.04986
5390.06990,0.05700
5391.99837,0.07198
5393.92684,0.06699
5395.85531,0.03629
5397.78378,0.02898
5399.71225,0.04541
5401.64071,0.05251
5403.56918,0.05090
5405.49765,0.05801
5407.42612,0.07202
5409.35459,0.07927
5411.28306,0.07641
5413.21153,0.06076
5415.13999,0.03621
5417.06846,0.03445
5418.99693,0.06701
5420.92540,0.09946
5422.85387,0.09276
5424.78234,0.05934
5426.71081,0.03115
5428.63928,0.00540
5430.56774,-0.00521
5432.49621,0.01946
5434.42468,0.04127
5436.35315,0.03129
5438.28162,0.02478
5440.21009,0.04776
5442.13856,0.08550
5444.06702,0.10988
5445.99549,0.11165
5447.92396,0.08946
5449.85243,0.05484
5451.78090,0.04289
5453.70937,0.06092
5455.63784,0.07458
5457.56631,0.05874
5459.49477,0.03748
5461.42324,0.04050
5463.35171,0.05610
5465.28018,0.06513
5467.20865,0.07107
5469.13712,0.07566
5471.06559,0.08224
5472.99405,0.10769
5474.92252,0.13666
5476.85099,0.12632
5478.77946,0.09599
5480.70793,0.07857
5482.63640,0.07009
5484.56487,0.06733
5486.49334,0.07134
5488.42180,0.07660
5490.35027,0.07550
5492.27874,0.06644
5494.20721,0.07357
5496.13568,0.10142
5498.06415,0.11398
5499.99262,0.10397
5501.92108,0.08479
5503.84955,0.05945
5505.77802,0.04357
5507.70649,0.04641
5509.63496,0.05741
5511.56343,0.06012
5513.49190,0.04985
5515.42037,0.04653
5517.34883,0.05293
5519.27730,0.04962
5521.20577,0.04170
5523.13424,0.04203
5525.06271,0.04842
5526.99118,0.05203
5528.91965,0.05156
5530.84811,0.05432
5532.77658,0.05644
5534.70505,0.07085
5536.63352,0.10365
5538.56199,0.11943
5540.49046,0.11025
5542.41893,0.09091
5544.34740,0.06741
5546.27586,0.04675
5548.20433,0.02983
5550.13280,0.02045
5552.06127,0.02478
5553.98974,0.05327
5555.91821,0.09519
5557.84668,0.10809
5559.77514,0.09273
5561.70361,0.07893
5563.63208,0.07222
5565.56055,0.06954
5567.48902,0.06386
5569.41749,0.06746
5571.34596,0.08476
5573.27443,0.08943
5575.20289,0.07643
5577.13136,0.06641
5579.05983,0.07649
5580.98830,0.09660
5582.91677,0.10129
5584.84524,0.09893
5586.77371,0.08731
5588.70217,0.06643
5590.63064,0.07846
5592.55911,0.09897
5594.48758,0.07724
5596.41605,0.05290
5598.34452,0.06174
5600.27299,0.07689
5602.20145,0.07558
5604.12992,0.05898
5606.05839,0.04814
5607.98686,0.05287
5609.91533,0.04408
5611.84380,0.02506
5613.77227,0.02740
5615.70074,0.04146
5617.62920,0.07092
5619.55767,0.12099
5621.48614,0.15232
5623.41461,0.14259
5625.34308,0.12502
5627.27155,0.12600
5629.20002,0.10994
5631.12848,0.07226
5633.05695,0.05353
5634.98542,0.05080
5636.91389,0.04011
5638.84236,0.02814
5640.77083,0.04110
5642.69930,0.07605
5644.62777,0.09737
5646.55623,0.09657
5648.48470,0.08990
5650.41317,0.08093
5652.34164,0.07728
5654.27011,0.07654
5656.19858,0.06481
5658.12705,0.06036
5660.05551,0.07604
5661.98398,0.08487
5663.91245,0.08158
5665.84092,0.07538
5667.76939,0.06121
5669.69786,0.05437
5671.62633,0.07116
5673.55480,0.09443
5675.48326,0.09676
5677.41173,0.09213
5679.34020,0.10209
5681.26867,0.09346
5683.19714,0.06001
5685.12561,0.04170
5687.05408,0.04394
5688.98254,0.06062
5690.91101,0.08105
5692.83948,0.07104
5694.76795,0.04240
5696.69642,0.03869
5698.62489,0.06167
5700.55336,0.07207
5702.48183,0.05942
5704.41029,0.06931
5706.33876,0.10057
5708.26723,0.11555
5710.19570,0.11527
5712.12417,0.10239
5714.05264,0.07543
5715.98111,0.05225
5717.90957,0.05663
5719.83804,0.07598
5721.76651,0.08199
5723.69498,0.08548
5725.62345,0.09379
5727.55192,0.09867
5729.48039,0.09906
5731.40886,0.09838
5733.33732,0.10429
5735.26579,0.11469
5737.19426,0.11717
5739.12273,0.10026
5741.05120,0.06237
5742.97967,0.03241
5744.90814,0.03357
5746.83660,0.06465
5748.76507,0.11593
5750.69354,0.14451
5752.62201,0.12487
5754.55048,0.09277
5756.47895,0.07483
5758.40742,0.07757
5760.33588,0.08898
5762.26435,0.08111
5764.19282,0.05980
5766.12129,0.06532
5768.04976,0.10215
5769.97823,0.12592
5771.90670,0.11192
5773.83517,0.09056
5775.76363,0.08842
5777.69210,0.09480
5779.62057,0.10486
5781.54904,0.12180
5783.47751,0.12608
5785.40598,0.10236
5787.33445,0.06043
5789.26291,0.03032
5791.19138,0.04771
5793.11985,0.08803
5795.04832,0.08912
5796.97679,0.05717
5798.90526,0.03721
5800.83373,0.03992
5802.76220,0.06474
5804.69066,0.08588
5806.61913,0.06018
5808.54760,0.02527
5810.47607,0.03997
5812.40454,0.07816
5814.33301,0.08931
5816.26148,0.08723
5818.18994,0.10661
5820.11841,0.12658
5822.04688,0.11958
5823.97535,0.09072
5825.90382,0.06801
5827.83229,0.08520
5829.76076,0.10920
5831.68923,0.11077
5833.61769,0.12022
5835.54616,0.13217
5837.47463,0.11505
5839.40310,0.07807
5841.33157,0.05435
5843.26004,0.03978
5845.18851,0.01459
5847.11697,0.00114
5849.04544,0.03531
5850.97391,0.09878
5852.90238,0.12884
5854.83085,0.10454
5856.75932,0.06994
5858.68779,0.06194
5860.61626,0.07176
5862.54472,0.09130
5864.47319,0.10870
5866.40166,0.12173
5868.33013,0.11489
5870.25860,0.05688
5872.18707,-0.00385
5874.11554,0.00496
5876.04400,0.07288
5877.97247,0.14405
5879.90094,0.19409
5881.82941,0.19100
5883.75788,0.13009
5885.68635,0.07348
5887.61482,0.05030
5889.54329,0.04351
5891.47175,0.05075
5893.40022,0.08262
5895.32869,0.11550
5897.25716,0.10502
5899.18563,0.07503
5901.11410,0.08397
5903.04257,0.11027
5904.97103,0.09940
5906.89950,0.06785
5908.82797,0.05110
5910.75644,0.04526
5912.68491,0.04098
5914.61338,0.03910
5916.54185,0.04693
5918.47032,0.08421
5920.39878,0.12244
5922.32725,0.10612
5924.25572,0.06621
5926.18419,0.06403
5928.11266,0.08569
5930.04113,0.09569
5931.96960,0.10003
5933.89806,0.09863
5935.82653,0.07849
5937.75500,0.06695
5939.68347,0.08267
5941.61194,0.08531
5943.54041,0.06263
5945.46888,0.06215
5947.39734,0.09147
5949.32581,0.11398
5951.25428,0.12205
5953.18275,0.14438
5955.11122,0.17024
5957.03969,0.17046
5958.96816,0.15039
5960.89663,0.10417
5962.82509,0.04665
5964.75356,0.03170
5966.68203,0.05922
5968.61050,0.07621
5970.53897,0.07170
5972.46744,0.08405
5974.39591,0.10438
5976.32437,0.09306
5978.25284,0.07706
5980.18131,0.07631
5982.10978,0.06649
5984.03825,0.05036
5985.96672,0.02478
5987.89519,-0.00388
5989.82366,0.01251
5991.75212,0.08191
5993.68059,0.16200
5995.60906,0.18380
5997.53753,0.13837
5999.46600,0.09921
6001.39447,0.08062
6003.32294,0.06349
6005.25140,0.06654
6007.17987,0.07324
6009.10834,0.04309
6011.03681,0.02799
6012.96528,0.07805
6014.89375,0.11546
6016.82222,0.08622
6018.75069,0.08175
6020.67915,0.14830
6022.60762,0.18965
6024.53609,0.16956
6026.46456,0.13667
6028.39303,0.10014
6030.32150,0.05604
6032.24997,0.03926
6034.17843,0.05176
6036.10690,0.07592
6038.03537,0.10993
6039.96384,0.12931
6041.89231,0.11514
6043.82078,0.08352
6045.74925,0.06549
6047.67772,0.05566
6049.60618,0.05101
6051.53465,0.06335
6053.46312,0.05805
6055.39159,0.03973
6057.32006,0.04498
6059.24853,0.06360
6061.17700,0.11479
6063.10546,0.19104
6065.03393,0.21522
6066.96240,0.18378
6068.89087,0.15539
6070.81934,0.14044
6072.74781,0.11860
6074.67628,0.10787
6076.60475,0.11230
6078.53321,0.11209
6080.46168,0.12699
6082.39015,0.13000
6084.31862,0.07049
6086.24709,0.02024
6088.17556,0.05305
6090.10403,0.10596
6092.03249,0.12791
6093.96096,0.14159
6095.88943,0.13893
6097.81790,0.09660
6099.74637,0.07335
6101.67484,0.09519
6103.60331,0.10226
6105.53177,0.08325
6107.46024,0.05523
6109.38871,0.02552
6111.31718,0.03398
6113.24565,0.07880
6115.17412,0.11001
6117.10259,0.13901
6119.03106,0.16195
6120.95952,0.14071
6122.88799,0.11279
6124.81646,0.09617
6126.74493,0.07244
6128.67340,0.05437
6130.60187,0.06878
6132.53034,0.11073
6134.45880,0.12276
6136.38727,0.05985
6138.31574,-0.02195
6140.24421,-0.02066
6142.17268,0.05590
6144.10115,0.12018
6146.02962,0.14394
6147.95809,0.14117
6149.88655,0.12706
6151.81502,0.12457
6153.74349,0.13428
6155.67196,0.14090
6157.60043,0.14696
6159.52890,0.13551
6161.45737,0.10325
6163.38583,0.09309
6165.31430,0.11693
6167.24277,0.12710
6169.17124,0.09265
6171.09971,0.05938
6173.02818,0.07290
6174.95665,0.10033
6176.88512,0.09649
6178.81358,0.07783
6180.74205,0.08867
6182.67052,0.09814
6184.59899,0.07200
6186.52746,0.04422
6188.45593,0.04794
6190.38440,0.08895
6192.31286,0.13628
6194.24133,0.14670
6196.16980,0.11523
6198.09827,0.06474
6200.02674,0.04358
6201.95521,0.09205
6203.88368,0.17500
6205.81215,0.19574
6207.74061,0.12982
6209.66908,0.04977
6211.59755,0.02685
6213.52602,0.07845
6215.45449,0.14674
6217.38296,0.16099
6219.31143,0.16541
6221.23989,0.18115
6223.16836,0.15706
6225.09683,0.10423
6227.02530,0.07451
6228.95377,0.10213
6230.88224,0.15599
6232.81071,0.16094
6234.73918,0.11006
6236.66764,0.07724
6238.59611,0.09910
6240.52458,0.13747
6242.45305,0.15521
6244.38152,0.13415
6246.30999,0.09039
6248.23846,0.09061
6250.16692,0.13161
6252.09539,0.12362
6254.02386,0.07196
6255.95233,0.05148
6257.88080,0.05326
6259.80927,0.05409
6261.73774,0.06100
6263.66621,0.06886
6265.59467,0.09491
6267.52314,0.12453
6269.45161,0.12600
6271.38008,0.11715
6273.30855,0.11241
6275.23702,0.11471
6277.16549,0.10715
6279.09395,0.09118
6281.02242,0.08680
6282.95089,0.09051
6284.87936,0.08052
6286.80783,0.04815
6288.73630,0.02244
6290.66477,0.00990
6292.59323,0.00896
6294.52170,0.02274
6296.45017,0.02882
6298.37864,0.04880
6300.30711,0.11271
6302.23558,0.18832
6304.16405,0.20261
6306.09252,0.14894
6308.02098,0.12375
6309.94945,0.14325
6311.87792,0.11453
6313.80639,0.06286
6315.73486,0.05336
6317.66333,0.05320
6319.59180,0.03502
6321.52026,0.04672
6323.44873,0.10156
6325.37720,0.11988
6327.30567,0.10333
6329.23414,0.10973
6331.16261,0.11924
6333.09108,0.10810
6335.01955,0.08846
6336.94801,0.07245
6338.87648,0.06243
6340.80495,0.04333
6342.73342,0.01635
6344.66189,0.00386
6346.59036,0.02812
6348.51883,0.07023
6350.44729,0.06439
6352.37576,0.03988
6354.30423,0.07335
6356.23270,0.09990
6358.16117,0.05832
6360.08964,0.01556
6362.01811,0.05077
6363.94658,0.13856
6365.87504,0.18218
6367.80351,0.12889
6369.73198,0.04177
6371.66045,0.01300
6373.58892,0.04532
6375.51739,0.07219
6377.44586,0.07273
6379.37432,0.03642
6381.30279,-0.02304
6383.23126,-0.02473
6385.15973,0.02974
6387.08820,0.05438
6389.01667,0.06951
6390.94514,0.09899
6392.87361,0.08912
6394.80207,0.02368
6396.73054,-0.01616
6398.65901,-0.00066
6400.58748,0.03046
6402.51595,0.05047
6404.44442,0.06783
6406.37289,0.08379
6408.30135,0.10527
6410.22982,0.12437
6412.15829,0.08992
6414.08676,0.02605
6416.01523,0.01437
6417.94370,0.07233
6419.87217,0.11601
6421.80064,0.08288
6423.72910,0.04270
6425.65757,0.04422
6427.58604,0.05738
6429.51451,0.06729
6431.44298,0.05351
6433.37145,0.00898
6435.29992,-0.02387
6437.22838,-0.00318
6439.15685,0.06922
6441.08532,0.10774
6443.01379,0.04783
6444.94226,-0.03978
6446.87073,-0.03419
6448.79920,0.02656
6450.72766,0.03862
6452.65613,0.03747
6454.58460,0.07074
6456.51307,0.09805
6458.44154,0.10429
6460.37001,0.11495
6462.29848,0.15818
6464.22695,0.21540
6466.15541,0.23133
6468.08388,0.17916
6470.01235,0.12030
6471.94082,0.14968
6473.86929,0.20075
6475.79776,0.15423
6477.72623,0.05452
6479.65469,0.03262
6481.58316,0.10462
6483.51163,0.17153
6485.44010,0.17899
6487.36857,0.15026
6489.29704,0.09301
6491.22551,0.01516
6493.15398,-0.04454
6495.08244,-0.08273
6497.01091,-0.10239
6498.93938,-0.08385
6500.86785,-0.04995
6502.79632,-0.03919
6504.72479,-0.00828
6506.65326,0.10136
6508.58172,0.21127
6510.51019,0.20882
6512.43866,0.15260
6514.36713,0.12480
6516.29560,0.07741
6518.22407,0.01859
6520.15254,0.00533
6522.08101,0.02667
6524.00947,0.09813
6525.93794,0.18676
6527.86641,0.16741
6529.79488,0.07738
6531.72335,0.04956
6533.65182,0.06809
6535.58029,0.05710
6537.50875,0.08445
6539.43722,0.18336
6541.36569,0.21180
6543.29416,0.15825
6545.22263,0.12652
6547.15110,0.07764
6549.07957,-0.00851
6551.00804,-0.04816
6552.93650,-0.04167
6554.86497,-0.03188
6556.79344,0.00001
6558.72191,0.03520
6560.65038,0.04204
6562.57885,0.06087
6564.50732,0.13961
6566.43578,0.20873
6568.36425,0.18079
6570.29272,0.11124
6572.22119,0.09649
6574.14966,0.14305
6576.07813,0.17245
6578.00660,0.16133
6579.93507,0.14082
6581.86353,0.08478
6583.79200,-0.00896
6585.72047,-0.08923
6587.64894,-0.12806
6589.57741,-0.13150
6591.50588,-0.14351
6593.43435,-0.14777
6595.36281,-0.09094
6597.29128,-0.00595
6599.21975,0.10399
6601.14822,0.22011
6603.07669,0.22746
6605.00516,0.14655
6606.93363,0.10067
6608.86210,0.12399
6610.79056,0.13325
6612.71903,0.10321
6614.64750,0.11690
6616.57597,0.14718
6618.50444,0.10981
6620.43291,0.08176
6622.36138,0.12693
6624.28984,0.11901
6626.21831,-0.00486
6628.14678,-0.08508
6630.07525,-0.02395
6632.00372,0.04621
6633.93219,0.04975
6635.86066,0.04521
6637.78912,0.05794
6639.71759,0.07398
6641.64606,0.06977
6643.57453,0.01853
6645.50300,-0.05140
6647.43147,-0.09365
6649.35994,-0.06145
6651.28841,0.03188
6653.21687,0.10691
6655.14534,0.12971
6657.07381,0.10853
6659.00228,0.08972
6660.93075,0.11788
6662.85922,0.13278
6664.78769,0.07885
6666.71615,0.01396
6668.64462,0.04199
6670.57309,0.14838
6672.50156,0.17739
6674.43003,0.09007
6676.35850,0.04611
6678.28697,0.09754
6680.21544,0.15447
6682.14390,0.15601
6684.07237,0.10409
6686.00084,0.03595
6687.92931,0.00016
6689.85778,-0.00259
6691.78625,-0.02180
6693.71472,-0.03525
6695.64318,0.00030
6697.57165,0.07325
6699.50012,0.11673
6701.42859,0.08305
6703.35706,0.06874
6705.28553,0.10998
6707.21400,0.10379
6709.14247,0.10080
6711.07093,0.10447
6712.99940,0.02257
6714.92787,-0.03601
6716.85634,0.01802
6718.78481,0.04105
6720.71328,-0.05264
6722.64175,-0.18975
6724.57021,-0.22874
6726.49868,-0.10261
6728.42715,0.06226
6730.35562,0.15823
6732.28409,0.21053
6734.21256,0.24257
6736.14103,0.19307
6738.06950,0.05811
6739.99796,-0.02259
6741.92643,0.01978
6743.85490,0.07117
6745.78337,0.11356
6747.71184,0.18711
6749.64031,0.19611
6751.56878,0.07410
6753.49724,-0.02859
6755.42571,0.04336
6757.35418,0.13101
6759.28265,0.07009
6761.21112,0.00020
6763.13959,0.03455
6765.06806,0.10486
6766.99653,0.18929
6768.92499,0.27858
6770.85346,0.31645
6772.78193,0.24656
6774.71040,0.10395
6776.63887,-0.02681
6778.56734,-0.07006
6780.49581,-0.01968
6782.42427,0.01719
6784.35274,0.00191
6786.28121,0.03299
6788.20968,0.08934
6790.13815,0.08562
6792.06662,0.03147
6793.99509,0.00882
6795.92355,0.05837
6797.85202,0.12624
6799.78049,0.18133
6801.70896,0.21871
6803.63743,0.16053
6805.56590,0.04552
6807.49437,0.01670
6809.42284,0.06250
6811.35130,0.11244
6813.27977,0.12382
6815.20824,0.14017
6817.13671,0.15361
6819.06518,0.06336
6820.99365,-0.02538
6822.92212,0.02972
6824.85058,0.12531
6826.77905,0.16084
6828.70752,0.14882
6830.63599,0.07288
6832.56446,0.00184
6834.49293,0.03726
6836.42140,0.07805
6838.34987,-0.02489
6840.27833,-0.15954
6842.20680,-0.19834
6844.13527,-0.13119
6846.06374,-0.02078
6847.99221,0.07951
6849.92068,0.16530
6851.84915,0.18555
6853.77761,0.10501
6855.70608,-0.03525
6857.63455,-0.13416
6859.56302,-0.14500
6861.49149,-0.07353
6863.41996,0.02795
6865.34843,0.07670
6867.27690,0.06910
6869.20536,0.08846
6871.13383,0.16333
6873.06230,0.18566
6874.99077,0.11032
6876.91924,0.04733
6878.84771,0.01036
6880.77618,-0.02564
6882.70464,-0.00688
6884.63311,0.03912
6886.56158,0.02849
6888.49005,-0.00108
6890.41852,-0.00068
6892.34699,-0.01558
6894.27546,-0.00202
6896.20393,0.09432
6898.13239,0.22258
6900.06086,0.27687
6901.98933,0.18655
6903.91780,0.03307
6905.84627,0.00313
6907.77474,0.07153
6909.70321,0.10232
6911.63167,0.12322
6913.56014,0.11445
6915.48861,0.05226
6917.41708,0.08577
6919.34555,0.18878
6921.27402,0.17253
6923.20249,0.10831
6925.13096,0.07230
6927.05942,0.03124
6928.98789,0.03757
6930.91636,0.10630
6932.84483,0.08950
6934.77330,0.01797
6936.70177,0.02046
6938.63024,0.06906
6940.55870,0.09675
6942.48717,0.10881
6944.41564,0.13173
6946.34411,0.14642
6948.27258,0.13144
6950.20105,0.09664
6952.12952,0.07977
6954.05799,0.07821
6955.98645,0.03110
6957.91492,-0.04131
6959.84339,-0.03533
6961.77186,0.04582
6963.70033,0.08666
6965.62880,0.03999
6967.55727,-0.07358
6969.48573,-0.19330
6971.41420,-0.25658
6973.34267,-0.21269
6975.27114,-0.03694
6977.19961,0.11059
6979.12808,0.11359
6981.05655,0.09242
6982.98501,0.08830
6984.91348,0.02732
6986.84195,0.05383
6988.77042,0.13444
6990.69889,0.02715
6992.62736,-0.12660
6994.55583,-0.15699
6996.48430,-0.10569
6998.41276,-0.06793
7000.34123,-0.07305
7002.26970,-0.04282
7004.19817,0.00022
7006.12664,0.03169
7008.05511,0.06036
7009.98358,0.03654
7011.91204,-0.00327
7013.84051,-0.01132
7015.76898,0.00275
7017.69745,0.07112
7019.62592,0.14717
7021.55439,0.14687
7023.48286,0.11561
7025.41133,0.06338
7027.33979,0.00301
7029.26826,0.01625
7031.19673,0.03285
7033.12520,0.01954
7035.05367,0.01915
7036.98214,-0.00920
7038.91061,-0.04859
7040.83907,-0.03821
7042.76754,0.03768
7044.69601,0.09213
7046.62448,0.02065
7048.55295,-0.12671
7050.48142,-0.15857
7052.40989,-0.03198
7054.33836,0.12167
7056.26682,0.22546
7058.19529,0.26139
7060.12376,0.18816
7062.05223,0.04547
7063.98070,-0.01662
7065.90917,0.05615
7067.83764,0.14045
7069.76610,0.19434
7071.69457,0.19061
7073.62304,0.11469
7075.55151,0.06647
7077.47998,0.06061
7079.40845,0.03014
7081.33692,-0.01147
7083.26539,-0.01066
7085.19385,0.01130
7087.12232,0.05216
7089.05079,0.08481
7090.97926,0.10144
7092.90773,0.07290
7094.83620,0.00192
7096.76467,0.03473
7098.69313,0.11473
7100.62160,0.06511
7102.55007,0.00393
7104.47854,0.05255
7106.40701,0.13910
7108.33548,0.17432
7110.26395,0.24200
7112.19242,0.32321
7114.12088,0.27733
7116.04935,0.12999
7117.97782,0.03913
7119.90629,0.13214
7121.83476,0.21340
7123.76323,0.09960
7125.69170,-0.03643
7127.62016,-0.01723
7129.54863,0.07607
7131.47710,0.15563
7133.40557,0.21128
7135.33404,0.24603
7137.26251,0.27907
7139.19098,0.25446
7141.11944,0.11048
7143.04791,-0.05965
7144.97638,-0.17178
7146.90485,-0.17721
7148.83332,-0.11569
7150.76179,-0.06463
7152.69026,0.00105
7154.61873,0.10496
7156.54719,0.18328
7158.47566,0.18170
7160.40413,0.15012
7162.33260,0.15231
7164.26107,0.14331
7166.18954,0.03120
7168.11801,-0.12750
7170.04647,-0.11755
7171.97494,0.03823
7173.90341,0.10296
7175.83188,0.04152
7177.76035,-0.01290
7179.68882,0.02234
7181.61729,-0.00206
7183.54576,-0.11578
7185.47422,-0.10287
7187.40269,-0.06017
7189.33116,-0.10618
7191.25963,-0.07697
7193.18810,0.08545
7195.11657,0.17273
7197.04504,0.14463
7198.97350,0.07291
7200.90197,-0.00282
7202.83044,0.02698
7204.75891,0.22146
7206.68738,0.25538
7208.61585,0.09271
7210.54432,0.00651
7212.47279,-0.01051
7214.40125,-0.10767
7216.32972,-0.22605
7218.25819,-0.08793
7220.18666,0.24210
7222.11513,0.39169
7224.04360,0.27203
7225.97207,0.06703
7227.90053,0.01649
7229.82900,0.01890
7231.75747,-0.00473
7233.68594,0.08354
7235.61441,0.16498
7237.54288,0.06315
7239.47135,-0.00951
7241.39982,0.14864
7243.32828,0.25524
7245.25675,0.10874
7247.18522,-0.05247
7249.11369,-0.08177
7251.04216,0.08919
7252.97063,0.33831
7254.89910,0.33418
7256.82756,0.18839
7258.75603,0.11357
7260.68450,0.14663
7262.61297,0.18131
7264.54144,0.11252
7266.46991,-0.01908
7268.39838,-0.17941
7270.32685,-0.33542
7272.25531,-0.32180
7274.18378,-0.16776
7276.11225,-0.08269
7278.04072,0.00701
7279.96919,0.24690
7281.89766,0.50362
7283.82613,0.55775
7285.75459,0.42030
7287.68306,0.18600
7289.61153,-0.00424
7291.54000,-0.03249
7293.46847,0.00907
7295.39694,-0.08546
7297.32541,-0.21994
7299.25387,-0.11144
7301.18234,0.14763
7303.11081,0.21382
7305.03928,-0.00046
7306.96775,-0.19902
7308.89622,-0.13147
7310.82469,0.03241
7312.75316,0.11703
7314.68162,0.12893
7316.61009,0.16060
7318.53856,0.24554
7320.46703,0.23916
7322.39550,0.20603
7324.32397,0.22790
7326.25244,0.19654
7328.18090,0.16417
7330.10937,0.19083
7332.03784,0.14293
7333.96631,0.06411
7335.89478,0.10514
7337.82325,0.31332
7339.75172,0.50991
7341.68019,0.39809
7343.60865,0.26246
7345.53712,0.20211
7347.46559,0.05939
7349.39406,-0.09105
7351.32253,-0.09151
7353.25100,0.07240
7355.17947,0.25544
7357.10793,0.24161
7359.03640,0.15010
7360.96487,0.13001
7362.89334,0.00972
7364.82181,-0.00792
7366.75028,0.10412
7368.67875,0.11338
7370.60722,0.08941
7372.53568,0.14483
7374.46415,0.15621
7376.39262,0.05146
7378.32109,0.04820
7380.24956,0.18413
7382.17803,0.27388
7384.10650,0.13586
7386.03496,-0.07534
7387.96343,-0.16821
7389.89190,-0.16010
7391.82037,-0.06407
7393.74884,0.05960
7395.67731,0.07347
7397.60578,0.07100
7399.53425,0.18620
7401.46271,0.21994
7403.39118,0.07429
7405.31965,0.01229
7407.24812,0.09699
7409.17659,0.14018
7411.10506,0.13702
7413.03353,0.15032
7414.96199,0.15361
7416.89046,0.13883
7418.81893,0.13672
7420.74740,0.20289
7422.67587,0.30561
7424.60434,0.32417
7426.53281,0.27463
7428.46128,0.19587
7430.38974,0.07648
7432.31821,-0.02005
7434.24668,-0.03478
7436.17515,0.03937
7438.10362,0.12803
7440.03209,0.19438
7441.96056,0.26139
7443.88902,0.24681
7445.81749,0.13589
7447.74596,0.04665
7449.67443,0.02637
7451.60290,0.03357
7453.53137,-0.00272
7455.45984,-0.05263
7457.38831,0.00637
7459.31677,0.16581
7461.24524,0.15576
7463.17371,-0.03627
7465.10218,-0.17233
7467.03065,-0.17291
7468.95912,-0.06012
7470.88759,0.05692
7472.81605,0.07156
7474.74452,0.10124
7476.67299,0.18926
7478.60146,0.17275
7480.52993,0.01855
7482.45840,-0.12165
7484.38687,-0.13010
7486.31533,-0.04877
7488.24380,0.01375
7490.17227,0.06303
7492.10074,0.13082
7494.02921,0.16178
7495.95768,0.19257
7497.88615,0.22152
