399.19301,1.37906
401.12148,0.59682
403.04995,0.30718
404.97842,0.16050
406.90689,0.06577
408.83536,0.02397
410.76382,-0.00565
412.69229,-0.00264
414.62076,0.00348
416.54923,-0.02669
418.47770,-0.08623
420.40617,-0.13919
422.33464,-0.11163
424.26311,-0.02409
426.19157,0.02519
428.12004,0.04774
430.04851,0.10088
431.97698,0.10037
433.90545,0.04024
435.83392,0.03019
437.76239,0.05206
439.69085,0.03851
441.61932,0.01787
443.54779,0.02733
445.47626,-0.00825
447.40473,-0.04848
449.33320,-0.04246
451.26167,-0.05277
453.19013,-0.07690
455.11860,-0.05137
457.04707,0.05465
458.97554,0.15894
460.90401,0.17085
462.83248,0.15403
464.76095,0.14178
466.68942,0.10777
468.61788,0.10189
470.54635,0.14288
472.47482,0.21897
474.40329,0.32514
476.33176,0.27066
478.26023,0.14852
480.18870,0.13231
482.11716,0.20831
484.04563,0.25549
485.97410,0.24466
487.90257,0.21123
489.83104,0.15668
491.75951,0.10431
493.68798,0.08817
495.61645,0.09648
497.54491,0.09892
499.47338,0.10515
501.40185,0.11932
503.33032,0.12359
505.25879,0.13095
507.18726,0.14175
509.11573,0.12511
511.04419,0.08347
512.97266,0.05276
514.90113,0.05983
516.82960,0.08335
518.75807,0.07977
520.68654,0.06329
522.61501,0.08814
524.54348,0.15704
526.47194,0.18571
528.40041,0.15386
530.32888,0.13412
532.25735,0.14108
534.18582,0.13419
536.11429,0.09385
538.04276,0.06583
539.97122,0.08955
541.89969,0.12091
543.82816,0.13874
545.75663,0.17530
547.68510,0.20330
549.61357,0.20084
551.54204,0.19719
553.47051,0.18082
555.39897,0.14321
557.32744,0.11535
559.25591,0.10650
561.18438,0.09375
563.11285,0.07928
565.04132,0.08741
566.96979,0.09960
568.89825,0.09445
570.82672,0.09183
572.75519,0.09226
574.68366,0.08540
576.61213,0.09406
578.54060,0.12443
580.46907,0.14411
582.39754,0.14993
584.32600,0.16020
586.25447,0.14939
588.18294,0.10108
590.11141,0.05808
592.03988,0.06327
593.96835,0.10516
595.89682,0.13072
597.82528,0.12850
599.75375,0.12538
601.68222,0.12101
603.61069,0.11801
605.53916,0.12780
607.46763,0.13595
609.39610,0.12809
611.32456,0.10601
613.25303,0.09312
615.18150,0.11034
617.10997,0.14870
619.03844,0.17958
620.96691,0.17629
622.89538,0.14497
624.82385,0.10480
626.75231,0.07608
628.68078,0.08443
630.60925,0.11141
632.53772,0.11382
634.46619,0.09481
636.39466,0.09150
638.32313,0.11133
640.25159,0.13756
642.18006,0.15666
644.10853,0.16374
646.03700,0.17272
647.96547,0.16988
649.89394,0.12736
651.82241,0.09255
653.75088,0.10110
655.67934,0.12234
657.60781,0.12850
659.53628,0.11101
661.46475,0.09265
663.39322,0.09957
665.32169,0.12214
667.25016,0.15306
669.17862,0.17893
671.10709,0.16935
673.03556,0.14639
674.96403,0.12781
676.89250,0.12180
678.82097,0.12860
680.74944,0.14091
682.67791,0.14646
684.60637,0.13687
686.53484,0.12395
688.46331,0.11647
690.39178,0.09961
692.32025,0.08687
694.24872,0.10383
696.17719,0.12560
698.10565,0.12684
700.03412,0.13173
701.96259,0.14797
703.89106,0.15312
705.81953,0.14481
707.74800,0.15520
709.67647,0.23305
711.60494,0.32367
713.53340,0.30691
715.46187,0.21977
717.39034,0.16618
719.31881,0.14942
721.24728,0.14374
723.17575,0.13937
725.10422,0.14021
727.03268,0.14879
728.96115,0.15166
730.88962,0.14462
732.81809,0.13679
734.74656,0.13178
736.67503,0.12924
738.60350,0.13302
740.53197,0.14372
742.46043,0.15121
744.38890,0.14984
746.31737,0.14918
748.24584,0.14808
750.17431,0.14233
752.10278,0.14227
754.03125,0.14368
755.95971,0.13772
757.88818,0.13117
759.81665,0.13431
761.74512,0.14480
763.67359,0.14824
765.60206,0.14581
767.53053,0.15122
769.45900,0.16455
771.38746,0.16864
773.31593,0.15433
775.24440,0.14121
777.17287,0.14184
779.10134,0.14350
781.02981,0.14517
782.95828,0.14727
784.88674,0.14314
786.81521,0.13988
788.74368,0.13668
790.67215,0.13005
792.60062,0.12512
794.52909,0.12655
796.45756,0.13703
798.38602,0.13905
800.31449,0.12260
802.24296,0.11295
804.17143,0.12711
806.09990,0.14550
808.02837,0.14623
809.95684,0.13836
811.88531,0.14052
813.81377,0.14478
815.74224,0.14069
817.67071,0.14076
819.59918,0.14287
821.52765,0.13599
823.45612,0.12705
825.38459,0.12025
827.31305,0.11754
829.24152,0.12412
831.16999,0.13522
833.09846,0.14076
835.02693,0.14142
836.95540,0.14339
838.88387,0.14399
840.81234,0.14032
842.74080,0.13900
844.66927,0.14336
846.59774,0.14759
848.52621,0.15207
850.45468,0.15562
852.38315,0.15324
854.31162,0.14914
856.24008,0.14822
858.16855,0.14594
860.09702,0.14125
862.02549,0.14834
863.95396,0.16153
865.88243,0.15889
867.81090,0.14297
869.73937,0.12518
871.66783,0.11907
873.59630,0.12846
875.52477,0.13257
877.45324,0.12641
879.38171,0.12915
881.31018,0.14212
883.23865,0.14733
885.16711,0.14263
887.09558,0.14085
889.02405,0.14119
890.95252,0.14171
892.88099,0.14872
894.80946,0.15364
896.73793,0.14872
898.66640,0.14519
900.59486,0.15022
902.52333,0.15663
904.45180,0.15570
906.38027,0.14650
908.30874,0.13635
910.23721,0.13276
912.16568,0.13336
914.09414,0.13878
916.02261,0.15109
917.95108,0.15764
919.87955,0.15393
921.80802,0.15135
923.73649,0.15244
925.66496,0.15094
927.59343,0.14549
929.52189,0.14045
931.45036,0.14131
933.37883,0.14719
935.30730,0.15275
937.23577,0.15519
939.16424,0.15368
941.09271,0.15036
943.02117,0.14767
944.94964,0.14804
946.87811,0.14718
948.80658,0.13760
950.73505,0.13029
952.66352,0.13457
954.59199,0.14413
956.52045,0.15437
958.44892,0.15465
960.37739,0.14063
962.30586,0.13013
964.23433,0.13064
966.16280,0.13846
968.09127,0.14852
970.01974,0.14733
971.94820,0.13824
973.87667,0.13972
975.80514,0.15343
977.73361,0.16322
979.66208,0.15904
981.59055,0.14707
983.51902,0.13552
985.44748,0.13275
987.37595,0.14219
989.30442,0.15207
991.23289,0.15509
993.16136,0.15942
995.08983,0.16474
997.01830,0.15999
998.94677,0.14832
1000.87523,0.14226
1002.80370,0.14656
1004.73217,0.15500
1006.66064,0.15645
1008.58911,0.15312
1010.51758,0.15605
1012.44605,0.16138
1014.37451,0.16271
1016.30298,0.16304
1018.23145,0.16000
1020.15992,0.15305
1022.08839,0.15113
1024.01686,0.15597
1025.94533,0.16063
1027.87380,0.16078
1029.80226,0.15373
1031.73073,0.14290
1033.65920,0.13656
1035.58767,0.13427
1037.51614,0.13497
1039.44461,0.14146
1041.37308,0.14561
1043.30154,0.14201
1045.23001,0.13934
1047.15848,0.14153
1049.08695,0.14840
1051.01542,0.15531
1052.94389,0.15484
1054.87236,0.15535
1056.80083,0.16405
1058.72929,0.17102
1060.65776,0.17262
1062.58623,0.17376
1064.51470,0.16985
1066.44317,0.16154
1068.37164,0.16019
1070.30011,0.16529
1072.22857,0.16922
1074.15704,0.17159
1076.08551,0.17058
1078.01398,0.16090
1079.94245,0.15129
1081.87092,0.15231
1083.79939,0.15757
1085.72786,0.16241
1087.65632,0.16698
1089.58479,0.16559
1091.51326,0.15862
1093.44173,0.15530
1095.37020,0.15623
1097.29867,0.15371
1099.22714,0.15081
1101.15560,0.15617
1103.08407,0.16159
1105.01254,0.15730
1106.94101,0.15602
1108.86948,0.16338
1110.79795,0.16711
1112.72642,0.16591
1114.65489,0.16300
1116.58335,0.15802
1118.51182,0.15368
1120.44029,0.14982
1122.36876,0.15014
1124.29723,0.15691
1126.22570,0.15939
1128.15417,0.15598
1130.08263,0.15470
1132.01110,0.15367
1133.93957,0.15014
1135.86804,0.14791
1137.79651,0.14969
1139.72498,0.15162
1141.65345,0.15335
1143.58191,0.16105
1145.51038,0.17234
1147.43885,0.17786
1149.36732,0.17618
1151.29579,0.17102
1153.22426,0.16520
1155.15273,0.16303
1157.08120,0.16388
1159.00966,0.16410
1160.93813,0.16531
1162.86660,0.16964
1164.79507,0.17490
1166.72354,0.17625
1168.65201,0.17473
1170.58048,0.17264
1172.50894,0.16808
1174.43741,0.16487
1176.36588,0.16742
1178.29435,0.17129
1180.22282,0.17103
1182.15129,0.16850
1184.07976,0.16947
1186.00823,0.17382
1187.93669,0.17569
1189.86516,0.17262
1191.79363,0.16837
1193.72210,0.16783
1195.65057,0.16923
1197.57904,0.16702
1199.50751,0.16370
1201.43597,0.16677
1203.36444,0.17282
1205.29291,0.17188
1207.22138,0.16827
1209.14985,0.16885
1211.07832,0.16831
1213.00679,0.16744
1214.93526,0.16847
1216.86372,0.16615
1218.79219,0.16440
1220.72066,0.16914
1222.64913,0.17432
1224.57760,0.17386
1226.50607,0.17112
1228.43454,0.17010
1230.36300,0.16927
1232.29147,0.16618
1234.21994,0.16037
1236.14841,0.15576
1238.07688,0.15582
1240.00535,0.15743
1241.93382,0.15889
1243.86229,0.16108
1245.79075,0.15998
1247.71922,0.15500
1249.64769,0.15277
1251.57616,0.15494
1253.50463,0.15815
1255.43310,0.15999
1257.36157,0.15927
1259.29003,0.15667
1261.21850,0.15596
1263.14697,0.15968
1265.07544,0.16178
1267.00391,0.15806
1268.93238,0.15329
1270.86085,0.15327
1272.78932,0.15647
1274.71778,0.15625
1276.64625,0.15738
1278.57472,0.16344
1280.50319,0.16345
1282.43166,0.15763
1284.36013,0.15695
1286.28860,0.15886
1288.21706,0.16064
1290.14553,0.16559
1292.07400,0.16929
1294.00247,0.16780
1295.93094,0.16123
1297.85941,0.15067
1299.78788,0.13403
1301.71634,0.10880
1303.64481,0.08891
1305.57328,0.09870
1307.50175,0.13531
1309.43022,0.16313
1311.35869,0.16868
1313.28716,0.16901
1315.21563,0.17055
1317.14409,0.16997
1319.07256,0.16777
1321.00103,0.16614
1322.92950,0.16565
1324.85797,0.16130
1326.78644,0.15441
1328.71491,0.15208
1330.64337,0.14848
1332.57184,0.14461
1334.50031,0.14615
1336.42878,0.14654
1338.35725,0.14615
1340.28572,0.14810
1342.21419,0.14988
1344.14266,0.15031
1346.07112,0.15405
1347.99959,0.16014
1349.92806,0.15843
1351.85653,0.15312
1353.78500,0.15054
1355.71347,0.14967
1357.64194,0.15165
1359.57040,0.15781
1361.49887,0.16878
1363.42734,0.17665
1365.35581,0.17561
1367.28428,0.17131
1369.21275,0.16749
1371.14122,0.16799
1373.06969,0.17671
1374.99815,0.18798
1376.92662,0.19217
1378.85509,0.19064
1380.78356,0.18509
1382.71203,0.17937
1384.64050,0.18083
1386.56897,0.18776
1388.49743,0.18908
1390.42590,0.18527
1392.35437,0.18486
1394.28284,0.18732
1396.21131,0.18739
1398.13978,0.18492
1400.06825,0.18235
1401.99672,0.18219
1403.92518,0.18443
1405.85365,0.18296
1407.78212,0.17804
1409.71059,0.17833
1411.63906,0.18465
1413.56753,0.19173
1415.49600,0.19766
1417.42446,0.20146
1419.35293,0.19809
1421.28140,0.19054
1423.20987,0.18649
1425.13834,0.18712
1427.06681,0.18984
1428.99528,0.19033
1430.92375,0.18812
1432.85221,0.18844
1434.78068,0.19452
1436.70915,0.19996
1438.63762,0.19453
1440.56609,0.18698
1442.49456,0.18431
1444.42303,0.18359
1446.35149,0.18193
1448.27996,0.18082
1450.20843,0.18049
1452.13690,0.18132
1454.06537,0.18715
1455.99384,0.20037
1457.92231,0.20886
1459.85077,0.20236
1461.77924,0.19680
1463.70771,0.19467
1465.63618,0.19198
1467.56465,0.19099
1469.49312,0.19423
1471.42159,0.19760
1473.35006,0.19779
1475.27852,0.19649
1477.20699,0.19269
1479.13546,0.18787
1481.06393,0.18645
1482.99240,0.18845
1484.92087,0.19212
1486.84934,0.19845
1488.77780,0.20387
1490.70627,0.19912
1492.63474,0.19136
1494.56321,0.19181
1496.49168,0.20270
1498.42015,0.21208
1500.34862,0.20874
1502.27709,0.20290
1504.20555,0.20466
1506.13402,0.22074
1508.06249,0.23012
1509.99096,0.21681
1511.91943,0.20655
1513.84790,0.20448
1515.77637,0.20898
1517.70483,0.21536
1519.63330,0.21957
1521.56177,0.21927
1523.49024,0.21114
1525.41871,0.20278
1527.34718,0.19470
1529.27565,0.19017
1531.20412,0.19562
1533.13258,0.20575
1535.06105,0.20837
1536.98952,0.21427
1538.91799,0.23693
1540.84646,0.24973
1542.77493,0.23234
1544.70340,0.21780
1546.63186,0.20503
1548.56033,0.19755
1550.48880,0.19453
1552.41727,0.18944
1554.34574,0.18647
1556.27421,0.19607
1558.20268,0.21618
1560.13115,0.20949
1562.05961,0.19398
1563.98808,0.18836
1565.91655,0.18853
1567.84502,0.19327
1569.77349,0.19488
1571.70196,0.19263
1573.63043,0.19681
1575.55889,0.20148
1577.48736,0.19449
1579.41583,0.18538
1581.34430,0.17877
1583.27277,0.17554
1585.20124,0.17753
1587.12971,0.18009
1589.05818,0.18143
1590.98664,0.18219
1592.91511,0.18071
1594.84358,0.17764
1596.77205,0.17567
1598.70052,0.17725
1600.62899,0.18040
1602.55746,0.18150
1604.48592,0.18135
1606.41439,0.18148
1608.34286,0.18303
1610.27133,0.18690
1612.19980,0.19062
1614.12827,0.19460
1616.05674,0.20053
1617.98521,0.19925
1619.91367,0.19445
1621.84214,0.19675
1623.77061,0.20116
1625.69908,0.19994
1627.62755,0.19450
1629.55602,0.18914
1631.48449,0.19041
1633.41295,0.20123
1635.34142,0.21602
1637.26989,0.21180
1639.19836,0.19968
1641.12683,0.19496
1643.05530,0.19593
1644.98377,0.20335
1646.91223,0.21509
1648.84070,0.21717
1650.76917,0.21905
1652.69764,0.22955
1654.62611,0.22200
1656.55458,0.20541
1658.48305,0.19808
1660.41152,0.19922
1662.33998,0.20416
1664.26845,0.20432
1666.19692,0.20385
1668.12539,0.21095
1670.05386,0.21800
1671.98233,0.21343
1673.91080,0.20832
1675.83926,0.20535
1677.76773,0.20176
1679.69620,0.20090
1681.62467,0.20728
1683.55314,0.22362
1685.48161,0.23235
1687.41008,0.22549
1689.33855,0.21428
1691.26701,0.20477
1693.19548,0.20602
1695.12395,0.21779
1697.05242,0.22861
1698.98089,0.22945
1700.90936,0.21832
1702.83783,0.20728
1704.76629,0.20572
1706.69476,0.20664
1708.62323,0.20355
1710.55170,0.20067
1712.48017,0.20394
1714.40864,0.21287
1716.33711,0.21640
1718.26558,0.20362
1720.19404,0.19336
1722.12251,0.19301
1724.05098,0.19390
1725.97945,0.19344
1727.90792,0.19629
1729.83639,0.20297
1731.76486,0.21252
1733.69332,0.21836
1735.62179,0.20743
1737.55026,0.19666
1739.47873,0.19502
1741.40720,0.19814
1743.33567,0.20131
1745.26414,0.20452
1747.19261,0.21006
1749.12107,0.21345
1751.04954,0.20513
1752.97801,0.19503
1754.90648,0.19320
1756.83495,0.19453
1758.76342,0.19427
1760.69189,0.19412
1762.62035,0.19418
1764.54882,0.19509
1766.47729,0.19888
1768.40576,0.20488
1770.33423,0.21133
1772.26270,0.21056
1774.19117,0.19905
1776.11964,0.19063
1778.04810,0.19058
1779.97657,0.19455
1781.90504,0.19575
1783.83351,0.19440
1785.76198,0.19181
1787.69045,0.18978
1789.61892,0.19454
1791.54738,0.20450
1793.47585,0.20675
1795.40432,0.20267
1797.33279,0.20191
1799.26126,0.20232
1801.18973,0.19973
1803.11820,0.19734
1805.04666,0.19690
1806.97513,0.19832
1808.90360,0.20124
1810.83207,0.19958
1812.76054,0.19278
1814.68901,0.18977
1816.61748,0.19130
1818.54595,0.19187
1820.47441,0.19050
1822.40288,0.19096
1824.33135,0.19394
1826.25982,0.19645
1828.18829,0.19972
1830.11676,0.20060
1832.04523,0.19472
1833.97369,0.19050
1835.90216,0.18996
1837.83063,0.18880
1839.75910,0.18848
1841.68757,0.19244
1843.61604,0.19774
1845.54451,0.19714
1847.47298,0.19298
1849.40144,0.18933
1851.32991,0.18648
1853.25838,0.18649
1855.18685,0.18800
1857.11532,0.18714
1859.04379,0.18643
1860.97226,0.18862
1862.90072,0.19066
1864.82919,0.19258
1866.75766,0.19645
1868.68613,0.19821
1870.61460,0.19592
1872.54307,0.19457
1874.47154,0.19457
1876.40001,0.19437
1878.32847,0.19356
1880.25694,0.19209
1882.18541,0.19073
1884.11388,0.19132
1886.04235,0.19538
1887.97082,0.19961
1889.89929,0.19792
1891.82775,0.19313
1893.75622,0.19224
1895.68469,0.19357
1897.61316,0.19323
1899.54163,0.19258
1901.47010,0.19156
1903.39857,0.18971
1905.32704,0.18971
1907.25550,0.19109
1909.18397,0.19232
1911.11244,0.19341
1913.04091,0.19399
1914.96938,0.19491
1916.89785,0.19704
1918.82632,0.19903
1920.75478,0.19797
1922.68325,0.19378
1924.61172,0.19007
1926.54019,0.19005
1928.46866,0.19266
1930.39713,0.19330
1932.32560,0.19062
1934.25407,0.18841
1936.18253,0.18819
1938.11100,0.18946
1940.03947,0.19231
1941.96794,0.19364
1943.89641,0.18986
1945.82488,0.18632
1947.75335,0.18854
1949.68181,0.19233
1951.61028,0.19337
1953.53875,0.19361
1955.46722,0.19374
1957.39569,0.19178
1959.32416,0.18966
1961.25263,0.18999
1963.18110,0.19094
1965.10956,0.19135
1967.03803,0.19191
1968.96650,0.19145
1970.89497,0.18996
1972.82344,0.18940
1974.75191,0.18914
1976.68038,0.18811
1978.60884,0.18831
1980.53731,0.19003
1982.46578,0.19050
1984.39425,0.18927
1986.32272,0.18888
1988.25119,0.18955
1990.17966,0.19031
1992.10812,0.19314
1994.03659,0.19590
1995.96506,0.19424
1997.89353,0.19049
1999.82200,0.18937
2001.75047,0.19089
2003.67894,0.19076
2005.60741,0.18877
2007.53587,0.18840
2009.46434,0.18989
2011.39281,0.19180
2013.32128,0.19205
2015.24975,0.18986
2017.17822,0.18855
2019.10669,0.18937
2021.03515,0.18973
2022.96362,0.18957
2024.89209,0.18959
2026.82056,0.18903
2028.74903,0.18871
2030.67750,0.18972
2032.60597,0.19179
2034.53444,0.19380
2036.46290,0.19369
2038.39137,0.19136
2040.31984,0.18912
2042.24831,0.18821
2044.17678,0.18813
2046.10525,0.18897
2048.03372,0.19170
2049.96218,0.19423
2051.89065,0.19350
2053.81912,0.19122
2055.74759,0.19097
2057.67606,0.19221
2059.60453,0.19208
2061.53300,0.19106
2063.46147,0.18988
2065.38993,0.18895
2067.31840,0.19005
2069.24687,0.19147
2071.17534,0.19169
2073.10381,0.19310
2075.03228,0.19535
2076.96075,0.19496
2078.88921,0.19281
2080.81768,0.19196
2082.74615,0.19222
2084.67462,0.19267
2086.60309,0.19296
2088.53156,0.19253
2090.46003,0.19135
2092.38850,0.19079
2094.31696,0.19055
2096.24543,0.18923
2098.17390,0.18880
2100.10237,0.19065
2102.03084,0.19363
2103.95931,0.19571
2105.88778,0.19446
2107.81624,0.19093
2109.74471,0.18925
2111.67318,0.19089
2113.60165,0.19319
2115.53012,0.19389
2117.45859,0.19289
2119.38706,0.19101
2121.31553,0.19032
2123.24399,0.19140
2125.17246,0.19267
2127.10093,0.19456
2129.02940,0.19662
2130.95787,0.19567
2132.88634,0.19182
2134.81481,0.18952
2136.74327,0.19148
2138.67174,0.19473
2140.60021,0.19503
2142.52868,0.19278
2144.45715,0.19071
2146.38562,0.18967
2148.31409,0.18973
2150.24255,0.19002
2152.17102,0.18861
2154.09949,0.18697
2156.02796,0.18840
2157.95643,0.19266
2159.88490,0.19635
2161.81337,0.19731
2163.74184,0.19652
2165.67030,0.19511
2167.59877,0.19293
2169.52724,0.19078
2171.45571,0.19101
2173.38418,0.19333
2175.31265,0.19523
2177.24112,0.19609
2179.16958,0.19438
2181.09805,0.19051
2183.02652,0.18922
2184.95499,0.19013
2186.88346,0.19037
2188.81193,0.19136
2190.74040,0.19281
2192.66887,0.19288
2194.59733,0.19268
2196.52580,0.19267
2198.45427,0.19140
2200.38274,0.18926
2202.31121,0.18910
2204.23968,0.19238
2206.16815,0.19639
2208.09661,0.19772
2210.02508,0.19517
2211.95355,0.19081
2213.88202,0.18839
2215.81049,0.18856
2217.73896,0.19015
2219.66743,0.19208
2221.59590,0.19325
2223.52436,0.19240
2225.45283,0.19047
2227.38130,0.19122
2229.30977,0.19392
2231.23824,0.19468
2233.16671,0.19269
2235.09518,0.18998
2237.02364,0.18816
2238.95211,0.18800
2240.88058,0.18977
2242.80905,0.19160
2244.73752,0.19284
2246.66599,0.19303
2248.59446,0.19146
2250.52293,0.19071
2252.45139,0.19245
2254.37986,0.19482
2256.30833,0.19545
2258.23680,0.19470
2260.16527,0.19443
2262.09374,0.19481
2264.02221,0.19601
2265.95067,0.19846
2267.87914,0.19949
2269.80761,0.19748
2271.73608,0.19570
2273.66455,0.19564
2275.59302,0.19546
2277.52149,0.19320
2279.44996,0.18919
2281.37842,0.18724
2283.30689,0.18911
2285.23536,0.19128
2287.16383,0.18960
2289.09230,0.18627
2291.02077,0.18646
2292.94924,0.18861
2294.87770,0.18937
2296.80617,0.18891
2298.73464,0.18658
2300.66311,0.18364
2302.59158,0.18223
2304.52005,0.18242
2306.44852,0.18386
2308.37699,0.18358
2310.30545,0.18129
2312.23392,0.17937
2314.16239,0.17931
2316.09086,0.18253
2318.01933,0.18481
2319.94780,0.18510
2321.87627,0.19020
2323.80473,0.19562
2325.73320,0.19238
2327.66167,0.18515
2329.59014,0.17509
2331.51861,0.16037
2333.44708,0.15264
2335.37555,0.15685
2337.30401,0.16408
2339.23248,0.16814
2341.16095,0.17061
2343.08942,0.16986
2345.01789,0.16631
2346.94636,0.16871
2348.87483,0.17412
2350.80330,0.17795
2352.73176,0.17972
2354.66023,0.17424
2356.58870,0.16027
2358.51717,0.15420
2360.44564,0.16391
2362.37411,0.16948
2364.30258,0.15860
2366.23104,0.15365
2368.15951,0.16419
2370.08798,0.17325
2372.01645,0.17572
2373.94492,0.17660
2375.87339,0.17905
2377.80186,0.18304
2379.73033,0.18826
2381.65879,0.19314
2383.58726,0.19495
2385.51573,0.19515
2387.44420,0.19532
2389.37267,0.19363
2391.30114,0.18979
2393.22961,0.18762
2395.15807,0.19022
2397.08654,0.19391
2399.01501,0.19440
2400.94348,0.19315
2402.87195,0.19165
2404.80042,0.19110
2406.72889,0.19217
2408.65736,0.19206
2410.58582,0.19140
2412.51429,0.19306
2414.44276,0.19468
2416.37123,0.19359
2418.29970,0.19148
2420.22817,0.19111
2422.15664,0.19312
2424.08510,0.19641
2426.01357,0.19829
2427.94204,0.19766
2429.87051,0.19604
2431.79898,0.19399
2433.72745,0.19365
2435.65592,0.19677
2437.58439,0.20004
2439.51285,0.19967
2441.44132,0.19601
2443.36979,0.19383
2445.29826,0.19519
2447.22673,0.19588
2449.15520,0.19332
2451.08367,0.18941
2453.01213,0.18888
2454.94060,0.19334
2456.86907,0.19612
2458.79754,0.19445
2460.72601,0.19357
2462.65448,0.19399
2464.58295,0.19308
2466.51142,0.19324
2468.43988,0.19538
2470.36835,0.19518
2472.29682,0.19245
2474.22529,0.19122
2476.15376,0.19191
2478.08223,0.19208
2480.01070,0.19156
2481.93916,0.19221
2483.86763,0.19332
2485.79610,0.19353
2487.72457,0.19384
2489.65304,0.19487
2491.58151,0.19553
2493.50998,0.19476
2495.43844,0.19358
2497.36691,0.19432
2499.29538,0.19633
2501.22385,0.19690
2503.15232,0.19611
2505.08079,0.19462
2507.00926,0.19180
2508.93773,0.18973
2510.86619,0.19184
2512.79466,0.19562
2514.72313,0.19569
2516.65160,0.19376
2518.58007,0.19530
2520.50854,0.19885
2522.43701,0.19879
2524.36547,0.19652
2526.29394,0.19610
2528.22241,0.19629
2530.15088,0.19588
2532.07935,0.19616
2534.00782,0.19747
2535.93629,0.19823
2537.86476,0.19661
2539.79322,0.19318
2541.72169,0.19151
2543.65016,0.19313
2545.57863,0.19568
2547.50710,0.19743
2549.43557,0.19829
2551.36404,0.19708
2553.29250,0.19410
2555.22097,0.19260
2557.14944,0.19343
2559.07791,0.19395
2561.00638,0.19263
2562.93485,0.19177
2564.86332,0.19426
2566.79179,0.19738
2568.72025,0.19747
2570.64872,0.19640
2572.57719,0.19687
2574.50566,0.19870
2576.43413,0.19914
2578.36260,0.19612
2580.29107,0.19337
2582.21953,0.19481
2584.14800,0.19860
2586.07647,0.20121
2588.00494,0.20020
2589.93341,0.19780
2591.86188,0.19742
2593.79035,0.19676
2595.71882,0.19504
2597.64728,0.19409
2599.57575,0.19225
2601.50422,0.18998
2603.43269,0.19151
2605.36116,0.19560
2607.28963,0.19618
2609.21810,0.19345
2611.14656,0.19294
2613.07503,0.19434
2615.00350,0.19352
2616.93197,0.19274
2618.86044,0.19617
2620.78891,0.19953
2622.71738,0.19833
2624.64585,0.19572
2626.57431,0.19521
2628.50278,0.19687
2630.43125,0.19801
2632.35972,0.19653
2634.28819,0.19341
2636.21666,0.19127
2638.14513,0.19088
2640.07359,0.19200
2642.00206,0.19575
2643.93053,0.19956
2645.85900,0.20095
2647.78747,0.20079
2649.71594,0.19973
2651.64441,0.19850
2653.57288,0.19701
2655.50134,0.19698
2657.42981,0.19978
2659.35828,0.20247
2661.28675,0.20350
2663.21522,0.20300
2665.14369,0.20133
2667.07216,0.20191
2669.00062,0.20471
2670.92909,0.20307
2672.85756,0.19767
2674.78603,0.19564
2676.71450,0.19647
2678.64297,0.19815
2680.57144,0.20273
2682.49990,0.20639
2684.42837,0.20506
2686.35684,0.20348
2688.28531,0.20414
2690.21378,0.20269
2692.14225,0.19772
2694.07072,0.19337
2695.99919,0.19264
2697.92765,0.19508
2699.85612,0.19852
2701.78459,0.20058
2703.71306,0.20141
2705.64153,0.20357
2707.57000,0.20580
2709.49847,0.20455
2711.42693,0.20254
2713.35540,0.20172
2715.28387,0.20001
2717.21234,0.19914
2719.14081,0.19963
2721.06928,0.20021
2722.99775,0.20199
2724.92622,0.20462
2726.85468,0.20705
2728.78315,0.20809
2730.71162,0.20575
2732.64009,0.20139
2734.56856,0.19860
2736.49703,0.19833
2738.42550,0.19974
2740.35396,0.20169
2742.28243,0.20238
2744.21090,0.20247
2746.13937,0.20414
2748.06784,0.20530
2749.99631,0.20522
2751.92478,0.20668
2753.85325,0.20792
2755.78171,0.20717
2757.71018,0.20547
2759.63865,0.20352
2761.56712,0.20269
2763.49559,0.20124
2765.42406,0.19874
2767.35253,0.20126
2769.28099,0.20760
2771.20946,0.20863
2773.13793,0.20449
2775.06640,0.20200
2776.99487,0.20230
2778.92334,0.20314
2780.85181,0.20500
2782.78028,0.20894
2784.70874,0.21226
2786.63721,0.21253
2788.56568,0.21125
2790.49415,0.20850
2792.42262,0.20527
2794.35109,0.20577
2796.27956,0.20819
2798.20802,0.20922
2800.13649,0.21122
2802.06496,0.21322
2803.99343,0.21231
2805.92190,0.20974
2807.85037,0.20695
2809.77884,0.20565
2811.70731,0.20646
2813.63577,0.20737
2815.56424,0.20742
2817.49271,0.20711
2819.42118,0.20911
2821.34965,0.21339
2823.27812,0.21539
2825.20659,0.21372
2827.13505,0.20892
2829.06352,0.20374
2830.99199,0.20246
2832.92046,0.20362
2834.84893,0.20291
2836.77740,0.20171
2838.70587,0.20450
2840.63433,0.20791
2842.56280,0.20635
2844.49127,0.20337
2846.41974,0.20264
2848.34821,0.20194
2850.27668,0.20081
2852.20515,0.20256
2854.13362,0.20765
2856.06208,0.21118
2857.99055,0.21044
2859.91902,0.20723
2861.84749,0.20269
2863.77596,0.19864
2865.70443,0.19821
2867.63290,0.20136
2869.56136,0.20432
2871.48983,0.20511
2873.41830,0.20613
2875.34677,0.20824
2877.27524,0.20903
2879.20371,0.20775
2881.13218,0.20633
2883.06065,0.20539
2884.98911,0.20480
2886.91758,0.20676
2888.84605,0.20932
2890.77452,0.20869
2892.70299,0.20544
2894.63146,0.20118
2896.55993,0.20023
2898.48839,0.20405
2900.41686,0.20853
2902.34533,0.20930
2904.27380,0.20022
2906.20227,0.18681
2908.13074,0.18339
2910.05921,0.18835
2911.98768,0.19336
2913.91614,0.19252
2915.84461,0.18498
2917.77308,0.18411
2919.70155,0.19393
2921.63002,0.20235
2923.55849,0.19968
2925.48696,0.18471
2927.41542,0.17621
2929.34389,0.18659
2931.27236,0.19753
2933.20083,0.19720
2935.12930,0.18741
2937.05777,0.17454
2938.98624,0.17652
2940.91471,0.19075
2942.84317,0.20016
2944.77164,0.19910
2946.70011,0.18558
2948.62858,0.17894
2950.55705,0.19395
2952.48552,0.20837
2954.41399,0.20407
2956.34245,0.18609
2958.27092,0.17592
2960.19939,0.18579
2962.12786,0.19643
2964.05633,0.19465
2965.98480,0.18768
2967.91327,0.18242
2969.84174,0.18692
2971.77020,0.19972
2973.69867,0.20872
2975.62714,0.20489
2977.55561,0.19095
2979.48408,0.18674
2981.41255,0.19851
2983.34102,0.21040
2985.26948,0.21102
2987.19795,0.19839
2989.12642,0.18888
2991.05489,0.19694
2992.98336,0.20753
2994.91183,0.20915
2996.84030,0.20751
2998.76877,0.20773
3000.69723,0.21285
3002.62570,0.21898
3004.55417,0.21647
3006.48264,0.20177
3008.41111,0.18396
3010.33958,0.16824
3012.26805,0.14117
3014.19651,0.09719
3016.12498,0.06569
3018.05345,0.08698
3019.98192,0.14910
3021.91039,0.19824
3023.83886,0.21492
3025.76733,0.21166
3027.69579,0.20344
3029.62426,0.20360
3031.55273,0.20727
3033.48120,0.20423
3035.40967,0.20061
3037.33814,0.20040
3039.26661,0.20285
3041.19508,0.20885
3043.12354,0.21273
3045.05201,0.20785
3046.98048,0.19795
3048.90895,0.19749
3050.83742,0.20852
3052.76589,0.21552
3054.69436,0.20616
3056.62282,0.18584
3058.55129,0.18275
3060.47976,0.20230
3062.40823,0.21540
3064.33670,0.20966
3066.26517,0.19615
3068.19364,0.19064
3070.12211,0.19771
3072.05057,0.20541
3073.97904,0.19937
3075.90751,0.18559
3077.83598,0.18843
3079.76445,0.20551
3081.69292,0.21039
3083.62139,0.19397
3085.54985,0.17563
3087.47832,0.17934
3089.40679,0.19562
3091.33526,0.19953
3093.26373,0.18723
3095.19220,0.17909
3097.12067,0.19161
3099.04914,0.20864
3100.97760,0.20956
3102.90607,0.19552
3104.83454,0.18857
3106.76301,0.20176
3108.69148,0.21478
3110.61995,0.20657
3112.54842,0.18772
3114.47688,0.18590
3116.40535,0.20069
3118.33382,0.20767
3120.26229,0.19716
3122.19076,0.18409
3124.11923,0.19024
3126.04770,0.20726
3127.97617,0.21270
3129.90463,0.20553
3131.83310,0.19973
3133.76157,0.20461
3135.69004,0.21305
3137.61851,0.21344
3139.54698,0.20660
3141.47545,0.20364
3143.40391,0.20708
3145.33238,0.20936
3147.26085,0.20748
3149.18932,0.20735
3151.11779,0.21496
3153.04626,0.22263
3154.97473,0.21891
3156.90320,0.20831
3158.83166,0.20525
3160.76013,0.20946
3162.68860,0.20918
3164.61707,0.20421
3166.54554,0.20429
3168.47401,0.21351
3170.40248,0.22254
3172.33094,0.22353
3174.25941,0.22106
3176.18788,0.22019
3178.11635,0.21994
3180.04482,0.21617
3181.97329,0.21021
3183.90176,0.20935
3185.83022,0.21343
3187.75869,0.21656
3189.68716,0.21732
3191.61563,0.21625
3193.54410,0.21453
3195.47257,0.21420
3197.40104,0.21422
3199.32951,0.21282
3201.25797,0.21328
3203.18644,0.21676
3205.11491,0.21729
3207.04338,0.21444
3208.97185,0.21220
3210.90032,0.21074
3212.82879,0.21214
3214.75725,0.21790
3216.68572,0.22296
3218.61419,0.22078
3220.54266,0.21173
3222.47113,0.20352
3224.39960,0.20131
3226.32807,0.20357
3228.25654,0.20775
3230.18500,0.21210
3232.11347,0.21419
3234.04194,0.21237
3235.97041,0.20999
3237.89888,0.21136
3239.82735,0.21006
3241.75582,0.20492
3243.68428,0.20801
3245.61275,0.21573
3247.54122,0.21636
3249.46969,0.21395
3251.39816,0.21412
3253.32663,0.21485
3255.25510,0.21373
3257.18357,0.21046
3259.11203,0.20647
3261.04050,0.20578
3262.96897,0.20906
3264.89744,0.21168
3266.82591,0.21287
3268.75438,0.21568
3270.68285,0.21839
3272.61131,0.21522
3274.53978,0.20898
3276.46825,0.20997
3278.39672,0.21674
3280.32519,0.21736
3282.25366,0.21182
3284.18213,0.21066
3286.11060,0.21361
3288.03906,0.21766
3289.96753,0.22508
3291.89600,0.22520
3293.82447,0.20924
3295.75294,0.19404
3297.68141,0.19651
3299.60988,0.20720
3301.53834,0.21118
3303.46681,0.20893
3305.39528,0.20570
3307.32375,0.20663
3309.25222,0.21340
3311.18069,0.21854
3313.10916,0.21536
3315.03763,0.20737
3316.96609,0.20304
3318.89456,0.20574
3320.82303,0.20968
3322.75150,0.20831
3324.67997,0.20390
3326.60844,0.20132
3328.53691,0.20127
3330.46537,0.20097
3332.39384,0.19966
3334.32231,0.20319
3336.25078,0.21178
3338.17925,0.21587
3340.10772,0.21279
3342.03619,0.20971
3343.96466,0.20861
3345.89312,0.20569
3347.82159,0.20334
3349.75006,0.20657
3351.67853,0.21156
3353.60700,0.21298
3355.53547,0.21345
3357.46394,0.21398
3359.39240,0.21173
3361.32087,0.20814
3363.24934,0.20728
3365.17781,0.20868
3367.10628,0.21068
3369.03475,0.21465
3370.96322,0.21873
3372.89168,0.21995
3374.82015,0.21757
3376.74862,0.21588
3378.67709,0.22021
3380.60556,0.22642
3382.53403,0.22911
3384.46250,0.22592
3386.39097,0.21965
3388.31943,0.21678
3390.24790,0.21639
3392.17637,0.21647
3394.10484,0.21677
3396.03331,0.21453
3397.96178,0.20826
3399.89025,0.20271
3401.81871,0.20247
3403.74718,0.20015
3405.67565,0.19585
3407.60412,0.20222
3409.53259,0.21294
3411.46106,0.21497
3413.38953,0.21341
3415.31800,0.21413
3417.24646,0.21429
3419.17493,0.21206
3421.10340,0.21004
3423.03187,0.20761
3424.96034,0.20180
3426.88881,0.19656
3428.81728,0.19747
3430.74574,0.20282
3432.67421,0.20630
3434.60268,0.20580
3436.53115,0.20614
3438.45962,0.20783
3440.38809,0.20450
3442.31656,0.19990
3444.24503,0.20229
3446.17349,0.20524
3448.10196,0.20096
3450.03043,0.19460
3451.95890,0.19208
3453.88737,0.19237
3455.81584,0.19236
3457.74431,0.18999
3459.67277,0.18636
3461.60124,0.18495
3463.52971,0.18454
3465.45818,0.18295
3467.38665,0.18456
3469.31512,0.18868
3471.24359,0.18960
3473.17206,0.19154
3475.10052,0.19621
3477.02899,0.19515
3478.95746,0.18956
3480.88593,0.18764
3482.81440,0.18884
3484.74287,0.19110
3486.67134,0.19530
3488.59980,0.19872
3490.52827,0.19761
3492.45674,0.19132
3494.38521,0.18377
3496.31368,0.17751
3498.24215,0.17350
3500.17062,0.17583
3502.09909,0.17951
3504.02755,0.17705
3505.95602,0.17453
3507.88449,0.17631
3509.81296,0.17807
3511.74143,0.17597
3513.66990,0.17212
3515.59837,0.17179
3517.52683,0.17602
3519.45530,0.17979
3521.38377,0.17894
3523.31224,0.17603
3525.24071,0.17626
3527.16918,0.17858
3529.09765,0.17818
3531.02611,0.17367
3532.95458,0.16898
3534.88305,0.16897
3536.81152,0.17009
3538.73999,0.16646
3540.66846,0.16178
3542.59693,0.16080
3544.52540,0.16195
3546.45386,0.16333
3548.38233,0.16597
3550.31080,0.16880
3552.23927,0.17051
3554.16774,0.16885
3556.09621,0.16243
3558.02468,0.15621
3559.95314,0.15627
3561.88161,0.16396
3563.81008,0.17468
3565.73855,0.18276
3567.66702,0.18141
3569.59549,0.17088
3571.52396,0.16264
3573.45243,0.16062
3575.38089,0.16094
3577.30936,0.15906
3579.23783,0.15531
3581.16630,0.15318
3583.09477,0.15309
3585.02324,0.15320
3586.95171,0.15509
3588.88017,0.15805
3590.80864,0.15543
3592.73711,0.15043
3594.66558,0.15138
3596.59405,0.15466
3598.52252,0.15403
3600.45099,0.15454
3602.37946,0.15628
3604.30792,0.15715
3606.23639,0.15826
3608.16486,0.15605
3610.09333,0.15181
3612.02180,0.15349
3613.95027,0.15733
3615.87874,0.15658
3617.80720,0.15656
3619.73567,0.15809
3621.66414,0.15336
3623.59261,0.14947
3625.52108,0.15425
3627.44955,0.16286
3629.37802,0.16447
3631.30649,0.16184
3633.23495,0.15682
3635.16342,0.14588
3637.09189,0.13821
3639.02036,0.13977
3640.94883,0.14435
3642.87730,0.14782
3644.80577,0.15312
3646.73423,0.16244
3648.66270,0.16993
3650.59117,0.15992
3652.51964,0.14645
3654.44811,0.14309
3656.37658,0.14417
3658.30505,0.14204
3660.23352,0.13723
3662.16198,0.13207
3664.09045,0.12972
3666.01892,0.13211
3667.94739,0.13905
3669.87586,0.14856
3671.80433,0.15359
3673.73280,0.15451
3675.66126,0.14889
3677.58973,0.13902
3679.51820,0.13537
3681.44667,0.13526
3683.37514,0.13496
3685.30361,0.13578
3687.23208,0.13963
3689.16055,0.13890
3691.08901,0.13155
3693.01748,0.13208
3694.94595,0.13791
3696.87442,0.14288
3698.80289,0.14725
3700.73136,0.14745
3702.65983,0.13801
3704.58829,0.13090
3706.51676,0.13379
3708.44523,0.13852
3710.37370,0.13844
3712.30217,0.13488
3714.23064,0.13131
3716.15911,0.13124
3718.08757,0.13670
3720.01604,0.14378
3721.94451,0.14596
3723.87298,0.14284
3725.80145,0.13971
3727.72992,0.14043
3729.65839,0.14323
3731.58686,0.14811
3733.51532,0.15910
3735.44379,0.16621
3737.37226,0.15583
3739.30073,0.14131
3741.22920,0.13436
3743.15767,0.13869
3745.08614,0.14661
3747.01460,0.14953
3748.94307,0.15466
3750.87154,0.15216
3752.80001,0.13923
3754.72848,0.13488
3756.65695,0.13796
3758.58542,0.14307
3760.51389,0.14256
3762.44235,0.13641
3764.37082,0.13440
3766.29929,0.13794
3768.22776,0.14090
3770.15623,0.14011
3772.08470,0.13389
3774.01317,0.12746
3775.94163,0.12570
3777.87010,0.12734
3779.79857,0.13002
3781.72704,0.13211
3783.65551,0.13077
3785.58398,0.12737
3787.51245,0.12754
3789.44092,0.12956
3791.36938,0.13027
3793.29785,0.13168
3795.22632,0.13380
3797.15479,0.13361
3799.08326,0.13334
3801.01173,0.13879
3802.94020,0.14573
3804.86866,0.14769
3806.79713,0.14564
3808.72560,0.13807
3810.65407,0.12941
3812.58254,0.12579
3814.51101,0.13128
3816.43948,0.13993
3818.36795,0.14045
3820.29641,0.13709
3822.22488,0.13135
3824.15335,0.12609
3826.08182,0.12363
3828.01029,0.12294
3829.93876,0.12576
3831.86723,0.12730
3833.79569,0.11959
3835.72416,0.11040
3837.65263,0.11491
3839.58110,0.13102
3841.50957,0.13642
3843.43804,0.12939
3845.36651,0.12311
3847.29498,0.12358
3849.22344,0.12986
3851.15191,0.13925
3853.08038,0.14271
3855.00885,0.13345
3856.93732,0.12688
3858.86579,0.12448
3860.79426,0.12531
3862.72272,0.13115
3864.65119,0.13519
3866.57966,0.13199
3868.50813,0.13305
3870.43660,0.13672
3872.36507,0.13011
3874.29354,0.12191
3876.22200,0.12168
3878.15047,0.12709
3880.07894,0.13072
3882.00741,0.12847
3883.93588,0.12749
3885.86435,0.12926
3887.79282,0.13141
3889.72129,0.13344
3891.64975,0.13199
3893.57822,0.12657
3895.50669,0.12306
3897.43516,0.12471
3899.36363,0.12920
3901.29210,0.13192
3903.22057,0.13174
3905.14903,0.12566
3907.07750,0.11766
3909.00597,0.11182
3910.93444,0.10741
3912.86291,0.10411
3914.79138,0.10423
3916.71985,0.11174
3918.64832,0.12086
3920.57678,0.12414
3922.50525,0.12459
3924.43372,0.12519
3926.36219,0.12392
3928.29066,0.11981
3930.21913,0.11840
3932.14760,0.12121
3934.07606,0.12126
3936.00453,0.11712
3937.93300,0.11327
3939.86147,0.11085
3941.78994,0.11008
3943.71841,0.11345
3945.64688,0.11852
3947.57535,0.12011
3949.50381,0.11547
3951.43228,0.10814
3953.36075,0.10568
3955.28922,0.10889
3957.21769,0.11112
3959.14616,0.11026
3961.07463,0.11016
3963.00309,0.11049
3964.93156,0.11045
3966.86003,0.10856
3968.78850,0.10562
3970.71697,0.10947
3972.64544,0.11723
3974.57391,0.11663
3976.50238,0.10855
3978.43084,0.10221
3980.35931,0.09928
3982.28778,0.09989
3984.21625,0.10395
3986.14472,0.10562
3988.07319,0.10340
3990.00166,0.10216
3991.93012,0.10250
3993.85859,0.10108
3995.78706,0.09958
3997.71553,0.10345
3999.64400,0.10996
4001.57247,0.11082
4003.50094,0.10611
4005.42941,0.09973
4007.35787,0.09430
4009.28634,0.09459
4011.21481,0.09939
4013.14328,0.10353
4015.07175,0.10526
4017.00022,0.10456
4018.92869,0.10415
4020.85715,0.10426
4022.78562,0.10205
4024.71409,0.09975
4026.64256,0.10199
4028.57103,0.10744
4030.49950,0.10850
4032.42797,0.10325
4034.35644,0.09854
4036.28490,0.09824
4038.21337,0.09941
4040.14184,0.09812
4042.07031,0.09808
4043.99878,0.10270
4045.92725,0.10498
4047.85572,0.10134
4049.78418,0.09395
4051.71265,0.08666
4053.64112,0.08518
4055.56959,0.08849
4057.49806,0.09244
4059.42653,0.09698
4061.35500,0.10315
4063.28346,0.10688
4065.21193,0.10412
4067.14040,0.10048
4069.06887,0.10021
4070.99734,0.10055
4072.92581,0.10185
4074.85428,0.10372
4076.78275,0.10256
4078.71121,0.10000
4080.63968,0.09697
4082.56815,0.09165
4084.49662,0.08875
4086.42509,0.08980
4088.35356,0.08907
4090.28203,0.08989
4092.21049,0.09727
4094.13896,0.10265
4096.06743,0.10028
4097.99590,0.09808
4099.92437,0.10084
4101.85284,0.10255
4103.78131,0.09840
4105.70978,0.09215
4107.63824,0.09042
4109.56671,0.09236
4111.49518,0.09149
4113.42365,0.08868
4115.35212,0.08824
4117.28059,0.08718
4119.20906,0.08309
4121.13752,0.07952
4123.06599,0.08039
4124.99446,0.08412
4126.92293,0.08515
4128.85140,0.08487
4130.77987,0.08695
4132.70834,0.08726
4134.63681,0.08441
4136.56527,0.08382
4138.49374,0.08499
4140.42221,0.08253
4142.35068,0.07880
4144.27915,0.07822
4146.20762,0.08158
4148.13609,0.08738
4150.06455,0.08821
4151.99302,0.08542
4153.92149,0.08753
4155.84996,0.09054
4157.77843,0.08846
4159.70690,0.08394
4161.63537,0.08063
4163.56384,0.07853
4165.49230,0.07704
4167.42077,0.07780
4169.34924,0.08029
4171.27771,0.07862
4173.20618,0.07372
4175.13465,0.07492
4177.06312,0.07872
4178.99158,0.07541
4180.92005,0.06893
4182.84852,0.06700
4184.77699,0.07164
4186.70546,0.07650
4188.63393,0.07271
4190.56240,0.06599
4192.49087,0.06564
4194.41933,0.06762
4196.34780,0.06757
4198.27627,0.06674
4200.20474,0.06713
4202.13321,0.06918
4204.06168,0.06998
4205.99015,0.07062
4207.91861,0.07496
4209.84708,0.07746
4211.77555,0.07366
4213.70402,0.06851
4215.63249,0.06236
4217.56096,0.05853
4219.48943,0.06460
4221.41789,0.07123
4223.34636,0.06794
4225.27483,0.06491
4227.20330,0.07095
4229.13177,0.07599
4231.06024,0.07035
4232.98871,0.06219
4234.91718,0.06093
4236.84564,0.06242
4238.77411,0.06346
4240.70258,0.06540
4242.63105,0.06569
4244.55952,0.06270
4246.48799,0.06215
4248.41646,0.07021
4250.34492,0.07889
4252.27339,0.07851
4254.20186,0.07509
4256.13033,0.07618
4258.05880,0.07687
4259.98727,0.07130
4261.91574,0.06487
4263.84421,0.06068
4265.77267,0.05669
4267.70114,0.05722
4269.62961,0.06267
4271.55808,0.06602
4273.48655,0.06451
4275.41502,0.06117
4277.34349,0.05949
4279.27195,0.06054
4281.20042,0.06179
4283.12889,0.05908
4285.05736,0.05479
4286.98583,0.05551
4288.91430,0.06159
4290.84277,0.06967
4292.77124,0.07607
4294.69970,0.07681
4296.62817,0.07071
4298.55664,0.06196
4300.48511,0.05672
4302.41358,0.05697
4304.34205,0.06357
4306.27052,0.07265
4308.19898,0.07468
4310.12745,0.06889
4312.05592,0.06080
4313.98439,0.05161
4315.91286,0.04633
4317.84133,0.05274
4319.76980,0.06308
4321.69827,0.06517
4323.62673,0.06238
4325.55520,0.05963
4327.48367,0.05639
4329.41214,0.05464
4331.34061,0.05334
4333.26908,0.04939
4335.19755,0.04792
4337.12601,0.05244
4339.05448,0.05708
4340.98295,0.05618
4342.91142,0.04921
4344.83989,0.04406
4346.76836,0.04812
4348.69683,0.05436
4350.62530,0.05704
4352.55376,0.06092
4354.48223,0.06204
4356.41070,0.05673
4358.33917,0.05463
4360.26764,0.05525
4362.19611,0.05145
4364.12458,0.04730
4366.05304,0.04527
4367.98151,0.04086
4369.90998,0.03789
4371.83845,0.04460
4373.76692,0.05302
4375.69539,0.05006
4377.62386,0.04166
4379.55232,0.03759
4381.48079,0.03547
4383.40926,0.03308
4385.33773,0.03016
4387.26620,0.02735
4389.19467,0.03001
4391.12314,0.03638
4393.05161,0.03862
4394.98007,0.03784
4396.90854,0.03661
4398.83701,0.03386
4400.76548,0.03094
4402.69395,0.03099
4404.62242,0.03707
4406.55089,0.04372
4408.47935,0.04263
4410.40782,0.03871
4412.33629,0.03773
4414.26476,0.03636
4416.19323,0.03508
4418.12170,0.03541
4420.05017,0.03553
4421.97864,0.03755
4423.90710,0.03981
4425.83557,0.03673
4427.76404,0.02756
4429.69251,0.01620
4431.62098,0.01506
4433.54945,0.02682
4435.47792,0.03698
4437.40638,0.04211
4439.33485,0.04296
4441.26332,0.03627
4443.19179,0.03112
4445.12026,0.03621
4447.04873,0.04366
4448.97720,0.04202
4450.90567,0.03453
4452.83413,0.03024
4454.76260,0.03135
4456.69107,0.03633
4458.61954,0.03452
4460.54801,0.02230
4462.47648,0.01451
4464.40495,0.01363
4466.33341,0.01276
4468.26188,0.01755
4470.19035,0.02684
4472.11882,0.02783
4474.04729,0.02381
4475.97576,0.02416
4477.90423,0.02527
4479.83270,0.02675
4481.76116,0.03013
4483.68963,0.03070
4485.61810,0.03008
4487.54657,0.03280
4489.47504,0.03473
4491.40351,0.02928
4493.33198,0.02001
4495.26044,0.01733
4497.18891,0.02140
4499.11738,0.02613
4501.04585,0.02989
4502.97432,0.02813
4504.90279,0.02203
4506.83126,0.02620
4508.75973,0.04104
4510.68819,0.04795
4512.61666,0.03926
4514.54513,0.02408
4516.47360,0.01445
4518.40207,0.01795
4520.33054,0.02861
4522.25901,0.02832
4524.18747,0.01584
4526.11594,0.00720
4528.04441,0.00752
4529.97288,0.01068
4531.90135,0.00753
4533.82982,-0.00039
4535.75829,-0.00593
4537.68676,-0.00801
4539.61522,0.00243
4541.54369,0.01819
4543.47216,0.01685
4545.40063,0.00890
4547.32910,0.01383
4549.25757,0.02389
4551.18604,0.02870
4553.11450,0.03039
4555.04297,0.02964
4556.97144,0.02657
4558.89991,0.02351
4560.82838,0.01832
4562.75685,0.01025
4564.68532,0.00694
4566.61378,0.01341
4568.54225,0.02059
4570.47072,0.02382
4572.39919,0.02778
4574.32766,0.02538
4576.25613,0.01598
4578.18460,0.01796
4580.11307,0.02435
4582.04153,0.01301
4583.97000,0.00057
4585.89847,0.00529
4587.82694,0.01711
4589.75541,0.02474
4591.68388,0.02275
4593.61235,0.01811
4595.54081,0.01640
4597.46928,0.01026
4599.39775,0.00508
4601.32622,0.00984
4603.25469,0.01393
4605.18316,0.00754
4607.11163,0.00286
4609.04010,0.00761
4610.96856,0.00977
4612.89703,0.00794
4614.82550,0.00632
4616.75397,-0.00149
4618.68244,-0.00765
4620.61091,-0.00403
4622.53938,0.00322
4624.46784,0.01479
4626.39631,0.02685
4628.32478,0.03167
4630.25325,0.03000
4632.18172,0.02049
4634.11019,0.00963
4636.03866,0.00933
4637.96713,0.00902
4639.89559,0.00106
4641.82406,0.00399
4643.75253,0.01793
4645.68100,0.02007
4647.60947,0.00790
4649.53794,-0.00553
4651.46641,-0.00952
4653.39487,-0.00164
4655.32334,0.00787
4657.25181,0.01232
4659.18028,0.01461
4661.10875,0.01628
4663.03722,0.01265
4664.96569,0.00346
4666.89416,0.00305
4668.82262,0.01378
4670.75109,0.02203
4672.67956,0.01947
4674.60803,0.00876
4676.53650,0.00377
4678.46497,0.00775
4680.39344,0.01276
4682.32190,0.01427
4684.25037,0.00761
4686.17884,-0.00112
4688.10731,-0.00039
4690.03578,0.00864
4691.96425,0.01732
4693.89272,0.01622
4695.82119,0.00847
4697.74965,0.00944
4699.67812,0.01491
4701.60659,0.01202
4703.53506,0.00513
4705.46353,0.00056
4707.39200,-0.00359
4709.32047,-0.00534
4711.24893,0.00537
4713.17740,0.02175
4715.10587,0.02410
4717.03434,0.00887
4718.96281,-0.01085
4720.89128,-0.01395
4722.81975,0.00428
4724.74821,0.02086
4726.67668,0.01993
4728.60515,0.01418
4730.53362,0.01794
4732.46209,0.02259
4734.39056,0.01719
4736.31903,0.00792
4738.24750,0.00428
4740.17596,0.00247
4742.10443,0.00219
4744.03290,0.00747
4745.96137,0.01055
4747.88984,0.00707
4749.81831,0.00015
4751.74678,-0.00252
4753.67524,0.00412
4755.60371,0.01389
4757.53218,0.01845
4759.46065,0.01364
4761.38912,0.00499
4763.31759,0.00123
4765.24606,0.00580
4767.17453,0.01636
4769.10299,0.01825
4771.03146,0.00732
4772.95993,-0.00108
4774.88840,-0.00566
4776.81687,-0.00900
4778.74534,-0.00351
4780.67381,0.00826
4782.60227,0.01663
4784.53074,0.01458
4786.45921,0.00743
4788.38768,0.00941
4790.31615,0.01848
4792.24462,0.02042
4794.17309,0.01569
4796.10156,0.00976
4798.03002,0.00446
4799.95849,0.00456
4801.88696,0.00637
4803.81543,0.00786
4805.74390,0.01487
4807.67237,0.02031
4809.60084,0.01840
4811.52930,0.02177
4813.45777,0.03120
4815.38624,0.02889
4817.31471,0.01416
4819.24318,0.00427
4821.17165,0.00915
4823.10012,0.01521
4825.02859,0.00624
4826.95705,-0.00538
4828.88552,-0.00363
4830.81399,0.00450
4832.74246,0.00705
4834.67093,0.00829
4836.59940,0.01524
4838.52787,0.02094
4840.45633,0.02254
4842.38480,0.02177
4844.31327,0.01410
4846.24174,0.00342
4848.17021,0.00095
4850.09868,0.00762
4852.02715,0.01881
4853.95562,0.02543
4855.88408,0.01733
4857.81255,-0.00032
4859.74102,-0.01296
4861.66949,-0.01493
4863.59796,-0.01083
4865.52643,-0.00439
4867.45490,0.00546
4869.38336,0.01736
4871.31183,0.02339
4873.24030,0.01895
4875.16877,0.01349
4877.09724,0.01398
4879.02571,0.01305
4880.95418,0.00919
4882.88265,0.00865
4884.81111,0.00975
4886.73958,0.00242
4888.66805,-0.01316
4890.59652,-0.01679
4892.52499,-0.00226
4894.45346,0.01444
4896.38193,0.02131
4898.31039,0.01618
4900.23886,0.01307
4902.16733,0.01955
4904.09580,0.02322
4906.02427,0.02284
4907.95274,0.02129
4909.88121,0.01171
4911.80967,0.00368
4913.73814,0.00647
4915.66661,0.00966
4917.59508,0.01078
4919.52355,0.01188
4921.45202,0.00832
4923.38049,0.00441
4925.30896,0.00613
4927.23742,0.01130
4929.16589,0.01951
4931.09436,0.02547
4933.02283,0.01977
4934.95130,0.00886
4936.87977,0.00900
4938.80824,0.01739
4940.73670,0.01871
4942.66517,0.01517
4944.59364,0.01061
4946.52211,0.00366
4948.45058,0.00083
4950.37905,0.00342
4952.30752,0.00561
4954.23599,0.00868
4956.16445,0.02146
4958.09292,0.03426
4960.02139,0.02645
4961.94986,0.01253
4963.87833,0.01672
4965.80680,0.02358
4967.73527,0.01438
4969.66373,0.00725
4971.59220,0.01947
4973.52067,0.03539
4975.44914,0.03584
4977.37761,0.02162
4979.30608,0.00688
4981.23455,0.00462
4983.16302,0.01196
4985.09148,0.02182
4987.01995,0.02609
4988.94842,0.01798
4990.87689,0.00995
4992.80536,0.01257
4994.73383,0.01672
4996.66230,0.01414
4998.59076,0.01080
5000.51923,0.01123
5002.44770,0.00894
5004.37617,0.00697
5006.30464,0.01641
5008.23311,0.02198
5010.16158,0.00671
5012.09005,-0.01263
5014.01851,-0.01835
5015.94698,-0.00896
5017.87545,0.01462
5019.80392,0.03943
5021.73239,0.04363
5023.66086,0.03147
5025.58933,0.02280
5027.51779,0.01427
5029.44626,0.00469
5031.37473,0.00507
5033.30320,0.01558
5035.23167,0.02631
5037.16014,0.02572
5039.08861,0.01220
5041.01708,-0.00364
5042.94554,-0.00797
5044.87401,0.00415
5046.80248,0.02735
5048.73095,0.04719
5050.65942,0.05077
5052.58789,0.03956
5054.51636,0.02820
5056.44482,0.03064
5058.37329,0.03231
5060.30176,0.02041
5062.23023,0.01320
5064.15870,0.01253
5066.08717,0.00492
5068.01564,-0.00650
5069.94410,-0.01634
5071.87257,-0.02373
5073.80104,-0.01362
5075.72951,0.01956
5077.65798,0.04620
5079.58645,0.04681
5081.51492,0.03133
5083.44339,0.01509
5085.37185,0.00750
5087.30032,0.01166
5089.22879,0.02698
5091.15726,0.03699
5093.08573,0.02627
5095.01420,0.01153
5096.94267,0.01611
5098.87113,0.03258
5100.79960,0.03418
5102.72807,0.02197
5104.65654,0.01264
5106.58501,0.00781
5108.51348,0.01396
5110.44195,0.03074
5112.37042,0.03703
5114.29888,0.03121
5116.22735,0.02393
5118.15582,0.01194
5120.08429,0.01208
5122.01276,0.03287
5123.94123,0.04593
5125.86970,0.04389
5127.79816,0.03954
5129.72663,0.03578
5131.65510,0.03713
5133.58357,0.04311
5135.51204,0.04084
5137.44051,0.02642
5139.36898,0.01371
5141.29745,0.01405
5143.22591,0.02142
5145.15438,0.02409
5147.08285,0.01981
5149.01132,0.01698
5150.93979,0.02751
5152.86826,0.04418
5154.79673,0.05077
5156.72519,0.04310
5158.65366,0.02391
5160.58213,0.01354
5162.51060,0.02361
5164.43907,0.03485
5166.36754,0.03634
5168.29601,0.03503
5170.22448,0.03344
5172.15294,0.02963
5174.08141,0.02541
5176.00988,0.02864
5177.93835,0.03999
5179.86682,0.04479
5181.79529,0.03947
5183.72376,0.02967
5185.65222,0.01666
5187.58069,0.01598
5189.50916,0.03223
5191.43763,0.05135
5193.36610,0.06306
5195.29457,0.05877
5197.22304,0.03799
5199.15151,0.02309
5201.07997,0.03563
5203.00844,0.04752
5204.93691,0.02465
5206.86538,0.00348
5208.79385,0.02647
5210.72232,0.05714
5212.65079,0.06933
5214.57925,0.07409
5216.50772,0.06964
5218.43619,0.04923
5220.36466,0.03800
5222.29313,0.04992
5224.22160,0.06382
5226.15007,0.06257
5228.07854,0.05495
5230.00700,0.05830
5231.93547,0.05755
5233.86394,0.04199
5235.79241,0.03855
5237.72088,0.05387
5239.64935,0.06316
5241.57782,0.05163
5243.50628,0.03137
5245.43475,0.02705
5247.36322,0.04498
5249.29169,0.05902
5251.22016,0.04505
5253.14863,0.02201
5255.07710,0.01651
5257.00556,0.02857
5258.93403,0.04309
5260.86250,0.05412
5262.79097,0.06394
5264.71944,0.06881
5266.64791,0.06441
5268.57638,0.05628
5270.50485,0.04718
5272.43331,0.02922
5274.36178,0.00397
5276.29025,-0.00291
5278.21872,0.01280
5280.14719,0.01485
5282.07566,0.00156
5284.00413,0.00749
5285.93259,0.02492
5287.86106,0.03035
5289.78953,0.04939
5291.71800,0.09314
5293.64647,0.11238
5295.57494,0.09951
5297.50341,0.08358
5299.43188,0.06547
5301.36034,0.04511
5303.28881,0.04006
5305.21728,0.03927
5307.14575,0.02212
5309.07422,0.01575
5311.00269,0.03099
5312.93116,0.03614
5314.85962,0.03176
5316.78809,0.02864
5318.71656,0.01736
5320.64503,0.00533
5322.57350,0.00394
5324.50197,0.00466
5326.43044,0.01442
5328.35891,0.04992
5330.28737,0.08853
5332.21584,0.09758
5334.14431,0.07403
5336.07278,0.04150
5338.00125,0.02790
5339.92972,0.04114
5341.85819,0.05178
5343.78665,0.05068
5345.71512,0.05779
5347.64359,0.06743
5349.57206,0.06550
5351.50053,0.06118
5353.42900,0.07402
5355.35747,0.09659
5357.28594,0.10210
5359.21440,0.09028
5361.14287,0.06819
5363.07134,0.04534
5364.99981,0.03356
5366.92828,0.03703
5368.85675,0.04520
5370.78522,0.03830
5372.71368,0.02807
5374.64215,0.03871
5376.57062,0.06365
5378.49909,0.07976
5380.42756,0.07679
5382.35603,0.06180
5384.28450,0.04193
5386.21297,0.03622
5388.14143,0.05169
5390.06990,0.05968
5391.99837,0.05323
5393.92684,0.05055
5395.85531,0.06584
5397.78378,0.07967
5399.71225,0.07206
5401.64071,0.06032
5403.56918,0.05266
5405.49765,0.03987
5407.42612,0.03575
5409.35459,0.04791
5411.28306,0.05779
5413.21153,0.05256
5415.13999,0.04728
5417.06846,0.05238
5418.99693,0.04625
5420.92540,0.03054
5422.85387,0.03913
5424.78234,0.06205
5426.71081,0.05431
5428.63928,0.02126
5430.56774,0.02572
5432.49621,0.06893
5434.42468,0.09253
5436.35315,0.07743
5438.28162,0.05873
5440.21009,0.05396
5442.13856,0.05823
5444.06702,0.06020
5445.99549,0.04472
5447.92396,0.01296
5449.85243,-0.00453
5451.78090,0.02177
5453.70937,0.06794
5455.63784,0.08776
5457.56631,0.08521
5459.49477,0.09443
5461.42324,0.10514
5463.35171,0.10120
5465.28018,0.10331
5467.20865,0.12462
5469.13712,0.14292
5471.06559,0.13436
5472.99405,0.12027
5474.92252,0.11396
5476.85099,0.08435
5478.77946,0.05875
5480.70793,0.07959
5482.63640,0.10942
5484.56487,0.11288
5486.49334,0.11047
5488.42180,0.11115
5490.35027,0.10032
5492.27874,0.08689
5494.20721,0.08784
5496.13568,0.09637
5498.06415,0.09738
5499.99262,0.07516
5501.92108,0.04013
5503.84955,0.02955
5505.77802,0.04754
5507.70649,0.06509
5509.63496,0.07284
5511.56343,0.07735
5513.49190,0.07838
5515.42037,0.08863
5517.34883,0.10653
5519.27730,0.11129
5521.20577,0.10785
5523.13424,0.10000
5525.06271,0.09585
5526.99118,0.10960
5528.91965,0.11430
5530.84811,0.08486
5532.77658,0.04504
5534.70505,0.03231
5536.63352,0.04810
5538.56199,0.06127
5540.49046,0.05749
5542.41893,0.05316
5544.34740,0.05983
5546.27586,0.06135
5548.20433,0.05974
5550.13280,0.07314
5552.06127,0.09393
5553.98974,0.10740
5555.91821,0.10513
5557.84668,0.09591
5559.77514,0.09167
5561.70361,0.07134
5563.63208,0.03683
5565.56055,0.02331
5567.48902,0.02068
5569.41749,0.02091
5571.34596,0.04463
5573.27443,0.05989
5575.20289,0.04597
5577.13136,0.05688
5579.05983,0.08897
5580.98830,0.09186
5582.91677,0.08016
5584.84524,0.07899
5586.77371,0.07821
5588.70217,0.07259
5590.63064,0.07016
5592.55911,0.07790
5594.48758,0.08751
5596.41605,0.08716
5598.34452,0.06984
5600.27299,0.04822
5602.20145,0.04481
5604.12992,0.06022
5606.05839,0.08751
5607.98686,0.11153
5609.91533,0.10756
5611.84380,0.09120
5613.77227,0.09881
5615.70074,0.10433
5617.62920,0.08661
5619.55767,0.06881
5621.48614,0.04530
5623.41461,0.02843
5625.34308,0.05016
5627.27155,0.08000
5629.20002,0.08394
5631.12848,0.07367
5633.05695,0.05958
5634.98542,0.04266
5636.91389,0.03012
5638.84236,0.04069
5640.77083,0.06936
5642.69930,0.08264
5644.62777,0.07804
5646.55623,0.06455
5648.48470,0.03192
5650.41317,0.01419
5652.34164,0.04059
5654.27011,0.05881
5656.19858,0.03658
5658.12705,0.00015
5660.05551,-0.01025
5661.98398,0.03977
5663.91245,0.10645
5665.84092,0.11029
5667.76939,0.06746
5669.69786,0.04026
5671.62633,0.05576
5673.55480,0.08866
5675.48326,0.08701
5677.41173,0.06859
5679.34020,0.07586
5681.26867,0.09284
5683.19714,0.11373
5685.12561,0.12708
5687.05408,0.11315
5688.98254,0.09098
5690.91101,0.08156
5692.83948,0.08092
5694.76795,0.08206
5696.69642,0.08292
5698.62489,0.07665
5700.55336,0.06322
5702.48183,0.05908
5704.41029,0.06161
5706.33876,0.06243
5708.26723,0.07321
5710.19570,0.07714
5712.12417,0.06476
5714.05264,0.07719
5715.98111,0.10060
5717.90957,0.09319
5719.83804,0.08461
5721.76651,0.08387
5723.69498,0.06394
5725.62345,0.04951
5727.55192,0.05833
5729.48039,0.05018
5731.40886,0.01886
5733.33732,0.01092
5735.26579,0.02500
5737.19426,0.04133
5739.12273,0.09036
5741.05120,0.13113
5742.97967,0.11198
5744.90814,0.08385
5746.83660,0.08315
5748.76507,0.09633
5750.69354,0.09637
5752.62201,0.08532
5754.55048,0.07865
5756.47895,0.06602
5758.40742,0.05864
5760.33588,0.06306
5762.26435,0.07128
5764.19282,0.08833
5766.12129,0.09990
5768.04976,0.09812
5769.97823,0.09866
5771.90670,0.09315
5773.83517,0.07198
5775.76363,0.04841
5777.69210,0.03146
5779.62057,0.03758
5781.54904,0.07704
5783.47751,0.11921
5785.40598,0.12059
5787.33445,0.07427
5789.26291,0.02141
5791.19138,0.01102
5793.11985,0.05041
5795.04832,0.08435
5796.97679,0.08003
5798.90526,0.07853
5800.83373,0.07505
5802.76220,0.04802
5804.69066,0.05821
5806.61913,0.10560
5808.54760,0.11324
5810.47607,0.09461
5812.40454,0.09263
5814.33301,0.10012
5816.26148,0.09584
5818.18994,0.07078
5820.11841,0.06218
5822.04688,0.10426
5823.97535,0.14453
5825.90382,0.12953
5827.83229,0.08958
5829.76076,0.06932
5831.68923,0.06208
5833.61769,0.07340
5835.54616,0.10533
5837.47463,0.11821
5839.40310,0.11368
5841.33157,0.11034
5843.26004,0.09494
5845.18851,0.07394
5847.11697,0.06696
5849.04544,0.05965
5850.97391,0.04513
5852.90238,0.04448
5854.83085,0.04734
5856.75932,0.03754
5858.68779,0.03640
5860.61626,0.05978
5862.54472,0.08479
5864.47319,0.09143
5866.40166,0.08357
5868.33013,0.06426
5870.25860,0.05621
5872.18707,0.09107
5874.11554,0.13335
5876.04400,0.12460
5877.97247,0.09363
5879.90094,0.08406
5881.82941,0.09605
5883.75788,0.12496
5885.68635,0.12479
5887.61482,0.05550
5889.54329,-0.00818
5891.47175,0.01548
5893.40022,0.05877
5895.32869,0.05170
5897.25716,0.04971
5899.18563,0.08897
5901.11410,0.10941
5903.04257,0.08996
5904.97103,0.08780
5906.89950,0.10223
5908.82797,0.09150
5910.75644,0.07318
5912.68491,0.05338
5914.61338,0.01229
5916.54185,-0.01567
5918.47032,-0.01199
5920.39878,0.01546
5922.32725,0.06532
5924.25572,0.09491
5926.18419,0.09702
5928.11266,0.09811
5930.04113,0.09332
5931.96960,0.07859
5933.89806,0.04500
5935.82653,0.02917
5937.75500,0.07564
5939.68347,0.14472
5941.61194,0.18117
5943.54041,0.16470
5945.46888,0.10502
5947.39734,0.02879
5949.32581,-0.01586
5951.25428,-0.00419
5953.18275,0.02194
5955.11122,0.03877
5957.03969,0.05206
5958.96816,0.05102
5960.89663,0.04020
5962.82509,0.04815
5964.75356,0.07132
5966.68203,0.07580
5968.61050,0.07404
5970.53897,0.09764
5972.46744,0.11646
5974.39591,0.11975
5976.32437,0.12069
5978.25284,0.11257
5980.18131,0.11066
5982.10978,0.11325
5984.03825,0.10648
5985.96672,0.10085
5987.89519,0.10385
5989.82366,0.10031
5991.75212,0.08284
5993.68059,0.09253
5995.60906,0.11236
5997.53753,0.08103
5999.46600,0.07104
6001.39447,0.11531
6003.32294,0.13055
6005.25140,0.12288
6007.17987,0.14282
6009.10834,0.14358
6011.03681,0.10161
6012.96528,0.07943
6014.89375,0.10787
6016.82222,0.13369
6018.75069,0.11797
6020.67915,0.08738
6022.60762,0.04825
6024.53609,0.01516
6026.46456,0.03223
6028.39303,0.06391
6030.32150,0.05423
6032.24997,0.03106
6034.17843,0.01071
6036.10690,-0.00306
6038.03537,0.02037
6039.96384,0.07107
6041.89231,0.09061
6043.82078,0.05203
6045.74925,0.02319
6047.67772,0.06641
6049.60618,0.13858
6051.53465,0.15741
6053.46312,0.13896
6055.39159,0.12225
6057.32006,0.07467
6059.24853,0.02404
6061.17700,0.04632
6063.10546,0.10445
6065.03393,0.14041
6066.96240,0.16994
6068.89087,0.17515
6070.81934,0.13325
6072.74781,0.09361
6074.67628,0.09923
6076.60475,0.11947
6078.53321,0.11063
6080.46168,0.08661
6082.39015,0.06283
6084.31862,0.05084
6086.24709,0.10130
6088.17556,0.17212
6090.10403,0.14928
6092.03249,0.08158
6093.96096,0.09151
6095.88943,0.14233
6097.81790,0.15190
6099.74637,0.14269
6101.67484,0.15069
6103.60331,0.13540
6105.53177,0.06013
6107.46024,0.00050
6109.38871,0.01992
6111.31718,0.06684
6113.24565,0.09357
6115.17412,0.10925
6117.10259,0.14631
6119.03106,0.16488
6120.95952,0.11367
6122.88799,0.06019
6124.81646,0.05769
6126.74493,0.11020
6128.67340,0.17941
6130.60187,0.19849
6132.53034,0.18026
6134.45880,0.14574
6136.38727,0.07934
6138.31574,0.00850
6140.24421,-0.01493
6142.17268,0.03388
6144.10115,0.08258
6146.02962,0.04875
6147.95809,0.00450
6149.88655,0.03693
6151.81502,0.11124
6153.74349,0.14111
6155.67196,0.12958
6157.60043,0.11887
6159.52890,0.09346
6161.45737,0.06057
6163.38583,0.04116
6165.31430,0.03138
6167.24277,0.06107
6169.17124,0.10912
6171.09971,0.10054
6173.02818,0.06062
6174.95665,0.06639
6176.88512,0.09309
6178.81358,0.06548
6180.74205,-0.01796
6182.67052,-0.06990
6184.59899,-0.05048
6186.52746,-0.00057
6188.45593,0.06798
6190.38440,0.15553
6192.31286,0.21875
6194.24133,0.23081
6196.16980,0.20890
6198.09827,0.18012
6200.02674,0.16098
6201.95521,0.13767
6203.88368,0.11049
6205.81215,0.10413
6207.74061,0.10221
6209.66908,0.09943
6211.59755,0.09938
6213.52602,0.09602
6215.45449,0.10736
6217.38296,0.12666
6219.31143,0.13519
6221.23989,0.12929
6223.16836,0.09456
6225.09683,0.06597
6227.02530,0.10243
6228.95377,0.14595
6230.88224,0.15151
6232.81071,0.15058
6234.73918,0.10365
6236.66764,0.02174
6238.59611,-0.01247
6240.52458,0.00346
6242.45305,0.02245
6244.38152,0.01870
6246.30999,0.02248
6248.23846,0.05368
6250.16692,0.06110
6252.09539,0.05075
6254.02386,0.07672
6255.95233,0.11931
6257.88080,0.13923
6259.80927,0.14658
6261.73774,0.16649
6263.66621,0.15434
6265.59467,0.07714
6267.52314,0.01857
6269.45161,0.00821
6271.38008,0.01285
6273.30855,0.03539
6275.23702,0.04386
6277.16549,0.03032
6279.09395,0.04762
6281.02242,0.09383
6282.95089,0.12429
6284.87936,0.12089
6286.80783,0.11360
6288.73630,0.11007
6290.66477,0.09220
6292.59323,0.08736
6294.52170,0.10909
6296.45017,0.11339
6298.37864,0.09024
6300.30711,0.07465
6302.23558,0.07590
6304.16405,0.09219
6306.09252,0.12248
6308.02098,0.13559
6309.94945,0.11778
6311.87792,0.10751
6313.80639,0.11434
6315.73486,0.13101
6317.66333,0.19277
6319.59180,0.23037
6321.52026,0.15972
6323.44873,0.07609
6325.37720,0.06534
6327.30567,0.11810
6329.23414,0.17281
6331.16261,0.16573
6333.09108,0.11840
6335.01955,0.05753
6336.94801,0.02270
6338.87648,0.03831
6340.80495,0.04758
6342.73342,0.04787
6344.66189,0.07330
6346.59036,0.08585
6348.51883,0.08128
6350.44729,0.06945
6352.37576,0.04788
6354.30423,0.05319
6356.23270,0.06327
6358.16117,0.04895
6360.08964,0.00918
6362.01811,-0.03715
6363.94658,-0.05254
6365.87504,-0.05068
6367.80351,-0.03632
6369.73198,0.02539
6371.66045,0.10182
6373.58892,0.10500
6375.51739,0.04021
6377.44586,0.00621
6379.37432,0.01100
6381.30279,0.00357
6383.23126,-0.00845
6385.15973,-0.00812
6387.08820,-0.02390
6389.01667,-0.04555
6390.94514,-0.02757
6392.87361,0.03545
6394.80207,0.10267
6396.73054,0.13051
6398.65901,0.13361
6400.58748,0.15029
6402.51595,0.14277
6404.44442,0.09111
6406.37289,0.08231
6408.30135,0.15143
6410.22982,0.21035
6412.15829,0.19085
6414.08676,0.12352
6416.01523,0.04427
6417.94370,-0.02030
6419.87217,-0.00898
6421.80064,0.04326
6423.72910,0.04956
6425.65757,0.02736
6427.58604,0.02552
6429.51451,0.02203
6431.44298,0.02809
6433.37145,0.05635
6435.29992,0.07544
6437.22838,0.11481
6439.15685,0.17323
6441.08532,0.16113
6443.01379,0.08692
6444.94226,0.06562
6446.87073,0.09418
6448.79920,0.10254
6450.72766,0.09004
6452.65613,0.08267
6454.58460,0.09108
6456.51307,0.07269
6458.44154,0.01573
6460.37001,-0.00009
6462.29848,0.03108
6464.22695,0.07330
6466.15541,0.16092
6468.08388,0.22510
6470.01235,0.12770
6471.94082,-0.01837
6473.86929,-0.00671
6475.79776,0.10021
6477.72623,0.15787
6479.65469,0.19371
6481.58316,0.21647
6483.51163,0.17549
6485.44010,0.10900
6487.36857,0.05244
6489.29704,0.05673
6491.22551,0.13559
6493.15398,0.15329
6495.08244,0.08588
6497.01091,0.06520
6498.93938,0.07226
6500.86785,0.01843
6502.79632,-0.04978
6504.72479,-0.05313
6506.65326,-0.01112
6508.58172,0.04668
6510.51019,0.10572
6512.43866,0.12185
6514.36713,0.10347
6516.29560,0.11139
6518.22407,0.11464
6520.15254,0.09418
6522.08101,0.11278
6524.00947,0.15527
6525.93794,0.14605
6527.86641,0.11095
6529.79488,0.10837
6531.72335,0.09872
6533.65182,0.05738
6535.58029,0.04059
6537.50875,0.04549
6539.43722,0.06702
6541.36569,0.12578
6543.29416,0.16475
6545.22263,0.11909
6547.15110,0.00629
6549.07957,-0.08139
6551.00804,-0.06281
6552.93650,-0.02073
6554.86497,-0.03814
6556.79344,-0.06239
6558.72191,-0.04790
6560.65038,-0.00659
6562.57885,0.02101
6564.50732,0.01693
6566.43578,0.03154
6568.36425,0.09931
6570.29272,0.18398
6572.22119,0.21006
6574.14966,0.14002
6576.07813,0.03571
6578.00660,0.00026
6579.93507,0.05891
6581.86353,0.09407
6583.79200,0.05337
6585.72047,0.03981
6587.64894,0.07243
6589.57741,0.06892
6591.50588,0.03681
6593.43435,0.04671
6595.36281,0.06767
6597.29128,0.06195
6599.21975,0.05979
6601.14822,0.05887
6603.07669,0.05596
6605.00516,0.05871
6606.93363,0.08380
6608.86210,0.14320
6610.79056,0.19587
6612.71903,0.19758
6614.64750,0.15722
6616.57597,0.07891
6618.50444,-0.01996
6620.43291,-0.07435
6622.36138,-0.08092
6624.28984,-0.05074
6626.21831,0.02071
6628.14678,0.07535
6630.07525,0.08117
6632.00372,0.10383
6633.93219,0.17377
6635.86066,0.21758
6637.78912,0.13318
6639.71759,0.00788
6641.64606,-0.01407
6643.57453,0.06046
6645.50300,0.13007
6647.43147,0.12440
6649.35994,0.05790
6651.28841,0.00305
6653.21687,-0.01113
6655.14534,-0.00957
6657.07381,-0.01390
6659.00228,-0.01493
6660.93075,0.01585
6662.85922,0.05831
6664.78769,0.08157
6666.71615,0.08210
6668.64462,0.05135
6670.57309,0.04303
6672.50156,0.11496
6674.43003,0.17442
6676.35850,0.14590
6678.28697,0.09421
6680.21544,0.05739
6682.14390,0.02540
6684.07237,0.00779
6686.00084,0.00753
6687.92931,0.02024
6689.85778,0.03469
6691.78625,0.05047
6693.71472,0.07083
6695.64318,0.06028
6697.57165,-0.02311
6699.50012,-0.09777
6701.42859,-0.04195
6703.35706,0.07319
6705.28553,0.12242
6707.21400,0.10236
6709.14247,0.07050
6711.07093,0.07296
6712.99940,0.09258
6714.92787,0.09262
6716.85634,0.06149
6718.78481,0.08851
6720.71328,0.21986
6722.64175,0.28108
6724.57021,0.20998
6726.49868,0.13859
6728.42715,0.08556
6730.35562,0.02716
6732.28409,0.01263
6734.21256,0.04117
6736.14103,0.05902
6738.06950,0.07992
6739.99796,0.13871
6741.92643,0.15439
6743.85490,0.07044
6745.78337,-0.01975
6747.71184,-0.04592
6749.64031,-0.02671
6751.56878,-0.02364
6753.49724,-0.02418
6755.42571,0.00234
6757.35418,0.05699
6759.28265,0.12677
6761.21112,0.15656
6763.13959,0.15269
6765.06806,0.11326
6766.99653,0.02596
6768.92499,-0.01496
6770.85346,0.01745
6772.78193,0.05533
6774.71040,0.09496
6776.63887,0.13238
6778.56734,0.14807
6780.49581,0.16265
6782.42427,0.13662
6784.35274,0.04837
6786.28121,-0.00172
6788.20968,0.04766
6790.13815,0.12374
6792.06662,0.14618
6793.99509,0.12401
6795.92355,0.07409
6797.85202,0.02057
6799.78049,0.02045
6801.70896,0.05240
6803.63743,0.03747
6805.56590,0.03709
6807.49437,0.05675
6809.42284,0.03209
6811.35130,0.06305
6813.27977,0.14345
6815.20824,0.11955
6817.13671,0.04259
6819.06518,-0.00111
6820.99365,-0.02085
6822.92212,-0.00338
6824.85058,0.02238
6826.77905,0.02491
6828.70752,0.03042
6830.63599,0.04940
6832.56446,0.06825
6834.49293,0.08542
6836.42140,0.12219
6838.34987,0.18239
6840.27833,0.18937
6842.20680,0.09390
6844.13527,0.01740
6846.06374,0.05903
6847.99221,0.10261
6849.92068,0.06817
6851.84915,0.04700
6853.77761,0.03754
6855.70608,0.02314
6857.63455,0.01329
6859.56302,-0.01458
6861.49149,-0.03279
6863.41996,-0.03161
6865.34843,0.01710
6867.27690,0.14114
6869.20536,0.17464
6871.13383,0.07436
6873.06230,0.01065
6874.99077,-0.00748
6876.91924,-0.07108
6878.84771,-0.10994
6880.77618,-0.04825
6882.70464,0.01862
6884.63311,0.02039
6886.56158,0.04066
6888.49005,0.09941
6890.41852,0.15308
6892.34699,0.21707
6894.27546,0.25675
6896.20393,0.29479
6898.13239,0.34891
6900.06086,0.31095
6901.98933,0.23740
6903.91780,0.25588
6905.84627,0.33319
6907.77474,0.33304
6909.70321,0.21937
6911.63167,0.08265
6913.56014,0.03372
6915.48861,0.11327
6917.41708,0.21983
6919.34555,0.17695
6921.27402,0.01674
6923.20249,-0.04922
6925.13096,-0.02191
6927.05942,-0.02137
6928.98789,-0.03875
6930.91636,0.00735
6932.84483,0.06538
6934.77330,0.07506
6936.70177,0.08040
6938.63024,0.10107
6940.55870,0.14313
6942.48717,0.18682
6944.41564,0.18281
6946.34411,0.13960
6948.27258,0.10276
6950.20105,0.08829
6952.12952,0.09977
6954.05799,0.11813
6955.98645,0.12927
6957.91492,0.12887
6959.84339,0.08244
6961.77186,-0.00891
6963.70033,-0.05387
6965.62880,0.02876
6967.55727,0.15964
6969.48573,0.17323
6971.41420,0.12655
6973.34267,0.17237
6975.27114,0.29030
6977.19961,0.34996
6979.12808,0.21427
6981.05655,-0.06066
6982.98501,-0.15481
6984.91348,0.04885
6986.84195,0.17934
6988.77042,0.10626
6990.69889,0.07336
6992.62736,0.07548
6994.55583,-0.00191
6996.48430,-0.11534
6998.41276,-0.12611
7000.34123,-0.02587
7002.26970,0.01700
7004.19817,-0.00884
7006.12664,-0.04806
7008.05511,-0.07276
7009.98358,-0.02483
7011.91204,0.10325
7013.84051,0.19845
7015.76898,0.13771
7017.69745,0.02127
7019.62592,-0.04893
7021.55439,-0.00994
7023.48286,0.14854
7025.41133,0.24398
7027.33979,0.19219
7029.26826,0.10779
7031.19673,0.09761
7033.12520,0.14776
7035.05367,0.11206
7036.98214,-0.03207
7038.91061,-0.14321
7040.83907,-0.22120
7042.76754,-0.22837
7044.69601,-0.08959
7046.62448,0.09567
7048.55295,0.24398
7050.48142,0.31896
7052.40989,0.25409
7054.33836,0.08427
7056.26682,0.02923
7058.19529,0.18238
7060.12376,0.29666
7062.05223,0.22574
7063.98070,0.09392
7065.90917,0.04436
7067.83764,0.04539
7069.76610,0.03511
7071.69457,0.02058
7073.62304,0.02884
7075.55151,0.04535
7077.47998,0.05377
7079.40845,0.01355
7081.33692,-0.08488
7083.26539,-0.09291
7085.19385,-0.00754
7087.12232,0.09376
7089.05079,0.20062
7090.97926,0.17966
7092.90773,-0.01992
7094.83620,-0.13855
7096.76467,-0.06493
7098.69313,0.01170
7100.62160,0.00069
7102.55007,-0.02432
7104.47854,-0.00671
7106.40701,0.06887
7108.33548,0.08796
7110.26395,0.01133
7112.19242,-0.01777
7114.12088,0.06843
7116.04935,0.18502
7117.97782,0.26373
7119.90629,0.34955
7121.83476,0.45652
7123.76323,0.46754
7125.69170,0.33919
7127.62016,0.17463
7129.54863,0.04915
7131.47710,-0.05821
7133.40557,-0.08081
7135.33404,0.01348
7137.26251,0.06624
7139.19098,0.00272
7141.11944,-0.05212
7143.04791,-0.05701
7144.97638,-0.03018
7146.90485,0.06401
7148.83332,0.07705
7150.76179,-0.04129
7152.69026,-0.10348
7154.61873,-0.04840
7156.54719,0.01449
7158.47566,0.07765
7160.40413,0.12116
7162.33260,0.11666
7164.26107,0.14838
7166.18954,0.28964
7168.11801,0.39256
7170.04647,0.27718
7171.97494,0.04464
7173.90341,-0.07500
7175.83188,-0.11257
7177.76035,-0.16679
7179.68882,-0.17466
7181.61729,-0.09926
7183.54576,-0.05887
7185.47422,-0.07811
7187.40269,-0.02766
7189.33116,0.06702
7191.25963,0.10223
7193.18810,0.09107
7195.11657,0.08591
7197.04504,0.07780
7198.97350,0.10778
7200.90197,0.19113
7202.83044,0.16882
7204.75891,-0.07033
7206.68738,-0.22914
7208.61585,-0.19707
7210.54432,-0.12993
7212.47279,-0.07895
7214.40125,-0.02873
7216.32972,0.04142
7218.25819,0.05638
7220.18666,0.07714
7222.11513,0.18144
7224.04360,0.25810
7225.97207,0.26117
7227.90053,0.22337
7229.82900,0.15783
7231.75747,0.16103
7233.68594,0.29100
7235.61441,0.35072
7237.54288,0.25966
7239.47135,0.22060
7241.39982,0.25082
7243.32828,0.18333
7245.25675,0.09777
7247.18522,0.04310
7249.11369,-0.01338
7251.04216,-0.00112
7252.97063,0.07010
7254.89910,0.03628
7256.82756,-0.01865
7258.75603,0.03277
7260.68450,0.15147
7262.61297,0.19568
7264.54144,0.15511
7266.46991,0.08213
7268.39838,0.04720
7270.32685,0.09369
7272.25531,0.14081
7274.18378,0.12836
7276.11225,0.03793
7278.04072,-0.15137
7279.96919,-0.32617
7281.89766,-0.29526
7283.82613,-0.05931
7285.75459,0.20122
7287.68306,0.28245
7289.61153,0.23636
7291.54000,0.18468
7293.46847,0.05361
7295.39694,-0.05789
7297.32541,0.03867
7299.25387,0.14541
7301.18234,0.07106
7303.11081,-0.03801
7305.03928,0.03779
7306.96775,0.25549
7308.89622,0.34536
7310.82469,0.21132
7312.75316,0.11530
7314.68162,0.18935
7316.61009,0.41979
7318.53856,0.60881
7320.46703,0.59314
7322.39550,0.35858
7324.32397,0.01408
7326.25244,-0.18090
7328.18090,-0.14671
7330.10937,-0.02444
7332.03784,-0.05797
7333.96631,-0.24143
7335.89478,-0.33514
7337.82325,-0.26269
7339.75172,-0.15648
7341.68019,-0.04961
7343.60865,0.13877
7345.53712,0.25454
7347.46559,0.27835
7349.39406,0.35141
7351.32253,0.41370
7353.25100,0.28232
7355.17947,0.09789
7357.10793,0.08388
7359.03640,0.14800
7360.96487,0.15129
7362.89334,0.10356
7364.82181,0.06443
7366.75028,0.12292
7368.67875,0.22338
7370.60722,0.28792
7372.53568,0.37272
7374.46415,0.55240
7376.39262,0.53540
7378.32109,0.21591
7380.24956,-0.12956
7382.17803,-0.29237
7384.10650,-0.23993
7386.03496,-0.23940
7387.96343,-0.29048
7389.89190,-0.11793
7391.82037,0.20296
7393.74884,0.38311
7395.67731,0.30124
7397.60578,0.13013
7399.53425,0.01177
7401.46271,0.00762
7403.39118,0.15471
7405.31965,0.33316
7407.24812,0.43141
7409.17659,0.45309
7411.10506,0.29668
7413.03353,0.06541
7414.96199,-0.00490
7416.89046,0.17393
7418.81893,0.52072
7420.74740,0.64036
7422.67587,0.34054
7424.60434,-0.01592
7426.53281,-0.13676
7428.46128,-0.04911
7430.38974,0.08490
7432.31821,0.19356
7434.24668,0.23394
7436.17515,0.12766
7438.10362,0.03785
7440.03209,0.04939
7441.96056,0.04147
7443.88902,0.07171
7445.81749,0.10981
7447.74596,0.04712
7449.67443,0.03330
7451.60290,0.17945
7453.53137,0.25351
7455.45984,0.22844
7457.38831,0.26911
7459.31677,0.29695
7461.24524,0.12381
7463.17371,0.00261
7465.10218,0.08045
7467.03065,0.13872
7468.95912,0.13625
7470.88759,0.15622
7472.81605,0.15489
7474.74452,0.14402
7476.67299,0.13765
7478.60146,0.09156
7480.52993,0.06373
7482.45840,0.11633
7484.38687,0.19790
7486.31533,0.25385
7488.24380,0.20514
7490.17227,0.07769
7492.10074,0.03405
7494.02921,0.16449
7495.95768,0.40703
7497.88615,0.56674
