399.19301,2.97545
401.12148,0.88103
403.04995,0.65772
404.97842,0.58632
406.90689,0.43840
408.83536,0.27711
410.76382,0.09049
412.69229,-0.04805
414.62076,-0.04458
416.54923,0.01624
418.47770,0.05848
420.40617,0.07696
422.33464,0.10876
424.26311,0.19588
426.19157,0.26712
428.12004,0.20400
430.04851,0.07259
431.97698,0.01109
433.90545,0.00148
435.83392,-0.02119
437.76239,-0.01112
439.69085,0.06408
441.61932,0.12905
443.54779,0.10023
445.47626,0.03866
447.40473,0.03521
449.33320,0.09484
451.26167,0.14695
453.19013,0.07766
455.11860,-0.05131
457.04707,-0.04632
458.97554,0.06018
460.90401,0.09109
462.83248,0.06203
464.76095,0.03263
466.68942,0.01339
468.61788,0.03179
470.54635,0.43432
472.47482,2.70664
474.40329,5.57339
476.33176,3.72065
478.26023,1.11021
480.18870,0.21291
482.11716,0.11428
484.04563,0.06870
485.97410,0.08523
487.90257,0.13334
489.83104,0.16452
491.75951,0.16071
493.68798,0.10551
495.61645,0.02713
497.54491,-0.01580
499.47338,-0.01442
501.40185,-0.00373
503.33032,-0.02452
505.25879,-0.04793
507.18726,-0.01759
509.11573,0.03410
511.04419,0.05801
512.97266,0.07400
514.90113,0.08946
516.82960,0.07046
518.75807,0.02967
520.68654,0.02017
522.61501,0.05858
524.54348,0.11727
526.47194,0.14352
528.40041,0.12663
530.32888,0.10538
532.25735,0.11516
534.18582,0.15187
536.11429,0.17766
538.04276,0.17586
539.97122,0.16951
541.89969,0.16494
543.82816,0.15668
545.75663,0.14506
547.68510,0.12129
549.61357,0.09900
551.54204,0.10989
553.47051,0.14408
555.39897,0.15982
557.32744,0.13868
559.25591,0.10418
561.18438,0.08588
563.11285,0.09197
565.04132,0.09704
566.96979,0.08734
568.89825,0.09805
570.82672,0.11288
572.75519,0.09540
574.68366,0.09411
576.61213,0.11908
578.54060,0.11623
580.46907,0.09828
582.39754,0.09801
584.32600,0.10598
586.25447,0.10258
588.18294,0.09897
590.11141,0.10799
592.03988,0.09975
593.96835,0.07600
595.89682,0.07498
597.82528,0.09649
599.75375,0.12210
601.68222,0.14073
603.61069,0.14665
605.53916,0.13857
607.46763,0.12842
609.39610,0.12634
611.32456,0.13322
613.25303,0.14215
615.18150,0.14047
617.10997,0.13899
619.03844,0.14553
620.96691,0.14981
622.89538,0.14968
624.82385,0.13620
626.75231,0.10991
628.68078,0.09639
630.60925,0.09423
632.53772,0.08118
634.46619,0.07381
636.39466,0.08291
638.32313,0.09164
640.25159,0.09341
642.18006,0.08986
644.10853,0.09729
646.03700,0.11936
647.96547,0.13097
649.89394,0.12290
651.82241,0.11206
653.75088,0.10897
655.67934,0.10554
657.60781,0.10346
659.53628,0.11921
661.46475,0.13776
663.39322,0.13739
665.32169,0.12503
667.25016,0.10346
669.17862,0.08967
671.10709,0.10587
673.03556,0.11850
674.96403,0.11539
676.89250,0.11398
678.82097,0.12394
680.74944,0.12608
682.67791,0.11631
684.60637,0.11684
686.53484,0.12980
688.46331,0.13230
690.39178,0.12304
692.32025,0.11911
694.24872,0.12519
696.17719,0.13718
698.10565,0.14292
700.03412,0.13305
701.96259,0.12301
703.89106,0.12968
705.81953,0.14366
707.74800,0.14951
709.67647,0.14151
711.60494,0.12898
713.53340,0.12970
715.46187,0.13963
717.39034,0.14331
719.31881,0.13808
721.24728,0.13269
723.17575,0.13587
725.10422,0.14717
727.03268,0.15844
728.96115,0.15533
730.88962,0.14210
732.81809,0.13227
734.74656,0.12441
736.67503,0.12295
738.60350,0.12741
740.53197,0.13117
742.46043,0.14043
744.38890,0.15228
746.31737,0.15348
748.24584,0.14976
750.17431,0.15836
752.10278,0.16759
754.03125,0.15474
755.95971,0.13319
757.88818,0.12246
759.81665,0.12506
761.74512,0.13628
763.67359,0.13765
765.60206,0.12949
767.53053,0.13503
769.45900,0.15021
771.38746,0.14988
773.31593,0.13273
775.24440,0.12303
777.17287,0.12841
779.10134,0.13773
781.02981,0.14681
782.95828,0.14866
784.88674,0.13891
786.81521,0.12506
788.74368,0.11707
790.67215,0.11909
792.60062,0.12441
794.52909,0.12611
796.45756,0.12674
798.38602,0.13057
800.31449,0.13411
802.24296,0.13129
804.17143,0.12418
806.09990,0.12078
808.02837,0.12724
809.95684,0.13550
811.88531,0.13132
813.81377,0.12435
815.74224,0.12963
817.67071,0.14165
819.59918,0.15098
821.52765,0.14639
823.45612,0.13063
825.38459,0.12187
827.31305,0.12215
829.24152,0.12452
831.16999,0.13007
833.09846,0.13886
835.02693,0.13726
836.95540,0.12099
838.88387,0.10741
840.81234,0.10835
842.74080,0.12597
844.66927,0.14747
846.59774,0.15184
848.52621,0.14294
850.45468,0.14163
852.38315,0.14904
854.31162,0.15321
856.24008,0.15710
858.16855,0.16244
860.09702,0.16207
862.02549,0.15514
863.95396,0.14569
865.88243,0.14264
867.81090,0.15726
869.73937,0.18359
871.66783,0.19570
873.59630,0.18288
875.52477,0.16346
877.45324,0.15209
879.38171,0.14542
881.31018,0.13972
883.23865,0.13692
885.16711,0.13923
887.09558,0.14580
889.02405,0.15333
890.95252,0.15346
892.88099,0.14046
894.80946,0.12723
896.73793,0.12696
898.66640,0.13558
900.59486,0.14742
902.52333,0.15867
904.45180,0.16401
906.38027,0.16397
908.30874,0.16178
910.23721,0.15510
912.16568,0.14368
914.09414,0.13741
916.02261,0.14190
917.95108,0.15009
919.87955,0.15358
921.80802,0.14892
923.73649,0.14231
925.66496,0.14035
927.59343,0.13800
929.52189,0.13434
931.45036,0.13612
933.37883,0.14013
935.30730,0.13875
937.23577,0.13825
939.16424,0.14396
941.09271,0.14504
943.02117,0.13985
944.94964,0.14338
946.87811,0.16250
948.80658,0.18687
950.73505,0.19676
952.66352,0.18321
954.59199,0.16348
956.52045,0.15273
958.44892,0.14720
960.37739,0.14643
962.30586,0.14842
964.23433,0.14834
966.16280,0.14493
968.09127,0.14002
970.01974,0.13710
971.94820,0.13739
973.87667,0.14300
975.80514,0.15002
977.73361,0.15562
979.66208,0.16264
981.59055,0.16656
983.51902,0.16251
985.44748,0.15134
987.37595,0.14105
989.30442,0.14200
991.23289,0.15056
993.16136,0.15320
995.08983,0.14808
997.01830,0.14154
998.94677,0.13436
1000.87523,0.13208
1002.80370,0.14012
1004.73217,0.15164
1006.66064,0.15698
1008.58911,0.15314
1010.51758,0.14930
1012.44605,0.15519
1014.37451,0.16364
1016.30298,0.16577
1018.23145,0.16644
1020.15992,0.16950
1022.08839,0.16906
1024.01686,0.15969
1025.94533,0.14920
1027.87380,0.15207
1029.80226,0.15931
1031.73073,0.15621
1033.65920,0.15689
1035.58767,0.16862
1037.51614,0.17622
1039.44461,0.17029
1041.37308,0.15863
1043.30154,0.15518
1045.23001,0.15597
1047.15848,0.15134
1049.08695,0.14781
1051.01542,0.15419
1052.94389,0.16605
1054.87236,0.16866
1056.80083,0.15741
1058.72929,0.14520
1060.65776,0.14787
1062.58623,0.16413
1064.51470,0.17404
1066.44317,0.17148
1068.37164,0.17285
1070.30011,0.17855
1072.22857,0.17553
1074.15704,0.16609
1076.08551,0.15596
1078.01398,0.14928
1079.94245,0.15211
1081.87092,0.15960
1083.79939,0.16053
1085.72786,0.15425
1087.65632,0.14996
1089.58479,0.14817
1091.51326,0.14513
1093.44173,0.14740
1095.37020,0.15897
1097.29867,0.17124
1099.22714,0.17909
1101.15560,0.18538
1103.08407,0.18741
1105.01254,0.18185
1106.94101,0.17195
1108.86948,0.16228
1110.79795,0.15630
1112.72642,0.15816
1114.65489,0.16761
1116.58335,0.17793
1118.51182,0.18275
1120.44029,0.17845
1122.36876,0.16994
1124.29723,0.16645
1126.22570,0.16534
1128.15417,0.15890
1130.08263,0.15183
1132.01110,0.15354
1133.93957,0.15957
1135.86804,0.16137
1137.79651,0.16226
1139.72498,0.16491
1141.65345,0.16605
1143.58191,0.16727
1145.51038,0.16992
1147.43885,0.16975
1149.36732,0.16678
1151.29579,0.16637
1153.22426,0.16905
1155.15273,0.17123
1157.08120,0.17012
1159.00966,0.16532
1160.93813,0.16243
1162.86660,0.16493
1164.79507,0.16502
1166.72354,0.16008
1168.65201,0.15886
1170.58048,0.16292
1172.50894,0.16734
1174.43741,0.17127
1176.36588,0.17369
1178.29435,0.17237
1180.22282,0.16978
1182.15129,0.16835
1184.07976,0.16561
1186.00823,0.16274
1187.93669,0.16154
1189.86516,0.16110
1191.79363,0.16370
1193.72210,0.16905
1195.65057,0.17218
1197.57904,0.17032
1199.50751,0.16634
1201.43597,0.16270
1203.36444,0.15915
1205.29291,0.15899
1207.22138,0.16327
1209.14985,0.16685
1211.07832,0.16832
1213.00679,0.17018
1214.93526,0.17168
1216.86372,0.17178
1218.79219,0.17280
1220.72066,0.17591
1222.64913,0.17866
1224.57760,0.17754
1226.50607,0.17330
1228.43454,0.16939
1230.36300,0.16546
1232.29147,0.16210
1234.21994,0.16297
1236.14841,0.16716
1238.07688,0.16941
1240.00535,0.16701
1241.93382,0.16199
1243.86229,0.15728
1245.79075,0.15611
1247.71922,0.16063
1249.64769,0.16736
1251.57616,0.16993
1253.50463,0.16721
1255.43310,0.16568
1257.36157,0.16767
1259.29003,0.16782
1261.21850,0.16479
1263.14697,0.16423
1265.07544,0.16850
1267.00391,0.16925
1268.93238,0.16390
1270.86085,0.16285
1272.78932,0.16840
1274.71778,0.17259
1276.64625,0.17293
1278.57472,0.17309
1280.50319,0.17233
1282.43166,0.17099
1284.36013,0.17308
1286.28860,0.17537
1288.21706,0.17434
1290.14553,0.17214
1292.07400,0.17143
1294.00247,0.17203
1295.93094,0.17107
1297.85941,0.16907
1299.78788,0.16587
1301.71634,0.15758
1303.64481,0.14868
1305.57328,0.15103
1307.50175,0.16558
1309.43022,0.18054
1311.35869,0.18584
1313.28716,0.18013
1315.21563,0.17172
1317.14409,0.16991
1319.07256,0.17350
1321.00103,0.17596
1322.92950,0.17728
1324.85797,0.17752
1326.78644,0.17414
1328.71491,0.17065
1330.64337,0.16973
1332.57184,0.16948
1334.50031,0.16947
1336.42878,0.17128
1338.35725,0.17475
1340.28572,0.17399
1342.21419,0.16080
1344.14266,0.13535
1346.07112,0.12093
1347.99959,0.13915
1349.92806,0.16583
1351.85653,0.17413
1353.78500,0.17333
1355.71347,0.17432
1357.64194,0.17639
1359.57040,0.17833
1361.49887,0.17953
1363.42734,0.17752
1365.35581,0.17356
1367.28428,0.17293
1369.21275,0.17665
1371.14122,0.17910
1373.06969,0.17550
1374.99815,0.17210
1376.92662,0.17654
1378.85509,0.18242
1380.78356,0.18392
1382.71203,0.18306
1384.64050,0.18201
1386.56897,0.18100
1388.49743,0.18005
1390.42590,0.18004
1392.35437,0.18128
1394.28284,0.18034
1396.21131,0.17683
1398.13978,0.17534
1400.06825,0.17767
1401.99672,0.18165
1403.92518,0.18205
1405.85365,0.17802
1407.78212,0.17606
1409.71059,0.17908
1411.63906,0.18344
1413.56753,0.18546
1415.49600,0.18515
1417.42446,0.18428
1419.35293,0.18442
1421.28140,0.18584
1423.20987,0.18747
1425.13834,0.18576
1427.06681,0.18018
1428.99528,0.17549
1430.92375,0.17626
1432.85221,0.18030
1434.78068,0.18131
1436.70915,0.17928
1438.63762,0.17946
1440.56609,0.18101
1442.49456,0.18172
1444.42303,0.18252
1446.35149,0.18515
1448.27996,0.18746
1450.20843,0.18708
1452.13690,0.18813
1454.06537,0.19033
1455.99384,0.18995
1457.92231,0.18970
1459.85077,0.18841
1461.77924,0.18562
1463.70771,0.18557
1465.63618,0.18754
1467.56465,0.18773
1469.49312,0.18752
1471.42159,0.18924
1473.35006,0.19216
1475.27852,0.19285
1477.20699,0.19266
1479.13546,0.19331
1481.06393,0.19205
1482.99240,0.18703
1484.92087,0.18214
1486.84934,0.18127
1488.77780,0.18632
1490.70627,0.19235
1492.63474,0.19305
1494.56321,0.19158
1496.49168,0.19051
1498.42015,0.19117
1500.34862,0.19721
1502.27709,0.20986
1504.20555,0.22205
1506.13402,0.21771
1508.06249,0.19656
1509.99096,0.19248
1511.91943,0.19480
1513.84790,0.19694
1515.77637,0.19771
1517.70483,0.19918
1519.63330,0.20152
1521.56177,0.19782
1523.49024,0.19165
1525.41871,0.19046
1527.34718,0.19015
1529.27565,0.18851
1531.20412,0.18874
1533.13258,0.19131
1535.06105,0.19062
1536.98952,0.18833
1538.91799,0.19108
1540.84646,0.20058
1542.77493,0.20314
1544.70340,0.19877
1546.63186,0.19536
1548.56033,0.19478
1550.48880,0.19316
1552.41727,0.19060
1554.34574,0.19127
1556.27421,0.19651
1558.20268,0.20148
1560.13115,0.18935
1562.05961,0.18113
1563.98808,0.18177
1565.91655,0.18533
1567.84502,0.18975
1569.77349,0.19108
1571.70196,0.18964
1573.63043,0.19313
1575.55889,0.19865
1577.48736,0.19192
1579.41583,0.17902
1581.34430,0.17201
1583.27277,0.17068
1585.20124,0.17161
1587.12971,0.17503
1589.05818,0.18158
1590.98664,0.18607
1592.91511,0.18597
1594.84358,0.18415
1596.77205,0.18132
1598.70052,0.17919
1600.62899,0.17952
1602.55746,0.18094
1604.48592,0.18236
1606.41439,0.18215
1608.34286,0.18011
1610.27133,0.18147
1612.19980,0.18781
1614.12827,0.19234
1616.05674,0.19206
1617.98521,0.19188
1619.91367,0.19235
1621.84214,0.19089
1623.77061,0.18939
1625.69908,0.19036
1627.62755,0.19000
1629.55602,0.18558
1631.48449,0.18267
1633.41295,0.18674
1635.34142,0.19593
1637.26989,0.19602
1639.19836,0.19217
1641.12683,0.19271
1643.05530,0.19525
1644.98377,0.20056
1646.91223,0.20640
1648.84070,0.20161
1650.76917,0.19642
1652.69764,0.20137
1654.62611,0.20476
1656.55458,0.19911
1658.48305,0.19572
1660.41152,0.20006
1662.33998,0.20865
1664.26845,0.20573
1666.19692,0.19878
1668.12539,0.19941
1670.05386,0.20153
1671.98233,0.19989
1673.91080,0.19898
1675.83926,0.19734
1677.76773,0.19433
1679.69620,0.19547
1681.62467,0.20394
1683.55314,0.21201
1685.48161,0.20438
1687.41008,0.19595
1689.33855,0.19212
1691.26701,0.18987
1693.19548,0.19217
1695.12395,0.19853
1697.05242,0.20020
1698.98089,0.19428
1700.90936,0.18811
1702.83783,0.18686
1704.76629,0.18969
1706.69476,0.19282
1708.62323,0.19183
1710.55170,0.18952
1712.48017,0.18879
1714.40864,0.18842
1716.33711,0.18870
1718.26558,0.19164
1720.19404,0.19369
1722.12251,0.19450
1724.05098,0.19315
1725.97945,0.18942
1727.90792,0.18851
1729.83639,0.19088
1731.76486,0.19121
1733.69332,0.18763
1735.62179,0.18497
1737.55026,0.18680
1739.47873,0.19143
1741.40720,0.19480
1743.33567,0.19379
1745.26414,0.19129
1747.19261,0.19005
1749.12107,0.18981
1751.04954,0.19034
1752.97801,0.19148
1754.90648,0.19086
1756.83495,0.18823
1758.76342,0.18761
1760.69189,0.18813
1762.62035,0.18829
1764.54882,0.19067
1766.47729,0.19227
1768.40576,0.19126
1770.33423,0.19374
1772.26270,0.20243
1774.19117,0.20520
1776.11964,0.19900
1778.04810,0.19146
1779.97657,0.18813
1781.90504,0.18973
1783.83351,0.19187
1785.76198,0.19227
1787.69045,0.19055
1789.61892,0.18918
1791.54738,0.19166
1793.47585,0.19346
1795.40432,0.19013
1797.33279,0.18816
1799.26126,0.19218
1801.18973,0.19836
1803.11820,0.19978
1805.04666,0.19636
1806.97513,0.19202
1808.90360,0.19010
1810.83207,0.19042
1812.76054,0.19144
1814.68901,0.19227
1816.61748,0.18478
1818.54595,0.16354
1820.47441,0.14530
1822.40288,0.14865
1824.33135,0.17052
1826.25982,0.18868
1828.18829,0.19138
1830.11676,0.18947
1832.04523,0.18960
1833.97369,0.18945
1835.90216,0.18860
1837.83063,0.18870
1839.75910,0.19083
1841.68757,0.19300
1843.61604,0.19414
1845.54451,0.19424
1847.47298,0.19317
1849.40144,0.19182
1851.32991,0.19073
1853.25838,0.19035
1855.18685,0.18931
1857.11532,0.18649
1859.04379,0.18494
1860.97226,0.18633
1862.90072,0.18826
1864.82919,0.19002
1866.75766,0.19240
1868.68613,0.19459
1870.61460,0.19405
1872.54307,0.18995
1874.47154,0.18478
1876.40001,0.18288
1878.32847,0.18620
1880.25694,0.19088
1882.18541,0.19288
1884.11388,0.19268
1886.04235,0.19224
1887.97082,0.19203
1889.89929,0.18903
1891.82775,0.18295
1893.75622,0.17997
1895.68469,0.18303
1897.61316,0.18847
1899.54163,0.19104
1901.47010,0.19039
1903.39857,0.18959
1905.32704,0.18934
1907.25550,0.18977
1909.18397,0.19050
1911.11244,0.18990
1913.04091,0.18947
1914.96938,0.19061
1916.89785,0.19203
1918.82632,0.19202
1920.75478,0.19003
1922.68325,0.18819
1924.61172,0.18807
1926.54019,0.18875
1928.46866,0.18951
1930.39713,0.19008
1932.32560,0.19001
1934.25407,0.18831
1936.18253,0.18663
1938.11100,0.18759
1940.03947,0.18952
1941.96794,0.19076
1943.89641,0.19108
1945.82488,0.19061
1947.75335,0.19061
1949.68181,0.19116
1951.61028,0.19238
1953.53875,0.19472
1955.46722,0.19595
1957.39569,0.19501
1959.32416,0.19397
1961.25263,0.19335
1963.18110,0.19296
1965.10956,0.19254
1967.03803,0.19150
1968.96650,0.19073
1970.89497,0.19124
1972.82344,0.19211
1974.75191,0.19431
1976.68038,0.20119
1978.60884,0.20834
1980.53731,0.20549
1982.46578,0.19457
1984.39425,0.18825
1986.32272,0.18840
1988.25119,0.18840
1990.17966,0.18834
1992.10812,0.19003
1994.03659,0.19224
1995.96506,0.19357
1997.89353,0.19215
1999.82200,0.18904
2001.75047,0.18911
2003.67894,0.19159
2005.60741,0.19159
2007.53587,0.19062
2009.46434,0.19048
2011.39281,0.18957
2013.32128,0.18867
2015.24975,0.18902
2017.17822,0.19004
2019.10669,0.19019
2021.03515,0.18941
2022.96362,0.18902
2024.89209,0.18955
2026.82056,0.18977
2028.74903,0.18814
2030.67750,0.18680
2032.60597,0.18878
2034.53444,0.19159
2036.46290,0.19083
2038.39137,0.18755
2040.31984,0.18719
2042.24831,0.19069
2044.17678,0.19209
2046.10525,0.18916
2048.03372,0.18690
2049.96218,0.18886
2051.89065,0.19260
2053.81912,0.19467
2055.74759,0.19479
2057.67606,0.19358
2059.60453,0.19245
2061.53300,0.19321
2063.46147,0.19370
2065.38993,0.19204
2067.31840,0.19192
2069.24687,0.19456
2071.17534,0.19684
2073.10381,0.19742
2075.03228,0.19585
2076.96075,0.19322
2078.88921,0.19170
2080.81768,0.19144
2082.74615,0.19225
2084.67462,0.19268
2086.60309,0.19044
2088.53156,0.18842
2090.46003,0.19069
2092.38850,0.19394
2094.31696,0.19366
2096.24543,0.19164
2098.17390,0.19120
2100.10237,0.19266
2102.03084,0.19592
2103.95931,0.19955
2105.88778,0.19929
2107.81624,0.19523
2109.74471,0.19274
2111.67318,0.19412
2113.60165,0.19573
2115.53012,0.19291
2117.45859,0.18776
2119.38706,0.18731
2121.31553,0.19185
2123.24399,0.19580
2125.17246,0.19754
2127.10093,0.19787
2129.02940,0.19650
2130.95787,0.19495
2132.88634,0.19434
2134.81481,0.19246
2136.74327,0.19029
2138.67174,0.19089
2140.60021,0.19169
2142.52868,0.19194
2144.45715,0.19424
2146.38562,0.19568
2148.31409,0.19359
2150.24255,0.19197
2152.17102,0.19328
2154.09949,0.19458
2156.02796,0.19418
2157.95643,0.19317
2159.88490,0.19224
2161.81337,0.19104
2163.74184,0.19047
2165.67030,0.19258
2167.59877,0.19599
2169.52724,0.19742
2171.45571,0.19585
2173.38418,0.19312
2175.31265,0.19238
2177.24112,0.19391
2179.16958,0.19490
2181.09805,0.19410
2183.02652,0.19375
2184.95499,0.19478
2186.88346,0.19482
2188.81193,0.19339
2190.74040,0.19255
2192.66887,0.19328
2194.59733,0.19453
2196.52580,0.19465
2198.45427,0.19320
2200.38274,0.19156
2202.31121,0.19096
2204.23968,0.19149
2206.16815,0.19315
2208.09661,0.19320
2210.02508,0.19057
2211.95355,0.19080
2213.88202,0.19367
2215.81049,0.19306
2217.73896,0.19055
2219.66743,0.19024
2221.59590,0.19103
2223.52436,0.19207
2225.45283,0.19348
2227.38130,0.19361
2229.30977,0.19259
2231.23824,0.19154
2233.16671,0.19054
2235.09518,0.18964
2237.02364,0.18752
2238.95211,0.18501
2240.88058,0.18599
2242.80905,0.18964
2244.73752,0.19105
2246.66599,0.18942
2248.59446,0.18816
2250.52293,0.18866
2252.45139,0.18885
2254.37986,0.18781
2256.30833,0.18748
2258.23680,0.18848
2260.16527,0.18947
2262.09374,0.18867
2264.02221,0.18609
2265.95067,0.18500
2267.87914,0.18593
2269.80761,0.18707
2271.73608,0.18789
2273.66455,0.18700
2275.59302,0.18634
2277.52149,0.18864
2279.44996,0.18925
2281.37842,0.18647
2283.30689,0.18665
2285.23536,0.18956
2287.16383,0.18900
2289.09230,0.18494
2291.02077,0.17850
2292.94924,0.16911
2294.87770,0.16306
2296.80617,0.16534
2298.73464,0.16891
2300.66311,0.16846
2302.59158,0.16813
2304.52005,0.16712
2306.44852,0.16049
2308.37699,0.15209
2310.30545,0.14711
2312.23392,0.14351
2314.16239,0.13902
2316.09086,0.13528
2318.01933,0.13476
2319.94780,0.13273
2321.87627,0.12299
2323.80473,0.11208
2325.73320,0.10650
2327.66167,0.10604
2329.59014,0.11067
2331.51861,0.11233
2333.44708,0.10060
2335.37555,0.08538
2337.30401,0.08249
2339.23248,0.08305
2341.16095,0.07982
2343.08942,0.08299
2345.01789,0.09485
2346.94636,0.10926
2348.87483,0.11577
2350.80330,0.11148
2352.73176,0.09998
2354.66023,0.08420
2356.58870,0.06806
2358.51717,0.05612
2360.44564,0.04449
2362.37411,0.03875
2364.30258,0.04684
2366.23104,0.06195
2368.15951,0.08251
2370.08798,0.10829
2372.01645,0.12820
2373.94492,0.13640
2375.87339,0.14204
2377.80186,0.15262
2379.73033,0.16417
2381.65879,0.17299
2383.58726,0.17961
2385.51573,0.18440
2387.44420,0.18798
2389.37267,0.19092
2391.30114,0.19240
2393.22961,0.19224
2395.15807,0.19083
2397.08654,0.18897
2399.01501,0.18931
2400.94348,0.19190
2402.87195,0.19309
2404.80042,0.19300
2406.72889,0.19517
2408.65736,0.19817
2410.58582,0.19818
2412.51429,0.19715
2414.44276,0.19761
2416.37123,0.19869
2418.29970,0.19994
2420.22817,0.20011
2422.15664,0.19737
2424.08510,0.19254
2426.01357,0.18956
2427.94204,0.19072
2429.87051,0.19126
2431.79898,0.18805
2433.72745,0.18602
2435.65592,0.18797
2437.58439,0.19100
2439.51285,0.19223
2441.44132,0.19157
2443.36979,0.19007
2445.29826,0.18824
2447.22673,0.18809
2449.15520,0.18931
2451.08367,0.18733
2453.01213,0.18314
2454.94060,0.18236
2456.86907,0.18611
2458.79754,0.19156
2460.72601,0.19507
2462.65448,0.19587
2464.58295,0.19525
2466.51142,0.19416
2468.43988,0.19432
2470.36835,0.19531
2472.29682,0.19627
2474.22529,0.19673
2476.15376,0.19534
2478.08223,0.19370
2480.01070,0.19243
2481.93916,0.19032
2483.86763,0.19010
2485.79610,0.19313
2487.72457,0.19506
2489.65304,0.19431
2491.58151,0.19500
2493.50998,0.19747
2495.43844,0.19789
2497.36691,0.19490
2499.29538,0.19091
2501.22385,0.18965
2503.15232,0.19190
2505.08079,0.19545
2507.00926,0.19689
2508.93773,0.19490
2510.86619,0.19345
2512.79466,0.19490
2514.72313,0.19653
2516.65160,0.19767
2518.58007,0.19842
2520.50854,0.19721
2522.43701,0.19554
2524.36547,0.19486
2526.29394,0.19441
2528.22241,0.19529
2530.15088,0.19790
2532.07935,0.20024
2534.00782,0.19960
2535.93629,0.19586
2537.86476,0.19274
2539.79322,0.19154
2541.72169,0.19071
2543.65016,0.18999
2545.57863,0.18977
2547.50710,0.18998
2549.43557,0.19001
2551.36404,0.19060
2553.29250,0.19226
2555.22097,0.19280
2557.14944,0.19123
2559.07791,0.18985
2561.00638,0.19138
2562.93485,0.19479
2564.86332,0.19655
2566.79179,0.19691
2568.72025,0.19792
2570.64872,0.19873
2572.57719,0.19694
2574.50566,0.19258
2576.43413,0.18980
2578.36260,0.19149
2580.29107,0.19503
2582.21953,0.19629
2584.14800,0.19478
2586.07647,0.19323
2588.00494,0.19436
2589.93341,0.19645
2591.86188,0.19505
2593.79035,0.19250
2595.71882,0.19430
2597.64728,0.19858
2599.57575,0.20031
2601.50422,0.19877
2603.43269,0.19718
2605.36116,0.19767
2607.28963,0.19898
2609.21810,0.19986
2611.14656,0.19975
2613.07503,0.19867
2615.00350,0.19789
2616.93197,0.19832
2618.86044,0.19919
2620.78891,0.19861
2622.71738,0.19599
2624.64585,0.19361
2626.57431,0.19379
2628.50278,0.19644
2630.43125,0.19861
2632.35972,0.19679
2634.28819,0.19311
2636.21666,0.19243
2638.14513,0.19313
2640.07359,0.19260
2642.00206,0.19312
2643.93053,0.19573
2645.85900,0.19841
2647.78747,0.19943
2649.71594,0.19916
2651.64441,0.19939
2653.57288,0.19906
2655.50134,0.19775
2657.42981,0.19831
2659.35828,0.19923
2661.28675,0.19815
2663.21522,0.19663
2665.14369,0.19576
2667.07216,0.19644
2669.00062,0.19765
2670.92909,0.19640
2672.85756,0.19388
2674.78603,0.19485
2676.71450,0.19949
2678.64297,0.20396
2680.57144,0.20727
2682.49990,0.20840
2684.42837,0.20541
2686.35684,0.20019
2688.28531,0.19717
2690.21378,0.19861
2692.14225,0.20162
2694.07072,0.20232
2695.99919,0.20227
2697.92765,0.20325
2699.85612,0.20205
2701.78459,0.19907
2703.71306,0.19863
2705.64153,0.20003
2707.57000,0.20037
2709.49847,0.19925
2711.42693,0.19699
2713.35540,0.19495
2715.28387,0.19690
2717.21234,0.20268
2719.14081,0.20682
2721.06928,0.20767
2722.99775,0.20663
2724.92622,0.20429
2726.85468,0.20371
2728.78315,0.20554
2730.71162,0.20498
2732.64009,0.20261
2734.56856,0.20197
2736.49703,0.20145
2738.42550,0.20131
2740.35396,0.20193
2742.28243,0.20143
2744.21090,0.20129
2746.13937,0.20135
2748.06784,0.20070
2749.99631,0.20173
2751.92478,0.20385
2753.85325,0.20474
2755.78171,0.20477
2757.71018,0.20441
2759.63865,0.20382
2761.56712,0.20469
2763.49559,0.20695
2765.42406,0.20753
2767.35253,0.20809
2769.28099,0.21092
2771.20946,0.21216
2773.13793,0.21047
2775.06640,0.20698
2776.99487,0.20348
2778.92334,0.20421
2780.85181,0.20836
2782.78028,0.21084
2784.70874,0.21048
2786.63721,0.21088
2788.56568,0.21195
2790.49415,0.21079
2792.42262,0.20899
2794.35109,0.20726
2796.27956,0.20683
2798.20802,0.20980
2800.13649,0.21211
2802.06496,0.21109
2803.99343,0.21006
2805.92190,0.21074
2807.85037,0.21180
2809.77884,0.21250
2811.70731,0.21277
2813.63577,0.21212
2815.56424,0.21070
2817.49271,0.20940
2819.42118,0.20834
2821.34965,0.20658
2823.27812,0.20554
2825.20659,0.20703
2827.13505,0.20897
2829.06352,0.21008
2830.99199,0.21080
2832.92046,0.21045
2834.84893,0.21007
2836.77740,0.20935
2838.70587,0.20730
2840.63433,0.20790
2842.56280,0.21207
2844.49127,0.21596
2846.41974,0.21749
2848.34821,0.21555
2850.27668,0.21192
2852.20515,0.20835
2854.13362,0.20485
2856.06208,0.20420
2857.99055,0.20581
2859.91902,0.20711
2861.84749,0.20839
2863.77596,0.20750
2865.70443,0.20537
2867.63290,0.20653
2869.56136,0.21063
2871.48983,0.21354
2873.41830,0.21332
2875.34677,0.21426
2877.27524,0.21619
2879.20371,0.21270
2881.13218,0.20693
2883.06065,0.20620
2884.98911,0.20835
2886.91758,0.20726
2888.84605,0.20292
2890.77452,0.20062
2892.70299,0.20376
2894.63146,0.20818
2896.55993,0.20811
2898.48839,0.20698
2900.41686,0.20880
2902.34533,0.21051
2904.27380,0.20982
2906.20227,0.20717
2908.13074,0.20279
2910.05921,0.20039
2911.98768,0.20383
2913.91614,0.20760
2915.84461,0.20681
2917.77308,0.20576
2919.70155,0.20469
2921.63002,0.20026
2923.55849,0.19537
2925.48696,0.19239
2927.41542,0.19263
2929.34389,0.19855
2931.27236,0.20706
2933.20083,0.21368
2935.12930,0.21386
2937.05777,0.20617
2938.98624,0.20155
2940.91471,0.20544
2942.84317,0.20896
2944.77164,0.20803
2946.70011,0.20434
2948.62858,0.20105
2950.55705,0.20252
2952.48552,0.20657
2954.41399,0.20794
2956.34245,0.20449
2958.27092,0.20084
2960.19939,0.20256
2962.12786,0.20512
2964.05633,0.20398
2965.98480,0.20156
2967.91327,0.19902
2969.84174,0.19785
2971.77020,0.20221
2973.69867,0.21082
2975.62714,0.21455
2977.55561,0.20962
2979.48408,0.20475
2981.41255,0.20623
2983.34102,0.20989
2985.26948,0.21068
2987.19795,0.20858
2989.12642,0.20902
2991.05489,0.21474
2992.98336,0.22068
2994.91183,0.22177
2996.84030,0.21772
2998.76877,0.21430
3000.69723,0.21532
3002.62570,0.21464
3004.55417,0.20841
3006.48264,0.20388
3008.41111,0.20673
3010.33958,0.20948
3012.26805,0.20183
3014.19651,0.18435
3016.12498,0.17028
3018.05345,0.17680
3019.98192,0.19896
3021.91039,0.21447
3023.83886,0.21962
3025.76733,0.22084
3027.69579,0.21759
3029.62426,0.21359
3031.55273,0.21495
3033.48120,0.21942
3035.40967,0.21964
3037.33814,0.21563
3039.26661,0.21471
3041.19508,0.21742
3043.12354,0.21854
3045.05201,0.21688
3046.98048,0.21374
3048.90895,0.21177
3050.83742,0.21194
3052.76589,0.21227
3054.69436,0.20993
3056.62282,0.20395
3058.55129,0.20321
3060.47976,0.21132
3062.40823,0.21616
3064.33670,0.21231
3066.26517,0.20840
3068.19364,0.21117
3070.12211,0.21632
3072.05057,0.21661
3073.97904,0.21063
3075.90751,0.20549
3077.83598,0.20854
3079.76445,0.21509
3081.69292,0.21752
3083.62139,0.21482
3085.54985,0.21131
3087.47832,0.21180
3089.40679,0.21498
3091.33526,0.21431
3093.26373,0.20617
3095.19220,0.20178
3097.12067,0.20875
3099.04914,0.21504
3100.97760,0.21297
3102.90607,0.20643
3104.83454,0.20491
3106.76301,0.21151
3108.69148,0.21819
3110.61995,0.22046
3112.54842,0.21701
3114.47688,0.21142
3116.40535,0.20932
3118.33382,0.20959
3120.26229,0.21171
3122.19076,0.21491
3124.11923,0.21609
3126.04770,0.21584
3127.97617,0.21624
3129.90463,0.21646
3131.83310,0.21632
3133.76157,0.21534
3135.69004,0.21149
3137.61851,0.20677
3139.54698,0.20639
3141.47545,0.21119
3143.40391,0.21709
3145.33238,0.22217
3147.26085,0.22315
3149.18932,0.21768
3151.11779,0.21304
3153.04626,0.21469
3154.97473,0.21904
3156.90320,0.22021
3158.83166,0.21705
3160.76013,0.21470
3162.68860,0.21562
3164.61707,0.21669
3166.54554,0.21687
3168.47401,0.21669
3170.40248,0.21758
3172.33094,0.22039
3174.25941,0.22076
3176.18788,0.21742
3178.11635,0.21373
3180.04482,0.21268
3181.97329,0.21423
3183.90176,0.21342
3185.83022,0.21091
3187.75869,0.21306
3189.68716,0.21942
3191.61563,0.22397
3193.54410,0.22595
3195.47257,0.22606
3197.40104,0.22031
3199.32951,0.21137
3201.25797,0.20780
3203.18644,0.21070
3205.11491,0.21369
3207.04338,0.21429
3208.97185,0.21554
3210.90032,0.21742
3212.82879,0.21761
3214.75725,0.21586
3216.68572,0.21598
3218.61419,0.21881
3220.54266,0.21933
3222.47113,0.21877
3224.39960,0.21970
3226.32807,0.21634
3228.25654,0.20812
3230.18500,0.20431
3232.11347,0.20810
3234.04194,0.21297
3235.97041,0.21436
3237.89888,0.21432
3239.82735,0.21563
3241.75582,0.21586
3243.68428,0.21348
3245.61275,0.21351
3247.54122,0.21394
3249.46969,0.20917
3251.39816,0.20453
3253.32663,0.20408
3255.25510,0.20416
3257.18357,0.20384
3259.11203,0.20477
3261.04050,0.20523
3262.96897,0.20711
3264.89744,0.21497
3266.82591,0.22230
3268.75438,0.22131
3270.68285,0.21777
3272.61131,0.21916
3274.53978,0.22062
3276.46825,0.21676
3278.39672,0.21334
3280.32519,0.21441
3282.25366,0.21555
3284.18213,0.21402
3286.11060,0.21232
3288.03906,0.21202
3289.96753,0.21066
3291.89600,0.20692
3293.82447,0.20543
3295.75294,0.20840
3297.68141,0.21048
3299.60988,0.20928
3301.53834,0.20751
3303.46681,0.20673
3305.39528,0.20595
3307.32375,0.20549
3309.25222,0.20741
3311.18069,0.20955
3313.10916,0.20910
3315.03763,0.20795
3316.96609,0.20941
3318.89456,0.21204
3320.82303,0.21064
3322.75150,0.20690
3324.67997,0.20616
3326.60844,0.20849
3328.53691,0.21275
3330.46537,0.21725
3332.39384,0.21744
3334.32231,0.21376
3336.25078,0.21324
3338.17925,0.21565
3340.10772,0.21544
3342.03619,0.21411
3343.96466,0.21518
3345.89312,0.21707
3347.82159,0.21716
3349.75006,0.21535
3351.67853,0.21202
3353.60700,0.20834
3355.53547,0.20675
3357.46394,0.20693
3359.39240,0.20547
3361.32087,0.20444
3363.24934,0.20850
3365.17781,0.21252
3367.10628,0.21216
3369.03475,0.21255
3370.96322,0.21626
3372.89168,0.21926
3374.82015,0.21860
3376.74862,0.21484
3378.67709,0.20841
3380.60556,0.20266
3382.53403,0.20104
3384.46250,0.20283
3386.39097,0.20451
3388.31943,0.20367
3390.24790,0.20475
3392.17637,0.20847
3394.10484,0.20941
3396.03331,0.20786
3397.96178,0.20617
3399.89025,0.20529
3401.81871,0.20598
3403.74718,0.20704
3405.67565,0.20762
3407.60412,0.20769
3409.53259,0.20521
3411.46106,0.20189
3413.38953,0.20219
3415.31800,0.20412
3417.24646,0.20525
3419.17493,0.20645
3421.10340,0.20590
3423.03187,0.20387
3424.96034,0.20009
3426.88881,0.19246
3428.81728,0.18795
3430.74574,0.19125
3432.67421,0.19768
3434.60268,0.20350
3436.53115,0.20570
3438.45962,0.20255
3440.38809,0.19596
3442.31656,0.19358
3444.24503,0.19955
3446.17349,0.20815
3448.10196,0.21339
3450.03043,0.21065
3451.95890,0.20085
3453.88737,0.19063
3455.81584,0.18608
3457.74431,0.18885
3459.67277,0.19044
3461.60124,0.18533
3463.52971,0.18358
3465.45818,0.19034
3467.38665,0.19665
3469.31512,0.19826
3471.24359,0.19948
3473.17206,0.19889
3475.10052,0.19224
3477.02899,0.18581
3478.95746,0.18504
3480.88593,0.18476
3482.81440,0.18189
3484.74287,0.17933
3486.67134,0.18001
3488.59980,0.18336
3490.52827,0.18495
3492.45674,0.18291
3494.38521,0.18048
3496.31368,0.18119
3498.24215,0.18610
3500.17062,0.19098
3502.09909,0.18906
3504.02755,0.18424
3505.95602,0.18219
3507.88449,0.17801
3509.81296,0.17266
3511.74143,0.17343
3513.66990,0.17926
3515.59837,0.18266
3517.52683,0.17998
3519.45530,0.17612
3521.38377,0.17874
3523.31224,0.18520
3525.24071,0.18832
3527.16918,0.18913
3529.09765,0.18507
3531.02611,0.17599
3532.95458,0.16903
3534.88305,0.16648
3536.81152,0.16785
3538.73999,0.17002
3540.66846,0.16976
3542.59693,0.16895
3544.52540,0.17127
3546.45386,0.17500
3548.38233,0.17466
3550.31080,0.16993
3552.23927,0.16603
3554.16774,0.16609
3556.09621,0.16601
3558.02468,0.16437
3559.95314,0.16235
3561.88161,0.16109
3563.81008,0.16001
3565.73855,0.15627
3567.66702,0.15283
3569.59549,0.15115
3571.52396,0.15134
3573.45243,0.15658
3575.38089,0.16186
3577.30936,0.16099
3579.23783,0.15893
3581.16630,0.16046
3583.09477,0.16271
3585.02324,0.16483
3586.95171,0.16680
3588.88017,0.16284
3590.80864,0.15567
3592.73711,0.15437
3594.66558,0.15808
3596.59405,0.15752
3598.52252,0.15387
3600.45099,0.15313
3602.37946,0.15415
3604.30792,0.15385
3606.23639,0.15140
3608.16486,0.14832
3610.09333,0.14589
3612.02180,0.14366
3613.95027,0.14310
3615.87874,0.14473
3617.80720,0.14706
3619.73567,0.14843
3621.66414,0.14403
3623.59261,0.13702
3625.52108,0.13601
3627.44955,0.14170
3629.37802,0.14400
3631.30649,0.13995
3633.23495,0.13691
3635.16342,0.13859
3637.09189,0.14434
3639.02036,0.14726
3640.94883,0.14555
3642.87730,0.14390
3644.80577,0.14447
3646.73423,0.14428
3648.66270,0.13910
3650.59117,0.13349
3652.51964,0.13185
3654.44811,0.13193
3656.37658,0.13321
3658.30505,0.13367
3660.23352,0.13343
3662.16198,0.13464
3664.09045,0.13587
3666.01892,0.13601
3667.94739,0.13835
3669.87586,0.14425
3671.80433,0.14776
3673.73280,0.14772
3675.66126,0.14628
3677.58973,0.14464
3679.51820,0.14362
3681.44667,0.14322
3683.37514,0.14274
3685.30361,0.14100
3687.23208,0.13863
3689.16055,0.13676
3691.08901,0.13714
3693.01748,0.13915
3694.94595,0.13727
3696.87442,0.13008
3698.80289,0.12300
3700.73136,0.12156
3702.65983,0.12621
3704.58829,0.13078
3706.51676,0.13243
3708.44523,0.13245
3710.37370,0.13323
3712.30217,0.13625
3714.23064,0.13682
3716.15911,0.13637
3718.08757,0.13778
3720.01604,0.13915
3721.94451,0.13744
3723.87298,0.13029
3725.80145,0.12178
3727.72992,0.12189
3729.65839,0.12694
3731.58686,0.12954
3733.51532,0.13168
3735.44379,0.13221
3737.37226,0.12773
3739.30073,0.12578
3741.22920,0.12843
3743.15767,0.13454
3745.08614,0.14286
3747.01460,0.14756
3748.94307,0.14961
3750.87154,0.14867
3752.80001,0.13891
3754.72848,0.12734
3756.65695,0.12347
3758.58542,0.13056
3760.51389,0.13733
3762.44235,0.13628
3764.37082,0.13453
3766.29929,0.13302
3768.22776,0.13201
3770.15623,0.13421
3772.08470,0.13483
3774.01317,0.13224
3775.94163,0.13093
3777.87010,0.13372
3779.79857,0.13747
3781.72704,0.13640
3783.65551,0.13083
3785.58398,0.12298
3787.51245,0.11862
3789.44092,0.12169
3791.36938,0.12829
3793.29785,0.13164
3795.22632,0.12981
3797.15479,0.12824
3799.08326,0.13132
3801.01173,0.13669
3802.94020,0.13948
3804.86866,0.13917
3806.79713,0.13569
3808.72560,0.12737
3810.65407,0.12058
3812.58254,0.12051
3814.51101,0.12901
3816.43948,0.13901
3818.36795,0.13811
3820.29641,0.13267
3822.22488,0.13095
3824.15335,0.13119
3826.08182,0.13006
3828.01029,0.12781
3829.93876,0.12521
3831.86723,0.12188
3833.79569,0.12179
3835.72416,0.12650
3837.65263,0.13033
3839.58110,0.13368
3841.50957,0.13846
3843.43804,0.13834
3845.36651,0.13233
3847.29498,0.12599
3849.22344,0.12332
3851.15191,0.12607
3853.08038,0.12906
3855.00885,0.12429
3856.93732,0.12281
3858.86579,0.12408
3860.79426,0.12577
3862.72272,0.12834
3864.65119,0.12683
3866.57966,0.11994
3868.50813,0.11580
3870.43660,0.11884
3872.36507,0.12388
3874.29354,0.12494
3876.22200,0.12150
3878.15047,0.11887
3880.07894,0.12176
3882.00741,0.12476
3883.93588,0.12146
3885.86435,0.11646
3887.79282,0.11649
3889.72129,0.11983
3891.64975,0.12491
3893.57822,0.12970
3895.50669,0.12945
3897.43516,0.12502
3899.36363,0.12015
3901.29210,0.11623
3903.22057,0.11401
3905.14903,0.11594
3907.07750,0.11773
3909.00597,0.11635
3910.93444,0.11244
3912.86291,0.10909
3914.79138,0.11272
3916.71985,0.12072
3918.64832,0.12127
3920.57678,0.11584
3922.50525,0.11415
3924.43372,0.11640
3926.36219,0.11771
3928.29066,0.11708
3930.21913,0.11578
3932.14760,0.11547
3934.07606,0.11669
3936.00453,0.11787
3937.93300,0.11583
3939.86147,0.11162
3941.78994,0.11397
3943.71841,0.12374
3945.64688,0.12996
3947.57535,0.12603
3949.50381,0.11438
3951.43228,0.10687
3953.36075,0.10721
3955.28922,0.10992
3957.21769,0.11339
3959.14616,0.11610
3961.07463,0.11584
3963.00309,0.11383
3964.93156,0.11174
3966.86003,0.11008
3968.78850,0.10822
3970.71697,0.10637
3972.64544,0.10714
3974.57391,0.11110
3976.50238,0.11424
3978.43084,0.11513
3980.35931,0.11695
3982.28778,0.11860
3984.21625,0.11609
3986.14472,0.11164
3988.07319,0.10997
3990.00166,0.10892
3991.93012,0.10530
3993.85859,0.10565
3995.78706,0.11139
3997.71553,0.11280
3999.64400,0.11085
4001.57247,0.11022
4003.50094,0.10655
4005.42941,0.10242
4007.35787,0.10143
4009.28634,0.09876
4011.21481,0.09725
4013.14328,0.10158
4015.07175,0.10727
4017.00022,0.10986
4018.92869,0.10802
4020.85715,0.10312
4022.78562,0.09865
4024.71409,0.09594
4026.64256,0.09535
4028.57103,0.09681
4030.49950,0.09685
4032.42797,0.09467
4034.35644,0.09383
4036.28490,0.09260
4038.21337,0.08938
4040.14184,0.08841
4042.07031,0.09114
4043.99878,0.09540
4045.92725,0.09958
4047.85572,0.10394
4049.78418,0.10739
4051.71265,0.10707
4053.64112,0.10335
4055.56959,0.10018
4057.49806,0.10048
4059.42653,0.10104
4061.35500,0.09909
4063.28346,0.09870
4065.21193,0.10182
4067.14040,0.10207
4069.06887,0.09920
4070.99734,0.10111
4072.92581,0.10101
4074.85428,0.09393
4076.78275,0.09299
4078.71121,0.09975
4080.63968,0.10218
4082.56815,0.09815
4084.49662,0.09562
4086.42509,0.09715
4088.35356,0.09907
4090.28203,0.10053
4092.21049,0.10150
4094.13896,0.10060
4096.06743,0.09852
4097.99590,0.09780
4099.92437,0.09603
4101.85284,0.09154
4103.78131,0.08833
4105.70978,0.08856
4107.63824,0.09283
4109.56671,0.09905
4111.49518,0.10163
4113.42365,0.09940
4115.35212,0.09599
4117.28059,0.09356
4119.20906,0.09109
4121.13752,0.08653
4123.06599,0.08239
4124.99446,0.08536
4126.92293,0.09583
4128.85140,0.10173
4130.77987,0.09534
4132.70834,0.08627
4134.63681,0.08186
4136.56527,0.08147
4138.49374,0.08352
4140.42221,0.08325
4142.35068,0.08228
4144.27915,0.08620
4146.20762,0.09040
4148.13609,0.09043
4150.06455,0.09071
4151.99302,0.09089
4153.92149,0.08960
4155.84996,0.08967
4157.77843,0.08879
4159.70690,0.08474
4161.63537,0.08250
4163.56384,0.08544
4165.49230,0.08831
4167.42077,0.08618
4169.34924,0.08270
4171.27771,0.08381
4173.20618,0.08598
4175.13465,0.08410
4177.06312,0.08058
4178.99158,0.07821
4180.92005,0.07891
4182.84852,0.07910
4184.77699,0.07643
4186.70546,0.07446
4188.63393,0.07216
4190.56240,0.07409
4192.49087,0.08392
4194.41933,0.09070
4196.34780,0.08914
4198.27627,0.08511
4200.20474,0.08377
4202.13321,0.08560
4204.06168,0.08597
4205.99015,0.08260
4207.91861,0.07729
4209.84708,0.07179
4211.77555,0.06963
4213.70402,0.07274
4215.63249,0.07666
4217.56096,0.07682
4219.48943,0.07367
4221.41789,0.06588
4223.34636,0.05798
4225.27483,0.05926
4227.20330,0.06353
4229.13177,0.06400
4231.06024,0.06681
4232.98871,0.07270
4234.91718,0.07307
4236.84564,0.06563
4238.77411,0.06009
4240.70258,0.06272
4242.63105,0.06666
4244.55952,0.06567
4246.48799,0.06299
4248.41646,0.06202
4250.34492,0.06036
4252.27339,0.05965
4254.20186,0.06473
4256.13033,0.06803
4258.05880,0.06199
4259.98727,0.05480
4261.91574,0.05387
4263.84421,0.05675
4265.77267,0.05945
4267.70114,0.06179
4269.62961,0.06446
4271.55808,0.06251
4273.48655,0.05420
4275.41502,0.04861
4277.34349,0.05062
4279.27195,0.05450
4281.20042,0.05877
4283.12889,0.06530
4285.05736,0.06587
4286.98583,0.06073
4288.91430,0.06242
4290.84277,0.06585
4292.77124,0.06132
4294.69970,0.05422
4296.62817,0.05006
4298.55664,0.04904
4300.48511,0.05139
4302.41358,0.05653
4304.34205,0.05766
4306.27052,0.05099
4308.19898,0.04524
4310.12745,0.04573
4312.05592,0.04776
4313.98439,0.04866
4315.91286,0.04915
4317.84133,0.05290
4319.76980,0.06181
4321.69827,0.06780
4323.62673,0.06559
4325.55520,0.06043
4327.48367,0.05660
4329.41214,0.05393
4331.34061,0.05431
4333.26908,0.05712
4335.19755,0.05666
4337.12601,0.05331
4339.05448,0.05033
4340.98295,0.04985
4342.91142,0.05133
4344.83989,0.04718
4346.76836,0.04161
4348.69683,0.04266
4350.62530,0.03909
4352.55376,0.03007
4354.48223,0.03318
4356.41070,0.04767
4358.33917,0.05470
4360.26764,0.04775
4362.19611,0.04175
4364.12458,0.04672
4366.05304,0.04953
4367.98151,0.04306
4369.90998,0.03690
4371.83845,0.03454
4373.76692,0.03200
4375.69539,0.03142
4377.62386,0.03587
4379.55232,0.03536
4381.48079,0.02660
4383.40926,0.02324
4385.33773,0.02810
4387.26620,0.03328
4389.19467,0.03687
4391.12314,0.03827
4393.05161,0.03528
4394.98007,0.03537
4396.90854,0.04401
4398.83701,0.04773
4400.76548,0.04146
4402.69395,0.03766
4404.62242,0.03721
4406.55089,0.03402
4408.47935,0.03486
4410.40782,0.04174
4412.33629,0.04187
4414.26476,0.03325
4416.19323,0.02886
4418.12170,0.03085
4420.05017,0.02869
4421.97864,0.02339
4423.90710,0.02419
4425.83557,0.03080
4427.76404,0.03317
4429.69251,0.03011
4431.62098,0.03382
4433.54945,0.03889
4435.47792,0.03795
4437.40638,0.04104
4439.33485,0.04538
4441.26332,0.04463
4443.19179,0.04032
4445.12026,0.03508
4447.04873,0.03532
4448.97720,0.03754
4450.90567,0.03402
4452.83413,0.02986
4454.76260,0.02897
4456.69107,0.02647
4458.61954,0.02403
4460.54801,0.02612
4462.47648,0.02796
4464.40495,0.02758
4466.33341,0.02848
4468.26188,0.03017
4470.19035,0.03097
4472.11882,0.02990
4474.04729,0.02530
4475.97576,0.01865
4477.90423,0.01489
4479.83270,0.01386
4481.76116,0.01250
4483.68963,0.01225
4485.61810,0.01532
4487.54657,0.02169
4489.47504,0.02841
4491.40351,0.02955
4493.33198,0.02453
4495.26044,0.02019
4497.18891,0.01885
4499.11738,0.01940
4501.04585,0.02123
4502.97432,0.02135
4504.90279,0.01818
4506.83126,0.01302
4508.75973,0.01073
4510.68819,0.01678
4512.61666,0.02919
4514.54513,0.03942
4516.47360,0.04159
4518.40207,0.03666
4520.33054,0.02773
4522.25901,0.01609
4524.18747,0.00489
4526.11594,0.00094
4528.04441,0.00614
4529.97288,0.01473
4531.90135,0.01902
4533.82982,0.01683
4535.75829,0.01379
4537.68676,0.01504
4539.61522,0.01688
4541.54369,0.01585
4543.47216,0.01772
4545.40063,0.02414
4547.32910,0.03027
4549.25757,0.03368
4551.18604,0.03235
4553.11450,0.02703
4555.04297,0.02294
4556.97144,0.02233
4558.89991,0.02542
4560.82838,0.02962
4562.75685,0.02615
4564.68532,0.01535
4566.61378,0.00936
4568.54225,0.01374
4570.47072,0.01930
4572.39919,0.01773
4574.32766,0.01599
4576.25613,0.02029
4578.18460,0.02497
4580.11307,0.02008
4582.04153,0.00936
4583.97000,0.00774
4585.89847,0.01315
4587.82694,0.01821
4589.75541,0.02404
4591.68388,0.02142
4593.61235,0.00798
4595.54081,0.00439
4597.46928,0.01538
4599.39775,0.02440
4601.32622,0.02120
4603.25469,0.00791
4605.18316,0.00070
4607.11163,0.00913
4609.04010,0.02070
4610.96856,0.02042
4612.89703,0.01006
4614.82550,0.00622
4616.75397,0.01535
4618.68244,0.02573
4620.61091,0.02663
4622.53938,0.01460
4624.46784,-0.00223
4626.39631,-0.00355
4628.32478,0.00892
4630.25325,0.01168
4632.18172,0.00401
4634.11019,0.00119
4636.03866,0.00048
4637.96713,-0.00425
4639.89559,-0.00772
4641.82406,-0.00601
4643.75253,0.00142
4645.68100,0.00961
4647.60947,0.01306
4649.53794,0.01516
4651.46641,0.01789
4653.39487,0.01617
4655.32334,0.01051
4657.25181,0.00867
4659.18028,0.00820
4661.10875,0.00531
4663.03722,0.00514
4664.96569,0.00899
4666.89416,0.02089
4668.82262,0.03508
4670.75109,0.03245
4672.67956,0.01993
4674.60803,0.01316
4676.53650,0.00976
4678.46497,0.01073
4680.39344,0.01326
4682.32190,0.01076
4684.25037,0.01050
4686.17884,0.01055
4688.10731,0.00449
4690.03578,0.00567
4691.96425,0.01484
4693.89272,0.01466
4695.82119,0.00405
4697.74965,-0.00503
4699.67812,-0.00301
4701.60659,0.00887
4703.53506,0.01744
4705.46353,0.01384
4707.39200,0.00732
4709.32047,0.00531
4711.24893,0.00020
4713.17740,-0.00698
4715.10587,-0.00788
4717.03434,-0.00391
4718.96281,0.00151
4720.89128,0.01228
4722.81975,0.02436
4724.74821,0.02429
4726.67668,0.01848
4728.60515,0.02152
4730.53362,0.02814
4732.46209,0.02855
4734.39056,0.02628
4736.31903,0.02663
4738.24750,0.02674
4740.17596,0.02215
4742.10443,0.01221
4744.03290,0.00476
4745.96137,0.00626
4747.88984,0.01454
4749.81831,0.02533
4751.74678,0.02830
4753.67524,0.01801
4755.60371,0.00741
4757.53218,0.00304
4759.46065,0.00359
4761.38912,0.01301
4763.31759,0.01817
4765.24606,0.00741
4767.17453,-0.00109
4769.10299,0.00546
4771.03146,0.01330
4772.95993,0.00932
4774.88840,0.00295
4776.81687,0.00502
4778.74534,0.00934
4780.67381,0.01210
4782.60227,0.01548
4784.53074,0.01608
4786.45921,0.01380
4788.38768,0.01055
4790.31615,0.00641
4792.24462,0.00329
4794.17309,-0.00324
4796.10156,-0.01379
4798.03002,-0.01644
4799.95849,-0.00429
4801.88696,0.01449
4803.81543,0.02170
4805.74390,0.01224
4807.67237,-0.00059
4809.60084,-0.00854
4811.52930,-0.01210
4813.45777,-0.01367
4815.38624,-0.01322
4817.31471,-0.00924
4819.24318,-0.00272
4821.17165,0.00213
4823.10012,0.00105
4825.02859,-0.00140
4826.95705,0.00020
4828.88552,0.00400
4830.81399,0.00944
4832.74246,0.01490
4834.67093,0.01634
4836.59940,0.01806
4838.52787,0.02348
4840.45633,0.02240
4842.38480,0.01176
4844.31327,0.00210
4846.24174,0.00254
4848.17021,0.00955
4850.09868,0.01272
4852.02715,0.01689
4853.95562,0.02394
4855.88408,0.01814
4857.81255,-0.00024
4859.74102,-0.00996
4861.66949,-0.00367
4863.59796,0.00109
4865.52643,-0.00408
4867.45490,-0.00701
4869.38336,0.00057
4871.31183,0.01013
4873.24030,0.01130
4875.16877,0.00840
4877.09724,0.01066
4879.02571,0.01641
4880.95418,0.01835
4882.88265,0.01221
4884.81111,0.00060
4886.73958,-0.00641
4888.66805,-0.00119
4890.59652,0.00349
4892.52499,-0.00759
4894.45346,-0.02225
4896.38193,-0.02525
4898.31039,-0.01744
4900.23886,0.00020
4902.16733,0.01684
4904.09580,0.01114
4906.02427,-0.00258
4907.95274,0.00086
4909.88121,0.00356
4911.80967,-0.00236
4913.73814,0.00142
4915.66661,0.00653
4917.59508,-0.00142
4919.52355,-0.01084
4921.45202,-0.00859
4923.38049,0.00134
4925.30896,0.00624
4927.23742,0.00140
4929.16589,0.00066
4931.09436,0.01277
4933.02283,0.02106
4934.95130,0.00747
4936.87977,-0.00967
4938.80824,-0.00332
4940.73670,0.00808
4942.66517,0.00333
4944.59364,-0.00512
4946.52211,-0.00109
4948.45058,0.02032
4950.37905,0.04153
4952.30752,0.03958
4954.23599,0.02451
4956.16445,0.01733
4958.09292,0.02139
4960.02139,0.02963
4961.94986,0.02923
4963.87833,0.01926
4965.80680,0.01090
4967.73527,0.00514
4969.66373,-0.00181
4971.59220,-0.00808
4973.52067,-0.01121
4975.44914,-0.00890
4977.37761,-0.00862
4979.30608,-0.01531
4981.23455,-0.01389
4983.16302,0.00016
4985.09148,0.01463
4987.01995,0.02749
4988.94842,0.03760
4990.87689,0.02860
4992.80536,0.00216
4994.73383,-0.00866
4996.66230,0.00011
4998.59076,0.01179
5000.51923,0.02918
5002.44770,0.03971
5004.37617,0.03000
5006.30464,0.01997
5008.23311,0.01937
5010.16158,0.01867
5012.09005,0.01940
5014.01851,0.01858
5015.94698,0.01439
5017.87545,0.01204
5019.80392,0.00384
5021.73239,-0.00751
5023.66086,-0.00993
5025.58933,-0.00293
5027.51779,0.00533
5029.44626,0.00146
5031.37473,-0.00956
5033.30320,-0.01005
5035.23167,-0.00514
5037.16014,-0.00426
5039.08861,-0.00035
5041.01708,0.00757
5042.94554,0.01288
5044.87401,0.01778
5046.80248,0.02679
5048.73095,0.03128
5050.65942,0.02370
5052.58789,0.01576
5054.51636,0.01561
5056.44482,0.02094
5058.37329,0.03130
5060.30176,0.04026
5062.23023,0.04314
5064.15870,0.04600
5066.08717,0.05113
5068.01564,0.05427
5069.94410,0.04681
5071.87257,0.02098
5073.80104,-0.00768
5075.72951,-0.01790
5077.65798,-0.01277
5079.58645,0.00429
5081.51492,0.02768
5083.44339,0.03758
5085.37185,0.03235
5087.30032,0.02561
5089.22879,0.02549
5091.15726,0.03190
5093.08573,0.04411
5095.01420,0.05606
5096.94267,0.04937
5098.87113,0.03478
5100.79960,0.03396
5102.72807,0.03285
5104.65654,0.02991
5106.58501,0.03302
5108.51348,0.02876
5110.44195,0.02279
5112.37042,0.03178
5114.29888,0.04371
5116.22735,0.04054
5118.15582,0.02702
5120.08429,0.02023
5122.01276,0.01962
5123.94123,0.01161
5125.86970,0.00248
5127.79816,0.01238
5129.72663,0.03805
5131.65510,0.04942
5133.58357,0.04519
5135.51204,0.05134
5137.44051,0.05750
5139.36898,0.04834
5141.29745,0.03978
5143.22591,0.04060
5145.15438,0.03974
5147.08285,0.02979
5149.01132,0.02275
5150.93979,0.02439
5152.86826,0.02252
5154.79673,0.01835
5156.72519,0.02082
5158.65366,0.02293
5160.58213,0.02352
5162.51060,0.02755
5164.43907,0.02436
5166.36754,0.01209
5168.29601,0.00459
5170.22448,0.01510
5172.15294,0.03575
5174.08141,0.03374
5176.00988,0.01347
5177.93835,0.01055
5179.86682,0.02628
5181.79529,0.03999
5183.72376,0.04738
5185.65222,0.05098
5187.58069,0.04272
5189.50916,0.02541
5191.43763,0.01770
5193.36610,0.02208
5195.29457,0.03490
5197.22304,0.05958
5199.15151,0.06975
5201.07997,0.04783
5203.00844,0.03438
5204.93691,0.05721
5206.86538,0.08190
5208.79385,0.07051
5210.72232,0.04295
5212.65079,0.02544
5214.57925,0.02266
5216.50772,0.02986
5218.43619,0.04609
5220.36466,0.06585
5222.29313,0.07473
5224.22160,0.07709
5226.15007,0.08169
5228.07854,0.07628
5230.00700,0.05999
5231.93547,0.04780
5233.86394,0.04446
5235.79241,0.04778
5237.72088,0.05612
5239.64935,0.05410
5241.57782,0.02989
5243.50628,0.00866
5245.43475,0.02149
5247.36322,0.05316
5249.29169,0.07485
5251.22016,0.08137
5253.14863,0.07223
5255.07710,0.05329
5257.00556,0.04578
5258.93403,0.05224
5260.86250,0.06925
5262.79097,0.08680
5264.71944,0.07097
5266.64791,0.04253
5268.57638,0.04413
5270.50485,0.05374
5272.43331,0.04897
5274.36178,0.04182
5276.29025,0.03786
5278.21872,0.03557
5280.14719,0.03400
5282.07566,0.02935
5284.00413,0.02707
5285.93259,0.04454
5287.86106,0.08108
5289.78953,0.10316
5291.71800,0.09347
5293.64647,0.08502
5295.57494,0.08152
5297.50341,0.06282
5299.43188,0.04822
5301.36034,0.04605
5303.28881,0.03483
5305.21728,0.02764
5307.14575,0.04293
5309.07422,0.05350
5311.00269,0.04831
5312.93116,0.05101
5314.85962,0.05614
5316.78809,0.05067
5318.71656,0.04210
5320.64503,0.03885
5322.57350,0.04740
5324.50197,0.04946
5326.43044,0.02888
5328.35891,0.01994
5330.28737,0.04415
5332.21584,0.07125
5334.14431,0.07063
5336.07278,0.05674
5338.00125,0.04914
5339.92972,0.03870
5341.85819,0.03335
5343.78665,0.04377
5345.71512,0.05764
5347.64359,0.06724
5349.57206,0.08171
5351.50053,0.09401
5353.42900,0.08006
5355.35747,0.05643
5357.28594,0.05383
5359.21440,0.05708
5361.14287,0.06005
5363.07134,0.07242
5364.99981,0.07535
5366.92828,0.06029
5368.85675,0.04567
5370.78522,0.03670
5372.71368,0.04719
5374.64215,0.08509
5376.57062,0.11055
5378.49909,0.09766
5380.42756,0.07643
5382.35603,0.06678
5384.28450,0.06796
5386.21297,0.06489
5388.14143,0.04761
5390.06990,0.03410
5391.99837,0.03643
5393.92684,0.04799
5395.85531,0.05289
5397.78378,0.04844
5399.71225,0.04465
5401.64071,0.04785
5403.56918,0.06572
5405.49765,0.08084
5407.42612,0.07233
5409.35459,0.06561
5411.28306,0.08018
5413.21153,0.09343
5415.13999,0.09290
5417.06846,0.08929
5418.99693,0.07974
5420.92540,0.06489
5422.85387,0.06150
5424.78234,0.07690
5426.71081,0.08423
5428.63928,0.06313
5430.56774,0.04706
5432.49621,0.04559
5434.42468,0.04779
5436.35315,0.05434
5438.28162,0.05551
5440.21009,0.06419
5442.13856,0.08265
5444.06702,0.08241
5445.99549,0.05915
5447.92396,0.03738
5449.85243,0.03366
5451.78090,0.03986
5453.70937,0.04771
5455.63784,0.06492
5457.56631,0.08619
5459.49477,0.08382
5461.42324,0.07015
5463.35171,0.07308
5465.28018,0.08709
5467.20865,0.10193
5469.13712,0.09753
5471.06559,0.07128
5472.99405,0.05861
5474.92252,0.06885
5476.85099,0.07242
5478.77946,0.06085
5480.70793,0.06214
5482.63640,0.08502
5484.56487,0.10112
5486.49334,0.09148
5488.42180,0.07816
5490.35027,0.09259
5492.27874,0.12566
5494.20721,0.13801
5496.13568,0.12227
5498.06415,0.09079
5499.99262,0.06200
5501.92108,0.06125
5503.84955,0.06393
5505.77802,0.04912
5507.70649,0.04800
5509.63496,0.05446
5511.56343,0.04076
5513.49190,0.03690
5515.42037,0.06683
5517.34883,0.09053
5519.27730,0.07880
5521.20577,0.05451
5523.13424,0.03993
5525.06271,0.05311
5526.99118,0.10121
5528.91965,0.14185
5530.84811,0.13079
5532.77658,0.08992
5534.70505,0.06440
5536.63352,0.06442
5538.56199,0.07145
5540.49046,0.07696
5542.41893,0.08379
5544.34740,0.08826
5546.27586,0.08449
5548.20433,0.06944
5550.13280,0.06059
5552.06127,0.07686
5553.98974,0.10578
5555.91821,0.11613
5557.84668,0.09366
5559.77514,0.06607
5561.70361,0.05347
5563.63208,0.04791
5565.56055,0.05685
5567.48902,0.07882
5569.41749,0.09257
5571.34596,0.09780
5573.27443,0.09358
5575.20289,0.07184
5577.13136,0.05616
5579.05983,0.06895
5580.98830,0.09248
5582.91677,0.09786
5584.84524,0.08365
5586.77371,0.06197
5588.70217,0.04574
5590.63064,0.04953
5592.55911,0.06859
5594.48758,0.08853
5596.41605,0.10115
5598.34452,0.09407
5600.27299,0.07298
5602.20145,0.06404
5604.12992,0.06765
5606.05839,0.07187
5607.98686,0.08202
5609.91533,0.09286
5611.84380,0.09274
5613.77227,0.08669
5615.70074,0.07811
5617.62920,0.07001
5619.55767,0.07537
5621.48614,0.09792
5623.41461,0.11562
5625.34308,0.10899
5627.27155,0.08003
5629.20002,0.03812
5631.12848,0.00424
5633.05695,-0.00275
5634.98542,0.01576
5636.91389,0.04097
5638.84236,0.06001
5640.77083,0.08299
5642.69930,0.11188
5644.62777,0.12783
5646.55623,0.13033
5648.48470,0.13863
5650.41317,0.14384
5652.34164,0.12582
5654.27011,0.09570
5656.19858,0.07422
5658.12705,0.06400
5660.05551,0.06692
5661.98398,0.08132
5663.91245,0.08444
5665.84092,0.06483
5667.76939,0.03492
5669.69786,0.01172
5671.62633,0.01022
5673.55480,0.03128
5675.48326,0.05694
5677.41173,0.06628
5679.34020,0.05998
5681.26867,0.05624
5683.19714,0.06155
5685.12561,0.06827
5687.05408,0.07121
5688.98254,0.07363
5690.91101,0.09259
5692.83948,0.12198
5694.76795,0.12864
5696.69642,0.10533
5698.62489,0.07698
5700.55336,0.07856
5702.48183,0.10751
5704.41029,0.12616
5706.33876,0.11268
5708.26723,0.07647
5710.19570,0.05463
5712.12417,0.06322
5714.05264,0.06688
5715.98111,0.03442
5717.90957,-0.00341
5719.83804,-0.00162
5721.76651,0.03689
5723.69498,0.08578
5725.62345,0.10802
5727.55192,0.09275
5729.48039,0.07815
5731.40886,0.06251
5733.33732,0.02670
5735.26579,0.00773
5737.19426,0.02847
5739.12273,0.06799
5741.05120,0.09569
5742.97967,0.09423
5744.90814,0.08924
5746.83660,0.08839
5748.76507,0.07847
5750.69354,0.07666
5752.62201,0.07477
5754.55048,0.04851
5756.47895,0.03650
5758.40742,0.05781
5760.33588,0.07998
5762.26435,0.09067
5764.19282,0.10080
5766.12129,0.12207
5768.04976,0.14230
5769.97823,0.14136
5771.90670,0.11836
5773.83517,0.08734
5775.76363,0.06533
5777.69210,0.05757
5779.62057,0.06881
5781.54904,0.07324
5783.47751,0.04986
5785.40598,0.04568
5787.33445,0.08163
5789.26291,0.09976
5791.19138,0.06431
5793.11985,0.03220
5795.04832,0.05453
5796.97679,0.09062
5798.90526,0.09491
5800.83373,0.07901
5802.76220,0.07223
5804.69066,0.07888
5806.61913,0.08311
5808.54760,0.08670
5810.47607,0.09811
5812.40454,0.11201
5814.33301,0.11707
5816.26148,0.10747
5818.18994,0.08358
5820.11841,0.05740
5822.04688,0.04745
5823.97535,0.06015
5825.90382,0.08226
5827.83229,0.08799
5829.76076,0.07715
5831.68923,0.07241
5833.61769,0.06229
5835.54616,0.04070
5837.47463,0.04613
5839.40310,0.07896
5841.33157,0.08685
5843.26004,0.06032
5845.18851,0.04732
5847.11697,0.07419
5849.04544,0.10783
5850.97391,0.10888
5852.90238,0.09400
5854.83085,0.07220
5856.75932,0.05312
5858.68779,0.06635
5860.61626,0.08822
5862.54472,0.10042
5864.47319,0.09991
5866.40166,0.06259
5868.33013,0.03404
5870.25860,0.04253
5872.18707,0.05326
5874.11554,0.07763
5876.04400,0.11968
5877.97247,0.12506
5879.90094,0.07812
5881.82941,0.03069
5883.75788,0.01200
5885.68635,0.01342
5887.61482,0.03316
5889.54329,0.06713
5891.47175,0.09606
5893.40022,0.09695
5895.32869,0.06742
5897.25716,0.02909
5899.18563,0.00775
5901.11410,0.01945
5903.04257,0.05941
5904.97103,0.10585
5906.89950,0.13971
5908.82797,0.14972
5910.75644,0.14878
5912.68491,0.14976
5914.61338,0.13797
5916.54185,0.11440
5918.47032,0.09002
5920.39878,0.07209
5922.32725,0.07685
5924.25572,0.09358
5926.18419,0.09984
5928.11266,0.10319
5930.04113,0.10595
5931.96960,0.10759
5933.89806,0.10455
5935.82653,0.06486
5937.75500,0.02642
5939.68347,0.05363
5941.61194,0.09534
5943.54041,0.09103
5945.46888,0.07697
5947.39734,0.08247
5949.32581,0.08279
5951.25428,0.07032
5953.18275,0.06611
5955.11122,0.06146
5957.03969,0.06195
5958.96816,0.09589
5960.89663,0.13100
5962.82509,0.11504
5964.75356,0.06735
5966.68203,0.05892
5968.61050,0.12527
5970.53897,0.19967
5972.46744,0.19908
5974.39591,0.13477
5976.32437,0.07802
5978.25284,0.04742
5980.18131,0.03841
5982.10978,0.06819
5984.03825,0.10114
5985.96672,0.08324
5987.89519,0.03826
5989.82366,0.02953
5991.75212,0.06590
5993.68059,0.08311
5995.60906,0.06931
5997.53753,0.07804
5999.46600,0.09760
6001.39447,0.10176
6003.32294,0.10764
6005.25140,0.12132
6007.17987,0.11991
6009.10834,0.12219
6011.03681,0.14577
6012.96528,0.13787
6014.89375,0.07360
6016.82222,0.00861
6018.75069,-0.00093
6020.67915,0.02418
6022.60762,0.04264
6024.53609,0.03963
6026.46456,0.01813
6028.39303,0.02029
6030.32150,0.06773
6032.24997,0.10473
6034.17843,0.07080
6036.10690,0.00092
6038.03537,-0.02296
6039.96384,0.00269
6041.89231,0.04768
6043.82078,0.08382
6045.74925,0.10166
6047.67772,0.11563
6049.60618,0.12140
6051.53465,0.12325
6053.46312,0.12249
6055.39159,0.10347
6057.32006,0.07762
6059.24853,0.07116
6061.17700,0.09081
6063.10546,0.10404
6065.03393,0.08376
6066.96240,0.06118
6068.89087,0.06499
6070.81934,0.09404
6072.74781,0.13339
6074.67628,0.14611
6076.60475,0.12002
6078.53321,0.11366
6080.46168,0.13703
6082.39015,0.14208
6084.31862,0.13097
6086.24709,0.11194
6088.17556,0.10588
6090.10403,0.12985
6092.03249,0.15358
6093.96096,0.17046
6095.88943,0.17173
6097.81790,0.12871
6099.74637,0.06625
6101.67484,0.05255
6103.60331,0.08082
6105.53177,0.09092
6107.46024,0.08756
6109.38871,0.09694
6111.31718,0.10683
6113.24565,0.09073
6115.17412,0.04801
6117.10259,0.01105
6119.03106,0.01022
6120.95952,0.04741
6122.88799,0.08784
6124.81646,0.09059
6126.74493,0.06334
6128.67340,0.06055
6130.60187,0.07973
6132.53034,0.06219
6134.45880,0.02132
6136.38727,0.01940
6138.31574,0.05900
6140.24421,0.09098
6142.17268,0.09280
6144.10115,0.09820
6146.02962,0.11844
6147.95809,0.10060
6149.88655,0.08259
6151.81502,0.15928
6153.74349,0.22630
6155.67196,0.15391
6157.60043,0.02262
6159.52890,-0.04424
6161.45737,-0.00303
6163.38583,0.07159
6165.31430,0.08123
6167.24277,0.05086
6169.17124,0.06102
6171.09971,0.09164
6173.02818,0.08048
6174.95665,0.06859
6176.88512,0.06943
6178.81358,0.05871
6180.74205,0.07436
6182.67052,0.10061
6184.59899,0.10630
6186.52746,0.10206
6188.45593,0.08129
6190.38440,0.04771
6192.31286,0.02377
6194.24133,0.00888
6196.16980,-0.02015
6198.09827,-0.04140
6200.02674,-0.01714
6201.95521,0.04110
6203.88368,0.10191
6205.81215,0.11226
6207.74061,0.06961
6209.66908,0.03645
6211.59755,0.04992
6213.52602,0.08968
6215.45449,0.11436
6217.38296,0.10102
6219.31143,0.07556
6221.23989,0.05065
6223.16836,0.02504
6225.09683,0.05372
6227.02530,0.11589
6228.95377,0.11028
6230.88224,0.05725
6232.81071,0.02756
6234.73918,0.04620
6236.66764,0.10510
6238.59611,0.16763
6240.52458,0.19316
6242.45305,0.15200
6244.38152,0.08804
6246.30999,0.07203
6248.23846,0.09636
6250.16692,0.10323
6252.09539,0.07104
6254.02386,0.06148
6255.95233,0.08341
6257.88080,0.07259
6259.80927,0.02941
6261.73774,0.02351
6263.66621,0.06530
6265.59467,0.09025
6267.52314,0.08609
6269.45161,0.05843
6271.38008,0.00046
6273.30855,-0.05549
6275.23702,-0.06870
6277.16549,-0.00451
6279.09395,0.08506
6281.02242,0.09569
6282.95089,0.07201
6284.87936,0.09274
6286.80783,0.10129
6288.73630,0.09954
6290.66477,0.14462
6292.59323,0.18069
6294.52170,0.16634
6296.45017,0.14548
6298.37864,0.11703
6300.30711,0.06571
6302.23558,0.04633
6304.16405,0.06333
6306.09252,0.08514
6308.02098,0.12613
6309.94945,0.13032
6311.87792,0.07317
6313.80639,0.04643
6315.73486,0.07368
6317.66333,0.12072
6319.59180,0.18883
6321.52026,0.24773
6323.44873,0.23836
6325.37720,0.16620
6327.30567,0.07282
6329.23414,0.02489
6331.16261,0.04273
6333.09108,0.01980
6335.01955,-0.06229
6336.94801,-0.08319
6338.87648,-0.00776
6340.80495,0.07813
6342.73342,0.09155
6344.66189,0.05622
6346.59036,0.03499
6348.51883,0.03534
6350.44729,0.05947
6352.37576,0.10053
6354.30423,0.11870
6356.23270,0.10458
6358.16117,0.07032
6360.08964,0.04489
6362.01811,0.06123
6363.94658,0.09598
6365.87504,0.10741
6367.80351,0.07256
6369.73198,0.02564
6371.66045,0.05849
6373.58892,0.11965
6375.51739,0.09008
6377.44586,0.03994
6379.37432,0.05300
6381.30279,0.10460
6383.23126,0.11615
6385.15973,0.03674
6387.08820,-0.04878
6389.01667,-0.04811
6390.94514,0.03562
6392.87361,0.12130
6394.80207,0.13280
6396.73054,0.09222
6398.65901,0.05911
6400.58748,0.04452
6402.51595,0.02268
6404.44442,0.02652
6406.37289,0.12239
6408.30135,0.25916
6410.22982,0.31245
6412.15829,0.22360
6414.08676,0.07913
6416.01523,0.03907
6417.94370,0.09849
6419.87217,0.08695
6421.80064,0.02642
6423.72910,0.04756
6425.65757,0.11167
6427.58604,0.15820
6429.51451,0.18371
6431.44298,0.14269
6433.37145,0.07241
6435.29992,0.01123
6437.22838,-0.05426
6439.15685,-0.05426
6441.08532,-0.00206
6443.01379,0.02593
6444.94226,0.07589
6446.87073,0.17077
6448.79920,0.19591
6450.72766,0.11969
6452.65613,0.05967
6454.58460,0.04921
6456.51307,0.06157
6458.44154,0.09298
6460.37001,0.08398
6462.29848,0.03469
6464.22695,0.01612
6466.15541,0.03493
6468.08388,0.08578
6470.01235,0.10361
6471.94082,0.04317
6473.86929,0.03490
6475.79776,0.10709
6477.72623,0.12469
6479.65469,0.05706
6481.58316,0.01391
6483.51163,0.03867
6485.44010,0.07514
6487.36857,0.10333
6489.29704,0.12899
6491.22551,0.15201
6493.15398,0.16916
6495.08244,0.17456
6497.01091,0.16036
6498.93938,0.14296
6500.86785,0.14875
6502.79632,0.14497
6504.72479,0.09619
6506.65326,0.01484
6508.58172,-0.03183
6510.51019,0.00340
6512.43866,0.03267
6514.36713,0.00355
6516.29560,-0.01473
6518.22407,0.02052
6520.15254,0.05387
6522.08101,0.01674
6524.00947,-0.05346
6525.93794,-0.07541
6527.86641,-0.05161
6529.79488,-0.01350
6531.72335,0.02124
6533.65182,0.04277
6535.58029,0.06237
6537.50875,0.09839
6539.43722,0.12847
6541.36569,0.09872
6543.29416,0.02986
6545.22263,0.00152
6547.15110,0.01979
6549.07957,0.05010
6551.00804,0.07989
6552.93650,0.11304
6554.86497,0.13680
6556.79344,0.09821
6558.72191,0.02013
6560.65038,0.00503
6562.57885,0.05463
6564.50732,0.09665
6566.43578,0.09916
6568.36425,0.07343
6570.29272,0.05994
6572.22119,0.10104
6574.14966,0.17660
6576.07813,0.21754
6578.00660,0.19983
6579.93507,0.13663
6581.86353,0.05302
6583.79200,0.00047
6585.72047,-0.00078
6587.64894,0.03660
6589.57741,0.06367
6591.50588,0.03003
6593.43435,-0.02186
6595.36281,-0.04039
6597.29128,-0.06213
6599.21975,-0.09631
6601.14822,-0.09099
6603.07669,-0.06684
6605.00516,-0.07722
6606.93363,-0.08585
6608.86210,-0.06454
6610.79056,-0.04467
6612.71903,-0.02025
6614.64750,0.05785
6616.57597,0.15803
6618.50444,0.19114
6620.43291,0.20702
6622.36138,0.26705
6624.28984,0.27820
6626.21831,0.20438
6628.14678,0.12022
6630.07525,0.04309
6632.00372,-0.01645
6633.93219,-0.01240
6635.86066,0.04127
6637.78912,0.06715
6639.71759,0.06176
6641.64606,0.04620
6643.57453,-0.00154
6645.50300,-0.04841
6647.43147,-0.03771
6649.35994,0.01336
6651.28841,0.05224
6653.21687,0.06514
6655.14534,0.10801
6657.07381,0.21224
6659.00228,0.24970
6660.93075,0.16530
6662.85922,0.11955
6664.78769,0.13888
6666.71615,0.12107
6668.64462,0.12419
6670.57309,0.18444
6672.50156,0.13383
6674.43003,0.00831
6676.35850,0.00335
6678.28697,0.03035
6680.21544,-0.02449
6682.14390,-0.03962
6684.07237,0.03648
6686.00084,0.04574
6687.92931,0.01321
6689.85778,0.08658
6691.78625,0.15417
6693.71472,0.11432
6695.64318,0.04025
6697.57165,0.01763
6699.50012,0.01560
6701.42859,0.03651
6703.35706,0.12281
6705.28553,0.20989
6707.21400,0.22175
6709.14247,0.11982
6711.07093,0.00800
6712.99940,0.00021
6714.92787,0.03780
6716.85634,0.03108
6718.78481,0.00778
6720.71328,-0.00822
6722.64175,-0.05476
6724.57021,-0.04922
6726.49868,0.04431
6728.42715,0.07653
6730.35562,0.02371
6732.28409,0.02243
6734.21256,0.08794
6736.14103,0.14511
6738.06950,0.13317
6739.99796,0.09126
6741.92643,0.10720
6743.85490,0.10232
6745.78337,0.03322
6747.71184,0.02958
6749.64031,0.12226
6751.56878,0.14762
6753.49724,0.04643
6755.42571,-0.02850
6757.35418,0.00602
6759.28265,0.08146
6761.21112,0.10440
6763.13959,0.05877
6765.06806,0.00735
6766.99653,-0.02288
6768.92499,-0.03149
6770.85346,0.00755
6772.78193,0.07191
6774.71040,0.08514
6776.63887,0.04334
6778.56734,0.03615
6780.49581,0.07744
6782.42427,0.09315
6784.35274,0.06491
6786.28121,0.03454
6788.20968,0.05398
6790.13815,0.15617
6792.06662,0.25004
6793.99509,0.26114
6795.92355,0.24784
6797.85202,0.21868
6799.78049,0.15956
6801.70896,0.08731
6803.63743,0.04363
6805.56590,0.01991
6807.49437,-0.03012
6809.42284,-0.04734
6811.35130,-0.01661
6813.27977,-0.06409
6815.20824,-0.14015
6817.13671,-0.06745
6819.06518,0.07716
6820.99365,0.11087
6822.92212,0.01248
6824.85058,-0.08031
6826.77905,-0.12777
6828.70752,-0.12428
6830.63599,-0.01665
6832.56446,0.08531
6834.49293,0.06229
6836.42140,-0.01185
6838.34987,0.01383
6840.27833,0.11476
6842.20680,0.20114
6844.13527,0.24149
6846.06374,0.18718
6847.99221,0.00824
6849.92068,-0.11868
6851.84915,-0.04043
6853.77761,0.08379
6855.70608,0.09721
6857.63455,0.04074
6859.56302,0.01873
6861.49149,0.02464
6863.41996,0.03976
6865.34843,0.06465
6867.27690,0.06659
6869.20536,0.06383
6871.13383,0.11480
6873.06230,0.16963
6874.99077,0.15634
6876.91924,0.09339
6878.84771,-0.00667
6880.77618,-0.03966
6882.70464,0.06180
6884.63311,0.14485
6886.56158,0.15135
6888.49005,0.15340
6890.41852,0.10173
6892.34699,-0.03197
6894.27546,-0.11445
6896.20393,-0.12015
6898.13239,-0.09345
6900.06086,-0.02401
6901.98933,0.07419
6903.91780,0.12653
6905.84627,0.10515
6907.77474,0.11849
6909.70321,0.13605
6911.63167,0.07855
6913.56014,0.00233
6915.48861,-0.08330
6917.41708,-0.10564
6919.34555,0.03697
6921.27402,0.12412
6923.20249,0.04659
6925.13096,0.02737
6927.05942,0.15613
6928.98789,0.24737
6930.91636,0.08490
6932.84483,-0.20081
6934.77330,-0.27823
6936.70177,-0.18742
6938.63024,-0.07657
6940.55870,0.04475
6942.48717,0.14205
6944.41564,0.18581
6946.34411,0.16952
6948.27258,0.12536
6950.20105,0.12181
6952.12952,0.13045
6954.05799,0.10799
6955.98645,0.05216
6957.91492,0.04737
6959.84339,0.07830
6961.77186,0.03975
6963.70033,0.00431
6965.62880,0.06511
6967.55727,0.17787
6969.48573,0.20401
6971.41420,0.14719
6973.34267,0.20762
6975.27114,0.33442
6977.19961,0.28357
6979.12808,0.11494
6981.05655,0.01500
6982.98501,0.04282
6984.91348,0.10170
6986.84195,0.06823
6988.77042,-0.04840
6990.69889,-0.14639
6992.62736,-0.15351
6994.55583,-0.10679
6996.48430,-0.07546
6998.41276,-0.03295
7000.34123,0.02402
7002.26970,0.02441
7004.19817,0.03688
7006.12664,0.14169
7008.05511,0.17662
7009.98358,0.05376
7011.91204,-0.01134
7013.84051,0.08055
7015.76898,0.13346
7017.69745,0.07024
7019.62592,0.03686
7021.55439,0.10554
7023.48286,0.20169
7025.41133,0.21480
7027.33979,0.09442
7029.26826,-0.03778
7031.19673,-0.03419
7033.12520,0.03459
7035.05367,0.11882
7036.98214,0.20704
7038.91061,0.27103
7040.83907,0.25404
7042.76754,0.10182
7044.69601,-0.02106
7046.62448,-0.01055
7048.55295,-0.01098
7050.48142,-0.06301
7052.40989,-0.10939
7054.33836,-0.12445
7056.26682,-0.11699
7058.19529,-0.13829
7060.12376,-0.15855
7062.05223,-0.08992
7063.98070,0.01538
7065.90917,0.06290
7067.83764,0.09169
7069.76610,0.11396
7071.69457,0.08985
7073.62304,0.05025
7075.55151,0.04499
7077.47998,0.05996
7079.40845,0.02506
7081.33692,-0.05167
7083.26539,-0.02718
7085.19385,0.06403
7087.12232,0.10803
7089.05079,0.12969
7090.97926,0.15104
7092.90773,0.11121
7094.83620,0.03719
7096.76467,-0.04575
7098.69313,-0.09064
7100.62160,0.01362
7102.55007,0.20810
7104.47854,0.36623
7106.40701,0.45173
7108.33548,0.45173
7110.26395,0.32224
7112.19242,0.19162
7114.12088,0.22247
7116.04935,0.31279
7117.97782,0.27746
7119.90629,0.13844
7121.83476,0.04578
7123.76323,-0.03807
7125.69170,-0.07942
7127.62016,0.05892
7129.54863,0.18022
7131.47710,0.12996
7133.40557,0.09409
7135.33404,0.09196
7137.26251,0.02504
7139.19098,0.01361
7141.11944,0.06694
7143.04791,0.03430
7144.97638,0.03300
7146.90485,0.17767
7148.83332,0.24867
7150.76179,0.18295
7152.69026,0.09963
7154.61873,-0.00146
7156.54719,-0.09659
7158.47566,-0.09407
7160.40413,-0.03556
7162.33260,0.02893
7164.26107,0.11078
7166.18954,0.15062
7168.11801,0.07516
7170.04647,-0.03107
7171.97494,0.01372
7173.90341,0.06173
7175.83188,-0.02567
7177.76035,-0.06618
7179.68882,-0.03469
7181.61729,0.00160
7183.54576,0.09370
7185.47422,0.20203
7187.40269,0.24850
7189.33116,0.25426
7191.25963,0.26987
7193.18810,0.18603
7195.11657,-0.02685
7197.04504,-0.14476
7198.97350,-0.07532
7200.90197,0.05785
7202.83044,0.09589
7204.75891,-0.05912
7206.68738,-0.12284
7208.61585,0.01860
7210.54432,0.14305
7212.47279,0.16836
7214.40125,0.08353
7216.32972,-0.08205
7218.25819,-0.09404
7220.18666,0.10905
7222.11513,0.22494
7224.04360,0.21076
7225.97207,0.16513
7227.90053,0.15117
7229.82900,0.13185
7231.75747,0.10555
7233.68594,0.06671
7235.61441,-0.02371
7237.54288,-0.08383
7239.47135,-0.02281
7241.39982,0.13464
7243.32828,0.35811
7245.25675,0.45339
7247.18522,0.27716
7249.11369,0.04466
7251.04216,0.03992
7252.97063,0.01798
7254.89910,-0.23419
7256.82756,-0.31899
7258.75603,-0.27830
7260.68450,-0.33098
7262.61297,-0.39661
7264.54144,-0.32217
7266.46991,-0.19695
7268.39838,-0.11247
7270.32685,-0.08492
7272.25531,-0.02480
7274.18378,0.09178
7276.11225,0.18633
7278.04072,0.27857
7279.96919,0.29308
7281.89766,0.23735
7283.82613,0.22296
7285.75459,0.13890
7287.68306,0.00559
7289.61153,-0.02308
7291.54000,0.01573
7293.46847,0.08514
7295.39694,0.27805
7297.32541,0.42017
7299.25387,0.34084
7301.18234,0.17120
7303.11081,0.10434
7305.03928,0.15327
7306.96775,0.07888
7308.89622,-0.20178
7310.82469,-0.30767
7312.75316,-0.20624
7314.68162,-0.08586
7316.61009,0.00013
7318.53856,-0.10157
7320.46703,-0.17914
7322.39550,0.00424
7324.32397,0.16189
7326.25244,0.10329
7328.18090,0.14303
7330.10937,0.30709
7332.03784,0.24013
7333.96631,0.12327
7335.89478,0.13904
7337.82325,0.16793
7339.75172,0.00342
7341.68019,-0.26789
7343.60865,-0.26294
7345.53712,-0.02494
7347.46559,0.16825
7349.39406,0.14901
7351.32253,0.11409
7353.25100,0.15984
7355.17947,0.13432
7357.10793,-0.01994
7359.03640,-0.07940
7360.96487,0.01613
7362.89334,0.01510
7364.82181,-0.03711
7366.75028,-0.13724
7368.67875,-0.29665
7370.60722,-0.32523
7372.53568,-0.25145
7374.46415,-0.13209
7376.39262,0.06987
7378.32109,0.12678
7380.24956,0.00401
7382.17803,-0.04386
7384.10650,0.08496
7386.03496,0.23722
7387.96343,0.29152
7389.89190,0.23445
7391.82037,0.22297
7393.74884,0.31043
7395.67731,0.37921
7397.60578,0.35935
7399.53425,0.25717
7401.46271,0.15525
7403.39118,0.08051
7405.31965,0.00504
7407.24812,0.01856
7409.17659,0.10547
7411.10506,0.10666
7413.03353,0.04144
7414.96199,0.03041
7416.89046,0.04596
7418.81893,0.03061
7420.74740,0.08190
7422.67587,0.15402
7424.60434,0.15001
7426.53281,0.15422
7428.46128,0.19738
7430.38974,0.25210
7432.31821,0.39291
7434.24668,0.52450
7436.17515,0.38007
7438.10362,0.03943
7440.03209,-0.11630
7441.96056,-0.03314
7443.88902,0.02808
7445.81749,-0.01784
7447.74596,-0.05164
7449.67443,-0.03920
7451.60290,-0.10927
7453.53137,-0.22396
7455.45984,-0.16857
7457.38831,0.04573
7459.31677,0.19709
7461.24524,0.12059
7463.17371,0.07801
7465.10218,0.22197
7467.03065,0.30634
7468.95912,0.16533
7470.88759,0.04295
7472.81605,0.04174
7474.74452,-0.05615
7476.67299,-0.20147
7478.60146,-0.16785
7480.52993,0.04697
7482.45840,0.07690
7484.38687,-0.14018
7486.31533,-0.17170
7488.24380,0.06617
7490.17227,0.22902
7492.10074,0.16693
7494.02921,0.10106
7495.95768,0.20539
7497.88615,0.42868
