399.19301,0.74196
401.12148,0.32763
403.04995,0.39672
404.97842,0.35627
406.90689,0.23076
408.83536,0.08575
410.76382,-0.03578
412.69229,-0.08651
414.62076,-0.07393
416.54923,-0.02092
418.47770,0.09339
420.40617,0.15624
422.33464,0.10281
424.26311,0.11550
426.19157,0.20077
428.12004,0.17441
430.04851,0.04267
431.97698,-0.05453
433.90545,-0.07420
435.83392,-0.02501
437.76239,0.02706
439.69085,0.00442
441.61932,-0.03243
443.54779,0.01055
445.47626,0.06865
447.40473,0.10148
449.33320,0.12750
451.26167,0.13539
453.19013,0.14219
455.11860,0.13775
457.04707,0.06595
458.97554,-0.00967
460.90401,-0.00193
462.83248,0.04343
464.76095,0.10796
466.68942,0.16093
468.61788,0.13379
470.54635,0.07546
472.47482,0.23497
474.40329,0.54207
476.33176,0.40036
478.26023,0.16371
480.18870,0.07393
482.11716,0.08754
484.04563,0.12883
485.97410,0.15503
487.90257,0.17545
489.83104,0.14586
491.75951,0.10191
493.68798,0.12579
495.61645,0.14907
497.54491,0.12479
499.47338,0.13564
501.40185,0.18013
503.33032,0.16832
505.25879,0.12007
507.18726,0.08395
509.11573,0.06725
511.04419,0.09046
512.97266,0.13652
514.90113,0.15986
516.82960,0.13258
518.75807,0.07292
520.68654,0.04470
522.61501,0.06306
524.54348,0.10139
526.47194,0.11593
528.40041,0.07648
530.32888,0.03293
532.25735,0.04119
534.18582,0.06495
536.11429,0.07507
538.04276,0.09869
539.97122,0.10945
541.89969,0.09322
543.82816,0.09703
545.75663,0.11197
547.68510,0.08827
549.61357,0.00932
551.54204,-0.11208
553.47051,-0.19094
555.39897,-0.13595
557.32744,-0.00696
559.25591,0.08438
561.18438,0.12998
563.11285,0.14986
565.04132,0.14506
566.96979,0.12636
568.89825,0.10086
570.82672,0.08977
572.75519,0.10936
574.68366,0.11975
576.61213,0.09442
578.54060,0.07821
580.46907,0.10168
582.39754,0.14208
584.32600,0.14848
586.25447,0.11139
588.18294,0.08760
590.11141,0.10003
592.03988,0.11714
593.96835,0.11572
595.89682,0.08853
597.82528,0.06975
599.75375,0.09459
601.68222,0.12833
603.61069,0.13749
605.53916,0.13886
607.46763,0.13119
609.39610,0.10554
611.32456,0.08802
613.25303,0.09923
615.18150,0.12084
617.10997,0.13191
619.03844,0.13730
620.96691,0.13740
622.89538,0.13389
624.82385,0.13016
626.75231,0.11031
628.68078,0.09304
630.60925,0.10345
632.53772,0.11532
634.46619,0.11822
636.39466,0.13323
638.32313,0.16478
640.25159,0.18745
642.18006,0.17832
644.10853,0.15003
646.03700,0.12840
647.96547,0.12387
649.89394,0.12593
651.82241,0.12406
653.75088,0.11672
655.67934,0.11035
657.60781,0.11100
659.53628,0.10619
661.46475,0.08639
663.39322,0.07685
665.32169,0.10069
667.25016,0.14437
669.17862,0.15704
671.10709,0.12967
673.03556,0.11119
674.96403,0.11472
676.89250,0.12594
678.82097,0.12725
680.74944,0.12456
682.67791,0.12896
684.60637,0.13013
686.53484,0.12272
688.46331,0.12420
690.39178,0.13295
692.32025,0.13168
694.24872,0.12394
696.17719,0.12089
698.10565,0.12074
700.03412,0.12388
701.96259,0.13345
703.89106,0.13947
705.81953,0.13047
707.74800,0.11511
709.67647,0.11296
711.60494,0.12864
713.53340,0.14935
715.46187,0.15570
717.39034,0.13888
719.31881,0.11702
721.24728,0.11696
723.17575,0.12955
725.10422,0.13402
727.03268,0.13667
728.96115,0.14200
730.88962,0.14518
732.81809,0.14283
734.74656,0.12951
736.67503,0.11697
738.60350,0.12804
740.53197,0.15253
742.46043,0.16858
744.38890,0.17585
746.31737,0.17398
748.24584,0.16550
750.17431,0.15646
752.10278,0.14992
754.03125,0.14663
755.95971,0.14287
757.88818,0.14019
759.81665,0.14380
761.74512,0.14920
763.67359,0.14385
765.60206,0.13321
767.53053,0.13542
769.45900,0.14609
771.38746,0.15368
773.31593,0.16212
775.24440,0.16720
777.17287,0.16029
779.10134,0.15025
781.02981,0.13972
782.95828,0.12799
784.88674,0.12776
786.81521,0.13514
788.74368,0.13876
790.67215,0.14481
792.60062,0.14825
794.52909,0.14124
796.45756,0.13404
798.38602,0.13021
800.31449,0.12501
802.24296,0.12079
804.17143,0.12305
806.09990,0.12724
808.02837,0.12654
809.95684,0.12179
811.88531,0.11966
813.81377,0.12657
815.74224,0.13121
817.67071,0.12377
819.59918,0.11602
821.52765,0.11807
823.45612,0.12809
825.38459,0.13759
827.31305,0.13813
829.24152,0.13570
831.16999,0.13914
833.09846,0.14155
835.02693,0.13446
836.95540,0.12055
838.88387,0.11398
840.81234,0.12324
842.74080,0.13470
844.66927,0.13923
846.59774,0.14746
848.52621,0.16089
850.45468,0.16558
852.38315,0.15770
854.31162,0.14515
856.24008,0.13447
858.16855,0.13122
860.09702,0.13576
862.02549,0.13717
863.95396,0.13008
865.88243,0.12779
867.81090,0.14035
869.73937,0.15636
871.66783,0.15643
873.59630,0.14424
875.52477,0.13962
877.45324,0.14596
879.38171,0.15773
881.31018,0.16896
883.23865,0.16963
885.16711,0.15620
887.09558,0.13940
889.02405,0.13113
890.95252,0.12657
892.88099,0.12264
894.80946,0.12888
896.73793,0.14253
898.66640,0.15223
900.59486,0.15842
902.52333,0.16186
904.45180,0.15743
906.38027,0.14836
908.30874,0.14409
910.23721,0.14582
912.16568,0.14872
914.09414,0.15384
916.02261,0.15688
917.95108,0.15058
919.87955,0.14513
921.80802,0.14456
923.73649,0.14017
925.66496,0.13811
927.59343,0.14422
929.52189,0.14981
931.45036,0.14963
933.37883,0.14662
935.30730,0.14707
937.23577,0.15595
939.16424,0.16606
941.09271,0.16360
943.02117,0.15208
944.94964,0.14930
946.87811,0.16168
948.80658,0.17662
950.73505,0.17659
952.66352,0.16290
954.59199,0.15246
956.52045,0.14847
958.44892,0.14645
960.37739,0.14984
962.30586,0.15247
964.23433,0.14346
966.16280,0.13319
968.09127,0.13455
970.01974,0.13753
971.94820,0.13370
973.87667,0.13037
975.80514,0.13411
977.73361,0.14299
979.66208,0.15195
981.59055,0.15842
983.51902,0.16011
985.44748,0.15764
987.37595,0.15588
989.30442,0.15560
991.23289,0.15642
993.16136,0.15952
995.08983,0.15978
997.01830,0.15279
998.94677,0.14448
1000.87523,0.14260
1002.80370,0.14647
1004.73217,0.14814
1006.66064,0.14577
1008.58911,0.14781
1010.51758,0.15208
1012.44605,0.14759
1014.37451,0.14018
1016.30298,0.14142
1018.23145,0.14944
1020.15992,0.15292
1022.08839,0.14814
1024.01686,0.14369
1025.94533,0.13718
1027.87380,0.12781
1029.80226,0.12911
1031.73073,0.13620
1033.65920,0.14066
1035.58767,0.14969
1037.51614,0.15760
1039.44461,0.15525
1041.37308,0.15318
1043.30154,0.16047
1045.23001,0.16757
1047.15848,0.16487
1049.08695,0.16101
1051.01542,0.16395
1052.94389,0.16526
1054.87236,0.15734
1056.80083,0.14821
1058.72929,0.15089
1060.65776,0.16050
1062.58623,0.16624
1064.51470,0.17134
1066.44317,0.17549
1068.37164,0.17261
1070.30011,0.16650
1072.22857,0.16715
1074.15704,0.17250
1076.08551,0.17368
1078.01398,0.17284
1079.94245,0.17038
1081.87092,0.16294
1083.79939,0.15676
1085.72786,0.15872
1087.65632,0.16446
1089.58479,0.16442
1091.51326,0.15707
1093.44173,0.15200
1095.37020,0.15821
1097.29867,0.17039
1099.22714,0.17297
1101.15560,0.16189
1103.08407,0.15373
1105.01254,0.16052
1106.94101,0.17583
1108.86948,0.18734
1110.79795,0.18154
1112.72642,0.16672
1114.65489,0.16430
1116.58335,0.16778
1118.51182,0.16435
1120.44029,0.16022
1122.36876,0.15982
1124.29723,0.15992
1126.22570,0.16224
1128.15417,0.16878
1130.08263,0.17205
1132.01110,0.16687
1133.93957,0.15769
1135.86804,0.14969
1137.79651,0.14610
1139.72498,0.14848
1141.65345,0.15182
1143.58191,0.15280
1145.51038,0.15618
1147.43885,0.15916
1149.36732,0.15701
1151.29579,0.15589
1153.22426,0.15866
1155.15273,0.16294
1157.08120,0.16679
1159.00966,0.16815
1160.93813,0.16709
1162.86660,0.16494
1164.79507,0.16413
1166.72354,0.16454
1168.65201,0.16218
1170.58048,0.15752
1172.50894,0.15645
1174.43741,0.16096
1176.36588,0.16602
1178.29435,0.16702
1180.22282,0.16304
1182.15129,0.15711
1184.07976,0.15508
1186.00823,0.15894
1187.93669,0.16300
1189.86516,0.16056
1191.79363,0.15731
1193.72210,0.15859
1195.65057,0.15728
1197.57904,0.15430
1199.50751,0.15584
1201.43597,0.16093
1203.36444,0.16725
1205.29291,0.17082
1207.22138,0.16842
1209.14985,0.16385
1211.07832,0.16565
1213.00679,0.17138
1214.93526,0.16884
1216.86372,0.16066
1218.79219,0.15824
1220.72066,0.16105
1222.64913,0.16533
1224.57760,0.17207
1226.50607,0.17433
1228.43454,0.16663
1230.36300,0.16010
1232.29147,0.15954
1234.21994,0.15666
1236.14841,0.15110
1238.07688,0.14897
1240.00535,0.15124
1241.93382,0.15352
1243.86229,0.15296
1245.79075,0.15214
1247.71922,0.15509
1249.64769,0.16074
1251.57616,0.16066
1253.50463,0.15413
1255.43310,0.15172
1257.36157,0.15383
1259.29003,0.15269
1261.21850,0.14992
1263.14697,0.15106
1265.07544,0.15267
1267.00391,0.14990
1268.93238,0.14659
1270.86085,0.14958
1272.78932,0.15659
1274.71778,0.15809
1276.64625,0.15763
1278.57472,0.16301
1280.50319,0.16508
1282.43166,0.16079
1284.36013,0.15973
1286.28860,0.15893
1288.21706,0.15740
1290.14553,0.16169
1292.07400,0.16411
1294.00247,0.15805
1295.93094,0.14943
1297.85941,0.14112
1299.78788,0.12794
1301.71634,0.10437
1303.64481,0.08244
1305.57328,0.08763
1307.50175,0.11867
1309.43022,0.14729
1311.35869,0.16194
1313.28716,0.16860
1315.21563,0.16933
1317.14409,0.16668
1319.07256,0.16353
1321.00103,0.16123
1322.92950,0.16236
1324.85797,0.16018
1326.78644,0.15286
1328.71491,0.14913
1330.64337,0.14327
1332.57184,0.13707
1334.50031,0.13863
1336.42878,0.14031
1338.35725,0.14203
1340.28572,0.14178
1342.21419,0.13849
1344.14266,0.13988
1346.07112,0.13947
1347.99959,0.13739
1349.92806,0.14148
1351.85653,0.14611
1353.78500,0.14488
1355.71347,0.14297
1357.64194,0.14829
1359.57040,0.15909
1361.49887,0.16790
1363.42734,0.16877
1365.35581,0.16471
1367.28428,0.16274
1369.21275,0.16482
1371.14122,0.17151
1373.06969,0.17997
1374.99815,0.18068
1376.92662,0.17317
1378.85509,0.16895
1380.78356,0.17093
1382.71203,0.17422
1384.64050,0.17656
1386.56897,0.17829
1388.49743,0.17845
1390.42590,0.17807
1392.35437,0.18104
1394.28284,0.18817
1396.21131,0.19352
1398.13978,0.19241
1400.06825,0.18638
1401.99672,0.18083
1403.92518,0.17891
1405.85365,0.17776
1407.78212,0.17463
1409.71059,0.17273
1411.63906,0.17498
1413.56753,0.18035
1415.49600,0.18739
1417.42446,0.19239
1419.35293,0.18893
1421.28140,0.18286
1423.20987,0.17845
1425.13834,0.17345
1427.06681,0.17368
1428.99528,0.17845
1430.92375,0.18038
1432.85221,0.18381
1434.78068,0.19025
1436.70915,0.18835
1438.63762,0.18011
1440.56609,0.17827
1442.49456,0.18072
1444.42303,0.18322
1446.35149,0.18515
1448.27996,0.18525
1450.20843,0.18376
1452.13690,0.18641
1454.06537,0.19602
1455.99384,0.21102
1457.92231,0.21350
1459.85077,0.19648
1461.77924,0.18663
1463.70771,0.18788
1465.63618,0.18863
1467.56465,0.18323
1469.49312,0.18281
1471.42159,0.19153
1473.35006,0.20223
1475.27852,0.20389
1477.20699,0.19721
1479.13546,0.18971
1481.06393,0.18678
1482.99240,0.18636
1484.92087,0.18900
1486.84934,0.19761
1488.77780,0.20674
1490.70627,0.20305
1492.63474,0.19264
1494.56321,0.18886
1496.49168,0.19283
1498.42015,0.19837
1500.34862,0.20107
1502.27709,0.20530
1504.20555,0.21561
1506.13402,0.22560
1508.06249,0.21498
1509.99096,0.20745
1511.91943,0.20837
1513.84790,0.20958
1515.77637,0.21176
1517.70483,0.21591
1519.63330,0.22234
1521.56177,0.22595
1523.49024,0.21483
1525.41871,0.20337
1527.34718,0.20057
1529.27565,0.19915
1531.20412,0.19965
1533.13258,0.20491
1535.06105,0.20844
1536.98952,0.21570
1538.91799,0.23850
1540.84646,0.25720
1542.77493,0.23967
1544.70340,0.21465
1546.63186,0.19748
1548.56033,0.19272
1550.48880,0.19392
1552.41727,0.19370
1554.34574,0.19529
1556.27421,0.20242
1558.20268,0.21229
1560.13115,0.20921
1562.05961,0.20108
1563.98808,0.19657
1565.91655,0.19430
1567.84502,0.19593
1569.77349,0.19742
1571.70196,0.19410
1573.63043,0.19346
1575.55889,0.19635
1577.48736,0.19225
1579.41583,0.18300
1581.34430,0.17718
1583.27277,0.17643
1585.20124,0.17750
1587.12971,0.17712
1589.05818,0.17871
1590.98664,0.18295
1592.91511,0.18491
1594.84358,0.18316
1596.77205,0.18010
1598.70052,0.17937
1600.62899,0.18140
1602.55746,0.18275
1604.48592,0.18086
1606.41439,0.17868
1608.34286,0.18012
1610.27133,0.18376
1612.19980,0.18882
1614.12827,0.19685
1616.05674,0.20334
1617.98521,0.19946
1619.91367,0.19620
1621.84214,0.19919
1623.77061,0.20126
1625.69908,0.20085
1627.62755,0.19984
1629.55602,0.19836
1631.48449,0.20040
1633.41295,0.20798
1635.34142,0.21664
1637.26989,0.21287
1639.19836,0.20424
1641.12683,0.19879
1643.05530,0.19785
1644.98377,0.20463
1646.91223,0.21529
1648.84070,0.21793
1650.76917,0.22302
1652.69764,0.23692
1654.62611,0.22859
1656.55458,0.20809
1658.48305,0.19677
1660.41152,0.19370
1662.33998,0.19439
1664.26845,0.19498
1666.19692,0.19909
1668.12539,0.20988
1670.05386,0.21819
1671.98233,0.21463
1673.91080,0.21219
1675.83926,0.21092
1677.76773,0.20759
1679.69620,0.20912
1681.62467,0.21647
1683.55314,0.22112
1685.48161,0.21270
1687.41008,0.20616
1689.33855,0.20319
1691.26701,0.19847
1693.19548,0.19820
1695.12395,0.21015
1697.05242,0.22787
1698.98089,0.23300
1700.90936,0.22313
1702.83783,0.21273
1704.76629,0.20473
1706.69476,0.19515
1708.62323,0.18990
1710.55170,0.18928
1712.48017,0.19166
1714.40864,0.20105
1716.33711,0.21212
1718.26558,0.20365
1720.19404,0.18982
1722.12251,0.18495
1724.05098,0.18347
1725.97945,0.18412
1727.90792,0.18815
1729.83639,0.19445
1731.76486,0.20302
1733.69332,0.20963
1735.62179,0.20383
1737.55026,0.19840
1739.47873,0.19965
1741.40720,0.20113
1743.33567,0.19977
1745.26414,0.19797
1747.19261,0.19864
1749.12107,0.20098
1751.04954,0.19765
1752.97801,0.19158
1754.90648,0.19119
1756.83495,0.19466
1758.76342,0.19683
1760.69189,0.19810
1762.62035,0.19605
1764.54882,0.19034
1766.47729,0.18726
1768.40576,0.18864
1770.33423,0.19282
1772.26270,0.19529
1774.19117,0.19507
1776.11964,0.19572
1778.04810,0.19613
1779.97657,0.19451
1781.90504,0.19183
1783.83351,0.19161
1785.76198,0.19241
1787.69045,0.19098
1789.61892,0.19127
1791.54738,0.19615
1793.47585,0.19859
1795.40432,0.19695
1797.33279,0.19678
1799.26126,0.19634
1801.18973,0.19255
1803.11820,0.18867
1805.04666,0.18901
1806.97513,0.19330
1808.90360,0.19687
1810.83207,0.19493
1812.76054,0.18951
1814.68901,0.18608
1816.61748,0.18626
1818.54595,0.18597
1820.47441,0.18398
1822.40288,0.18789
1824.33135,0.19610
1826.25982,0.19955
1828.18829,0.19958
1830.11676,0.19727
1832.04523,0.19354
1833.97369,0.19088
1835.90216,0.18843
1837.83063,0.18701
1839.75910,0.18883
1841.68757,0.19452
1843.61604,0.19827
1845.54451,0.19404
1847.47298,0.18971
1849.40144,0.18907
1851.32991,0.18901
1853.25838,0.18821
1855.18685,0.18636
1857.11532,0.18486
1859.04379,0.18618
1860.97226,0.18868
1862.90072,0.18973
1864.82919,0.19221
1866.75766,0.19802
1868.68613,0.19942
1870.61460,0.19189
1872.54307,0.18588
1874.47154,0.18520
1876.40001,0.18581
1878.32847,0.18525
1880.25694,0.18343
1882.18541,0.18264
1884.11388,0.18566
1886.04235,0.19045
1887.97082,0.19395
1889.89929,0.19330
1891.82775,0.18942
1893.75622,0.18850
1895.68469,0.19031
1897.61316,0.19039
1899.54163,0.18781
1901.47010,0.18484
1903.39857,0.18573
1905.32704,0.19028
1907.25550,0.19175
1909.18397,0.18860
1911.11244,0.18692
1913.04091,0.18789
1914.96938,0.18901
1916.89785,0.19055
1918.82632,0.19210
1920.75478,0.19273
1922.68325,0.19173
1924.61172,0.18958
1926.54019,0.19004
1928.46866,0.19139
1930.39713,0.18942
1932.32560,0.18728
1934.25407,0.18661
1936.18253,0.18527
1938.11100,0.18532
1940.03947,0.18885
1941.96794,0.19332
1943.89641,0.19438
1945.82488,0.19114
1947.75335,0.18677
1949.68181,0.18605
1951.61028,0.18960
1953.53875,0.19249
1955.46722,0.19249
1957.39569,0.19143
1959.32416,0.19081
1961.25263,0.19075
1963.18110,0.19046
1965.10956,0.18885
1967.03803,0.18623
1968.96650,0.18510
1970.89497,0.18629
1972.82344,0.18808
1974.75191,0.18667
1976.68038,0.17912
1978.60884,0.17169
1980.53731,0.17383
1982.46578,0.18296
1984.39425,0.18821
1986.32272,0.18759
1988.25119,0.18727
1990.17966,0.18830
1992.10812,0.18808
1994.03659,0.18732
1995.96506,0.18758
1997.89353,0.18809
1999.82200,0.18789
2001.75047,0.18705
2003.67894,0.18538
2005.60741,0.18316
2007.53587,0.18240
2009.46434,0.18538
2011.39281,0.18958
2013.32128,0.18989
2015.24975,0.18855
2017.17822,0.18995
2019.10669,0.19092
2021.03515,0.18900
2022.96362,0.18702
2024.89209,0.18570
2026.82056,0.18467
2028.74903,0.18552
2030.67750,0.18795
2032.60597,0.18895
2034.53444,0.18748
2036.46290,0.18657
2038.39137,0.18703
2040.31984,0.18561
2042.24831,0.18252
2044.17678,0.18176
2046.10525,0.18473
2048.03372,0.18900
2049.96218,0.19080
2051.89065,0.18970
2053.81912,0.18967
2055.74759,0.19111
2057.67606,0.19149
2059.60453,0.19206
2061.53300,0.19242
2063.46147,0.18986
2065.38993,0.18730
2067.31840,0.18854
2069.24687,0.18987
2071.17534,0.18865
2073.10381,0.18884
2075.03228,0.19001
2076.96075,0.18979
2078.88921,0.19129
2080.81768,0.19295
2082.74615,0.19072
2084.67462,0.18792
2086.60309,0.18799
2088.53156,0.18893
2090.46003,0.18817
2092.38850,0.18629
2094.31696,0.18578
2096.24543,0.18698
2098.17390,0.18656
2100.10237,0.18337
2102.03084,0.18100
2103.95931,0.18151
2105.88778,0.18379
2107.81624,0.18573
2109.74471,0.18742
2111.67318,0.19052
2113.60165,0.19351
2115.53012,0.19435
2117.45859,0.19330
2119.38706,0.19153
2121.31553,0.19001
2123.24399,0.18950
2125.17246,0.19071
2127.10093,0.19178
2129.02940,0.19044
2130.95787,0.18849
2132.88634,0.18418
2134.81481,0.17330
2136.74327,0.16417
2138.67174,0.16755
2140.60021,0.17802
2142.52868,0.18506
2144.45715,0.18863
2146.38562,0.19172
2148.31409,0.19249
2150.24255,0.19047
2152.17102,0.18731
2154.09949,0.18473
2156.02796,0.18477
2157.95643,0.18739
2159.88490,0.19059
2161.81337,0.19234
2163.74184,0.19253
2165.67030,0.19178
2167.59877,0.19135
2169.52724,0.19288
2171.45571,0.19412
2173.38418,0.19378
2175.31265,0.19393
2177.24112,0.19347
2179.16958,0.19095
2181.09805,0.18755
2183.02652,0.18444
2184.95499,0.18334
2186.88346,0.18573
2188.81193,0.18925
2190.74040,0.18877
2192.66887,0.18508
2194.59733,0.18379
2196.52580,0.18448
2198.45427,0.18386
2200.38274,0.18334
2202.31121,0.18444
2204.23968,0.18551
2206.16815,0.18590
2208.09661,0.18644
2210.02508,0.18680
2211.95355,0.18660
2213.88202,0.18640
2215.81049,0.18607
2217.73896,0.18582
2219.66743,0.18577
2221.59590,0.18464
2223.52436,0.18321
2225.45283,0.18433
2227.38130,0.18885
2229.30977,0.19255
2231.23824,0.19070
2233.16671,0.18694
2235.09518,0.18633
2237.02364,0.18682
2238.95211,0.18761
2240.88058,0.19107
2242.80905,0.19394
2244.73752,0.19261
2246.66599,0.18978
2248.59446,0.18897
2250.52293,0.18967
2252.45139,0.18903
2254.37986,0.18860
2256.30833,0.19057
2258.23680,0.19162
2260.16527,0.19022
2262.09374,0.18911
2264.02221,0.19040
2265.95067,0.19111
2267.87914,0.18776
2269.80761,0.18456
2271.73608,0.18530
2273.66455,0.18806
2275.59302,0.19066
2277.52149,0.19192
2279.44996,0.19283
2281.37842,0.19396
2283.30689,0.19383
2285.23536,0.19178
2287.16383,0.18875
2289.09230,0.18669
2291.02077,0.18493
2292.94924,0.18210
2294.87770,0.18074
2296.80617,0.18137
2298.73464,0.18294
2300.66311,0.18527
2302.59158,0.18474
2304.52005,0.18159
2306.44852,0.17949
2308.37699,0.17700
2310.30545,0.17524
2312.23392,0.17634
2314.16239,0.17670
2316.09086,0.17727
2318.01933,0.18180
2319.94780,0.18568
2321.87627,0.18121
2323.80473,0.17351
2325.73320,0.17299
2327.66167,0.17696
2329.59014,0.18100
2331.51861,0.18360
2333.44708,0.18584
2335.37555,0.18994
2337.30401,0.18761
2339.23248,0.17959
2341.16095,0.17914
2343.08942,0.18221
2345.01789,0.18098
2346.94636,0.18379
2348.87483,0.18913
2350.80330,0.18801
2352.73176,0.17849
2354.66023,0.17293
2356.58870,0.17914
2358.51717,0.17676
2360.44564,0.16733
2362.37411,0.17419
2364.30258,0.18403
2366.23104,0.18185
2368.15951,0.18015
2370.08798,0.18482
2372.01645,0.18292
2373.94492,0.17734
2375.87339,0.18076
2377.80186,0.18794
2379.73033,0.19060
2381.65879,0.18970
2383.58726,0.18821
2385.51573,0.18785
2387.44420,0.18769
2389.37267,0.18654
2391.30114,0.18639
2393.22961,0.18876
2395.15807,0.19198
2397.08654,0.19271
2399.01501,0.18951
2400.94348,0.18635
2402.87195,0.18764
2404.80042,0.19079
2406.72889,0.19121
2408.65736,0.18942
2410.58582,0.18795
2412.51429,0.18773
2414.44276,0.18782
2416.37123,0.18669
2418.29970,0.18524
2420.22817,0.18596
2422.15664,0.18872
2424.08510,0.19112
2426.01357,0.19210
2427.94204,0.19186
2429.87051,0.19061
2431.79898,0.18930
2433.72745,0.18953
2435.65592,0.19140
2437.58439,0.19234
2439.51285,0.19004
2441.44132,0.18708
2443.36979,0.18765
2445.29826,0.18973
2447.22673,0.19002
2449.15520,0.18963
2451.08367,0.19138
2453.01213,0.19560
2454.94060,0.19633
2456.86907,0.19132
2458.79754,0.18797
2460.72601,0.18889
2462.65448,0.18919
2464.58295,0.18862
2466.51142,0.19114
2468.43988,0.19416
2470.36835,0.19309
2472.29682,0.19151
2474.22529,0.19237
2476.15376,0.19375
2478.08223,0.19608
2480.01070,0.19842
2481.93916,0.19705
2483.86763,0.19297
2485.79610,0.18941
2487.72457,0.18688
2489.65304,0.18611
2491.58151,0.18850
2493.50998,0.19217
2495.43844,0.19304
2497.36691,0.19176
2499.29538,0.19206
2501.22385,0.19261
2503.15232,0.19101
2505.08079,0.18884
2507.00926,0.18821
2508.93773,0.18974
2510.86619,0.19119
2512.79466,0.19129
2514.72313,0.19244
2516.65160,0.19389
2518.58007,0.19300
2520.50854,0.19104
2522.43701,0.18947
2524.36547,0.18870
2526.29394,0.18925
2528.22241,0.19089
2530.15088,0.19317
2532.07935,0.19519
2534.00782,0.19556
2535.93629,0.19338
2537.86476,0.19036
2539.79322,0.18878
2541.72169,0.18782
2543.65016,0.18825
2545.57863,0.19118
2547.50710,0.19251
2549.43557,0.19143
2551.36404,0.19127
2553.29250,0.19118
2555.22097,0.19072
2557.14944,0.19108
2559.07791,0.19192
2561.00638,0.19305
2562.93485,0.19243
2564.86332,0.19074
2566.79179,0.19221
2568.72025,0.19416
2570.64872,0.19281
2572.57719,0.19107
2574.50566,0.19153
2576.43413,0.19386
2578.36260,0.19566
2580.29107,0.19369
2582.21953,0.19033
2584.14800,0.19153
2586.07647,0.19638
2588.00494,0.19820
2589.93341,0.19362
2591.86188,0.18777
2593.79035,0.18767
2595.71882,0.19140
2597.64728,0.19353
2599.57575,0.19364
2601.50422,0.19484
2603.43269,0.19716
2605.36116,0.19617
2607.28963,0.19178
2609.21810,0.19077
2611.14656,0.19578
2613.07503,0.19841
2615.00350,0.19386
2616.93197,0.18898
2618.86044,0.18716
2620.78891,0.18723
2622.71738,0.19073
2624.64585,0.19612
2626.57431,0.19846
2628.50278,0.19723
2630.43125,0.19569
2632.35972,0.19446
2634.28819,0.19153
2636.21666,0.18903
2638.14513,0.19155
2640.07359,0.19584
2642.00206,0.19617
2643.93053,0.19465
2645.85900,0.19354
2647.78747,0.19135
2649.71594,0.19034
2651.64441,0.19249
2653.57288,0.19496
2655.50134,0.19587
2657.42981,0.19622
2659.35828,0.19673
2661.28675,0.19658
2663.21522,0.19589
2665.14369,0.19452
2667.07216,0.19244
2669.00062,0.19233
2670.92909,0.19429
2672.85756,0.19659
2674.78603,0.19918
2676.71450,0.20083
2678.64297,0.20062
2680.57144,0.19913
2682.49990,0.19676
2684.42837,0.19439
2686.35684,0.19371
2688.28531,0.19544
2690.21378,0.19797
2692.14225,0.19913
2694.07072,0.19762
2695.99919,0.19417
2697.92765,0.19311
2699.85612,0.19666
2701.78459,0.19957
2703.71306,0.19693
2705.64153,0.19200
2707.57000,0.18947
2709.49847,0.18945
2711.42693,0.19181
2713.35540,0.19631
2715.28387,0.20053
2717.21234,0.20353
2719.14081,0.20606
2721.06928,0.20600
2722.99775,0.20096
2724.92622,0.19458
2726.85468,0.19179
2728.78315,0.19269
2730.71162,0.19472
2732.64009,0.19725
2734.56856,0.20040
2736.49703,0.20218
2738.42550,0.20146
2740.35396,0.20111
2742.28243,0.20298
2744.21090,0.20403
2746.13937,0.20386
2748.06784,0.20522
2749.99631,0.20661
2751.92478,0.20598
2753.85325,0.20532
2755.78171,0.20586
2757.71018,0.20522
2759.63865,0.20420
2761.56712,0.20540
2763.49559,0.20598
2765.42406,0.20431
2767.35253,0.20110
2769.28099,0.19760
2771.20946,0.19879
2773.13793,0.20264
2775.06640,0.20326
2776.99487,0.20323
2778.92334,0.20199
2780.85181,0.19706
2782.78028,0.19357
2784.70874,0.19437
2786.63721,0.19630
2788.56568,0.19816
2790.49415,0.20149
2792.42262,0.20389
2794.35109,0.20361
2796.27956,0.20326
2798.20802,0.20230
2800.13649,0.19919
2802.06496,0.19588
2803.99343,0.19632
2805.92190,0.20114
2807.85037,0.20436
2809.77884,0.20260
2811.70731,0.20056
2813.63577,0.20289
2815.56424,0.20779
2817.49271,0.21108
2819.42118,0.21073
2821.34965,0.20767
2823.27812,0.20490
2825.20659,0.20405
2827.13505,0.20511
2829.06352,0.20609
2830.99199,0.20512
2832.92046,0.20514
2834.84893,0.20703
2836.77740,0.20782
2838.70587,0.20720
2840.63433,0.20590
2842.56280,0.20569
2844.49127,0.20652
2846.41974,0.20587
2848.34821,0.20498
2850.27668,0.20363
2852.20515,0.19970
2854.13362,0.19499
2856.06208,0.19221
2857.99055,0.19359
2859.91902,0.19971
2861.84749,0.20530
2863.77596,0.20582
2865.70443,0.20579
2867.63290,0.20848
2869.56136,0.21058
2871.48983,0.20882
2873.41830,0.20440
2875.34677,0.20275
2877.27524,0.20535
2879.20371,0.20779
2881.13218,0.20624
2883.06065,0.20241
2884.98911,0.20099
2886.91758,0.20134
2888.84605,0.20096
2890.77452,0.20196
2892.70299,0.20227
2894.63146,0.19649
2896.55993,0.18995
2898.48839,0.18876
2900.41686,0.19138
2902.34533,0.19438
2904.27380,0.19234
2906.20227,0.18857
2908.13074,0.19255
2910.05921,0.19992
2911.98768,0.19943
2913.91614,0.18765
2915.84461,0.17203
2917.77308,0.16839
2919.70155,0.17939
2921.63002,0.19141
2923.55849,0.19276
2925.48696,0.18228
2927.41542,0.17743
2929.34389,0.18912
2931.27236,0.20024
2933.20083,0.19696
2935.12930,0.18289
2937.05777,0.17217
2938.98624,0.18089
2940.91471,0.19848
2942.84317,0.20510
2944.77164,0.19701
2946.70011,0.17701
2948.62858,0.16912
2950.55705,0.18360
2952.48552,0.19433
2954.41399,0.19017
2956.34245,0.17394
2958.27092,0.16202
2960.19939,0.17334
2962.12786,0.19109
2964.05633,0.19658
2965.98480,0.19028
2967.91327,0.18073
2969.84174,0.18486
2971.77020,0.19876
2973.69867,0.20540
2975.62714,0.19909
2977.55561,0.18277
2979.48408,0.17716
2981.41255,0.18932
2983.34102,0.19853
2985.26948,0.19609
2987.19795,0.18700
2989.12642,0.18530
2991.05489,0.19848
2992.98336,0.20897
2994.91183,0.20731
2996.84030,0.20046
2998.76877,0.19571
3000.69723,0.19877
3002.62570,0.20321
3004.55417,0.20095
3006.48264,0.19528
3008.41111,0.18742
3010.33958,0.16778
3012.26805,0.12759
3014.19651,0.07758
3016.12498,0.05091
3018.05345,0.07827
3019.98192,0.14114
3021.91039,0.18919
3023.83886,0.20615
3025.76733,0.20389
3027.69579,0.19613
3029.62426,0.19699
3031.55273,0.20605
3033.48120,0.20999
3035.40967,0.20546
3037.33814,0.19909
3039.26661,0.19889
3041.19508,0.20498
3043.12354,0.20845
3045.05201,0.20479
3046.98048,0.19717
3048.90895,0.19654
3050.83742,0.20380
3052.76589,0.20558
3054.69436,0.19665
3056.62282,0.18210
3058.55129,0.17955
3060.47976,0.19522
3062.40823,0.20672
3064.33670,0.19579
3066.26517,0.17454
3068.19364,0.17345
3070.12211,0.19144
3072.05057,0.20158
3073.97904,0.19483
3075.90751,0.18117
3077.83598,0.18002
3079.76445,0.19352
3081.69292,0.20329
3083.62139,0.19827
3085.54985,0.18898
3087.47832,0.19239
3089.40679,0.20090
3091.33526,0.19871
3093.26373,0.18325
3095.19220,0.17328
3097.12067,0.18638
3099.04914,0.20301
3100.97760,0.20334
3102.90607,0.19138
3104.83454,0.18583
3106.76301,0.19696
3108.69148,0.20820
3110.61995,0.20196
3112.54842,0.18487
3114.47688,0.18375
3116.40535,0.20037
3118.33382,0.20872
3120.26229,0.20033
3122.19076,0.19011
3124.11923,0.19345
3126.04770,0.20113
3127.97617,0.19995
3129.90463,0.19448
3131.83310,0.19383
3133.76157,0.20257
3135.69004,0.21179
3137.61851,0.20830
3139.54698,0.19992
3141.47545,0.20167
3143.40391,0.20672
3145.33238,0.20599
3147.26085,0.20393
3149.18932,0.20594
3151.11779,0.21089
3153.04626,0.21304
3154.97473,0.21036
3156.90320,0.20495
3158.83166,0.20300
3160.76013,0.20666
3162.68860,0.20924
3164.61707,0.20756
3166.54554,0.20600
3168.47401,0.20907
3170.40248,0.21414
3172.33094,0.21502
3174.25941,0.21231
3176.18788,0.21232
3178.11635,0.21367
3180.04482,0.21245
3181.97329,0.21456
3183.90176,0.22129
3185.83022,0.22160
3187.75869,0.21315
3189.68716,0.20652
3191.61563,0.20649
3193.54410,0.21244
3195.47257,0.21952
3197.40104,0.22103
3199.32951,0.21792
3201.25797,0.21149
3203.18644,0.20444
3205.11491,0.20489
3207.04338,0.21226
3208.97185,0.21605
3210.90032,0.21494
3212.82879,0.21404
3214.75725,0.21200
3216.68572,0.20981
3218.61419,0.20944
3220.54266,0.20775
3222.47113,0.20720
3224.39960,0.21098
3226.32807,0.21231
3228.25654,0.20747
3230.18500,0.20117
3232.11347,0.19955
3234.04194,0.20548
3235.97041,0.21207
3237.89888,0.21304
3239.82735,0.21277
3241.75582,0.21504
3243.68428,0.21891
3245.61275,0.22460
3247.54122,0.22674
3249.46969,0.22003
3251.39816,0.21277
3253.32663,0.21019
3255.25510,0.20920
3257.18357,0.21153
3259.11203,0.21766
3261.04050,0.21974
3262.96897,0.21378
3264.89744,0.20725
3266.82591,0.20537
3268.75438,0.20613
3270.68285,0.20712
3272.61131,0.20800
3274.53978,0.20848
3276.46825,0.20656
3278.39672,0.20379
3280.32519,0.20243
3282.25366,0.20220
3284.18213,0.20549
3286.11060,0.21187
3288.03906,0.21513
3289.96753,0.21465
3291.89600,0.21310
3293.82447,0.20980
3295.75294,0.20869
3297.68141,0.21126
3299.60988,0.20891
3301.53834,0.20269
3303.46681,0.20227
3305.39528,0.20402
3307.32375,0.20573
3309.25222,0.21120
3311.18069,0.21283
3313.10916,0.21118
3315.03763,0.21402
3316.96609,0.21360
3318.89456,0.20736
3320.82303,0.20674
3322.75150,0.21300
3324.67997,0.21795
3326.60844,0.21973
3328.53691,0.21989
3330.46537,0.21770
3332.39384,0.21524
3334.32231,0.21807
3336.25078,0.22387
3338.17925,0.22249
3340.10772,0.21279
3342.03619,0.20406
3343.96466,0.20278
3345.89312,0.20789
3347.82159,0.21292
3349.75006,0.21217
3351.67853,0.20926
3353.60700,0.21112
3355.53547,0.21519
3357.46394,0.21487
3359.39240,0.21209
3361.32087,0.21150
3363.24934,0.21325
3365.17781,0.21627
3367.10628,0.21696
3369.03475,0.21569
3370.96322,0.21616
3372.89168,0.21586
3374.82015,0.21558
3376.74862,0.21766
3378.67709,0.21732
3380.60556,0.21273
3382.53403,0.20952
3384.46250,0.21010
3386.39097,0.21075
3388.31943,0.21075
3390.24790,0.21193
3392.17637,0.21342
3394.10484,0.21356
3396.03331,0.21157
3397.96178,0.20824
3399.89025,0.20618
3401.81871,0.20404
3403.74718,0.20060
3405.67565,0.20184
3407.60412,0.20677
3409.53259,0.20808
3411.46106,0.20766
3413.38953,0.20886
3415.31800,0.21055
3417.24646,0.21343
3419.17493,0.21531
3421.10340,0.21041
3423.03187,0.20149
3424.96034,0.19596
3426.88881,0.19484
3428.81728,0.19583
3430.74574,0.19982
3432.67421,0.20378
3434.60268,0.20053
3436.53115,0.19555
3438.45962,0.19530
3440.38809,0.19691
3442.31656,0.20074
3444.24503,0.20445
3446.17349,0.20225
3448.10196,0.19661
3450.03043,0.19265
3451.95890,0.19050
3453.88737,0.19173
3455.81584,0.19606
3457.74431,0.19926
3459.67277,0.20181
3461.60124,0.20336
3463.52971,0.20178
3465.45818,0.19934
3467.38665,0.19709
3469.31512,0.19533
3471.24359,0.19438
3473.17206,0.19308
3475.10052,0.19273
3477.02899,0.19375
3478.95746,0.19595
3480.88593,0.20132
3482.81440,0.20474
3484.74287,0.20138
3486.67134,0.19678
3488.59980,0.19437
3490.52827,0.19145
3492.45674,0.18648
3494.38521,0.18228
3496.31368,0.18025
3498.24215,0.17848
3500.17062,0.17979
3502.09909,0.18296
3504.02755,0.17844
3505.95602,0.17398
3507.88449,0.18144
3509.81296,0.18818
3511.74143,0.18469
3513.66990,0.18109
3515.59837,0.17946
3517.52683,0.17629
3519.45530,0.17750
3521.38377,0.18697
3523.31224,0.19482
3525.24071,0.19277
3527.16918,0.18551
3529.09765,0.17882
3531.02611,0.17494
3532.95458,0.17191
3534.88305,0.16955
3536.81152,0.17232
3538.73999,0.17782
3540.66846,0.17795
3542.59693,0.17292
3544.52540,0.17069
3546.45386,0.17322
3548.38233,0.17341
3550.31080,0.17143
3552.23927,0.17097
3554.16774,0.16821
3556.09621,0.16255
3558.02468,0.15942
3559.95314,0.16124
3561.88161,0.16687
3563.81008,0.17365
3565.73855,0.17950
3567.66702,0.17664
3569.59549,0.16399
3571.52396,0.15588
3573.45243,0.15573
3575.38089,0.15795
3577.30936,0.15852
3579.23783,0.15790
3581.16630,0.15580
3583.09477,0.15260
3585.02324,0.15427
3586.95171,0.16202
3588.88017,0.16452
3590.80864,0.16243
3592.73711,0.16239
3594.66558,0.16167
3596.59405,0.16079
3598.52252,0.16097
3600.45099,0.15648
3602.37946,0.14943
3604.30792,0.14694
3606.23639,0.14777
3608.16486,0.14775
3610.09333,0.14736
3612.02180,0.15152
3613.95027,0.15822
3615.87874,0.15983
3617.80720,0.15739
3619.73567,0.15497
3621.66414,0.15295
3623.59261,0.15098
3625.52108,0.15056
3627.44955,0.15527
3629.37802,0.16066
3631.30649,0.15894
3633.23495,0.15734
3635.16342,0.15553
3637.09189,0.15300
3639.02036,0.15139
3640.94883,0.14954
3642.87730,0.14630
3644.80577,0.14157
3646.73423,0.14144
3648.66270,0.14979
3650.59117,0.14702
3652.51964,0.13657
3654.44811,0.13308
3656.37658,0.13501
3658.30505,0.13658
3660.23352,0.13575
3662.16198,0.13501
3664.09045,0.13583
3666.01892,0.13841
3667.94739,0.14480
3669.87586,0.15213
3671.80433,0.15016
3673.73280,0.14615
3675.66126,0.14336
3677.58973,0.13788
3679.51820,0.13502
3681.44667,0.13413
3683.37514,0.13307
3685.30361,0.13584
3687.23208,0.14631
3689.16055,0.15798
3691.08901,0.15350
3693.01748,0.13854
3694.94595,0.12925
3696.87442,0.12913
3698.80289,0.13384
3700.73136,0.13789
3702.65983,0.13590
3704.58829,0.13021
3706.51676,0.12696
3708.44523,0.12926
3710.37370,0.13744
3712.30217,0.13831
3714.23064,0.13105
3716.15911,0.12985
3718.08757,0.13311
3720.01604,0.13556
3721.94451,0.13855
3723.87298,0.13865
3725.80145,0.13308
3727.72992,0.13113
3729.65839,0.13584
3731.58686,0.14569
3733.51532,0.15712
3735.44379,0.15531
3737.37226,0.14384
3739.30073,0.14139
3741.22920,0.14765
3743.15767,0.15769
3745.08614,0.15878
3747.01460,0.14738
3748.94307,0.13961
3750.87154,0.14142
3752.80001,0.14512
3754.72848,0.13972
3756.65695,0.13131
3758.58542,0.12644
3760.51389,0.12366
3762.44235,0.12318
3764.37082,0.12503
3766.29929,0.12437
3768.22776,0.12073
3770.15623,0.11722
3772.08470,0.11835
3774.01317,0.12382
3775.94163,0.12617
3777.87010,0.12586
3779.79857,0.13036
3781.72704,0.13544
3783.65551,0.13604
3785.58398,0.13339
3787.51245,0.12988
3789.44092,0.12852
3791.36938,0.12871
3793.29785,0.12858
3795.22632,0.12730
3797.15479,0.12602
3799.08326,0.12778
3801.01173,0.13069
3802.94020,0.12781
3804.86866,0.12241
3806.79713,0.12065
3808.72560,0.12268
3810.65407,0.12443
3812.58254,0.12584
3814.51101,0.12849
3816.43948,0.13119
3818.36795,0.13422
3820.29641,0.13945
3822.22488,0.13717
3824.15335,0.12810
3826.08182,0.12484
3828.01029,0.12802
3829.93876,0.13150
3831.86723,0.13129
3833.79569,0.12827
3835.72416,0.12879
3837.65263,0.13100
3839.58110,0.12657
3841.50957,0.12610
3843.43804,0.13252
3845.36651,0.13239
3847.29498,0.12666
3849.22344,0.12600
3851.15191,0.13194
3853.08038,0.13443
3855.00885,0.12624
3856.93732,0.12351
3858.86579,0.12588
3860.79426,0.13012
3862.72272,0.13603
3864.65119,0.13883
3866.57966,0.13951
3868.50813,0.14423
3870.43660,0.14447
3872.36507,0.13472
3874.29354,0.12446
3876.22200,0.11711
3878.15047,0.11638
3880.07894,0.12478
3882.00741,0.13468
3883.93588,0.13727
3885.86435,0.12924
3887.79282,0.11624
3889.72129,0.10983
3891.64975,0.11249
3893.57822,0.12080
3895.50669,0.12555
3897.43516,0.12299
3899.36363,0.12105
3901.29210,0.12766
3903.22057,0.13018
3905.14903,0.12333
3907.07750,0.11797
3909.00597,0.11791
3910.93444,0.12084
3912.86291,0.12232
3914.79138,0.11980
3916.71985,0.11558
3918.64832,0.11441
3920.57678,0.11492
3922.50525,0.11515
3924.43372,0.11495
3926.36219,0.11190
3928.29066,0.10969
3930.21913,0.11033
3932.14760,0.10995
3934.07606,0.10888
3936.00453,0.10666
3937.93300,0.10170
3939.86147,0.10063
3941.78994,0.10779
3943.71841,0.11389
3945.64688,0.11302
3947.57535,0.10790
3949.50381,0.10015
3951.43228,0.09700
3953.36075,0.10205
3955.28922,0.10979
3957.21769,0.11507
3959.14616,0.11709
3961.07463,0.11659
3963.00309,0.11313
3964.93156,0.10881
3966.86003,0.10498
3968.78850,0.10243
3970.71697,0.10321
3972.64544,0.10433
3974.57391,0.10463
3976.50238,0.10653
3978.43084,0.10764
3980.35931,0.10530
3982.28778,0.10252
3984.21625,0.10538
3986.14472,0.11156
3988.07319,0.11142
3990.00166,0.10529
3991.93012,0.10038
3993.85859,0.09777
3995.78706,0.09945
3997.71553,0.10526
3999.64400,0.10688
4001.57247,0.10371
4003.50094,0.10214
4005.42941,0.10131
4007.35787,0.09905
4009.28634,0.09897
4011.21481,0.10259
4013.14328,0.10440
4015.07175,0.10088
4017.00022,0.09870
4018.92869,0.10205
4020.85715,0.10578
4022.78562,0.10605
4024.71409,0.10410
4026.64256,0.10523
4028.57103,0.10831
4030.49950,0.10799
4032.42797,0.10578
4034.35644,0.10282
4036.28490,0.10057
4038.21337,0.10085
4040.14184,0.09972
4042.07031,0.09501
4043.99878,0.09163
4045.92725,0.09199
4047.85572,0.09105
4049.78418,0.08899
4051.71265,0.09036
4053.64112,0.09208
4055.56959,0.09221
4057.49806,0.09489
4059.42653,0.09828
4061.35500,0.09942
4063.28346,0.09978
4065.21193,0.09912
4067.14040,0.09849
4069.06887,0.09839
4070.99734,0.09637
4072.92581,0.09303
4074.85428,0.09217
4076.78275,0.09332
4078.71121,0.09331
4080.63968,0.09353
4082.56815,0.09439
4084.49662,0.09385
4086.42509,0.09327
4088.35356,0.09640
4090.28203,0.10075
4092.21049,0.09944
4094.13896,0.09502
4096.06743,0.09452
4097.99590,0.09853
4099.92437,0.10057
4101.85284,0.09801
4103.78131,0.09755
4105.70978,0.09991
4107.63824,0.09861
4109.56671,0.09215
4111.49518,0.08620
4113.42365,0.08646
4115.35212,0.09174
4117.28059,0.09549
4119.20906,0.09106
4121.13752,0.08146
4123.06599,0.07731
4124.99446,0.08235
4126.92293,0.08590
4128.85140,0.07896
4130.77987,0.07092
4132.70834,0.06947
4134.63681,0.07136
4136.56527,0.07548
4138.49374,0.08269
4140.42221,0.08816
4142.35068,0.08611
4144.27915,0.08306
4146.20762,0.08502
4148.13609,0.08724
4150.06455,0.08538
4151.99302,0.07730
4153.92149,0.06935
4155.84996,0.07019
4157.77843,0.07401
4159.70690,0.07459
4161.63537,0.07449
4163.56384,0.07484
4165.49230,0.07658
4167.42077,0.08328
4169.34924,0.09167
4171.27771,0.09245
4173.20618,0.08748
4175.13465,0.08406
4177.06312,0.08274
4178.99158,0.08013
4180.92005,0.07337
4182.84852,0.06930
4184.77699,0.07440
4186.70546,0.08179
4188.63393,0.08434
4190.56240,0.08494
4192.49087,0.08758
4194.41933,0.08892
4196.34780,0.08657
4198.27627,0.08276
4200.20474,0.07624
4202.13321,0.06907
4204.06168,0.06939
4205.99015,0.07242
4207.91861,0.07135
4209.84708,0.07187
4211.77555,0.07273
4213.70402,0.06863
4215.63249,0.06468
4217.56096,0.06828
4219.48943,0.07611
4221.41789,0.07899
4223.34636,0.07717
4225.27483,0.07660
4227.20330,0.07644
4229.13177,0.07255
4231.06024,0.06684
4232.98871,0.06482
4234.91718,0.06663
4236.84564,0.06544
4238.77411,0.06386
4240.70258,0.06975
4242.63105,0.07398
4244.55952,0.06989
4246.48799,0.06332
4248.41646,0.05975
4250.34492,0.06540
4252.27339,0.07297
4254.20186,0.06824
4256.13033,0.06029
4258.05880,0.06239
4259.98727,0.06471
4261.91574,0.05998
4263.84421,0.05683
4265.77267,0.06066
4267.70114,0.06937
4269.62961,0.07433
4271.55808,0.06965
4273.48655,0.06160
4275.41502,0.05558
4277.34349,0.05354
4279.27195,0.05840
4281.20042,0.06454
4283.12889,0.06731
4285.05736,0.07153
4286.98583,0.07420
4288.91430,0.07269
4290.84277,0.07397
4292.77124,0.07609
4294.69970,0.07353
4296.62817,0.06989
4298.55664,0.06692
4300.48511,0.06029
4302.41358,0.05047
4304.34205,0.04523
4306.27052,0.04990
4308.19898,0.05983
4310.12745,0.06603
4312.05592,0.06731
4313.98439,0.06661
4315.91286,0.06400
4317.84133,0.06211
4319.76980,0.06302
4321.69827,0.05961
4323.62673,0.05044
4325.55520,0.04545
4327.48367,0.04570
4329.41214,0.04919
4331.34061,0.05460
4333.26908,0.05224
4335.19755,0.04450
4337.12601,0.04458
4339.05448,0.05255
4340.98295,0.06021
4342.91142,0.06142
4344.83989,0.05697
4346.76836,0.05357
4348.69683,0.05008
4350.62530,0.04479
4352.55376,0.04519
4354.48223,0.04748
4356.41070,0.04201
4358.33917,0.03759
4360.26764,0.04013
4362.19611,0.04347
4364.12458,0.05244
4366.05304,0.06331
4367.98151,0.06016
4369.90998,0.05069
4371.83845,0.04759
4373.76692,0.04741
4375.69539,0.04819
4377.62386,0.04841
4379.55232,0.04428
4381.48079,0.03976
4383.40926,0.03921
4385.33773,0.04058
4387.26620,0.04285
4389.19467,0.04175
4391.12314,0.03500
4393.05161,0.03368
4394.98007,0.04049
4396.90854,0.04497
4398.83701,0.04542
4400.76548,0.04340
4402.69395,0.03981
4404.62242,0.03693
4406.55089,0.03167
4408.47935,0.02683
4410.40782,0.03033
4412.33629,0.04068
4414.26476,0.04829
4416.19323,0.04400
4418.12170,0.03204
4420.05017,0.02668
4421.97864,0.03027
4423.90710,0.03496
4425.83557,0.03951
4427.76404,0.03998
4429.69251,0.03184
4431.62098,0.02384
4433.54945,0.02022
4435.47792,0.01541
4437.40638,0.01186
4439.33485,0.01824
4441.26332,0.02988
4443.19179,0.03404
4445.12026,0.03311
4447.04873,0.03436
4448.97720,0.03351
4450.90567,0.02747
4452.83413,0.02258
4454.76260,0.02429
4456.69107,0.03123
4458.61954,0.03691
4460.54801,0.03939
4462.47648,0.04225
4464.40495,0.04298
4466.33341,0.04187
4468.26188,0.04137
4470.19035,0.03859
4472.11882,0.03271
4474.04729,0.02674
4475.97576,0.02736
4477.90423,0.03505
4479.83270,0.03918
4481.76116,0.03510
4483.68963,0.03121
4485.61810,0.03362
4487.54657,0.03594
4489.47504,0.03254
4491.40351,0.02757
4493.33198,0.02305
4495.26044,0.01799
4497.18891,0.01464
4499.11738,0.01170
4501.04585,0.01012
4502.97432,0.01394
4504.90279,0.01873
4506.83126,0.01915
4508.75973,0.01738
4510.68819,0.01449
4512.61666,0.00769
4514.54513,-0.00181
4516.47360,-0.00833
4518.40207,-0.00527
4520.33054,0.00583
4522.25901,0.01446
4524.18747,0.01796
4526.11594,0.01918
4528.04441,0.01568
4529.97288,0.01077
4531.90135,0.01432
4533.82982,0.02195
4535.75829,0.02351
4537.68676,0.01920
4539.61522,0.01391
4541.54369,0.01432
4543.47216,0.02005
4545.40063,0.02470
4547.32910,0.02718
4549.25757,0.02667
4551.18604,0.02512
4553.11450,0.02605
4555.04297,0.02335
4556.97144,0.01819
4558.89991,0.01629
4560.82838,0.01111
4562.75685,0.00178
4564.68532,-0.00063
4566.61378,0.00966
4568.54225,0.02261
4570.47072,0.03027
4572.39919,0.03188
4574.32766,0.02360
4576.25613,0.01088
4578.18460,0.00227
4580.11307,0.00115
4582.04153,0.01003
4583.97000,0.02158
4585.89847,0.02419
4587.82694,0.01688
4589.75541,0.00845
4591.68388,0.01074
4593.61235,0.02266
4595.54081,0.02391
4597.46928,0.00835
4599.39775,-0.00578
4601.32622,-0.00836
4603.25469,-0.00568
4605.18316,-0.00168
4607.11163,0.00433
4609.04010,0.01155
4610.96856,0.02095
4612.89703,0.02679
4614.82550,0.02245
4616.75397,0.01276
4618.68244,0.00238
4620.61091,-0.00541
4622.53938,-0.00180
4624.46784,0.01467
4626.39631,0.02871
4628.32478,0.03150
4630.25325,0.02786
4632.18172,0.01793
4634.11019,0.00617
4636.03866,-0.00250
4637.96713,-0.00885
4639.89559,-0.00605
4641.82406,0.00349
4643.75253,0.00528
4645.68100,0.00194
4647.60947,0.00396
4649.53794,0.00782
4651.46641,0.00875
4653.39487,0.00887
4655.32334,0.00835
4657.25181,0.00973
4659.18028,0.01328
4661.10875,0.01334
4663.03722,0.01201
4664.96569,0.01205
4666.89416,0.01066
4668.82262,0.00748
4670.75109,0.00156
4672.67956,-0.00522
4674.60803,-0.00437
4676.53650,0.00216
4678.46497,0.00687
4680.39344,0.01140
4682.32190,0.01585
4684.25037,0.01904
4686.17884,0.01963
4688.10731,0.01670
4690.03578,0.01616
4691.96425,0.01943
4693.89272,0.01726
4695.82119,0.00439
4697.74965,-0.00542
4699.67812,-0.00018
4701.60659,0.00720
4703.53506,0.00474
4705.46353,0.00252
4707.39200,0.00939
4709.32047,0.01522
4711.24893,0.00901
4713.17740,-0.00244
4715.10587,-0.00267
4717.03434,0.00576
4718.96281,0.00665
4720.89128,0.00556
4722.81975,0.00983
4724.74821,0.00856
4726.67668,0.00029
4728.60515,-0.00254
4730.53362,0.00453
4732.46209,0.00959
4734.39056,0.00805
4736.31903,0.00676
4738.24750,0.00418
4740.17596,-0.00074
4742.10443,-0.00198
4744.03290,0.01036
4745.96137,0.02709
4747.88984,0.02481
4749.81831,0.01218
4751.74678,0.00809
4753.67524,0.01336
4755.60371,0.02051
4757.53218,0.01725
4759.46065,0.00555
4761.38912,-0.00282
4763.31759,-0.00029
4765.24606,0.01087
4767.17453,0.02267
4769.10299,0.03158
4771.03146,0.02863
4772.95993,0.01258
4774.88840,-0.00386
4776.81687,-0.00990
4778.74534,0.00026
4780.67381,0.01046
4782.60227,0.00423
4784.53074,-0.00371
4786.45921,-0.00196
4788.38768,0.00566
4790.31615,0.01512
4792.24462,0.01952
4794.17309,0.01890
4796.10156,0.01872
4798.03002,0.01666
4799.95849,0.01415
4801.88696,0.01398
4803.81543,0.01355
4805.74390,0.01671
4807.67237,0.01938
4809.60084,0.01154
4811.52930,0.00374
4813.45777,0.00493
4815.38624,0.00852
4817.31471,0.01029
4819.24318,0.00905
4821.17165,0.00419
4823.10012,-0.00225
4825.02859,-0.00487
4826.95705,-0.00057
4828.88552,0.00226
4830.81399,-0.00131
4832.74246,-0.00421
4834.67093,0.00024
4836.59940,0.00652
4838.52787,0.00212
4840.45633,-0.00276
4842.38480,0.00596
4844.31327,0.01209
4846.24174,0.00723
4848.17021,0.00199
4850.09868,-0.00205
4852.02715,-0.00524
4853.95562,-0.00757
4855.88408,-0.00589
4857.81255,0.00947
4859.74102,0.02834
4861.66949,0.02758
4863.59796,0.01095
4865.52643,-0.00078
4867.45490,-0.00204
4869.38336,-0.00133
4871.31183,-0.00209
4873.24030,0.00078
4875.16877,0.00942
4877.09724,0.01801
4879.02571,0.01941
4880.95418,0.01774
4882.88265,0.02174
4884.81111,0.02627
4886.73958,0.02695
4888.66805,0.02908
4890.59652,0.02865
4892.52499,0.01830
4894.45346,0.00564
4896.38193,0.00107
4898.31039,-0.00266
4900.23886,-0.01029
4902.16733,-0.00854
4904.09580,-0.00373
4906.02427,-0.00900
4907.95274,-0.01071
4909.88121,-0.00301
4911.80967,0.00383
4913.73814,0.00854
4915.66661,0.01178
4917.59508,0.00566
4919.52355,-0.00438
4921.45202,0.00103
4923.38049,0.02092
4925.30896,0.03439
4927.23742,0.02695
4929.16589,0.01081
4931.09436,0.00530
4933.02283,0.00932
4934.95130,0.01266
4936.87977,0.01410
4938.80824,0.02081
4940.73670,0.02767
4942.66517,0.01928
4944.59364,-0.00233
4946.52211,-0.01259
4948.45058,0.00380
4950.37905,0.02654
4952.30752,0.03790
4954.23599,0.04015
4956.16445,0.03029
4958.09292,0.01594
4960.02139,0.01263
4961.94986,0.01664
4963.87833,0.01802
4965.80680,0.01672
4967.73527,0.01582
4969.66373,0.01709
4971.59220,0.01912
4973.52067,0.02040
4975.44914,0.02447
4977.37761,0.02946
4979.30608,0.02975
4981.23455,0.02818
4983.16302,0.02559
4985.09148,0.02326
4987.01995,0.02906
4988.94842,0.03721
4990.87689,0.03176
4992.80536,0.01595
4994.73383,0.00666
4996.66230,0.00604
4998.59076,0.00600
5000.51923,0.01090
5002.44770,0.02617
5004.37617,0.03420
5006.30464,0.02254
5008.23311,0.00912
5010.16158,0.00739
5012.09005,0.01331
5014.01851,0.01685
5015.94698,0.01350
5017.87545,0.00743
5019.80392,-0.00071
5021.73239,-0.00297
5023.66086,0.00915
5025.58933,0.02660
5027.51779,0.03512
5029.44626,0.03455
5031.37473,0.03524
5033.30320,0.03396
5035.23167,0.02758
5037.16014,0.02169
5039.08861,0.01448
5041.01708,0.00951
5042.94554,0.01627
5044.87401,0.02535
5046.80248,0.01918
5048.73095,0.01196
5050.65942,0.02636
5052.58789,0.04541
5054.51636,0.04384
5056.44482,0.03030
5058.37329,0.02048
5060.30176,0.01783
5062.23023,0.02693
5064.15870,0.04168
5066.08717,0.04297
5068.01564,0.02500
5069.94410,0.01032
5071.87257,0.01316
5073.80104,0.01715
5075.72951,0.01751
5077.65798,0.02066
5079.58645,0.01795
5081.51492,0.00626
5083.44339,0.00053
5085.37185,0.01310
5087.30032,0.02990
5089.22879,0.02430
5091.15726,0.00506
5093.08573,0.00179
5095.01420,0.01456
5096.94267,0.02764
5098.87113,0.02797
5100.79960,0.01519
5102.72807,0.00802
5104.65654,0.01505
5106.58501,0.02624
5108.51348,0.03006
5110.44195,0.02912
5112.37042,0.04048
5114.29888,0.06035
5116.22735,0.05840
5118.15582,0.03082
5120.08429,0.00514
5122.01276,-0.00435
5123.94123,0.00333
5125.86970,0.02512
5127.79816,0.04412
5129.72663,0.04420
5131.65510,0.02405
5133.58357,0.00554
5135.51204,0.01344
5137.44051,0.02343
5139.36898,0.00415
5141.29745,-0.02366
5143.22591,-0.03014
5145.15438,-0.01543
5147.08285,0.00558
5149.01132,0.02239
5150.93979,0.03440
5152.86826,0.04235
5154.79673,0.03437
5156.72519,0.00815
5158.65366,-0.00528
5160.58213,0.00787
5162.51060,0.02559
5164.43907,0.03690
5166.36754,0.04723
5168.29601,0.05579
5170.22448,0.06020
5172.15294,0.06089
5174.08141,0.05436
5176.00988,0.04367
5177.93835,0.04229
5179.86682,0.04263
5181.79529,0.03367
5183.72376,0.02336
5185.65222,0.01131
5187.58069,0.00982
5189.50916,0.02885
5191.43763,0.04702
5193.36610,0.05621
5195.29457,0.06007
5197.22304,0.05070
5199.15151,0.03628
5201.07997,0.03489
5203.00844,0.04780
5204.93691,0.06775
5206.86538,0.07591
5208.79385,0.06292
5210.72232,0.05289
5212.65079,0.05853
5214.57925,0.06073
5216.50772,0.04553
5218.43619,0.02715
5220.36466,0.01858
5222.29313,0.02127
5224.22160,0.02490
5226.15007,0.02092
5228.07854,0.02757
5230.00700,0.04751
5231.93547,0.06157
5233.86394,0.07034
5235.79241,0.08547
5237.72088,0.09461
5239.64935,0.08582
5241.57782,0.07151
5243.50628,0.06044
5245.43475,0.05801
5247.36322,0.05908
5249.29169,0.04525
5251.22016,0.02997
5253.14863,0.04532
5255.07710,0.08002
5257.00556,0.08058
5258.93403,0.04653
5260.86250,0.03201
5262.79097,0.04276
5264.71944,0.03705
5266.64791,0.01752
5268.57638,0.01678
5270.50485,0.03390
5272.43331,0.04198
5274.36178,0.03961
5276.29025,0.04276
5278.21872,0.04539
5280.14719,0.03396
5282.07566,0.01986
5284.00413,0.03089
5285.93259,0.05584
5287.86106,0.05953
5289.78953,0.04452
5291.71800,0.02371
5293.64647,0.01364
5295.57494,0.02824
5297.50341,0.04467
5299.43188,0.04941
5301.36034,0.06647
5303.28881,0.09716
5305.21728,0.11252
5307.14575,0.09299
5309.07422,0.05235
5311.00269,0.03340
5312.93116,0.04688
5314.85962,0.06957
5316.78809,0.08162
5318.71656,0.07288
5320.64503,0.05605
5322.57350,0.05331
5324.50197,0.05494
5326.43044,0.04187
5328.35891,0.03293
5330.28737,0.05303
5332.21584,0.07508
5334.14431,0.06484
5336.07278,0.04828
5338.00125,0.05362
5339.92972,0.06478
5341.85819,0.06734
5343.78665,0.06303
5345.71512,0.06146
5347.64359,0.06976
5349.57206,0.08049
5351.50053,0.07945
5353.42900,0.04873
5355.35747,0.01406
5357.28594,0.00801
5359.21440,0.01712
5361.14287,0.03386
5363.07134,0.05187
5364.99981,0.06896
5366.92828,0.07480
5368.85675,0.04784
5370.78522,0.01684
5372.71368,0.01990
5374.64215,0.04438
5376.57062,0.05427
5378.49909,0.05303
5380.42756,0.06100
5382.35603,0.06533
5384.28450,0.07208
5386.21297,0.08717
5388.14143,0.08064
5390.06990,0.06212
5391.99837,0.05637
5393.92684,0.05299
5395.85531,0.03827
5397.78378,0.02996
5399.71225,0.04540
5401.64071,0.07228
5403.56918,0.07392
5405.49765,0.04396
5407.42612,0.02294
5409.35459,0.03632
5411.28306,0.06746
5413.21153,0.08864
5415.13999,0.09863
5417.06846,0.09695
5418.99693,0.08490
5420.92540,0.08160
5422.85387,0.08222
5424.78234,0.07409
5426.71081,0.06550
5428.63928,0.05620
5430.56774,0.04596
5432.49621,0.06580
5434.42468,0.11185
5436.35315,0.12097
5438.28162,0.10251
5440.21009,0.10025
5442.13856,0.11038
5444.06702,0.11817
5445.99549,0.11051
5447.92396,0.09558
5449.85243,0.08771
5451.78090,0.07349
5453.70937,0.05262
5455.63784,0.04657
5457.56631,0.05996
5459.49477,0.07249
5461.42324,0.07744
5463.35171,0.07597
5465.28018,0.07150
5467.20865,0.07105
5469.13712,0.07050
5471.06559,0.06971
5472.99405,0.07750
5474.92252,0.08321
5476.85099,0.07362
5478.77946,0.06880
5480.70793,0.07417
5482.63640,0.06798
5484.56487,0.04616
5486.49334,0.02957
5488.42180,0.03342
5490.35027,0.05425
5492.27874,0.07348
5494.20721,0.06789
5496.13568,0.04780
5498.06415,0.03931
5499.99262,0.03604
5501.92108,0.03107
5503.84955,0.04555
5505.77802,0.06367
5507.70649,0.05658
5509.63496,0.05250
5511.56343,0.06469
5513.49190,0.06988
5515.42037,0.07044
5517.34883,0.06955
5519.27730,0.05910
5521.20577,0.05936
5523.13424,0.07854
5525.06271,0.09337
5526.99118,0.10039
5528.91965,0.09800
5530.84811,0.07629
5532.77658,0.06679
5534.70505,0.08861
5536.63352,0.09433
5538.56199,0.06388
5540.49046,0.03803
5542.41893,0.04286
5544.34740,0.06885
5546.27586,0.09228
5548.20433,0.10849
5550.13280,0.11974
5552.06127,0.12105
5553.98974,0.10345
5555.91821,0.05635
5557.84668,0.01983
5559.77514,0.03676
5561.70361,0.08254
5563.63208,0.12823
5565.56055,0.15129
5567.48902,0.13442
5569.41749,0.10277
5571.34596,0.08491
5573.27443,0.07482
5575.20289,0.05977
5577.13136,0.04864
5579.05983,0.05937
5580.98830,0.08703
5582.91677,0.09102
5584.84524,0.06771
5586.77371,0.07003
5588.70217,0.09297
5590.63064,0.08665
5592.55911,0.06901
5594.48758,0.07098
5596.41605,0.07771
5598.34452,0.07456
5600.27299,0.06433
5602.20145,0.05729
5604.12992,0.07195
5606.05839,0.10393
5607.98686,0.12172
5609.91533,0.11353
5611.84380,0.10163
5613.77227,0.10323
5615.70074,0.10496
5617.62920,0.10050
5619.55767,0.08710
5621.48614,0.07327
5623.41461,0.09342
5625.34308,0.12866
5627.27155,0.13141
5629.20002,0.10626
5631.12848,0.07742
5633.05695,0.06455
5634.98542,0.06336
5636.91389,0.05574
5638.84236,0.05729
5640.77083,0.06506
5642.69930,0.05637
5644.62777,0.04327
5646.55623,0.03877
5648.48470,0.05070
5650.41317,0.08171
5652.34164,0.10206
5654.27011,0.09582
5656.19858,0.09053
5658.12705,0.09938
5660.05551,0.09368
5661.98398,0.06229
5663.91245,0.04453
5665.84092,0.06522
5667.76939,0.08968
5669.69786,0.08799
5671.62633,0.08010
5673.55480,0.08347
5675.48326,0.08604
5677.41173,0.07398
5679.34020,0.05326
5681.26867,0.04495
5683.19714,0.05693
5685.12561,0.07849
5687.05408,0.10077
5688.98254,0.10557
5690.91101,0.08260
5692.83948,0.05544
5694.76795,0.03110
5696.69642,0.01807
5698.62489,0.04148
5700.55336,0.07878
5702.48183,0.09420
5704.41029,0.08425
5706.33876,0.06395
5708.26723,0.05034
5710.19570,0.04436
5712.12417,0.03819
5714.05264,0.04303
5715.98111,0.08816
5717.90957,0.14306
5719.83804,0.12602
5721.76651,0.04375
5723.69498,-0.02599
5725.62345,-0.03675
5727.55192,0.00789
5729.48039,0.05932
5731.40886,0.08627
5733.33732,0.09881
5735.26579,0.10505
5737.19426,0.10716
5739.12273,0.09884
5741.05120,0.08994
5742.97967,0.09808
5744.90814,0.11691
5746.83660,0.13255
5748.76507,0.13061
5750.69354,0.10921
5752.62201,0.08716
5754.55048,0.07023
5756.47895,0.05647
5758.40742,0.05496
5760.33588,0.06059
5762.26435,0.06389
5764.19282,0.06354
5766.12129,0.07797
5768.04976,0.12758
5769.97823,0.15685
5771.90670,0.12187
5773.83517,0.07850
5775.76363,0.06487
5777.69210,0.07988
5779.62057,0.11385
5781.54904,0.13417
5783.47751,0.12996
5785.40598,0.10971
5787.33445,0.07683
5789.26291,0.05357
5791.19138,0.06159
5793.11985,0.08395
5795.04832,0.08850
5796.97679,0.07032
5798.90526,0.05856
5800.83373,0.07153
5802.76220,0.08301
5804.69066,0.06696
5806.61913,0.04147
5808.54760,0.03144
5810.47607,0.04053
5812.40454,0.05242
5814.33301,0.04999
5816.26148,0.03954
5818.18994,0.04394
5820.11841,0.07303
5822.04688,0.07604
5823.97535,0.04236
5825.90382,0.04872
5827.83229,0.09796
5829.76076,0.11799
5831.68923,0.09231
5833.61769,0.05848
5835.54616,0.04752
5837.47463,0.07015
5839.40310,0.10780
5841.33157,0.13156
5843.26004,0.12823
5845.18851,0.11679
5847.11697,0.12103
5849.04544,0.11920
5850.97391,0.11831
5852.90238,0.13628
5854.83085,0.12194
5856.75932,0.07854
5858.68779,0.07994
5860.61626,0.13954
5862.54472,0.19604
5864.47319,0.19800
5866.40166,0.16204
5868.33013,0.12546
5870.25860,0.10611
5872.18707,0.11624
5874.11554,0.13525
5876.04400,0.12720
5877.97247,0.11418
5879.90094,0.13776
5881.82941,0.16590
5883.75788,0.15933
5885.68635,0.13357
5887.61482,0.09586
5889.54329,0.06271
5891.47175,0.05622
5893.40022,0.07311
5895.32869,0.11194
5897.25716,0.13103
5899.18563,0.10921
5901.11410,0.10795
5903.04257,0.13368
5904.97103,0.12086
5906.89950,0.08521
5908.82797,0.08296
5910.75644,0.08389
5912.68491,0.05453
5914.61338,0.02105
5916.54185,0.00889
5918.47032,0.03441
5920.39878,0.07177
5922.32725,0.06612
5924.25572,0.02940
5926.18419,0.02474
5928.11266,0.05283
5930.04113,0.07182
5931.96960,0.08848
5933.89806,0.11636
5935.82653,0.14746
5937.75500,0.16165
5939.68347,0.13518
5941.61194,0.09070
5943.54041,0.08321
5945.46888,0.11901
5947.39734,0.14998
5949.32581,0.13616
5951.25428,0.10433
5953.18275,0.09623
5955.11122,0.09234
5957.03969,0.07776
5958.96816,0.06851
5960.89663,0.06298
5962.82509,0.05346
5964.75356,0.04926
5966.68203,0.05536
5968.61050,0.06694
5970.53897,0.09108
5972.46744,0.12825
5974.39591,0.13950
5976.32437,0.10923
5978.25284,0.07544
5980.18131,0.07361
5982.10978,0.11052
5984.03825,0.15038
5985.96672,0.16007
5987.89519,0.15896
5989.82366,0.15161
5991.75212,0.13146
5993.68059,0.12499
5995.60906,0.13183
5997.53753,0.12831
5999.46600,0.12214
6001.39447,0.13395
6003.32294,0.15632
6005.25140,0.15829
6007.17987,0.13764
6009.10834,0.10130
6011.03681,0.04826
6012.96528,-0.00222
6014.89375,-0.01978
6016.82222,0.01204
6018.75069,0.06694
6020.67915,0.09743
6022.60762,0.09615
6024.53609,0.10699
6026.46456,0.14124
6028.39303,0.13092
6030.32150,0.06885
6032.24997,0.05209
6034.17843,0.10722
6036.10690,0.14510
6038.03537,0.11909
6039.96384,0.08220
6041.89231,0.06529
6043.82078,0.06320
6045.74925,0.06016
6047.67772,0.06134
6049.60618,0.07114
6051.53465,0.05968
6053.46312,0.04124
6055.39159,0.02283
6057.32006,-0.01904
6059.24853,-0.02409
6061.17700,0.04082
6063.10546,0.09809
6065.03393,0.11717
6066.96240,0.10439
6068.89087,0.04995
6070.81934,0.02050
6072.74781,0.04624
6074.67628,0.07681
6076.60475,0.10245
6078.53321,0.10807
6080.46168,0.07550
6082.39015,0.04376
6084.31862,0.04571
6086.24709,0.06645
6088.17556,0.06969
6090.10403,0.05885
6092.03249,0.07060
6093.96096,0.11723
6095.88943,0.17513
6097.81790,0.19525
6099.74637,0.17138
6101.67484,0.15830
6103.60331,0.13840
6105.53177,0.07146
6107.46024,0.00914
6109.38871,0.00850
6111.31718,0.05102
6113.24565,0.07976
6115.17412,0.08956
6117.10259,0.10909
6119.03106,0.14042
6120.95952,0.15475
6122.88799,0.11077
6124.81646,0.04288
6126.74493,0.04454
6128.67340,0.09972
6130.60187,0.09811
6132.53034,0.05532
6134.45880,0.06486
6136.38727,0.11445
6138.31574,0.15703
6140.24421,0.19694
6142.17268,0.21328
6144.10115,0.19010
6146.02962,0.15327
6147.95809,0.12571
6149.88655,0.14741
6151.81502,0.19496
6153.74349,0.19190
6155.67196,0.17020
6157.60043,0.17245
6159.52890,0.16759
6161.45737,0.13581
6163.38583,0.09830
6165.31430,0.07120
6167.24277,0.05671
6169.17124,0.09002
6171.09971,0.16219
6173.02818,0.16840
6174.95665,0.09620
6176.88512,0.04551
6178.81358,0.04322
6180.74205,0.05903
6182.67052,0.09248
6184.59899,0.11645
6186.52746,0.09486
6188.45593,0.04690
6190.38440,0.02410
6192.31286,0.03342
6194.24133,0.02346
6196.16980,0.00070
6198.09827,0.04057
6200.02674,0.12039
6201.95521,0.15403
6203.88368,0.11342
6205.81215,0.05438
6207.74061,0.04817
6209.66908,0.07963
6211.59755,0.07474
6213.52602,0.04237
6215.45449,0.05234
6217.38296,0.07916
6219.31143,0.06106
6221.23989,0.01066
6223.16836,-0.02886
6225.09683,-0.03276
6227.02530,-0.00974
6228.95377,0.02974
6230.88224,0.08211
6232.81071,0.13702
6234.73918,0.15747
6236.66764,0.12938
6238.59611,0.09070
6240.52458,0.06351
6242.45305,0.05717
6244.38152,0.08766
6246.30999,0.12579
6248.23846,0.12843
6250.16692,0.11041
6252.09539,0.07755
6254.02386,0.01861
6255.95233,-0.01184
6257.88080,0.01576
6259.80927,0.05865
6261.73774,0.08078
6263.66621,0.08014
6265.59467,0.08747
6267.52314,0.10311
6269.45161,0.09112
6271.38008,0.04499
6273.30855,-0.01061
6275.23702,-0.02184
6277.16549,0.01901
6279.09395,0.06701
6281.02242,0.10567
6282.95089,0.11972
6284.87936,0.10112
6286.80783,0.08183
6288.73630,0.07025
6290.66477,0.05642
6292.59323,0.06299
6294.52170,0.07375
6296.45017,0.04615
6298.37864,0.01400
6300.30711,0.01523
6302.23558,0.03051
6304.16405,0.03796
6306.09252,0.04071
6308.02098,0.05854
6309.94945,0.06165
6311.87792,0.00643
6313.80639,-0.02350
6315.73486,0.01871
6317.66333,0.05084
6319.59180,0.06781
6321.52026,0.09305
6323.44873,0.07021
6325.37720,0.00089
6327.30567,-0.05253
6329.23414,-0.04416
6331.16261,0.02097
6333.09108,0.08396
6335.01955,0.09847
6336.94801,0.07423
6338.87648,0.03697
6340.80495,-0.01249
6342.73342,-0.02869
6344.66189,0.02902
6346.59036,0.09088
6348.51883,0.08230
6350.44729,0.04482
6352.37576,0.04940
6354.30423,0.05921
6356.23270,0.04077
6358.16117,0.03869
6360.08964,0.05904
6362.01811,0.08377
6363.94658,0.11606
6365.87504,0.14621
6367.80351,0.14265
6369.73198,0.08493
6371.66045,0.02754
6373.58892,0.04195
6375.51739,0.08520
6377.44586,0.09770
6379.37432,0.11259
6381.30279,0.13909
6383.23126,0.13465
6385.15973,0.10249
6387.08820,0.09291
6389.01667,0.13434
6390.94514,0.19547
6392.87361,0.18989
6394.80207,0.11184
6396.73054,0.06545
6398.65901,0.07620
6400.58748,0.09488
6402.51595,0.06563
6404.44442,0.00293
6406.37289,-0.00280
6408.30135,0.06355
6410.22982,0.07061
6412.15829,-0.05422
6414.08676,-0.17945
6416.01523,-0.18691
6417.94370,-0.08510
6419.87217,0.03367
6421.80064,0.08713
6423.72910,0.09851
6425.65757,0.09847
6427.58604,0.09670
6429.51451,0.09493
6431.44298,0.07324
6433.37145,0.04596
6435.29992,0.04603
6437.22838,0.07679
6439.15685,0.11041
6441.08532,0.12169
6443.01379,0.12616
6444.94226,0.10321
6446.87073,0.02412
6448.79920,-0.02413
6450.72766,0.02063
6452.65613,0.07690
6454.58460,0.08244
6456.51307,0.04546
6458.44154,0.01538
6460.37001,0.03821
6462.29848,0.05994
6464.22695,0.00539
6466.15541,-0.08639
6468.08388,-0.09502
6470.01235,0.04506
6471.94082,0.19128
6473.86929,0.18426
6475.79776,0.07510
6477.72623,-0.01513
6479.65469,-0.00405
6481.58316,0.06180
6483.51163,0.07246
6485.44010,0.04257
6487.36857,0.02462
6489.29704,0.03032
6491.22551,0.05140
6493.15398,0.06791
6495.08244,0.09497
6497.01091,0.12157
6498.93938,0.10908
6500.86785,0.10411
6502.79632,0.12948
6504.72479,0.12450
6506.65326,0.10687
6508.58172,0.13277
6510.51019,0.16342
6512.43866,0.11843
6514.36713,0.04722
6516.29560,0.02934
6518.22407,0.05678
6520.15254,0.09716
6522.08101,0.12333
6524.00947,0.10380
6525.93794,0.04443
6527.86641,-0.00319
6529.79488,-0.00033
6531.72335,0.06100
6533.65182,0.11689
6535.58029,0.10608
6537.50875,0.07036
6539.43722,0.05698
6541.36569,0.04199
6543.29416,0.01631
6545.22263,0.00766
6547.15110,0.00259
6549.07957,0.01106
6551.00804,0.06190
6552.93650,0.10874
6554.86497,0.12718
6556.79344,0.14657
6558.72191,0.15063
6560.65038,0.13016
6562.57885,0.10789
6564.50732,0.04566
6566.43578,0.01006
6568.36425,0.08843
6570.29272,0.12884
6572.22119,0.07849
6574.14966,0.05335
6576.07813,0.05660
6578.00660,0.07823
6579.93507,0.13444
6581.86353,0.14216
6583.79200,0.05357
6585.72047,0.00021
6587.64894,0.02899
6589.57741,0.03420
6591.50588,0.02213
6593.43435,0.09302
6595.36281,0.18626
6597.29128,0.16290
6599.21975,0.08817
6601.14822,0.09396
6603.07669,0.10816
6605.00516,0.04225
6606.93363,0.00076
6608.86210,0.05330
6610.79056,0.12446
6612.71903,0.13118
6614.64750,0.06850
6616.57597,0.04148
6618.50444,0.11715
6620.43291,0.13741
6622.36138,0.02201
6624.28984,-0.06916
6626.21831,-0.04743
6628.14678,0.03222
6630.07525,0.10608
6632.00372,0.10649
6633.93219,0.04197
6635.86066,-0.01129
6637.78912,-0.01302
6639.71759,-0.02486
6641.64606,-0.06040
6643.57453,-0.05267
6645.50300,0.02828
6647.43147,0.09867
6649.35994,0.04615
6651.28841,-0.06466
6653.21687,-0.09384
6655.14534,-0.03719
6657.07381,0.05507
6659.00228,0.16670
6660.93075,0.18104
6662.85922,0.07235
6664.78769,0.01223
6666.71615,0.02453
6668.64462,0.05118
6670.57309,0.09619
6672.50156,0.09104
6674.43003,0.04479
6676.35850,0.03264
6678.28697,0.02061
6680.21544,0.00735
6682.14390,0.00773
6684.07237,-0.01508
6686.00084,-0.07997
6687.92931,-0.13249
6689.85778,-0.10296
6691.78625,-0.02993
6693.71472,0.02943
6695.64318,0.04319
6697.57165,0.00685
6699.50012,0.00629
6701.42859,0.06795
6703.35706,0.14119
6705.28553,0.17326
6707.21400,0.10442
6709.14247,-0.00587
6711.07093,-0.03490
6712.99940,0.01308
6714.92787,0.10756
6716.85634,0.21563
6718.78481,0.22033
6720.71328,0.09428
6722.64175,-0.00906
6724.57021,-0.01212
6726.49868,0.04294
6728.42715,0.06485
6730.35562,0.00754
6732.28409,-0.05497
6734.21256,-0.09327
6736.14103,-0.07977
6738.06950,0.04990
6739.99796,0.21855
6741.92643,0.24571
6743.85490,0.13046
6745.78337,0.06670
6747.71184,0.11849
6749.64031,0.17980
6751.56878,0.14353
6753.49724,0.06007
6755.42571,0.07054
6757.35418,0.15047
6759.28265,0.19404
6761.21112,0.18508
6763.13959,0.12932
6765.06806,0.07220
6766.99653,0.07768
6768.92499,0.10462
6770.85346,0.09440
6772.78193,0.07841
6774.71040,0.07081
6776.63887,0.03410
6778.56734,0.02232
6780.49581,0.08886
6782.42427,0.12967
6784.35274,0.06900
6786.28121,0.00574
6788.20968,0.00429
6790.13815,0.02482
6792.06662,0.04809
6793.99509,0.06246
6795.92355,0.05814
6797.85202,0.05408
6799.78049,0.07288
6801.70896,0.13942
6803.63743,0.18582
6805.56590,0.10468
6807.49437,0.02420
6809.42284,0.03650
6811.35130,0.01769
6813.27977,-0.03184
6815.20824,0.04347
6817.13671,0.21168
6819.06518,0.29541
6820.99365,0.22718
6822.92212,0.06875
6824.85058,-0.04170
6826.77905,-0.05749
6828.70752,0.01225
6830.63599,0.07435
6832.56446,0.04538
6834.49293,-0.02435
6836.42140,-0.08547
6838.34987,-0.09971
6840.27833,-0.04417
6842.20680,0.05763
6844.13527,0.11959
6846.06374,0.10789
6847.99221,0.12737
6849.92068,0.19524
6851.84915,0.16133
6853.77761,0.07060
6855.70608,0.10472
6857.63455,0.21182
6859.56302,0.19353
6861.49149,0.08550
6863.41996,0.02889
6865.34843,-0.00384
6867.27690,-0.07658
6869.20536,-0.08985
6871.13383,-0.02582
6873.06230,-0.01474
6874.99077,-0.05839
6876.91924,-0.03583
6878.84771,0.03322
6880.77618,0.03014
6882.70464,-0.00924
6884.63311,-0.01308
6886.56158,-0.02936
6888.49005,-0.01354
6890.41852,0.10485
6892.34699,0.19131
6894.27546,0.15415
6896.20393,0.09312
6898.13239,0.06346
6900.06086,0.06140
6901.98933,0.09106
6903.91780,0.12208
6905.84627,0.12527
6907.77474,0.10903
6909.70321,0.08294
6911.63167,0.07185
6913.56014,0.06863
6915.48861,0.04079
6917.41708,-0.02103
6919.34555,-0.09884
6921.27402,-0.08281
6923.20249,-0.01336
6925.13096,-0.00995
6927.05942,-0.02225
6928.98789,-0.01751
6930.91636,-0.02469
6932.84483,0.00743
6934.77330,0.05236
6936.70177,0.07470
6938.63024,0.13381
6940.55870,0.19431
6942.48717,0.18770
6944.41564,0.15188
6946.34411,0.06564
6948.27258,-0.07077
6950.20105,-0.16394
6952.12952,-0.14073
6954.05799,-0.01588
6955.98645,0.12787
6957.91492,0.24861
6959.84339,0.30951
6961.77186,0.20874
6963.70033,0.03427
6965.62880,-0.03381
6967.55727,0.00706
6969.48573,0.07601
6971.41420,0.14777
6973.34267,0.18768
6975.27114,0.14987
6977.19961,0.08468
6979.12808,0.01949
6981.05655,-0.05867
6982.98501,-0.10731
6984.91348,-0.01863
6986.84195,0.19127
6988.77042,0.33240
6990.69889,0.29468
6992.62736,0.14538
6994.55583,0.02455
6996.48430,0.02525
6998.41276,0.04937
7000.34123,0.00130
7002.26970,0.01137
7004.19817,0.09900
7006.12664,0.08740
7008.05511,-0.05004
7009.98358,-0.14499
7011.91204,-0.16820
7013.84051,-0.15055
7015.76898,-0.06140
7017.69745,0.05329
7019.62592,0.07934
7021.55439,0.04585
7023.48286,0.06004
7025.41133,0.11023
7027.33979,0.12051
7029.26826,0.09566
7031.19673,0.10460
7033.12520,0.12219
7035.05367,0.14353
7036.98214,0.16317
7038.91061,0.14479
7040.83907,0.10375
7042.76754,0.06757
7044.69601,0.10756
7046.62448,0.21877
7048.55295,0.27704
7050.48142,0.24133
7052.40989,0.19109
7054.33836,0.16056
7056.26682,0.08953
7058.19529,0.03660
7060.12376,0.06588
7062.05223,0.12772
7063.98070,0.18860
7065.90917,0.10341
7067.83764,-0.08335
7069.76610,-0.09676
7071.69457,0.09164
7073.62304,0.22359
7075.55151,0.21370
7077.47998,0.10826
7079.40845,-0.01807
7081.33692,-0.02356
7083.26539,0.12933
7085.19385,0.25732
7087.12232,0.23761
7089.05079,0.12494
7090.97926,0.06637
7092.90773,0.05239
7094.83620,0.04746
7096.76467,0.05046
7098.69313,0.02866
7100.62160,0.02020
7102.55007,0.03797
7104.47854,0.02299
7106.40701,-0.03667
7108.33548,-0.07912
7110.26395,-0.06003
7112.19242,-0.05408
7114.12088,-0.10303
7116.04935,-0.07940
7117.97782,0.07086
7119.90629,0.19204
7121.83476,0.23822
7123.76323,0.22804
7125.69170,0.17301
7127.62016,0.13124
7129.54863,0.10745
7131.47710,0.04230
7133.40557,-0.06707
7135.33404,-0.07845
7137.26251,0.05790
7139.19098,0.14515
7141.11944,0.07669
7143.04791,-0.00117
7144.97638,-0.02728
7146.90485,-0.05012
7148.83332,-0.05078
7150.76179,-0.04264
7152.69026,-0.06858
7154.61873,-0.08836
7156.54719,-0.02093
7158.47566,0.07158
7160.40413,0.03873
7162.33260,-0.06725
7164.26107,-0.02455
7166.18954,0.15947
7168.11801,0.26569
7170.04647,0.21275
7171.97494,0.13262
7173.90341,0.10445
7175.83188,0.14141
7177.76035,0.20577
7179.68882,0.18736
7181.61729,0.11326
7183.54576,0.10505
7185.47422,0.09851
7187.40269,-0.00830
7189.33116,-0.13924
7191.25963,-0.18494
7193.18810,-0.09125
7195.11657,0.04664
7197.04504,0.18755
7198.97350,0.28808
7200.90197,0.25765
7202.83044,0.15489
7204.75891,0.05088
7206.68738,-0.05041
7208.61585,-0.03640
7210.54432,0.10054
7212.47279,0.21163
7214.40125,0.18768
7216.32972,0.04110
7218.25819,-0.08082
7220.18666,-0.08274
7222.11513,-0.11245
7224.04360,-0.15565
7225.97207,-0.07669
7227.90053,0.05191
7229.82900,0.06154
7231.75747,-0.05887
7233.68594,-0.15668
7235.61441,-0.15686
7237.54288,-0.11131
7239.47135,-0.08175
7241.39982,-0.06966
7243.32828,0.00422
7245.25675,0.15810
7247.18522,0.25984
7249.11369,0.26269
7251.04216,0.25329
7252.97063,0.21076
7254.89910,0.04757
7256.82756,-0.04383
7258.75603,0.05273
7260.68450,0.21652
7262.61297,0.16871
7264.54144,0.04771
7266.46991,0.05327
7268.39838,0.03860
7270.32685,-0.08978
7272.25531,-0.22778
7274.18378,-0.19965
7276.11225,-0.11001
7278.04072,-0.05311
7279.96919,0.00355
7281.89766,0.06732
7283.82613,0.15856
7285.75459,0.27031
7287.68306,0.30083
7289.61153,0.30617
7291.54000,0.35182
7293.46847,0.30054
7295.39694,0.14422
7297.32541,-0.00121
7299.25387,-0.13033
7301.18234,-0.15448
7303.11081,0.00529
7305.03928,0.15520
7306.96775,0.15781
7308.89622,0.11225
7310.82469,0.07924
7312.75316,0.05699
7314.68162,0.01622
7316.61009,-0.03570
7318.53856,0.03682
7320.46703,0.21689
7322.39550,0.34756
7324.32397,0.36052
7326.25244,0.25547
7328.18090,0.07416
7330.10937,-0.03748
7332.03784,0.01727
7333.96631,0.08353
7335.89478,0.01691
7337.82325,-0.13336
7339.75172,-0.15762
7341.68019,-0.01880
7343.60865,0.07340
7345.53712,0.21868
7347.46559,0.36442
7349.39406,0.32028
7351.32253,0.12305
7353.25100,0.00579
7355.17947,0.09874
7357.10793,0.29074
7359.03640,0.41089
7360.96487,0.25559
7362.89334,-0.12507
7364.82181,-0.25784
7366.75028,-0.03389
7368.67875,0.20252
7370.60722,0.28262
7372.53568,0.25913
7374.46415,0.09543
7376.39262,-0.09473
7378.32109,-0.06703
7380.24956,0.05125
7382.17803,0.11175
7384.10650,0.02350
7386.03496,-0.09593
7387.96343,-0.01934
7389.89190,0.08654
7391.82037,0.08298
7393.74884,0.03965
7395.67731,-0.03242
7397.60578,-0.04663
7399.53425,-0.03396
7401.46271,-0.02696
7403.39118,0.08816
7405.31965,0.17932
7407.24812,0.11297
7409.17659,0.07225
7411.10506,0.11515
7413.03353,0.14654
7414.96199,0.16661
7416.89046,0.19519
7418.81893,0.17302
7420.74740,0.10404
7422.67587,0.02457
7424.60434,0.01408
7426.53281,0.12755
7428.46128,0.21881
7430.38974,0.11219
7432.31821,-0.01685
7434.24668,0.03613
7436.17515,0.11349
7438.10362,0.07321
7440.03209,0.07733
7441.96056,0.19473
7443.88902,0.23381
7445.81749,0.11324
7447.74596,-0.03173
7449.67443,-0.09303
7451.60290,-0.09868
7453.53137,-0.09429
7455.45984,-0.07374
7457.38831,-0.04555
7459.31677,-0.05752
7461.24524,-0.08630
7463.17371,-0.01895
7465.10218,0.08818
7467.03065,0.04656
7468.95912,-0.13066
7470.88759,-0.18824
7472.81605,-0.07597
7474.74452,0.00322
7476.67299,0.01869
7478.60146,0.08261
7480.52993,0.35866
7482.45840,0.53274
7484.38687,0.31649
7486.31533,0.15636
7488.24380,0.24058
7490.17227,0.24547
7492.10074,0.09658
7494.02921,0.02444
7495.95768,0.01970
7497.88615,-0.00502
