399.19301,1.60512
401.12148,1.18053
403.04995,0.49465
404.97842,0.12048
406.90689,0.02313
408.83536,-0.00399
410.76382,-0.01798
412.69229,0.03689
414.62076,0.14239
416.54923,0.15462
418.47770,0.04003
420.40617,0.00504
422.33464,0.01827
424.26311,-0.01838
426.19157,-0.01861
428.12004,0.01964
430.04851,0.06004
431.97698,0.10081
433.90545,0.11509
435.83392,0.12806
437.76239,0.16226
439.69085,0.15603
441.61932,0.08817
443.54779,0.04034
445.47626,0.01808
447.40473,0.00432
449.33320,0.02587
451.26167,0.05932
453.19013,0.09352
455.11860,0.12845
457.04707,0.11820
458.97554,0.05767
460.90401,0.07018
462.83248,0.18030
464.76095,0.26864
466.68942,0.24043
468.61788,0.11636
470.54635,-0.01579
472.47482,-0.09956
474.40329,-0.12288
476.33176,-0.06512
478.26023,0.01820
480.18870,0.08361
482.11716,0.11905
484.04563,0.12384
485.97410,0.10789
487.90257,0.05694
489.83104,-0.00242
491.75951,0.01308
493.68798,0.06269
495.61645,0.05349
497.54491,0.02825
499.47338,0.02873
501.40185,0.01791
503.33032,0.02908
505.25879,0.10930
507.18726,0.18197
509.11573,0.15678
511.04419,0.09865
512.97266,0.10151
514.90113,0.14586
516.82960,0.15607
518.75807,0.12363
520.68654,0.08866
522.61501,0.06142
524.54348,0.05320
526.47194,0.08254
528.40041,0.11213
530.32888,0.11925
532.25735,0.13415
534.18582,0.15658
536.11429,0.16338
538.04276,0.14791
539.97122,0.11577
541.89969,0.09921
543.82816,0.10914
545.75663,0.09843
547.68510,0.06477
549.61357,0.07067
551.54204,0.17807
553.47051,0.29593
555.39897,0.25124
557.32744,0.11906
559.25591,0.07213
561.18438,0.09615
563.11285,0.12764
565.04132,0.12858
566.96979,0.09731
568.89825,0.08899
570.82672,0.13875
572.75519,0.19237
574.68366,0.18868
576.61213,0.15488
578.54060,0.12812
580.46907,0.11529
582.39754,0.12228
584.32600,0.12167
586.25447,0.10782
588.18294,0.12186
590.11141,0.15541
592.03988,0.17069
593.96835,0.16069
595.89682,0.12810
597.82528,0.09454
599.75375,0.08206
601.68222,0.08523
603.61069,0.09882
605.53916,0.11712
607.46763,0.13494
609.39610,0.14948
611.32456,0.14713
613.25303,0.13717
615.18150,0.14095
617.10997,0.13925
619.03844,0.12106
620.96691,0.11715
622.89538,0.12734
624.82385,0.12232
626.75231,0.10528
628.68078,0.10095
630.60925,0.10491
632.53772,0.09605
634.46619,0.09421
636.39466,0.10625
638.32313,0.10056
640.25159,0.08753
642.18006,0.09852
644.10853,0.12166
646.03700,0.12722
647.96547,0.11431
649.89394,0.11149
651.82241,0.12872
653.75088,0.14138
655.67934,0.13462
657.60781,0.12010
659.53628,0.10772
661.46475,0.09879
663.39322,0.10352
665.32169,0.12102
667.25016,0.12695
669.17862,0.10378
671.10709,0.08887
673.03556,0.09787
674.96403,0.11755
676.89250,0.12606
678.82097,0.11699
680.74944,0.09796
682.67791,0.09186
684.60637,0.10942
686.53484,0.12655
688.46331,0.13361
690.39178,0.13975
692.32025,0.13789
694.24872,0.12246
696.17719,0.10824
698.10565,0.11348
700.03412,0.12742
701.96259,0.12788
703.89106,0.12283
705.81953,0.12452
707.74800,0.11300
709.67647,0.05379
711.60494,-0.00482
713.53340,0.02638
715.46187,0.09231
717.39034,0.11713
719.31881,0.13061
721.24728,0.13752
723.17575,0.12499
725.10422,0.11679
727.03268,0.12854
728.96115,0.14522
730.88962,0.14817
732.81809,0.14011
734.74656,0.12969
736.67503,0.12003
738.60350,0.11254
740.53197,0.11006
742.46043,0.11377
744.38890,0.12200
746.31737,0.13126
748.24584,0.13346
750.17431,0.12791
752.10278,0.12738
754.03125,0.13637
755.95971,0.14757
757.88818,0.15198
759.81665,0.14531
761.74512,0.13813
763.67359,0.13931
765.60206,0.14350
767.53053,0.14025
769.45900,0.12599
771.38746,0.11666
773.31593,0.12498
775.24440,0.13805
777.17287,0.14325
779.10134,0.14379
781.02981,0.14285
782.95828,0.13867
784.88674,0.13339
786.81521,0.13191
788.74368,0.12733
790.67215,0.11875
792.60062,0.12053
794.52909,0.12685
796.45756,0.12894
798.38602,0.14007
800.31449,0.15716
802.24296,0.15827
804.17143,0.14484
806.09990,0.13967
808.02837,0.14594
809.95684,0.14300
811.88531,0.12528
813.81377,0.11375
815.74224,0.11923
817.67071,0.13152
819.59918,0.14224
821.52765,0.15018
823.45612,0.15722
825.38459,0.16013
827.31305,0.15171
829.24152,0.13967
831.16999,0.14378
833.09846,0.15736
835.02693,0.15723
836.95540,0.14550
838.88387,0.12738
840.81234,0.10984
842.74080,0.11038
844.66927,0.12543
846.59774,0.14203
848.52621,0.15909
850.45468,0.16975
852.38315,0.16581
854.31162,0.15891
856.24008,0.16167
858.16855,0.16628
860.09702,0.16505
862.02549,0.16127
863.95396,0.15685
865.88243,0.15236
867.81090,0.15445
869.73937,0.16375
871.66783,0.16817
873.59630,0.16434
875.52477,0.15480
877.45324,0.13972
879.38171,0.12837
881.31018,0.13394
883.23865,0.15138
885.16711,0.15547
887.09558,0.14445
889.02405,0.14030
890.95252,0.14726
892.88099,0.15677
894.80946,0.16124
896.73793,0.16070
898.66640,0.15512
900.59486,0.14437
902.52333,0.14092
904.45180,0.14859
906.38027,0.15524
908.30874,0.15573
910.23721,0.15313
912.16568,0.15075
914.09414,0.15001
916.02261,0.15071
917.95108,0.15735
919.87955,0.16554
921.80802,0.16031
923.73649,0.14708
925.66496,0.14063
927.59343,0.14041
929.52189,0.14276
931.45036,0.14753
933.37883,0.15220
935.30730,0.15235
937.23577,0.14957
939.16424,0.14778
941.09271,0.14580
943.02117,0.14511
944.94964,0.14706
946.87811,0.15110
948.80658,0.15655
950.73505,0.15678
952.66352,0.15315
954.59199,0.15546
956.52045,0.15845
958.44892,0.15351
960.37739,0.14923
962.30586,0.15141
964.23433,0.15287
966.16280,0.14818
968.09127,0.13907
970.01974,0.13156
971.94820,0.13112
973.87667,0.13930
975.80514,0.14877
977.73361,0.14860
979.66208,0.14300
981.59055,0.14437
983.51902,0.15233
985.44748,0.15804
987.37595,0.15567
989.30442,0.15140
991.23289,0.15621
993.16136,0.16162
995.08983,0.15778
997.01830,0.15313
998.94677,0.15200
1000.87523,0.15255
1002.80370,0.15451
1004.73217,0.15514
1006.66064,0.15472
1008.58911,0.15513
1010.51758,0.15615
1012.44605,0.15938
1014.37451,0.16096
1016.30298,0.15396
1018.23145,0.14100
1020.15992,0.13324
1022.08839,0.13636
1024.01686,0.14363
1025.94533,0.15609
1027.87380,0.17310
1029.80226,0.17546
1031.73073,0.16310
1033.65920,0.15587
1035.58767,0.15607
1037.51614,0.15508
1039.44461,0.15254
1041.37308,0.15409
1043.30154,0.16052
1045.23001,0.16142
1047.15848,0.15041
1049.08695,0.14265
1051.01542,0.15100
1052.94389,0.16285
1054.87236,0.16175
1056.80083,0.15138
1058.72929,0.14441
1060.65776,0.14374
1062.58623,0.14820
1064.51470,0.15191
1066.44317,0.14844
1068.37164,0.14941
1070.30011,0.15780
1072.22857,0.16209
1074.15704,0.16532
1076.08551,0.16863
1078.01398,0.16356
1079.94245,0.15510
1081.87092,0.15408
1083.79939,0.15727
1085.72786,0.15804
1087.65632,0.15926
1089.58479,0.16307
1091.51326,0.16775
1093.44173,0.17009
1095.37020,0.16574
1097.29867,0.16241
1099.22714,0.16723
1101.15560,0.16850
1103.08407,0.16540
1105.01254,0.16545
1106.94101,0.16135
1108.86948,0.15596
1110.79795,0.16043
1112.72642,0.17005
1114.65489,0.17362
1116.58335,0.16811
1118.51182,0.15906
1120.44029,0.15461
1122.36876,0.15923
1124.29723,0.16563
1126.22570,0.16705
1128.15417,0.16566
1130.08263,0.15994
1132.01110,0.15659
1133.93957,0.16475
1135.86804,0.17347
1137.79651,0.17212
1139.72498,0.16623
1141.65345,0.16177
1143.58191,0.16029
1145.51038,0.16089
1147.43885,0.15991
1149.36732,0.15980
1151.29579,0.16069
1153.22426,0.15698
1155.15273,0.15331
1157.08120,0.15766
1159.00966,0.16847
1160.93813,0.17820
1162.86660,0.18202
1164.79507,0.17913
1166.72354,0.17154
1168.65201,0.16614
1170.58048,0.16733
1172.50894,0.16951
1174.43741,0.16564
1176.36588,0.15904
1178.29435,0.15746
1180.22282,0.16230
1182.15129,0.16472
1184.07976,0.15699
1186.00823,0.14876
1187.93669,0.15137
1189.86516,0.15939
1191.79363,0.16358
1193.72210,0.16554
1195.65057,0.16769
1197.57904,0.16502
1199.50751,0.16073
1201.43597,0.16417
1203.36444,0.17207
1205.29291,0.17453
1207.22138,0.17061
1209.14985,0.16718
1211.07832,0.16729
1213.00679,0.16889
1214.93526,0.17077
1216.86372,0.17081
1218.79219,0.16912
1220.72066,0.16948
1222.64913,0.17027
1224.57760,0.16996
1226.50607,0.16958
1228.43454,0.16800
1230.36300,0.16803
1232.29147,0.17026
1234.21994,0.17146
1236.14841,0.17215
1238.07688,0.17162
1240.00535,0.17058
1241.93382,0.17163
1243.86229,0.17104
1245.79075,0.16712
1247.71922,0.16497
1249.64769,0.16504
1251.57616,0.16440
1253.50463,0.16510
1255.43310,0.16880
1257.36157,0.17094
1259.29003,0.16951
1261.21850,0.16984
1263.14697,0.17542
1265.07544,0.18394
1267.00391,0.18862
1268.93238,0.18815
1270.86085,0.18729
1272.78932,0.18576
1274.71778,0.18394
1276.64625,0.18010
1278.57472,0.17209
1280.50319,0.16834
1282.43166,0.17315
1284.36013,0.17679
1286.28860,0.17366
1288.21706,0.17130
1290.14553,0.17552
1292.07400,0.18234
1294.00247,0.18440
1295.93094,0.18130
1297.85941,0.17872
1299.78788,0.17760
1301.71634,0.17837
1303.64481,0.18034
1305.57328,0.17775
1307.50175,0.17242
1309.43022,0.17086
1311.35869,0.17329
1313.28716,0.17790
1315.21563,0.18027
1317.14409,0.17726
1319.07256,0.17317
1321.00103,0.17232
1322.92950,0.17439
1324.85797,0.17721
1326.78644,0.17896
1328.71491,0.17987
1330.64337,0.18080
1332.57184,0.18034
1334.50031,0.17865
1336.42878,0.17598
1338.35725,0.17138
1340.28572,0.16399
1342.21419,0.15059
1344.14266,0.14011
1346.07112,0.14595
1347.99959,0.16145
1349.92806,0.17193
1351.85653,0.17695
1353.78500,0.17981
1355.71347,0.17877
1357.64194,0.17733
1359.57040,0.17911
1361.49887,0.17922
1363.42734,0.17557
1365.35581,0.17360
1367.28428,0.17304
1369.21275,0.17251
1371.14122,0.17420
1373.06969,0.17614
1374.99815,0.17613
1376.92662,0.17514
1378.85509,0.17322
1380.78356,0.17328
1382.71203,0.17746
1384.64050,0.18140
1386.56897,0.17956
1388.49743,0.17466
1390.42590,0.17235
1392.35437,0.17174
1394.28284,0.17484
1396.21131,0.18043
1398.13978,0.18190
1400.06825,0.18078
1401.99672,0.17832
1403.92518,0.17499
1405.85365,0.17405
1407.78212,0.17566
1409.71059,0.17781
1411.63906,0.17772
1413.56753,0.17571
1415.49600,0.17809
1417.42446,0.18466
1419.35293,0.18589
1421.28140,0.18279
1423.20987,0.18399
1425.13834,0.18722
1427.06681,0.18628
1428.99528,0.18050
1430.92375,0.17698
1432.85221,0.18061
1434.78068,0.18725
1436.70915,0.19287
1438.63762,0.19361
1440.56609,0.19098
1442.49456,0.18751
1444.42303,0.18493
1446.35149,0.18483
1448.27996,0.18562
1450.20843,0.18613
1452.13690,0.18706
1454.06537,0.18872
1455.99384,0.19038
1457.92231,0.18984
1459.85077,0.18955
1461.77924,0.18951
1463.70771,0.19089
1465.63618,0.19341
1467.56465,0.19054
1469.49312,0.18411
1471.42159,0.17846
1473.35006,0.17752
1475.27852,0.18050
1477.20699,0.18141
1479.13546,0.18062
1481.06393,0.18093
1482.99240,0.18272
1484.92087,0.18307
1486.84934,0.18005
1488.77780,0.17800
1490.70627,0.18249
1492.63474,0.18719
1494.56321,0.18986
1496.49168,0.19071
1498.42015,0.18688
1500.34862,0.18407
1502.27709,0.18681
1504.20555,0.19353
1506.13402,0.19414
1508.06249,0.17439
1509.99096,0.16926
1511.91943,0.17817
1513.84790,0.18700
1515.77637,0.19154
1517.70483,0.18967
1519.63330,0.18071
1521.56177,0.17116
1523.49024,0.17152
1525.41871,0.17613
1527.34718,0.17773
1529.27565,0.17622
1531.20412,0.17212
1533.13258,0.16840
1535.06105,0.17281
1536.98952,0.18131
1538.91799,0.18799
1540.84646,0.18852
1542.77493,0.18390
1544.70340,0.18364
1546.63186,0.18899
1548.56033,0.19359
1550.48880,0.19109
1552.41727,0.18397
1554.34574,0.18173
1556.27421,0.18910
1558.20268,0.20063
1560.13115,0.19886
1562.05961,0.19370
1563.98808,0.19120
1565.91655,0.18941
1567.84502,0.18947
1569.77349,0.18982
1571.70196,0.18841
1573.63043,0.18472
1575.55889,0.17674
1577.48736,0.17080
1579.41583,0.17177
1581.34430,0.17452
1583.27277,0.17692
1585.20124,0.17696
1587.12971,0.17694
1589.05818,0.17958
1590.98664,0.18234
1592.91511,0.18460
1594.84358,0.18585
1596.77205,0.18211
1598.70052,0.17611
1600.62899,0.17470
1602.55746,0.17670
1604.48592,0.17787
1606.41439,0.17921
1608.34286,0.18070
1610.27133,0.18089
1612.19980,0.18099
1614.12827,0.18162
1616.05674,0.18214
1617.98521,0.18354
1619.91367,0.18646
1621.84214,0.18917
1623.77061,0.19006
1625.69908,0.19063
1627.62755,0.19276
1629.55602,0.19375
1631.48449,0.19308
1633.41295,0.19247
1635.34142,0.18978
1637.26989,0.18634
1639.19836,0.18627
1641.12683,0.18666
1643.05530,0.18605
1644.98377,0.18342
1646.91223,0.18320
1648.84070,0.19124
1650.76917,0.19678
1652.69764,0.19448
1654.62611,0.18845
1656.55458,0.18796
1658.48305,0.19074
1660.41152,0.19299
1662.33998,0.19114
1664.26845,0.18783
1666.19692,0.18604
1668.12539,0.18683
1670.05386,0.19197
1671.98233,0.19634
1673.91080,0.19553
1675.83926,0.18912
1677.76773,0.18173
1679.69620,0.17913
1681.62467,0.18258
1683.55314,0.18587
1685.48161,0.18299
1687.41008,0.18281
1689.33855,0.18553
1691.26701,0.18907
1693.19548,0.19249
1695.12395,0.19616
1697.05242,0.19854
1698.98089,0.19569
1700.90936,0.18713
1702.83783,0.18149
1704.76629,0.18338
1706.69476,0.18860
1708.62323,0.18907
1710.55170,0.18664
1712.48017,0.18696
1714.40864,0.18987
1716.33711,0.19168
1718.26558,0.18937
1720.19404,0.18512
1722.12251,0.18324
1724.05098,0.18530
1725.97945,0.18922
1727.90792,0.18893
1729.83639,0.18195
1731.76486,0.17403
1733.69332,0.17352
1735.62179,0.18010
1737.55026,0.18442
1739.47873,0.18767
1741.40720,0.18903
1743.33567,0.18754
1745.26414,0.18813
1747.19261,0.18988
1749.12107,0.19066
1751.04954,0.19317
1752.97801,0.19664
1754.90648,0.19974
1756.83495,0.19995
1758.76342,0.19573
1760.69189,0.19161
1762.62035,0.18983
1764.54882,0.18931
1766.47729,0.18974
1768.40576,0.19137
1770.33423,0.19159
1772.26270,0.18783
1774.19117,0.18539
1776.11964,0.18653
1778.04810,0.18855
1779.97657,0.18946
1781.90504,0.18840
1783.83351,0.18790
1785.76198,0.18869
1787.69045,0.18941
1789.61892,0.18983
1791.54738,0.19030
1793.47585,0.19097
1795.40432,0.19065
1797.33279,0.18763
1799.26126,0.18316
1801.18973,0.18227
1803.11820,0.18443
1805.04666,0.18568
1806.97513,0.18771
1808.90360,0.19093
1810.83207,0.19102
1812.76054,0.18790
1814.68901,0.18585
1816.61748,0.18392
1818.54595,0.18173
1820.47441,0.18360
1822.40288,0.18869
1824.33135,0.19034
1826.25982,0.18737
1828.18829,0.18611
1830.11676,0.18831
1832.04523,0.18878
1833.97369,0.18611
1835.90216,0.18463
1837.83063,0.18761
1839.75910,0.19243
1841.68757,0.19439
1843.61604,0.19204
1845.54451,0.18819
1847.47298,0.18763
1849.40144,0.19042
1851.32991,0.19233
1853.25838,0.19177
1855.18685,0.19164
1857.11532,0.19137
1859.04379,0.18908
1860.97226,0.18791
1862.90072,0.18948
1864.82919,0.19166
1866.75766,0.19322
1868.68613,0.19329
1870.61460,0.19154
1872.54307,0.18866
1874.47154,0.18648
1876.40001,0.18668
1878.32847,0.18787
1880.25694,0.18736
1882.18541,0.18621
1884.11388,0.18781
1886.04235,0.18962
1887.97082,0.18736
1889.89929,0.18447
1891.82775,0.18603
1893.75622,0.18923
1895.68469,0.18971
1897.61316,0.18830
1899.54163,0.18784
1901.47010,0.18888
1903.39857,0.19113
1905.32704,0.19298
1907.25550,0.19254
1909.18397,0.19091
1911.11244,0.18985
1913.04091,0.18994
1914.96938,0.19077
1916.89785,0.19087
1918.82632,0.19099
1920.75478,0.19166
1922.68325,0.19206
1924.61172,0.19365
1926.54019,0.19499
1928.46866,0.19284
1930.39713,0.18952
1932.32560,0.18887
1934.25407,0.19022
1936.18253,0.19097
1938.11100,0.19011
1940.03947,0.18897
1941.96794,0.18878
1943.89641,0.18885
1945.82488,0.18860
1947.75335,0.18830
1949.68181,0.18814
1951.61028,0.18886
1953.53875,0.19042
1955.46722,0.19173
1957.39569,0.19258
1959.32416,0.19283
1961.25263,0.19182
1963.18110,0.19027
1965.10956,0.18968
1967.03803,0.18898
1968.96650,0.18824
1970.89497,0.19014
1972.82344,0.19343
1974.75191,0.19391
1976.68038,0.18978
1978.60884,0.18476
1980.53731,0.18422
1982.46578,0.18803
1984.39425,0.19276
1986.32272,0.19631
1988.25119,0.19696
1990.17966,0.19406
1992.10812,0.18940
1994.03659,0.18651
1995.96506,0.18737
1997.89353,0.18890
1999.82200,0.18842
2001.75047,0.18859
2003.67894,0.18982
2005.60741,0.18811
2007.53587,0.18525
2009.46434,0.18599
2011.39281,0.18684
2013.32128,0.18534
2015.24975,0.18667
2017.17822,0.19095
2019.10669,0.19304
2021.03515,0.19366
2022.96362,0.19448
2024.89209,0.19312
2026.82056,0.19060
2028.74903,0.19035
2030.67750,0.19133
2032.60597,0.19064
2034.53444,0.18874
2036.46290,0.18835
2038.39137,0.18943
2040.31984,0.19015
2042.24831,0.18988
2044.17678,0.18869
2046.10525,0.18833
2048.03372,0.18953
2049.96218,0.19053
2051.89065,0.19189
2053.81912,0.19385
2055.74759,0.19342
2057.67606,0.19114
2059.60453,0.19051
2061.53300,0.19057
2063.46147,0.18850
2065.38993,0.18597
2067.31840,0.18607
2069.24687,0.18797
2071.17534,0.19058
2073.10381,0.19367
2075.03228,0.19479
2076.96075,0.19392
2078.88921,0.19359
2080.81768,0.19313
2082.74615,0.19238
2084.67462,0.19365
2086.60309,0.19601
2088.53156,0.19554
2090.46003,0.19257
2092.38850,0.19051
2094.31696,0.18989
2096.24543,0.19120
2098.17390,0.19507
2100.10237,0.19818
2102.03084,0.19843
2103.95931,0.19740
2105.88778,0.19604
2107.81624,0.19444
2109.74471,0.19366
2111.67318,0.19472
2113.60165,0.19545
2115.53012,0.19435
2117.45859,0.19431
2119.38706,0.19574
2121.31553,0.19543
2123.24399,0.19414
2125.17246,0.19460
2127.10093,0.19503
2129.02940,0.19442
2130.95787,0.19369
2132.88634,0.19495
2134.81481,0.20188
2136.74327,0.20745
2138.67174,0.20377
2140.60021,0.19829
2142.52868,0.19609
2144.45715,0.19268
2146.38562,0.18848
2148.31409,0.18800
2150.24255,0.19038
2152.17102,0.19141
2154.09949,0.19072
2156.02796,0.19040
2157.95643,0.19014
2159.88490,0.18977
2161.81337,0.19098
2163.74184,0.19425
2165.67030,0.19735
2167.59877,0.19798
2169.52724,0.19635
2171.45571,0.19409
2173.38418,0.19330
2175.31265,0.19355
2177.24112,0.19212
2179.16958,0.19026
2181.09805,0.19028
2183.02652,0.19016
2184.95499,0.18850
2186.88346,0.18818
2188.81193,0.19097
2190.74040,0.19438
2192.66887,0.19497
2194.59733,0.19237
2196.52580,0.18971
2198.45427,0.18948
2200.38274,0.19069
2202.31121,0.19204
2204.23968,0.19380
2206.16815,0.19438
2208.09661,0.19285
2210.02508,0.19211
2211.95355,0.19228
2213.88202,0.19235
2215.81049,0.19391
2217.73896,0.19446
2219.66743,0.19221
2221.59590,0.19193
2223.52436,0.19500
2225.45283,0.19690
2227.38130,0.19611
2229.30977,0.19487
2231.23824,0.19414
2233.16671,0.19378
2235.09518,0.19368
2237.02364,0.19402
2238.95211,0.19497
2240.88058,0.19421
2242.80905,0.19080
2244.73752,0.18742
2246.66599,0.18621
2248.59446,0.18648
2250.52293,0.18678
2252.45139,0.18839
2254.37986,0.19061
2256.30833,0.19080
2258.23680,0.18928
2260.16527,0.18793
2262.09374,0.18800
2264.02221,0.18819
2265.95067,0.18778
2267.87914,0.18765
2269.80761,0.18819
2271.73608,0.18932
2273.66455,0.19078
2275.59302,0.19301
2277.52149,0.19522
2279.44996,0.19592
2281.37842,0.19455
2283.30689,0.19089
2285.23536,0.18554
2287.16383,0.17990
2289.09230,0.17542
2291.02077,0.17291
2292.94924,0.17205
2294.87770,0.17273
2296.80617,0.17442
2298.73464,0.17466
2300.66311,0.17357
2302.59158,0.17287
2304.52005,0.17152
2306.44852,0.16718
2308.37699,0.15989
2310.30545,0.15327
2312.23392,0.14926
2314.16239,0.14657
2316.09086,0.14222
2318.01933,0.13527
2319.94780,0.12892
2321.87627,0.12432
2323.80473,0.11914
2325.73320,0.10995
2327.66167,0.09930
2329.59014,0.09508
2331.51861,0.09185
2333.44708,0.08165
2335.37555,0.07411
2337.30401,0.07409
2339.23248,0.07741
2341.16095,0.08373
2343.08942,0.09369
2345.01789,0.10718
2346.94636,0.11653
2348.87483,0.11622
2350.80330,0.10711
2352.73176,0.09444
2354.66023,0.08931
2356.58870,0.09096
2358.51717,0.08466
2360.44564,0.06021
2362.37411,0.03749
2364.30258,0.04849
2366.23104,0.08043
2368.15951,0.09867
2370.08798,0.10456
2372.01645,0.11101
2373.94492,0.11529
2375.87339,0.12288
2377.80186,0.13986
2379.73033,0.15777
2381.65879,0.16964
2383.58726,0.17762
2385.51573,0.18435
2387.44420,0.18929
2389.37267,0.19175
2391.30114,0.19267
2393.22961,0.19283
2395.15807,0.19179
2397.08654,0.18998
2399.01501,0.18915
2400.94348,0.19028
2402.87195,0.19316
2404.80042,0.19647
2406.72889,0.19826
2408.65736,0.19793
2410.58582,0.19625
2412.51429,0.19489
2414.44276,0.19466
2416.37123,0.19409
2418.29970,0.19210
2420.22817,0.18923
2422.15664,0.18845
2424.08510,0.19218
2426.01357,0.19558
2427.94204,0.19430
2429.87051,0.19248
2431.79898,0.19328
2433.72745,0.19406
2435.65592,0.19251
2437.58439,0.18968
2439.51285,0.18928
2441.44132,0.19248
2443.36979,0.19584
2445.29826,0.19634
2447.22673,0.19407
2449.15520,0.19069
2451.08367,0.18845
2453.01213,0.18819
2454.94060,0.18817
2456.86907,0.18938
2458.79754,0.19244
2460.72601,0.19350
2462.65448,0.19300
2464.58295,0.19357
2466.51142,0.19430
2468.43988,0.19367
2470.36835,0.19216
2472.29682,0.19147
2474.22529,0.19142
2476.15376,0.19192
2478.08223,0.19189
2480.01070,0.19026
2481.93916,0.19071
2483.86763,0.19373
2485.79610,0.19592
2487.72457,0.19680
2489.65304,0.19714
2491.58151,0.19724
2493.50998,0.19597
2495.43844,0.19457
2497.36691,0.19592
2499.29538,0.19731
2501.22385,0.19632
2503.15232,0.19556
2505.08079,0.19632
2507.00926,0.19583
2508.93773,0.19319
2510.86619,0.19222
2512.79466,0.19345
2514.72313,0.19352
2516.65160,0.19191
2518.58007,0.19005
2520.50854,0.18894
2522.43701,0.18982
2524.36547,0.19344
2526.29394,0.19703
2528.22241,0.19645
2530.15088,0.19311
2532.07935,0.19170
2534.00782,0.19372
2535.93629,0.19723
2537.86476,0.19947
2539.79322,0.20026
2541.72169,0.19912
2543.65016,0.19519
2545.57863,0.19196
2547.50710,0.19095
2549.43557,0.19094
2551.36404,0.19293
2553.29250,0.19598
2555.22097,0.19715
2557.14944,0.19586
2559.07791,0.19349
2561.00638,0.19135
2562.93485,0.19008
2564.86332,0.19042
2566.79179,0.19241
2568.72025,0.19403
2570.64872,0.19490
2572.57719,0.19504
2574.50566,0.19356
2576.43413,0.19364
2578.36260,0.19673
2580.29107,0.19923
2582.21953,0.19960
2584.14800,0.19805
2586.07647,0.19512
2588.00494,0.19330
2589.93341,0.19436
2591.86188,0.19720
2593.79035,0.19893
2595.71882,0.19703
2597.64728,0.19383
2599.57575,0.19316
2601.50422,0.19400
2603.43269,0.19441
2605.36116,0.19514
2607.28963,0.19714
2609.21810,0.19841
2611.14656,0.19737
2613.07503,0.19619
2615.00350,0.19622
2616.93197,0.19614
2618.86044,0.19521
2620.78891,0.19382
2622.71738,0.19297
2624.64585,0.19435
2626.57431,0.19681
2628.50278,0.19690
2630.43125,0.19533
2632.35972,0.19391
2634.28819,0.19287
2636.21666,0.19343
2638.14513,0.19473
2640.07359,0.19672
2642.00206,0.20028
2643.93053,0.20174
2645.85900,0.19980
2647.78747,0.19839
2649.71594,0.19804
2651.64441,0.19751
2653.57288,0.19810
2655.50134,0.19876
2657.42981,0.19827
2659.35828,0.19826
2661.28675,0.19921
2663.21522,0.20046
2665.14369,0.20094
2667.07216,0.19940
2669.00062,0.19685
2670.92909,0.19701
2672.85756,0.20032
2674.78603,0.20278
2676.71450,0.20233
2678.64297,0.19875
2680.57144,0.19561
2682.49990,0.19695
2684.42837,0.20011
2686.35684,0.20316
2688.28531,0.20688
2690.21378,0.20902
2692.14225,0.20751
2694.07072,0.20464
2695.99919,0.20421
2697.92765,0.20603
2699.85612,0.20618
2701.78459,0.20445
2703.71306,0.20507
2705.64153,0.20720
2707.57000,0.20721
2709.49847,0.20530
2711.42693,0.20277
2713.35540,0.20184
2715.28387,0.20299
2717.21234,0.20510
2719.14081,0.20728
2721.06928,0.20695
2722.99775,0.20561
2724.92622,0.20724
2726.85468,0.21004
2728.78315,0.20998
2730.71162,0.20748
2732.64009,0.20483
2734.56856,0.20232
2736.49703,0.20048
2738.42550,0.20048
2740.35396,0.20216
2742.28243,0.20409
2744.21090,0.20594
2746.13937,0.20674
2748.06784,0.20462
2749.99631,0.20129
2751.92478,0.19926
2753.85325,0.19905
2755.78171,0.20133
2757.71018,0.20594
2759.63865,0.20886
2761.56712,0.20766
2763.49559,0.20616
2765.42406,0.20658
2767.35253,0.20867
2769.28099,0.21266
2771.20946,0.21608
2773.13793,0.21546
2775.06640,0.21142
2776.99487,0.20819
2778.92334,0.20796
2780.85181,0.20775
2782.78028,0.20551
2784.70874,0.20551
2786.63721,0.21036
2788.56568,0.21484
2790.49415,0.21374
2792.42262,0.21030
2794.35109,0.21110
2796.27956,0.21458
2798.20802,0.21487
2800.13649,0.21163
2802.06496,0.20792
2803.99343,0.20620
2805.92190,0.20763
2807.85037,0.21032
2809.77884,0.21124
2811.70731,0.21092
2813.63577,0.20997
2815.56424,0.20757
2817.49271,0.20665
2819.42118,0.20915
2821.34965,0.21170
2823.27812,0.21127
2825.20659,0.20947
2827.13505,0.21016
2829.06352,0.21351
2830.99199,0.21645
2832.92046,0.21737
2834.84893,0.21640
2836.77740,0.21427
2838.70587,0.21166
2840.63433,0.21051
2842.56280,0.21242
2844.49127,0.21504
2846.41974,0.21595
2848.34821,0.21438
2850.27668,0.21141
2852.20515,0.20995
2854.13362,0.20976
2856.06208,0.20922
2857.99055,0.20993
2859.91902,0.21331
2861.84749,0.21490
2863.77596,0.21173
2865.70443,0.20877
2867.63290,0.20761
2869.56136,0.20747
2871.48983,0.20952
2873.41830,0.21064
2875.34677,0.21171
2877.27524,0.21533
2879.20371,0.21600
2881.13218,0.21189
2883.06065,0.20668
2884.98911,0.20202
2886.91758,0.19960
2888.84605,0.20153
2890.77452,0.20659
2892.70299,0.21075
2894.63146,0.21170
2896.55993,0.20970
2898.48839,0.20744
2900.41686,0.20695
2902.34533,0.20739
2904.27380,0.20731
2906.20227,0.20613
2908.13074,0.20494
2910.05921,0.20353
2911.98768,0.20144
2913.91614,0.20175
2915.84461,0.20628
2917.77308,0.20884
2919.70155,0.20424
2921.63002,0.19887
2923.55849,0.20031
2925.48696,0.20914
2927.41542,0.21858
2929.34389,0.21885
2931.27236,0.20987
2933.20083,0.20279
2935.12930,0.20391
2937.05777,0.20742
2938.98624,0.20853
2940.91471,0.20780
2942.84317,0.20567
2944.77164,0.20504
2946.70011,0.20727
2948.62858,0.20862
2950.55705,0.20909
2952.48552,0.21088
2954.41399,0.21072
2956.34245,0.20820
2958.27092,0.20709
2960.19939,0.20716
2962.12786,0.20776
2964.05633,0.21069
2965.98480,0.21437
2967.91327,0.21492
2969.84174,0.21393
2971.77020,0.21362
2973.69867,0.21330
2975.62714,0.21279
2977.55561,0.20990
2979.48408,0.20501
2981.41255,0.20347
2983.34102,0.20698
2985.26948,0.21135
2987.19795,0.21422
2989.12642,0.21819
2991.05489,0.22133
2992.98336,0.21900
2994.91183,0.21716
2996.84030,0.22166
2998.76877,0.22529
3000.69723,0.22160
3002.62570,0.21482
3004.55417,0.21144
3006.48264,0.21251
3008.41111,0.21454
3010.33958,0.21520
3012.26805,0.21557
3014.19651,0.21477
3016.12498,0.21164
3018.05345,0.20953
3019.98192,0.21153
3021.91039,0.21731
3023.83886,0.22440
3025.76733,0.22803
3027.69579,0.22515
3029.62426,0.22019
3031.55273,0.21689
3033.48120,0.21312
3035.40967,0.20990
3037.33814,0.21134
3039.26661,0.21736
3041.19508,0.22091
3043.12354,0.21745
3045.05201,0.21026
3046.98048,0.20599
3048.90895,0.21021
3050.83742,0.21713
3052.76589,0.21851
3054.69436,0.21673
3056.62282,0.21547
3058.55129,0.21402
3060.47976,0.21146
3062.40823,0.20928
3064.33670,0.20888
3066.26517,0.21021
3068.19364,0.21250
3070.12211,0.21402
3072.05057,0.21274
3073.97904,0.21023
3075.90751,0.21167
3077.83598,0.21612
3079.76445,0.21783
3081.69292,0.21493
3083.62139,0.20850
3085.54985,0.20300
3087.47832,0.20184
3089.40679,0.20377
3091.33526,0.20778
3093.26373,0.21025
3095.19220,0.20899
3097.12067,0.20846
3099.04914,0.20878
3100.97760,0.20915
3102.90607,0.21299
3104.83454,0.21547
3106.76301,0.21176
3108.69148,0.20880
3110.61995,0.21103
3112.54842,0.21448
3114.47688,0.21544
3116.40535,0.21184
3118.33382,0.20506
3120.26229,0.20182
3122.19076,0.20648
3124.11923,0.21446
3126.04770,0.21799
3127.97617,0.21581
3129.90463,0.21202
3131.83310,0.20939
3133.76157,0.20827
3135.69004,0.20735
3137.61851,0.20745
3139.54698,0.21056
3141.47545,0.21345
3143.40391,0.21366
3145.33238,0.21308
3147.26085,0.21301
3149.18932,0.21410
3151.11779,0.21598
3153.04626,0.21849
3154.97473,0.22162
3156.90320,0.22394
3158.83166,0.22378
3160.76013,0.22014
3162.68860,0.21610
3164.61707,0.21535
3166.54554,0.21777
3168.47401,0.22178
3170.40248,0.22319
3172.33094,0.21967
3174.25941,0.21626
3176.18788,0.21544
3178.11635,0.21566
3180.04482,0.21935
3181.97329,0.22323
3183.90176,0.22166
3185.83022,0.22022
3187.75869,0.22199
3189.68716,0.22106
3191.61563,0.21737
3193.54410,0.21738
3195.47257,0.22144
3197.40104,0.22586
3199.32951,0.22824
3201.25797,0.22554
3203.18644,0.22065
3205.11491,0.21726
3207.04338,0.21451
3208.97185,0.21368
3210.90032,0.21427
3212.82879,0.21232
3214.75725,0.21000
3216.68572,0.21175
3218.61419,0.21127
3220.54266,0.20662
3222.47113,0.20719
3224.39960,0.21071
3226.32807,0.21005
3228.25654,0.20855
3230.18500,0.20923
3232.11347,0.21171
3234.04194,0.21306
3235.97041,0.20999
3237.89888,0.20784
3239.82735,0.21090
3241.75582,0.21414
3243.68428,0.21469
3245.61275,0.21442
3247.54122,0.21543
3249.46969,0.21799
3251.39816,0.22001
3253.32663,0.22154
3255.25510,0.22060
3257.18357,0.21454
3259.11203,0.20951
3261.04050,0.20889
3262.96897,0.20831
3264.89744,0.20749
3266.82591,0.21105
3268.75438,0.21578
3270.68285,0.21252
3272.61131,0.20449
3274.53978,0.20124
3276.46825,0.20450
3278.39672,0.20714
3280.32519,0.20527
3282.25366,0.20759
3284.18213,0.21456
3286.11060,0.21561
3288.03906,0.21093
3289.96753,0.20832
3291.89600,0.20801
3293.82447,0.20605
3295.75294,0.20642
3297.68141,0.21308
3299.60988,0.21897
3301.53834,0.21882
3303.46681,0.21546
3305.39528,0.21165
3307.32375,0.20910
3309.25222,0.20751
3311.18069,0.20474
3313.10916,0.19990
3315.03763,0.19629
3316.96609,0.20030
3318.89456,0.20767
3320.82303,0.20825
3322.75150,0.20624
3324.67997,0.20856
3326.60844,0.21140
3328.53691,0.21153
3330.46537,0.21026
3332.39384,0.21304
3334.32231,0.21845
3336.25078,0.21508
3338.17925,0.20785
3340.10772,0.20674
3342.03619,0.20658
3343.96466,0.20533
3345.89312,0.20727
3347.82159,0.21296
3349.75006,0.21698
3351.67853,0.21575
3353.60700,0.21419
3355.53547,0.21608
3357.46394,0.21940
3359.39240,0.22025
3361.32087,0.21623
3363.24934,0.21028
3365.17781,0.20898
3367.10628,0.21064
3369.03475,0.20893
3370.96322,0.20641
3372.89168,0.20533
3374.82015,0.20531
3376.74862,0.20720
3378.67709,0.20783
3380.60556,0.20865
3382.53403,0.21087
3384.46250,0.20960
3386.39097,0.20962
3388.31943,0.21376
3390.24790,0.21241
3392.17637,0.20564
3394.10484,0.20419
3396.03331,0.20841
3397.96178,0.20757
3399.89025,0.19835
3401.81871,0.18938
3403.74718,0.18824
3405.67565,0.19427
3407.60412,0.20128
3409.53259,0.20690
3411.46106,0.21180
3413.38953,0.21089
3415.31800,0.20421
3417.24646,0.20026
3419.17493,0.19969
3421.10340,0.19948
3423.03187,0.20141
3424.96034,0.20337
3426.88881,0.20200
3428.81728,0.19997
3430.74574,0.20089
3432.67421,0.20042
3434.60268,0.19407
3436.53115,0.18902
3438.45962,0.19082
3440.38809,0.19604
3442.31656,0.20068
3444.24503,0.20067
3446.17349,0.19713
3448.10196,0.19535
3450.03043,0.19201
3451.95890,0.18756
3453.88737,0.19050
3455.81584,0.19522
3457.74431,0.19268
3459.67277,0.18816
3461.60124,0.18461
3463.52971,0.18095
3465.45818,0.18040
3467.38665,0.18297
3469.31512,0.18595
3471.24359,0.18725
3473.17206,0.18620
3475.10052,0.18801
3477.02899,0.19202
3478.95746,0.18849
3480.88593,0.17985
3482.81440,0.17656
3484.74287,0.17917
3486.67134,0.18210
3488.59980,0.18364
3490.52827,0.18476
3492.45674,0.18346
3494.38521,0.18352
3496.31368,0.18814
3498.24215,0.18866
3500.17062,0.18418
3502.09909,0.18533
3504.02755,0.19194
3505.95602,0.19149
3507.88449,0.18555
3509.81296,0.18349
3511.74143,0.18282
3513.66990,0.17919
3515.59837,0.17503
3517.52683,0.17215
3519.45530,0.17128
3521.38377,0.17456
3523.31224,0.17847
3525.24071,0.17688
3527.16918,0.17266
3529.09765,0.17105
3531.02611,0.17029
3532.95458,0.16658
3534.88305,0.16353
3536.81152,0.16461
3538.73999,0.16707
3540.66846,0.16813
3542.59693,0.16668
3544.52540,0.16478
3546.45386,0.16487
3548.38233,0.16637
3550.31080,0.16785
3552.23927,0.16921
3554.16774,0.17042
3556.09621,0.17031
3558.02468,0.17050
3559.95314,0.17191
3561.88161,0.17158
3563.81008,0.17014
3565.73855,0.16934
3567.66702,0.16381
3569.59549,0.15683
3571.52396,0.15565
3573.45243,0.15659
3575.38089,0.15633
3577.30936,0.15556
3579.23783,0.15652
3581.16630,0.15860
3583.09477,0.15650
3585.02324,0.14591
3586.95171,0.13162
3588.88017,0.13140
3590.80864,0.14186
3592.73711,0.14914
3594.66558,0.15196
3596.59405,0.15085
3598.52252,0.14473
3600.45099,0.13736
3602.37946,0.13609
3604.30792,0.13958
3606.23639,0.14389
3608.16486,0.14595
3610.09333,0.14133
3612.02180,0.13558
3613.95027,0.13553
3615.87874,0.13766
3617.80720,0.13639
3619.73567,0.13404
3621.66414,0.13561
3623.59261,0.13848
3625.52108,0.13814
3627.44955,0.13455
3629.37802,0.13668
3631.30649,0.14188
3633.23495,0.13871
3635.16342,0.13213
3637.09189,0.13020
3639.02036,0.13423
3640.94883,0.14082
3642.87730,0.14441
3644.80577,0.14376
3646.73423,0.14067
3648.66270,0.13567
3650.59117,0.13569
3652.51964,0.13848
3654.44811,0.13825
3656.37658,0.13465
3658.30505,0.12871
3660.23352,0.12739
3662.16198,0.13429
3664.09045,0.14140
3666.01892,0.14213
3667.94739,0.14101
3669.87586,0.14107
3671.80433,0.13869
3673.73280,0.13224
3675.66126,0.12400
3677.58973,0.12414
3679.51820,0.12872
3681.44667,0.13056
3683.37514,0.13023
3685.30361,0.13100
3687.23208,0.13345
3689.16055,0.13339
3691.08901,0.12921
3693.01748,0.12504
3694.94595,0.12146
3696.87442,0.12087
3698.80289,0.12324
3700.73136,0.12437
3702.65983,0.12691
3704.58829,0.13337
3706.51676,0.13755
3708.44523,0.13598
3710.37370,0.13543
3712.30217,0.14181
3714.23064,0.13978
3716.15911,0.12954
3718.08757,0.12236
3720.01604,0.12022
3721.94451,0.11899
3723.87298,0.11982
3725.80145,0.12142
3727.72992,0.12204
3729.65839,0.12477
3731.58686,0.12396
3733.51532,0.11340
3735.44379,0.11265
3737.37226,0.12889
3739.30073,0.13372
3741.22920,0.12878
3743.15767,0.12872
3745.08614,0.13441
3747.01460,0.13509
3748.94307,0.13193
3750.87154,0.13250
3752.80001,0.13779
3754.72848,0.13693
3756.65695,0.13334
3758.58542,0.12930
3760.51389,0.12288
3762.44235,0.11933
3764.37082,0.11885
3766.29929,0.11877
3768.22776,0.11975
3770.15623,0.12099
3772.08470,0.12459
3774.01317,0.12859
3775.94163,0.12758
3777.87010,0.12609
3779.79857,0.12858
3781.72704,0.12747
3783.65551,0.12237
3785.58398,0.11929
3787.51245,0.12031
3789.44092,0.12533
3791.36938,0.13245
3793.29785,0.13695
3795.22632,0.13571
3797.15479,0.12899
3799.08326,0.12385
3801.01173,0.12393
3802.94020,0.12262
3804.86866,0.11761
3806.79713,0.11514
3808.72560,0.11960
3810.65407,0.12270
3812.58254,0.12162
3814.51101,0.12321
3816.43948,0.12887
3818.36795,0.12885
3820.29641,0.12398
3822.22488,0.12570
3824.15335,0.13034
3826.08182,0.12793
3828.01029,0.12158
3829.93876,0.11892
3831.86723,0.11983
3833.79569,0.12386
3835.72416,0.13117
3837.65263,0.13474
3839.58110,0.13103
3841.50957,0.12763
3843.43804,0.12720
3845.36651,0.12631
3847.29498,0.12211
3849.22344,0.11566
3851.15191,0.10986
3853.08038,0.11507
3855.00885,0.12486
3856.93732,0.12056
3858.86579,0.11834
3860.79426,0.12194
3862.72272,0.12124
3864.65119,0.11461
3866.57966,0.11119
3868.50813,0.11288
3870.43660,0.11951
3872.36507,0.12535
3874.29354,0.12734
3876.22200,0.12587
3878.15047,0.12025
3880.07894,0.11274
3882.00741,0.11074
3883.93588,0.11412
3885.86435,0.11428
3887.79282,0.11367
3889.72129,0.11778
3891.64975,0.11888
3893.57822,0.11318
3895.50669,0.10999
3897.43516,0.11036
3899.36363,0.11266
3901.29210,0.11866
3903.22057,0.12341
3905.14903,0.12022
3907.07750,0.11643
3909.00597,0.11655
3910.93444,0.11694
3912.86291,0.11399
3914.79138,0.10836
3916.71985,0.10649
3918.64832,0.11108
3920.57678,0.11553
3922.50525,0.11612
3924.43372,0.11542
3926.36219,0.11490
3928.29066,0.11108
3930.21913,0.10716
3932.14760,0.10943
3934.07606,0.11472
3936.00453,0.11825
3937.93300,0.11807
3939.86147,0.11454
3941.78994,0.11126
3943.71841,0.11071
3945.64688,0.10977
3947.57535,0.10640
3949.50381,0.10445
3951.43228,0.10563
3953.36075,0.10900
3955.28922,0.11380
3957.21769,0.11863
3959.14616,0.12234
3961.07463,0.12378
3963.00309,0.12333
3964.93156,0.12122
3966.86003,0.11654
3968.78850,0.11024
3970.71697,0.10359
3972.64544,0.09732
3974.57391,0.09445
3976.50238,0.09668
3978.43084,0.09984
3980.35931,0.09951
3982.28778,0.09826
3984.21625,0.09922
3986.14472,0.09931
3988.07319,0.09966
3990.00166,0.10344
3991.93012,0.10450
3993.85859,0.10128
3995.78706,0.10182
3997.71553,0.10523
3999.64400,0.10590
4001.57247,0.10626
4003.50094,0.10855
4005.42941,0.10939
4007.35787,0.10714
4009.28634,0.10546
4011.21481,0.10633
4013.14328,0.10660
4015.07175,0.10465
4017.00022,0.10057
4018.92869,0.09530
4020.85715,0.09606
4022.78562,0.10412
4024.71409,0.10483
4026.64256,0.09312
4028.57103,0.08403
4030.49950,0.08647
4032.42797,0.09417
4034.35644,0.09828
4036.28490,0.09733
4038.21337,0.09651
4040.14184,0.09810
4042.07031,0.09854
4043.99878,0.09601
4045.92725,0.09323
4047.85572,0.09385
4049.78418,0.09674
4051.71265,0.09747
4053.64112,0.09701
4055.56959,0.09733
4057.49806,0.09612
4059.42653,0.09434
4061.35500,0.09549
4063.28346,0.09668
4065.21193,0.09563
4067.14040,0.09747
4069.06887,0.09986
4070.99734,0.09709
4072.92581,0.09406
4074.85428,0.09388
4076.78275,0.09264
4078.71121,0.08990
4080.63968,0.09045
4082.56815,0.09459
4084.49662,0.09532
4086.42509,0.09059
4088.35356,0.08854
4090.28203,0.09376
4092.21049,0.09747
4094.13896,0.09609
4096.06743,0.09705
4097.99590,0.09892
4099.92437,0.09719
4101.85284,0.09609
4103.78131,0.09776
4105.70978,0.09935
4107.63824,0.10128
4109.56671,0.10176
4111.49518,0.09781
4113.42365,0.09519
4115.35212,0.09625
4117.28059,0.09681
4119.20906,0.09674
4121.13752,0.09770
4123.06599,0.10142
4124.99446,0.10375
4126.92293,0.09709
4128.85140,0.08610
4130.77987,0.08182
4132.70834,0.08398
4134.63681,0.08544
4136.56527,0.08438
4138.49374,0.08411
4140.42221,0.08793
4142.35068,0.09351
4144.27915,0.09461
4146.20762,0.09154
4148.13609,0.08760
4150.06455,0.08505
4151.99302,0.08744
4153.92149,0.09134
4155.84996,0.09161
4157.77843,0.09096
4159.70690,0.09215
4161.63537,0.09388
4163.56384,0.09205
4165.49230,0.08600
4167.42077,0.08280
4169.34924,0.08419
4171.27771,0.08388
4173.20618,0.08387
4175.13465,0.08481
4177.06312,0.07907
4178.99158,0.07152
4180.92005,0.07138
4182.84852,0.07396
4184.77699,0.07424
4186.70546,0.07432
4188.63393,0.07536
4190.56240,0.07739
4192.49087,0.07884
4194.41933,0.07988
4196.34780,0.08322
4198.27627,0.08529
4200.20474,0.08680
4202.13321,0.09021
4204.06168,0.08666
4205.99015,0.07738
4207.91861,0.07354
4209.84708,0.07425
4211.77555,0.07522
4213.70402,0.07678
4215.63249,0.07829
4217.56096,0.07999
4219.48943,0.08196
4221.41789,0.08325
4223.34636,0.08344
4225.27483,0.08231
4227.20330,0.08076
4229.13177,0.07728
4231.06024,0.07375
4232.98871,0.07484
4234.91718,0.07644
4236.84564,0.07555
4238.77411,0.07266
4240.70258,0.06731
4242.63105,0.06562
4244.55952,0.06836
4246.48799,0.06753
4248.41646,0.06548
4250.34492,0.06603
4252.27339,0.06326
4254.20186,0.05978
4256.13033,0.06526
4258.05880,0.07500
4259.98727,0.07585
4261.91574,0.06837
4263.84421,0.06364
4265.77267,0.06602
4267.70114,0.07043
4269.62961,0.06921
4271.55808,0.06578
4273.48655,0.06663
4275.41502,0.06575
4277.34349,0.06076
4279.27195,0.05877
4281.20042,0.05863
4283.12889,0.05306
4285.05736,0.04438
4286.98583,0.04156
4288.91430,0.04872
4290.84277,0.05804
4292.77124,0.05915
4294.69970,0.05815
4296.62817,0.06184
4298.55664,0.06380
4300.48511,0.05892
4302.41358,0.05327
4304.34205,0.05654
4306.27052,0.06406
4308.19898,0.06911
4310.12745,0.07405
4312.05592,0.07434
4313.98439,0.06950
4315.91286,0.06816
4317.84133,0.06702
4319.76980,0.05948
4321.69827,0.05132
4323.62673,0.04711
4325.55520,0.04657
4327.48367,0.04720
4329.41214,0.04504
4331.34061,0.04339
4333.26908,0.04675
4335.19755,0.05539
4337.12601,0.06369
4339.05448,0.06159
4340.98295,0.05622
4342.91142,0.06107
4344.83989,0.06681
4346.76836,0.06112
4348.69683,0.05028
4350.62530,0.04342
4352.55376,0.04322
4354.48223,0.04878
4356.41070,0.05272
4358.33917,0.05054
4360.26764,0.04740
4362.19611,0.04450
4364.12458,0.04101
4366.05304,0.03929
4367.98151,0.03948
4369.90998,0.04048
4371.83845,0.04155
4373.76692,0.04394
4375.69539,0.04553
4377.62386,0.04447
4379.55232,0.04491
4381.48079,0.04359
4383.40926,0.03745
4385.33773,0.03550
4387.26620,0.04104
4389.19467,0.04660
4391.12314,0.04994
4393.05161,0.05082
4394.98007,0.04669
4396.90854,0.04244
4398.83701,0.04011
4400.76548,0.03758
4402.69395,0.03962
4404.62242,0.04470
4406.55089,0.04163
4408.47935,0.03261
4410.40782,0.03212
4412.33629,0.03795
4414.26476,0.03775
4416.19323,0.03197
4418.12170,0.02570
4420.05017,0.02325
4421.97864,0.02543
4423.90710,0.02743
4425.83557,0.03100
4427.76404,0.03627
4429.69251,0.03703
4431.62098,0.03672
4433.54945,0.03969
4435.47792,0.04524
4437.40638,0.05388
4439.33485,0.05734
4441.26332,0.04516
4443.19179,0.02838
4445.12026,0.02449
4447.04873,0.02789
4448.97720,0.02975
4450.90567,0.03215
4452.83413,0.03173
4454.76260,0.02530
4456.69107,0.01853
4458.61954,0.01861
4460.54801,0.02352
4462.47648,0.02371
4464.40495,0.02000
4466.33341,0.02439
4468.26188,0.03530
4470.19035,0.03860
4472.11882,0.03377
4474.04729,0.02928
4475.97576,0.02928
4477.90423,0.03170
4479.83270,0.03039
4481.76116,0.02518
4483.68963,0.01964
4485.61810,0.01441
4487.54657,0.01110
4489.47504,0.01568
4491.40351,0.02557
4493.33198,0.02871
4495.26044,0.02512
4497.18891,0.02308
4499.11738,0.02650
4501.04585,0.02956
4502.97432,0.02595
4504.90279,0.02153
4506.83126,0.01818
4508.75973,0.01422
4510.68819,0.01352
4512.61666,0.01639
4514.54513,0.01643
4516.47360,0.00894
4518.40207,0.00248
4520.33054,0.00753
4522.25901,0.02280
4524.18747,0.03395
4526.11594,0.02971
4528.04441,0.02291
4529.97288,0.02634
4531.90135,0.02824
4533.82982,0.01899
4535.75829,0.00978
4537.68676,0.00991
4539.61522,0.01627
4541.54369,0.02218
4543.47216,0.02435
4545.40063,0.02151
4547.32910,0.01117
4549.25757,0.00269
4551.18604,0.00228
4553.11450,0.00313
4555.04297,0.00623
4556.97144,0.01031
4558.89991,0.01081
4560.82838,0.01330
4562.75685,0.01953
4564.68532,0.02146
4566.61378,0.01446
4568.54225,0.00804
4570.47072,0.01299
4572.39919,0.02267
4574.32766,0.02659
4576.25613,0.02267
4578.18460,0.01537
4580.11307,0.01539
4582.04153,0.02456
4583.97000,0.03458
4585.89847,0.03716
4587.82694,0.02929
4589.75541,0.02019
4591.68388,0.01758
4593.61235,0.01587
4595.54081,0.01143
4597.46928,0.00951
4599.39775,0.01125
4601.32622,0.01014
4603.25469,0.00234
4605.18316,-0.00321
4607.11163,-0.00118
4609.04010,0.00132
4610.96856,0.00561
4612.89703,0.01396
4614.82550,0.02187
4616.75397,0.02865
4618.68244,0.03111
4620.61091,0.02069
4622.53938,0.00544
4624.46784,0.00179
4626.39631,0.00204
4628.32478,-0.00380
4630.25325,-0.00560
4632.18172,0.00023
4634.11019,0.00397
4636.03866,0.00470
4637.96713,0.00485
4639.89559,0.00373
4641.82406,0.00722
4643.75253,0.01197
4645.68100,0.00999
4647.60947,0.00973
4649.53794,0.01560
4651.46641,0.01677
4653.39487,0.01085
4655.32334,0.00423
4657.25181,0.00209
4659.18028,0.00598
4661.10875,0.01219
4663.03722,0.02349
4664.96569,0.03641
4666.89416,0.03668
4668.82262,0.02831
4670.75109,0.02571
4672.67956,0.02489
4674.60803,0.01662
4676.53650,0.00799
4678.46497,0.00737
4680.39344,0.01469
4682.32190,0.02333
4684.25037,0.02317
4686.17884,0.01518
4688.10731,0.00605
4690.03578,0.00191
4691.96425,0.00854
4693.89272,0.01837
4695.82119,0.01814
4697.74965,0.01263
4699.67812,0.01579
4701.60659,0.02077
4703.53506,0.01160
4705.46353,-0.00208
4707.39200,-0.00382
4709.32047,0.00244
4711.24893,0.00555
4713.17740,0.00352
4715.10587,0.00662
4717.03434,0.01660
4718.96281,0.02114
4720.89128,0.01840
4722.81975,0.01739
4724.74821,0.01918
4726.67668,0.01272
4728.60515,0.00259
4730.53362,0.00421
4732.46209,0.00627
4734.39056,0.00093
4736.31903,0.00262
4738.24750,0.00812
4740.17596,0.00792
4742.10443,0.00819
4744.03290,0.01348
4745.96137,0.01878
4747.88984,0.02129
4749.81831,0.03152
4751.74678,0.04803
4753.67524,0.05131
4755.60371,0.04212
4757.53218,0.03165
4759.46065,0.01908
4761.38912,0.00435
4763.31759,-0.00547
4765.24606,-0.00404
4767.17453,0.00190
4769.10299,0.00177
4771.03146,-0.00258
4772.95993,-0.00152
4774.88840,0.00745
4776.81687,0.01590
4778.74534,0.02038
4780.67381,0.02143
4782.60227,0.01935
4784.53074,0.01887
4786.45921,0.01707
4788.38768,0.00519
4790.31615,-0.00945
4792.24462,-0.01172
4794.17309,-0.00258
4796.10156,0.00742
4798.03002,0.00995
4799.95849,0.00584
4801.88696,0.00572
4803.81543,0.01066
4805.74390,0.00827
4807.67237,-0.00212
4809.60084,-0.00490
4811.52930,0.00235
4813.45777,0.01162
4815.38624,0.01732
4817.31471,0.01213
4819.24318,0.00513
4821.17165,0.01094
4823.10012,0.02431
4825.02859,0.03242
4826.95705,0.02812
4828.88552,0.01600
4830.81399,0.00722
4832.74246,0.00234
4834.67093,-0.00127
4836.59940,-0.00355
4838.52787,-0.00944
4840.45633,-0.01813
4842.38480,-0.02048
4844.31327,-0.01095
4846.24174,0.00453
4848.17021,0.01179
4850.09868,0.00560
4852.02715,-0.00365
4853.95562,0.00019
4855.88408,0.01679
4857.81255,0.02823
4859.74102,0.03121
4861.66949,0.03499
4863.59796,0.02870
4865.52643,0.00630
4867.45490,-0.01069
4869.38336,-0.00942
4871.31183,-0.00374
4873.24030,-0.00748
4875.16877,-0.01062
4877.09724,-0.00464
4879.02571,0.00255
4880.95418,0.01062
4882.88265,0.01741
4884.81111,0.01929
4886.73958,0.02361
4888.66805,0.02727
4890.59652,0.02039
4892.52499,0.00930
4894.45346,0.00831
4896.38193,0.01818
4898.31039,0.02500
4900.23886,0.01714
4902.16733,-0.00038
4904.09580,-0.00744
4906.02427,0.00435
4907.95274,0.01646
4909.88121,0.01475
4911.80967,0.00759
4913.73814,0.01277
4915.66661,0.02784
4917.59508,0.03044
4919.52355,0.01539
4921.45202,0.00013
4923.38049,-0.00283
4925.30896,0.00614
4927.23742,0.01913
4929.16589,0.02368
4931.09436,0.01689
4933.02283,0.01185
4934.95130,0.01381
4936.87977,0.01552
4938.80824,0.01868
4940.73670,0.02409
4942.66517,0.02014
4944.59364,0.00790
4946.52211,0.00288
4948.45058,0.00531
4950.37905,0.00772
4952.30752,0.01118
4954.23599,0.01379
4956.16445,0.00517
4958.09292,-0.00801
4960.02139,-0.00500
4961.94986,0.00752
4963.87833,0.00973
4965.80680,0.00440
4967.73527,0.00506
4969.66373,0.01131
4971.59220,0.01184
4973.52067,0.00349
4975.44914,-0.01075
4977.37761,-0.01733
4979.30608,-0.00237
4981.23455,0.01414
4983.16302,0.01022
4985.09148,-0.00087
4987.01995,-0.00155
4988.94842,0.00972
4990.87689,0.01907
4992.80536,0.01978
4994.73383,0.02146
4996.66230,0.02206
4998.59076,0.02333
5000.51923,0.02836
5002.44770,0.02435
5004.37617,0.01380
5006.30464,0.01126
5008.23311,0.01751
5010.16158,0.01990
5012.09005,0.00938
5014.01851,-0.00697
5015.94698,-0.02095
5017.87545,-0.02299
5019.80392,-0.00184
5021.73239,0.03376
5023.66086,0.05605
5025.58933,0.04895
5027.51779,0.02835
5029.44626,0.01529
5031.37473,0.01335
5033.30320,0.01558
5035.23167,0.01486
5037.16014,0.01719
5039.08861,0.02565
5041.01708,0.02997
5042.94554,0.02017
5044.87401,0.00634
5046.80248,0.00933
5048.73095,0.01924
5050.65942,0.02206
5052.58789,0.01887
5054.51636,0.00987
5056.44482,0.00461
5058.37329,0.00722
5060.30176,0.01310
5062.23023,0.02012
5064.15870,0.02647
5066.08717,0.03114
5068.01564,0.03772
5069.94410,0.04575
5071.87257,0.04437
5073.80104,0.03424
5075.72951,0.02386
5077.65798,0.01440
5079.58645,0.01238
5081.51492,0.02051
5083.44339,0.02582
5085.37185,0.02880
5087.30032,0.03883
5089.22879,0.04975
5091.15726,0.05143
5093.08573,0.03763
5095.01420,0.02025
5096.94267,0.01370
5098.87113,0.01447
5100.79960,0.01792
5102.72807,0.01688
5104.65654,0.01833
5106.58501,0.03480
5108.51348,0.05378
5110.44195,0.06108
5112.37042,0.05528
5114.29888,0.04472
5116.22735,0.03623
5118.15582,0.03067
5120.08429,0.03514
5122.01276,0.04945
5123.94123,0.06570
5125.86970,0.07388
5127.79816,0.06488
5129.72663,0.06360
5131.65510,0.08142
5133.58357,0.08166
5135.51204,0.06205
5137.44051,0.04772
5139.36898,0.04240
5141.29745,0.04930
5143.22591,0.06113
5145.15438,0.06165
5147.08285,0.04628
5149.01132,0.02211
5150.93979,0.00863
5152.86826,0.01213
5154.79673,0.02166
5156.72519,0.04239
5158.65366,0.07030
5160.58213,0.07254
5162.51060,0.04333
5164.43907,0.01740
5166.36754,0.01639
5168.29601,0.03052
5170.22448,0.04615
5172.15294,0.05069
5174.08141,0.03534
5176.00988,0.01326
5177.93835,0.00721
5179.86682,0.01708
5181.79529,0.03013
5183.72376,0.03261
5185.65222,0.02393
5187.58069,0.02918
5189.50916,0.04383
5191.43763,0.04571
5193.36610,0.04589
5195.29457,0.05590
5197.22304,0.06468
5199.15151,0.06195
5201.07997,0.05305
5203.00844,0.04520
5204.93691,0.04037
5206.86538,0.04002
5208.79385,0.03937
5210.72232,0.03379
5212.65079,0.03171
5214.57925,0.03518
5216.50772,0.03221
5218.43619,0.02793
5220.36466,0.03240
5222.29313,0.03869
5224.22160,0.04831
5226.15007,0.06253
5228.07854,0.06969
5230.00700,0.06635
5231.93547,0.05488
5233.86394,0.03708
5235.79241,0.02040
5237.72088,0.01763
5239.64935,0.03173
5241.57782,0.05452
5243.50628,0.08324
5245.43475,0.09752
5247.36322,0.07948
5249.29169,0.06048
5251.22016,0.06065
5253.14863,0.06356
5255.07710,0.05713
5257.00556,0.04319
5258.93403,0.05103
5260.86250,0.08280
5262.79097,0.08927
5264.71944,0.06075
5266.64791,0.03409
5268.57638,0.01959
5270.50485,0.02395
5272.43331,0.04682
5274.36178,0.05621
5276.29025,0.03990
5278.21872,0.03612
5280.14719,0.06092
5282.07566,0.07465
5284.00413,0.06258
5285.93259,0.04814
5287.86106,0.04086
5289.78953,0.04473
5291.71800,0.06386
5293.64647,0.06854
5295.57494,0.04129
5297.50341,0.01648
5299.43188,0.02693
5301.36034,0.04871
5303.28881,0.04803
5305.21728,0.04091
5307.14575,0.04648
5309.07422,0.05493
5311.00269,0.04835
5312.93116,0.02808
5314.85962,0.02155
5316.78809,0.03369
5318.71656,0.04551
5320.64503,0.05010
5322.57350,0.05228
5324.50197,0.06032
5326.43044,0.05839
5328.35891,0.04022
5330.28737,0.03849
5332.21584,0.05526
5334.14431,0.05746
5336.07278,0.04196
5338.00125,0.03395
5339.92972,0.03813
5341.85819,0.04828
5343.78665,0.06418
5345.71512,0.08193
5347.64359,0.09447
5349.57206,0.08860
5351.50053,0.06978
5353.42900,0.06187
5355.35747,0.07379
5357.28594,0.08394
5359.21440,0.07010
5361.14287,0.04992
5363.07134,0.06070
5364.99981,0.10224
5366.92828,0.12115
5368.85675,0.09270
5370.78522,0.06566
5372.71368,0.07125
5374.64215,0.09182
5376.57062,0.10324
5378.49909,0.08693
5380.42756,0.05623
5382.35603,0.03820
5384.28450,0.04241
5386.21297,0.05599
5388.14143,0.06002
5390.06990,0.04908
5391.99837,0.04236
5393.92684,0.05980
5395.85531,0.07684
5397.78378,0.08339
5399.71225,0.09506
5401.64071,0.09557
5403.56918,0.07382
5405.49765,0.05538
5407.42612,0.05135
5409.35459,0.03419
5411.28306,0.01719
5413.21153,0.04854
5415.13999,0.09570
5417.06846,0.09888
5418.99693,0.05984
5420.92540,0.01844
5422.85387,0.00247
5424.78234,0.00388
5426.71081,0.02050
5428.63928,0.05498
5430.56774,0.08890
5432.49621,0.10080
5434.42468,0.08048
5436.35315,0.05382
5438.28162,0.05498
5440.21009,0.07503
5442.13856,0.09151
5444.06702,0.08946
5445.99549,0.08444
5447.92396,0.09049
5449.85243,0.08673
5451.78090,0.08273
5453.70937,0.07891
5455.63784,0.05790
5457.56631,0.05669
5459.49477,0.08375
5461.42324,0.08182
5463.35171,0.05161
5465.28018,0.04571
5467.20865,0.06629
5469.13712,0.08271
5471.06559,0.09176
5472.99405,0.09980
5474.92252,0.09387
5476.85099,0.07594
5478.77946,0.06891
5480.70793,0.06313
5482.63640,0.05166
5484.56487,0.05178
5486.49334,0.06481
5488.42180,0.07508
5490.35027,0.07643
5492.27874,0.08104
5494.20721,0.09351
5496.13568,0.09697
5498.06415,0.08412
5499.99262,0.06757
5501.92108,0.05273
5503.84955,0.04065
5505.77802,0.04482
5507.70649,0.05394
5509.63496,0.05622
5511.56343,0.07162
5513.49190,0.09513
5515.42037,0.09805
5517.34883,0.07882
5519.27730,0.06334
5521.20577,0.07417
5523.13424,0.10134
5525.06271,0.10333
5526.99118,0.07120
5528.91965,0.04488
5530.84811,0.04691
5532.77658,0.06229
5534.70505,0.07503
5536.63352,0.07889
5538.56199,0.06503
5540.49046,0.04100
5542.41893,0.03411
5544.34740,0.04808
5546.27586,0.06258
5548.20433,0.06581
5550.13280,0.06737
5552.06127,0.07370
5553.98974,0.07601
5555.91821,0.07450
5557.84668,0.07699
5559.77514,0.08420
5561.70361,0.08792
5563.63208,0.08723
5565.56055,0.08420
5567.48902,0.07787
5569.41749,0.07103
5571.34596,0.06359
5573.27443,0.06273
5575.20289,0.06634
5577.13136,0.06496
5579.05983,0.06775
5580.98830,0.07858
5582.91677,0.08362
5584.84524,0.08243
5586.77371,0.09091
5588.70217,0.09575
5590.63064,0.07172
5592.55911,0.03984
5594.48758,0.03519
5596.41605,0.05289
5598.34452,0.06047
5600.27299,0.05186
5602.20145,0.05140
5604.12992,0.06157
5606.05839,0.07069
5607.98686,0.07844
5609.91533,0.07285
5611.84380,0.04860
5613.77227,0.02659
5615.70074,0.02966
5617.62920,0.06130
5619.55767,0.08499
5621.48614,0.07730
5623.41461,0.05995
5625.34308,0.03281
5627.27155,0.00084
5629.20002,0.00384
5631.12848,0.03137
5633.05695,0.05599
5634.98542,0.08515
5636.91389,0.10084
5638.84236,0.08174
5640.77083,0.06234
5642.69930,0.07227
5644.62777,0.09609
5646.55623,0.11714
5648.48470,0.13035
5650.41317,0.11711
5652.34164,0.07617
5654.27011,0.04843
5656.19858,0.05728
5658.12705,0.07930
5660.05551,0.09123
5661.98398,0.08990
5663.91245,0.07072
5665.84092,0.04453
5667.76939,0.04762
5669.69786,0.08911
5671.62633,0.13497
5673.55480,0.15553
5675.48326,0.14044
5677.41173,0.11600
5679.34020,0.12445
5681.26867,0.13779
5683.19714,0.11882
5685.12561,0.08306
5687.05408,0.05881
5688.98254,0.06644
5690.91101,0.08651
5692.83948,0.08488
5694.76795,0.07082
5696.69642,0.06915
5698.62489,0.07623
5700.55336,0.09361
5702.48183,0.12013
5704.41029,0.11702
5706.33876,0.09584
5708.26723,0.09315
5710.19570,0.08682
5712.12417,0.07986
5714.05264,0.10509
5715.98111,0.12909
5717.90957,0.12039
5719.83804,0.10200
5721.76651,0.08996
5723.69498,0.09400
5725.62345,0.12285
5727.55192,0.15654
5729.48039,0.15717
5731.40886,0.13325
5733.33732,0.12053
5735.26579,0.11908
5737.19426,0.12789
5739.12273,0.14927
5741.05120,0.15157
5742.97967,0.11551
5744.90814,0.06643
5746.83660,0.04031
5748.76507,0.04747
5750.69354,0.05973
5752.62201,0.04819
5754.55048,0.01675
5756.47895,-0.00504
5758.40742,0.02662
5760.33588,0.09990
5762.26435,0.13577
5764.19282,0.10624
5766.12129,0.06678
5768.04976,0.05595
5769.97823,0.05882
5771.90670,0.04923
5773.83517,0.03861
5775.76363,0.05319
5777.69210,0.06955
5779.62057,0.06876
5781.54904,0.06825
5783.47751,0.07621
5785.40598,0.07562
5787.33445,0.04554
5789.26291,0.02544
5791.19138,0.04119
5793.11985,0.07410
5795.04832,0.11162
5796.97679,0.11537
5798.90526,0.08695
5800.83373,0.07031
5802.76220,0.06821
5804.69066,0.07082
5806.61913,0.08331
5808.54760,0.09451
5810.47607,0.09806
5812.40454,0.09440
5814.33301,0.06873
5816.26148,0.03299
5818.18994,0.01992
5820.11841,0.03153
5822.04688,0.02823
5823.97535,0.00880
5825.90382,0.00916
5827.83229,0.00999
5829.76076,0.00584
5831.68923,0.02929
5833.61769,0.07013
5835.54616,0.10249
5837.47463,0.11025
5839.40310,0.09463
5841.33157,0.09915
5843.26004,0.13973
5845.18851,0.17596
5847.11697,0.19424
5849.04544,0.20326
5850.97391,0.18848
5852.90238,0.15017
5854.83085,0.10413
5856.75932,0.06055
5858.68779,0.04513
5860.61626,0.05804
5862.54472,0.08109
5864.47319,0.09824
5866.40166,0.07136
5868.33013,0.03427
5870.25860,0.04030
5872.18707,0.05962
5874.11554,0.06549
5876.04400,0.06901
5877.97247,0.07885
5879.90094,0.08997
5881.82941,0.10245
5883.75788,0.10938
5885.68635,0.10314
5887.61482,0.08595
5889.54329,0.06552
5891.47175,0.06176
5893.40022,0.07093
5895.32869,0.08786
5897.25716,0.12773
5899.18563,0.17038
5901.11410,0.16714
5903.04257,0.11805
5904.97103,0.08659
5906.89950,0.07979
5908.82797,0.05707
5910.75644,0.05339
5912.68491,0.08908
5914.61338,0.10821
5916.54185,0.10960
5918.47032,0.11817
5920.39878,0.09316
5922.32725,0.03207
5924.25572,0.00956
5926.18419,0.04045
5928.11266,0.07269
5930.04113,0.08737
5931.96960,0.10872
5933.89806,0.16258
5935.82653,0.19931
5937.75500,0.15586
5939.68347,0.07523
5941.61194,0.02749
5943.54041,0.03562
5945.46888,0.07583
5947.39734,0.10447
5949.32581,0.10254
5951.25428,0.09964
5953.18275,0.11074
5955.11122,0.10197
5957.03969,0.08404
5958.96816,0.10177
5960.89663,0.12452
5962.82509,0.11683
5964.75356,0.10184
5966.68203,0.09319
5968.61050,0.09819
5970.53897,0.08810
5972.46744,0.04869
5974.39591,0.03819
5976.32437,0.06974
5978.25284,0.09688
5980.18131,0.08127
5982.10978,0.05172
5984.03825,0.06523
5985.96672,0.08981
5987.89519,0.08982
5989.82366,0.10940
5991.75212,0.13537
5993.68059,0.10100
5995.60906,0.04444
5997.53753,0.03968
5999.46600,0.04884
6001.39447,0.03207
6003.32294,0.02960
6005.25140,0.06720
6007.17987,0.10694
6009.10834,0.12991
6011.03681,0.11738
6012.96528,0.06567
6014.89375,0.03671
6016.82222,0.06648
6018.75069,0.10560
6020.67915,0.09342
6022.60762,0.05201
6024.53609,0.04469
6026.46456,0.08629
6028.39303,0.12458
6030.32150,0.11400
6032.24997,0.08697
6034.17843,0.08861
6036.10690,0.10377
6038.03537,0.08528
6039.96384,0.05225
6041.89231,0.04592
6043.82078,0.04189
6045.74925,0.02535
6047.67772,0.03645
6049.60618,0.08653
6051.53465,0.11642
6053.46312,0.08854
6055.39159,0.06492
6057.32006,0.11662
6059.24853,0.18195
6061.17700,0.16568
6063.10546,0.09596
6065.03393,0.07345
6066.96240,0.08882
6068.89087,0.07563
6070.81934,0.06350
6072.74781,0.09946
6074.67628,0.12508
6076.60475,0.10123
6078.53321,0.08749
6080.46168,0.08889
6082.39015,0.07317
6084.31862,0.06410
6086.24709,0.07743
6088.17556,0.08264
6090.10403,0.02636
6092.03249,-0.06763
6093.96096,-0.08637
6095.88943,-0.01310
6097.81790,0.05772
6099.74637,0.06770
6101.67484,0.04909
6103.60331,0.06330
6105.53177,0.09685
6107.46024,0.12716
6109.38871,0.16207
6111.31718,0.16735
6113.24565,0.14653
6115.17412,0.14129
6117.10259,0.14630
6119.03106,0.16441
6120.95952,0.18381
6122.88799,0.15102
6124.81646,0.09164
6126.74493,0.06454
6128.67340,0.03814
6130.60187,0.00422
6132.53034,0.00596
6134.45880,0.02205
6136.38727,0.04560
6138.31574,0.09984
6140.24421,0.16582
6142.17268,0.18508
6144.10115,0.15186
6146.02962,0.13709
6147.95809,0.15021
6149.88655,0.15348
6151.81502,0.14838
6153.74349,0.14340
6155.67196,0.12384
6157.60043,0.07656
6159.52890,0.00615
6161.45737,-0.03975
6163.38583,-0.01196
6165.31430,0.04021
6167.24277,0.05751
6169.17124,0.05834
6171.09971,0.05712
6173.02818,0.06716
6174.95665,0.09206
6176.88512,0.09319
6178.81358,0.04659
6180.74205,0.01085
6182.67052,0.04238
6184.59899,0.09660
6186.52746,0.13715
6188.45593,0.15271
6190.38440,0.12240
6192.31286,0.08355
6194.24133,0.07158
6196.16980,0.08230
6198.09827,0.10706
6200.02674,0.12958
6201.95521,0.13804
6203.88368,0.15818
6205.81215,0.20032
6207.74061,0.20924
6209.66908,0.16192
6211.59755,0.10721
6213.52602,0.06878
6215.45449,0.02281
6217.38296,-0.00705
6219.31143,0.01108
6221.23989,0.04474
6223.16836,0.05128
6225.09683,0.02756
6227.02530,0.01710
6228.95377,0.03898
6230.88224,0.06347
6232.81071,0.06843
6234.73918,0.06374
6236.66764,0.08627
6238.59611,0.13590
6240.52458,0.14558
6242.45305,0.07151
6244.38152,-0.00740
6246.30999,0.00957
6248.23846,0.07613
6250.16692,0.09449
6252.09539,0.08705
6254.02386,0.09428
6255.95233,0.07559
6257.88080,0.05187
6259.80927,0.06352
6261.73774,0.05686
6263.66621,0.01640
6265.59467,0.00495
6267.52314,0.03246
6269.45161,0.05926
6271.38008,0.06325
6273.30855,0.05685
6275.23702,0.09198
6277.16549,0.13621
6279.09395,0.12843
6281.02242,0.10433
6282.95089,0.09541
6284.87936,0.09484
6286.80783,0.09102
6288.73630,0.10426
6290.66477,0.14463
6292.59323,0.18570
6294.52170,0.21804
6296.45017,0.22745
6298.37864,0.20604
6300.30711,0.15133
6302.23558,0.06058
6304.16405,-0.03039
6306.09252,-0.05677
6308.02098,0.01807
6309.94945,0.09913
6311.87792,0.07366
6313.80639,0.01857
6315.73486,0.06053
6317.66333,0.15375
6319.59180,0.16878
6321.52026,0.08639
6323.44873,0.03276
6325.37720,0.07562
6327.30567,0.10686
6329.23414,0.08288
6331.16261,0.05239
6333.09108,-0.00690
6335.01955,-0.03811
6336.94801,0.03280
6338.87648,0.12777
6340.80495,0.17238
6342.73342,0.16751
6344.66189,0.12905
6346.59036,0.08732
6348.51883,0.04861
6350.44729,-0.00740
6352.37576,-0.03171
6354.30423,0.01372
6356.23270,0.06534
6358.16117,0.05348
6360.08964,-0.00014
6362.01811,-0.01986
6363.94658,0.01750
6365.87504,0.10074
6367.80351,0.17028
6369.73198,0.15744
6371.66045,0.11054
6373.58892,0.08472
6375.51739,0.06771
6377.44586,0.09413
6379.37432,0.16509
6381.30279,0.17459
6383.23126,0.07739
6385.15973,-0.02460
6387.08820,-0.05823
6389.01667,-0.03373
6390.94514,0.00480
6392.87361,0.02835
6394.80207,0.06447
6396.73054,0.08196
6398.65901,0.08164
6400.58748,0.09586
6402.51595,0.06223
6404.44442,0.00330
6406.37289,0.01785
6408.30135,0.05008
6410.22982,0.02604
6412.15829,-0.00122
6414.08676,0.02459
6416.01523,0.09184
6417.94370,0.14415
6419.87217,0.13123
6421.80064,0.07218
6423.72910,0.00960
6425.65757,-0.02025
6427.58604,0.00701
6429.51451,0.09624
6431.44298,0.17993
6433.37145,0.16848
6435.29992,0.11009
6437.22838,0.07162
6439.15685,0.04914
6441.08532,0.02282
6443.01379,0.00273
6444.94226,0.04298
6446.87073,0.12036
6448.79920,0.11619
6450.72766,0.03754
6452.65613,0.01620
6454.58460,0.04998
6456.51307,0.06612
6458.44154,0.05200
6460.37001,0.05457
6462.29848,0.09714
6464.22695,0.10750
6466.15541,0.05070
6468.08388,-0.01595
6470.01235,-0.04850
6471.94082,-0.06304
6473.86929,-0.07954
6475.79776,-0.04340
6477.72623,0.04199
6479.65469,0.08052
6481.58316,0.05664
6483.51163,0.00884
6485.44010,-0.01439
6487.36857,0.02671
6489.29704,0.11007
6491.22551,0.16415
6493.15398,0.15901
6495.08244,0.13231
6497.01091,0.07697
6498.93938,-0.02202
6500.86785,-0.10586
6502.79632,-0.09774
6504.72479,-0.02821
6506.65326,0.01675
6508.58172,0.04323
6510.51019,0.07371
6512.43866,0.05403
6514.36713,-0.00435
6516.29560,-0.02871
6518.22407,-0.03363
6520.15254,-0.03744
6522.08101,0.00893
6524.00947,0.07608
6525.93794,0.09499
6527.86641,0.09673
6529.79488,0.09089
6531.72335,0.04619
6533.65182,-0.01185
6535.58029,-0.02603
6537.50875,0.03510
6539.43722,0.14120
6541.36569,0.19497
6543.29416,0.14969
6545.22263,0.06147
6547.15110,0.01213
6549.07957,0.04113
6551.00804,0.10840
6552.93650,0.12747
6554.86497,0.09169
6556.79344,0.08080
6558.72191,0.12580
6560.65038,0.14252
6562.57885,0.10141
6564.50732,0.07155
6566.43578,0.05639
6568.36425,0.05427
6570.29272,0.12943
6572.22119,0.21394
6574.14966,0.21141
6576.07813,0.16282
6578.00660,0.08733
6579.93507,-0.00378
6581.86353,-0.04784
6583.79200,-0.04205
6585.72047,-0.04162
6587.64894,-0.04640
6589.57741,-0.03324
6591.50588,-0.01473
6593.43435,-0.01161
6595.36281,-0.01873
6597.29128,0.01406
6599.21975,0.08550
6601.14822,0.11250
6603.07669,0.08014
6605.00516,0.05236
6606.93363,0.04805
6608.86210,0.07661
6610.79056,0.15327
6612.71903,0.22012
6614.64750,0.19428
6616.57597,0.12114
6618.50444,0.07214
6620.43291,0.04484
6622.36138,0.04376
6624.28984,0.06255
6626.21831,0.07824
6628.14678,0.10817
6630.07525,0.16858
6632.00372,0.19247
6633.93219,0.12384
6635.86066,0.02029
6637.78912,-0.04071
6639.71759,-0.08135
6641.64606,-0.11387
6643.57453,-0.08988
6645.50300,-0.01807
6647.43147,0.01366
6649.35994,0.00930
6651.28841,0.03957
6653.21687,0.10842
6655.14534,0.17931
6657.07381,0.19154
6659.00228,0.14941
6660.93075,0.12438
6662.85922,0.10882
6664.78769,0.08659
6666.71615,0.06266
6668.64462,0.05723
6670.57309,0.08975
6672.50156,0.13117
6674.43003,0.17488
6676.35850,0.18721
6678.28697,0.11008
6680.21544,0.00863
6682.14390,-0.03385
6684.07237,-0.01517
6686.00084,-0.00500
6687.92931,-0.07418
6689.85778,-0.13661
6691.78625,-0.10145
6693.71472,-0.02123
6695.64318,0.06286
6697.57165,0.08583
6699.50012,0.04716
6701.42859,0.05968
6703.35706,0.10379
6705.28553,0.07275
6707.21400,0.02075
6709.14247,0.03535
6711.07093,0.06397
6712.99940,0.06406
6714.92787,0.05687
6716.85634,0.07666
6718.78481,0.07829
6720.71328,0.01385
6722.64175,-0.01706
6724.57021,0.02209
6726.49868,0.08302
6728.42715,0.16248
6730.35562,0.20267
6732.28409,0.13434
6734.21256,0.03182
6736.14103,0.00322
6738.06950,0.03545
6739.99796,0.06866
6741.92643,0.03480
6743.85490,-0.02860
6745.78337,-0.00166
6747.71184,0.05556
6749.64031,0.05319
6751.56878,0.04251
6753.49724,0.02993
6755.42571,0.02349
6757.35418,0.06056
6759.28265,0.08036
6761.21112,0.08433
6763.13959,0.14712
6765.06806,0.18413
6766.99653,0.14261
6768.92499,0.11318
6770.85346,0.10931
6772.78193,0.08252
6774.71040,0.02521
6776.63887,-0.06788
6778.56734,-0.10061
6780.49581,-0.01902
6782.42427,0.07009
6784.35274,0.12781
6786.28121,0.14347
6788.20968,0.06449
6790.13815,-0.00965
6792.06662,-0.00502
6793.99509,-0.03188
6795.92355,-0.07146
6797.85202,-0.04746
6799.78049,-0.01142
6801.70896,-0.01742
6803.63743,-0.02642
6805.56590,0.00135
6807.49437,0.01409
6809.42284,0.02161
6811.35130,0.08460
6813.27977,0.14122
6815.20824,0.14355
6817.13671,0.15745
6819.06518,0.19023
6820.99365,0.20472
6822.92212,0.18383
6824.85058,0.16574
6826.77905,0.13260
6828.70752,0.02715
6830.63599,-0.03799
6832.56446,0.00389
6834.49293,0.05282
6836.42140,0.08048
6838.34987,0.08438
6840.27833,0.07151
6842.20680,0.10278
6844.13527,0.10627
6846.06374,0.03225
6847.99221,0.01080
6849.92068,0.01026
6851.84915,-0.03394
6853.77761,-0.00085
6855.70608,0.09046
6857.63455,0.10346
6859.56302,0.06830
6861.49149,0.08681
6863.41996,0.12425
6865.34843,0.12536
6867.27690,0.08414
6869.20536,-0.02246
6871.13383,-0.11087
6873.06230,-0.06527
6874.99077,0.02216
6876.91924,0.01879
6878.84771,-0.04295
6880.77618,-0.04628
6882.70464,0.05260
6884.63311,0.15681
6886.56158,0.17904
6888.49005,0.11926
6890.41852,0.05493
6892.34699,0.02467
6894.27546,-0.00264
6896.20393,0.01484
6898.13239,0.10755
6900.06086,0.19883
6901.98933,0.22113
6903.91780,0.17860
6905.84627,0.14044
6907.77474,0.11993
6909.70321,0.10484
6911.63167,0.10777
6913.56014,0.10898
6915.48861,0.07939
6917.41708,0.04459
6919.34555,0.11538
6921.27402,0.27146
6923.20249,0.34942
6925.13096,0.37627
6927.05942,0.42523
6928.98789,0.37473
6930.91636,0.14521
6932.84483,-0.06950
6934.77330,-0.13413
6936.70177,-0.10571
6938.63024,-0.02772
6940.55870,0.06215
6942.48717,0.11697
6944.41564,0.13303
6946.34411,0.12884
6948.27258,0.13162
6950.20105,0.15769
6952.12952,0.15269
6954.05799,0.05840
6955.98645,-0.02357
6957.91492,-0.00913
6959.84339,-0.00025
6961.77186,0.01907
6963.70033,0.09837
6965.62880,0.16195
6967.55727,0.19408
6969.48573,0.20557
6971.41420,0.15239
6973.34267,0.07491
6975.27114,0.01767
6977.19961,0.00176
6979.12808,0.09364
6981.05655,0.21134
6982.98501,0.17678
6984.91348,0.01728
6986.84195,-0.08013
6988.77042,-0.05136
6990.69889,0.08243
6992.62736,0.22830
6994.55583,0.23018
6996.48430,0.08603
6998.41276,-0.01450
7000.34123,-0.03318
7002.26970,-0.02823
7004.19817,0.03978
7006.12664,0.13782
7008.05511,0.19200
7009.98358,0.20315
7011.91204,0.18805
7013.84051,0.15909
7015.76898,0.12392
7017.69745,0.04047
7019.62592,-0.06128
7021.55439,-0.05594
7023.48286,0.07463
7025.41133,0.17406
7027.33979,0.14081
7029.26826,0.02710
7031.19673,-0.01978
7033.12520,0.12465
7035.05367,0.34015
7036.98214,0.35554
7038.91061,0.26006
7040.83907,0.26158
7042.76754,0.35538
7044.69601,0.31370
7046.62448,0.17803
7048.55295,0.16499
7050.48142,0.18965
7052.40989,0.17916
7054.33836,0.18287
7056.26682,0.26977
7058.19529,0.41926
7060.12376,0.42007
7062.05223,0.33899
7063.98070,0.32826
7065.90917,0.31897
7067.83764,0.31083
7069.76610,0.32979
7071.69457,0.25174
7073.62304,0.10620
7075.55151,-0.00020
7077.47998,-0.04970
7079.40845,0.03203
7081.33692,0.15853
7083.26539,0.10609
7085.19385,-0.00856
7087.12232,-0.05949
7089.05079,-0.08339
7090.97926,-0.12334
7092.90773,-0.12044
7094.83620,-0.04719
7096.76467,0.00139
7098.69313,-0.02783
7100.62160,-0.04795
7102.55007,-0.01818
7104.47854,0.04412
7106.40701,0.11514
7108.33548,0.15706
7110.26395,0.19823
7112.19242,0.22074
7114.12088,0.15573
7116.04935,-0.00350
7117.97782,-0.11197
7119.90629,-0.01524
7121.83476,0.04748
7123.76323,-0.01562
7125.69170,-0.00217
7127.62016,0.10141
7129.54863,0.15317
7131.47710,0.19240
7133.40557,0.26179
7135.33404,0.24439
7137.26251,0.10544
7139.19098,0.01905
7141.11944,0.07626
7143.04791,0.02032
7144.97638,-0.16065
7146.90485,-0.11282
7148.83332,0.05633
7150.76179,0.13979
7152.69026,0.14162
7154.61873,0.07444
7156.54719,0.02731
7158.47566,0.04692
7160.40413,0.05474
7162.33260,-0.02857
7164.26107,-0.09492
7166.18954,-0.00466
7168.11801,0.16575
7170.04647,0.23634
7171.97494,0.15847
7173.90341,0.07377
7175.83188,0.01642
7177.76035,-0.04063
7179.68882,-0.07690
7181.61729,-0.07397
7183.54576,0.01883
7185.47422,0.14281
7187.40269,0.21255
7189.33116,0.21687
7191.25963,0.17407
7193.18810,0.11934
7195.11657,0.02268
7197.04504,-0.06461
7198.97350,-0.01442
7200.90197,0.08650
7202.83044,0.05522
7204.75891,-0.04057
7206.68738,0.03046
7208.61585,0.13985
7210.54432,0.14330
7212.47279,0.07723
7214.40125,0.04606
7216.32972,0.08665
7218.25819,0.17922
7220.18666,0.19141
7222.11513,0.10379
7224.04360,0.09427
7225.97207,0.23628
7227.90053,0.36587
7229.82900,0.31334
7231.75747,0.06679
7233.68594,-0.11718
7235.61441,-0.09973
7237.54288,0.01559
7239.47135,0.07540
7241.39982,0.07725
7243.32828,0.12284
7245.25675,0.18180
7247.18522,0.19353
7249.11369,0.21171
7251.04216,0.22435
7252.97063,0.08350
7254.89910,-0.06183
7256.82756,-0.01668
7258.75603,0.12179
7260.68450,0.29102
7262.61297,0.32680
7264.54144,0.17877
7266.46991,0.06422
7268.39838,0.05126
7270.32685,0.10973
7272.25531,0.18863
7274.18378,0.25225
7276.11225,0.31177
7278.04072,0.26870
7279.96919,0.10213
7281.89766,0.01721
7283.82613,-0.00316
7285.75459,0.03478
7287.68306,0.18926
7289.61153,0.25039
7291.54000,0.06833
7293.46847,-0.08453
7295.39694,-0.09647
7297.32541,-0.10386
7299.25387,-0.13643
7301.18234,-0.12017
7303.11081,-0.10098
7305.03928,-0.14361
7306.96775,-0.10322
7308.89622,-0.00563
7310.82469,-0.02625
7312.75316,-0.03413
7314.68162,0.05789
7316.61009,0.11898
7318.53856,0.02037
7320.46703,-0.03553
7322.39550,0.09103
7324.32397,0.21388
7326.25244,0.16543
7328.18090,0.08088
7330.10937,0.05145
7332.03784,0.02577
7333.96631,0.07830
7335.89478,0.25718
7337.82325,0.49662
7339.75172,0.47131
7341.68019,0.06116
7343.60865,-0.05425
7345.53712,0.10986
7347.46559,0.19501
7349.39406,0.13310
7351.32253,0.00119
7353.25100,-0.18592
7355.17947,-0.28325
7357.10793,-0.13173
7359.03640,0.09617
7360.96487,0.00170
7362.89334,-0.24784
7364.82181,-0.29149
7366.75028,-0.16022
7368.67875,0.02871
7370.60722,0.22383
7372.53568,0.34284
7374.46415,0.28702
7376.39262,0.05091
7378.32109,-0.04801
7380.24956,0.04809
7382.17803,0.08020
7384.10650,-0.12334
7386.03496,-0.21558
7387.96343,0.02112
7389.89190,0.24205
7391.82037,0.31375
7393.74884,0.34864
7395.67731,0.32721
7397.60578,0.23228
7399.53425,0.21535
7401.46271,0.25346
7403.39118,0.15318
7405.31965,0.05676
7407.24812,0.20640
7409.17659,0.37748
7411.10506,0.34054
7413.03353,0.19943
7414.96199,0.15864
7416.89046,0.22965
7418.81893,0.19646
7420.74740,0.06892
7422.67587,0.07376
7424.60434,0.11201
7426.53281,0.10331
7428.46128,0.05006
7430.38974,0.01615
7432.31821,0.08908
7434.24668,0.17298
7436.17515,0.14117
7438.10362,-0.00952
7440.03209,-0.13428
7441.96056,-0.15765
7443.88902,-0.08666
7445.81749,0.04767
7447.74596,0.15825
7449.67443,0.23510
7451.60290,0.27504
7453.53137,0.16968
7455.45984,-0.00354
7457.38831,-0.12180
7459.31677,-0.13253
7461.24524,0.01966
7463.17371,0.22760
7465.10218,0.30865
7467.03065,0.21759
7468.95912,0.10000
7470.88759,0.05867
7472.81605,0.11638
7474.74452,0.21847
7476.67299,0.34450
7478.60146,0.44613
7480.52993,0.39326
7482.45840,0.26301
7484.38687,0.21210
7486.31533,0.16386
7488.24380,0.12939
7490.17227,0.11718
7492.10074,0.00367
7494.02921,-0.07766
7495.95768,-0.04664
7497.88615,0.03208
