399.19301,1.16896
401.12148,0.18321
403.04995,-0.24768
404.97842,-0.26719
406.90689,-0.09725
408.83536,0.10999
410.76382,0.17123
412.69229,0.12583
414.62076,0.08914
416.54923,0.01930
418.47770,-0.11583
420.40617,-0.19747
422.33464,-0.09870
424.26311,0.09218
426.19157,0.16113
428.12004,0.06522
430.04851,-0.00761
431.97698,0.03381
433.90545,0.05571
435.83392,0.06858
437.76239,0.10181
439.69085,0.13638
441.61932,0.17155
443.54779,0.12382
445.47626,0.02190
447.40473,-0.00120
449.33320,0.03907
451.26167,0.06976
453.19013,0.13290
455.11860,0.23449
457.04707,0.22250
458.97554,0.07549
460.90401,0.00868
462.83248,0.06570
464.76095,0.12723
466.68942,0.13681
468.61788,0.13879
470.54635,0.13925
472.47482,0.11082
474.40329,0.08085
476.33176,0.08948
478.26023,0.11564
480.18870,0.13020
482.11716,0.11814
484.04563,0.11599
485.97410,0.11435
487.90257,0.08514
489.83104,0.07465
491.75951,0.11058
493.68798,0.14077
495.61645,0.14884
497.54491,0.17447
499.47338,0.19154
501.40185,0.17723
503.33032,0.15466
505.25879,0.14552
507.18726,0.14029
509.11573,0.12455
511.04419,0.12341
512.97266,0.13417
514.90113,0.12535
516.82960,0.09628
518.75807,0.08100
520.68654,0.08987
522.61501,0.11175
524.54348,0.14734
526.47194,0.17468
528.40041,0.17281
530.32888,0.16120
532.25735,0.15066
534.18582,0.13361
536.11429,0.11304
538.04276,0.10312
539.97122,0.11331
541.89969,0.12984
543.82816,0.13755
545.75663,0.13649
547.68510,0.12051
549.61357,0.14635
551.54204,0.35120
553.47051,0.57255
555.39897,0.46421
557.32744,0.18233
559.25591,0.06242
561.18438,0.05310
563.11285,0.06493
565.04132,0.08075
566.96979,0.07935
568.89825,0.08370
570.82672,0.10374
572.75519,0.11683
574.68366,0.10859
576.61213,0.10377
578.54060,0.13061
580.46907,0.15909
582.39754,0.13962
584.32600,0.10482
586.25447,0.10859
588.18294,0.13193
590.11141,0.13939
592.03988,0.14045
593.96835,0.14174
595.89682,0.12039
597.82528,0.09584
599.75375,0.10428
601.68222,0.12838
603.61069,0.13061
605.53916,0.10567
607.46763,0.08109
609.39610,0.08098
611.32456,0.09672
613.25303,0.10743
615.18150,0.10704
617.10997,0.10748
619.03844,0.11509
620.96691,0.11901
622.89538,0.12249
624.82385,0.13252
626.75231,0.14225
628.68078,0.14823
630.60925,0.14789
632.53772,0.13596
634.46619,0.11717
636.39466,0.10328
638.32313,0.10837
640.25159,0.13677
642.18006,0.16272
644.10853,0.16933
646.03700,0.15426
647.96547,0.11450
649.89394,0.08030
651.82241,0.07365
653.75088,0.07800
655.67934,0.09254
657.60781,0.11721
659.53628,0.12891
661.46475,0.11692
663.39322,0.09462
665.32169,0.07818
667.25016,0.07789
669.17862,0.10121
671.10709,0.12256
673.03556,0.12556
674.96403,0.12401
676.89250,0.13764
678.82097,0.15288
680.74944,0.15046
682.67791,0.14035
684.60637,0.13406
686.53484,0.13233
688.46331,0.13018
690.39178,0.12982
692.32025,0.13962
694.24872,0.15329
696.17719,0.15573
698.10565,0.14708
700.03412,0.14367
701.96259,0.14613
703.89106,0.14138
705.81953,0.13420
707.74800,0.13241
709.67647,0.13441
711.60494,0.14374
713.53340,0.15358
715.46187,0.15057
717.39034,0.14302
719.31881,0.14253
721.24728,0.14352
723.17575,0.13821
725.10422,0.13319
727.03268,0.13795
728.96115,0.14353
730.88962,0.14130
732.81809,0.14072
734.74656,0.14221
736.67503,0.13399
738.60350,0.12048
740.53197,0.11808
742.46043,0.12171
744.38890,0.11402
746.31737,0.10532
748.24584,0.11589
750.17431,0.13982
752.10278,0.15438
754.03125,0.14893
755.95971,0.13927
757.88818,0.14198
759.81665,0.14565
761.74512,0.14330
763.67359,0.14879
765.60206,0.15606
767.53053,0.15140
769.45900,0.14516
771.38746,0.14523
773.31593,0.14649
775.24440,0.14324
777.17287,0.13660
779.10134,0.13839
781.02981,0.14620
782.95828,0.14550
784.88674,0.14102
786.81521,0.13937
788.74368,0.13709
790.67215,0.13795
792.60062,0.13680
794.52909,0.12404
796.45756,0.11631
798.38602,0.12806
800.31449,0.14512
802.24296,0.14691
804.17143,0.13315
806.09990,0.12634
808.02837,0.13641
809.95684,0.14959
811.88531,0.15394
813.81377,0.14977
815.74224,0.14435
817.67071,0.13900
819.59918,0.13339
821.52765,0.13710
823.45612,0.15240
825.38459,0.16486
827.31305,0.16355
829.24152,0.15096
831.16999,0.13864
833.09846,0.13733
835.02693,0.14118
836.95540,0.14146
838.88387,0.14255
840.81234,0.14664
842.74080,0.14998
844.66927,0.14634
846.59774,0.13353
848.52621,0.12336
850.45468,0.12757
852.38315,0.14174
854.31162,0.15206
856.24008,0.15203
858.16855,0.14765
860.09702,0.14345
862.02549,0.14013
863.95396,0.13851
865.88243,0.13425
867.81090,0.12991
869.73937,0.13572
871.66783,0.14400
873.59630,0.14439
875.52477,0.14458
877.45324,0.14598
879.38171,0.14339
881.31018,0.14031
883.23865,0.13959
885.16711,0.14107
887.09558,0.14421
889.02405,0.14228
890.95252,0.13445
892.88099,0.13032
894.80946,0.13073
896.73793,0.13007
898.66640,0.12898
900.59486,0.13101
902.52333,0.13702
904.45180,0.14577
906.38027,0.15000
908.30874,0.14524
910.23721,0.14135
912.16568,0.14222
914.09414,0.14323
916.02261,0.14607
917.95108,0.15227
919.87955,0.15552
921.80802,0.15201
923.73649,0.15014
925.66496,0.15647
927.59343,0.16627
929.52189,0.16741
931.45036,0.15787
933.37883,0.15283
935.30730,0.15502
937.23577,0.15150
939.16424,0.14486
941.09271,0.14738
943.02117,0.15353
944.94964,0.15194
946.87811,0.14442
948.80658,0.13838
950.73505,0.14072
952.66352,0.15155
954.59199,0.15970
956.52045,0.15367
958.44892,0.13632
960.37739,0.12448
962.30586,0.12939
964.23433,0.14441
966.16280,0.15387
968.09127,0.15370
970.01974,0.15394
971.94820,0.15618
973.87667,0.15616
975.80514,0.15548
977.73361,0.15286
979.66208,0.14907
981.59055,0.15027
983.51902,0.15418
985.44748,0.15906
987.37595,0.16546
989.30442,0.16125
991.23289,0.14829
993.16136,0.14660
995.08983,0.15513
997.01830,0.15824
998.94677,0.15241
1000.87523,0.14547
1002.80370,0.14631
1004.73217,0.15433
1006.66064,0.16220
1008.58911,0.16871
1010.51758,0.16780
1012.44605,0.15368
1014.37451,0.13895
1016.30298,0.13364
1018.23145,0.13673
1020.15992,0.14715
1022.08839,0.15969
1024.01686,0.16140
1025.94533,0.16117
1027.87380,0.17705
1029.80226,0.18095
1031.73073,0.15867
1033.65920,0.14713
1035.58767,0.15277
1037.51614,0.15478
1039.44461,0.14935
1041.37308,0.14272
1043.30154,0.14242
1045.23001,0.15168
1047.15848,0.16542
1049.08695,0.17158
1051.01542,0.16995
1052.94389,0.17037
1054.87236,0.16712
1056.80083,0.15888
1058.72929,0.16066
1060.65776,0.17067
1062.58623,0.17190
1064.51470,0.16387
1066.44317,0.16015
1068.37164,0.16443
1070.30011,0.16783
1072.22857,0.16746
1074.15704,0.17014
1076.08551,0.17493
1078.01398,0.17879
1079.94245,0.17960
1081.87092,0.17217
1083.79939,0.16332
1085.72786,0.16072
1087.65632,0.15698
1089.58479,0.14938
1091.51326,0.15008
1093.44173,0.16475
1095.37020,0.18154
1097.29867,0.18812
1099.22714,0.18423
1101.15560,0.17752
1103.08407,0.17452
1105.01254,0.17414
1106.94101,0.17350
1108.86948,0.17425
1110.79795,0.17418
1112.72642,0.16962
1114.65489,0.16696
1116.58335,0.16852
1118.51182,0.16752
1120.44029,0.16416
1122.36876,0.15900
1124.29723,0.15360
1126.22570,0.15485
1128.15417,0.15794
1130.08263,0.15746
1132.01110,0.15919
1133.93957,0.16355
1135.86804,0.16547
1137.79651,0.16194
1139.72498,0.15517
1141.65345,0.15216
1143.58191,0.15513
1145.51038,0.15967
1147.43885,0.16336
1149.36732,0.16618
1151.29579,0.16543
1153.22426,0.16105
1155.15273,0.15792
1157.08120,0.15814
1159.00966,0.16225
1160.93813,0.16847
1162.86660,0.16840
1164.79507,0.16277
1166.72354,0.16126
1168.65201,0.16346
1170.58048,0.16389
1172.50894,0.16487
1174.43741,0.17180
1176.36588,0.17898
1178.29435,0.17764
1180.22282,0.17124
1182.15129,0.16697
1184.07976,0.16643
1186.00823,0.16501
1187.93669,0.15938
1189.86516,0.15521
1191.79363,0.15841
1193.72210,0.16664
1195.65057,0.17355
1197.57904,0.17561
1199.50751,0.17272
1201.43597,0.16704
1203.36444,0.16252
1205.29291,0.15954
1207.22138,0.15558
1209.14985,0.15372
1211.07832,0.15911
1213.00679,0.16887
1214.93526,0.17435
1216.86372,0.17310
1218.79219,0.17119
1220.72066,0.17057
1222.64913,0.16672
1224.57760,0.16151
1226.50607,0.16079
1228.43454,0.16346
1230.36300,0.16875
1232.29147,0.17467
1234.21994,0.17147
1236.14841,0.16110
1238.07688,0.15807
1240.00535,0.16270
1241.93382,0.16323
1243.86229,0.15810
1245.79075,0.15318
1247.71922,0.15165
1249.64769,0.15470
1251.57616,0.15820
1253.50463,0.15962
1255.43310,0.16342
1257.36157,0.16899
1259.29003,0.17128
1261.21850,0.16925
1263.14697,0.16472
1265.07544,0.16160
1267.00391,0.16204
1268.93238,0.16261
1270.86085,0.16247
1272.78932,0.16338
1274.71778,0.16243
1276.64625,0.15879
1278.57472,0.15594
1280.50319,0.15564
1282.43166,0.16030
1284.36013,0.16734
1286.28860,0.16709
1288.21706,0.16238
1290.14553,0.16239
1292.07400,0.16258
1294.00247,0.15947
1295.93094,0.15640
1297.85941,0.15215
1299.78788,0.14446
1301.71634,0.12879
1303.64481,0.10917
1305.57328,0.11051
1307.50175,0.13768
1309.43022,0.16004
1311.35869,0.16619
1313.28716,0.16904
1315.21563,0.17061
1317.14409,0.17076
1319.07256,0.17045
1321.00103,0.16625
1322.92950,0.16264
1324.85797,0.16136
1326.78644,0.15991
1328.71491,0.16076
1330.64337,0.15945
1332.57184,0.15643
1334.50031,0.15757
1336.42878,0.15784
1338.35725,0.15664
1340.28572,0.15292
1342.21419,0.14699
1344.14266,0.14613
1346.07112,0.14660
1347.99959,0.14913
1349.92806,0.15644
1351.85653,0.16101
1353.78500,0.16041
1355.71347,0.15861
1357.64194,0.15935
1359.57040,0.16227
1361.49887,0.16626
1363.42734,0.17007
1365.35581,0.17090
1367.28428,0.17168
1369.21275,0.17433
1371.14122,0.17727
1373.06969,0.18005
1374.99815,0.18281
1376.92662,0.18448
1378.85509,0.18451
1380.78356,0.18303
1382.71203,0.18076
1384.64050,0.17987
1386.56897,0.18055
1388.49743,0.18154
1390.42590,0.18408
1392.35437,0.18704
1394.28284,0.18660
1396.21131,0.18440
1398.13978,0.18552
1400.06825,0.18622
1401.99672,0.18261
1403.92518,0.17811
1405.85365,0.17515
1407.78212,0.17239
1409.71059,0.17174
1411.63906,0.17506
1413.56753,0.17827
1415.49600,0.18072
1417.42446,0.18507
1419.35293,0.18664
1421.28140,0.18464
1423.20987,0.18558
1425.13834,0.18525
1427.06681,0.18192
1428.99528,0.18125
1430.92375,0.18332
1432.85221,0.18615
1434.78068,0.19348
1436.70915,0.20234
1438.63762,0.20051
1440.56609,0.19476
1442.49456,0.19095
1444.42303,0.18785
1446.35149,0.18732
1448.27996,0.18638
1450.20843,0.18202
1452.13690,0.18217
1454.06537,0.19149
1455.99384,0.20880
1457.92231,0.21783
1459.85077,0.20580
1461.77924,0.19591
1463.70771,0.19354
1465.63618,0.19370
1467.56465,0.19416
1469.49312,0.19687
1471.42159,0.20182
1473.35006,0.20795
1475.27852,0.21017
1477.20699,0.20500
1479.13546,0.19678
1481.06393,0.18910
1482.99240,0.18364
1484.92087,0.18601
1486.84934,0.19795
1488.77780,0.21015
1490.70627,0.20772
1492.63474,0.19879
1494.56321,0.19555
1496.49168,0.19685
1498.42015,0.19651
1500.34862,0.19341
1502.27709,0.19453
1504.20555,0.20372
1506.13402,0.21662
1508.06249,0.21090
1509.99096,0.19920
1511.91943,0.19844
1513.84790,0.20395
1515.77637,0.20756
1517.70483,0.20549
1519.63330,0.20613
1521.56177,0.21036
1523.49024,0.20992
1525.41871,0.21021
1527.34718,0.21003
1529.27565,0.20518
1531.20412,0.20183
1533.13258,0.20246
1535.06105,0.20358
1536.98952,0.20788
1538.91799,0.21856
1540.84646,0.22688
1542.77493,0.22383
1544.70340,0.21363
1546.63186,0.20173
1548.56033,0.19590
1550.48880,0.19438
1552.41727,0.19387
1554.34574,0.19758
1556.27421,0.20614
1558.20268,0.21457
1560.13115,0.20614
1562.05961,0.19404
1563.98808,0.18925
1565.91655,0.18871
1567.84502,0.18932
1569.77349,0.18717
1571.70196,0.18437
1573.63043,0.18772
1575.55889,0.19475
1577.48736,0.19549
1579.41583,0.19168
1581.34430,0.18761
1583.27277,0.18272
1585.20124,0.17954
1587.12971,0.17886
1589.05818,0.17913
1590.98664,0.18100
1592.91511,0.18383
1594.84358,0.18561
1596.77205,0.18567
1598.70052,0.18407
1600.62899,0.18285
1602.55746,0.18400
1604.48592,0.18607
1606.41439,0.18716
1608.34286,0.18715
1610.27133,0.18510
1612.19980,0.18304
1614.12827,0.18737
1616.05674,0.19867
1617.98521,0.20255
1619.91367,0.19918
1621.84214,0.20097
1623.77061,0.20378
1625.69908,0.20035
1627.62755,0.19751
1629.55602,0.19677
1631.48449,0.19639
1633.41295,0.20110
1635.34142,0.21197
1637.26989,0.21299
1639.19836,0.20615
1641.12683,0.20224
1643.05530,0.20088
1644.98377,0.20421
1646.91223,0.21465
1648.84070,0.21881
1650.76917,0.21572
1652.69764,0.20992
1654.62611,0.20133
1656.55458,0.19782
1658.48305,0.19802
1660.41152,0.19917
1662.33998,0.19976
1664.26845,0.20031
1666.19692,0.20139
1668.12539,0.20498
1670.05386,0.20792
1671.98233,0.20536
1673.91080,0.20455
1675.83926,0.20498
1677.76773,0.20361
1679.69620,0.20405
1681.62467,0.20762
1683.55314,0.21247
1685.48161,0.21023
1687.41008,0.20446
1689.33855,0.20182
1691.26701,0.20277
1693.19548,0.20780
1695.12395,0.21628
1697.05242,0.22423
1698.98089,0.22653
1700.90936,0.21956
1702.83783,0.21414
1704.76629,0.21413
1706.69476,0.21003
1708.62323,0.20135
1710.55170,0.19394
1712.48017,0.19152
1714.40864,0.19913
1716.33711,0.21273
1718.26558,0.21012
1720.19404,0.19698
1722.12251,0.18927
1724.05098,0.18623
1725.97945,0.18752
1727.90792,0.19183
1729.83639,0.19607
1731.76486,0.20050
1733.69332,0.20391
1735.62179,0.20107
1737.55026,0.19823
1739.47873,0.19648
1741.40720,0.19463
1743.33567,0.19445
1745.26414,0.19531
1747.19261,0.19846
1749.12107,0.20288
1751.04954,0.20113
1752.97801,0.19574
1754.90648,0.19410
1756.83495,0.19550
1758.76342,0.19813
1760.69189,0.20162
1762.62035,0.19986
1764.54882,0.19350
1766.47729,0.19186
1768.40576,0.19581
1770.33423,0.20180
1772.26270,0.20573
1774.19117,0.20382
1776.11964,0.20047
1778.04810,0.19990
1779.97657,0.20119
1781.90504,0.19897
1783.83351,0.19314
1785.76198,0.18889
1787.69045,0.18989
1789.61892,0.19677
1791.54738,0.20433
1793.47585,0.20319
1795.40432,0.19861
1797.33279,0.19835
1799.26126,0.20072
1801.18973,0.20102
1803.11820,0.19835
1805.04666,0.19759
1806.97513,0.19985
1808.90360,0.20192
1810.83207,0.20188
1812.76054,0.19848
1814.68901,0.19347
1816.61748,0.19248
1818.54595,0.20016
1820.47441,0.20997
1822.40288,0.20953
1824.33135,0.19945
1826.25982,0.19248
1828.18829,0.19344
1830.11676,0.19560
1832.04523,0.19379
1833.97369,0.19119
1835.90216,0.19087
1837.83063,0.19109
1839.75910,0.19209
1841.68757,0.19781
1843.61604,0.20487
1845.54451,0.20264
1847.47298,0.19505
1849.40144,0.19076
1851.32991,0.18909
1853.25838,0.18767
1855.18685,0.18695
1857.11532,0.18645
1859.04379,0.18611
1860.97226,0.18782
1862.90072,0.19061
1864.82919,0.19411
1866.75766,0.19967
1868.68613,0.20273
1870.61460,0.19944
1872.54307,0.19381
1874.47154,0.18813
1876.40001,0.18553
1878.32847,0.18748
1880.25694,0.18991
1882.18541,0.18948
1884.11388,0.18722
1886.04235,0.18681
1887.97082,0.19007
1889.89929,0.19333
1891.82775,0.19306
1893.75622,0.19244
1895.68469,0.19272
1897.61316,0.19189
1899.54163,0.19078
1901.47010,0.19020
1903.39857,0.19038
1905.32704,0.19262
1907.25550,0.19463
1909.18397,0.19322
1911.11244,0.19089
1913.04091,0.19119
1914.96938,0.19296
1916.89785,0.19289
1918.82632,0.19164
1920.75478,0.19280
1922.68325,0.19369
1924.61172,0.19106
1926.54019,0.18940
1928.46866,0.19163
1930.39713,0.19440
1932.32560,0.19550
1934.25407,0.19456
1936.18253,0.19172
1938.11100,0.19029
1940.03947,0.19231
1941.96794,0.19574
1943.89641,0.19649
1945.82488,0.19320
1947.75335,0.19010
1949.68181,0.18979
1951.61028,0.19072
1953.53875,0.19112
1955.46722,0.19010
1957.39569,0.18903
1959.32416,0.18883
1961.25263,0.18855
1963.18110,0.18988
1965.10956,0.19369
1967.03803,0.19594
1968.96650,0.19431
1970.89497,0.19176
1972.82344,0.19095
1974.75191,0.19103
1976.68038,0.19027
1978.60884,0.18961
1980.53731,0.19053
1982.46578,0.19208
1984.39425,0.19207
1986.32272,0.19079
1988.25119,0.19091
1990.17966,0.19255
1992.10812,0.19367
1994.03659,0.19316
1995.96506,0.19117
1997.89353,0.18922
1999.82200,0.18949
2001.75047,0.19049
2003.67894,0.18990
2005.60741,0.18928
2007.53587,0.18872
2009.46434,0.18704
2011.39281,0.18661
2013.32128,0.18978
2015.24975,0.19429
2017.17822,0.19634
2019.10669,0.19560
2021.03515,0.19312
2022.96362,0.19042
2024.89209,0.19003
2026.82056,0.19092
2028.74903,0.19230
2030.67750,0.19497
2032.60597,0.19529
2034.53444,0.19202
2036.46290,0.18910
2038.39137,0.18826
2040.31984,0.18985
2042.24831,0.19253
2044.17678,0.19340
2046.10525,0.19268
2048.03372,0.19190
2049.96218,0.19146
2051.89065,0.19144
2053.81912,0.18989
2055.74759,0.18715
2057.67606,0.18728
2059.60453,0.18935
2061.53300,0.19134
2063.46147,0.19435
2065.38993,0.19550
2067.31840,0.19221
2069.24687,0.18881
2071.17534,0.18947
2073.10381,0.19233
2075.03228,0.19402
2076.96075,0.19356
2078.88921,0.19270
2080.81768,0.19299
2082.74615,0.19255
2084.67462,0.19070
2086.60309,0.18939
2088.53156,0.18964
2090.46003,0.19075
2092.38850,0.19120
2094.31696,0.19019
2096.24543,0.18882
2098.17390,0.19027
2100.10237,0.19436
2102.03084,0.19549
2103.95931,0.19184
2105.88778,0.18929
2107.81624,0.19158
2109.74471,0.19435
2111.67318,0.19268
2113.60165,0.18875
2115.53012,0.18806
2117.45859,0.19070
2119.38706,0.19300
2121.31553,0.19392
2123.24399,0.19410
2125.17246,0.19387
2127.10093,0.19313
2129.02940,0.19201
2130.95787,0.19084
2132.88634,0.18772
2134.81481,0.18165
2136.74327,0.17900
2138.67174,0.18538
2140.60021,0.19349
2142.52868,0.19433
2144.45715,0.19158
2146.38562,0.19196
2148.31409,0.19445
2150.24255,0.19547
2152.17102,0.19497
2154.09949,0.19473
2156.02796,0.19441
2157.95643,0.19236
2159.88490,0.18805
2161.81337,0.18562
2163.74184,0.18886
2165.67030,0.19254
2167.59877,0.19362
2169.52724,0.19447
2171.45571,0.19373
2173.38418,0.19060
2175.31265,0.18699
2177.24112,0.18591
2179.16958,0.19023
2181.09805,0.19659
2183.02652,0.19825
2184.95499,0.19495
2186.88346,0.19083
2188.81193,0.18844
2190.74040,0.18910
2192.66887,0.19245
2194.59733,0.19538
2196.52580,0.19511
2198.45427,0.19205
2200.38274,0.18805
2202.31121,0.18564
2204.23968,0.18732
2206.16815,0.19109
2208.09661,0.19327
2210.02508,0.19327
2211.95355,0.19205
2213.88202,0.19076
2215.81049,0.18942
2217.73896,0.18947
2219.66743,0.19102
2221.59590,0.19079
2223.52436,0.19132
2225.45283,0.19497
2227.38130,0.19781
2229.30977,0.19719
2231.23824,0.19431
2233.16671,0.19276
2235.09518,0.19317
2237.02364,0.19300
2238.95211,0.19163
2240.88058,0.19021
2242.80905,0.18869
2244.73752,0.18765
2246.66599,0.18954
2248.59446,0.19260
2250.52293,0.19363
2252.45139,0.19365
2254.37986,0.19355
2256.30833,0.19305
2258.23680,0.19263
2260.16527,0.19201
2262.09374,0.19128
2264.02221,0.19145
2265.95067,0.19177
2267.87914,0.19137
2269.80761,0.19070
2271.73608,0.18987
2273.66455,0.18908
2275.59302,0.18879
2277.52149,0.18809
2279.44996,0.18622
2281.37842,0.18608
2283.30689,0.18951
2285.23536,0.19205
2287.16383,0.19114
2289.09230,0.19029
2291.02077,0.19033
2292.94924,0.19026
2294.87770,0.19111
2296.80617,0.19144
2298.73464,0.18881
2300.66311,0.18317
2302.59158,0.17574
2304.52005,0.16868
2306.44852,0.16472
2308.37699,0.16267
2310.30545,0.15825
2312.23392,0.15320
2314.16239,0.15322
2316.09086,0.15717
2318.01933,0.16047
2319.94780,0.16169
2321.87627,0.15756
2323.80473,0.14859
2325.73320,0.14083
2327.66167,0.13529
2329.59014,0.13417
2331.51861,0.13634
2333.44708,0.13379
2335.37555,0.12668
2337.30401,0.12339
2339.23248,0.13190
2341.16095,0.14620
2343.08942,0.14593
2345.01789,0.13196
2346.94636,0.12818
2348.87483,0.13265
2350.80330,0.13246
2352.73176,0.12565
2354.66023,0.12407
2356.58870,0.13300
2358.51717,0.13319
2360.44564,0.12937
2362.37411,0.13777
2364.30258,0.13591
2366.23104,0.12480
2368.15951,0.12287
2370.08798,0.12777
2372.01645,0.13800
2373.94492,0.14997
2375.87339,0.16023
2377.80186,0.16874
2379.73033,0.17433
2381.65879,0.17753
2383.58726,0.18145
2385.51573,0.18585
2387.44420,0.18746
2389.37267,0.18896
2391.30114,0.19409
2393.22961,0.19842
2395.15807,0.19777
2397.08654,0.19551
2399.01501,0.19530
2400.94348,0.19581
2402.87195,0.19505
2404.80042,0.19281
2406.72889,0.19057
2408.65736,0.19095
2410.58582,0.19329
2412.51429,0.19398
2414.44276,0.19284
2416.37123,0.19151
2418.29970,0.18960
2420.22817,0.18844
2422.15664,0.18957
2424.08510,0.19079
2426.01357,0.19079
2427.94204,0.19210
2429.87051,0.19416
2431.79898,0.19426
2433.72745,0.19453
2435.65592,0.19562
2437.58439,0.19546
2439.51285,0.19416
2441.44132,0.19287
2443.36979,0.19241
2445.29826,0.19184
2447.22673,0.19023
2449.15520,0.18953
2451.08367,0.19306
2453.01213,0.19907
2454.94060,0.20028
2456.86907,0.19531
2458.79754,0.19219
2460.72601,0.19419
2462.65448,0.19477
2464.58295,0.19202
2466.51142,0.18998
2468.43988,0.18903
2470.36835,0.18904
2472.29682,0.19124
2474.22529,0.19340
2476.15376,0.19304
2478.08223,0.19239
2480.01070,0.19416
2481.93916,0.19813
2483.86763,0.20095
2485.79610,0.19947
2487.72457,0.19538
2489.65304,0.19251
2491.58151,0.19308
2493.50998,0.19662
2495.43844,0.19913
2497.36691,0.19702
2499.29538,0.19352
2501.22385,0.19322
2503.15232,0.19532
2505.08079,0.19860
2507.00926,0.20055
2508.93773,0.19802
2510.86619,0.19346
2512.79466,0.19100
2514.72313,0.19142
2516.65160,0.19296
2518.58007,0.19460
2520.50854,0.19721
2522.43701,0.19897
2524.36547,0.19876
2526.29394,0.19820
2528.22241,0.19662
2530.15088,0.19602
2532.07935,0.19832
2534.00782,0.20083
2535.93629,0.20161
2537.86476,0.19982
2539.79322,0.19682
2541.72169,0.19514
2543.65016,0.19412
2545.57863,0.19232
2547.50710,0.19088
2549.43557,0.19051
2551.36404,0.19119
2553.29250,0.19376
2555.22097,0.19503
2557.14944,0.19285
2559.07791,0.19079
2561.00638,0.19158
2562.93485,0.19439
2564.86332,0.19552
2566.79179,0.19293
2568.72025,0.19038
2570.64872,0.19162
2572.57719,0.19354
2574.50566,0.19258
2576.43413,0.19087
2578.36260,0.19068
2580.29107,0.19220
2582.21953,0.19451
2584.14800,0.19603
2586.07647,0.19663
2588.00494,0.19638
2589.93341,0.19358
2591.86188,0.18928
2593.79035,0.18876
2595.71882,0.19224
2597.64728,0.19509
2599.57575,0.19647
2601.50422,0.19772
2603.43269,0.19927
2605.36116,0.19974
2607.28963,0.19759
2609.21810,0.19612
2611.14656,0.19809
2613.07503,0.19859
2615.00350,0.19630
2616.93197,0.19623
2618.86044,0.19707
2620.78891,0.19661
2622.71738,0.19745
2624.64585,0.20007
2626.57431,0.20118
2628.50278,0.19889
2630.43125,0.19816
2632.35972,0.20119
2634.28819,0.20303
2636.21666,0.20193
2638.14513,0.20098
2640.07359,0.20217
2642.00206,0.20354
2643.93053,0.20258
2645.85900,0.19915
2647.78747,0.19528
2649.71594,0.19283
2651.64441,0.19230
2653.57288,0.19371
2655.50134,0.19522
2657.42981,0.19675
2659.35828,0.19886
2661.28675,0.19853
2663.21522,0.19706
2665.14369,0.19931
2667.07216,0.20276
2669.00062,0.20353
2670.92909,0.20281
2672.85756,0.20307
2674.78603,0.20541
2676.71450,0.20615
2678.64297,0.20327
2680.57144,0.20123
2682.49990,0.20155
2684.42837,0.20143
2686.35684,0.20030
2688.28531,0.19956
2690.21378,0.19945
2692.14225,0.19957
2694.07072,0.19984
2695.99919,0.20065
2697.92765,0.20309
2699.85612,0.20604
2701.78459,0.20576
2703.71306,0.20227
2705.64153,0.20009
2707.57000,0.20094
2709.49847,0.20194
2711.42693,0.20100
2713.35540,0.19814
2715.28387,0.19484
2717.21234,0.19584
2719.14081,0.20103
2721.06928,0.20390
2722.99775,0.20348
2724.92622,0.20217
2726.85468,0.19934
2728.78315,0.19758
2730.71162,0.20031
2732.64009,0.20307
2734.56856,0.20328
2736.49703,0.20442
2738.42550,0.20502
2740.35396,0.20395
2742.28243,0.20442
2744.21090,0.20548
2746.13937,0.20475
2748.06784,0.20371
2749.99631,0.20491
2751.92478,0.20758
2753.85325,0.20805
2755.78171,0.20688
2757.71018,0.20694
2759.63865,0.20688
2761.56712,0.20638
2763.49559,0.20670
2765.42406,0.20642
2767.35253,0.20484
2769.28099,0.20533
2771.20946,0.20967
2773.13793,0.21316
2775.06640,0.21352
2776.99487,0.21469
2778.92334,0.21675
2780.85181,0.21586
2782.78028,0.21270
2784.70874,0.21153
2786.63721,0.21332
2788.56568,0.21478
2790.49415,0.21257
2792.42262,0.20605
2794.35109,0.19967
2796.27956,0.19816
2798.20802,0.20010
2800.13649,0.20401
2802.06496,0.20797
2803.99343,0.20854
2805.92190,0.20786
2807.85037,0.20880
2809.77884,0.20980
2811.70731,0.20895
2813.63577,0.20722
2815.56424,0.20675
2817.49271,0.20610
2819.42118,0.20568
2821.34965,0.21004
2823.27812,0.21506
2825.20659,0.21338
2827.13505,0.20948
2829.06352,0.21001
2830.99199,0.21205
2832.92046,0.21253
2834.84893,0.21396
2836.77740,0.21442
2838.70587,0.21058
2840.63433,0.20713
2842.56280,0.20778
2844.49127,0.20846
2846.41974,0.20628
2848.34821,0.20481
2850.27668,0.20523
2852.20515,0.20438
2854.13362,0.20258
2856.06208,0.20414
2857.99055,0.20990
2859.91902,0.21390
2861.84749,0.21408
2863.77596,0.21485
2865.70443,0.21587
2867.63290,0.21413
2869.56136,0.21197
2871.48983,0.21106
2873.41830,0.21019
2875.34677,0.21092
2877.27524,0.21373
2879.20371,0.21638
2881.13218,0.21546
2883.06065,0.20871
2884.98911,0.20186
2886.91758,0.20200
2888.84605,0.20633
2890.77452,0.20646
2892.70299,0.19919
2894.63146,0.19230
2896.55993,0.19624
2898.48839,0.20614
2900.41686,0.21016
2902.34533,0.20753
2904.27380,0.20310
2906.20227,0.20200
2908.13074,0.20355
2910.05921,0.20247
2911.98768,0.20206
2913.91614,0.20213
2915.84461,0.19780
2917.77308,0.19640
2919.70155,0.19926
2921.63002,0.19714
2923.55849,0.19113
2925.48696,0.18589
2927.41542,0.18480
2929.34389,0.18968
2931.27236,0.19392
2933.20083,0.19346
2935.12930,0.18856
2937.05777,0.18266
2938.98624,0.18609
2940.91471,0.19747
2942.84317,0.20370
2944.77164,0.19775
2946.70011,0.18576
2948.62858,0.18484
2950.55705,0.19508
2952.48552,0.20019
2954.41399,0.19541
2956.34245,0.18280
2958.27092,0.17737
2960.19939,0.19256
2962.12786,0.20944
2964.05633,0.21207
2965.98480,0.20510
2967.91327,0.19715
2969.84174,0.19958
2971.77020,0.20686
2973.69867,0.20896
2975.62714,0.20474
2977.55561,0.19313
2979.48408,0.19004
2981.41255,0.20271
2983.34102,0.21224
2985.26948,0.21032
2987.19795,0.20291
2989.12642,0.19969
2991.05489,0.20488
2992.98336,0.21121
2994.91183,0.21505
2996.84030,0.21499
2998.76877,0.21061
3000.69723,0.20918
3002.62570,0.21181
3004.55417,0.21181
3006.48264,0.20655
3008.41111,0.19774
3010.33958,0.18334
3012.26805,0.15604
3014.19651,0.11543
3016.12498,0.08419
3018.05345,0.10014
3019.98192,0.15622
3021.91039,0.19849
3023.83886,0.20770
3025.76733,0.20402
3027.69579,0.20236
3029.62426,0.20533
3031.55273,0.20897
3033.48120,0.21008
3035.40967,0.20833
3037.33814,0.20535
3039.26661,0.20746
3041.19508,0.21251
3043.12354,0.21252
3045.05201,0.20786
3046.98048,0.20220
3048.90895,0.20363
3050.83742,0.21084
3052.76589,0.21189
3054.69436,0.20222
3056.62282,0.18802
3058.55129,0.18960
3060.47976,0.20661
3062.40823,0.21452
3064.33670,0.20610
3066.26517,0.19161
3068.19364,0.18858
3070.12211,0.20038
3072.05057,0.21217
3073.97904,0.21190
3075.90751,0.20044
3077.83598,0.19579
3079.76445,0.20364
3081.69292,0.20829
3083.62139,0.19969
3085.54985,0.18919
3087.47832,0.19557
3089.40679,0.20936
3091.33526,0.20914
3093.26373,0.19386
3095.19220,0.18383
3097.12067,0.19500
3099.04914,0.20964
3100.97760,0.20682
3102.90607,0.19313
3104.83454,0.18990
3106.76301,0.20018
3108.69148,0.20629
3110.61995,0.20198
3112.54842,0.19667
3114.47688,0.20090
3116.40535,0.20943
3118.33382,0.20962
3120.26229,0.20233
3122.19076,0.19691
3124.11923,0.20023
3126.04770,0.20911
3127.97617,0.21398
3129.90463,0.21062
3131.83310,0.20925
3133.76157,0.21628
3135.69004,0.21936
3137.61851,0.20990
3139.54698,0.19669
3141.47545,0.19587
3143.40391,0.20840
3145.33238,0.21721
3147.26085,0.21546
3149.18932,0.21519
3151.11779,0.22143
3153.04626,0.22332
3154.97473,0.21938
3156.90320,0.21856
3158.83166,0.21786
3160.76013,0.21283
3162.68860,0.20981
3164.61707,0.21016
3166.54554,0.21146
3168.47401,0.21408
3170.40248,0.21653
3172.33094,0.21801
3174.25941,0.21693
3176.18788,0.21257
3178.11635,0.20938
3180.04482,0.21011
3181.97329,0.21352
3183.90176,0.21801
3185.83022,0.21973
3187.75869,0.21683
3189.68716,0.21370
3191.61563,0.21556
3193.54410,0.21923
3195.47257,0.21781
3197.40104,0.21507
3199.32951,0.21480
3201.25797,0.21525
3203.18644,0.21792
3205.11491,0.22119
3207.04338,0.22233
3208.97185,0.22215
3210.90032,0.21913
3212.82879,0.21413
3214.75725,0.21182
3216.68572,0.21079
3218.61419,0.20676
3220.54266,0.20016
3222.47113,0.19844
3224.39960,0.20484
3226.32807,0.21115
3228.25654,0.21403
3230.18500,0.21481
3232.11347,0.21161
3234.04194,0.20660
3235.97041,0.20420
3237.89888,0.20430
3239.82735,0.20768
3241.75582,0.21396
3243.68428,0.21561
3245.61275,0.21136
3247.54122,0.20949
3249.46969,0.21288
3251.39816,0.21616
3253.32663,0.21483
3255.25510,0.20975
3257.18357,0.20531
3259.11203,0.20650
3261.04050,0.21355
3262.96897,0.21993
3264.89744,0.22008
3266.82591,0.21789
3268.75438,0.21539
3270.68285,0.21011
3272.61131,0.20738
3274.53978,0.20853
3276.46825,0.20852
3278.39672,0.21030
3280.32519,0.21401
3282.25366,0.21164
3284.18213,0.20621
3286.11060,0.20533
3288.03906,0.20489
3289.96753,0.20228
3291.89600,0.20410
3293.82447,0.21074
3295.75294,0.21247
3297.68141,0.20780
3299.60988,0.20435
3301.53834,0.20480
3303.46681,0.20771
3305.39528,0.21132
3307.32375,0.21281
3309.25222,0.21042
3311.18069,0.20617
3313.10916,0.20270
3315.03763,0.20289
3316.96609,0.20732
3318.89456,0.21060
3320.82303,0.21107
3322.75150,0.21241
3324.67997,0.21457
3326.60844,0.21543
3328.53691,0.21563
3330.46537,0.21766
3332.39384,0.22147
3334.32231,0.22213
3336.25078,0.21768
3338.17925,0.21235
3340.10772,0.20989
3342.03619,0.21162
3343.96466,0.21320
3345.89312,0.21042
3347.82159,0.20914
3349.75006,0.21106
3351.67853,0.20965
3353.60700,0.20835
3355.53547,0.21404
3357.46394,0.21985
3359.39240,0.21695
3361.32087,0.20936
3363.24934,0.20651
3365.17781,0.21119
3367.10628,0.21862
3369.03475,0.22282
3370.96322,0.22143
3372.89168,0.21507
3374.82015,0.20741
3376.74862,0.20354
3378.67709,0.20598
3380.60556,0.21219
3382.53403,0.21277
3384.46250,0.20617
3386.39097,0.20489
3388.31943,0.21106
3390.24790,0.21574
3392.17637,0.21681
3394.10484,0.21574
3396.03331,0.21329
3397.96178,0.20851
3399.89025,0.20391
3401.81871,0.20567
3403.74718,0.20946
3405.67565,0.20898
3407.60412,0.20968
3409.53259,0.21393
3411.46106,0.21589
3413.38953,0.21720
3415.31800,0.22000
3417.24646,0.21811
3419.17493,0.21185
3421.10340,0.20783
3423.03187,0.20725
3424.96034,0.20767
3426.88881,0.21062
3428.81728,0.21764
3430.74574,0.22162
3432.67421,0.21606
3434.60268,0.20473
3436.53115,0.19906
3438.45962,0.20319
3440.38809,0.20783
3442.31656,0.20936
3444.24503,0.20995
3446.17349,0.20808
3448.10196,0.20517
3450.03043,0.20168
3451.95890,0.19538
3453.88737,0.19038
3455.81584,0.19101
3457.74431,0.19109
3459.67277,0.18633
3461.60124,0.18411
3463.52971,0.18862
3465.45818,0.19235
3467.38665,0.18951
3469.31512,0.18637
3471.24359,0.18716
3473.17206,0.18612
3475.10052,0.18585
3477.02899,0.19011
3478.95746,0.19146
3480.88593,0.18814
3482.81440,0.18574
3484.74287,0.18815
3486.67134,0.19206
3488.59980,0.19096
3490.52827,0.18735
3492.45674,0.18584
3494.38521,0.18751
3496.31368,0.19108
3498.24215,0.19092
3500.17062,0.18725
3502.09909,0.18597
3504.02755,0.18702
3505.95602,0.18825
3507.88449,0.18980
3509.81296,0.18733
3511.74143,0.17911
3513.66990,0.17185
3515.59837,0.17100
3517.52683,0.17470
3519.45530,0.17750
3521.38377,0.17927
3523.31224,0.18073
3525.24071,0.18002
3527.16918,0.17715
3529.09765,0.17195
3531.02611,0.16802
3532.95458,0.16982
3534.88305,0.17433
3536.81152,0.17683
3538.73999,0.17660
3540.66846,0.17440
3542.59693,0.17364
3544.52540,0.17829
3546.45386,0.18338
3548.38233,0.18159
3550.31080,0.17591
3552.23927,0.17287
3554.16774,0.17271
3556.09621,0.16850
3558.02468,0.15915
3559.95314,0.15187
3561.88161,0.15227
3563.81008,0.15785
3565.73855,0.16205
3567.66702,0.16238
3569.59549,0.16343
3571.52396,0.16634
3573.45243,0.16585
3575.38089,0.16015
3577.30936,0.15600
3579.23783,0.15599
3581.16630,0.15565
3583.09477,0.15483
3585.02324,0.15798
3586.95171,0.16085
3588.88017,0.15231
3590.80864,0.14532
3592.73711,0.15014
3594.66558,0.15739
3596.59405,0.15869
3598.52252,0.15658
3600.45099,0.15290
3602.37946,0.15185
3604.30792,0.15544
3606.23639,0.15870
3608.16486,0.15917
3610.09333,0.16052
3612.02180,0.16306
3613.95027,0.16122
3615.87874,0.15481
3617.80720,0.14896
3619.73567,0.14698
3621.66414,0.14664
3623.59261,0.14520
3625.52108,0.14499
3627.44955,0.14825
3629.37802,0.15293
3631.30649,0.15252
3633.23495,0.14771
3635.16342,0.14037
3637.09189,0.13366
3639.02036,0.13035
3640.94883,0.13101
3642.87730,0.13443
3644.80577,0.14058
3646.73423,0.15625
3648.66270,0.17853
3650.59117,0.17043
3652.51964,0.14960
3654.44811,0.14475
3656.37658,0.14720
3658.30505,0.14331
3660.23352,0.13728
3662.16198,0.13410
3664.09045,0.13334
3666.01892,0.13601
3667.94739,0.14243
3669.87586,0.14836
3671.80433,0.14936
3673.73280,0.15118
3675.66126,0.15210
3677.58973,0.14673
3679.51820,0.14118
3681.44667,0.13693
3683.37514,0.13514
3685.30361,0.13737
3687.23208,0.13994
3689.16055,0.13786
3691.08901,0.13558
3693.01748,0.13410
3694.94595,0.12987
3696.87442,0.12516
3698.80289,0.12365
3700.73136,0.12343
3702.65983,0.12067
3704.58829,0.12028
3706.51676,0.12557
3708.44523,0.13412
3710.37370,0.14210
3712.30217,0.14191
3714.23064,0.13508
3716.15911,0.12940
3718.08757,0.12728
3720.01604,0.12775
3721.94451,0.12601
3723.87298,0.12183
3725.80145,0.12099
3727.72992,0.12480
3729.65839,0.13023
3731.58686,0.13493
3733.51532,0.14129
3735.44379,0.15387
3737.37226,0.15694
3739.30073,0.14833
3741.22920,0.14212
3743.15767,0.13953
3745.08614,0.13689
3747.01460,0.13454
3748.94307,0.13390
3750.87154,0.13394
3752.80001,0.13007
3754.72848,0.12823
3756.65695,0.13241
3758.58542,0.13679
3760.51389,0.13455
3762.44235,0.13097
3764.37082,0.12975
3766.29929,0.12920
3768.22776,0.13312
3770.15623,0.13933
3772.08470,0.13763
3774.01317,0.13355
3775.94163,0.13498
3777.87010,0.13930
3779.79857,0.13869
3781.72704,0.13234
3783.65551,0.12580
3785.58398,0.12163
3787.51245,0.12076
3789.44092,0.12262
3791.36938,0.12612
3793.29785,0.13000
3795.22632,0.13400
3797.15479,0.13448
3799.08326,0.13292
3801.01173,0.13572
3802.94020,0.13525
3804.86866,0.13060
3806.79713,0.12676
3808.72560,0.12184
3810.65407,0.11813
3812.58254,0.11770
3814.51101,0.12176
3816.43948,0.12969
3818.36795,0.13659
3820.29641,0.14411
3822.22488,0.14817
3824.15335,0.14357
3826.08182,0.13674
3828.01029,0.13085
3829.93876,0.12906
3831.86723,0.13184
3833.79569,0.13417
3835.72416,0.13368
3837.65263,0.13484
3839.58110,0.13847
3841.50957,0.13789
3843.43804,0.13270
3845.36651,0.12721
3847.29498,0.12537
3849.22344,0.12893
3851.15191,0.13643
3853.08038,0.14391
3855.00885,0.14163
3856.93732,0.13422
3858.86579,0.12837
3860.79426,0.12339
3862.72272,0.12008
3864.65119,0.11922
3866.57966,0.11830
3868.50813,0.11971
3870.43660,0.12356
3872.36507,0.12221
3874.29354,0.11679
3876.22200,0.11545
3878.15047,0.11985
3880.07894,0.12399
3882.00741,0.12505
3883.93588,0.12677
3885.86435,0.12627
3887.79282,0.12324
3889.72129,0.12235
3891.64975,0.12045
3893.57822,0.11606
3895.50669,0.11443
3897.43516,0.11548
3899.36363,0.11968
3901.29210,0.12969
3903.22057,0.13529
3905.14903,0.12595
3907.07750,0.11367
3909.00597,0.10906
3910.93444,0.11015
3912.86291,0.11299
3914.79138,0.11550
3916.71985,0.11485
3918.64832,0.11190
3920.57678,0.11256
3922.50525,0.11753
3924.43372,0.12551
3926.36219,0.13250
3928.29066,0.13199
3930.21913,0.12378
3932.14760,0.11396
3934.07606,0.10943
3936.00453,0.10930
3937.93300,0.11034
3939.86147,0.11449
3941.78994,0.12004
3943.71841,0.11849
3945.64688,0.11206
3947.57535,0.10830
3949.50381,0.10679
3951.43228,0.10600
3953.36075,0.10578
3955.28922,0.10837
3957.21769,0.11540
3959.14616,0.12094
3961.07463,0.12071
3963.00309,0.11888
3964.93156,0.11756
3966.86003,0.11449
3968.78850,0.11084
3970.71697,0.10797
3972.64544,0.10551
3974.57391,0.10439
3976.50238,0.10430
3978.43084,0.10406
3980.35931,0.10382
3982.28778,0.10248
3984.21625,0.09919
3986.14472,0.09858
3988.07319,0.10204
3990.00166,0.10640
3991.93012,0.11171
3993.85859,0.11715
3995.78706,0.12155
3997.71553,0.12243
3999.64400,0.11724
4001.57247,0.11057
4003.50094,0.10629
4005.42941,0.10214
4007.35787,0.09962
4009.28634,0.10239
4011.21481,0.10592
4013.14328,0.10412
4015.07175,0.09949
4017.00022,0.09776
4018.92869,0.09959
4020.85715,0.10273
4022.78562,0.10536
4024.71409,0.10576
4026.64256,0.10714
4028.57103,0.11117
4030.49950,0.11074
4032.42797,0.10548
4034.35644,0.10195
4036.28490,0.10061
4038.21337,0.10167
4040.14184,0.10468
4042.07031,0.10660
4043.99878,0.10665
4045.92725,0.10450
4047.85572,0.10117
4049.78418,0.09866
4051.71265,0.09685
4053.64112,0.09313
4055.56959,0.08947
4057.49806,0.09413
4059.42653,0.10484
4061.35500,0.10803
4063.28346,0.10133
4065.21193,0.09608
4067.14040,0.09867
4069.06887,0.10399
4070.99734,0.10432
4072.92581,0.10067
4074.85428,0.09800
4076.78275,0.09483
4078.71121,0.08933
4080.63968,0.08506
4082.56815,0.08538
4084.49662,0.08864
4086.42509,0.09226
4088.35356,0.09364
4090.28203,0.09041
4092.21049,0.08400
4094.13896,0.07838
4096.06743,0.07938
4097.99590,0.08859
4099.92437,0.09692
4101.85284,0.09574
4103.78131,0.09110
4105.70978,0.08884
4107.63824,0.08654
4109.56671,0.08825
4111.49518,0.09530
4113.42365,0.10011
4115.35212,0.09751
4117.28059,0.09023
4119.20906,0.08546
4121.13752,0.08589
4123.06599,0.08830
4124.99446,0.08997
4126.92293,0.09002
4128.85140,0.08776
4130.77987,0.08618
4132.70834,0.08694
4134.63681,0.08828
4136.56527,0.08993
4138.49374,0.09153
4140.42221,0.09310
4142.35068,0.09334
4144.27915,0.09280
4146.20762,0.09472
4148.13609,0.09637
4150.06455,0.09185
4151.99302,0.08437
4153.92149,0.08373
4155.84996,0.08604
4157.77843,0.08098
4159.70690,0.07601
4161.63537,0.08052
4163.56384,0.08595
4165.49230,0.08633
4167.42077,0.08951
4169.34924,0.09395
4171.27771,0.08974
4173.20618,0.08230
4175.13465,0.07979
4177.06312,0.07788
4178.99158,0.07669
4180.92005,0.08084
4182.84852,0.08759
4184.77699,0.09288
4186.70546,0.09336
4188.63393,0.08789
4190.56240,0.08187
4192.49087,0.07962
4194.41933,0.07903
4196.34780,0.07945
4198.27627,0.08161
4200.20474,0.08343
4202.13321,0.08469
4204.06168,0.08590
4205.99015,0.08764
4207.91861,0.08918
4209.84708,0.08753
4211.77555,0.08487
4213.70402,0.08216
4215.63249,0.07509
4217.56096,0.06832
4219.48943,0.06718
4221.41789,0.06674
4223.34636,0.06589
4225.27483,0.06628
4227.20330,0.06769
4229.13177,0.07229
4231.06024,0.07821
4232.98871,0.07943
4234.91718,0.07291
4236.84564,0.06632
4238.77411,0.06692
4240.70258,0.06680
4242.63105,0.06433
4244.55952,0.06709
4246.48799,0.07176
4248.41646,0.07287
4250.34492,0.07314
4252.27339,0.07503
4254.20186,0.07514
4256.13033,0.07457
4258.05880,0.07825
4259.98727,0.07937
4261.91574,0.07169
4263.84421,0.06477
4265.77267,0.06611
4267.70114,0.06860
4269.62961,0.06548
4271.55808,0.06094
4273.48655,0.05955
4275.41502,0.06136
4277.34349,0.06336
4279.27195,0.06226
4281.20042,0.06253
4283.12889,0.06777
4285.05736,0.07182
4286.98583,0.07054
4288.91430,0.06738
4290.84277,0.06772
4292.77124,0.07002
4294.69970,0.07000
4296.62817,0.06905
4298.55664,0.06520
4300.48511,0.05824
4302.41358,0.05391
4304.34205,0.05192
4306.27052,0.04886
4308.19898,0.04590
4310.12745,0.04636
4312.05592,0.04894
4313.98439,0.05133
4315.91286,0.05120
4317.84133,0.04808
4319.76980,0.04988
4321.69827,0.05876
4323.62673,0.06509
4325.55520,0.06349
4327.48367,0.06094
4329.41214,0.06028
4331.34061,0.05568
4333.26908,0.04976
4335.19755,0.04662
4337.12601,0.04782
4339.05448,0.05145
4340.98295,0.05014
4342.91142,0.04645
4344.83989,0.04737
4346.76836,0.05160
4348.69683,0.05345
4350.62530,0.05183
4352.55376,0.05062
4354.48223,0.05027
4356.41070,0.05278
4358.33917,0.05733
4360.26764,0.05685
4362.19611,0.05114
4364.12458,0.04499
4366.05304,0.04413
4367.98151,0.05015
4369.90998,0.05372
4371.83845,0.04765
4373.76692,0.03768
4375.69539,0.03243
4377.62386,0.03484
4379.55232,0.04391
4381.48079,0.05177
4383.40926,0.04925
4385.33773,0.04042
4387.26620,0.03439
4389.19467,0.03476
4391.12314,0.04001
4393.05161,0.04526
4394.98007,0.04984
4396.90854,0.05021
4398.83701,0.04185
4400.76548,0.03366
4402.69395,0.03351
4404.62242,0.03896
4406.55089,0.04268
4408.47935,0.04160
4410.40782,0.04297
4412.33629,0.04521
4414.26476,0.04255
4416.19323,0.04148
4418.12170,0.04406
4420.05017,0.04813
4421.97864,0.05426
4423.90710,0.05357
4425.83557,0.04074
4427.76404,0.02696
4429.69251,0.01950
4431.62098,0.01703
4433.54945,0.01968
4435.47792,0.02379
4437.40638,0.02320
4439.33485,0.02151
4441.26332,0.02494
4443.19179,0.02920
4445.12026,0.02902
4447.04873,0.02949
4448.97720,0.03689
4450.90567,0.04418
4452.83413,0.04161
4454.76260,0.03270
4456.69107,0.02519
4458.61954,0.02354
4460.54801,0.02775
4462.47648,0.03130
4464.40495,0.03106
4466.33341,0.03146
4468.26188,0.02831
4470.19035,0.01928
4472.11882,0.01803
4474.04729,0.02148
4475.97576,0.01594
4477.90423,0.01407
4479.83270,0.02395
4481.76116,0.02959
4483.68963,0.02590
4485.61810,0.02179
4487.54657,0.02121
4489.47504,0.02210
4491.40351,0.02453
4493.33198,0.02984
4495.26044,0.03246
4497.18891,0.03157
4499.11738,0.03089
4501.04585,0.03108
4502.97432,0.03377
4504.90279,0.03290
4506.83126,0.02648
4508.75973,0.02338
4510.68819,0.02525
4512.61666,0.02686
4514.54513,0.02490
4516.47360,0.02235
4518.40207,0.02098
4520.33054,0.02150
4522.25901,0.02340
4524.18747,0.01882
4526.11594,0.01265
4528.04441,0.01331
4529.97288,0.01330
4531.90135,0.01213
4533.82982,0.01626
4535.75829,0.02173
4537.68676,0.02539
4539.61522,0.02991
4541.54369,0.03282
4543.47216,0.02827
4545.40063,0.01730
4547.32910,0.01057
4549.25757,0.01706
4551.18604,0.02843
4553.11450,0.02639
4555.04297,0.01302
4556.97144,0.01032
4558.89991,0.02249
4560.82838,0.03082
4562.75685,0.02145
4564.68532,0.00318
4566.61378,-0.00504
4568.54225,-0.00502
4570.47072,-0.00795
4572.39919,-0.00862
4574.32766,0.00192
4576.25613,0.01829
4578.18460,0.02534
4580.11307,0.01757
4582.04153,0.00903
4583.97000,0.01036
4585.89847,0.01416
4587.82694,0.01536
4589.75541,0.01826
4591.68388,0.02028
4593.61235,0.01289
4595.54081,0.00133
4597.46928,-0.00236
4599.39775,-0.00025
4601.32622,0.00103
4603.25469,0.00297
4605.18316,0.00667
4607.11163,0.00533
4609.04010,-0.00169
4610.96856,0.00058
4612.89703,0.01479
4614.82550,0.02045
4616.75397,0.01211
4618.68244,0.00892
4620.61091,0.01519
4622.53938,0.01571
4624.46784,0.01112
4626.39631,0.01158
4628.32478,0.01186
4630.25325,0.01151
4632.18172,0.01655
4634.11019,0.02082
4636.03866,0.02156
4637.96713,0.01941
4639.89559,0.01583
4641.82406,0.01827
4643.75253,0.02377
4645.68100,0.02290
4647.60947,0.01340
4649.53794,0.00233
4651.46641,0.00159
4653.39487,0.00778
4655.32334,0.00837
4657.25181,0.00166
4659.18028,-0.00750
4661.10875,-0.00897
4663.03722,-0.00064
4664.96569,0.00554
4666.89416,0.00745
4668.82262,0.00614
4670.75109,-0.00129
4672.67956,-0.00412
4674.60803,0.00427
4676.53650,0.00762
4678.46497,0.00064
4680.39344,0.00027
4682.32190,0.00863
4684.25037,0.01185
4686.17884,0.01009
4688.10731,0.01466
4690.03578,0.02002
4691.96425,0.01187
4693.89272,-0.00474
4695.82119,-0.01326
4697.74965,-0.01040
4699.67812,-0.00281
4701.60659,0.00466
4703.53506,0.00863
4705.46353,0.01140
4707.39200,0.00799
4709.32047,-0.00762
4711.24893,-0.01738
4713.17740,-0.01149
4715.10587,-0.00455
4717.03434,0.00220
4718.96281,0.01335
4720.89128,0.01537
4722.81975,0.00768
4724.74821,0.00752
4726.67668,0.01340
4728.60515,0.01198
4730.53362,0.00080
4732.46209,-0.01042
4734.39056,-0.01380
4736.31903,-0.00960
4738.24750,0.00126
4740.17596,0.00985
4742.10443,0.00889
4744.03290,0.00722
4745.96137,0.01142
4747.88984,0.01862
4749.81831,0.02250
4751.74678,0.01663
4753.67524,0.00567
4755.60371,0.00085
4757.53218,0.00705
4759.46065,0.01806
4761.38912,0.02263
4763.31759,0.01822
4765.24606,0.00842
4767.17453,-0.00228
4769.10299,-0.00473
4771.03146,0.00736
4772.95993,0.02400
4774.88840,0.02995
4776.81687,0.02486
4778.74534,0.01414
4780.67381,0.00510
4782.60227,0.00585
4784.53074,0.00971
4786.45921,0.01143
4788.38768,0.01982
4790.31615,0.03144
4792.24462,0.03063
4794.17309,0.01997
4796.10156,0.01575
4798.03002,0.01868
4799.95849,0.01946
4801.88696,0.01491
4803.81543,0.00320
4805.74390,-0.00570
4807.67237,0.00369
4809.60084,0.02333
4811.52930,0.03237
4813.45777,0.02544
4815.38624,0.01588
4817.31471,0.01300
4819.24318,0.01111
4821.17165,0.00299
4823.10012,-0.00178
4825.02859,0.01323
4826.95705,0.03196
4828.88552,0.03248
4830.81399,0.02529
4832.74246,0.01893
4834.67093,0.01016
4836.59940,0.00191
4838.52787,-0.00148
4840.45633,0.00016
4842.38480,0.00515
4844.31327,0.01081
4846.24174,0.01218
4848.17021,0.00969
4850.09868,0.00644
4852.02715,0.00014
4853.95562,-0.00451
4855.88408,-0.00595
4857.81255,-0.00794
4859.74102,-0.00219
4861.66949,0.01017
4863.59796,0.01449
4865.52643,0.01539
4867.45490,0.01893
4869.38336,0.00545
4871.31183,-0.01622
4873.24030,-0.01216
4875.16877,0.00060
4877.09724,-0.00246
4879.02571,-0.00889
4880.95418,-0.00904
4882.88265,-0.00964
4884.81111,-0.01568
4886.73958,-0.01935
4888.66805,-0.01585
4890.59652,-0.00676
4892.52499,0.00458
4894.45346,0.00944
4896.38193,0.00787
4898.31039,0.00665
4900.23886,0.00491
4902.16733,0.00079
4904.09580,0.00053
4906.02427,0.00879
4907.95274,0.01932
4909.88121,0.02633
4911.80967,0.03020
4913.73814,0.02962
4915.66661,0.02256
4917.59508,0.01236
4919.52355,0.00938
4921.45202,0.01537
4923.38049,0.01606
4925.30896,0.01416
4927.23742,0.02064
4929.16589,0.01492
4931.09436,-0.00693
4933.02283,-0.00882
4934.95130,0.01326
4936.87977,0.03356
4938.80824,0.04140
4940.73670,0.03413
4942.66517,0.02235
4944.59364,0.01651
4946.52211,0.00803
4948.45058,-0.00170
4950.37905,-0.00131
4952.30752,0.00548
4954.23599,0.00434
4956.16445,-0.00740
4958.09292,-0.01205
4960.02139,0.00002
4961.94986,0.01476
4963.87833,0.02232
4965.80680,0.02363
4967.73527,0.01988
4969.66373,0.01809
4971.59220,0.01788
4973.52067,0.01276
4975.44914,0.00868
4977.37761,0.01099
4979.30608,0.01483
4981.23455,0.01823
4983.16302,0.02575
4985.09148,0.03533
4987.01995,0.03979
4988.94842,0.04056
4990.87689,0.04389
4992.80536,0.04484
4994.73383,0.03489
4996.66230,0.02587
4998.59076,0.02913
5000.51923,0.03316
5002.44770,0.02748
5004.37617,0.02124
5006.30464,0.02725
5008.23311,0.03824
5010.16158,0.04645
5012.09005,0.04853
5014.01851,0.03578
5015.94698,0.02005
5017.87545,0.02101
5019.80392,0.03054
5021.73239,0.03366
5023.66086,0.03190
5025.58933,0.02306
5027.51779,0.00789
5029.44626,0.00611
5031.37473,0.01357
5033.30320,0.01027
5035.23167,0.00669
5037.16014,0.01035
5039.08861,0.01728
5041.01708,0.03091
5042.94554,0.03794
5044.87401,0.03069
5046.80248,0.02008
5048.73095,0.01333
5050.65942,0.01817
5052.58789,0.02801
5054.51636,0.02950
5056.44482,0.02516
5058.37329,0.01783
5060.30176,0.00821
5062.23023,-0.00034
5064.15870,-0.00417
5066.08717,-0.00066
5068.01564,0.00953
5069.94410,0.02381
5071.87257,0.03401
5073.80104,0.03630
5075.72951,0.04348
5077.65798,0.05580
5079.58645,0.05547
5081.51492,0.04253
5083.44339,0.03213
5085.37185,0.03191
5087.30032,0.03431
5089.22879,0.02972
5091.15726,0.01966
5093.08573,0.00856
5095.01420,0.00655
5096.94267,0.01504
5098.87113,0.02020
5100.79960,0.02539
5102.72807,0.03480
5104.65654,0.03713
5106.58501,0.03428
5108.51348,0.03754
5110.44195,0.05327
5112.37042,0.06740
5114.29888,0.05916
5116.22735,0.03993
5118.15582,0.02546
5120.08429,0.02209
5122.01276,0.03482
5123.94123,0.04841
5125.86970,0.04657
5127.79816,0.03566
5129.72663,0.02359
5131.65510,0.01001
5133.58357,0.00318
5135.51204,0.00796
5137.44051,0.01466
5139.36898,0.01753
5141.29745,0.02707
5143.22591,0.04520
5145.15438,0.04988
5147.08285,0.03487
5149.01132,0.01822
5150.93979,0.01495
5152.86826,0.02606
5154.79673,0.03868
5156.72519,0.03897
5158.65366,0.02905
5160.58213,0.02595
5162.51060,0.03479
5164.43907,0.04290
5166.36754,0.03817
5168.29601,0.02728
5170.22448,0.02798
5172.15294,0.03774
5174.08141,0.03397
5176.00988,0.01902
5177.93835,0.01836
5179.86682,0.03189
5181.79529,0.04742
5183.72376,0.05899
5185.65222,0.05644
5187.58069,0.04525
5189.50916,0.03718
5191.43763,0.03440
5193.36610,0.03208
5195.29457,0.02099
5197.22304,0.00313
5199.15151,0.00172
5201.07997,0.02284
5203.00844,0.02966
5204.93691,0.01056
5206.86538,0.00743
5208.79385,0.03551
5210.72232,0.06169
5212.65079,0.06542
5214.57925,0.04196
5216.50772,0.01540
5218.43619,0.01926
5220.36466,0.03910
5222.29313,0.04484
5224.22160,0.03616
5226.15007,0.02642
5228.07854,0.03225
5230.00700,0.05065
5231.93547,0.06039
5233.86394,0.05118
5235.79241,0.04614
5237.72088,0.05539
5239.64935,0.05293
5241.57782,0.03651
5243.50628,0.02432
5245.43475,0.02429
5247.36322,0.03558
5249.29169,0.04827
5251.22016,0.05327
5253.14863,0.05084
5255.07710,0.04572
5257.00556,0.03652
5258.93403,0.02378
5260.86250,0.01626
5262.79097,0.02740
5264.71944,0.05912
5266.64791,0.07497
5268.57638,0.06013
5270.50485,0.04256
5272.43331,0.04369
5274.36178,0.05332
5276.29025,0.04557
5278.21872,0.01786
5280.14719,-0.00100
5282.07566,0.01149
5284.00413,0.03697
5285.93259,0.04879
5287.86106,0.06048
5289.78953,0.07571
5291.71800,0.06209
5293.64647,0.03320
5295.57494,0.02553
5297.50341,0.02785
5299.43188,0.02702
5301.36034,0.03969
5303.28881,0.06441
5305.21728,0.07663
5307.14575,0.07978
5309.07422,0.08589
5311.00269,0.08330
5312.93116,0.08148
5314.85962,0.09339
5316.78809,0.09566
5318.71656,0.08494
5320.64503,0.08403
5322.57350,0.08473
5324.50197,0.07821
5326.43044,0.07385
5328.35891,0.06991
5330.28737,0.06510
5332.21584,0.05835
5334.14431,0.04268
5336.07278,0.03087
5338.00125,0.04472
5339.92972,0.06476
5341.85819,0.07111
5343.78665,0.07851
5345.71512,0.07810
5347.64359,0.06730
5349.57206,0.05794
5351.50053,0.04007
5353.42900,0.02578
5355.35747,0.04407
5357.28594,0.07178
5359.21440,0.07789
5361.14287,0.06598
5363.07134,0.04821
5364.99981,0.03711
5366.92828,0.04742
5368.85675,0.07303
5370.78522,0.09636
5372.71368,0.11168
5374.64215,0.11573
5376.57062,0.10205
5378.49909,0.07871
5380.42756,0.06245
5382.35603,0.05470
5384.28450,0.03850
5386.21297,0.01748
5388.14143,0.01691
5390.06990,0.02775
5391.99837,0.03629
5393.92684,0.04529
5395.85531,0.05349
5397.78378,0.05562
5399.71225,0.05621
5401.64071,0.05607
5403.56918,0.05517
5405.49765,0.05937
5407.42612,0.06745
5409.35459,0.08051
5411.28306,0.09594
5413.21153,0.09293
5415.13999,0.07174
5417.06846,0.06407
5418.99693,0.07026
5420.92540,0.06786
5422.85387,0.06076
5424.78234,0.06034
5426.71081,0.06132
5428.63928,0.06284
5430.56774,0.06379
5432.49621,0.05813
5434.42468,0.05199
5436.35315,0.04472
5438.28162,0.02816
5440.21009,0.02182
5442.13856,0.04382
5444.06702,0.07521
5445.99549,0.09384
5447.92396,0.08733
5449.85243,0.05957
5451.78090,0.03848
5453.70937,0.04277
5455.63784,0.06079
5457.56631,0.07145
5459.49477,0.07198
5461.42324,0.06776
5463.35171,0.06844
5465.28018,0.08430
5467.20865,0.10098
5469.13712,0.10356
5471.06559,0.10204
5472.99405,0.11291
5474.92252,0.13770
5476.85099,0.13831
5478.77946,0.10605
5480.70793,0.08282
5482.63640,0.07434
5484.56487,0.06720
5486.49334,0.05554
5488.42180,0.04000
5490.35027,0.04803
5492.27874,0.07989
5494.20721,0.09032
5496.13568,0.07388
5498.06415,0.05368
5499.99262,0.03599
5501.92108,0.02847
5503.84955,0.03417
5505.77802,0.03468
5507.70649,0.02655
5509.63496,0.03978
5511.56343,0.07726
5513.49190,0.09071
5515.42037,0.05682
5517.34883,0.02815
5519.27730,0.03573
5521.20577,0.04313
5523.13424,0.03914
5525.06271,0.04901
5526.99118,0.06832
5528.91965,0.07520
5530.84811,0.08629
5532.77658,0.11079
5534.70505,0.10795
5536.63352,0.07899
5538.56199,0.05778
5540.49046,0.05298
5542.41893,0.07958
5544.34740,0.10743
5546.27586,0.08833
5548.20433,0.04907
5550.13280,0.02373
5552.06127,0.01364
5553.98974,0.01497
5555.91821,0.02446
5557.84668,0.04288
5559.77514,0.05651
5561.70361,0.06280
5563.63208,0.05891
5565.56055,0.02537
5567.48902,0.00263
5569.41749,0.03658
5571.34596,0.08690
5573.27443,0.10662
5575.20289,0.09414
5577.13136,0.06851
5579.05983,0.04368
5580.98830,0.03431
5582.91677,0.04900
5584.84524,0.05912
5586.77371,0.05715
5588.70217,0.07248
5590.63064,0.08844
5592.55911,0.07833
5594.48758,0.07028
5596.41605,0.08940
5598.34452,0.10691
5600.27299,0.09148
5602.20145,0.06601
5604.12992,0.05758
5606.05839,0.07244
5607.98686,0.09172
5609.91533,0.07368
5611.84380,0.03488
5613.77227,0.03467
5615.70074,0.07086
5617.62920,0.10860
5619.55767,0.12691
5621.48614,0.11582
5623.41461,0.09724
5625.34308,0.09067
5627.27155,0.08909
5629.20002,0.08614
5631.12848,0.07442
5633.05695,0.05902
5634.98542,0.05262
5636.91389,0.06357
5638.84236,0.08819
5640.77083,0.08984
5642.69930,0.05881
5644.62777,0.04107
5646.55623,0.06219
5648.48470,0.08537
5650.41317,0.07897
5652.34164,0.07418
5654.27011,0.08492
5656.19858,0.08043
5658.12705,0.06448
5660.05551,0.05585
5661.98398,0.05945
5663.91245,0.07088
5665.84092,0.07738
5667.76939,0.07815
5669.69786,0.07182
5671.62633,0.06066
5673.55480,0.05494
5675.48326,0.06476
5677.41173,0.08887
5679.34020,0.09480
5681.26867,0.07650
5683.19714,0.06721
5685.12561,0.07708
5687.05408,0.08404
5688.98254,0.08227
5690.91101,0.09620
5692.83948,0.12381
5694.76795,0.14733
5696.69642,0.15533
5698.62489,0.13019
5700.55336,0.09332
5702.48183,0.06960
5704.41029,0.05194
5706.33876,0.06434
5708.26723,0.11211
5710.19570,0.13541
5712.12417,0.11323
5714.05264,0.08876
5715.98111,0.07798
5717.90957,0.07862
5719.83804,0.10139
5721.76651,0.12007
5723.69498,0.10254
5725.62345,0.07955
5727.55192,0.09899
5729.48039,0.13842
5731.40886,0.15323
5733.33732,0.14614
5735.26579,0.12586
5737.19426,0.11829
5739.12273,0.12963
5741.05120,0.11839
5742.97967,0.09927
5744.90814,0.09739
5746.83660,0.08925
5748.76507,0.08124
5750.69354,0.09707
5752.62201,0.12816
5754.55048,0.14918
5756.47895,0.14282
5758.40742,0.12666
5760.33588,0.11950
5762.26435,0.11304
5764.19282,0.08995
5766.12129,0.05525
5768.04976,0.03919
5769.97823,0.04455
5771.90670,0.05238
5773.83517,0.05278
5775.76363,0.04200
5777.69210,0.01935
5779.62057,0.01666
5781.54904,0.06214
5783.47751,0.09370
5785.40598,0.06943
5787.33445,0.04162
5789.26291,0.04746
5791.19138,0.08297
5793.11985,0.11438
5795.04832,0.11368
5796.97679,0.09913
5798.90526,0.08310
5800.83373,0.06365
5802.76220,0.05685
5804.69066,0.07055
5806.61913,0.07672
5808.54760,0.05556
5810.47607,0.04229
5812.40454,0.07172
5814.33301,0.10815
5816.26148,0.11232
5818.18994,0.10417
5820.11841,0.10035
5822.04688,0.09499
5823.97535,0.09174
5825.90382,0.08271
5827.83229,0.06501
5829.76076,0.05910
5831.68923,0.08100
5833.61769,0.11943
5835.54616,0.13096
5837.47463,0.11211
5839.40310,0.11250
5841.33157,0.11942
5843.26004,0.08161
5845.18851,0.03303
5847.11697,0.02882
5849.04544,0.06160
5850.97391,0.07828
5852.90238,0.05117
5854.83085,0.03766
5856.75932,0.06699
5858.68779,0.08023
5860.61626,0.07128
5862.54472,0.07471
5864.47319,0.09042
5866.40166,0.11084
5868.33013,0.11460
5870.25860,0.10971
5872.18707,0.11748
5874.11554,0.11158
5876.04400,0.09973
5877.97247,0.11794
5879.90094,0.12599
5881.82941,0.09859
5883.75788,0.08716
5885.68635,0.10453
5887.61482,0.10989
5889.54329,0.10022
5891.47175,0.10836
5893.40022,0.12705
5895.32869,0.11626
5897.25716,0.07229
5899.18563,0.03146
5901.11410,0.01345
5903.04257,0.02791
5904.97103,0.07572
5906.89950,0.11685
5908.82797,0.12336
5910.75644,0.11098
5912.68491,0.09546
5914.61338,0.07914
5916.54185,0.06710
5918.47032,0.08350
5920.39878,0.12256
5922.32725,0.13695
5924.25572,0.10621
5926.18419,0.06487
5928.11266,0.07665
5930.04113,0.10110
5931.96960,0.06682
5933.89806,0.04273
5935.82653,0.07454
5937.75500,0.07677
5939.68347,0.01449
5941.61194,-0.03678
5943.54041,-0.00268
5945.46888,0.07490
5947.39734,0.11327
5949.32581,0.10193
5951.25428,0.09414
5953.18275,0.12501
5955.11122,0.14519
5957.03969,0.12143
5958.96816,0.11494
5960.89663,0.15188
5962.82509,0.15036
5964.75356,0.08869
5966.68203,0.04346
5968.61050,0.03636
5970.53897,0.04465
5972.46744,0.07097
5974.39591,0.10493
5976.32437,0.14077
5978.25284,0.15037
5980.18131,0.12539
5982.10978,0.09980
5984.03825,0.07033
5985.96672,0.03707
5987.89519,0.02599
5989.82366,0.03109
5991.75212,0.04182
5993.68059,0.06044
5995.60906,0.05581
5997.53753,0.01293
5999.46600,-0.01873
6001.39447,-0.02270
6003.32294,-0.02474
6005.25140,-0.00954
6007.17987,0.03724
6009.10834,0.07863
6011.03681,0.09928
6012.96528,0.10318
6014.89375,0.09194
6016.82222,0.07331
6018.75069,0.06677
6020.67915,0.07830
6022.60762,0.07077
6024.53609,0.03916
6026.46456,0.01620
6028.39303,0.00357
6030.32150,-0.00472
6032.24997,0.02304
6034.17843,0.08091
6036.10690,0.09592
6038.03537,0.06056
6039.96384,0.04087
6041.89231,0.04464
6043.82078,0.04308
6045.74925,0.04596
6047.67772,0.05911
6049.60618,0.08572
6051.53465,0.12214
6053.46312,0.12093
6055.39159,0.09943
6057.32006,0.13524
6059.24853,0.18046
6061.17700,0.16105
6063.10546,0.14139
6065.03393,0.14644
6066.96240,0.10177
6068.89087,0.02549
6070.81934,0.00633
6072.74781,0.04701
6074.67628,0.08015
6076.60475,0.09811
6078.53321,0.13032
6080.46168,0.16301
6082.39015,0.16317
6084.31862,0.12208
6086.24709,0.08135
6088.17556,0.09433
6090.10403,0.11989
6092.03249,0.10005
6093.96096,0.06664
6095.88943,0.04685
6097.81790,0.04949
6099.74637,0.07453
6101.67484,0.09184
6103.60331,0.10082
6105.53177,0.11224
6107.46024,0.14299
6109.38871,0.18382
6111.31718,0.19621
6113.24565,0.17428
6115.17412,0.12345
6117.10259,0.07584
6119.03106,0.06882
6120.95952,0.08056
6122.88799,0.07512
6124.81646,0.05830
6126.74493,0.03325
6128.67340,-0.00210
6130.60187,-0.00900
6132.53034,0.04890
6134.45880,0.13631
6136.38727,0.17516
6138.31574,0.15106
6140.24421,0.10417
6142.17268,0.07548
6144.10115,0.08707
6146.02962,0.08215
6147.95809,0.03102
6149.88655,-0.00036
6151.81502,0.02749
6153.74349,0.06535
6155.67196,0.07949
6157.60043,0.08929
6159.52890,0.10033
6161.45737,0.09640
6163.38583,0.05619
6165.31430,-0.00306
6167.24277,-0.03387
6169.17124,-0.01659
6171.09971,0.05825
6173.02818,0.13616
6174.95665,0.16072
6176.88512,0.19990
6178.81358,0.24707
6180.74205,0.20240
6182.67052,0.11874
6184.59899,0.08261
6186.52746,0.09368
6188.45593,0.13821
6190.38440,0.16212
6192.31286,0.13073
6194.24133,0.07809
6196.16980,0.02945
6198.09827,0.00843
6200.02674,0.03491
6201.95521,0.09145
6203.88368,0.13100
6205.81215,0.08889
6207.74061,0.03697
6209.66908,0.07573
6211.59755,0.12382
6213.52602,0.13379
6215.45449,0.14805
6217.38296,0.11255
6219.31143,0.02936
6221.23989,-0.00257
6223.16836,0.00778
6225.09683,0.01391
6227.02530,0.04251
6228.95377,0.05311
6230.88224,0.05541
6232.81071,0.10448
6234.73918,0.10307
6236.66764,0.04510
6238.59611,0.03579
6240.52458,0.05581
6242.45305,0.05179
6244.38152,0.06644
6246.30999,0.13114
6248.23846,0.16620
6250.16692,0.09823
6252.09539,0.00412
6254.02386,0.01202
6255.95233,0.12104
6257.88080,0.20506
6259.80927,0.19301
6261.73774,0.12384
6263.66621,0.06311
6265.59467,0.09304
6267.52314,0.16083
6269.45161,0.15714
6271.38008,0.10626
6273.30855,0.06059
6275.23702,0.04854
6277.16549,0.04116
6279.09395,0.01870
6281.02242,0.00612
6282.95089,0.00330
6284.87936,0.02151
6286.80783,0.07851
6288.73630,0.13061
6290.66477,0.13364
6292.59323,0.12541
6294.52170,0.13158
6296.45017,0.12872
6298.37864,0.11355
6300.30711,0.10245
6302.23558,0.09804
6304.16405,0.07579
6306.09252,0.07073
6308.02098,0.11262
6309.94945,0.11361
6311.87792,0.06619
6313.80639,0.04237
6315.73486,0.03175
6317.66333,0.04610
6319.59180,0.08651
6321.52026,0.09392
6323.44873,0.05143
6325.37720,-0.00079
6327.30567,-0.00917
6329.23414,0.03650
6331.16261,0.07407
6333.09108,0.08332
6335.01955,0.13103
6336.94801,0.21147
6338.87648,0.22751
6340.80495,0.17461
6342.73342,0.12633
6344.66189,0.10253
6346.59036,0.11572
6348.51883,0.16109
6350.44729,0.18623
6352.37576,0.15527
6354.30423,0.10662
6356.23270,0.10094
6358.16117,0.10346
6360.08964,0.07978
6362.01811,0.10272
6363.94658,0.17434
6365.87504,0.20283
6367.80351,0.14913
6369.73198,0.07866
6371.66045,0.06898
6373.58892,0.09412
6375.51739,0.09894
6377.44586,0.09187
6379.37432,0.09828
6381.30279,0.15642
6383.23126,0.24935
6385.15973,0.25614
6387.08820,0.17097
6389.01667,0.08610
6390.94514,0.02557
6392.87361,-0.02042
6394.80207,-0.01523
6396.73054,0.03521
6398.65901,0.05672
6400.58748,0.04509
6402.51595,0.04382
6404.44442,0.07225
6406.37289,0.13754
6408.30135,0.18940
6410.22982,0.18101
6412.15829,0.15027
6414.08676,0.11250
6416.01523,0.05328
6417.94370,0.04351
6419.87217,0.11367
6421.80064,0.13634
6423.72910,0.10422
6425.65757,0.12104
6427.58604,0.17114
6429.51451,0.15864
6431.44298,0.07877
6433.37145,0.04104
6435.29992,0.06418
6437.22838,0.03955
6439.15685,-0.01515
6441.08532,0.00134
6443.01379,0.04758
6444.94226,0.04653
6446.87073,-0.00629
6448.79920,-0.06128
6450.72766,-0.03329
6452.65613,0.04768
6454.58460,0.05555
6456.51307,0.02243
6458.44154,0.06711
6460.37001,0.14711
6462.29848,0.16295
6464.22695,0.10939
6466.15541,-0.00551
6468.08388,-0.13357
6470.01235,-0.16584
6471.94082,-0.10174
6473.86929,-0.02256
6475.79776,0.04452
6477.72623,0.08154
6479.65469,0.07029
6481.58316,0.05258
6483.51163,0.08413
6485.44010,0.09647
6487.36857,0.02878
6489.29704,-0.01961
6491.22551,0.03252
6493.15398,0.09112
6495.08244,0.05867
6497.01091,-0.01515
6498.93938,-0.01945
6500.86785,0.07168
6502.79632,0.13796
6504.72479,0.13605
6506.65326,0.12126
6508.58172,0.08740
6510.51019,0.04607
6512.43866,0.04060
6514.36713,0.06362
6516.29560,0.10975
6518.22407,0.17183
6520.15254,0.18507
6522.08101,0.13534
6524.00947,0.10950
6525.93794,0.11658
6527.86641,0.06073
6529.79488,-0.00500
6531.72335,0.02452
6533.65182,0.05081
6535.58029,-0.02744
6537.50875,-0.06993
6539.43722,-0.03549
6541.36569,-0.03731
6543.29416,-0.01468
6545.22263,0.05763
6547.15110,0.08881
6549.07957,0.07778
6551.00804,0.05826
6552.93650,0.04879
6554.86497,0.05102
6556.79344,0.06132
6558.72191,0.05521
6560.65038,0.04088
6562.57885,0.06546
6564.50732,0.12035
6566.43578,0.17813
6568.36425,0.20919
6570.29272,0.17762
6572.22119,0.13260
6574.14966,0.11763
6576.07813,0.09299
6578.00660,0.06996
6579.93507,0.05735
6581.86353,0.02012
6583.79200,0.00674
6585.72047,0.05774
6587.64894,0.12845
6589.57741,0.16557
6591.50588,0.16302
6593.43435,0.16891
6595.36281,0.17866
6597.29128,0.12986
6599.21975,0.05007
6601.14822,0.03687
6603.07669,0.09476
6605.00516,0.11516
6606.93363,0.05641
6608.86210,0.00120
6610.79056,0.03186
6612.71903,0.11043
6614.64750,0.14344
6616.57597,0.13278
6618.50444,0.15725
6620.43291,0.19772
6622.36138,0.20613
6624.28984,0.18048
6626.21831,0.12655
6628.14678,0.09605
6630.07525,0.07991
6632.00372,0.04323
6633.93219,0.07061
6635.86066,0.15616
6637.78912,0.18107
6639.71759,0.13377
6641.64606,0.08900
6643.57453,0.08952
6645.50300,0.11235
6647.43147,0.16484
6649.35994,0.25922
6651.28841,0.32506
6653.21687,0.28704
6655.14534,0.13699
6657.07381,-0.00512
6659.00228,-0.01523
6660.93075,0.03986
6662.85922,0.10148
6664.78769,0.16637
6666.71615,0.17816
6668.64462,0.09991
6670.57309,0.01107
6672.50156,0.01799
6674.43003,0.06866
6676.35850,0.03674
6678.28697,-0.02603
6680.21544,-0.00720
6682.14390,0.05323
6684.07237,0.05675
6686.00084,-0.00835
6687.92931,-0.09280
6689.85778,-0.12083
6691.78625,-0.02671
6693.71472,0.13044
6695.64318,0.20866
6697.57165,0.17555
6699.50012,0.12789
6701.42859,0.08122
6703.35706,0.07775
6705.28553,0.10026
6707.21400,0.03443
6709.14247,-0.02653
6711.07093,0.02232
6712.99940,0.09328
6714.92787,0.08602
6716.85634,-0.00884
6718.78481,-0.08529
6720.71328,-0.07362
6722.64175,-0.02379
6724.57021,0.01597
6726.49868,0.04396
6728.42715,0.03386
6730.35562,-0.01380
6732.28409,0.04402
6734.21256,0.20453
6736.14103,0.25748
6738.06950,0.20081
6739.99796,0.14515
6741.92643,0.10347
6743.85490,0.08977
6745.78337,0.10523
6747.71184,0.11244
6749.64031,0.08541
6751.56878,0.03878
6753.49724,0.00902
6755.42571,0.02366
6757.35418,0.05663
6759.28265,0.08663
6761.21112,0.06938
6763.13959,-0.01014
6765.06806,-0.02876
6766.99653,0.01826
6768.92499,-0.00180
6770.85346,-0.08735
6772.78193,-0.15634
6774.71040,-0.16116
6776.63887,-0.07783
6778.56734,0.01458
6780.49581,0.02342
6782.42427,-0.06498
6784.35274,-0.15106
6786.28121,-0.09476
6788.20968,0.07939
6790.13815,0.21633
6792.06662,0.22383
6793.99509,0.15372
6795.92355,0.09458
6797.85202,0.11836
6799.78049,0.20000
6801.70896,0.19632
6803.63743,0.07497
6805.56590,0.01102
6807.49437,0.03872
6809.42284,0.05826
6811.35130,0.10191
6813.27977,0.22129
6815.20824,0.27835
6817.13671,0.16712
6819.06518,0.06705
6820.99365,0.09722
6822.92212,0.13266
6824.85058,0.09406
6826.77905,0.06386
6828.70752,0.05713
6830.63599,0.05408
6832.56446,0.06076
6834.49293,0.03878
6836.42140,-0.03925
6838.34987,-0.07845
6840.27833,-0.02778
6842.20680,0.02420
6844.13527,0.01713
6846.06374,0.01677
6847.99221,0.07209
6849.92068,0.11031
6851.84915,0.08200
6853.77761,0.05109
6855.70608,0.06470
6857.63455,0.10779
6859.56302,0.15793
6861.49149,0.15159
6863.41996,0.08564
6865.34843,0.05684
6867.27690,0.07118
6869.20536,0.08986
6871.13383,0.11579
6873.06230,0.13304
6874.99077,0.06933
6876.91924,-0.01785
6878.84771,0.00867
6880.77618,0.08114
6882.70464,0.03188
6884.63311,-0.07567
6886.56158,-0.13897
6888.49005,-0.13015
6890.41852,-0.05423
6892.34699,0.01279
6894.27546,0.04528
6896.20393,0.12449
6898.13239,0.19228
6900.06086,0.16263
6901.98933,0.10038
6903.91780,0.06776
6905.84627,0.13462
6907.77474,0.22294
6909.70321,0.18998
6911.63167,0.10576
6913.56014,0.07143
6915.48861,0.09155
6917.41708,0.13941
6919.34555,0.18489
6921.27402,0.21599
6923.20249,0.16232
6925.13096,0.03884
6927.05942,0.01514
6928.98789,0.13113
6930.91636,0.21557
6932.84483,0.19411
6934.77330,0.18833
6936.70177,0.17268
6938.63024,0.08570
6940.55870,0.06397
6942.48717,0.12610
6944.41564,0.10331
6946.34411,0.04847
6948.27258,0.08589
6950.20105,0.15734
6952.12952,0.20497
6954.05799,0.25993
6955.98645,0.18571
6957.91492,-0.00205
6959.84339,-0.04108
6961.77186,0.05475
6963.70033,0.12879
6965.62880,0.16072
6967.55727,0.19038
6969.48573,0.26752
6971.41420,0.29666
6973.34267,0.14049
6975.27114,0.03199
6977.19961,0.06240
6979.12808,-0.00131
6981.05655,-0.05214
6982.98501,-0.00057
6984.91348,0.01761
6986.84195,0.01565
6988.77042,0.02654
6990.69889,0.04408
6992.62736,0.08455
6994.55583,0.06746
6996.48430,-0.02331
6998.41276,-0.03076
7000.34123,0.07057
7002.26970,0.13007
7004.19817,0.13494
7006.12664,0.15330
7008.05511,0.14419
7009.98358,0.12168
7011.91204,0.18154
7013.84051,0.29057
7015.76898,0.30520
7017.69745,0.19823
7019.62592,0.13811
7021.55439,0.21747
7023.48286,0.23704
7025.41133,0.09810
7027.33979,-0.06294
7029.26826,-0.17003
7031.19673,-0.17207
7033.12520,-0.03864
7035.05367,0.08934
7036.98214,0.07691
7038.91061,0.03393
7040.83907,0.01241
7042.76754,-0.03185
7044.69601,-0.09284
7046.62448,-0.06256
7048.55295,0.06755
7050.48142,0.08409
7052.40989,-0.06100
7054.33836,-0.15088
7056.26682,-0.08966
7058.19529,-0.04348
7060.12376,-0.11875
7062.05223,-0.18777
7063.98070,-0.13841
7065.90917,-0.10909
7067.83764,-0.18024
7069.76610,-0.17069
7071.69457,-0.03849
7073.62304,0.00984
7075.55151,-0.05246
7077.47998,-0.08736
7079.40845,-0.04329
7081.33692,-0.03623
7083.26539,-0.02168
7085.19385,0.07006
7087.12232,0.04896
7089.05079,-0.06360
7090.97926,-0.07578
7092.90773,-0.06174
7094.83620,-0.07426
7096.76467,0.00258
7098.69313,0.17077
7100.62160,0.25626
7102.55007,0.28560
7104.47854,0.30394
7106.40701,0.23432
7108.33548,0.13640
7110.26395,0.14146
7112.19242,0.22931
7114.12088,0.24830
7116.04935,0.14211
7117.97782,0.10878
7119.90629,0.27877
7121.83476,0.40817
7123.76323,0.36108
7125.69170,0.20085
7127.62016,0.04013
7129.54863,-0.00190
7131.47710,0.08923
7133.40557,0.15358
7135.33404,0.08373
7137.26251,-0.00431
7139.19098,-0.07667
7141.11944,-0.21242
7143.04791,-0.31397
7144.97638,-0.25325
7146.90485,-0.13888
7148.83332,-0.13298
7150.76179,-0.14284
7152.69026,-0.00692
7154.61873,0.20759
7156.54719,0.32211
7158.47566,0.35522
7160.40413,0.32550
7162.33260,0.24314
7164.26107,0.15993
7166.18954,0.06493
7168.11801,0.02296
7170.04647,0.10796
7171.97494,0.17636
7173.90341,0.11212
7175.83188,0.03602
7177.76035,0.10587
7179.68882,0.21470
7181.61729,0.15588
7183.54576,-0.01872
7185.47422,-0.09364
7187.40269,-0.09429
7189.33116,-0.06678
7191.25963,0.01597
7193.18810,0.06764
7195.11657,0.04884
7197.04504,0.08961
7198.97350,0.18965
7200.90197,0.21033
7202.83044,0.17322
7204.75891,0.15775
7206.68738,0.14786
7208.61585,0.15120
7210.54432,0.09593
7212.47279,-0.06913
7214.40125,-0.23464
7216.32972,-0.33572
7218.25819,-0.33499
7220.18666,-0.19542
7222.11513,-0.04340
7224.04360,0.09712
7225.97207,0.23724
7227.90053,0.27809
7229.82900,0.22047
7231.75747,0.17214
7233.68594,0.19597
7235.61441,0.23591
7237.54288,0.20192
7239.47135,0.09332
7241.39982,0.00406
7243.32828,0.04062
7245.25675,0.16490
7247.18522,0.20818
7249.11369,0.13968
7251.04216,0.04221
7252.97063,-0.07942
7254.89910,-0.26149
7256.82756,-0.30271
7258.75603,-0.16238
7260.68450,-0.02606
7262.61297,-0.07946
7264.54144,-0.20251
7266.46991,-0.24195
7268.39838,-0.14489
7270.32685,0.04039
7272.25531,0.18210
7274.18378,0.25366
7276.11225,0.26360
7278.04072,0.19930
7279.96919,0.18175
7281.89766,0.23837
7283.82613,0.19304
7285.75459,0.04134
7287.68306,-0.07382
7289.61153,-0.07837
7291.54000,0.05023
7293.46847,0.25901
7295.39694,0.30393
7297.32541,0.17180
7299.25387,0.15685
7301.18234,0.24611
7303.11081,0.27792
7305.03928,0.30635
7306.96775,0.34440
7308.89622,0.25604
7310.82469,0.11734
7312.75316,0.07678
7314.68162,0.11612
7316.61009,0.12104
7318.53856,0.00699
7320.46703,-0.01626
7322.39550,0.11011
7324.32397,0.12873
7326.25244,0.03790
7328.18090,0.09732
7330.10937,0.24276
7332.03784,0.22113
7333.96631,0.09963
7335.89478,-0.03536
7337.82325,-0.16638
7339.75172,-0.20833
7341.68019,-0.09645
7343.60865,0.01008
7345.53712,0.09170
7347.46559,0.12831
7349.39406,0.11451
7351.32253,0.16139
7353.25100,0.23720
7355.17947,0.26978
7357.10793,0.31569
7359.03640,0.40425
7360.96487,0.40294
7362.89334,0.24814
7364.82181,0.10597
7366.75028,0.10676
7368.67875,0.15074
7370.60722,0.10789
7372.53568,0.04537
7374.46415,0.06142
7376.39262,0.09746
7378.32109,0.07477
7380.24956,0.05461
7382.17803,0.07682
7384.10650,0.09343
7386.03496,0.01128
7387.96343,-0.11369
7389.89190,-0.03493
7391.82037,0.20151
7393.74884,0.28802
7395.67731,0.21429
7397.60578,0.13595
7399.53425,0.05948
7401.46271,-0.01057
7403.39118,-0.09613
7405.31965,-0.07054
7407.24812,0.07845
7409.17659,0.17544
7411.10506,0.17565
7413.03353,0.10310
7414.96199,0.08493
7416.89046,0.24856
7418.81893,0.44589
7420.74740,0.24780
7422.67587,-0.05168
7424.60434,-0.04192
7426.53281,0.08035
7428.46128,0.15499
7430.38974,0.24858
7432.31821,0.32784
7434.24668,0.37478
7436.17515,0.38244
7438.10362,0.30811
7440.03209,0.17105
7441.96056,0.08635
7443.88902,0.12767
7445.81749,0.16483
7447.74596,0.04592
7449.67443,-0.07616
7451.60290,-0.00372
7453.53137,0.05978
7455.45984,0.11186
7457.38831,0.26814
7459.31677,0.27116
7461.24524,0.08057
7463.17371,0.12478
7465.10218,0.17734
7467.03065,0.01650
7468.95912,-0.10287
7470.88759,-0.13616
7472.81605,-0.10300
7474.74452,0.03213
7476.67299,0.17723
7478.60146,0.26628
7480.52993,0.28861
7482.45840,0.21417
7484.38687,0.13702
7486.31533,0.11606
7488.24380,0.05163
7490.17227,-0.00889
7492.10074,0.05198
7494.02921,0.13392
7495.95768,0.10979
7497.88615,-0.08185
