399.19301,0.90622
401.12148,0.69751
403.04995,0.38398
404.97842,0.09986
406.90689,0.04227
408.83536,0.04399
410.76382,-0.03450
412.69229,0.04919
414.62076,0.27568
416.54923,0.28098
418.47770,-0.01873
420.40617,-0.17110
422.33464,-0.03306
424.26311,0.08959
426.19157,0.08479
428.12004,0.02054
430.04851,-0.02932
431.97698,-0.04042
433.90545,-0.03267
435.83392,-0.01234
437.76239,0.06737
439.69085,0.17135
441.61932,0.22245
443.54779,0.25264
445.47626,0.23212
447.40473,0.13237
449.33320,0.10126
451.26167,0.15092
453.19013,0.15950
455.11860,0.14737
457.04707,0.14448
458.97554,0.07393
460.90401,-0.01800
462.83248,-0.01870
464.76095,0.06339
466.68942,0.12376
468.61788,0.14593
470.54635,0.20461
472.47482,0.39335
474.40329,0.49974
476.33176,0.24260
478.26023,0.00219
480.18870,-0.11796
482.11716,-0.11916
484.04563,-0.02414
485.97410,0.03951
487.90257,0.05453
489.83104,0.07253
491.75951,0.07270
493.68798,0.05870
495.61645,0.06734
497.54491,0.06198
499.47338,0.02966
501.40185,0.02223
503.33032,0.03547
505.25879,0.02654
507.18726,0.01421
509.11573,0.02979
511.04419,0.05887
512.97266,0.08794
514.90113,0.11229
516.82960,0.14005
518.75807,0.16525
520.68654,0.18035
522.61501,0.18524
524.54348,0.16813
526.47194,0.14825
528.40041,0.15852
530.32888,0.18964
532.25735,0.20081
534.18582,0.16432
536.11429,0.10507
538.04276,0.08946
539.97122,0.11198
541.89969,0.11683
543.82816,0.09290
545.75663,0.04981
547.68510,0.00859
549.61357,0.06101
551.54204,0.35584
553.47051,0.67713
555.39897,0.60077
557.32744,0.27327
559.25591,0.10655
561.18438,0.11354
563.11285,0.16044
565.04132,0.17541
566.96979,0.14552
568.89825,0.09979
570.82672,0.07279
572.75519,0.09264
574.68366,0.12342
576.61213,0.11384
578.54060,0.09559
580.46907,0.11410
582.39754,0.14194
584.32600,0.14939
586.25447,0.14608
588.18294,0.12074
590.11141,0.08225
592.03988,0.07673
593.96835,0.10625
595.89682,0.12708
597.82528,0.12850
599.75375,0.13408
601.68222,0.15754
603.61069,0.18255
605.53916,0.17733
607.46763,0.14745
609.39610,0.12910
611.32456,0.13291
613.25303,0.13912
615.18150,0.12788
617.10997,0.11376
619.03844,0.11134
620.96691,0.10423
622.89538,0.09442
624.82385,0.09937
626.75231,0.11735
628.68078,0.13454
630.60925,0.15447
632.53772,0.17521
634.46619,0.17362
636.39466,0.16085
638.32313,0.15049
640.25159,0.13249
642.18006,0.11771
644.10853,0.12459
646.03700,0.13924
647.96547,0.13593
649.89394,0.12136
651.82241,0.11703
653.75088,0.12012
655.67934,0.11602
657.60781,0.10426
659.53628,0.10435
661.46475,0.12059
663.39322,0.12420
665.32169,0.10545
667.25016,0.08216
669.17862,0.07544
671.10709,0.09069
673.03556,0.10572
674.96403,0.09883
676.89250,0.07751
678.82097,0.07837
680.74944,0.10479
682.67791,0.11456
684.60637,0.10156
686.53484,0.10584
688.46331,0.12583
690.39178,0.12674
692.32025,0.10195
694.24872,0.08028
696.17719,0.08573
698.10565,0.10548
700.03412,0.11970
701.96259,0.12096
703.89106,0.11515
705.81953,0.11756
707.74800,0.11409
709.67647,0.05739
711.60494,-0.00749
713.53340,0.02604
715.46187,0.10547
717.39034,0.12974
719.31881,0.11806
721.24728,0.10385
723.17575,0.09910
725.10422,0.11265
727.03268,0.12808
728.96115,0.13015
730.88962,0.13308
732.81809,0.14570
734.74656,0.15067
736.67503,0.14186
738.60350,0.13516
740.53197,0.13243
742.46043,0.12966
744.38890,0.13653
746.31737,0.14351
748.24584,0.13513
750.17431,0.12293
752.10278,0.12362
754.03125,0.12848
755.95971,0.12209
757.88818,0.11486
759.81665,0.12431
761.74512,0.14281
763.67359,0.14862
765.60206,0.14409
767.53053,0.14124
769.45900,0.13804
771.38746,0.13065
773.31593,0.12056
775.24440,0.12258
777.17287,0.14406
779.10134,0.15981
781.02981,0.15226
782.95828,0.13905
784.88674,0.13633
786.81521,0.13879
788.74368,0.13290
790.67215,0.12059
792.60062,0.11728
794.52909,0.12500
796.45756,0.13592
798.38602,0.14428
800.31449,0.14655
802.24296,0.14408
804.17143,0.14594
806.09990,0.15374
808.02837,0.15336
809.95684,0.14298
811.88531,0.13480
813.81377,0.13314
815.74224,0.13698
817.67071,0.14346
819.59918,0.15103
821.52765,0.15689
823.45612,0.15401
825.38459,0.14464
827.31305,0.13599
829.24152,0.13398
831.16999,0.14000
833.09846,0.14858
835.02693,0.15812
836.95540,0.16201
838.88387,0.15457
840.81234,0.14765
842.74080,0.14705
844.66927,0.14436
846.59774,0.14295
848.52621,0.14294
850.45468,0.13484
852.38315,0.13202
854.31162,0.14019
856.24008,0.13895
858.16855,0.12882
860.09702,0.13084
862.02549,0.13992
863.95396,0.13707
865.88243,0.12712
867.81090,0.12361
869.73937,0.13000
871.66783,0.13917
873.59630,0.14592
875.52477,0.14926
877.45324,0.14701
879.38171,0.14448
881.31018,0.14613
883.23865,0.14694
885.16711,0.14274
887.09558,0.13571
889.02405,0.13287
890.95252,0.13857
892.88099,0.14341
894.80946,0.14084
896.73793,0.13770
898.66640,0.13689
900.59486,0.13679
902.52333,0.13542
904.45180,0.13875
906.38027,0.15522
908.30874,0.17277
910.23721,0.17275
912.16568,0.15689
914.09414,0.14130
916.02261,0.13277
917.95108,0.12860
919.87955,0.12897
921.80802,0.13488
923.73649,0.14356
925.66496,0.15058
927.59343,0.15238
929.52189,0.14944
931.45036,0.14833
933.37883,0.15208
935.30730,0.15226
937.23577,0.14259
939.16424,0.13223
941.09271,0.13238
943.02117,0.13924
944.94964,0.14316
946.87811,0.14767
948.80658,0.15571
950.73505,0.15346
952.66352,0.14247
954.59199,0.14056
956.52045,0.14535
958.44892,0.14918
960.37739,0.15193
962.30586,0.15170
964.23433,0.14844
966.16280,0.14389
968.09127,0.14443
970.01974,0.15053
971.94820,0.15189
973.87667,0.14806
975.80514,0.14759
977.73361,0.14970
979.66208,0.15170
981.59055,0.15787
983.51902,0.16495
985.44748,0.16734
987.37595,0.16632
989.30442,0.15993
991.23289,0.15136
993.16136,0.14985
995.08983,0.14896
997.01830,0.13918
998.94677,0.13435
1000.87523,0.14455
1002.80370,0.15449
1004.73217,0.15485
1006.66064,0.15382
1008.58911,0.15490
1010.51758,0.15414
1012.44605,0.15355
1014.37451,0.15292
1016.30298,0.14746
1018.23145,0.14211
1020.15992,0.14072
1022.08839,0.14458
1024.01686,0.15311
1025.94533,0.15440
1027.87380,0.14716
1029.80226,0.14677
1031.73073,0.15464
1033.65920,0.15732
1035.58767,0.15537
1037.51614,0.15497
1039.44461,0.15250
1041.37308,0.14866
1043.30154,0.14730
1045.23001,0.14769
1047.15848,0.15034
1049.08695,0.15578
1051.01542,0.16069
1052.94389,0.16407
1054.87236,0.16360
1056.80083,0.15529
1058.72929,0.14757
1060.65776,0.14878
1062.58623,0.15153
1064.51470,0.15021
1066.44317,0.15006
1068.37164,0.15349
1070.30011,0.15768
1072.22857,0.16001
1074.15704,0.15856
1076.08551,0.15431
1078.01398,0.15117
1079.94245,0.15445
1081.87092,0.16426
1083.79939,0.17266
1085.72786,0.17163
1087.65632,0.16377
1089.58479,0.16060
1091.51326,0.16631
1093.44173,0.17313
1095.37020,0.17144
1097.29867,0.16283
1099.22714,0.15978
1101.15560,0.16639
1103.08407,0.17302
1105.01254,0.17452
1106.94101,0.17877
1108.86948,0.18115
1110.79795,0.16832
1112.72642,0.15582
1114.65489,0.15991
1116.58335,0.16618
1118.51182,0.16312
1120.44029,0.15392
1122.36876,0.14416
1124.29723,0.14088
1126.22570,0.14463
1128.15417,0.14920
1130.08263,0.15117
1132.01110,0.15330
1133.93957,0.15566
1135.86804,0.15129
1137.79651,0.14530
1139.72498,0.14762
1141.65345,0.15235
1143.58191,0.15670
1145.51038,0.16414
1147.43885,0.17009
1149.36732,0.17053
1151.29579,0.16788
1153.22426,0.16481
1155.15273,0.16270
1157.08120,0.16383
1159.00966,0.16749
1160.93813,0.17010
1162.86660,0.17074
1164.79507,0.16966
1166.72354,0.16695
1168.65201,0.16169
1170.58048,0.15669
1172.50894,0.15897
1174.43741,0.16521
1176.36588,0.16670
1178.29435,0.16251
1180.22282,0.15712
1182.15129,0.15666
1184.07976,0.15942
1186.00823,0.16132
1187.93669,0.16566
1189.86516,0.17028
1191.79363,0.16972
1193.72210,0.16926
1195.65057,0.17203
1197.57904,0.17109
1199.50751,0.16661
1201.43597,0.16439
1203.36444,0.16270
1205.29291,0.16244
1207.22138,0.16800
1209.14985,0.17337
1211.07832,0.17205
1213.00679,0.16772
1214.93526,0.16523
1216.86372,0.16492
1218.79219,0.16588
1220.72066,0.16798
1222.64913,0.17029
1224.57760,0.17075
1226.50607,0.16762
1228.43454,0.16445
1230.36300,0.16583
1232.29147,0.16772
1234.21994,0.16730
1236.14841,0.16967
1238.07688,0.17516
1240.00535,0.17756
1241.93382,0.17506
1243.86229,0.17149
1245.79075,0.17020
1247.71922,0.16977
1249.64769,0.16730
1251.57616,0.16353
1253.50463,0.16167
1255.43310,0.16323
1257.36157,0.16438
1259.29003,0.16310
1261.21850,0.16364
1263.14697,0.16829
1265.07544,0.17370
1267.00391,0.17470
1268.93238,0.17126
1270.86085,0.16870
1272.78932,0.16820
1274.71778,0.16693
1276.64625,0.16712
1278.57472,0.16966
1280.50319,0.17057
1282.43166,0.17089
1284.36013,0.17337
1286.28860,0.17609
1288.21706,0.17501
1290.14553,0.17091
1292.07400,0.16854
1294.00247,0.16927
1295.93094,0.17103
1297.85941,0.16996
1299.78788,0.16667
1301.71634,0.16529
1303.64481,0.16529
1305.57328,0.16686
1307.50175,0.17125
1309.43022,0.17404
1311.35869,0.17295
1313.28716,0.17268
1315.21563,0.17576
1317.14409,0.17880
1319.07256,0.17839
1321.00103,0.17636
1322.92950,0.17516
1324.85797,0.17288
1326.78644,0.17250
1328.71491,0.17712
1330.64337,0.17707
1332.57184,0.16731
1334.50031,0.15880
1336.42878,0.15955
1338.35725,0.16589
1340.28572,0.16981
1342.21419,0.16577
1344.14266,0.15854
1346.07112,0.16105
1347.99959,0.17251
1349.92806,0.17748
1351.85653,0.17395
1353.78500,0.16876
1355.71347,0.16540
1357.64194,0.16718
1359.57040,0.17317
1361.49887,0.17803
1363.42734,0.17751
1365.35581,0.17623
1367.28428,0.17945
1369.21275,0.18258
1371.14122,0.18056
1373.06969,0.17779
1374.99815,0.17947
1376.92662,0.18302
1378.85509,0.18546
1380.78356,0.18545
1382.71203,0.18315
1384.64050,0.18235
1386.56897,0.18204
1388.49743,0.17616
1390.42590,0.16997
1392.35437,0.17224
1394.28284,0.18005
1396.21131,0.18240
1398.13978,0.18010
1400.06825,0.18144
1401.99672,0.18360
1403.92518,0.18121
1405.85365,0.17666
1407.78212,0.17663
1409.71059,0.18110
1411.63906,0.18465
1413.56753,0.18477
1415.49600,0.18327
1417.42446,0.18104
1419.35293,0.17984
1421.28140,0.18075
1423.20987,0.18140
1425.13834,0.18210
1427.06681,0.18323
1428.99528,0.18260
1430.92375,0.17999
1432.85221,0.18033
1434.78068,0.18450
1436.70915,0.18736
1438.63762,0.18571
1440.56609,0.18341
1442.49456,0.18369
1444.42303,0.18566
1446.35149,0.18615
1448.27996,0.18564
1450.20843,0.18576
1452.13690,0.18700
1454.06537,0.18933
1455.99384,0.19515
1457.92231,0.20310
1459.85077,0.19997
1461.77924,0.19298
1463.70771,0.18587
1465.63618,0.17932
1467.56465,0.17876
1469.49312,0.18291
1471.42159,0.18855
1473.35006,0.19081
1475.27852,0.18715
1477.20699,0.18487
1479.13546,0.18568
1481.06393,0.18697
1482.99240,0.18825
1484.92087,0.19080
1486.84934,0.19595
1488.77780,0.20196
1490.70627,0.20065
1492.63474,0.19418
1494.56321,0.18867
1496.49168,0.18398
1498.42015,0.18377
1500.34862,0.18814
1502.27709,0.19140
1504.20555,0.19280
1506.13402,0.19542
1508.06249,0.19850
1509.99096,0.19627
1511.91943,0.19300
1513.84790,0.19111
1515.77637,0.18981
1517.70483,0.18918
1519.63330,0.19506
1521.56177,0.20521
1523.49024,0.20308
1525.41871,0.19447
1527.34718,0.19000
1529.27565,0.18840
1531.20412,0.18696
1533.13258,0.18576
1535.06105,0.18505
1536.98952,0.18670
1538.91799,0.19549
1540.84646,0.20447
1542.77493,0.19542
1544.70340,0.18369
1546.63186,0.17921
1548.56033,0.18297
1550.48880,0.18899
1552.41727,0.19017
1554.34574,0.18949
1556.27421,0.19338
1558.20268,0.20118
1560.13115,0.19561
1562.05961,0.18709
1563.98808,0.18331
1565.91655,0.18021
1567.84502,0.17865
1569.77349,0.17909
1571.70196,0.18053
1573.63043,0.18439
1575.55889,0.18787
1577.48736,0.18589
1579.41583,0.18354
1581.34430,0.18216
1583.27277,0.18051
1585.20124,0.18003
1587.12971,0.17895
1589.05818,0.17828
1590.98664,0.18200
1592.91511,0.18571
1594.84358,0.18642
1596.77205,0.18556
1598.70052,0.18295
1600.62899,0.18113
1602.55746,0.18157
1604.48592,0.18183
1606.41439,0.18106
1608.34286,0.18167
1610.27133,0.18431
1612.19980,0.18593
1614.12827,0.18734
1616.05674,0.19228
1617.98521,0.19535
1619.91367,0.19318
1621.84214,0.19184
1623.77061,0.19161
1625.69908,0.19109
1627.62755,0.19122
1629.55602,0.19251
1631.48449,0.19420
1633.41295,0.19626
1635.34142,0.19955
1637.26989,0.20032
1639.19836,0.19859
1641.12683,0.19798
1643.05530,0.19845
1644.98377,0.19931
1646.91223,0.19961
1648.84070,0.19979
1650.76917,0.20126
1652.69764,0.20093
1654.62611,0.19552
1656.55458,0.19193
1658.48305,0.19119
1660.41152,0.19386
1662.33998,0.19545
1664.26845,0.19201
1666.19692,0.19146
1668.12539,0.19678
1670.05386,0.20226
1671.98233,0.20195
1673.91080,0.19830
1675.83926,0.19500
1677.76773,0.19736
1679.69620,0.20150
1681.62467,0.20070
1683.55314,0.19829
1685.48161,0.20130
1687.41008,0.20218
1689.33855,0.20074
1691.26701,0.19911
1693.19548,0.19884
1695.12395,0.19981
1697.05242,0.19947
1698.98089,0.19949
1700.90936,0.20070
1702.83783,0.19957
1704.76629,0.19607
1706.69476,0.19058
1708.62323,0.18592
1710.55170,0.18597
1712.48017,0.19126
1714.40864,0.19731
1716.33711,0.19776
1718.26558,0.19128
1720.19404,0.18727
1722.12251,0.18700
1724.05098,0.18829
1725.97945,0.18947
1727.90792,0.18986
1729.83639,0.19157
1731.76486,0.19395
1733.69332,0.19310
1735.62179,0.18968
1737.55026,0.18825
1739.47873,0.19008
1741.40720,0.19426
1743.33567,0.19711
1745.26414,0.19510
1747.19261,0.18827
1749.12107,0.18373
1751.04954,0.18402
1752.97801,0.18442
1754.90648,0.18691
1756.83495,0.19180
1758.76342,0.19454
1760.69189,0.19356
1762.62035,0.19107
1764.54882,0.19025
1766.47729,0.19068
1768.40576,0.19173
1770.33423,0.19528
1772.26270,0.19807
1774.19117,0.19453
1776.11964,0.18942
1778.04810,0.18589
1779.97657,0.18591
1781.90504,0.19107
1783.83351,0.19644
1785.76198,0.19678
1787.69045,0.19404
1789.61892,0.19199
1791.54738,0.18950
1793.47585,0.18715
1795.40432,0.18821
1797.33279,0.19031
1799.26126,0.18967
1801.18973,0.18673
1803.11820,0.18566
1805.04666,0.18761
1806.97513,0.19106
1808.90360,0.19311
1810.83207,0.19123
1812.76054,0.18755
1814.68901,0.18582
1816.61748,0.18724
1818.54595,0.19156
1820.47441,0.19305
1822.40288,0.18783
1824.33135,0.18436
1826.25982,0.18824
1828.18829,0.19287
1830.11676,0.19373
1832.04523,0.19056
1833.97369,0.18808
1835.90216,0.18882
1837.83063,0.19006
1839.75910,0.19010
1841.68757,0.19099
1843.61604,0.19277
1845.54451,0.19118
1847.47298,0.18814
1849.40144,0.18793
1851.32991,0.18772
1853.25838,0.18605
1855.18685,0.18633
1857.11532,0.18814
1859.04379,0.18836
1860.97226,0.18668
1862.90072,0.18456
1864.82919,0.18349
1866.75766,0.18475
1868.68613,0.18818
1870.61460,0.19019
1872.54307,0.19043
1874.47154,0.19134
1876.40001,0.19186
1878.32847,0.19104
1880.25694,0.18979
1882.18541,0.18778
1884.11388,0.18662
1886.04235,0.18843
1887.97082,0.19100
1889.89929,0.19228
1891.82775,0.19247
1893.75622,0.19162
1895.68469,0.18912
1897.61316,0.18578
1899.54163,0.18488
1901.47010,0.18789
1903.39857,0.19157
1905.32704,0.19215
1907.25550,0.19015
1909.18397,0.18820
1911.11244,0.18774
1913.04091,0.18902
1914.96938,0.19204
1916.89785,0.19538
1918.82632,0.19546
1920.75478,0.19367
1922.68325,0.19409
1924.61172,0.19424
1926.54019,0.19178
1928.46866,0.18958
1930.39713,0.18852
1932.32560,0.18678
1934.25407,0.18486
1936.18253,0.18493
1938.11100,0.18776
1940.03947,0.19174
1941.96794,0.19390
1943.89641,0.19276
1945.82488,0.18942
1947.75335,0.18566
1949.68181,0.18391
1951.61028,0.18437
1953.53875,0.18532
1955.46722,0.18667
1957.39569,0.18819
1959.32416,0.18901
1961.25263,0.18891
1963.18110,0.18775
1965.10956,0.18687
1967.03803,0.18790
1968.96650,0.18836
1970.89497,0.18771
1972.82344,0.18776
1974.75191,0.18682
1976.68038,0.18482
1978.60884,0.18433
1980.53731,0.18742
1982.46578,0.19117
1984.39425,0.19093
1986.32272,0.19032
1988.25119,0.19203
1990.17966,0.19184
1992.10812,0.18861
1994.03659,0.18611
1995.96506,0.18652
1997.89353,0.18899
1999.82200,0.19209
2001.75047,0.19387
2003.67894,0.19260
2005.60741,0.18956
2007.53587,0.18688
2009.46434,0.18559
2011.39281,0.18759
2013.32128,0.19121
2015.24975,0.19224
2017.17822,0.19007
2019.10669,0.18714
2021.03515,0.18749
2022.96362,0.19142
2024.89209,0.19468
2026.82056,0.19440
2028.74903,0.19202
2030.67750,0.19099
2032.60597,0.19101
2034.53444,0.18897
2036.46290,0.18613
2038.39137,0.18569
2040.31984,0.18666
2042.24831,0.18738
2044.17678,0.18786
2046.10525,0.18823
2048.03372,0.18852
2049.96218,0.18833
2051.89065,0.18867
2053.81912,0.19087
2055.74759,0.19407
2057.67606,0.19626
2059.60453,0.19657
2061.53300,0.19467
2063.46147,0.19195
2065.38993,0.19185
2067.31840,0.19358
2069.24687,0.19434
2071.17534,0.19411
2073.10381,0.19344
2075.03228,0.19388
2076.96075,0.19566
2078.88921,0.19514
2080.81768,0.19078
2082.74615,0.18730
2084.67462,0.18838
2086.60309,0.19140
2088.53156,0.19332
2090.46003,0.19475
2092.38850,0.19606
2094.31696,0.19581
2096.24543,0.19426
2098.17390,0.19209
2100.10237,0.19079
2102.03084,0.19293
2103.95931,0.19593
2105.88778,0.19548
2107.81624,0.19242
2109.74471,0.19027
2111.67318,0.19052
2113.60165,0.19194
2115.53012,0.19286
2117.45859,0.19217
2119.38706,0.19145
2121.31553,0.19366
2123.24399,0.19653
2125.17246,0.19601
2127.10093,0.19315
2129.02940,0.19020
2130.95787,0.18912
2132.88634,0.19163
2134.81481,0.19508
2136.74327,0.19429
2138.67174,0.19012
2140.60021,0.19038
2142.52868,0.19418
2144.45715,0.19256
2146.38562,0.18712
2148.31409,0.18564
2150.24255,0.18872
2152.17102,0.19208
2154.09949,0.19388
2156.02796,0.19366
2157.95643,0.19184
2159.88490,0.19079
2161.81337,0.19069
2163.74184,0.19125
2165.67030,0.19311
2167.59877,0.19479
2169.52724,0.19457
2171.45571,0.19359
2173.38418,0.19242
2175.31265,0.19020
2177.24112,0.19006
2179.16958,0.19355
2181.09805,0.19596
2183.02652,0.19546
2184.95499,0.19463
2186.88346,0.19423
2188.81193,0.19302
2190.74040,0.19212
2192.66887,0.19329
2194.59733,0.19363
2196.52580,0.19198
2198.45427,0.19220
2200.38274,0.19367
2202.31121,0.19332
2204.23968,0.19261
2206.16815,0.19381
2208.09661,0.19575
2210.02508,0.19572
2211.95355,0.19451
2213.88202,0.19460
2215.81049,0.19480
2217.73896,0.19442
2219.66743,0.19440
2221.59590,0.19380
2223.52436,0.19218
2225.45283,0.19146
2227.38130,0.19300
2229.30977,0.19430
2231.23824,0.19305
2233.16671,0.19105
2235.09518,0.19045
2237.02364,0.19041
2238.95211,0.19012
2240.88058,0.19044
2242.80905,0.19036
2244.73752,0.19026
2246.66599,0.19123
2248.59446,0.19027
2250.52293,0.18683
2252.45139,0.18522
2254.37986,0.18790
2256.30833,0.19140
2258.23680,0.19212
2260.16527,0.19133
2262.09374,0.18926
2264.02221,0.18615
2265.95067,0.18529
2267.87914,0.18612
2269.80761,0.18580
2271.73608,0.18548
2273.66455,0.18722
2275.59302,0.18993
2277.52149,0.19119
2279.44996,0.19083
2281.37842,0.19041
2283.30689,0.19033
2285.23536,0.18924
2287.16383,0.18616
2289.09230,0.18361
2291.02077,0.18397
2292.94924,0.18437
2294.87770,0.18158
2296.80617,0.17694
2298.73464,0.17196
2300.66311,0.16693
2302.59158,0.16235
2304.52005,0.15756
2306.44852,0.15341
2308.37699,0.15067
2310.30545,0.14703
2312.23392,0.14188
2314.16239,0.13481
2316.09086,0.12454
2318.01933,0.11435
2319.94780,0.10916
2321.87627,0.10710
2323.80473,0.10444
2325.73320,0.10194
2327.66167,0.09995
2329.59014,0.10381
2331.51861,0.11259
2333.44708,0.11146
2335.37555,0.10288
2337.30401,0.09679
2339.23248,0.09019
2341.16095,0.08855
2343.08942,0.09853
2345.01789,0.11163
2346.94636,0.12085
2348.87483,0.12067
2350.80330,0.10832
2352.73176,0.09161
2354.66023,0.08480
2356.58870,0.08677
2358.51717,0.08993
2360.44564,0.08802
2362.37411,0.07601
2364.30258,0.05974
2366.23104,0.05051
2368.15951,0.05897
2370.08798,0.08410
2372.01645,0.11253
2373.94492,0.13296
2375.87339,0.14473
2377.80186,0.15292
2379.73033,0.16169
2381.65879,0.17198
2383.58726,0.18076
2385.51573,0.18616
2387.44420,0.18968
2389.37267,0.19199
2391.30114,0.19288
2393.22961,0.19350
2395.15807,0.19410
2397.08654,0.19426
2399.01501,0.19446
2400.94348,0.19459
2402.87195,0.19589
2404.80042,0.19730
2406.72889,0.19645
2408.65736,0.19630
2410.58582,0.19722
2412.51429,0.19671
2414.44276,0.19553
2416.37123,0.19323
2418.29970,0.19091
2420.22817,0.19105
2422.15664,0.19212
2424.08510,0.19297
2426.01357,0.19408
2427.94204,0.19423
2429.87051,0.19315
2431.79898,0.19340
2433.72745,0.19483
2435.65592,0.19452
2437.58439,0.19339
2439.51285,0.19269
2441.44132,0.19263
2443.36979,0.19386
2445.29826,0.19407
2447.22673,0.19256
2449.15520,0.19431
2451.08367,0.20233
2453.01213,0.20830
2454.94060,0.20434
2456.86907,0.19709
2458.79754,0.19430
2460.72601,0.19485
2462.65448,0.19423
2464.58295,0.19260
2466.51142,0.19394
2468.43988,0.19538
2470.36835,0.19248
2472.29682,0.18912
2474.22529,0.19032
2476.15376,0.19487
2478.08223,0.19854
2480.01070,0.19951
2481.93916,0.19878
2483.86763,0.19828
2485.79610,0.19823
2487.72457,0.19627
2489.65304,0.19260
2491.58151,0.19118
2493.50998,0.19305
2495.43844,0.19439
2497.36691,0.19381
2499.29538,0.19456
2501.22385,0.19641
2503.15232,0.19669
2505.08079,0.19596
2507.00926,0.19553
2508.93773,0.19569
2510.86619,0.19546
2512.79466,0.19461
2514.72313,0.19294
2516.65160,0.19026
2518.58007,0.19105
2520.50854,0.19613
2522.43701,0.19843
2524.36547,0.19710
2526.29394,0.19722
2528.22241,0.19867
2530.15088,0.19883
2532.07935,0.19759
2534.00782,0.19584
2535.93629,0.19438
2537.86476,0.19510
2539.79322,0.19700
2541.72169,0.19554
2543.65016,0.19088
2545.57863,0.18711
2547.50710,0.18686
2549.43557,0.18897
2551.36404,0.18986
2553.29250,0.19073
2555.22097,0.19405
2557.14944,0.19607
2559.07791,0.19458
2561.00638,0.19361
2562.93485,0.19473
2564.86332,0.19499
2566.79179,0.19413
2568.72025,0.19517
2570.64872,0.19746
2572.57719,0.19756
2574.50566,0.19630
2576.43413,0.19601
2578.36260,0.19548
2580.29107,0.19471
2582.21953,0.19624
2584.14800,0.19847
2586.07647,0.19802
2588.00494,0.19582
2589.93341,0.19492
2591.86188,0.19663
2593.79035,0.19952
2595.71882,0.20050
2597.64728,0.19813
2599.57575,0.19482
2601.50422,0.19343
2603.43269,0.19447
2605.36116,0.19625
2607.28963,0.19851
2609.21810,0.20224
2611.14656,0.20471
2613.07503,0.20244
2615.00350,0.19754
2616.93197,0.19675
2618.86044,0.19957
2620.78891,0.20027
2622.71738,0.20002
2624.64585,0.20030
2626.57431,0.19834
2628.50278,0.19410
2630.43125,0.19240
2632.35972,0.19442
2634.28819,0.19660
2636.21666,0.19737
2638.14513,0.19673
2640.07359,0.19635
2642.00206,0.19772
2643.93053,0.20042
2645.85900,0.20387
2647.78747,0.20533
2649.71594,0.20334
2651.64441,0.20065
2653.57288,0.19791
2655.50134,0.19650
2657.42981,0.19946
2659.35828,0.20403
2661.28675,0.20700
2663.21522,0.20696
2665.14369,0.20298
2667.07216,0.19964
2669.00062,0.20087
2670.92909,0.20234
2672.85756,0.20049
2674.78603,0.19813
2676.71450,0.19704
2678.64297,0.19660
2680.57144,0.19606
2682.49990,0.19560
2684.42837,0.19532
2686.35684,0.19515
2688.28531,0.19645
2690.21378,0.19806
2692.14225,0.19763
2694.07072,0.19614
2695.99919,0.19601
2697.92765,0.19867
2699.85612,0.20181
2701.78459,0.20245
2703.71306,0.20300
2705.64153,0.20539
2707.57000,0.20672
2709.49847,0.20699
2711.42693,0.20758
2713.35540,0.20657
2715.28387,0.20418
2717.21234,0.20138
2719.14081,0.19763
2721.06928,0.19602
2722.99775,0.19745
2724.92622,0.19862
2726.85468,0.19926
2728.78315,0.20032
2730.71162,0.20221
2732.64009,0.20409
2734.56856,0.20334
2736.49703,0.20112
2738.42550,0.20142
2740.35396,0.20451
2742.28243,0.20697
2744.21090,0.20607
2746.13937,0.20412
2748.06784,0.20492
2749.99631,0.20553
2751.92478,0.20359
2753.85325,0.20250
2755.78171,0.20380
2757.71018,0.20711
2759.63865,0.20938
2761.56712,0.20791
2763.49559,0.20539
2765.42406,0.20372
2767.35253,0.20322
2769.28099,0.20379
2771.20946,0.20424
2773.13793,0.20486
2775.06640,0.20614
2776.99487,0.20693
2778.92334,0.20659
2780.85181,0.20618
2782.78028,0.20478
2784.70874,0.20073
2786.63721,0.19925
2788.56568,0.20514
2790.49415,0.21183
2792.42262,0.21351
2794.35109,0.21297
2796.27956,0.21215
2798.20802,0.21199
2800.13649,0.21336
2802.06496,0.21223
2803.99343,0.20786
2805.92190,0.20646
2807.85037,0.20767
2809.77884,0.20854
2811.70731,0.20968
2813.63577,0.20759
2815.56424,0.20340
2817.49271,0.20317
2819.42118,0.20699
2821.34965,0.21001
2823.27812,0.20852
2825.20659,0.20671
2827.13505,0.20907
2829.06352,0.21129
2830.99199,0.20925
2832.92046,0.20700
2834.84893,0.20790
2836.77740,0.20930
2838.70587,0.20998
2840.63433,0.21013
2842.56280,0.20738
2844.49127,0.20331
2846.41974,0.20276
2848.34821,0.20336
2850.27668,0.20340
2852.20515,0.20564
2854.13362,0.20808
2856.06208,0.20914
2857.99055,0.21081
2859.91902,0.21421
2861.84749,0.21707
2863.77596,0.21585
2865.70443,0.21220
2867.63290,0.20987
2869.56136,0.20834
2871.48983,0.20767
2873.41830,0.20801
2875.34677,0.20652
2877.27524,0.20466
2879.20371,0.20614
2881.13218,0.20901
2883.06065,0.20815
2884.98911,0.20437
2886.91758,0.20360
2888.84605,0.20755
2890.77452,0.21318
2892.70299,0.21661
2894.63146,0.21637
2896.55993,0.21241
2898.48839,0.20518
2900.41686,0.19830
2902.34533,0.19602
2904.27380,0.19875
2906.20227,0.20469
2908.13074,0.21072
2910.05921,0.21239
2911.98768,0.21038
2913.91614,0.20658
2915.84461,0.20187
2917.77308,0.20145
2919.70155,0.20644
2921.63002,0.20983
2923.55849,0.20956
2925.48696,0.21155
2927.41542,0.21354
2929.34389,0.20997
2931.27236,0.20444
2933.20083,0.20136
2935.12930,0.20095
2937.05777,0.20161
2938.98624,0.20268
2940.91471,0.20390
2942.84317,0.20515
2944.77164,0.20602
2946.70011,0.20433
2948.62858,0.20264
2950.55705,0.20514
2952.48552,0.20758
2954.41399,0.20568
2956.34245,0.20377
2958.27092,0.20702
2960.19939,0.21325
2962.12786,0.21625
2964.05633,0.21403
2965.98480,0.20973
2967.91327,0.20815
2969.84174,0.21156
2971.77020,0.21518
2973.69867,0.21435
2975.62714,0.21227
2977.55561,0.21128
2979.48408,0.21066
2981.41255,0.21204
2983.34102,0.21407
2985.26948,0.21549
2987.19795,0.21746
2989.12642,0.21885
2991.05489,0.21985
2992.98336,0.21846
2994.91183,0.21298
2996.84030,0.20991
2998.76877,0.21215
3000.69723,0.21316
3002.62570,0.21212
3004.55417,0.21377
3006.48264,0.21360
3008.41111,0.20887
3010.33958,0.20580
3012.26805,0.20297
3014.19651,0.19255
3016.12498,0.18005
3018.05345,0.18287
3019.98192,0.19977
3021.91039,0.21084
3023.83886,0.21210
3025.76733,0.21219
3027.69579,0.21298
3029.62426,0.21485
3031.55273,0.21693
3033.48120,0.21510
3035.40967,0.21075
3037.33814,0.20871
3039.26661,0.20924
3041.19508,0.20891
3043.12354,0.20748
3045.05201,0.20921
3046.98048,0.21379
3048.90895,0.21556
3050.83742,0.21265
3052.76589,0.20929
3054.69436,0.20726
3056.62282,0.20526
3058.55129,0.20892
3060.47976,0.21826
3062.40823,0.22307
3064.33670,0.22066
3066.26517,0.21276
3068.19364,0.20396
3070.12211,0.20064
3072.05057,0.20350
3073.97904,0.21025
3075.90751,0.21528
3077.83598,0.21540
3079.76445,0.21399
3081.69292,0.21261
3083.62139,0.20770
3085.54985,0.20222
3087.47832,0.20398
3089.40679,0.20971
3091.33526,0.21285
3093.26373,0.21084
3095.19220,0.20531
3097.12067,0.20356
3099.04914,0.20699
3100.97760,0.21136
3102.90607,0.21211
3104.83454,0.20825
3106.76301,0.20650
3108.69148,0.20844
3110.61995,0.20779
3112.54842,0.20575
3114.47688,0.20820
3116.40535,0.21223
3118.33382,0.21310
3120.26229,0.21358
3122.19076,0.21462
3124.11923,0.21194
3126.04770,0.20920
3127.97617,0.21480
3129.90463,0.22121
3131.83310,0.21902
3133.76157,0.21780
3135.69004,0.22127
3137.61851,0.21967
3139.54698,0.21309
3141.47545,0.20956
3143.40391,0.21101
3145.33238,0.21374
3147.26085,0.21577
3149.18932,0.21688
3151.11779,0.21708
3153.04626,0.21731
3154.97473,0.21902
3156.90320,0.22078
3158.83166,0.21800
3160.76013,0.21338
3162.68860,0.21255
3164.61707,0.21496
3166.54554,0.21872
3168.47401,0.22091
3170.40248,0.21980
3172.33094,0.21568
3174.25941,0.21152
3176.18788,0.21309
3178.11635,0.21847
3180.04482,0.22196
3181.97329,0.22251
3183.90176,0.21984
3185.83022,0.21774
3187.75869,0.22152
3189.68716,0.22629
3191.61563,0.22498
3193.54410,0.21996
3195.47257,0.21605
3197.40104,0.21405
3199.32951,0.21274
3201.25797,0.21120
3203.18644,0.20992
3205.11491,0.20720
3207.04338,0.20242
3208.97185,0.20257
3210.90032,0.20911
3212.82879,0.21236
3214.75725,0.20949
3216.68572,0.20849
3218.61419,0.21186
3220.54266,0.21254
3222.47113,0.20967
3224.39960,0.21149
3226.32807,0.21902
3228.25654,0.22358
3230.18500,0.22056
3232.11347,0.21390
3234.04194,0.21068
3235.97041,0.21244
3237.89888,0.21290
3239.82735,0.21282
3241.75582,0.21412
3243.68428,0.20910
3245.61275,0.20242
3247.54122,0.20378
3249.46969,0.20598
3251.39816,0.20594
3253.32663,0.21007
3255.25510,0.21521
3257.18357,0.21657
3259.11203,0.21522
3261.04050,0.21238
3262.96897,0.21160
3264.89744,0.21343
3266.82591,0.21653
3268.75438,0.21948
3270.68285,0.21539
3272.61131,0.20535
3274.53978,0.20100
3276.46825,0.20387
3278.39672,0.20622
3280.32519,0.20818
3282.25366,0.21138
3284.18213,0.21272
3286.11060,0.21113
3288.03906,0.20933
3289.96753,0.20949
3291.89600,0.20618
3293.82447,0.19917
3295.75294,0.19928
3297.68141,0.20568
3299.60988,0.20791
3301.53834,0.20640
3303.46681,0.20682
3305.39528,0.20730
3307.32375,0.20557
3309.25222,0.20508
3311.18069,0.20771
3313.10916,0.20770
3315.03763,0.20498
3316.96609,0.20933
3318.89456,0.21693
3320.82303,0.21553
3322.75150,0.20774
3324.67997,0.20350
3326.60844,0.20659
3328.53691,0.21305
3330.46537,0.21715
3332.39384,0.22004
3334.32231,0.22329
3336.25078,0.22078
3338.17925,0.21091
3340.10772,0.20389
3342.03619,0.20527
3343.96466,0.20748
3345.89312,0.20722
3347.82159,0.21189
3349.75006,0.22063
3351.67853,0.22525
3353.60700,0.22477
3355.53547,0.22085
3357.46394,0.21582
3359.39240,0.21484
3361.32087,0.21471
3363.24934,0.21056
3365.17781,0.20944
3367.10628,0.21332
3369.03475,0.21555
3370.96322,0.21588
3372.89168,0.21707
3374.82015,0.21874
3376.74862,0.21783
3378.67709,0.21445
3380.60556,0.21059
3382.53403,0.20561
3384.46250,0.20269
3386.39097,0.20454
3388.31943,0.20796
3390.24790,0.21032
3392.17637,0.20981
3394.10484,0.20564
3396.03331,0.20241
3397.96178,0.20583
3399.89025,0.21157
3401.81871,0.20994
3403.74718,0.20242
3405.67565,0.19934
3407.60412,0.20261
3409.53259,0.20554
3411.46106,0.20761
3413.38953,0.21138
3415.31800,0.21453
3417.24646,0.21591
3419.17493,0.21654
3421.10340,0.21506
3423.03187,0.20940
3424.96034,0.20290
3426.88881,0.20034
3428.81728,0.20160
3430.74574,0.20536
3432.67421,0.20810
3434.60268,0.20662
3436.53115,0.20360
3438.45962,0.20076
3440.38809,0.20034
3442.31656,0.20369
3444.24503,0.20523
3446.17349,0.20406
3448.10196,0.20305
3450.03043,0.20237
3451.95890,0.20395
3453.88737,0.20625
3455.81584,0.20479
3457.74431,0.19871
3459.67277,0.19255
3461.60124,0.19187
3463.52971,0.19385
3465.45818,0.19446
3467.38665,0.19712
3469.31512,0.20025
3471.24359,0.19564
3473.17206,0.18639
3475.10052,0.18221
3477.02899,0.18238
3478.95746,0.18310
3480.88593,0.18465
3482.81440,0.18522
3484.74287,0.18257
3486.67134,0.17900
3488.59980,0.17932
3490.52827,0.18745
3492.45674,0.19746
3494.38521,0.19539
3496.31368,0.18286
3498.24215,0.17708
3500.17062,0.18074
3502.09909,0.18376
3504.02755,0.18256
3505.95602,0.17992
3507.88449,0.17826
3509.81296,0.17937
3511.74143,0.18233
3513.66990,0.18375
3515.59837,0.18281
3517.52683,0.18006
3519.45530,0.17789
3521.38377,0.17945
3523.31224,0.18074
3525.24071,0.17895
3527.16918,0.17679
3529.09765,0.17294
3531.02611,0.16888
3532.95458,0.16677
3534.88305,0.16742
3536.81152,0.17201
3538.73999,0.17435
3540.66846,0.17161
3542.59693,0.17038
3544.52540,0.17198
3546.45386,0.16945
3548.38233,0.16277
3550.31080,0.16034
3552.23927,0.16265
3554.16774,0.16456
3556.09621,0.16611
3558.02468,0.16830
3559.95314,0.16917
3561.88161,0.16993
3563.81008,0.17147
3565.73855,0.16753
3567.66702,0.16017
3569.59549,0.16213
3571.52396,0.16525
3573.45243,0.16259
3575.38089,0.16008
3577.30936,0.16184
3579.23783,0.16375
3581.16630,0.16128
3583.09477,0.15655
3585.02324,0.15574
3586.95171,0.15998
3588.88017,0.15894
3590.80864,0.14963
3592.73711,0.14219
3594.66558,0.14230
3596.59405,0.14636
3598.52252,0.14792
3600.45099,0.14552
3602.37946,0.14152
3604.30792,0.13983
3606.23639,0.14363
3608.16486,0.15115
3610.09333,0.15443
3612.02180,0.15349
3613.95027,0.15271
3615.87874,0.15273
3617.80720,0.15324
3619.73567,0.15516
3621.66414,0.15492
3623.59261,0.14923
3625.52108,0.14327
3627.44955,0.14114
3629.37802,0.14090
3631.30649,0.14105
3633.23495,0.14068
3635.16342,0.13908
3637.09189,0.13816
3639.02036,0.13795
3640.94883,0.13780
3642.87730,0.14224
3644.80577,0.15222
3646.73423,0.15856
3648.66270,0.15110
3650.59117,0.13883
3652.51964,0.13609
3654.44811,0.13869
3656.37658,0.14036
3658.30505,0.13653
3660.23352,0.13389
3662.16198,0.13453
3664.09045,0.13348
3666.01892,0.13305
3667.94739,0.13586
3669.87586,0.13730
3671.80433,0.13725
3673.73280,0.13798
3675.66126,0.13585
3677.58973,0.13173
3679.51820,0.12934
3681.44667,0.12916
3683.37514,0.13029
3685.30361,0.13102
3687.23208,0.13341
3689.16055,0.13872
3691.08901,0.13938
3693.01748,0.13521
3694.94595,0.12876
3696.87442,0.12046
3698.80289,0.11657
3700.73136,0.12034
3702.65983,0.12591
3704.58829,0.12787
3706.51676,0.12993
3708.44523,0.13347
3710.37370,0.13326
3712.30217,0.12977
3714.23064,0.12883
3716.15911,0.12722
3718.08757,0.12214
3720.01604,0.11679
3721.94451,0.11637
3723.87298,0.11882
3725.80145,0.12285
3727.72992,0.12918
3729.65839,0.13233
3731.58686,0.13059
3733.51532,0.12851
3735.44379,0.13128
3737.37226,0.13299
3739.30073,0.13092
3741.22920,0.13266
3743.15767,0.14031
3745.08614,0.14414
3747.01460,0.13740
3748.94307,0.13117
3750.87154,0.13373
3752.80001,0.13838
3754.72848,0.13602
3756.65695,0.13278
3758.58542,0.13129
3760.51389,0.12826
3762.44235,0.12604
3764.37082,0.12886
3766.29929,0.13471
3768.22776,0.13655
3770.15623,0.13149
3772.08470,0.12815
3774.01317,0.12958
3775.94163,0.12986
3777.87010,0.12888
3779.79857,0.12683
3781.72704,0.12314
3783.65551,0.12282
3785.58398,0.12455
3787.51245,0.12364
3789.44092,0.12117
3791.36938,0.11942
3793.29785,0.12245
3795.22632,0.13040
3797.15479,0.13575
3799.08326,0.13458
3801.01173,0.12991
3802.94020,0.12933
3804.86866,0.13007
3806.79713,0.12110
3808.72560,0.11055
3810.65407,0.11149
3812.58254,0.11705
3814.51101,0.12385
3816.43948,0.13149
3818.36795,0.13079
3820.29641,0.12570
3822.22488,0.12422
3824.15335,0.12306
3826.08182,0.12134
3828.01029,0.11941
3829.93876,0.11964
3831.86723,0.12421
3833.79569,0.12777
3835.72416,0.12836
3837.65263,0.13178
3839.58110,0.13269
3841.50957,0.12728
3843.43804,0.12435
3845.36651,0.12411
3847.29498,0.12378
3849.22344,0.12432
3851.15191,0.12796
3853.08038,0.13499
3855.00885,0.13093
3856.93732,0.11928
3858.86579,0.11296
3860.79426,0.11330
3862.72272,0.11525
3864.65119,0.11630
3866.57966,0.11844
3868.50813,0.12174
3870.43660,0.12645
3872.36507,0.12701
3874.29354,0.12260
3876.22200,0.12120
3878.15047,0.12398
3880.07894,0.12561
3882.00741,0.12464
3883.93588,0.12286
3885.86435,0.11839
3887.79282,0.11374
3889.72129,0.10927
3891.64975,0.10493
3893.57822,0.10926
3895.50669,0.11827
3897.43516,0.12249
3899.36363,0.12196
3901.29210,0.12181
3903.22057,0.12134
3905.14903,0.11997
3907.07750,0.12094
3909.00597,0.12303
3910.93444,0.12311
3912.86291,0.11988
3914.79138,0.11407
3916.71985,0.10971
3918.64832,0.11275
3920.57678,0.11743
3922.50525,0.11643
3924.43372,0.11429
3926.36219,0.11453
3928.29066,0.11461
3930.21913,0.11435
3932.14760,0.11445
3934.07606,0.11453
3936.00453,0.11511
3937.93300,0.11706
3939.86147,0.11899
3941.78994,0.11779
3943.71841,0.11550
3945.64688,0.11549
3947.57535,0.11393
3949.50381,0.11159
3951.43228,0.11161
3953.36075,0.11139
3955.28922,0.11397
3957.21769,0.11817
3959.14616,0.11537
3961.07463,0.11019
3963.00309,0.10978
3964.93156,0.10995
3966.86003,0.10815
3968.78850,0.10635
3970.71697,0.10656
3972.64544,0.10947
3974.57391,0.11015
3976.50238,0.10675
3978.43084,0.10565
3980.35931,0.10658
3982.28778,0.10480
3984.21625,0.10248
3986.14472,0.10179
3988.07319,0.10330
3990.00166,0.10707
3991.93012,0.10935
3993.85859,0.10981
3995.78706,0.10896
3997.71553,0.10546
3999.64400,0.10323
4001.57247,0.10468
4003.50094,0.10676
4005.42941,0.10892
4007.35787,0.11327
4009.28634,0.11608
4011.21481,0.11207
4013.14328,0.10500
4015.07175,0.10233
4017.00022,0.10414
4018.92869,0.10369
4020.85715,0.10078
4022.78562,0.09999
4024.71409,0.09949
4026.64256,0.09634
4028.57103,0.09186
4030.49950,0.09195
4032.42797,0.09981
4034.35644,0.10679
4036.28490,0.10434
4038.21337,0.09697
4040.14184,0.09210
4042.07031,0.09021
4043.99878,0.09017
4045.92725,0.09404
4047.85572,0.09958
4049.78418,0.09938
4051.71265,0.09672
4053.64112,0.10071
4055.56959,0.10629
4057.49806,0.10316
4059.42653,0.09414
4061.35500,0.09042
4063.28346,0.09495
4065.21193,0.09855
4067.14040,0.09674
4069.06887,0.09495
4070.99734,0.09385
4072.92581,0.09110
4074.85428,0.08903
4076.78275,0.09023
4078.71121,0.09290
4080.63968,0.09481
4082.56815,0.09703
4084.49662,0.09701
4086.42509,0.09424
4088.35356,0.09321
4090.28203,0.09359
4092.21049,0.09517
4094.13896,0.09975
4096.06743,0.10532
4097.99590,0.10573
4099.92437,0.10035
4101.85284,0.09712
4103.78131,0.09711
4105.70978,0.09591
4107.63824,0.09429
4109.56671,0.09384
4111.49518,0.09435
4113.42365,0.09508
4115.35212,0.09558
4117.28059,0.09446
4119.20906,0.09099
4121.13752,0.08764
4123.06599,0.08914
4124.99446,0.09562
4126.92293,0.09903
4128.85140,0.09693
4130.77987,0.09358
4132.70834,0.08977
4134.63681,0.08910
4136.56527,0.09519
4138.49374,0.10014
4140.42221,0.09508
4142.35068,0.08451
4144.27915,0.07728
4146.20762,0.07677
4148.13609,0.08033
4150.06455,0.08249
4151.99302,0.08274
4153.92149,0.08356
4155.84996,0.08506
4157.77843,0.08821
4159.70690,0.09247
4161.63537,0.09398
4163.56384,0.09367
4165.49230,0.09112
4167.42077,0.08331
4169.34924,0.07519
4171.27771,0.07337
4173.20618,0.07663
4175.13465,0.07902
4177.06312,0.08084
4178.99158,0.08403
4180.92005,0.08368
4182.84852,0.07754
4184.77699,0.07060
4186.70546,0.06989
4188.63393,0.07543
4190.56240,0.07978
4192.49087,0.07902
4194.41933,0.07604
4196.34780,0.07449
4198.27627,0.07576
4200.20474,0.08022
4202.13321,0.08549
4204.06168,0.08731
4205.99015,0.08551
4207.91861,0.08264
4209.84708,0.07737
4211.77555,0.07176
4213.70402,0.07205
4215.63249,0.07594
4217.56096,0.07544
4219.48943,0.07125
4221.41789,0.07335
4223.34636,0.07800
4225.27483,0.07437
4227.20330,0.07140
4229.13177,0.07464
4231.06024,0.07478
4232.98871,0.07267
4234.91718,0.07341
4236.84564,0.07465
4238.77411,0.07598
4240.70258,0.07425
4242.63105,0.06747
4244.55952,0.06187
4246.48799,0.05929
4248.41646,0.06181
4250.34492,0.06890
4252.27339,0.06847
4254.20186,0.05764
4256.13033,0.05172
4258.05880,0.05922
4259.98727,0.06870
4261.91574,0.06989
4263.84421,0.06551
4265.77267,0.06254
4267.70114,0.06431
4269.62961,0.06584
4271.55808,0.06440
4273.48655,0.06350
4275.41502,0.06277
4277.34349,0.06238
4279.27195,0.06377
4281.20042,0.06302
4283.12889,0.05830
4285.05736,0.05385
4286.98583,0.05383
4288.91430,0.05724
4290.84277,0.05853
4292.77124,0.05682
4294.69970,0.05689
4296.62817,0.05956
4298.55664,0.06106
4300.48511,0.05957
4302.41358,0.05737
4304.34205,0.05645
4306.27052,0.05584
4308.19898,0.05556
4310.12745,0.05610
4312.05592,0.05626
4313.98439,0.05402
4315.91286,0.05010
4317.84133,0.04965
4319.76980,0.05331
4321.69827,0.05915
4323.62673,0.06371
4325.55520,0.05777
4327.48367,0.04505
4329.41214,0.04110
4331.34061,0.04521
4333.26908,0.04447
4335.19755,0.03946
4337.12601,0.03827
4339.05448,0.04079
4340.98295,0.04546
4342.91142,0.05088
4344.83989,0.05536
4346.76836,0.05902
4348.69683,0.05644
4350.62530,0.04486
4352.55376,0.03709
4354.48223,0.04192
4356.41070,0.05025
4358.33917,0.05219
4360.26764,0.04902
4362.19611,0.04702
4364.12458,0.04411
4366.05304,0.03734
4367.98151,0.03436
4369.90998,0.03926
4371.83845,0.04600
4373.76692,0.05002
4375.69539,0.05484
4377.62386,0.06115
4379.55232,0.06329
4381.48079,0.05913
4383.40926,0.05206
4385.33773,0.04679
4387.26620,0.04233
4389.19467,0.03529
4391.12314,0.03019
4393.05161,0.03211
4394.98007,0.03533
4396.90854,0.03537
4398.83701,0.03704
4400.76548,0.04223
4402.69395,0.04396
4404.62242,0.03703
4406.55089,0.03039
4408.47935,0.03371
4410.40782,0.04200
4412.33629,0.04596
4414.26476,0.04457
4416.19323,0.04357
4418.12170,0.04461
4420.05017,0.04177
4421.97864,0.03634
4423.90710,0.03372
4425.83557,0.03096
4427.76404,0.02947
4429.69251,0.03091
4431.62098,0.03073
4433.54945,0.03070
4435.47792,0.03383
4437.40638,0.03912
4439.33485,0.04101
4441.26332,0.03638
4443.19179,0.03330
4445.12026,0.03589
4447.04873,0.03751
4448.97720,0.03433
4450.90567,0.02822
4452.83413,0.02306
4454.76260,0.02106
4456.69107,0.02249
4458.61954,0.03008
4460.54801,0.03632
4462.47648,0.03033
4464.40495,0.02301
4466.33341,0.02528
4468.26188,0.02780
4470.19035,0.02411
4472.11882,0.01961
4474.04729,0.01762
4475.97576,0.02113
4477.90423,0.02948
4479.83270,0.02879
4481.76116,0.01596
4483.68963,0.01084
4485.61810,0.01954
4487.54657,0.02585
4489.47504,0.02690
4491.40351,0.02831
4493.33198,0.02594
4495.26044,0.02104
4497.18891,0.02052
4499.11738,0.02082
4501.04585,0.01812
4502.97432,0.01981
4504.90279,0.02801
4506.83126,0.03348
4508.75973,0.03174
4510.68819,0.02827
4512.61666,0.02431
4514.54513,0.01962
4516.47360,0.01901
4518.40207,0.02162
4520.33054,0.02436
4522.25901,0.02756
4524.18747,0.03005
4526.11594,0.02763
4528.04441,0.02212
4529.97288,0.02249
4531.90135,0.02567
4533.82982,0.02339
4535.75829,0.02106
4537.68676,0.01891
4539.61522,0.00941
4541.54369,0.00394
4543.47216,0.01138
4545.40063,0.01520
4547.32910,0.00845
4549.25757,0.00311
4551.18604,0.00091
4553.11450,0.00023
4555.04297,0.00491
4556.97144,0.01215
4558.89991,0.01898
4560.82838,0.01963
4562.75685,0.01080
4564.68532,0.00314
4566.61378,-0.00087
4568.54225,-0.00370
4570.47072,0.00370
4572.39919,0.01814
4574.32766,0.02199
4576.25613,0.01828
4578.18460,0.02144
4580.11307,0.02668
4582.04153,0.02372
4583.97000,0.01846
4585.89847,0.02301
4587.82694,0.02932
4589.75541,0.02255
4591.68388,0.00979
4593.61235,0.00193
4595.54081,0.00026
4597.46928,0.00325
4599.39775,0.00630
4601.32622,0.00701
4603.25469,0.00918
4605.18316,0.01381
4607.11163,0.01316
4609.04010,0.00850
4610.96856,0.01041
4612.89703,0.01412
4614.82550,0.01070
4616.75397,0.00685
4618.68244,0.00734
4620.61091,0.00643
4622.53938,0.00442
4624.46784,0.00714
4626.39631,0.01375
4628.32478,0.01638
4630.25325,0.01139
4632.18172,0.00811
4634.11019,0.00883
4636.03866,0.00527
4637.96713,0.00771
4639.89559,0.02242
4641.82406,0.03069
4643.75253,0.02545
4645.68100,0.01474
4647.60947,0.00047
4649.53794,-0.01345
4651.46641,-0.01791
4653.39487,-0.00967
4655.32334,0.00378
4657.25181,0.01150
4659.18028,0.00937
4661.10875,0.00370
4663.03722,0.00395
4664.96569,0.00831
4666.89416,0.01078
4668.82262,0.01125
4670.75109,0.00842
4672.67956,0.00371
4674.60803,0.00755
4676.53650,0.01977
4678.46497,0.02271
4680.39344,0.01560
4682.32190,0.01097
4684.25037,0.00509
4686.17884,-0.00181
4688.10731,0.00277
4690.03578,0.01557
4691.96425,0.01908
4693.89272,0.01131
4695.82119,0.00840
4697.74965,0.01672
4699.67812,0.01986
4701.60659,0.00925
4703.53506,0.00157
4705.46353,0.00306
4707.39200,0.00377
4709.32047,0.00434
4711.24893,0.00986
4713.17740,0.01385
4715.10587,0.01137
4717.03434,0.01497
4718.96281,0.03192
4720.89128,0.04375
4722.81975,0.03396
4724.74821,0.01555
4726.67668,0.01037
4728.60515,0.01676
4730.53362,0.01876
4732.46209,0.01365
4734.39056,0.00771
4736.31903,0.00411
4738.24750,0.00182
4740.17596,-0.00141
4742.10443,-0.00106
4744.03290,0.00210
4745.96137,-0.00178
4747.88984,-0.00869
4749.81831,-0.00644
4751.74678,-0.00255
4753.67524,-0.00840
4755.60371,-0.01528
4757.53218,-0.01335
4759.46065,-0.00183
4761.38912,0.01362
4763.31759,0.02160
4765.24606,0.02173
4767.17453,0.02359
4769.10299,0.02762
4771.03146,0.02587
4772.95993,0.01853
4774.88840,0.01276
4776.81687,0.00744
4778.74534,-0.00059
4780.67381,-0.00532
4782.60227,-0.00392
4784.53074,-0.00050
4786.45921,0.00419
4788.38768,0.00910
4790.31615,0.01168
4792.24462,0.00952
4794.17309,0.00125
4796.10156,-0.00574
4798.03002,-0.00417
4799.95849,0.00083
4801.88696,0.00586
4803.81543,0.00982
4805.74390,0.00842
4807.67237,0.01009
4809.60084,0.01358
4811.52930,0.00298
4813.45777,-0.01449
4815.38624,-0.01889
4817.31471,-0.00661
4819.24318,0.00640
4821.17165,0.00771
4823.10012,0.00630
4825.02859,0.01623
4826.95705,0.03163
4828.88552,0.03828
4830.81399,0.03308
4832.74246,0.02026
4834.67093,0.01721
4836.59940,0.02632
4838.52787,0.02197
4840.45633,0.00514
4842.38480,-0.00287
4844.31327,-0.00491
4846.24174,-0.00826
4848.17021,-0.00619
4850.09868,-0.00268
4852.02715,-0.00730
4853.95562,-0.01401
4855.88408,-0.01300
4857.81255,-0.00817
4859.74102,-0.00760
4861.66949,-0.00388
4863.59796,0.00535
4865.52643,0.01231
4867.45490,0.01707
4869.38336,0.01975
4871.31183,0.02557
4873.24030,0.03123
4875.16877,0.02573
4877.09724,0.02004
4879.02571,0.02057
4880.95418,0.01985
4882.88265,0.01707
4884.81111,0.00999
4886.73958,-0.00521
4888.66805,-0.01887
4890.59652,-0.01687
4892.52499,-0.00407
4894.45346,0.00790
4896.38193,0.01383
4898.31039,0.01181
4900.23886,0.00768
4902.16733,0.00961
4904.09580,0.01174
4906.02427,0.00839
4907.95274,0.00972
4909.88121,0.00966
4911.80967,0.00160
4913.73814,-0.00326
4915.66661,-0.00867
4917.59508,-0.01397
4919.52355,-0.00407
4921.45202,0.01534
4923.38049,0.02582
4925.30896,0.02249
4927.23742,0.01672
4929.16589,0.02080
4931.09436,0.02808
4933.02283,0.03167
4934.95130,0.03085
4936.87977,0.01526
4938.80824,-0.01020
4940.73670,-0.02556
4942.66517,-0.02232
4944.59364,-0.00479
4946.52211,0.01251
4948.45058,0.01761
4950.37905,0.01266
4952.30752,0.00604
4954.23599,0.00153
4956.16445,0.00226
4958.09292,0.00571
4960.02139,0.00296
4961.94986,0.00155
4963.87833,0.01114
4965.80680,0.02149
4967.73527,0.02607
4969.66373,0.02542
4971.59220,0.01420
4973.52067,-0.00043
4975.44914,-0.00221
4977.37761,0.00579
4979.30608,0.00849
4981.23455,0.00684
4983.16302,0.01762
4985.09148,0.03532
4987.01995,0.03777
4988.94842,0.02832
4990.87689,0.01929
4992.80536,0.00644
4994.73383,-0.00665
4996.66230,-0.00022
4998.59076,0.02438
5000.51923,0.03929
5002.44770,0.03235
5004.37617,0.01939
5006.30464,0.01625
5008.23311,0.02393
5010.16158,0.03299
5012.09005,0.02882
5014.01851,0.01858
5015.94698,0.02180
5017.87545,0.02664
5019.80392,0.01569
5021.73239,0.01038
5023.66086,0.02772
5025.58933,0.04316
5027.51779,0.03785
5029.44626,0.02398
5031.37473,0.01163
5033.30320,0.00082
5035.23167,-0.00206
5037.16014,0.00079
5039.08861,0.00228
5041.01708,0.00732
5042.94554,0.00701
5044.87401,-0.00348
5046.80248,-0.00630
5048.73095,0.00353
5050.65942,0.01821
5052.58789,0.03018
5054.51636,0.03538
5056.44482,0.04141
5058.37329,0.04908
5060.30176,0.04777
5062.23023,0.04194
5064.15870,0.04131
5066.08717,0.03932
5068.01564,0.02984
5069.94410,0.02167
5071.87257,0.02189
5073.80104,0.02048
5075.72951,0.01225
5077.65798,0.01133
5079.58645,0.02065
5081.51492,0.02994
5083.44339,0.03481
5085.37185,0.02296
5087.30032,-0.00489
5089.22879,-0.01846
5091.15726,-0.00080
5093.08573,0.03259
5095.01420,0.05524
5096.94267,0.05813
5098.87113,0.04760
5100.79960,0.03073
5102.72807,0.02640
5104.65654,0.04740
5106.58501,0.06080
5108.51348,0.03618
5110.44195,0.01308
5112.37042,0.02313
5114.29888,0.03325
5116.22735,0.02582
5118.15582,0.01390
5120.08429,0.00139
5122.01276,-0.00130
5123.94123,0.01703
5125.86970,0.03993
5127.79816,0.05025
5129.72663,0.05086
5131.65510,0.04484
5133.58357,0.03400
5135.51204,0.02019
5137.44051,0.00713
5139.36898,0.00332
5141.29745,0.00950
5143.22591,0.01629
5145.15438,0.01330
5147.08285,0.00860
5149.01132,0.01199
5150.93979,0.00843
5152.86826,0.00177
5154.79673,0.01496
5156.72519,0.03812
5158.65366,0.04922
5160.58213,0.04935
5162.51060,0.04308
5164.43907,0.04099
5166.36754,0.05571
5168.29601,0.07029
5170.22448,0.06630
5172.15294,0.05392
5174.08141,0.04587
5176.00988,0.03892
5177.93835,0.02724
5179.86682,0.02376
5181.79529,0.04240
5183.72376,0.06090
5185.65222,0.05213
5187.58069,0.02785
5189.50916,0.01003
5191.43763,0.01111
5193.36610,0.03035
5195.29457,0.03839
5197.22304,0.02492
5199.15151,0.02205
5201.07997,0.03662
5203.00844,0.04237
5204.93691,0.04081
5206.86538,0.04431
5208.79385,0.04546
5210.72232,0.05483
5212.65079,0.07131
5214.57925,0.06711
5216.50772,0.04735
5218.43619,0.03923
5220.36466,0.04082
5222.29313,0.03673
5224.22160,0.02458
5226.15007,0.01094
5228.07854,0.00519
5230.00700,0.00282
5231.93547,0.00238
5233.86394,0.01419
5235.79241,0.02923
5237.72088,0.02632
5239.64935,0.01410
5241.57782,0.01055
5243.50628,0.00722
5245.43475,0.01544
5247.36322,0.05014
5249.29169,0.07296
5251.22016,0.06455
5253.14863,0.05780
5255.07710,0.06571
5257.00556,0.06602
5258.93403,0.04939
5260.86250,0.03692
5262.79097,0.04979
5264.71944,0.07563
5266.64791,0.08036
5268.57638,0.05943
5270.50485,0.02959
5272.43331,0.02519
5274.36178,0.06166
5276.29025,0.09242
5278.21872,0.08502
5280.14719,0.06768
5282.07566,0.05866
5284.00413,0.04163
5285.93259,0.01788
5287.86106,0.01181
5289.78953,0.02724
5291.71800,0.04883
5293.64647,0.06000
5295.57494,0.06330
5297.50341,0.07883
5299.43188,0.09787
5301.36034,0.08649
5303.28881,0.05825
5305.21728,0.05707
5307.14575,0.07550
5309.07422,0.07871
5311.00269,0.07154
5312.93116,0.07055
5314.85962,0.07839
5316.78809,0.08740
5318.71656,0.07463
5320.64503,0.04690
5322.57350,0.03203
5324.50197,0.02926
5326.43044,0.03546
5328.35891,0.05488
5330.28737,0.07641
5332.21584,0.10520
5334.14431,0.12971
5336.07278,0.10393
5338.00125,0.05670
5339.92972,0.06045
5341.85819,0.08205
5343.78665,0.07681
5345.71512,0.07134
5347.64359,0.08266
5349.57206,0.08493
5351.50053,0.08255
5353.42900,0.09130
5355.35747,0.08893
5357.28594,0.06381
5359.21440,0.03669
5361.14287,0.03848
5363.07134,0.07506
5364.99981,0.09842
5366.92828,0.07031
5368.85675,0.02559
5370.78522,0.01543
5372.71368,0.03445
5374.64215,0.05060
5376.57062,0.05864
5378.49909,0.05745
5380.42756,0.04806
5382.35603,0.04778
5384.28450,0.05710
5386.21297,0.06503
5388.14143,0.07725
5390.06990,0.08461
5391.99837,0.06916
5393.92684,0.04307
5395.85531,0.03473
5397.78378,0.04328
5399.71225,0.05469
5401.64071,0.05918
5403.56918,0.05699
5405.49765,0.06033
5407.42612,0.07027
5409.35459,0.08157
5411.28306,0.09999
5413.21153,0.12133
5415.13999,0.12087
5417.06846,0.09972
5418.99693,0.07681
5420.92540,0.05873
5422.85387,0.06105
5424.78234,0.08735
5426.71081,0.10274
5428.63928,0.10448
5430.56774,0.11088
5432.49621,0.09943
5434.42468,0.07777
5436.35315,0.06802
5438.28162,0.05587
5440.21009,0.03562
5442.13856,0.02139
5444.06702,0.02597
5445.99549,0.05682
5447.92396,0.10794
5449.85243,0.14225
5451.78090,0.14215
5453.70937,0.12919
5455.63784,0.11761
5457.56631,0.10001
5459.49477,0.06177
5461.42324,0.03297
5463.35171,0.04744
5465.28018,0.07503
5467.20865,0.08281
5469.13712,0.07915
5471.06559,0.08137
5472.99405,0.08440
5474.92252,0.08314
5476.85099,0.09050
5478.77946,0.10944
5480.70793,0.12095
5482.63640,0.11127
5484.56487,0.09027
5486.49334,0.07136
5488.42180,0.05800
5490.35027,0.05303
5492.27874,0.05030
5494.20721,0.04341
5496.13568,0.05234
5498.06415,0.07510
5499.99262,0.07309
5501.92108,0.04001
5503.84955,0.01256
5505.77802,0.01630
5507.70649,0.04872
5509.63496,0.07404
5511.56343,0.06237
5513.49190,0.03962
5515.42037,0.03249
5517.34883,0.03689
5519.27730,0.05660
5521.20577,0.06621
5523.13424,0.05667
5525.06271,0.05724
5526.99118,0.05475
5528.91965,0.05378
5530.84811,0.08565
5532.77658,0.11441
5534.70505,0.10582
5536.63352,0.08794
5538.56199,0.08102
5540.49046,0.06601
5542.41893,0.04292
5544.34740,0.04152
5546.27586,0.05382
5548.20433,0.05864
5550.13280,0.07084
5552.06127,0.09080
5553.98974,0.09830
5555.91821,0.08830
5557.84668,0.06907
5559.77514,0.04748
5561.70361,0.02979
5563.63208,0.03809
5565.56055,0.07342
5567.48902,0.09451
5569.41749,0.09095
5571.34596,0.09366
5573.27443,0.10229
5575.20289,0.10094
5577.13136,0.09919
5579.05983,0.09575
5580.98830,0.08833
5582.91677,0.09627
5584.84524,0.10582
5586.77371,0.09391
5588.70217,0.07485
5590.63064,0.05659
5592.55911,0.04016
5594.48758,0.03396
5596.41605,0.03419
5598.34452,0.04228
5600.27299,0.06079
5602.20145,0.07480
5604.12992,0.07792
5606.05839,0.07185
5607.98686,0.05097
5609.91533,0.03997
5611.84380,0.05852
5613.77227,0.06741
5615.70074,0.05373
5617.62920,0.04463
5619.55767,0.06349
5621.48614,0.11455
5623.41461,0.14888
5625.34308,0.12926
5627.27155,0.07970
5629.20002,0.03556
5631.12848,0.01089
5633.05695,0.02634
5634.98542,0.09071
5636.91389,0.13513
5638.84236,0.12245
5640.77083,0.10680
5642.69930,0.10062
5644.62777,0.08096
5646.55623,0.05451
5648.48470,0.04543
5650.41317,0.05510
5652.34164,0.06163
5654.27011,0.06241
5656.19858,0.06416
5658.12705,0.07170
5660.05551,0.07880
5661.98398,0.06953
5663.91245,0.05540
5665.84092,0.04983
5667.76939,0.05270
5669.69786,0.05729
5671.62633,0.05280
5673.55480,0.05631
5675.48326,0.07998
5677.41173,0.09534
5679.34020,0.08741
5681.26867,0.08228
5683.19714,0.08902
5685.12561,0.07751
5687.05408,0.05557
5688.98254,0.07753
5690.91101,0.11869
5692.83948,0.10118
5694.76795,0.03917
5696.69642,0.00387
5698.62489,0.02932
5700.55336,0.07490
5702.48183,0.08774
5704.41029,0.08809
5706.33876,0.08958
5708.26723,0.08329
5710.19570,0.08321
5712.12417,0.07548
5714.05264,0.06950
5715.98111,0.08441
5717.90957,0.07728
5719.83804,0.05799
5721.76651,0.06947
5723.69498,0.09007
5725.62345,0.10414
5727.55192,0.12071
5729.48039,0.12114
5731.40886,0.10028
5733.33732,0.09061
5735.26579,0.08684
5737.19426,0.06915
5739.12273,0.07575
5741.05120,0.10898
5742.97967,0.12804
5744.90814,0.12328
5746.83660,0.09075
5748.76507,0.06704
5750.69354,0.09863
5752.62201,0.14323
5754.55048,0.14907
5756.47895,0.11123
5758.40742,0.05869
5760.33588,0.04690
5762.26435,0.06168
5764.19282,0.03705
5766.12129,0.00627
5768.04976,0.02913
5769.97823,0.06985
5771.90670,0.08508
5773.83517,0.09090
5775.76363,0.09847
5777.69210,0.10000
5779.62057,0.11924
5781.54904,0.14730
5783.47751,0.13151
5785.40598,0.08801
5787.33445,0.05610
5789.26291,0.04239
5791.19138,0.05078
5793.11985,0.06225
5795.04832,0.05954
5796.97679,0.04628
5798.90526,0.03688
5800.83373,0.04326
5802.76220,0.05818
5804.69066,0.07385
5806.61913,0.09127
5808.54760,0.10148
5810.47607,0.09550
5812.40454,0.08727
5814.33301,0.08812
5816.26148,0.08787
5818.18994,0.08813
5820.11841,0.09482
5822.04688,0.09250
5823.97535,0.08125
5825.90382,0.07218
5827.83229,0.06032
5829.76076,0.05701
5831.68923,0.07905
5833.61769,0.11413
5835.54616,0.13306
5837.47463,0.13288
5839.40310,0.12804
5841.33157,0.10647
5843.26004,0.06999
5845.18851,0.06322
5847.11697,0.09317
5849.04544,0.12299
5850.97391,0.13509
5852.90238,0.11629
5854.83085,0.07363
5856.75932,0.04153
5858.68779,0.03715
5860.61626,0.06494
5862.54472,0.08583
5864.47319,0.07347
5866.40166,0.06747
5868.33013,0.07859
5870.25860,0.08510
5872.18707,0.08293
5874.11554,0.08010
5876.04400,0.08181
5877.97247,0.06253
5879.90094,0.01291
5881.82941,0.02154
5883.75788,0.11069
5885.68635,0.16809
5887.61482,0.16489
5889.54329,0.16612
5891.47175,0.18228
5893.40022,0.16074
5895.32869,0.09454
5897.25716,0.04796
5899.18563,0.04032
5901.11410,0.03233
5903.04257,0.02869
5904.97103,0.05683
5906.89950,0.08213
5908.82797,0.06113
5910.75644,0.03145
5912.68491,0.04956
5914.61338,0.08701
5916.54185,0.09202
5918.47032,0.06247
5920.39878,0.03947
5922.32725,0.08301
5924.25572,0.16332
5926.18419,0.19638
5928.11266,0.16063
5930.04113,0.08910
5931.96960,0.05837
5933.89806,0.08327
5935.82653,0.07613
5937.75500,0.03262
5939.68347,0.02006
5941.61194,0.03367
5943.54041,0.05508
5945.46888,0.09073
5947.39734,0.10866
5949.32581,0.08320
5951.25428,0.03512
5953.18275,0.00595
5955.11122,0.03105
5957.03969,0.08366
5958.96816,0.10232
5960.89663,0.09307
5962.82509,0.10381
5964.75356,0.10135
5966.68203,0.06002
5968.61050,0.04845
5970.53897,0.07851
5972.46744,0.09683
5974.39591,0.10760
5976.32437,0.11770
5978.25284,0.10911
5980.18131,0.09638
5982.10978,0.09894
5984.03825,0.10501
5985.96672,0.11163
5987.89519,0.13081
5989.82366,0.15009
5991.75212,0.14144
5993.68059,0.11268
5995.60906,0.09069
5997.53753,0.07199
5999.46600,0.06786
6001.39447,0.09597
6003.32294,0.13050
6005.25140,0.14624
6007.17987,0.15854
6009.10834,0.16447
6011.03681,0.14108
6012.96528,0.12216
6014.89375,0.14854
6016.82222,0.18609
6018.75069,0.18934
6020.67915,0.17849
6022.60762,0.15794
6024.53609,0.11933
6026.46456,0.11068
6028.39303,0.14756
6030.32150,0.16884
6032.24997,0.13097
6034.17843,0.07059
6036.10690,0.04416
6038.03537,0.06094
6039.96384,0.09809
6041.89231,0.12268
6043.82078,0.11564
6045.74925,0.08707
6047.67772,0.05585
6049.60618,0.04507
6051.53465,0.06928
6053.46312,0.11354
6055.39159,0.14124
6057.32006,0.12286
6059.24853,0.08244
6061.17700,0.07314
6063.10546,0.09345
6065.03393,0.08974
6066.96240,0.07254
6068.89087,0.09128
6070.81934,0.13087
6072.74781,0.16501
6074.67628,0.18965
6076.60475,0.17441
6078.53321,0.11891
6080.46168,0.08308
6082.39015,0.10180
6084.31862,0.13892
6086.24709,0.16102
6088.17556,0.16871
6090.10403,0.16005
6092.03249,0.11510
6093.96096,0.04808
6095.88943,0.03848
6097.81790,0.07721
6099.74637,0.08790
6101.67484,0.08202
6103.60331,0.09559
6105.53177,0.12811
6107.46024,0.16830
6109.38871,0.20116
6111.31718,0.21367
6113.24565,0.21010
6115.17412,0.20084
6117.10259,0.16809
6119.03106,0.09935
6120.95952,0.05810
6122.88799,0.06935
6124.81646,0.07122
6126.74493,0.05588
6128.67340,0.04177
6130.60187,0.04217
6132.53034,0.10106
6134.45880,0.15363
6136.38727,0.11854
6138.31574,0.07010
6140.24421,0.07855
6142.17268,0.09840
6144.10115,0.09597
6146.02962,0.08342
6147.95809,0.05380
6149.88655,0.02032
6151.81502,0.03919
6153.74349,0.08305
6155.67196,0.06864
6157.60043,0.03247
6159.52890,0.04099
6161.45737,0.07872
6163.38583,0.10902
6165.31430,0.10718
6167.24277,0.06482
6169.17124,0.02798
6171.09971,0.04067
6173.02818,0.07275
6174.95665,0.07458
6176.88512,0.06063
6178.81358,0.07692
6180.74205,0.10826
6182.67052,0.10426
6184.59899,0.06822
6186.52746,0.05371
6188.45593,0.09215
6190.38440,0.15648
6192.31286,0.20637
6194.24133,0.19639
6196.16980,0.15120
6198.09827,0.12010
6200.02674,0.07783
6201.95521,0.04825
6203.88368,0.07729
6205.81215,0.11030
6207.74061,0.10170
6209.66908,0.09747
6211.59755,0.13850
6213.52602,0.19025
6215.45449,0.18657
6217.38296,0.13157
6219.31143,0.10312
6221.23989,0.09641
6223.16836,0.06994
6225.09683,0.05243
6227.02530,0.06709
6228.95377,0.09998
6230.88224,0.14092
6232.81071,0.14208
6234.73918,0.06337
6236.66764,-0.02577
6238.59611,-0.04042
6240.52458,0.01821
6242.45305,0.06842
6244.38152,0.05254
6246.30999,0.01905
6248.23846,0.01602
6250.16692,0.03735
6252.09539,0.07424
6254.02386,0.08960
6255.95233,0.06478
6257.88080,0.04713
6259.80927,0.05946
6261.73774,0.05663
6263.66621,0.01026
6265.59467,-0.01130
6267.52314,0.06122
6269.45161,0.12901
6271.38008,0.10780
6273.30855,0.06497
6275.23702,0.06061
6277.16549,0.06518
6279.09395,0.07152
6281.02242,0.05961
6282.95089,0.02089
6284.87936,0.03467
6286.80783,0.11693
6288.73630,0.20150
6290.66477,0.24961
6292.59323,0.23726
6294.52170,0.18889
6296.45017,0.16996
6298.37864,0.17172
6300.30711,0.15497
6302.23558,0.12794
6304.16405,0.09831
6306.09252,0.06399
6308.02098,0.02344
6309.94945,-0.00099
6311.87792,0.01735
6313.80639,0.04213
6315.73486,0.04760
6317.66333,0.05611
6319.59180,0.06825
6321.52026,0.04769
6323.44873,0.00842
6325.37720,0.03406
6327.30567,0.10478
6329.23414,0.12093
6331.16261,0.09996
6333.09108,0.09976
6335.01955,0.08012
6336.94801,0.04356
6338.87648,0.06635
6340.80495,0.13674
6342.73342,0.17014
6344.66189,0.14638
6346.59036,0.11292
6348.51883,0.12979
6350.44729,0.17750
6352.37576,0.17560
6354.30423,0.13083
6356.23270,0.09612
6358.16117,0.09753
6360.08964,0.12462
6362.01811,0.11532
6363.94658,0.06450
6365.87504,0.05032
6367.80351,0.08695
6369.73198,0.09686
6371.66045,0.04090
6373.58892,-0.02054
6375.51739,-0.00828
6377.44586,0.05460
6379.37432,0.10275
6381.30279,0.13075
6383.23126,0.18066
6385.15973,0.21105
6387.08820,0.15730
6389.01667,0.10684
6390.94514,0.13723
6392.87361,0.14872
6394.80207,0.06880
6396.73054,0.02300
6398.65901,0.04825
6400.58748,0.06132
6402.51595,0.03958
6404.44442,0.04133
6406.37289,0.07284
6408.30135,0.08969
6410.22982,0.10452
6412.15829,0.10954
6414.08676,0.08364
6416.01523,0.07931
6417.94370,0.09365
6419.87217,0.07933
6421.80064,0.04342
6423.72910,0.02626
6425.65757,0.06592
6427.58604,0.10378
6429.51451,0.06937
6431.44298,0.00999
6433.37145,0.00481
6435.29992,0.03667
6437.22838,0.01914
6439.15685,-0.03379
6441.08532,-0.01673
6443.01379,0.03027
6444.94226,0.02124
6446.87073,0.01416
6448.79920,0.06382
6450.72766,0.12735
6452.65613,0.12733
6454.58460,0.08815
6456.51307,0.10135
6458.44154,0.15222
6460.37001,0.15793
6462.29848,0.11768
6464.22695,0.11279
6466.15541,0.17948
6468.08388,0.22980
6470.01235,0.15480
6471.94082,0.02482
6473.86929,0.01861
6475.79776,0.13654
6477.72623,0.22673
6479.65469,0.19162
6481.58316,0.10030
6483.51163,0.08405
6485.44010,0.11997
6487.36857,0.12358
6489.29704,0.12154
6491.22551,0.14861
6493.15398,0.15358
6495.08244,0.12275
6497.01091,0.09850
6498.93938,0.08907
6500.86785,0.03346
6502.79632,-0.04691
6504.72479,-0.01170
6506.65326,0.07712
6508.58172,0.08119
6510.51019,0.03572
6512.43866,0.03539
6514.36713,0.07903
6516.29560,0.08246
6518.22407,0.07011
6520.15254,0.09939
6522.08101,0.09619
6524.00947,0.03207
6525.93794,-0.00004
6527.86641,0.04431
6529.79488,0.13535
6531.72335,0.19884
6533.65182,0.17272
6535.58029,0.13839
6537.50875,0.16352
6539.43722,0.16974
6541.36569,0.12398
6543.29416,0.08026
6545.22263,0.03360
6547.15110,-0.02864
6549.07957,-0.04271
6551.00804,0.03914
6552.93650,0.12466
6554.86497,0.12571
6556.79344,0.07957
6558.72191,0.04227
6560.65038,0.04325
6562.57885,0.09763
6564.50732,0.14532
6566.43578,0.10595
6568.36425,0.04333
6570.29272,0.06426
6572.22119,0.11974
6574.14966,0.15297
6576.07813,0.19371
6578.00660,0.18710
6579.93507,0.11239
6581.86353,0.07995
6583.79200,0.11572
6585.72047,0.13915
6587.64894,0.11778
6589.57741,0.04653
6591.50588,-0.03911
6593.43435,-0.05295
6595.36281,-0.02577
6597.29128,-0.07422
6599.21975,-0.13630
6601.14822,-0.06883
6603.07669,0.04888
6605.00516,0.07232
6606.93363,0.05172
6608.86210,0.06409
6610.79056,0.09612
6612.71903,0.07301
6614.64750,0.00465
6616.57597,0.03056
6618.50444,0.14442
6620.43291,0.19669
6622.36138,0.17280
6624.28984,0.10877
6626.21831,0.01908
6628.14678,-0.04847
6630.07525,-0.09058
6632.00372,-0.14722
6633.93219,-0.16267
6635.86066,-0.10072
6637.78912,-0.04532
6639.71759,-0.03276
6641.64606,-0.03825
6643.57453,-0.04852
6645.50300,-0.05091
6647.43147,-0.04829
6649.35994,-0.02301
6651.28841,0.01686
6653.21687,0.01816
6655.14534,0.00394
6657.07381,0.04963
6659.00228,0.09290
6660.93075,0.06862
6662.85922,0.04555
6664.78769,0.03078
6666.71615,0.01249
6668.64462,0.01407
6670.57309,0.04826
6672.50156,0.11097
6674.43003,0.15041
6676.35850,0.12783
6678.28697,0.03426
6680.21544,-0.05762
6682.14390,-0.04028
6684.07237,0.04830
6686.00084,0.09662
6687.92931,0.10481
6689.85778,0.11450
6691.78625,0.08906
6693.71472,0.04170
6695.64318,0.04507
6697.57165,0.09217
6699.50012,0.14531
6701.42859,0.21885
6703.35706,0.25193
6705.28553,0.16895
6707.21400,0.05889
6709.14247,0.03300
6711.07093,0.04927
6712.99940,0.07989
6714.92787,0.11760
6716.85634,0.11314
6718.78481,0.08401
6720.71328,0.07980
6722.64175,0.07262
6724.57021,0.00656
6726.49868,-0.04971
6728.42715,0.01972
6730.35562,0.16667
6732.28409,0.21770
6734.21256,0.15227
6736.14103,0.09729
6738.06950,0.07338
6739.99796,0.00189
6741.92643,-0.08749
6743.85490,-0.10544
6745.78337,-0.07581
6747.71184,-0.03993
6749.64031,0.01975
6751.56878,0.06857
6753.49724,0.04612
6755.42571,-0.00196
6757.35418,0.00489
6759.28265,0.06077
6761.21112,0.05872
6763.13959,0.01728
6765.06806,0.02592
6766.99653,0.03516
6768.92499,0.03175
6770.85346,0.04172
6772.78193,0.02450
6774.71040,0.03851
6776.63887,0.12646
6778.56734,0.16717
6780.49581,0.17038
6782.42427,0.17601
6784.35274,0.10548
6786.28121,-0.03018
6788.20968,-0.10590
6790.13815,-0.04397
6792.06662,0.06545
6793.99509,0.07429
6795.92355,0.02943
6797.85202,0.01101
6799.78049,0.03953
6801.70896,0.08756
6803.63743,0.05082
6805.56590,-0.01138
6807.49437,0.03623
6809.42284,0.09972
6811.35130,0.09256
6813.27977,0.10793
6815.20824,0.15597
6817.13671,0.13853
6819.06518,0.10752
6820.99365,0.11760
6822.92212,0.10892
6824.85058,0.07442
6826.77905,0.04979
6828.70752,0.02575
6830.63599,0.02652
6832.56446,0.01791
6834.49293,-0.06544
6836.42140,-0.09947
6838.34987,0.02597
6840.27833,0.15315
6842.20680,0.19055
6844.13527,0.17901
6846.06374,0.13831
6847.99221,0.08527
6849.92068,0.03351
6851.84915,-0.00368
6853.77761,-0.03205
6855.70608,-0.11706
6857.63455,-0.18161
6859.56302,-0.06329
6861.49149,0.17301
6863.41996,0.27382
6865.34843,0.20831
6867.27690,0.16118
6869.20536,0.16920
6871.13383,0.21984
6873.06230,0.25974
6874.99077,0.16492
6876.91924,0.05650
6878.84771,0.06123
6880.77618,0.11469
6882.70464,0.14237
6884.63311,0.13753
6886.56158,0.10686
6888.49005,0.11406
6890.41852,0.16636
6892.34699,0.15395
6894.27546,0.06174
6896.20393,-0.02099
6898.13239,-0.02829
6900.06086,-0.02484
6901.98933,-0.08803
6903.91780,-0.10686
6905.84627,-0.02491
6907.77474,-0.02211
6909.70321,-0.05942
6911.63167,0.04854
6913.56014,0.17810
6915.48861,0.14712
6917.41708,0.05640
6919.34555,0.01345
6921.27402,-0.03412
6923.20249,-0.07897
6925.13096,-0.02468
6927.05942,0.09245
6928.98789,0.18684
6930.91636,0.23776
6932.84483,0.24501
6934.77330,0.20769
6936.70177,0.16032
6938.63024,0.17391
6940.55870,0.22975
6942.48717,0.20571
6944.41564,0.11001
6946.34411,0.03704
6948.27258,0.02975
6950.20105,0.06399
6952.12952,0.16285
6954.05799,0.19099
6955.98645,-0.00130
6957.91492,-0.10381
6959.84339,-0.01958
6961.77186,0.01817
6963.70033,-0.00657
6965.62880,-0.01048
6967.55727,-0.00367
6969.48573,-0.01832
6971.41420,-0.05354
6973.34267,-0.10275
6975.27114,-0.14834
6977.19961,-0.15585
6979.12808,-0.15442
6981.05655,-0.16075
6982.98501,-0.16868
6984.91348,-0.16093
6986.84195,-0.11252
6988.77042,-0.07630
6990.69889,-0.10430
6992.62736,-0.11546
6994.55583,-0.04881
6996.48430,0.01483
6998.41276,0.00500
7000.34123,0.02017
7002.26970,0.13005
7004.19817,0.23309
7006.12664,0.20388
7008.05511,0.09023
7009.98358,0.04013
7011.91204,0.02209
7013.84051,0.02111
7015.76898,0.09341
7017.69745,0.14010
7019.62592,0.09898
7021.55439,0.07861
7023.48286,0.11280
7025.41133,0.10709
7027.33979,0.06262
7029.26826,0.06274
7031.19673,0.08381
7033.12520,0.08650
7035.05367,0.10015
7036.98214,0.12902
7038.91061,0.16670
7040.83907,0.18002
7042.76754,0.05922
7044.69601,-0.10395
7046.62448,-0.06012
7048.55295,0.10750
7050.48142,0.17801
7052.40989,0.08725
7054.33836,-0.08391
7056.26682,-0.19662
7058.19529,-0.21050
7060.12376,-0.16044
7062.05223,-0.13129
7063.98070,-0.15035
7065.90917,-0.15260
7067.83764,-0.07154
7069.76610,0.06784
7071.69457,0.11650
7073.62304,0.11060
7075.55151,0.12661
7077.47998,0.08736
7079.40845,-0.01834
7081.33692,-0.13103
7083.26539,-0.16860
7085.19385,-0.10743
7087.12232,0.03238
7089.05079,0.18778
7090.97926,0.23985
7092.90773,0.16796
7094.83620,0.12253
7096.76467,0.19480
7098.69313,0.27189
7100.62160,0.24263
7102.55007,0.12827
7104.47854,-0.02286
7106.40701,-0.12195
7108.33548,-0.09667
7110.26395,0.00655
7112.19242,0.10695
7114.12088,0.17776
7116.04935,0.25431
7117.97782,0.27284
7119.90629,0.17696
7121.83476,0.10160
7123.76323,0.09824
7125.69170,0.06931
7127.62016,0.02725
7129.54863,0.13375
7131.47710,0.29371
7133.40557,0.31104
7135.33404,0.22377
7137.26251,0.17379
7139.19098,0.19922
7141.11944,0.19400
7143.04791,0.12414
7144.97638,0.07015
7146.90485,0.10740
7148.83332,0.20785
7150.76179,0.25852
7152.69026,0.16601
7154.61873,0.04689
7156.54719,0.09426
7158.47566,0.20428
7160.40413,0.23781
7162.33260,0.22826
7164.26107,0.29688
7166.18954,0.41372
7168.11801,0.37454
7170.04647,0.15618
7171.97494,0.07440
7173.90341,0.14003
7175.83188,0.05294
7177.76035,-0.13486
7179.68882,-0.17044
7181.61729,0.01654
7183.54576,0.27094
7185.47422,0.30718
7187.40269,0.20575
7189.33116,0.13321
7191.25963,0.11295
7193.18810,0.05924
7195.11657,-0.01474
7197.04504,0.05033
7198.97350,0.19292
7200.90197,0.25722
7202.83044,0.29002
7204.75891,0.30323
7206.68738,0.18335
7208.61585,0.03037
7210.54432,-0.02396
7212.47279,-0.00605
7214.40125,0.07531
7216.32972,0.21312
7218.25819,0.22688
7220.18666,0.19108
7222.11513,0.21832
7224.04360,0.18809
7225.97207,0.09591
7227.90053,-0.00658
7229.82900,-0.13660
7231.75747,-0.18472
7233.68594,-0.05738
7235.61441,0.11663
7237.54288,0.24679
7239.47135,0.22618
7241.39982,0.03823
7243.32828,-0.12279
7245.25675,-0.11870
7247.18522,-0.08382
7249.11369,-0.04882
7251.04216,-0.02187
7252.97063,-0.07805
7254.89910,-0.07110
7256.82756,0.11542
7258.75603,0.42035
7260.68450,0.67317
7262.61297,0.58690
7264.54144,0.33530
7266.46991,0.24173
7268.39838,0.29703
7270.32685,0.38967
7272.25531,0.35639
7274.18378,0.25993
7276.11225,0.25589
7278.04072,0.22001
7279.96919,0.13099
7281.89766,0.15552
7283.82613,0.16065
7285.75459,0.01195
7287.68306,-0.10117
7289.61153,-0.11527
7291.54000,-0.09228
7293.46847,-0.01430
7295.39694,0.01877
7297.32541,-0.09087
7299.25387,-0.18426
7301.18234,-0.14296
7303.11081,-0.01924
7305.03928,0.06673
7306.96775,0.09413
7308.89622,0.18188
7310.82469,0.33242
7312.75316,0.42172
7314.68162,0.41203
7316.61009,0.33012
7318.53856,0.13287
7320.46703,-0.10409
7322.39550,-0.23210
7324.32397,-0.21909
7326.25244,-0.15146
7328.18090,-0.02724
7330.10937,0.11936
7332.03784,0.10770
7333.96631,0.03117
7335.89478,0.05039
7337.82325,0.13299
7339.75172,0.13909
7341.68019,0.03179
7343.60865,-0.01942
7345.53712,-0.05170
7347.46559,-0.07401
7349.39406,-0.02365
7351.32253,0.05632
7353.25100,0.07133
7355.17947,-0.02488
7357.10793,-0.12688
7359.03640,-0.10632
7360.96487,-0.02102
7362.89334,0.07996
7364.82181,0.14842
7366.75028,0.14847
7368.67875,0.17314
7370.60722,0.21805
7372.53568,0.17145
7374.46415,0.06967
7376.39262,0.08478
7378.32109,0.19493
7380.24956,0.28503
7382.17803,0.27629
7384.10650,0.26220
7386.03496,0.34936
7387.96343,0.35011
7389.89190,0.23584
7391.82037,0.17389
7393.74884,0.19012
7395.67731,0.15123
7397.60578,-0.02417
7399.53425,-0.11471
7401.46271,0.00524
7403.39118,0.20698
7405.31965,0.30721
7407.24812,0.23616
7409.17659,0.10744
7411.10506,0.04921
7413.03353,0.07437
7414.96199,0.11361
7416.89046,0.14550
7418.81893,0.20921
7420.74740,0.23378
7422.67587,0.14036
7424.60434,0.06583
7426.53281,0.09739
7428.46128,0.18469
7430.38974,0.28525
7432.31821,0.38698
7434.24668,0.48989
7436.17515,0.49697
7438.10362,0.32368
7440.03209,0.16213
7441.96056,0.08672
7443.88902,-0.02227
7445.81749,-0.05733
7447.74596,0.03453
7449.67443,0.09546
7451.60290,0.03841
7453.53137,0.01641
7455.45984,0.10869
7457.38831,0.20839
7459.31677,0.17785
7461.24524,0.00352
7463.17371,-0.11806
7465.10218,-0.04769
7467.03065,0.16057
7468.95912,0.25134
7470.88759,0.17548
7472.81605,0.10417
7474.74452,0.07572
7476.67299,-0.00680
7478.60146,-0.19467
7480.52993,-0.40719
7482.45840,-0.37672
7484.38687,-0.10988
7486.31533,0.14684
7488.24380,0.26131
7490.17227,0.18453
7492.10074,0.03120
7494.02921,-0.01870
7495.95768,0.07092
7497.88615,0.29812
