399.19301,7.37423
401.12148,0.42884
403.04995,0.02528
404.97842,0.11595
406.90689,0.21473
408.83536,0.20056
410.76382,0.10784
412.69229,0.06415
414.62076,0.04110
416.54923,-0.07434
418.47770,-0.13969
420.40617,-0.02888
422.33464,0.00730
424.26311,-0.01702
426.19157,-0.00863
428.12004,-0.03264
430.04851,-0.07175
431.97698,-0.00735
433.90545,0.07452
435.83392,0.09514
437.76239,0.12705
439.69085,0.16161
441.61932,0.10950
443.54779,-0.02209
445.47626,-0.09126
447.40473,0.00084
449.33320,0.09952
451.26167,0.06018
453.19013,-0.01267
455.11860,-0.06413
457.04707,-0.05457
458.97554,0.06105
460.90401,0.16302
462.83248,0.17876
464.76095,0.13852
466.68942,0.09688
468.61788,0.07702
470.54635,0.07031
472.47482,0.09476
474.40329,0.10139
476.33176,0.06040
478.26023,0.08642
480.18870,0.14416
482.11716,0.16004
484.04563,0.12206
485.97410,0.09889
487.90257,0.11278
489.83104,0.10619
491.75951,0.06880
493.68798,0.05009
495.61645,0.05673
497.54491,0.03961
499.47338,0.03666
501.40185,0.08519
503.33032,0.11442
505.25879,0.11429
507.18726,0.13138
509.11573,0.13443
511.04419,0.10849
512.97266,0.10289
514.90113,0.11951
516.82960,0.11879
518.75807,0.09853
520.68654,0.10726
522.61501,0.15153
524.54348,0.15877
526.47194,0.12317
528.40041,0.10816
530.32888,0.09630
532.25735,0.08510
534.18582,0.11910
536.11429,0.16888
538.04276,0.18078
539.97122,0.17485
541.89969,0.15945
543.82816,0.12623
545.75663,0.10535
547.68510,0.11520
549.61357,0.12575
551.54204,0.08334
553.47051,0.00552
555.39897,-0.00386
557.32744,0.07231
559.25591,0.13349
561.18438,0.14107
563.11285,0.13117
565.04132,0.13112
566.96979,0.14568
568.89825,0.15650
570.82672,0.13494
572.75519,0.10001
574.68366,0.08754
576.61213,0.08644
578.54060,0.07327
580.46907,0.06523
582.39754,0.09334
584.32600,0.13324
586.25447,0.15120
588.18294,0.14828
590.11141,0.13394
592.03988,0.12631
593.96835,0.13170
595.89682,0.13566
597.82528,0.12771
599.75375,0.10843
601.68222,0.08885
603.61069,0.07664
605.53916,0.07902
607.46763,0.09982
609.39610,0.11642
611.32456,0.10863
613.25303,0.08471
615.18150,0.07654
617.10997,0.10789
619.03844,0.15286
620.96691,0.17346
622.89538,0.16127
624.82385,0.13733
626.75231,0.12800
628.68078,0.13143
630.60925,0.13633
632.53772,0.14029
634.46619,0.13337
636.39466,0.12090
638.32313,0.13069
640.25159,0.15109
642.18006,0.14642
644.10853,0.13195
646.03700,0.13662
647.96547,0.15055
649.89394,0.15191
651.82241,0.14236
653.75088,0.12707
655.67934,0.11212
657.60781,0.11046
659.53628,0.12315
661.46475,0.14061
663.39322,0.15122
665.32169,0.15513
667.25016,0.15540
669.17862,0.15246
671.10709,0.16372
673.03556,0.17705
674.96403,0.17503
676.89250,0.15754
678.82097,0.12509
680.74944,0.10393
682.67791,0.12735
684.60637,0.15215
686.53484,0.12941
688.46331,0.10405
690.39178,0.12035
692.32025,0.14529
694.24872,0.14896
696.17719,0.14254
698.10565,0.13700
700.03412,0.12612
701.96259,0.11222
703.89106,0.11117
705.81953,0.12346
707.74800,0.13271
709.67647,0.13772
711.60494,0.14674
713.53340,0.15307
715.46187,0.15082
717.39034,0.13666
719.31881,0.11780
721.24728,0.11462
723.17575,0.12378
725.10422,0.13269
727.03268,0.13825
728.96115,0.14102
730.88962,0.14211
732.81809,0.14100
734.74656,0.13885
736.67503,0.13420
738.60350,0.12987
740.53197,0.12736
742.46043,0.12900
744.38890,0.13675
746.31737,0.13783
748.24584,0.13074
750.17431,0.12797
752.10278,0.13224
754.03125,0.13418
755.95971,0.12900
757.88818,0.12734
759.81665,0.13061
761.74512,0.13271
763.67359,0.13473
765.60206,0.12933
767.53053,0.11629
769.45900,0.10948
771.38746,0.11249
773.31593,0.12411
775.24440,0.14225
777.17287,0.15371
779.10134,0.14902
781.02981,0.14004
782.95828,0.13639
784.88674,0.13414
786.81521,0.13503
788.74368,0.14239
790.67215,0.15277
792.60062,0.15658
794.52909,0.14718
796.45756,0.13690
798.38602,0.13685
800.31449,0.13702
802.24296,0.13172
804.17143,0.13563
806.09990,0.15456
808.02837,0.17172
809.95684,0.17143
811.88531,0.16134
813.81377,0.15918
815.74224,0.16144
817.67071,0.15275
819.59918,0.14040
821.52765,0.14438
823.45612,0.15971
825.38459,0.16263
827.31305,0.15410
829.24152,0.15108
831.16999,0.15007
833.09846,0.14069
835.02693,0.12963
836.95540,0.13157
838.88387,0.13908
840.81234,0.13957
842.74080,0.14341
844.66927,0.15483
846.59774,0.16085
848.52621,0.15572
850.45468,0.14791
852.38315,0.15039
854.31162,0.15483
856.24008,0.14429
858.16855,0.13406
860.09702,0.14173
862.02549,0.15349
863.95396,0.15711
865.88243,0.15893
867.81090,0.16599
869.73937,0.17376
871.66783,0.16816
873.59630,0.14582
875.52477,0.12715
877.45324,0.12852
879.38171,0.13881
881.31018,0.14326
883.23865,0.14386
885.16711,0.14720
887.09558,0.14872
889.02405,0.14567
890.95252,0.14257
892.88099,0.13859
894.80946,0.13992
896.73793,0.14925
898.66640,0.15440
900.59486,0.15484
902.52333,0.15177
904.45180,0.14404
906.38027,0.14202
908.30874,0.14816
910.23721,0.15715
912.16568,0.16148
914.09414,0.15437
916.02261,0.14284
917.95108,0.13826
919.87955,0.14076
921.80802,0.14487
923.73649,0.15180
925.66496,0.15800
927.59343,0.15739
929.52189,0.15460
931.45036,0.15294
933.37883,0.14988
935.30730,0.14548
937.23577,0.14702
939.16424,0.15634
941.09271,0.16411
943.02117,0.16529
944.94964,0.16216
946.87811,0.15597
948.80658,0.14956
950.73505,0.14802
952.66352,0.14829
954.59199,0.14815
956.52045,0.15051
958.44892,0.14999
960.37739,0.14703
962.30586,0.15091
964.23433,0.15758
966.16280,0.15979
968.09127,0.15916
970.01974,0.15549
971.94820,0.14929
973.87667,0.14450
975.80514,0.14604
977.73361,0.15316
979.66208,0.15690
981.59055,0.15466
983.51902,0.15338
985.44748,0.15771
987.37595,0.16452
989.30442,0.16776
991.23289,0.15927
993.16136,0.14235
995.08983,0.13650
997.01830,0.14456
998.94677,0.14995
1000.87523,0.14516
1002.80370,0.14046
1004.73217,0.14566
1006.66064,0.15426
1008.58911,0.16112
1010.51758,0.16688
1012.44605,0.16533
1014.37451,0.16083
1016.30298,0.16313
1018.23145,0.16255
1020.15992,0.15579
1022.08839,0.15530
1024.01686,0.15839
1025.94533,0.15251
1027.87380,0.14203
1029.80226,0.13931
1031.73073,0.13959
1033.65920,0.13556
1035.58767,0.13564
1037.51614,0.14473
1039.44461,0.15129
1041.37308,0.14564
1043.30154,0.13308
1045.23001,0.12944
1047.15848,0.14095
1049.08695,0.15199
1051.01542,0.15623
1052.94389,0.16070
1054.87236,0.16020
1056.80083,0.14998
1058.72929,0.14200
1060.65776,0.14614
1062.58623,0.15260
1064.51470,0.15751
1066.44317,0.16780
1068.37164,0.17491
1070.30011,0.17310
1072.22857,0.17418
1074.15704,0.17819
1076.08551,0.17296
1078.01398,0.16331
1079.94245,0.16361
1081.87092,0.17260
1083.79939,0.17686
1085.72786,0.17258
1087.65632,0.16717
1089.58479,0.16408
1091.51326,0.16165
1093.44173,0.16038
1095.37020,0.15910
1097.29867,0.15491
1099.22714,0.15482
1101.15560,0.16042
1103.08407,0.16193
1105.01254,0.16437
1106.94101,0.17548
1108.86948,0.18000
1110.79795,0.16637
1112.72642,0.15089
1114.65489,0.15031
1116.58335,0.15920
1118.51182,0.16027
1120.44029,0.15266
1122.36876,0.15152
1124.29723,0.15787
1126.22570,0.16039
1128.15417,0.15738
1130.08263,0.15733
1132.01110,0.16149
1133.93957,0.16239
1135.86804,0.15657
1137.79651,0.15100
1139.72498,0.15286
1141.65345,0.15963
1143.58191,0.16696
1145.51038,0.16871
1147.43885,0.16255
1149.36732,0.15388
1151.29579,0.14708
1153.22426,0.14971
1155.15273,0.16300
1157.08120,0.17344
1159.00966,0.17301
1160.93813,0.16549
1162.86660,0.15951
1164.79507,0.16259
1166.72354,0.16891
1168.65201,0.16894
1170.58048,0.16591
1172.50894,0.16583
1174.43741,0.16779
1176.36588,0.16926
1178.29435,0.17149
1180.22282,0.17527
1182.15129,0.17509
1184.07976,0.16603
1186.00823,0.15523
1187.93669,0.15449
1189.86516,0.16143
1191.79363,0.16307
1193.72210,0.15742
1195.65057,0.15473
1197.57904,0.15856
1199.50751,0.16180
1201.43597,0.15986
1203.36444,0.15745
1205.29291,0.16072
1207.22138,0.16617
1209.14985,0.16809
1211.07832,0.16799
1213.00679,0.16755
1214.93526,0.16745
1216.86372,0.16851
1218.79219,0.16980
1220.72066,0.17143
1222.64913,0.17318
1224.57760,0.17230
1226.50607,0.16635
1228.43454,0.16059
1230.36300,0.16216
1232.29147,0.16683
1234.21994,0.16688
1236.14841,0.16320
1238.07688,0.16239
1240.00535,0.16620
1241.93382,0.16910
1243.86229,0.16603
1245.79075,0.15982
1247.71922,0.15857
1249.64769,0.16110
1251.57616,0.15862
1253.50463,0.15299
1255.43310,0.15289
1257.36157,0.15553
1259.29003,0.15351
1261.21850,0.14913
1263.14697,0.14544
1265.07544,0.14339
1267.00391,0.14527
1268.93238,0.14847
1270.86085,0.15071
1272.78932,0.15360
1274.71778,0.15566
1276.64625,0.15762
1278.57472,0.16143
1280.50319,0.15926
1282.43166,0.15199
1284.36013,0.14994
1286.28860,0.14785
1288.21706,0.14580
1290.14553,0.15137
1292.07400,0.15550
1294.00247,0.15380
1295.93094,0.14989
1297.85941,0.14049
1299.78788,0.12401
1301.71634,0.10137
1303.64481,0.08113
1305.57328,0.08741
1307.50175,0.12500
1309.43022,0.15969
1311.35869,0.17153
1313.28716,0.17137
1315.21563,0.16709
1317.14409,0.16450
1319.07256,0.16440
1321.00103,0.16028
1322.92950,0.15604
1324.85797,0.15457
1326.78644,0.15503
1328.71491,0.15785
1330.64337,0.15289
1332.57184,0.14505
1334.50031,0.14725
1336.42878,0.15114
1338.35725,0.15223
1340.28572,0.14649
1342.21419,0.14074
1344.14266,0.14825
1346.07112,0.15835
1347.99959,0.16273
1349.92806,0.15897
1351.85653,0.14910
1353.78500,0.14508
1355.71347,0.15012
1357.64194,0.15831
1359.57040,0.16345
1361.49887,0.16589
1363.42734,0.16924
1365.35581,0.17134
1367.28428,0.17091
1369.21275,0.17046
1371.14122,0.17295
1373.06969,0.17996
1374.99815,0.18685
1376.92662,0.18634
1378.85509,0.18321
1380.78356,0.18206
1382.71203,0.18112
1384.64050,0.18143
1386.56897,0.18468
1388.49743,0.18600
1390.42590,0.18473
1392.35437,0.18754
1394.28284,0.19433
1396.21131,0.19566
1398.13978,0.18816
1400.06825,0.18025
1401.99672,0.17917
1403.92518,0.18401
1405.85365,0.18762
1407.78212,0.18756
1409.71059,0.18715
1411.63906,0.18361
1413.56753,0.17865
1415.49600,0.17907
1417.42446,0.18515
1419.35293,0.18974
1421.28140,0.19056
1423.20987,0.18890
1425.13834,0.18156
1427.06681,0.17725
1428.99528,0.18231
1430.92375,0.18741
1432.85221,0.18761
1434.78068,0.18995
1436.70915,0.19133
1438.63762,0.18571
1440.56609,0.18271
1442.49456,0.18177
1444.42303,0.18001
1446.35149,0.18158
1448.27996,0.18784
1450.20843,0.19358
1452.13690,0.19626
1454.06537,0.20291
1455.99384,0.21967
1457.92231,0.22104
1459.85077,0.20114
1461.77924,0.19156
1463.70771,0.18829
1465.63618,0.18592
1467.56465,0.18763
1469.49312,0.19366
1471.42159,0.20271
1473.35006,0.20896
1475.27852,0.20777
1477.20699,0.20266
1479.13546,0.19555
1481.06393,0.18985
1482.99240,0.18756
1484.92087,0.19004
1486.84934,0.19946
1488.77780,0.21067
1490.70627,0.20789
1492.63474,0.19911
1494.56321,0.19951
1496.49168,0.20551
1498.42015,0.20301
1500.34862,0.19485
1502.27709,0.19406
1504.20555,0.20560
1506.13402,0.22757
1508.06249,0.22425
1509.99096,0.20424
1511.91943,0.19616
1513.84790,0.19821
1515.77637,0.20841
1517.70483,0.22066
1519.63330,0.23137
1521.56177,0.23704
1523.49024,0.22820
1525.41871,0.21829
1527.34718,0.21093
1529.27565,0.20375
1531.20412,0.20250
1533.13258,0.20494
1535.06105,0.20300
1536.98952,0.20796
1538.91799,0.23273
1540.84646,0.25755
1542.77493,0.24131
1544.70340,0.21362
1546.63186,0.19744
1548.56033,0.19557
1550.48880,0.19820
1552.41727,0.20049
1554.34574,0.20786
1556.27421,0.22487
1558.20268,0.24317
1560.13115,0.22420
1562.05961,0.20528
1563.98808,0.20034
1565.91655,0.19830
1567.84502,0.19971
1569.77349,0.20035
1571.70196,0.19459
1573.63043,0.19275
1575.55889,0.19741
1577.48736,0.19815
1579.41583,0.19076
1581.34430,0.18183
1583.27277,0.17676
1585.20124,0.17873
1587.12971,0.18385
1589.05818,0.18627
1590.98664,0.18549
1592.91511,0.18354
1594.84358,0.18194
1596.77205,0.18167
1598.70052,0.18293
1600.62899,0.18604
1602.55746,0.18894
1604.48592,0.18823
1606.41439,0.18704
1608.34286,0.18852
1610.27133,0.18796
1612.19980,0.18621
1614.12827,0.19116
1616.05674,0.20214
1617.98521,0.20363
1619.91367,0.19899
1621.84214,0.20008
1623.77061,0.20164
1625.69908,0.19868
1627.62755,0.19516
1629.55602,0.19274
1631.48449,0.19430
1633.41295,0.20412
1635.34142,0.22118
1637.26989,0.21885
1639.19836,0.20154
1641.12683,0.19382
1643.05530,0.19935
1644.98377,0.21595
1646.91223,0.23285
1648.84070,0.23040
1650.76917,0.22713
1652.69764,0.23003
1654.62611,0.21913
1656.55458,0.20731
1658.48305,0.20581
1660.41152,0.21701
1662.33998,0.23027
1664.26845,0.22496
1666.19692,0.21563
1668.12539,0.21947
1670.05386,0.22590
1671.98233,0.22143
1673.91080,0.21952
1675.83926,0.21827
1677.76773,0.21335
1679.69620,0.21467
1681.62467,0.22553
1683.55314,0.23616
1685.48161,0.22455
1687.41008,0.21158
1689.33855,0.20631
1691.26701,0.20040
1693.19548,0.20024
1695.12395,0.21326
1697.05242,0.22965
1698.98089,0.23506
1700.90936,0.22836
1702.83783,0.22185
1704.76629,0.22212
1706.69476,0.21611
1708.62323,0.20295
1710.55170,0.19726
1712.48017,0.20303
1714.40864,0.21565
1716.33711,0.22645
1718.26558,0.22026
1720.19404,0.20595
1722.12251,0.19772
1724.05098,0.19345
1725.97945,0.19121
1727.90792,0.19170
1729.83639,0.19545
1731.76486,0.20273
1733.69332,0.20908
1735.62179,0.20692
1737.55026,0.20358
1739.47873,0.20176
1741.40720,0.20015
1743.33567,0.20079
1745.26414,0.20390
1747.19261,0.20858
1749.12107,0.21132
1751.04954,0.20451
1752.97801,0.19361
1754.90648,0.18927
1756.83495,0.19095
1758.76342,0.19405
1760.69189,0.19727
1762.62035,0.19628
1764.54882,0.19217
1766.47729,0.19407
1768.40576,0.20116
1770.33423,0.20797
1772.26270,0.20962
1774.19117,0.20216
1776.11964,0.19481
1778.04810,0.19400
1779.97657,0.19797
1781.90504,0.19921
1783.83351,0.19578
1785.76198,0.19259
1787.69045,0.19269
1789.61892,0.19757
1791.54738,0.20523
1793.47585,0.20616
1795.40432,0.20151
1797.33279,0.19982
1799.26126,0.20131
1801.18973,0.20110
1803.11820,0.19612
1805.04666,0.19179
1806.97513,0.19306
1808.90360,0.19766
1810.83207,0.19922
1812.76054,0.19519
1814.68901,0.19155
1816.61748,0.19296
1818.54595,0.19760
1820.47441,0.20124
1822.40288,0.20344
1824.33135,0.20366
1826.25982,0.20176
1828.18829,0.20339
1830.11676,0.20534
1832.04523,0.20100
1833.97369,0.19597
1835.90216,0.19302
1837.83063,0.19048
1839.75910,0.19070
1841.68757,0.19714
1843.61604,0.20575
1845.54451,0.20624
1847.47298,0.19914
1849.40144,0.19253
1851.32991,0.19000
1853.25838,0.19034
1855.18685,0.19126
1857.11532,0.19178
1859.04379,0.19170
1860.97226,0.19143
1862.90072,0.19202
1864.82919,0.19474
1866.75766,0.19919
1868.68613,0.20109
1870.61460,0.19773
1872.54307,0.19391
1874.47154,0.19175
1876.40001,0.19063
1878.32847,0.19131
1880.25694,0.19351
1882.18541,0.19480
1884.11388,0.19426
1886.04235,0.19326
1887.97082,0.19399
1889.89929,0.19436
1891.82775,0.19246
1893.75622,0.19255
1895.68469,0.19286
1897.61316,0.18983
1899.54163,0.18728
1901.47010,0.18766
1903.39857,0.18989
1905.32704,0.19260
1907.25550,0.19363
1909.18397,0.19169
1911.11244,0.18927
1913.04091,0.18890
1914.96938,0.19022
1916.89785,0.19191
1918.82632,0.19238
1920.75478,0.19107
1922.68325,0.18934
1924.61172,0.18945
1926.54019,0.19063
1928.46866,0.18895
1930.39713,0.18499
1932.32560,0.18365
1934.25407,0.18465
1936.18253,0.18531
1938.11100,0.18691
1940.03947,0.19021
1941.96794,0.19326
1943.89641,0.19341
1945.82488,0.19064
1947.75335,0.18806
1949.68181,0.18761
1951.61028,0.18772
1953.53875,0.18776
1955.46722,0.18880
1957.39569,0.19017
1959.32416,0.19172
1961.25263,0.19228
1963.18110,0.19147
1965.10956,0.19233
1967.03803,0.19291
1968.96650,0.19074
1970.89497,0.18897
1972.82344,0.18736
1974.75191,0.18580
1976.68038,0.18646
1978.60884,0.18771
1980.53731,0.18832
1982.46578,0.18842
1984.39425,0.18817
1986.32272,0.18970
1988.25119,0.19301
1990.17966,0.19555
1992.10812,0.19504
1994.03659,0.19157
1995.96506,0.18798
1997.89353,0.18593
1999.82200,0.18690
2001.75047,0.19101
2003.67894,0.19503
2005.60741,0.19541
2007.53587,0.19124
2009.46434,0.18756
2011.39281,0.18832
2013.32128,0.19031
2015.24975,0.19166
2017.17822,0.19308
2019.10669,0.19197
2021.03515,0.18820
2022.96362,0.18635
2024.89209,0.18659
2026.82056,0.18637
2028.74903,0.18588
2030.67750,0.18570
2032.60597,0.18699
2034.53444,0.18887
2036.46290,0.18907
2038.39137,0.18821
2040.31984,0.18865
2042.24831,0.19197
2044.17678,0.19440
2046.10525,0.19178
2048.03372,0.18840
2049.96218,0.18959
2051.89065,0.19262
2053.81912,0.19316
2055.74759,0.19178
2057.67606,0.19075
2059.60453,0.19143
2061.53300,0.19270
2063.46147,0.19187
2065.38993,0.18930
2067.31840,0.18753
2069.24687,0.18741
2071.17534,0.18791
2073.10381,0.18826
2075.03228,0.18935
2076.96075,0.19113
2078.88921,0.19230
2080.81768,0.19246
2082.74615,0.19206
2084.67462,0.19193
2086.60309,0.19203
2088.53156,0.19198
2090.46003,0.19041
2092.38850,0.18771
2094.31696,0.18851
2096.24543,0.19186
2098.17390,0.19227
2100.10237,0.19098
2102.03084,0.19249
2103.95931,0.19581
2105.88778,0.19598
2107.81624,0.19327
2109.74471,0.19169
2111.67318,0.18938
2113.60165,0.18636
2115.53012,0.18662
2117.45859,0.18822
2119.38706,0.18980
2121.31553,0.19147
2123.24399,0.19126
2125.17246,0.19064
2127.10093,0.19038
2129.02940,0.18943
2130.95787,0.18897
2132.88634,0.18993
2134.81481,0.19249
2136.74327,0.19553
2138.67174,0.19545
2140.60021,0.19234
2142.52868,0.19099
2144.45715,0.19340
2146.38562,0.19791
2148.31409,0.20019
2150.24255,0.19767
2152.17102,0.19443
2154.09949,0.19334
2156.02796,0.19272
2157.95643,0.19161
2159.88490,0.19103
2161.81337,0.19216
2163.74184,0.19406
2165.67030,0.19548
2167.59877,0.19447
2169.52724,0.19130
2171.45571,0.19054
2173.38418,0.19212
2175.31265,0.19377
2177.24112,0.19604
2179.16958,0.19746
2181.09805,0.19591
2183.02652,0.19288
2184.95499,0.19087
2186.88346,0.19067
2188.81193,0.19276
2190.74040,0.19440
2192.66887,0.19307
2194.59733,0.19056
2196.52580,0.18750
2198.45427,0.18585
2200.38274,0.18758
2202.31121,0.18909
2204.23968,0.18871
2206.16815,0.18886
2208.09661,0.18973
2210.02508,0.19056
2211.95355,0.19054
2213.88202,0.18897
2215.81049,0.18800
2217.73896,0.18947
2219.66743,0.19218
2221.59590,0.19457
2223.52436,0.19621
2225.45283,0.19573
2227.38130,0.19342
2229.30977,0.19278
2231.23824,0.19422
2233.16671,0.19449
2235.09518,0.19337
2237.02364,0.19377
2238.95211,0.19488
2240.88058,0.19388
2242.80905,0.19137
2244.73752,0.18977
2246.66599,0.19020
2248.59446,0.19144
2250.52293,0.19162
2252.45139,0.19059
2254.37986,0.18990
2256.30833,0.18978
2258.23680,0.18909
2260.16527,0.18883
2262.09374,0.19085
2264.02221,0.19313
2265.95067,0.19337
2267.87914,0.19355
2269.80761,0.19412
2271.73608,0.19299
2273.66455,0.18988
2275.59302,0.18785
2277.52149,0.18961
2279.44996,0.19295
2281.37842,0.19540
2283.30689,0.19640
2285.23536,0.19660
2287.16383,0.19719
2289.09230,0.19673
2291.02077,0.19366
2292.94924,0.19059
2294.87770,0.19041
2296.80617,0.19096
2298.73464,0.18958
2300.66311,0.18666
2302.59158,0.18461
2304.52005,0.18647
2306.44852,0.19109
2308.37699,0.19364
2310.30545,0.19072
2312.23392,0.18375
2314.16239,0.18047
2316.09086,0.18526
2318.01933,0.19196
2319.94780,0.19584
2321.87627,0.19772
2323.80473,0.19621
2325.73320,0.19627
2327.66167,0.20181
2329.59014,0.20192
2331.51861,0.19250
2333.44708,0.18595
2335.37555,0.18219
2337.30401,0.17044
2339.23248,0.15836
2341.16095,0.16162
2343.08942,0.17630
2345.01789,0.18650
2346.94636,0.18837
2348.87483,0.18639
2350.80330,0.18082
2352.73176,0.17336
2354.66023,0.16836
2356.58870,0.17070
2358.51717,0.19212
2360.44564,0.21264
2362.37411,0.20372
2364.30258,0.18654
2366.23104,0.17459
2368.15951,0.16773
2370.08798,0.17218
2372.01645,0.17984
2373.94492,0.18525
2375.87339,0.19031
2377.80186,0.19100
2379.73033,0.18689
2381.65879,0.18476
2383.58726,0.18606
2385.51573,0.18855
2387.44420,0.19148
2389.37267,0.19216
2391.30114,0.19052
2393.22961,0.18989
2395.15807,0.18962
2397.08654,0.18860
2399.01501,0.18862
2400.94348,0.19019
2402.87195,0.19148
2404.80042,0.19143
2406.72889,0.19136
2408.65736,0.19256
2410.58582,0.19449
2412.51429,0.19544
2414.44276,0.19446
2416.37123,0.19208
2418.29970,0.18967
2420.22817,0.18929
2422.15664,0.19171
2424.08510,0.19507
2426.01357,0.19667
2427.94204,0.19544
2429.87051,0.19352
2431.79898,0.19367
2433.72745,0.19477
2435.65592,0.19429
2437.58439,0.19398
2439.51285,0.19616
2441.44132,0.19892
2443.36979,0.19876
2445.29826,0.19596
2447.22673,0.19475
2449.15520,0.19730
2451.08367,0.20287
2453.01213,0.20800
2454.94060,0.20667
2456.86907,0.19916
2458.79754,0.19349
2460.72601,0.19301
2462.65448,0.19342
2464.58295,0.19338
2466.51142,0.19524
2468.43988,0.19692
2470.36835,0.19456
2472.29682,0.19140
2474.22529,0.19271
2476.15376,0.19546
2478.08223,0.19468
2480.01070,0.19249
2481.93916,0.19346
2483.86763,0.19531
2485.79610,0.19365
2487.72457,0.19211
2489.65304,0.19520
2491.58151,0.19888
2493.50998,0.19905
2495.43844,0.19738
2497.36691,0.19520
2499.29538,0.19399
2501.22385,0.19504
2503.15232,0.19650
2505.08079,0.19588
2507.00926,0.19234
2508.93773,0.18901
2510.86619,0.18908
2512.79466,0.19136
2514.72313,0.19260
2516.65160,0.19093
2518.58007,0.18964
2520.50854,0.19269
2522.43701,0.19761
2524.36547,0.19943
2526.29394,0.19686
2528.22241,0.19348
2530.15088,0.19288
2532.07935,0.19469
2534.00782,0.19638
2535.93629,0.19650
2537.86476,0.19694
2539.79322,0.19803
2541.72169,0.19659
2543.65016,0.19325
2545.57863,0.19312
2547.50710,0.19681
2549.43557,0.19775
2551.36404,0.19469
2553.29250,0.19278
2555.22097,0.19183
2557.14944,0.18946
2559.07791,0.18878
2561.00638,0.19201
2562.93485,0.19507
2564.86332,0.19607
2566.79179,0.19647
2568.72025,0.19532
2570.64872,0.19215
2572.57719,0.19080
2574.50566,0.19431
2576.43413,0.19817
2578.36260,0.19799
2580.29107,0.19647
2582.21953,0.19480
2584.14800,0.19122
2586.07647,0.18976
2588.00494,0.19222
2589.93341,0.19379
2591.86188,0.19448
2593.79035,0.19551
2595.71882,0.19518
2597.64728,0.19345
2599.57575,0.19147
2601.50422,0.19075
2603.43269,0.19130
2605.36116,0.19294
2607.28963,0.19674
2609.21810,0.20061
2611.14656,0.20081
2613.07503,0.19810
2615.00350,0.19597
2616.93197,0.19606
2618.86044,0.19717
2620.78891,0.19811
2622.71738,0.19828
2624.64585,0.19730
2626.57431,0.19704
2628.50278,0.19874
2630.43125,0.20046
2632.35972,0.20032
2634.28819,0.20022
2636.21666,0.20067
2638.14513,0.19906
2640.07359,0.19770
2642.00206,0.19823
2643.93053,0.19842
2645.85900,0.19822
2647.78747,0.19774
2649.71594,0.19727
2651.64441,0.19723
2653.57288,0.19685
2655.50134,0.19692
2657.42981,0.19760
2659.35828,0.19817
2661.28675,0.19905
2663.21522,0.19871
2665.14369,0.19715
2667.07216,0.19694
2669.00062,0.19823
2670.92909,0.19911
2672.85756,0.19792
2674.78603,0.19542
2676.71450,0.19478
2678.64297,0.19680
2680.57144,0.19736
2682.49990,0.19579
2684.42837,0.19594
2686.35684,0.19815
2688.28531,0.19989
2690.21378,0.20056
2692.14225,0.20216
2694.07072,0.20284
2695.99919,0.20112
2697.92765,0.20132
2699.85612,0.20327
2701.78459,0.20149
2703.71306,0.19659
2705.64153,0.19515
2707.57000,0.19680
2709.49847,0.19696
2711.42693,0.19765
2713.35540,0.20049
2715.28387,0.20166
2717.21234,0.20048
2719.14081,0.20190
2721.06928,0.20581
2722.99775,0.20694
2724.92622,0.20440
2726.85468,0.20059
2728.78315,0.19866
2730.71162,0.19979
2732.64009,0.20128
2734.56856,0.20064
2736.49703,0.19940
2738.42550,0.20110
2740.35396,0.20353
2742.28243,0.20224
2744.21090,0.19856
2746.13937,0.19650
2748.06784,0.19878
2749.99631,0.20347
2751.92478,0.20692
2753.85325,0.20834
2755.78171,0.20761
2757.71018,0.20568
2759.63865,0.20445
2761.56712,0.20462
2763.49559,0.20447
2765.42406,0.20426
2767.35253,0.20636
2769.28099,0.20756
2771.20946,0.20500
2773.13793,0.20314
2775.06640,0.20435
2776.99487,0.20418
2778.92334,0.20197
2780.85181,0.20057
2782.78028,0.20005
2784.70874,0.20177
2786.63721,0.20342
2788.56568,0.20187
2790.49415,0.20131
2792.42262,0.20233
2794.35109,0.20254
2796.27956,0.20361
2798.20802,0.20468
2800.13649,0.20400
2802.06496,0.20385
2803.99343,0.20544
2805.92190,0.20771
2807.85037,0.20942
2809.77884,0.20817
2811.70731,0.20484
2813.63577,0.20559
2815.56424,0.20983
2817.49271,0.21020
2819.42118,0.20649
2821.34965,0.20265
2823.27812,0.20071
2825.20659,0.20230
2827.13505,0.20537
2829.06352,0.20646
2830.99199,0.20638
2832.92046,0.20653
2834.84893,0.20715
2836.77740,0.20893
2838.70587,0.20995
2840.63433,0.20765
2842.56280,0.20441
2844.49127,0.20549
2846.41974,0.20954
2848.34821,0.20957
2850.27668,0.20604
2852.20515,0.20299
2854.13362,0.20140
2856.06208,0.20363
2857.99055,0.20766
2859.91902,0.20783
2861.84749,0.20475
2863.77596,0.20191
2865.70443,0.20029
2867.63290,0.20166
2869.56136,0.20508
2871.48983,0.20416
2873.41830,0.19929
2875.34677,0.19764
2877.27524,0.20085
2879.20371,0.20555
2881.13218,0.20670
2883.06065,0.20214
2884.98911,0.19815
2886.91758,0.19934
2888.84605,0.20215
2890.77452,0.20497
2892.70299,0.20642
2894.63146,0.20267
2896.55993,0.20027
2898.48839,0.20475
2900.41686,0.20737
2902.34533,0.20335
2904.27380,0.19534
2906.20227,0.18839
2908.13074,0.18870
2910.05921,0.19316
2911.98768,0.19501
2913.91614,0.18902
2915.84461,0.17764
2917.77308,0.17793
2919.70155,0.19306
2921.63002,0.20598
2923.55849,0.20330
2925.48696,0.18665
2927.41542,0.17783
2929.34389,0.18669
2931.27236,0.19622
2933.20083,0.19637
2935.12930,0.18698
2937.05777,0.17624
2938.98624,0.18121
2940.91471,0.19595
2942.84317,0.20113
2944.77164,0.19064
2946.70011,0.17183
2948.62858,0.16908
2950.55705,0.18738
2952.48552,0.20207
2954.41399,0.20225
2956.34245,0.18669
2958.27092,0.17115
2960.19939,0.18107
2962.12786,0.20253
2964.05633,0.20938
2965.98480,0.19850
2967.91327,0.18341
2969.84174,0.18541
2971.77020,0.20171
2973.69867,0.21262
2975.62714,0.20820
2977.55561,0.19179
2979.48408,0.18497
2981.41255,0.19631
2983.34102,0.20738
2985.26948,0.20417
2987.19795,0.18878
2989.12642,0.17955
2991.05489,0.18858
2992.98336,0.20149
2994.91183,0.20512
2996.84030,0.20252
2998.76877,0.20145
3000.69723,0.20515
3002.62570,0.20661
3004.55417,0.20079
3006.48264,0.19026
3008.41111,0.17692
3010.33958,0.15696
3012.26805,0.12325
3014.19651,0.07975
3016.12498,0.05244
3018.05345,0.07642
3019.98192,0.14062
3021.91039,0.19080
3023.83886,0.20835
3025.76733,0.20801
3027.69579,0.20432
3029.62426,0.20907
3031.55273,0.21587
3033.48120,0.21574
3035.40967,0.21323
3037.33814,0.20783
3039.26661,0.20172
3041.19508,0.20269
3043.12354,0.20648
3045.05201,0.20354
3046.98048,0.19541
3048.90895,0.19423
3050.83742,0.20150
3052.76589,0.20660
3054.69436,0.20173
3056.62282,0.18876
3058.55129,0.18575
3060.47976,0.19879
3062.40823,0.21025
3064.33670,0.20314
3066.26517,0.18368
3068.19364,0.18220
3070.12211,0.19981
3072.05057,0.20775
3073.97904,0.19606
3075.90751,0.17920
3077.83598,0.17999
3079.76445,0.19626
3081.69292,0.20364
3083.62139,0.19063
3085.54985,0.17576
3087.47832,0.18406
3089.40679,0.20358
3091.33526,0.20847
3093.26373,0.19378
3095.19220,0.18253
3097.12067,0.19700
3099.04914,0.21674
3100.97760,0.21556
3102.90607,0.19670
3104.83454,0.18536
3106.76301,0.19728
3108.69148,0.21332
3110.61995,0.20868
3112.54842,0.19193
3114.47688,0.19232
3116.40535,0.20687
3118.33382,0.21119
3120.26229,0.20125
3122.19076,0.19134
3124.11923,0.19655
3126.04770,0.20762
3127.97617,0.20635
3129.90463,0.19676
3131.83310,0.19618
3133.76157,0.20704
3135.69004,0.21364
3137.61851,0.20795
3139.54698,0.20013
3141.47545,0.20378
3143.40391,0.21464
3145.33238,0.21805
3147.26085,0.21141
3149.18932,0.20883
3151.11779,0.21806
3153.04626,0.22381
3154.97473,0.21672
3156.90320,0.20954
3158.83166,0.21183
3160.76013,0.21558
3162.68860,0.21594
3164.61707,0.21721
3166.54554,0.21811
3168.47401,0.21905
3170.40248,0.22147
3172.33094,0.21965
3174.25941,0.21505
3176.18788,0.21579
3178.11635,0.21913
3180.04482,0.21985
3181.97329,0.21859
3183.90176,0.21657
3185.83022,0.21677
3187.75869,0.21841
3189.68716,0.21875
3191.61563,0.21916
3193.54410,0.21986
3195.47257,0.22082
3197.40104,0.22186
3199.32951,0.22114
3201.25797,0.22146
3203.18644,0.22537
3205.11491,0.22856
3207.04338,0.22766
3208.97185,0.22250
3210.90032,0.21452
3212.82879,0.20862
3214.75725,0.20779
3216.68572,0.21048
3218.61419,0.21328
3220.54266,0.21205
3222.47113,0.20882
3224.39960,0.20829
3226.32807,0.20901
3228.25654,0.21357
3230.18500,0.22256
3232.11347,0.22650
3234.04194,0.22536
3235.97041,0.22426
3237.89888,0.22013
3239.82735,0.21592
3241.75582,0.21558
3243.68428,0.21297
3245.61275,0.20763
3247.54122,0.20682
3249.46969,0.21126
3251.39816,0.21465
3253.32663,0.21391
3255.25510,0.21264
3257.18357,0.21318
3259.11203,0.21346
3261.04050,0.21228
3262.96897,0.21330
3264.89744,0.21852
3266.82591,0.22085
3268.75438,0.21857
3270.68285,0.22010
3272.61131,0.22420
3274.53978,0.22511
3276.46825,0.22292
3278.39672,0.21814
3280.32519,0.21521
3282.25366,0.21624
3284.18213,0.21845
3286.11060,0.21968
3288.03906,0.21702
3289.96753,0.21180
3291.89600,0.20819
3293.82447,0.20832
3295.75294,0.21200
3297.68141,0.21422
3299.60988,0.21248
3301.53834,0.21376
3303.46681,0.21937
3305.39528,0.22037
3307.32375,0.21540
3309.25222,0.20984
3311.18069,0.20648
3313.10916,0.20634
3315.03763,0.20723
3316.96609,0.20797
3318.89456,0.21235
3320.82303,0.21872
3322.75150,0.22084
3324.67997,0.21920
3326.60844,0.21744
3328.53691,0.21798
3330.46537,0.22063
3332.39384,0.22157
3334.32231,0.21980
3336.25078,0.21786
3338.17925,0.21616
3340.10772,0.21621
3342.03619,0.22031
3343.96466,0.22285
3345.89312,0.22059
3347.82159,0.21816
3349.75006,0.21461
3351.67853,0.20959
3353.60700,0.21003
3355.53547,0.21561
3357.46394,0.21868
3359.39240,0.21940
3361.32087,0.22076
3363.24934,0.22142
3365.17781,0.22098
3367.10628,0.22066
3369.03475,0.22249
3370.96322,0.22511
3372.89168,0.22311
3374.82015,0.21649
3376.74862,0.21246
3378.67709,0.21608
3380.60556,0.22328
3382.53403,0.22644
3384.46250,0.22494
3386.39097,0.22173
3388.31943,0.21734
3390.24790,0.21414
3392.17637,0.21485
3394.10484,0.21857
3396.03331,0.22181
3397.96178,0.22165
3399.89025,0.21858
3401.81871,0.21617
3403.74718,0.21676
3405.67565,0.21650
3407.60412,0.21264
3409.53259,0.20759
3411.46106,0.20362
3413.38953,0.20330
3415.31800,0.20538
3417.24646,0.20487
3419.17493,0.20295
3421.10340,0.20459
3423.03187,0.21007
3424.96034,0.21547
3426.88881,0.21693
3428.81728,0.21657
3430.74574,0.21544
3432.67421,0.20950
3434.60268,0.20341
3436.53115,0.20280
3438.45962,0.20597
3440.38809,0.21064
3442.31656,0.21366
3444.24503,0.21337
3446.17349,0.21099
3448.10196,0.20967
3450.03043,0.21100
3451.95890,0.20959
3453.88737,0.20339
3455.81584,0.19928
3457.74431,0.19974
3459.67277,0.20071
3461.60124,0.19937
3463.52971,0.19585
3465.45818,0.19254
3467.38665,0.19071
3469.31512,0.19036
3471.24359,0.19067
3473.17206,0.19083
3475.10052,0.19181
3477.02899,0.19322
3478.95746,0.19362
3480.88593,0.19481
3482.81440,0.19460
3484.74287,0.19035
3486.67134,0.18947
3488.59980,0.19536
3490.52827,0.20141
3492.45674,0.20004
3494.38521,0.19454
3496.31368,0.19410
3498.24215,0.19338
3500.17062,0.18747
3502.09909,0.18063
3504.02755,0.17444
3505.95602,0.17378
3507.88449,0.18247
3509.81296,0.19169
3511.74143,0.19125
3513.66990,0.18465
3515.59837,0.17795
3517.52683,0.17426
3519.45530,0.17554
3521.38377,0.17977
3523.31224,0.18414
3525.24071,0.18822
3527.16918,0.19066
3529.09765,0.18832
3531.02611,0.18119
3532.95458,0.17380
3534.88305,0.17253
3536.81152,0.17709
3538.73999,0.17935
3540.66846,0.17669
3542.59693,0.17343
3544.52540,0.17327
3546.45386,0.17602
3548.38233,0.17966
3550.31080,0.18392
3552.23927,0.18672
3554.16774,0.18368
3556.09621,0.17703
3558.02468,0.17295
3559.95314,0.17178
3561.88161,0.17003
3563.81008,0.16998
3565.73855,0.17584
3567.66702,0.17839
3569.59549,0.16955
3571.52396,0.15899
3573.45243,0.15120
3575.38089,0.14806
3577.30936,0.14966
3579.23783,0.15115
3581.16630,0.15091
3583.09477,0.15325
3585.02324,0.16142
3586.95171,0.17069
3588.88017,0.16943
3590.80864,0.16525
3592.73711,0.16662
3594.66558,0.16679
3596.59405,0.16255
3598.52252,0.15736
3600.45099,0.15222
3602.37946,0.15193
3604.30792,0.15815
3606.23639,0.16532
3608.16486,0.16868
3610.09333,0.16855
3612.02180,0.16620
3613.95027,0.15805
3615.87874,0.14805
3617.80720,0.14686
3619.73567,0.15229
3621.66414,0.15146
3623.59261,0.14740
3625.52108,0.14632
3627.44955,0.14987
3629.37802,0.15758
3631.30649,0.15952
3633.23495,0.15548
3635.16342,0.15023
3637.09189,0.14598
3639.02036,0.14258
3640.94883,0.14188
3642.87730,0.14595
3644.80577,0.15165
3646.73423,0.16029
3648.66270,0.17296
3650.59117,0.16718
3652.51964,0.14875
3654.44811,0.13977
3656.37658,0.14092
3658.30505,0.14198
3660.23352,0.13972
3662.16198,0.13840
3664.09045,0.14006
3666.01892,0.14569
3667.94739,0.15493
3669.87586,0.16282
3671.80433,0.16228
3673.73280,0.16251
3675.66126,0.16283
3677.58973,0.15358
3679.51820,0.14468
3681.44667,0.13878
3683.37514,0.13304
3685.30361,0.12833
3687.23208,0.12943
3689.16055,0.13720
3691.08901,0.14016
3693.01748,0.13699
3694.94595,0.13323
3696.87442,0.12812
3698.80289,0.12535
3700.73136,0.13191
3702.65983,0.14152
3704.58829,0.14253
3706.51676,0.14131
3708.44523,0.14737
3710.37370,0.15423
3712.30217,0.14373
3714.23064,0.13287
3716.15911,0.13452
3718.08757,0.14013
3720.01604,0.14315
3721.94451,0.14311
3723.87298,0.14197
3725.80145,0.13637
3727.72992,0.12849
3729.65839,0.12691
3731.58686,0.13525
3733.51532,0.15326
3735.44379,0.16181
3737.37226,0.14879
3739.30073,0.13885
3741.22920,0.13855
3743.15767,0.14050
3745.08614,0.14121
3747.01460,0.14531
3748.94307,0.15717
3750.87154,0.16293
3752.80001,0.14391
3754.72848,0.12673
3756.65695,0.12248
3758.58542,0.12853
3760.51389,0.13857
3762.44235,0.14267
3764.37082,0.14057
3766.29929,0.13706
3768.22776,0.13666
3770.15623,0.13589
3772.08470,0.13020
3774.01317,0.12338
3775.94163,0.11841
3777.87010,0.11820
3779.79857,0.12342
3781.72704,0.12733
3783.65551,0.12869
3785.58398,0.13038
3787.51245,0.13171
3789.44092,0.13266
3791.36938,0.13281
3793.29785,0.13146
3795.22632,0.12852
3797.15479,0.12444
3799.08326,0.12765
3801.01173,0.14143
3802.94020,0.14692
3804.86866,0.14053
3806.79713,0.13273
3808.72560,0.12511
3810.65407,0.12197
3812.58254,0.12412
3814.51101,0.12857
3816.43948,0.13246
3818.36795,0.13635
3820.29641,0.14069
3822.22488,0.14071
3824.15335,0.13628
3826.08182,0.13047
3828.01029,0.12536
3829.93876,0.12268
3831.86723,0.12155
3833.79569,0.12275
3835.72416,0.12670
3837.65263,0.13010
3839.58110,0.13018
3841.50957,0.13260
3843.43804,0.13657
3845.36651,0.13572
3847.29498,0.13417
3849.22344,0.13917
3851.15191,0.15088
3853.08038,0.15925
3855.00885,0.14844
3856.93732,0.13592
3858.86579,0.13252
3860.79426,0.13494
3862.72272,0.13378
3864.65119,0.12670
3866.57966,0.12157
3868.50813,0.11953
3870.43660,0.11988
3872.36507,0.12327
3874.29354,0.12578
3876.22200,0.12356
3878.15047,0.12106
3880.07894,0.12093
3882.00741,0.12013
3883.93588,0.11954
3885.86435,0.11855
3887.79282,0.11408
3889.72129,0.11056
3891.64975,0.11453
3893.57822,0.12156
3895.50669,0.12332
3897.43516,0.12538
3899.36363,0.13404
3901.29210,0.13981
3903.22057,0.13108
3905.14903,0.12123
3907.07750,0.11919
3909.00597,0.11607
3910.93444,0.11221
3912.86291,0.11360
3914.79138,0.11666
3916.71985,0.11573
3918.64832,0.11515
3920.57678,0.11783
3922.50525,0.11952
3924.43372,0.11936
3926.36219,0.12032
3928.29066,0.12443
3930.21913,0.12786
3932.14760,0.12603
3934.07606,0.12124
3936.00453,0.11692
3937.93300,0.11555
3939.86147,0.11771
3941.78994,0.12073
3943.71841,0.12150
3945.64688,0.11799
3947.57535,0.11006
3949.50381,0.10258
3951.43228,0.10383
3953.36075,0.10987
3955.28922,0.11178
3957.21769,0.11003
3959.14616,0.11085
3961.07463,0.11534
3963.00309,0.11647
3964.93156,0.11232
3966.86003,0.10943
3968.78850,0.10916
3970.71697,0.10738
3972.64544,0.10626
3974.57391,0.10851
3976.50238,0.11055
3978.43084,0.11227
3980.35931,0.11117
3982.28778,0.10434
3984.21625,0.09924
3986.14472,0.10088
3988.07319,0.10486
3990.00166,0.10644
3991.93012,0.10413
3993.85859,0.09938
3995.78706,0.09945
3997.71553,0.10535
3999.64400,0.10801
4001.57247,0.10609
4003.50094,0.10469
4005.42941,0.10677
4007.35787,0.11163
4009.28634,0.11357
4011.21481,0.10864
4013.14328,0.10107
4015.07175,0.09819
4017.00022,0.09924
4018.92869,0.09991
4020.85715,0.10253
4022.78562,0.10504
4024.71409,0.10219
4026.64256,0.09771
4028.57103,0.09639
4030.49950,0.09822
4032.42797,0.10082
4034.35644,0.10162
4036.28490,0.10056
4038.21337,0.09967
4040.14184,0.09969
4042.07031,0.09859
4043.99878,0.09558
4045.92725,0.09284
4047.85572,0.09351
4049.78418,0.09659
4051.71265,0.09776
4053.64112,0.09633
4055.56959,0.09403
4057.49806,0.09384
4059.42653,0.09669
4061.35500,0.09636
4063.28346,0.09058
4065.21193,0.08780
4067.14040,0.09117
4069.06887,0.09346
4070.99734,0.08839
4072.92581,0.07980
4074.85428,0.07898
4076.78275,0.08907
4078.71121,0.09972
4080.63968,0.10048
4082.56815,0.09717
4084.49662,0.09919
4086.42509,0.10193
4088.35356,0.10122
4090.28203,0.09762
4092.21049,0.09077
4094.13896,0.08436
4096.06743,0.08358
4097.99590,0.08830
4099.92437,0.09276
4101.85284,0.09258
4103.78131,0.08991
4105.70978,0.08898
4107.63824,0.09031
4109.56671,0.09393
4111.49518,0.09918
4113.42365,0.10021
4115.35212,0.09376
4117.28059,0.08456
4119.20906,0.07959
4121.13752,0.08238
4123.06599,0.08729
4124.99446,0.08803
4126.92293,0.09170
4128.85140,0.09998
4130.77987,0.10032
4132.70834,0.09356
4134.63681,0.09080
4136.56527,0.09227
4138.49374,0.09262
4140.42221,0.08999
4142.35068,0.08804
4144.27915,0.08936
4146.20762,0.08956
4148.13609,0.08763
4150.06455,0.08843
4151.99302,0.09138
4153.92149,0.09226
4155.84996,0.09342
4157.77843,0.09591
4159.70690,0.09504
4161.63537,0.09335
4163.56384,0.09197
4165.49230,0.08373
4167.42077,0.07091
4169.34924,0.06534
4171.27771,0.07072
4173.20618,0.07764
4175.13465,0.07854
4177.06312,0.07832
4178.99158,0.08197
4180.92005,0.08461
4182.84852,0.08146
4184.77699,0.07584
4186.70546,0.07310
4188.63393,0.07173
4190.56240,0.06784
4192.49087,0.06436
4194.41933,0.06561
4196.34780,0.07085
4198.27627,0.07631
4200.20474,0.07819
4202.13321,0.07706
4204.06168,0.07823
4205.99015,0.07912
4207.91861,0.07550
4209.84708,0.07558
4211.77555,0.08063
4213.70402,0.08426
4215.63249,0.08307
4217.56096,0.07481
4219.48943,0.06664
4221.41789,0.06358
4223.34636,0.06235
4225.27483,0.06131
4227.20330,0.06163
4229.13177,0.06526
4231.06024,0.06967
4232.98871,0.07136
4234.91718,0.06869
4236.84564,0.06253
4238.77411,0.06083
4240.70258,0.06759
4242.63105,0.07417
4244.55952,0.07442
4246.48799,0.07235
4248.41646,0.07254
4250.34492,0.07403
4252.27339,0.07557
4254.20186,0.07973
4256.13033,0.08318
4258.05880,0.07993
4259.98727,0.07248
4261.91574,0.06771
4263.84421,0.06919
4265.77267,0.07159
4267.70114,0.06788
4269.62961,0.06130
4271.55808,0.06065
4273.48655,0.06368
4275.41502,0.06216
4277.34349,0.05730
4279.27195,0.05074
4281.20042,0.04523
4283.12889,0.04742
4285.05736,0.05431
4286.98583,0.05825
4288.91430,0.05865
4290.84277,0.06000
4292.77124,0.06418
4294.69970,0.06599
4296.62817,0.06135
4298.55664,0.05639
4300.48511,0.05909
4302.41358,0.06460
4304.34205,0.06382
4306.27052,0.06126
4308.19898,0.06186
4310.12745,0.06062
4312.05592,0.05959
4313.98439,0.06280
4315.91286,0.06642
4317.84133,0.06797
4319.76980,0.06593
4321.69827,0.06190
4323.62673,0.05995
4325.55520,0.05663
4327.48367,0.05203
4329.41214,0.04991
4331.34061,0.04564
4333.26908,0.04030
4335.19755,0.04178
4337.12601,0.04603
4339.05448,0.04531
4340.98295,0.04428
4342.91142,0.04765
4344.83989,0.05084
4346.76836,0.05095
4348.69683,0.04851
4350.62530,0.04365
4352.55376,0.03862
4354.48223,0.03733
4356.41070,0.04140
4358.33917,0.04643
4360.26764,0.04747
4362.19611,0.04689
4364.12458,0.04566
4366.05304,0.04140
4367.98151,0.03756
4369.90998,0.03592
4371.83845,0.03402
4373.76692,0.03235
4375.69539,0.03445
4377.62386,0.04193
4379.55232,0.04918
4381.48079,0.05067
4383.40926,0.04862
4385.33773,0.04514
4387.26620,0.04038
4389.19467,0.03834
4391.12314,0.03861
4393.05161,0.03681
4394.98007,0.03700
4396.90854,0.04318
4398.83701,0.04754
4400.76548,0.04200
4402.69395,0.03252
4404.62242,0.03042
4406.55089,0.03690
4408.47935,0.04209
4410.40782,0.03945
4412.33629,0.03578
4414.26476,0.03742
4416.19323,0.04380
4418.12170,0.05035
4420.05017,0.04952
4421.97864,0.04107
4423.90710,0.03234
4425.83557,0.02933
4427.76404,0.03240
4429.69251,0.03687
4431.62098,0.03673
4433.54945,0.03007
4435.47792,0.02252
4437.40638,0.02015
4439.33485,0.02552
4441.26332,0.03239
4443.19179,0.02926
4445.12026,0.02209
4447.04873,0.02487
4448.97720,0.03211
4450.90567,0.03482
4452.83413,0.03623
4454.76260,0.03613
4456.69107,0.03204
4458.61954,0.02869
4460.54801,0.02826
4462.47648,0.02596
4464.40495,0.02119
4466.33341,0.01862
4468.26188,0.01845
4470.19035,0.01935
4472.11882,0.02034
4474.04729,0.02252
4475.97576,0.03043
4477.90423,0.04088
4479.83270,0.04817
4481.76116,0.05194
4483.68963,0.05154
4485.61810,0.04615
4487.54657,0.03741
4489.47504,0.02846
4491.40351,0.01999
4493.33198,0.01494
4495.26044,0.01746
4497.18891,0.01984
4499.11738,0.01555
4501.04585,0.01105
4502.97432,0.01231
4504.90279,0.02006
4506.83126,0.02444
4508.75973,0.02078
4510.68819,0.02383
4512.61666,0.03466
4514.54513,0.03607
4516.47360,0.02362
4518.40207,0.01036
4520.33054,0.00542
4522.25901,0.00513
4524.18747,0.00764
4526.11594,0.01345
4528.04441,0.02096
4529.97288,0.02940
4531.90135,0.03267
4533.82982,0.02690
4535.75829,0.01952
4537.68676,0.01316
4539.61522,0.00662
4541.54369,0.00662
4543.47216,0.01548
4545.40063,0.02525
4547.32910,0.02672
4549.25757,0.02052
4551.18604,0.01353
4553.11450,0.01019
4555.04297,0.01465
4556.97144,0.02348
4558.89991,0.02469
4560.82838,0.01910
4562.75685,0.02102
4564.68532,0.02916
4566.61378,0.03023
4568.54225,0.02927
4570.47072,0.03352
4572.39919,0.03286
4574.32766,0.02428
4576.25613,0.01635
4578.18460,0.01286
4580.11307,0.01415
4582.04153,0.01298
4583.97000,0.00370
4585.89847,-0.00330
4587.82694,0.00327
4589.75541,0.02016
4591.68388,0.02954
4593.61235,0.02064
4595.54081,0.00506
4597.46928,-0.00326
4599.39775,-0.00198
4601.32622,0.00238
4603.25469,0.00428
4605.18316,0.00667
4607.11163,0.01349
4609.04010,0.02034
4610.96856,0.01897
4612.89703,0.01060
4614.82550,0.00646
4616.75397,0.00988
4618.68244,0.01037
4620.61091,0.00500
4622.53938,0.00242
4624.46784,0.00142
4626.39631,-0.00089
4628.32478,0.00092
4630.25325,0.00363
4632.18172,0.00168
4634.11019,0.00117
4636.03866,0.00455
4637.96713,0.00571
4639.89559,0.00260
4641.82406,0.00053
4643.75253,0.00559
4645.68100,0.01215
4647.60947,0.01235
4649.53794,0.01024
4651.46641,0.01085
4653.39487,0.01143
4655.32334,0.00885
4657.25181,0.00784
4659.18028,0.00999
4661.10875,0.01207
4663.03722,0.01468
4664.96569,0.01713
4666.89416,0.02213
4668.82262,0.03180
4670.75109,0.03661
4672.67956,0.02987
4674.60803,0.01807
4676.53650,0.00902
4678.46497,0.00476
4680.39344,0.00801
4682.32190,0.01909
4684.25037,0.02764
4686.17884,0.02453
4688.10731,0.01533
4690.03578,0.01154
4691.96425,0.01418
4693.89272,0.01649
4695.82119,0.01443
4697.74965,0.00733
4699.67812,0.00423
4701.60659,0.00963
4703.53506,0.01178
4705.46353,0.01049
4707.39200,0.00978
4709.32047,0.00391
4711.24893,-0.00512
4713.17740,-0.01188
4715.10587,-0.01415
4717.03434,-0.00819
4718.96281,0.00592
4720.89128,0.01461
4722.81975,0.00392
4724.74821,-0.01516
4726.67668,-0.02160
4728.60515,-0.01161
4730.53362,0.00725
4732.46209,0.01985
4734.39056,0.01273
4736.31903,0.00207
4738.24750,0.00799
4740.17596,0.01775
4742.10443,0.01484
4744.03290,0.00537
4745.96137,0.00111
4747.88984,0.00652
4749.81831,0.01606
4751.74678,0.01585
4753.67524,0.00653
4755.60371,0.00346
4757.53218,0.00621
4759.46065,0.01036
4761.38912,0.01996
4763.31759,0.02463
4765.24606,0.01747
4767.17453,0.00989
4769.10299,0.00561
4771.03146,0.00108
4772.95993,0.00009
4774.88840,0.00729
4776.81687,0.01808
4778.74534,0.02343
4780.67381,0.01800
4782.60227,0.00891
4784.53074,0.00788
4786.45921,0.00923
4788.38768,0.00680
4790.31615,0.00330
4792.24462,-0.00069
4794.17309,0.00173
4796.10156,0.00801
4798.03002,0.00566
4799.95849,0.00338
4801.88696,0.00930
4803.81543,0.01361
4805.74390,0.01159
4807.67237,0.00692
4809.60084,0.00079
4811.52930,-0.00364
4813.45777,0.00103
4815.38624,0.01119
4817.31471,0.01804
4819.24318,0.02125
4821.17165,0.02319
4823.10012,0.02461
4825.02859,0.01705
4826.95705,0.00287
4828.88552,0.00079
4830.81399,0.00970
4832.74246,0.01350
4834.67093,0.01105
4836.59940,0.01089
4838.52787,0.01316
4840.45633,0.01436
4842.38480,0.01087
4844.31327,0.00070
4846.24174,-0.01089
4848.17021,-0.01065
4850.09868,0.00796
4852.02715,0.02237
4853.95562,0.01482
4855.88408,0.00286
4857.81255,-0.00063
4859.74102,-0.00096
4861.66949,-0.00031
4863.59796,-0.00363
4865.52643,-0.00919
4867.45490,-0.00687
4869.38336,-0.00855
4871.31183,-0.01945
4873.24030,-0.01924
4875.16877,-0.00009
4877.09724,0.02351
4879.02571,0.02874
4880.95418,0.01148
4882.88265,-0.00818
4884.81111,-0.01464
4886.73958,0.00270
4888.66805,0.02916
4890.59652,0.03085
4892.52499,0.01782
4894.45346,0.01339
4896.38193,0.00755
4898.31039,-0.00192
4900.23886,-0.00517
4902.16733,0.00278
4904.09580,0.01906
4906.02427,0.02540
4907.95274,0.01703
4909.88121,0.00518
4911.80967,-0.00274
4913.73814,0.00411
4915.66661,0.02401
4917.59508,0.03341
4919.52355,0.02224
4921.45202,0.00898
4923.38049,0.01056
4925.30896,0.01560
4927.23742,0.01253
4929.16589,0.01113
4931.09436,0.01404
4933.02283,0.01543
4934.95130,0.01085
4936.87977,0.00002
4938.80824,-0.00525
4940.73670,0.00203
4942.66517,0.01015
4944.59364,0.01266
4946.52211,0.01435
4948.45058,0.01240
4950.37905,0.00810
4952.30752,0.00836
4954.23599,0.01387
4956.16445,0.01934
4958.09292,0.01311
4960.02139,0.00286
4961.94986,0.01077
4963.87833,0.02708
4965.80680,0.02365
4967.73527,0.00520
4969.66373,-0.00456
4971.59220,-0.00264
4973.52067,0.00229
4975.44914,0.00573
4977.37761,0.01173
4979.30608,0.02379
4981.23455,0.02826
4983.16302,0.01481
4985.09148,-0.00278
4987.01995,-0.00850
4988.94842,-0.00374
4990.87689,0.00303
4992.80536,0.00820
4994.73383,0.01031
4996.66230,0.01258
4998.59076,0.01814
5000.51923,0.01903
5002.44770,0.01149
5004.37617,0.00751
5006.30464,0.01234
5008.23311,0.01643
5010.16158,0.01295
5012.09005,0.00473
5014.01851,0.00610
5015.94698,0.01820
5017.87545,0.02285
5019.80392,0.01832
5021.73239,0.01371
5023.66086,0.01454
5025.58933,0.02225
5027.51779,0.02777
5029.44626,0.02192
5031.37473,0.00740
5033.30320,-0.00062
5035.23167,0.00382
5037.16014,0.01249
5039.08861,0.02283
5041.01708,0.03339
5042.94554,0.03902
5044.87401,0.03619
5046.80248,0.02864
5048.73095,0.02766
5050.65942,0.03127
5052.58789,0.02599
5054.51636,0.01633
5056.44482,0.01432
5058.37329,0.01574
5060.30176,0.02274
5062.23023,0.03912
5064.15870,0.04354
5066.08717,0.03244
5068.01564,0.02514
5069.94410,0.01920
5071.87257,0.00930
5073.80104,0.00447
5075.72951,0.00861
5077.65798,0.00998
5079.58645,0.01040
5081.51492,0.02250
5083.44339,0.02851
5085.37185,0.02148
5087.30032,0.01817
5089.22879,0.01793
5091.15726,0.01907
5093.08573,0.02288
5095.01420,0.01938
5096.94267,0.00966
5098.87113,0.00712
5100.79960,0.01240
5102.72807,0.01859
5104.65654,0.02289
5106.58501,0.02938
5108.51348,0.04474
5110.44195,0.05610
5112.37042,0.05029
5114.29888,0.04325
5116.22735,0.04675
5118.15582,0.04830
5120.08429,0.04358
5122.01276,0.04523
5123.94123,0.05212
5125.86970,0.05427
5127.79816,0.05250
5129.72663,0.04954
5131.65510,0.05000
5133.58357,0.05158
5135.51204,0.04357
5137.44051,0.02489
5139.36898,0.00456
5141.29745,-0.00126
5143.22591,0.01763
5145.15438,0.04228
5147.08285,0.04373
5149.01132,0.02649
5150.93979,0.00776
5152.86826,-0.00033
5154.79673,0.01389
5156.72519,0.03285
5158.65366,0.04162
5160.58213,0.05220
5162.51060,0.06309
5164.43907,0.06930
5166.36754,0.06501
5168.29601,0.04252
5170.22448,0.02457
5172.15294,0.03596
5174.08141,0.05070
5176.00988,0.04189
5177.93835,0.02672
5179.86682,0.02838
5181.79529,0.04350
5183.72376,0.05523
5185.65222,0.05329
5187.58069,0.04326
5189.50916,0.04420
5191.43763,0.05908
5193.36610,0.06875
5195.29457,0.06397
5197.22304,0.04599
5199.15151,0.02099
5201.07997,0.00875
5203.00844,0.01486
5204.93691,0.02356
5206.86538,0.02798
5208.79385,0.02976
5210.72232,0.02871
5212.65079,0.03135
5214.57925,0.04084
5216.50772,0.05168
5218.43619,0.05928
5220.36466,0.06094
5222.29313,0.05193
5224.22160,0.03591
5226.15007,0.02966
5228.07854,0.03401
5230.00700,0.03800
5231.93547,0.04706
5233.86394,0.05263
5235.79241,0.04581
5237.72088,0.04066
5239.64935,0.03162
5241.57782,0.01836
5243.50628,0.01941
5245.43475,0.02866
5247.36322,0.03441
5249.29169,0.02648
5251.22016,0.00751
5253.14863,0.00708
5255.07710,0.02180
5257.00556,0.02632
5258.93403,0.02814
5260.86250,0.03354
5262.79097,0.04347
5264.71944,0.06883
5266.64791,0.08446
5268.57638,0.07067
5270.50485,0.04631
5272.43331,0.03024
5274.36178,0.03125
5276.29025,0.03912
5278.21872,0.04173
5280.14719,0.04213
5282.07566,0.03235
5284.00413,0.01335
5285.93259,0.01014
5287.86106,0.02147
5289.78953,0.02861
5291.71800,0.03556
5293.64647,0.04200
5295.57494,0.04144
5297.50341,0.04006
5299.43188,0.04093
5301.36034,0.04190
5303.28881,0.04840
5305.21728,0.06661
5307.14575,0.07644
5309.07422,0.05693
5311.00269,0.04252
5312.93116,0.06488
5314.85962,0.09468
5316.78809,0.10159
5318.71656,0.09778
5320.64503,0.08720
5322.57350,0.06968
5324.50197,0.06803
5326.43044,0.08265
5328.35891,0.07716
5330.28737,0.05040
5332.21584,0.05141
5334.14431,0.08385
5336.07278,0.09097
5338.00125,0.05889
5339.92972,0.03321
5341.85819,0.03288
5343.78665,0.04262
5345.71512,0.05431
5347.64359,0.05470
5349.57206,0.04755
5351.50053,0.05727
5353.42900,0.07661
5355.35747,0.07470
5357.28594,0.06053
5359.21440,0.05310
5361.14287,0.05760
5363.07134,0.06915
5364.99981,0.06772
5366.92828,0.04981
5368.85675,0.04275
5370.78522,0.05854
5372.71368,0.07429
5374.64215,0.06782
5376.57062,0.04456
5378.49909,0.02729
5380.42756,0.02371
5382.35603,0.04200
5384.28450,0.08970
5386.21297,0.10864
5388.14143,0.06622
5390.06990,0.04285
5391.99837,0.06626
5393.92684,0.08880
5395.85531,0.07959
5397.78378,0.05661
5399.71225,0.04978
5401.64071,0.06186
5403.56918,0.06969
5405.49765,0.06639
5407.42612,0.06422
5409.35459,0.07169
5411.28306,0.08953
5413.21153,0.10455
5415.13999,0.09945
5417.06846,0.07857
5418.99693,0.05838
5420.92540,0.05579
5422.85387,0.06560
5424.78234,0.06562
5426.71081,0.06365
5428.63928,0.08068
5430.56774,0.09203
5432.49621,0.07011
5434.42468,0.03699
5436.35315,0.02554
5438.28162,0.03141
5440.21009,0.03972
5442.13856,0.05383
5444.06702,0.07168
5445.99549,0.08115
5447.92396,0.08811
5449.85243,0.09223
5451.78090,0.07474
5453.70937,0.06017
5455.63784,0.08587
5457.56631,0.11493
5459.49477,0.09904
5461.42324,0.07729
5463.35171,0.08061
5465.28018,0.08249
5467.20865,0.06721
5469.13712,0.04559
5471.06559,0.03323
5472.99405,0.04329
5474.92252,0.06855
5476.85099,0.07958
5478.77946,0.06817
5480.70793,0.04509
5482.63640,0.03398
5484.56487,0.05103
5486.49334,0.07639
5488.42180,0.09173
5490.35027,0.09706
5492.27874,0.10212
5494.20721,0.10160
5496.13568,0.08124
5498.06415,0.06169
5499.99262,0.06308
5501.92108,0.07334
5503.84955,0.07776
5505.77802,0.06891
5507.70649,0.05925
5509.63496,0.07372
5511.56343,0.09415
5513.49190,0.08682
5515.42037,0.06151
5517.34883,0.05028
5519.27730,0.05635
5521.20577,0.06435
5523.13424,0.06700
5525.06271,0.05157
5526.99118,0.02820
5528.91965,0.03329
5530.84811,0.05493
5532.77658,0.05836
5534.70505,0.05300
5536.63352,0.04931
5538.56199,0.05869
5540.49046,0.09925
5542.41893,0.13428
5544.34740,0.12646
5546.27586,0.10033
5548.20433,0.07820
5550.13280,0.07030
5552.06127,0.07776
5553.98974,0.07811
5555.91821,0.06669
5557.84668,0.06968
5559.77514,0.08960
5561.70361,0.09446
5563.63208,0.06980
5565.56055,0.04832
5567.48902,0.04962
5569.41749,0.04977
5571.34596,0.06348
5573.27443,0.10198
5575.20289,0.11157
5577.13136,0.08666
5579.05983,0.06472
5580.98830,0.06086
5582.91677,0.08434
5584.84524,0.11307
5586.77371,0.11278
5588.70217,0.08960
5590.63064,0.07022
5592.55911,0.06043
5594.48758,0.06019
5596.41605,0.06790
5598.34452,0.06915
5600.27299,0.06240
5602.20145,0.05709
5604.12992,0.03984
5606.05839,0.00768
5607.98686,-0.00040
5609.91533,0.02162
5611.84380,0.03112
5613.77227,0.02746
5615.70074,0.03916
5617.62920,0.05929
5619.55767,0.08255
5621.48614,0.10713
5623.41461,0.10228
5625.34308,0.08101
5627.27155,0.08594
5629.20002,0.09029
5631.12848,0.07429
5633.05695,0.06008
5634.98542,0.05041
5636.91389,0.04585
5638.84236,0.04154
5640.77083,0.03377
5642.69930,0.04166
5644.62777,0.05080
5646.55623,0.03986
5648.48470,0.03635
5650.41317,0.04171
5652.34164,0.04184
5654.27011,0.06287
5656.19858,0.10735
5658.12705,0.14245
5660.05551,0.15008
5661.98398,0.12873
5663.91245,0.08860
5665.84092,0.05527
5667.76939,0.04591
5669.69786,0.05867
5671.62633,0.06789
5673.55480,0.05009
5675.48326,0.04375
5677.41173,0.08172
5679.34020,0.11191
5681.26867,0.10332
5683.19714,0.09386
5685.12561,0.11207
5687.05408,0.14027
5688.98254,0.13907
5690.91101,0.11117
5692.83948,0.09792
5694.76795,0.11065
5696.69642,0.12671
5698.62489,0.12033
5700.55336,0.11518
5702.48183,0.13825
5704.41029,0.13916
5706.33876,0.09737
5708.26723,0.05675
5710.19570,0.03140
5712.12417,0.01798
5714.05264,0.02600
5715.98111,0.05349
5717.90957,0.09614
5719.83804,0.13551
5721.76651,0.13124
5723.69498,0.09813
5725.62345,0.07041
5727.55192,0.03432
5729.48039,0.00298
5731.40886,0.00725
5733.33732,0.04343
5735.26579,0.09022
5737.19426,0.12266
5739.12273,0.12856
5741.05120,0.09928
5742.97967,0.06203
5744.90814,0.04017
5746.83660,0.02126
5748.76507,0.01927
5750.69354,0.03880
5752.62201,0.05197
5754.55048,0.05758
5756.47895,0.06030
5758.40742,0.05871
5760.33588,0.06434
5762.26435,0.08238
5764.19282,0.10422
5766.12129,0.10595
5768.04976,0.07542
5769.97823,0.05165
5771.90670,0.07654
5773.83517,0.11519
5775.76363,0.10677
5777.69210,0.08552
5779.62057,0.10650
5781.54904,0.11775
5783.47751,0.06756
5785.40598,-0.00929
5787.33445,-0.03702
5789.26291,0.00311
5791.19138,0.04151
5793.11985,0.05249
5795.04832,0.05559
5796.97679,0.05043
5798.90526,0.05906
5800.83373,0.07979
5802.76220,0.05539
5804.69066,-0.00450
5806.61913,-0.00123
5808.54760,0.06993
5810.47607,0.12099
5812.40454,0.11952
5814.33301,0.10058
5816.26148,0.07955
5818.18994,0.04609
5820.11841,0.04976
5822.04688,0.10371
5823.97535,0.10868
5825.90382,0.06137
5827.83229,0.06175
5829.76076,0.12681
5831.68923,0.17296
5833.61769,0.15980
5835.54616,0.11958
5837.47463,0.07908
5839.40310,0.05249
5841.33157,0.05566
5843.26004,0.07868
5845.18851,0.09305
5847.11697,0.10062
5849.04544,0.12460
5850.97391,0.13711
5852.90238,0.11810
5854.83085,0.10791
5856.75932,0.12475
5858.68779,0.14856
5860.61626,0.15135
5862.54472,0.12713
5864.47319,0.10609
5866.40166,0.10041
5868.33013,0.08505
5870.25860,0.05810
5872.18707,0.04163
5874.11554,0.03266
5876.04400,0.04129
5877.97247,0.07807
5879.90094,0.11228
5881.82941,0.13482
5883.75788,0.14796
5885.68635,0.14729
5887.61482,0.12765
5889.54329,0.09699
5891.47175,0.08174
5893.40022,0.07816
5895.32869,0.09206
5897.25716,0.11300
5899.18563,0.10324
5901.11410,0.09299
5903.04257,0.10598
5904.97103,0.10966
5906.89950,0.08812
5908.82797,0.06214
5910.75644,0.07946
5912.68491,0.12118
5914.61338,0.11904
5916.54185,0.10346
5918.47032,0.11650
5920.39878,0.11165
5922.32725,0.09070
5924.25572,0.09321
5926.18419,0.08708
5928.11266,0.06274
5930.04113,0.05771
5931.96960,0.05801
5933.89806,0.06006
5935.82653,0.09052
5937.75500,0.12033
5939.68347,0.10792
5941.61194,0.06475
5943.54041,0.03143
5945.46888,0.02694
5947.39734,0.04890
5949.32581,0.06396
5951.25428,0.05095
5953.18275,0.04904
5955.11122,0.05486
5957.03969,0.04530
5958.96816,0.06175
5960.89663,0.12061
5962.82509,0.14217
5964.75356,0.11147
5966.68203,0.10469
5968.61050,0.12589
5970.53897,0.13103
5972.46744,0.11717
5974.39591,0.09516
5976.32437,0.08121
5978.25284,0.07760
5980.18131,0.07337
5982.10978,0.07020
5984.03825,0.06786
5985.96672,0.06866
5987.89519,0.08353
5989.82366,0.09859
5991.75212,0.13050
5993.68059,0.18936
5995.60906,0.17883
5997.53753,0.07892
5999.46600,0.01917
6001.39447,0.03932
6003.32294,0.07671
6005.25140,0.09976
6007.17987,0.11456
6009.10834,0.13497
6011.03681,0.15275
6012.96528,0.14433
6014.89375,0.13380
6016.82222,0.11824
6018.75069,0.08302
6020.67915,0.09154
6022.60762,0.14452
6024.53609,0.17374
6026.46456,0.18563
6028.39303,0.18523
6030.32150,0.11993
6032.24997,0.03599
6034.17843,0.02973
6036.10690,0.06352
6038.03537,0.07248
6039.96384,0.08687
6041.89231,0.09351
6043.82078,0.05237
6045.74925,0.02729
6047.67772,0.05435
6049.60618,0.07610
6051.53465,0.09440
6053.46312,0.13523
6055.39159,0.15811
6057.32006,0.12321
6059.24853,0.03144
6061.17700,-0.04138
6063.10546,-0.03145
6065.03393,-0.00770
6066.96240,-0.00780
6068.89087,0.00253
6070.81934,0.01937
6072.74781,0.03942
6074.67628,0.08158
6076.60475,0.12960
6078.53321,0.14142
6080.46168,0.11492
6082.39015,0.10495
6084.31862,0.14810
6086.24709,0.18669
6088.17556,0.16867
6090.10403,0.13760
6092.03249,0.11293
6093.96096,0.08730
6095.88943,0.06601
6097.81790,0.06176
6099.74637,0.08398
6101.67484,0.11899
6103.60331,0.16837
6105.53177,0.20078
6107.46024,0.17213
6109.38871,0.12361
6111.31718,0.10402
6113.24565,0.10413
6115.17412,0.09902
6117.10259,0.07419
6119.03106,0.05395
6120.95952,0.06453
6122.88799,0.08567
6124.81646,0.11706
6126.74493,0.13305
6128.67340,0.09269
6130.60187,0.07950
6132.53034,0.11310
6134.45880,0.11030
6136.38727,0.10139
6138.31574,0.11113
6140.24421,0.08030
6142.17268,0.03239
6144.10115,0.02582
6146.02962,0.02147
6147.95809,0.00661
6149.88655,0.01292
6151.81502,0.00712
6153.74349,-0.01903
6155.67196,0.01559
6157.60043,0.08656
6159.52890,0.11267
6161.45737,0.09617
6163.38583,0.06088
6165.31430,0.04370
6167.24277,0.04894
6169.17124,0.04906
6171.09971,0.04105
6173.02818,0.01890
6174.95665,0.00256
6176.88512,0.02713
6178.81358,0.09972
6180.74205,0.17495
6182.67052,0.16899
6184.59899,0.07786
6186.52746,0.02093
6188.45593,0.06398
6190.38440,0.09717
6192.31286,0.06371
6194.24133,0.03013
6196.16980,0.06224
6198.09827,0.12521
6200.02674,0.11015
6201.95521,0.02800
6203.88368,-0.01409
6205.81215,0.01029
6207.74061,0.06610
6209.66908,0.14428
6211.59755,0.17911
6213.52602,0.14416
6215.45449,0.12507
6217.38296,0.14622
6219.31143,0.14860
6221.23989,0.13615
6223.16836,0.13198
6225.09683,0.08917
6227.02530,0.02587
6228.95377,0.00760
6230.88224,0.03281
6232.81071,0.07303
6234.73918,0.09007
6236.66764,0.10279
6238.59611,0.14369
6240.52458,0.16135
6242.45305,0.11496
6244.38152,0.07737
6246.30999,0.10193
6248.23846,0.12649
6250.16692,0.10796
6252.09539,0.05675
6254.02386,0.00669
6255.95233,0.02333
6257.88080,0.09399
6259.80927,0.12724
6261.73774,0.10666
6263.66621,0.07869
6265.59467,0.06578
6267.52314,0.04806
6269.45161,0.02119
6271.38008,0.00666
6273.30855,0.04411
6275.23702,0.13755
6277.16549,0.16265
6279.09395,0.07252
6281.02242,0.01671
6282.95089,0.07273
6284.87936,0.12375
6286.80783,0.09701
6288.73630,0.05440
6290.66477,0.05114
6292.59323,0.09526
6294.52170,0.14199
6296.45017,0.13940
6298.37864,0.09467
6300.30711,0.04911
6302.23558,0.03570
6304.16405,0.04918
6306.09252,0.07441
6308.02098,0.10039
6309.94945,0.10623
6311.87792,0.10297
6313.80639,0.12625
6315.73486,0.14866
6317.66333,0.10339
6319.59180,0.04500
6321.52026,0.06398
6323.44873,0.11805
6325.37720,0.15380
6327.30567,0.16342
6329.23414,0.14979
6331.16261,0.14550
6333.09108,0.15079
6335.01955,0.14757
6336.94801,0.13247
6338.87648,0.10880
6340.80495,0.09967
6342.73342,0.10229
6344.66189,0.09720
6346.59036,0.08835
6348.51883,0.08279
6350.44729,0.08139
6352.37576,0.08844
6354.30423,0.09622
6356.23270,0.07426
6358.16117,0.03735
6360.08964,0.04147
6362.01811,0.07605
6363.94658,0.10782
6365.87504,0.14582
6367.80351,0.16046
6369.73198,0.11441
6371.66045,0.08071
6373.58892,0.12647
6375.51739,0.16351
6377.44586,0.12446
6379.37432,0.08180
6381.30279,0.09933
6383.23126,0.15214
6385.15973,0.17002
6387.08820,0.14612
6389.01667,0.14887
6390.94514,0.17129
6392.87361,0.13852
6394.80207,0.08132
6396.73054,0.04972
6398.65901,0.03936
6400.58748,0.05116
6402.51595,0.05425
6404.44442,0.04698
6406.37289,0.06894
6408.30135,0.11484
6410.22982,0.12610
6412.15829,0.09177
6414.08676,0.05641
6416.01523,0.03049
6417.94370,0.02133
6419.87217,0.04937
6421.80064,0.09635
6423.72910,0.10705
6425.65757,0.06069
6427.58604,-0.00208
6429.51451,-0.03305
6431.44298,0.01678
6433.37145,0.06544
6435.29992,0.01459
6437.22838,-0.03874
6439.15685,-0.00003
6441.08532,0.04691
6443.01379,0.02394
6444.94226,-0.02021
6446.87073,-0.01684
6448.79920,0.01695
6450.72766,0.05391
6452.65613,0.10197
6454.58460,0.11902
6456.51307,0.08961
6458.44154,0.10764
6460.37001,0.15981
6462.29848,0.16555
6464.22695,0.14318
6466.15541,0.13071
6468.08388,0.12427
6470.01235,0.10453
6471.94082,0.09783
6473.86929,0.10303
6475.79776,0.07976
6477.72623,0.02283
6479.65469,-0.03562
6481.58316,-0.03702
6483.51163,-0.00910
6485.44010,0.00196
6487.36857,0.04734
6489.29704,0.11895
6491.22551,0.13070
6493.15398,0.09918
6495.08244,0.09875
6497.01091,0.10300
6498.93938,0.07789
6500.86785,0.06849
6502.79632,0.10642
6504.72479,0.11622
6506.65326,0.05433
6508.58172,-0.02241
6510.51019,-0.06149
6512.43866,-0.05628
6514.36713,-0.02368
6516.29560,0.00122
6518.22407,0.02537
6520.15254,0.07222
6522.08101,0.09879
6524.00947,0.08002
6525.93794,0.05459
6527.86641,0.03095
6529.79488,0.00738
6531.72335,0.01365
6533.65182,0.04907
6535.58029,0.06587
6537.50875,0.05057
6539.43722,0.04071
6541.36569,0.04748
6543.29416,0.05190
6545.22263,0.03744
6547.15110,0.03236
6549.07957,0.08276
6551.00804,0.15550
6552.93650,0.18023
6554.86497,0.15856
6556.79344,0.13571
6558.72191,0.11559
6560.65038,0.07440
6562.57885,0.07940
6564.50732,0.18027
6566.43578,0.25734
6568.36425,0.20269
6570.29272,0.10490
6572.22119,0.08555
6574.14966,0.10015
6576.07813,0.05085
6578.00660,-0.02307
6579.93507,-0.01103
6581.86353,0.06750
6583.79200,0.12165
6585.72047,0.15093
6587.64894,0.15715
6589.57741,0.13636
6591.50588,0.13072
6593.43435,0.12755
6595.36281,0.08197
6597.29128,0.02722
6599.21975,0.02131
6601.14822,0.06569
6603.07669,0.09971
6605.00516,0.09047
6606.93363,0.05984
6608.86210,0.06430
6610.79056,0.10335
6612.71903,0.11874
6614.64750,0.12239
6616.57597,0.13138
6618.50444,0.12593
6620.43291,0.10753
6622.36138,0.06885
6624.28984,0.01123
6626.21831,-0.03577
6628.14678,-0.06567
6630.07525,-0.07958
6632.00372,-0.01973
6633.93219,0.10214
6635.86066,0.16001
6637.78912,0.10489
6639.71759,0.03808
6641.64606,0.03529
6643.57453,0.09744
6645.50300,0.18681
6647.43147,0.23612
6649.35994,0.18194
6651.28841,0.06440
6653.21687,0.01615
6655.14534,0.07984
6657.07381,0.10661
6659.00228,0.04890
6660.93075,0.04174
6662.85922,0.09854
6664.78769,0.14927
6666.71615,0.13520
6668.64462,0.04782
6670.57309,-0.05871
6672.50156,-0.12350
6674.43003,-0.10633
6676.35850,-0.04957
6678.28697,-0.02376
6680.21544,-0.03007
6682.14390,-0.05329
6684.07237,-0.08470
6686.00084,-0.12603
6687.92931,-0.18030
6689.85778,-0.18048
6691.78625,-0.12306
6693.71472,-0.05708
6695.64318,0.01201
6697.57165,0.06806
6699.50012,0.06959
6701.42859,-0.03402
6703.35706,-0.13268
6705.28553,-0.09022
6707.21400,-0.04914
6709.14247,-0.08454
6711.07093,-0.04016
6712.99940,0.05884
6714.92787,0.07587
6716.85634,0.01896
6718.78481,0.00974
6720.71328,0.11926
6722.64175,0.24204
6724.57021,0.24134
6726.49868,0.18039
6728.42715,0.14469
6730.35562,0.11389
6732.28409,0.07701
6734.21256,0.06750
6736.14103,0.12874
6738.06950,0.20707
6739.99796,0.19932
6741.92643,0.11221
6743.85490,0.04194
6745.78337,0.03891
6747.71184,0.06374
6749.64031,0.05910
6751.56878,0.04255
6753.49724,0.03973
6755.42571,0.07817
6757.35418,0.15467
6759.28265,0.17865
6761.21112,0.09261
6763.13959,-0.00169
6765.06806,-0.08160
6766.99653,-0.18196
6768.92499,-0.20246
6770.85346,-0.10736
6772.78193,-0.03226
6774.71040,-0.02603
6776.63887,0.00649
6778.56734,0.08779
6780.49581,0.12132
6782.42427,0.05340
6784.35274,-0.01847
6786.28121,0.02442
6788.20968,0.10764
6790.13815,0.11785
6792.06662,0.07123
6793.99509,-0.00490
6795.92355,-0.08627
6797.85202,-0.10881
6799.78049,-0.03222
6801.70896,0.05741
6803.63743,0.03460
6805.56590,-0.04258
6807.49437,-0.06601
6809.42284,-0.03890
6811.35130,0.02787
6813.27977,0.07375
6815.20824,0.01680
6817.13671,-0.07905
6819.06518,-0.09115
6820.99365,0.00027
6822.92212,0.10594
6824.85058,0.13608
6826.77905,0.12958
6828.70752,0.11763
6830.63599,0.12747
6832.56446,0.11817
6834.49293,0.04751
6836.42140,-0.00315
6838.34987,0.03780
6840.27833,0.08502
6842.20680,0.06680
6844.13527,0.04845
6846.06374,0.08155
6847.99221,0.14040
6849.92068,0.16905
6851.84915,0.12449
6853.77761,0.09248
6855.70608,0.19165
6857.63455,0.29925
6859.56302,0.25576
6861.49149,0.13417
6863.41996,0.02282
6865.34843,-0.04257
6867.27690,-0.02922
6869.20536,0.00318
6871.13383,0.01767
6873.06230,0.04245
6874.99077,0.08467
6876.91924,0.15167
6878.84771,0.22930
6880.77618,0.25174
6882.70464,0.18248
6884.63311,0.10849
6886.56158,0.06477
6888.49005,0.02405
6890.41852,0.05401
6892.34699,0.12158
6894.27546,0.11219
6896.20393,0.06379
6898.13239,0.05746
6900.06086,0.13862
6901.98933,0.21302
6903.91780,0.13839
6905.84627,0.00159
6907.77474,-0.05048
6909.70321,-0.09520
6911.63167,-0.14067
6913.56014,-0.08692
6915.48861,0.03696
6917.41708,0.12304
6919.34555,0.14382
6921.27402,0.14088
6923.20249,0.14539
6925.13096,0.13718
6927.05942,0.08758
6928.98789,-0.01997
6930.91636,-0.10854
6932.84483,-0.01397
6934.77330,0.16871
6936.70177,0.22554
6938.63024,0.14580
6940.55870,0.03722
6942.48717,0.02091
6944.41564,0.09593
6946.34411,0.16275
6948.27258,0.12355
6950.20105,0.00570
6952.12952,-0.08111
6954.05799,-0.05630
6955.98645,0.01223
6957.91492,0.02889
6959.84339,0.07332
6961.77186,0.15762
6963.70033,0.18906
6965.62880,0.14983
6967.55727,0.06134
6969.48573,-0.03700
6971.41420,-0.06431
6973.34267,0.04364
6975.27114,0.20525
6977.19961,0.26396
6979.12808,0.26221
6981.05655,0.26138
6982.98501,0.18121
6984.91348,0.04806
6986.84195,0.02833
6988.77042,0.09110
6990.69889,0.08347
6992.62736,0.02354
6994.55583,0.01336
6996.48430,0.06176
6998.41276,0.08291
7000.34123,0.05058
7002.26970,0.04908
7004.19817,0.09252
7006.12664,0.10094
7008.05511,0.05582
7009.98358,0.05459
7011.91204,0.09140
7013.84051,0.10497
7015.76898,0.12697
7017.69745,0.12756
7019.62592,0.06523
7021.55439,0.05734
7023.48286,0.16312
7025.41133,0.18932
7027.33979,-0.00995
7029.26826,-0.20769
7031.19673,-0.11660
7033.12520,0.16148
7035.05367,0.38922
7036.98214,0.37482
7038.91061,0.20424
7040.83907,0.07868
7042.76754,0.03019
7044.69601,-0.03512
7046.62448,-0.02691
7048.55295,0.02338
7050.48142,0.03670
7052.40989,0.11105
7054.33836,0.18027
7056.26682,0.13520
7058.19529,0.04138
7060.12376,-0.04423
7062.05223,-0.09502
7063.98070,-0.03413
7065.90917,0.06006
7067.83764,0.02023
7069.76610,-0.08024
7071.69457,-0.03072
7073.62304,0.08110
7075.55151,0.14518
7077.47998,0.21467
7079.40845,0.25387
7081.33692,0.23372
7083.26539,0.18900
7085.19385,0.09919
7087.12232,-0.01546
7089.05079,-0.02574
7090.97926,0.09860
7092.90773,0.17456
7094.83620,0.11737
7096.76467,0.03630
7098.69313,0.00111
7100.62160,0.03272
7102.55007,0.10391
7104.47854,0.16247
7106.40701,0.19031
7108.33548,0.17664
7110.26395,0.09682
7112.19242,-0.00598
7114.12088,-0.06062
7116.04935,-0.05680
7117.97782,0.00995
7119.90629,0.05126
7121.83476,0.08543
7123.76323,0.18833
7125.69170,0.21579
7127.62016,0.08609
7129.54863,-0.03399
7131.47710,-0.00430
7133.40557,0.07588
7135.33404,0.04570
7137.26251,0.02803
7139.19098,0.13758
7141.11944,0.13916
7143.04791,-0.06283
7144.97638,-0.14507
7146.90485,0.01562
7148.83332,0.07120
7150.76179,-0.00823
7152.69026,-0.03343
7154.61873,-0.06573
7156.54719,-0.11589
7158.47566,-0.11738
7160.40413,-0.12675
7162.33260,-0.07682
7164.26107,0.08493
7166.18954,0.21869
7168.11801,0.25002
7170.04647,0.27556
7171.97494,0.30488
7173.90341,0.27040
7175.83188,0.20909
7177.76035,0.16512
7179.68882,0.05874
7181.61729,-0.07509
7183.54576,0.00193
7185.47422,0.20379
7187.40269,0.24979
7189.33116,0.13560
7191.25963,0.01645
7193.18810,0.06299
7195.11657,0.18207
7197.04504,0.17255
7198.97350,0.06957
7200.90197,0.03193
7202.83044,0.05966
7204.75891,0.17054
7206.68738,0.33995
7208.61585,0.34928
7210.54432,0.23285
7212.47279,0.18585
7214.40125,0.25137
7216.32972,0.29726
7218.25819,0.19478
7220.18666,0.07466
7222.11513,0.12671
7224.04360,0.29786
7225.97207,0.35365
7227.90053,0.19126
7229.82900,-0.00148
7231.75747,-0.12324
7233.68594,-0.22039
7235.61441,-0.21956
7237.54288,-0.08113
7239.47135,0.02447
7241.39982,0.03542
7243.32828,0.02151
7245.25675,0.00443
7247.18522,-0.00027
7249.11369,0.02895
7251.04216,0.05957
7252.97063,0.06978
7254.89910,0.10435
7256.82756,0.13923
7258.75603,0.16761
7260.68450,0.16771
7262.61297,0.12136
7264.54144,0.03375
7266.46991,-0.10673
7268.39838,-0.20304
7270.32685,-0.25536
7272.25531,-0.23301
7274.18378,-0.01724
7276.11225,0.17551
7278.04072,0.24998
7279.96919,0.27691
7281.89766,0.26118
7283.82613,0.25539
7285.75459,0.30372
7287.68306,0.30889
7289.61153,0.18513
7291.54000,0.00353
7293.46847,-0.06227
7295.39694,-0.00007
7297.32541,0.04214
7299.25387,0.02611
7301.18234,-0.02071
7303.11081,-0.13767
7305.03928,-0.22577
7306.96775,-0.07933
7308.89622,0.21081
7310.82469,0.29980
7312.75316,0.21407
7314.68162,0.07264
7316.61009,-0.11157
7318.53856,-0.20154
7320.46703,-0.16685
7322.39550,-0.08605
7324.32397,0.08548
7326.25244,0.28006
7328.18090,0.33464
7330.10937,0.21830
7332.03784,0.04436
7333.96631,-0.07971
7335.89478,-0.06042
7337.82325,0.16124
7339.75172,0.54259
7341.68019,0.56302
7343.60865,0.23134
7345.53712,-0.04597
7347.46559,-0.18427
7349.39406,-0.23839
7351.32253,-0.20644
7353.25100,-0.06095
7355.17947,0.04481
7357.10793,0.00082
7359.03640,-0.06621
7360.96487,-0.08220
7362.89334,-0.09344
7364.82181,-0.11791
7366.75028,-0.13746
7368.67875,-0.04740
7370.60722,0.08840
7372.53568,0.15629
7374.46415,0.27635
7376.39262,0.49144
7378.32109,0.50689
7380.24956,0.31333
7382.17803,0.13659
7384.10650,0.19603
7386.03496,0.38587
7387.96343,0.34388
7389.89190,0.17918
7391.82037,0.23344
7393.74884,0.35699
7395.67731,0.32057
7397.60578,0.23449
7399.53425,0.18869
7401.46271,0.15142
7403.39118,0.03350
7405.31965,-0.17407
7407.24812,-0.23537
7409.17659,-0.13233
7411.10506,-0.05181
7413.03353,0.00970
7414.96199,0.12468
7416.89046,0.23381
7418.81893,0.14915
7420.74740,-0.05987
7422.67587,-0.01694
7424.60434,0.15486
7426.53281,0.25694
7428.46128,0.27864
7430.38974,0.22325
7432.31821,0.17198
7434.24668,0.14676
7436.17515,0.10355
7438.10362,0.06459
7440.03209,0.04459
7441.96056,0.05458
7443.88902,0.15294
7445.81749,0.27026
7447.74596,0.21646
7449.67443,0.06856
7451.60290,0.06388
7453.53137,0.09254
7455.45984,0.05329
7457.38831,0.03830
7459.31677,0.03676
7461.24524,0.07690
7463.17371,0.20415
7465.10218,0.31790
7467.03065,0.38530
7468.95912,0.38032
7470.88759,0.28581
7472.81605,0.15997
7474.74452,0.07664
7476.67299,0.09795
7478.60146,0.06811
7480.52993,-0.16769
7482.45840,-0.29865
7484.38687,-0.09165
7486.31533,0.15742
7488.24380,0.18810
7490.17227,0.16679
7492.10074,0.18114
7494.02921,0.13538
7495.95768,0.11069
7497.88615,0.12398
