399.19301,0.20013
401.12148,0.12188
403.04995,0.33251
404.97842,0.22825
406.90689,0.07003
408.83536,0.09601
410.76382,0.15621
412.69229,0.11770
414.62076,0.03786
416.54923,0.01422
418.47770,0.12286
420.40617,0.20145
422.33464,0.12476
424.26311,-0.02700
426.19157,-0.08603
428.12004,0.03392
430.04851,0.10563
431.97698,-0.02476
433.90545,-0.07513
435.83392,0.02329
437.76239,0.11170
439.69085,0.16454
441.61932,0.17867
443.54779,0.10674
445.47626,0.05345
447.40473,0.08646
449.33320,0.10362
451.26167,0.06747
453.19013,0.04371
455.11860,0.06597
457.04707,0.08398
458.97554,0.09234
460.90401,0.12629
462.83248,0.11421
464.76095,0.06257
466.68942,0.07170
468.61788,0.08370
470.54635,0.02650
472.47482,0.01050
474.40329,0.10566
476.33176,0.11855
478.26023,0.09651
480.18870,0.10382
482.11716,0.11847
484.04563,0.12282
485.97410,0.11260
487.90257,0.09269
489.83104,0.07944
491.75951,0.06980
493.68798,0.06526
495.61645,0.09174
497.54491,0.12221
499.47338,0.11914
501.40185,0.12585
503.33032,0.16783
505.25879,0.18811
507.18726,0.15044
509.11573,0.09789
511.04419,0.08776
512.97266,0.10593
514.90113,0.11688
516.82960,0.11799
518.75807,0.10411
520.68654,0.09891
522.61501,0.12906
524.54348,0.14272
526.47194,0.11920
528.40041,0.11740
530.32888,0.13432
532.25735,0.13874
534.18582,0.14523
536.11429,0.18234
538.04276,0.22221
539.97122,0.21837
541.89969,0.16537
543.82816,0.09844
545.75663,0.07970
547.68510,0.09498
549.61357,0.08681
551.54204,0.04024
553.47051,0.00829
555.39897,0.06765
557.32744,0.16113
559.25591,0.18975
561.18438,0.17633
563.11285,0.16009
565.04132,0.14456
566.96979,0.13534
568.89825,0.12407
570.82672,0.09586
572.75519,0.07338
574.68366,0.08236
576.61213,0.11565
578.54060,0.14171
580.46907,0.12782
582.39754,0.08744
584.32600,0.08543
586.25447,0.14121
588.18294,0.17339
590.11141,0.13788
592.03988,0.09795
593.96835,0.08662
595.89682,0.08820
597.82528,0.09625
599.75375,0.08926
601.68222,0.07545
603.61069,0.09189
605.53916,0.12417
607.46763,0.12810
609.39610,0.09453
611.32456,0.06699
613.25303,0.08128
615.18150,0.10992
617.10997,0.12255
619.03844,0.12193
620.96691,0.11421
622.89538,0.11193
624.82385,0.12618
626.75231,0.13869
628.68078,0.12610
630.60925,0.10477
632.53772,0.10060
634.46619,0.11035
636.39466,0.12107
638.32313,0.12912
640.25159,0.13164
642.18006,0.13299
644.10853,0.14200
646.03700,0.14580
647.96547,0.13902
649.89394,0.13399
651.82241,0.13011
653.75088,0.13147
655.67934,0.13480
657.60781,0.12908
659.53628,0.12059
661.46475,0.12018
663.39322,0.13106
665.32169,0.14742
667.25016,0.16278
669.17862,0.16150
671.10709,0.15337
673.03556,0.15215
674.96403,0.14576
676.89250,0.13176
678.82097,0.12344
680.74944,0.12720
682.67791,0.13037
684.60637,0.12723
686.53484,0.12396
688.46331,0.12104
690.39178,0.12362
692.32025,0.13688
694.24872,0.14556
696.17719,0.14103
698.10565,0.13615
700.03412,0.13204
701.96259,0.12272
703.89106,0.11926
705.81953,0.12777
707.74800,0.13321
709.67647,0.15505
711.60494,0.19550
713.53340,0.18628
715.46187,0.14118
717.39034,0.12794
719.31881,0.13804
721.24728,0.14923
723.17575,0.15220
725.10422,0.14411
727.03268,0.13553
728.96115,0.13531
730.88962,0.14251
732.81809,0.14677
734.74656,0.14708
736.67503,0.15164
738.60350,0.14887
740.53197,0.13159
742.46043,0.13027
744.38890,0.14551
746.31737,0.14151
748.24584,0.12513
750.17431,0.11526
752.10278,0.10712
754.03125,0.10508
755.95971,0.11745
757.88818,0.13319
759.81665,0.13971
761.74512,0.13697
763.67359,0.13045
765.60206,0.12905
767.53053,0.13516
769.45900,0.14704
771.38746,0.15995
773.31593,0.16261
775.24440,0.15452
777.17287,0.14800
779.10134,0.15164
781.02981,0.15748
782.95828,0.15079
784.88674,0.13024
786.81521,0.11244
788.74368,0.11469
790.67215,0.12934
792.60062,0.13867
794.52909,0.14098
796.45756,0.14334
798.38602,0.14724
800.31449,0.15120
802.24296,0.15057
804.17143,0.14501
806.09990,0.13980
808.02837,0.13372
809.95684,0.13627
811.88531,0.15357
813.81377,0.16191
815.74224,0.14892
817.67071,0.13185
819.59918,0.12144
821.52765,0.12637
823.45612,0.14780
825.38459,0.15594
827.31305,0.14431
829.24152,0.14339
831.16999,0.15434
833.09846,0.15599
835.02693,0.14783
836.95540,0.14002
838.88387,0.13013
840.81234,0.12049
842.74080,0.11753
844.66927,0.11898
846.59774,0.12326
848.52621,0.12590
850.45468,0.12298
852.38315,0.12345
854.31162,0.13507
856.24008,0.15031
858.16855,0.15388
860.09702,0.14155
862.02549,0.12660
863.95396,0.12051
865.88243,0.11459
867.81090,0.08556
869.73937,0.05770
871.66783,0.08789
873.59630,0.14423
875.52477,0.15885
877.45324,0.14373
879.38171,0.14048
881.31018,0.15102
883.23865,0.15229
885.16711,0.14211
887.09558,0.13705
889.02405,0.13593
890.95252,0.12911
892.88099,0.12522
894.80946,0.13173
896.73793,0.14058
898.66640,0.14808
900.59486,0.15234
902.52333,0.14980
904.45180,0.14546
906.38027,0.14498
908.30874,0.15032
910.23721,0.16077
912.16568,0.16705
914.09414,0.16027
916.02261,0.14569
917.95108,0.13829
919.87955,0.14457
921.80802,0.15420
923.73649,0.15852
925.66496,0.15957
927.59343,0.15780
929.52189,0.15028
931.45036,0.14085
933.37883,0.13912
935.30730,0.14459
937.23577,0.14975
939.16424,0.15354
941.09271,0.15374
943.02117,0.14775
944.94964,0.14323
946.87811,0.14517
948.80658,0.14492
950.73505,0.13974
952.66352,0.14077
954.59199,0.15126
956.52045,0.15927
958.44892,0.15581
960.37739,0.14648
962.30586,0.14451
964.23433,0.14867
966.16280,0.15013
968.09127,0.15459
970.01974,0.16087
971.94820,0.15740
973.87667,0.15074
975.80514,0.14993
977.73361,0.15142
979.66208,0.15116
981.59055,0.14519
983.51902,0.13824
985.44748,0.13990
987.37595,0.14667
989.30442,0.15217
991.23289,0.15634
993.16136,0.15455
995.08983,0.14332
997.01830,0.13378
998.94677,0.13615
1000.87523,0.14478
1002.80370,0.15156
1004.73217,0.15519
1006.66064,0.15309
1008.58911,0.14784
1010.51758,0.14952
1012.44605,0.15687
1014.37451,0.16243
1016.30298,0.16642
1018.23145,0.16895
1020.15992,0.16882
1022.08839,0.17048
1024.01686,0.17168
1025.94533,0.16702
1027.87380,0.16199
1029.80226,0.15732
1031.73073,0.15377
1033.65920,0.15579
1035.58767,0.15709
1037.51614,0.15209
1039.44461,0.14693
1041.37308,0.14736
1043.30154,0.14958
1045.23001,0.15254
1047.15848,0.15618
1049.08695,0.15667
1051.01542,0.15537
1052.94389,0.15484
1054.87236,0.15476
1056.80083,0.15597
1058.72929,0.16238
1060.65776,0.17000
1062.58623,0.17401
1064.51470,0.17805
1066.44317,0.17774
1068.37164,0.17362
1070.30011,0.17466
1072.22857,0.17627
1074.15704,0.17262
1076.08551,0.16817
1078.01398,0.17026
1079.94245,0.17725
1081.87092,0.17895
1083.79939,0.17549
1085.72786,0.16806
1087.65632,0.15464
1089.58479,0.14840
1091.51326,0.16035
1093.44173,0.17450
1095.37020,0.17206
1097.29867,0.15995
1099.22714,0.15217
1101.15560,0.15283
1103.08407,0.15626
1105.01254,0.15521
1106.94101,0.15757
1108.86948,0.16484
1110.79795,0.16581
1112.72642,0.16463
1114.65489,0.16726
1116.58335,0.16331
1118.51182,0.15361
1120.44029,0.14905
1122.36876,0.14659
1124.29723,0.14623
1126.22570,0.15045
1128.15417,0.15433
1130.08263,0.15484
1132.01110,0.15212
1133.93957,0.15149
1135.86804,0.15523
1137.79651,0.15860
1139.72498,0.16053
1141.65345,0.16267
1143.58191,0.16433
1145.51038,0.16662
1147.43885,0.16912
1149.36732,0.16735
1151.29579,0.16487
1153.22426,0.16730
1155.15273,0.17294
1157.08120,0.17834
1159.00966,0.17991
1160.93813,0.17732
1162.86660,0.17272
1164.79507,0.16920
1166.72354,0.16994
1168.65201,0.16999
1170.58048,0.16550
1172.50894,0.16085
1174.43741,0.15785
1176.36588,0.15920
1178.29435,0.16654
1180.22282,0.17281
1182.15129,0.17516
1184.07976,0.17595
1186.00823,0.17378
1187.93669,0.17153
1189.86516,0.17227
1191.79363,0.17078
1193.72210,0.16614
1195.65057,0.16483
1197.57904,0.16821
1199.50751,0.16957
1201.43597,0.16847
1203.36444,0.17128
1205.29291,0.17499
1207.22138,0.17311
1209.14985,0.16723
1211.07832,0.16334
1213.00679,0.16440
1214.93526,0.16728
1216.86372,0.16883
1218.79219,0.16971
1220.72066,0.17075
1222.64913,0.17215
1224.57760,0.17449
1226.50607,0.17646
1228.43454,0.17631
1230.36300,0.17349
1232.29147,0.16863
1234.21994,0.16433
1236.14841,0.16213
1238.07688,0.16024
1240.00535,0.15807
1241.93382,0.15844
1243.86229,0.15760
1245.79075,0.15220
1247.71922,0.15156
1249.64769,0.15766
1251.57616,0.15878
1253.50463,0.15365
1255.43310,0.15255
1257.36157,0.15486
1259.29003,0.15132
1261.21850,0.14505
1263.14697,0.14485
1265.07544,0.14683
1267.00391,0.14652
1268.93238,0.14784
1270.86085,0.15293
1272.78932,0.15963
1274.71778,0.16294
1276.64625,0.16192
1278.57472,0.15905
1280.50319,0.15193
1282.43166,0.14613
1284.36013,0.15140
1286.28860,0.15673
1288.21706,0.15325
1290.14553,0.15229
1292.07400,0.15557
1294.00247,0.15607
1295.93094,0.15251
1297.85941,0.14449
1299.78788,0.12962
1301.71634,0.10372
1303.64481,0.08071
1305.57328,0.09217
1307.50175,0.13328
1309.43022,0.16190
1311.35869,0.16613
1313.28716,0.16291
1315.21563,0.16214
1317.14409,0.16835
1319.07256,0.17291
1321.00103,0.16698
1322.92950,0.16207
1324.85797,0.15871
1326.78644,0.15173
1328.71491,0.14911
1330.64337,0.14535
1332.57184,0.14133
1334.50031,0.14618
1336.42878,0.15044
1338.35725,0.15281
1340.28572,0.14895
1342.21419,0.14029
1344.14266,0.14135
1346.07112,0.14160
1347.99959,0.14003
1349.92806,0.14371
1351.85653,0.14530
1353.78500,0.14696
1355.71347,0.15096
1357.64194,0.15529
1359.57040,0.16192
1361.49887,0.16920
1363.42734,0.17142
1365.35581,0.16958
1367.28428,0.16834
1369.21275,0.16756
1371.14122,0.16887
1373.06969,0.17244
1374.99815,0.17464
1376.92662,0.17451
1378.85509,0.17272
1380.78356,0.16975
1382.71203,0.16955
1384.64050,0.17479
1386.56897,0.18146
1388.49743,0.18351
1390.42590,0.18146
1392.35437,0.18082
1394.28284,0.18426
1396.21131,0.18983
1398.13978,0.19403
1400.06825,0.19222
1401.99672,0.18665
1403.92518,0.18327
1405.85365,0.18117
1407.78212,0.17938
1409.71059,0.17993
1411.63906,0.18111
1413.56753,0.18222
1415.49600,0.18780
1417.42446,0.19695
1419.35293,0.20034
1421.28140,0.19838
1423.20987,0.19660
1425.13834,0.19137
1427.06681,0.18578
1428.99528,0.18684
1430.92375,0.19101
1432.85221,0.19200
1434.78068,0.19145
1436.70915,0.18838
1438.63762,0.18533
1440.56609,0.18596
1442.49456,0.18590
1444.42303,0.18463
1446.35149,0.18470
1448.27996,0.18506
1450.20843,0.18535
1452.13690,0.18890
1454.06537,0.20047
1455.99384,0.22167
1457.92231,0.22477
1459.85077,0.20177
1461.77924,0.19064
1463.70771,0.19256
1465.63618,0.19486
1467.56465,0.19310
1469.49312,0.19729
1471.42159,0.20984
1473.35006,0.21379
1475.27852,0.20465
1477.20699,0.20087
1479.13546,0.19938
1481.06393,0.19590
1482.99240,0.19331
1484.92087,0.19387
1486.84934,0.19841
1488.77780,0.20417
1490.70627,0.19970
1492.63474,0.19168
1494.56321,0.19501
1496.49168,0.20703
1498.42015,0.21045
1500.34862,0.20599
1502.27709,0.20816
1504.20555,0.22220
1506.13402,0.24490
1508.06249,0.23849
1509.99096,0.21209
1511.91943,0.19795
1513.84790,0.19917
1515.77637,0.20889
1517.70483,0.21310
1519.63330,0.21611
1521.56177,0.22322
1523.49024,0.22010
1525.41871,0.21117
1527.34718,0.20175
1529.27565,0.19573
1531.20412,0.19884
1533.13258,0.20608
1535.06105,0.20889
1536.98952,0.21737
1538.91799,0.24138
1540.84646,0.25511
1542.77493,0.23496
1544.70340,0.21391
1546.63186,0.19937
1548.56033,0.19721
1550.48880,0.20428
1552.41727,0.20962
1554.34574,0.21406
1556.27421,0.22295
1558.20268,0.23045
1560.13115,0.21471
1562.05961,0.20106
1563.98808,0.19765
1565.91655,0.19874
1567.84502,0.20145
1569.77349,0.19776
1571.70196,0.18854
1573.63043,0.18542
1575.55889,0.18674
1577.48736,0.18580
1579.41583,0.18424
1581.34430,0.18338
1583.27277,0.18188
1585.20124,0.18131
1587.12971,0.18183
1589.05818,0.18285
1590.98664,0.18502
1592.91511,0.18528
1594.84358,0.18172
1596.77205,0.17812
1598.70052,0.17689
1600.62899,0.17806
1602.55746,0.18121
1604.48592,0.18345
1606.41439,0.18599
1608.34286,0.19009
1610.27133,0.18999
1612.19980,0.18741
1614.12827,0.19072
1616.05674,0.19785
1617.98521,0.19512
1619.91367,0.19099
1621.84214,0.19585
1623.77061,0.20282
1625.69908,0.20616
1627.62755,0.20605
1629.55602,0.20105
1631.48449,0.19909
1633.41295,0.20608
1635.34142,0.21729
1637.26989,0.21552
1639.19836,0.20491
1641.12683,0.19795
1643.05530,0.19833
1644.98377,0.20597
1646.91223,0.21274
1648.84070,0.21082
1650.76917,0.21320
1652.69764,0.22719
1654.62611,0.22737
1656.55458,0.20718
1658.48305,0.18639
1660.41152,0.17470
1662.33998,0.18157
1664.26845,0.19324
1666.19692,0.19621
1668.12539,0.20265
1670.05386,0.21327
1671.98233,0.21572
1673.91080,0.21776
1675.83926,0.21742
1677.76773,0.21214
1679.69620,0.21171
1681.62467,0.21694
1683.55314,0.21924
1685.48161,0.21010
1687.41008,0.20568
1689.33855,0.20734
1691.26701,0.20428
1693.19548,0.19856
1695.12395,0.20206
1697.05242,0.22066
1698.98089,0.23754
1700.90936,0.23054
1702.83783,0.21543
1704.76629,0.21099
1706.69476,0.20817
1708.62323,0.20203
1710.55170,0.19886
1712.48017,0.20005
1714.40864,0.20486
1716.33711,0.21229
1718.26558,0.20906
1720.19404,0.19759
1722.12251,0.19265
1724.05098,0.19362
1725.97945,0.19516
1727.90792,0.19676
1729.83639,0.20099
1731.76486,0.20955
1733.69332,0.21796
1735.62179,0.21222
1737.55026,0.20341
1739.47873,0.20050
1741.40720,0.20118
1743.33567,0.20226
1745.26414,0.20320
1747.19261,0.20717
1749.12107,0.21334
1751.04954,0.20912
1752.97801,0.19537
1754.90648,0.18701
1756.83495,0.18769
1758.76342,0.19336
1760.69189,0.19829
1762.62035,0.19814
1764.54882,0.19529
1766.47729,0.19477
1768.40576,0.19806
1770.33423,0.20599
1772.26270,0.21153
1774.19117,0.20546
1776.11964,0.19816
1778.04810,0.19627
1779.97657,0.19653
1781.90504,0.19424
1783.83351,0.19065
1785.76198,0.18983
1787.69045,0.19274
1789.61892,0.19833
1791.54738,0.20170
1793.47585,0.19798
1795.40432,0.19409
1797.33279,0.19323
1799.26126,0.19453
1801.18973,0.19690
1803.11820,0.19626
1805.04666,0.19350
1806.97513,0.19329
1808.90360,0.19562
1810.83207,0.19511
1812.76054,0.18967
1814.68901,0.18938
1816.61748,0.20167
1818.54595,0.21390
1820.47441,0.21176
1822.40288,0.20325
1824.33135,0.19861
1826.25982,0.19699
1828.18829,0.19777
1830.11676,0.19772
1832.04523,0.19271
1833.97369,0.19016
1835.90216,0.19411
1837.83063,0.19886
1839.75910,0.19976
1841.68757,0.20037
1843.61604,0.20116
1845.54451,0.19792
1847.47298,0.19428
1849.40144,0.19188
1851.32991,0.18895
1853.25838,0.18671
1855.18685,0.18705
1857.11532,0.18941
1859.04379,0.19003
1860.97226,0.18835
1862.90072,0.18969
1864.82919,0.19594
1866.75766,0.20195
1868.68613,0.20154
1870.61460,0.19589
1872.54307,0.19141
1874.47154,0.18915
1876.40001,0.18806
1878.32847,0.18700
1880.25694,0.18488
1882.18541,0.18377
1884.11388,0.18585
1886.04235,0.18952
1887.97082,0.19235
1889.89929,0.19324
1891.82775,0.19383
1893.75622,0.19525
1895.68469,0.19483
1897.61316,0.19193
1899.54163,0.18935
1901.47010,0.18869
1903.39857,0.18961
1905.32704,0.19190
1907.25550,0.19667
1909.18397,0.20039
1911.11244,0.19680
1913.04091,0.19001
1914.96938,0.18855
1916.89785,0.19190
1918.82632,0.19348
1920.75478,0.19358
1922.68325,0.19442
1924.61172,0.19338
1926.54019,0.19132
1928.46866,0.19034
1930.39713,0.19067
1932.32560,0.19184
1934.25407,0.19240
1936.18253,0.19308
1938.11100,0.19506
1940.03947,0.19755
1941.96794,0.19852
1943.89641,0.19559
1945.82488,0.19093
1947.75335,0.18927
1949.68181,0.19048
1951.61028,0.19128
1953.53875,0.19068
1955.46722,0.19001
1957.39569,0.19147
1959.32416,0.19504
1961.25263,0.19750
1963.18110,0.19736
1965.10956,0.19560
1967.03803,0.19313
1968.96650,0.19107
1970.89497,0.19048
1972.82344,0.19135
1974.75191,0.19253
1976.68038,0.19287
1978.60884,0.19287
1980.53731,0.19305
1982.46578,0.19145
1984.39425,0.18878
1986.32272,0.18796
1988.25119,0.18775
1990.17966,0.18787
1992.10812,0.19044
1994.03659,0.19242
1995.96506,0.19159
1997.89353,0.19179
1999.82200,0.19360
2001.75047,0.19407
2003.67894,0.19273
2005.60741,0.18999
2007.53587,0.18769
2009.46434,0.18784
2011.39281,0.19010
2013.32128,0.19246
2015.24975,0.19224
2017.17822,0.19025
2019.10669,0.19010
2021.03515,0.19158
2022.96362,0.19283
2024.89209,0.19429
2026.82056,0.19495
2028.74903,0.19392
2030.67750,0.19260
2032.60597,0.19181
2034.53444,0.19082
2036.46290,0.18960
2038.39137,0.19102
2040.31984,0.19472
2042.24831,0.19608
2044.17678,0.19380
2046.10525,0.19115
2048.03372,0.19016
2049.96218,0.18880
2051.89065,0.18773
2053.81912,0.18988
2055.74759,0.19277
2057.67606,0.19268
2059.60453,0.19072
2061.53300,0.18973
2063.46147,0.18976
2065.38993,0.18844
2067.31840,0.18617
2069.24687,0.18695
2071.17534,0.19070
2073.10381,0.19316
2075.03228,0.19324
2076.96075,0.19230
2078.88921,0.18965
2080.81768,0.18607
2082.74615,0.18463
2084.67462,0.18643
2086.60309,0.18970
2088.53156,0.19154
2090.46003,0.19266
2092.38850,0.19338
2094.31696,0.19138
2096.24543,0.18927
2098.17390,0.19019
2100.10237,0.19111
2102.03084,0.18954
2103.95931,0.18924
2105.88778,0.19212
2107.81624,0.19399
2109.74471,0.19291
2111.67318,0.19086
2113.60165,0.18966
2115.53012,0.18958
2117.45859,0.19011
2119.38706,0.19127
2121.31553,0.19243
2123.24399,0.19222
2125.17246,0.19195
2127.10093,0.19307
2129.02940,0.19388
2130.95787,0.19434
2132.88634,0.19631
2134.81481,0.19824
2136.74327,0.19716
2138.67174,0.19297
2140.60021,0.18888
2142.52868,0.18814
2144.45715,0.18905
2146.38562,0.18817
2148.31409,0.18724
2150.24255,0.18998
2152.17102,0.19360
2154.09949,0.19269
2156.02796,0.18845
2157.95643,0.18609
2159.88490,0.18806
2161.81337,0.19126
2163.74184,0.19239
2165.67030,0.19291
2167.59877,0.19361
2169.52724,0.19341
2171.45571,0.19365
2173.38418,0.19517
2175.31265,0.19603
2177.24112,0.19669
2179.16958,0.19720
2181.09805,0.19506
2183.02652,0.19192
2184.95499,0.19103
2186.88346,0.19255
2188.81193,0.19489
2190.74040,0.19630
2192.66887,0.19572
2194.59733,0.19326
2196.52580,0.19155
2198.45427,0.19316
2200.38274,0.19564
2202.31121,0.19448
2204.23968,0.19167
2206.16815,0.19210
2208.09661,0.19371
2210.02508,0.19312
2211.95355,0.19243
2213.88202,0.19332
2215.81049,0.19409
2217.73896,0.19399
2219.66743,0.19314
2221.59590,0.19169
2223.52436,0.19123
2225.45283,0.19264
2227.38130,0.19468
2229.30977,0.19482
2231.23824,0.19334
2233.16671,0.19294
2235.09518,0.19209
2237.02364,0.19044
2238.95211,0.19198
2240.88058,0.19523
2242.80905,0.19546
2244.73752,0.19323
2246.66599,0.19109
2248.59446,0.18991
2250.52293,0.19027
2252.45139,0.19113
2254.37986,0.19097
2256.30833,0.19016
2258.23680,0.18939
2260.16527,0.19032
2262.09374,0.19300
2264.02221,0.19447
2265.95067,0.19392
2267.87914,0.19199
2269.80761,0.18913
2271.73608,0.18769
2273.66455,0.18943
2275.59302,0.19292
2277.52149,0.19531
2279.44996,0.19534
2281.37842,0.19356
2283.30689,0.19108
2285.23536,0.18955
2287.16383,0.19010
2289.09230,0.19313
2291.02077,0.19850
2292.94924,0.20264
2294.87770,0.20061
2296.80617,0.19255
2298.73464,0.18513
2300.66311,0.18324
2302.59158,0.18513
2304.52005,0.18829
2306.44852,0.19191
2308.37699,0.19412
2310.30545,0.19290
2312.23392,0.18884
2314.16239,0.18580
2316.09086,0.18475
2318.01933,0.17969
2319.94780,0.17030
2321.87627,0.16598
2323.80473,0.16940
2325.73320,0.17455
2327.66167,0.17885
2329.59014,0.18458
2331.51861,0.18876
2333.44708,0.18975
2335.37555,0.19261
2337.30401,0.19444
2339.23248,0.18843
2341.16095,0.17446
2343.08942,0.16283
2345.01789,0.16426
2346.94636,0.17546
2348.87483,0.18747
2350.80330,0.19460
2352.73176,0.18978
2354.66023,0.17594
2356.58870,0.17399
2358.51717,0.18499
2360.44564,0.18981
2362.37411,0.17790
2364.30258,0.15712
2366.23104,0.14880
2368.15951,0.15801
2370.08798,0.17258
2372.01645,0.18128
2373.94492,0.18171
2375.87339,0.18207
2377.80186,0.18648
2379.73033,0.18820
2381.65879,0.18686
2383.58726,0.18784
2385.51573,0.18999
2387.44420,0.19148
2389.37267,0.19308
2391.30114,0.19395
2393.22961,0.19384
2395.15807,0.19341
2397.08654,0.19260
2399.01501,0.19188
2400.94348,0.19083
2402.87195,0.19002
2404.80042,0.19126
2406.72889,0.19368
2408.65736,0.19624
2410.58582,0.19764
2412.51429,0.19699
2414.44276,0.19704
2416.37123,0.19854
2418.29970,0.19767
2420.22817,0.19261
2422.15664,0.18726
2424.08510,0.18653
2426.01357,0.18966
2427.94204,0.19151
2429.87051,0.19052
2431.79898,0.18956
2433.72745,0.18880
2435.65592,0.18739
2437.58439,0.18779
2439.51285,0.19022
2441.44132,0.19263
2443.36979,0.19331
2445.29826,0.19128
2447.22673,0.18861
2449.15520,0.18615
2451.08367,0.18371
2453.01213,0.18338
2454.94060,0.18629
2456.86907,0.19080
2458.79754,0.19425
2460.72601,0.19663
2462.65448,0.19811
2464.58295,0.19724
2466.51142,0.19523
2468.43988,0.19496
2470.36835,0.19674
2472.29682,0.19859
2474.22529,0.19890
2476.15376,0.19824
2478.08223,0.19832
2480.01070,0.19804
2481.93916,0.19571
2483.86763,0.19294
2485.79610,0.19250
2487.72457,0.19415
2489.65304,0.19479
2491.58151,0.19444
2493.50998,0.19457
2495.43844,0.19499
2497.36691,0.19558
2499.29538,0.19575
2501.22385,0.19587
2503.15232,0.19604
2505.08079,0.19532
2507.00926,0.19348
2508.93773,0.19175
2510.86619,0.19167
2512.79466,0.19242
2514.72313,0.19242
2516.65160,0.19178
2518.58007,0.19123
2520.50854,0.18988
2522.43701,0.18769
2524.36547,0.18714
2526.29394,0.18840
2528.22241,0.19016
2530.15088,0.19229
2532.07935,0.19435
2534.00782,0.19490
2535.93629,0.19367
2537.86476,0.19250
2539.79322,0.19161
2541.72169,0.19136
2543.65016,0.19393
2545.57863,0.19714
2547.50710,0.19727
2549.43557,0.19638
2551.36404,0.19770
2553.29250,0.19889
2555.22097,0.19723
2557.14944,0.19527
2559.07791,0.19506
2561.00638,0.19482
2562.93485,0.19419
2564.86332,0.19406
2566.79179,0.19361
2568.72025,0.19414
2570.64872,0.19541
2572.57719,0.19284
2574.50566,0.18854
2576.43413,0.18738
2578.36260,0.18968
2580.29107,0.19451
2582.21953,0.19738
2584.14800,0.19686
2586.07647,0.19747
2588.00494,0.19968
2589.93341,0.19989
2591.86188,0.19628
2593.79035,0.19213
2595.71882,0.19148
2597.64728,0.19279
2599.57575,0.19326
2601.50422,0.19482
2603.43269,0.19856
2605.36116,0.20025
2607.28963,0.19788
2609.21810,0.19512
2611.14656,0.19561
2613.07503,0.19559
2615.00350,0.19257
2616.93197,0.19282
2618.86044,0.19526
2620.78891,0.19540
2622.71738,0.19679
2624.64585,0.19956
2626.57431,0.20073
2628.50278,0.20048
2630.43125,0.19956
2632.35972,0.19962
2634.28819,0.20089
2636.21666,0.20047
2638.14513,0.19856
2640.07359,0.19794
2642.00206,0.19837
2643.93053,0.19913
2645.85900,0.19967
2647.78747,0.19876
2649.71594,0.19798
2651.64441,0.19926
2653.57288,0.20137
2655.50134,0.20234
2657.42981,0.20123
2659.35828,0.19994
2661.28675,0.20098
2663.21522,0.20216
2665.14369,0.20076
2667.07216,0.19924
2669.00062,0.19962
2670.92909,0.19977
2672.85756,0.19952
2674.78603,0.20003
2676.71450,0.20178
2678.64297,0.20448
2680.57144,0.20467
2682.49990,0.20218
2684.42837,0.20070
2686.35684,0.20149
2688.28531,0.20106
2690.21378,0.19656
2692.14225,0.19411
2694.07072,0.19750
2695.99919,0.20179
2697.92765,0.20399
2699.85612,0.20575
2701.78459,0.20752
2703.71306,0.20527
2705.64153,0.19897
2707.57000,0.19587
2709.49847,0.19928
2711.42693,0.20354
2713.35540,0.20377
2715.28387,0.20159
2717.21234,0.19989
2719.14081,0.19972
2721.06928,0.19973
2722.99775,0.19842
2724.92622,0.19690
2726.85468,0.19686
2728.78315,0.20046
2730.71162,0.20652
2732.64009,0.20942
2734.56856,0.20928
2736.49703,0.20979
2738.42550,0.20919
2740.35396,0.20695
2742.28243,0.20757
2744.21090,0.20996
2746.13937,0.20872
2748.06784,0.20482
2749.99631,0.20318
2751.92478,0.20516
2753.85325,0.20604
2755.78171,0.20420
2757.71018,0.20362
2759.63865,0.20340
2761.56712,0.20332
2763.49559,0.20576
2765.42406,0.20859
2767.35253,0.20925
2769.28099,0.20788
2771.20946,0.20695
2773.13793,0.20713
2775.06640,0.20576
2776.99487,0.20473
2778.92334,0.20720
2780.85181,0.20909
2782.78028,0.20789
2784.70874,0.20542
2786.63721,0.20182
2788.56568,0.20051
2790.49415,0.20384
2792.42262,0.20704
2794.35109,0.20751
2796.27956,0.20761
2798.20802,0.20856
2800.13649,0.21031
2802.06496,0.21196
2803.99343,0.21123
2805.92190,0.20798
2807.85037,0.20528
2809.77884,0.20562
2811.70731,0.20651
2813.63577,0.20564
2815.56424,0.20520
2817.49271,0.20542
2819.42118,0.20562
2821.34965,0.20539
2823.27812,0.20285
2825.20659,0.19939
2827.13505,0.19892
2829.06352,0.20313
2830.99199,0.20842
2832.92046,0.21029
2834.84893,0.20951
2836.77740,0.20723
2838.70587,0.20484
2840.63433,0.20678
2842.56280,0.21042
2844.49127,0.20831
2846.41974,0.20452
2848.34821,0.20696
2850.27668,0.20984
2852.20515,0.20634
2854.13362,0.20224
2856.06208,0.20242
2857.99055,0.20449
2859.91902,0.20655
2861.84749,0.20909
2863.77596,0.21064
2865.70443,0.20811
2867.63290,0.20437
2869.56136,0.20429
2871.48983,0.20369
2873.41830,0.19914
2875.34677,0.19672
2877.27524,0.19890
2879.20371,0.20051
2881.13218,0.19783
2883.06065,0.19344
2884.98911,0.19411
2886.91758,0.20083
2888.84605,0.20618
2890.77452,0.20708
2892.70299,0.20460
2894.63146,0.19859
2896.55993,0.19536
2898.48839,0.19920
2900.41686,0.20456
2902.34533,0.20527
2904.27380,0.19665
2906.20227,0.18520
2908.13074,0.18623
2910.05921,0.19592
2911.98768,0.19997
2913.91614,0.19413
2915.84461,0.18163
2917.77308,0.17861
2919.70155,0.19155
2921.63002,0.20238
2923.55849,0.19654
2925.48696,0.17583
2927.41542,0.16593
2929.34389,0.18341
2931.27236,0.20341
2933.20083,0.20564
2935.12930,0.19129
2937.05777,0.17257
2938.98624,0.17449
2940.91471,0.19314
2942.84317,0.20120
2944.77164,0.19118
2946.70011,0.17364
2948.62858,0.17178
2950.55705,0.18966
2952.48552,0.20303
2954.41399,0.19881
2956.34245,0.17953
2958.27092,0.16750
2960.19939,0.18288
2962.12786,0.20619
2964.05633,0.21242
2965.98480,0.19970
2967.91327,0.18368
2969.84174,0.18596
2971.77020,0.20119
2973.69867,0.21015
2975.62714,0.20682
2977.55561,0.19398
2979.48408,0.18916
2981.41255,0.19909
2983.34102,0.20874
2985.26948,0.20754
2987.19795,0.19291
2989.12642,0.18096
2991.05489,0.18794
2992.98336,0.20273
2994.91183,0.21013
2996.84030,0.20500
2998.76877,0.19545
3000.69723,0.19496
3002.62570,0.19977
3004.55417,0.20032
3006.48264,0.19525
3008.41111,0.18491
3010.33958,0.16651
3012.26805,0.13270
3014.19651,0.08499
3016.12498,0.05328
3018.05345,0.07625
3019.98192,0.14108
3021.91039,0.19235
3023.83886,0.20752
3025.76733,0.20191
3027.69579,0.19476
3029.62426,0.19893
3031.55273,0.21017
3033.48120,0.21508
3035.40967,0.21114
3037.33814,0.20331
3039.26661,0.19979
3041.19508,0.20517
3043.12354,0.21218
3045.05201,0.20932
3046.98048,0.19818
3048.90895,0.19609
3050.83742,0.20396
3052.76589,0.20552
3054.69436,0.19362
3056.62282,0.17719
3058.55129,0.17754
3060.47976,0.19199
3062.40823,0.19998
3064.33670,0.19636
3066.26517,0.18636
3068.19364,0.18631
3070.12211,0.19875
3072.05057,0.20496
3073.97904,0.19700
3075.90751,0.18417
3077.83598,0.18322
3079.76445,0.19478
3081.69292,0.20057
3083.62139,0.18740
3085.54985,0.17218
3087.47832,0.17998
3089.40679,0.19714
3091.33526,0.20140
3093.26373,0.19125
3095.19220,0.18393
3097.12067,0.19635
3099.04914,0.21229
3100.97760,0.21166
3102.90607,0.19705
3104.83454,0.18945
3106.76301,0.19927
3108.69148,0.20783
3110.61995,0.20013
3112.54842,0.18570
3114.47688,0.18620
3116.40535,0.20152
3118.33382,0.20989
3120.26229,0.20175
3122.19076,0.19176
3124.11923,0.19705
3126.04770,0.20841
3127.97617,0.21034
3129.90463,0.20515
3131.83310,0.20533
3133.76157,0.21275
3135.69004,0.21526
3137.61851,0.20889
3139.54698,0.20314
3141.47545,0.20651
3143.40391,0.21318
3145.33238,0.21375
3147.26085,0.20847
3149.18932,0.20631
3151.11779,0.21244
3153.04626,0.21845
3154.97473,0.21584
3156.90320,0.20801
3158.83166,0.20682
3160.76013,0.21210
3162.68860,0.21314
3164.61707,0.21137
3166.54554,0.21395
3168.47401,0.22042
3170.40248,0.22278
3172.33094,0.21895
3174.25941,0.21706
3176.18788,0.22049
3178.11635,0.22453
3180.04482,0.22424
3181.97329,0.21965
3183.90176,0.21432
3185.83022,0.21286
3187.75869,0.21684
3189.68716,0.22070
3191.61563,0.22012
3193.54410,0.21725
3195.47257,0.21621
3197.40104,0.21882
3199.32951,0.22135
3201.25797,0.22014
3203.18644,0.21739
3205.11491,0.21539
3207.04338,0.21376
3208.97185,0.21260
3210.90032,0.21272
3212.82879,0.21486
3214.75725,0.21726
3216.68572,0.21472
3218.61419,0.21008
3220.54266,0.21209
3222.47113,0.21640
3224.39960,0.21421
3226.32807,0.20979
3228.25654,0.20961
3230.18500,0.21104
3232.11347,0.21088
3234.04194,0.21134
3235.97041,0.21298
3237.89888,0.21234
3239.82735,0.21089
3241.75582,0.21273
3243.68428,0.21409
3245.61275,0.21139
3247.54122,0.21036
3249.46969,0.21323
3251.39816,0.21422
3253.32663,0.21253
3255.25510,0.21308
3257.18357,0.21765
3259.11203,0.22022
3261.04050,0.21453
3262.96897,0.20730
3264.89744,0.20638
3266.82591,0.20964
3268.75438,0.21413
3270.68285,0.21753
3272.61131,0.21569
3274.53978,0.21055
3276.46825,0.21098
3278.39672,0.21659
3280.32519,0.21902
3282.25366,0.21710
3284.18213,0.21423
3286.11060,0.21321
3288.03906,0.21585
3289.96753,0.21953
3291.89600,0.21865
3293.82447,0.21441
3295.75294,0.21113
3297.68141,0.20896
3299.60988,0.20800
3301.53834,0.20758
3303.46681,0.20666
3305.39528,0.20621
3307.32375,0.20680
3309.25222,0.20706
3311.18069,0.20633
3313.10916,0.20684
3315.03763,0.21165
3316.96609,0.21890
3318.89456,0.22227
3320.82303,0.22199
3322.75150,0.22134
3324.67997,0.21873
3326.60844,0.21473
3328.53691,0.21289
3330.46537,0.21203
3332.39384,0.20940
3334.32231,0.20861
3336.25078,0.21246
3338.17925,0.21551
3340.10772,0.21319
3342.03619,0.20976
3343.96466,0.20926
3345.89312,0.21116
3347.82159,0.21566
3349.75006,0.21918
3351.67853,0.21814
3353.60700,0.21463
3355.53547,0.20951
3357.46394,0.20551
3359.39240,0.20804
3361.32087,0.21505
3363.24934,0.21966
3365.17781,0.21687
3367.10628,0.20923
3369.03475,0.20993
3370.96322,0.22027
3372.89168,0.22556
3374.82015,0.22395
3376.74862,0.22478
3378.67709,0.22745
3380.60556,0.22643
3382.53403,0.22148
3384.46250,0.21656
3386.39097,0.21868
3388.31943,0.22511
3390.24790,0.22665
3392.17637,0.22472
3394.10484,0.22213
3396.03331,0.21855
3397.96178,0.21378
3399.89025,0.20793
3401.81871,0.20363
3403.74718,0.20065
3405.67565,0.19915
3407.60412,0.20305
3409.53259,0.20900
3411.46106,0.20841
3413.38953,0.20353
3415.31800,0.20086
3417.24646,0.20080
3419.17493,0.20339
3421.10340,0.20508
3423.03187,0.20138
3424.96034,0.19870
3426.88881,0.20207
3428.81728,0.20586
3430.74574,0.20660
3432.67421,0.20833
3434.60268,0.21184
3436.53115,0.21325
3438.45962,0.21037
3440.38809,0.20436
3442.31656,0.20185
3444.24503,0.20686
3446.17349,0.21344
3448.10196,0.21411
3450.03043,0.21108
3451.95890,0.20849
3453.88737,0.20201
3455.81584,0.19393
3457.74431,0.19085
3459.67277,0.19087
3461.60124,0.19228
3463.52971,0.19375
3465.45818,0.19323
3467.38665,0.19342
3469.31512,0.19554
3471.24359,0.19694
3473.17206,0.19845
3475.10052,0.19917
3477.02899,0.19633
3478.95746,0.19226
3480.88593,0.19024
3482.81440,0.19325
3484.74287,0.19895
3486.67134,0.20054
3488.59980,0.19713
3490.52827,0.19350
3492.45674,0.19040
3494.38521,0.18715
3496.31368,0.18547
3498.24215,0.18436
3500.17062,0.18381
3502.09909,0.18364
3504.02755,0.18208
3505.95602,0.18176
3507.88449,0.18522
3509.81296,0.18927
3511.74143,0.18677
3513.66990,0.17942
3515.59837,0.17865
3517.52683,0.18619
3519.45530,0.19152
3521.38377,0.19107
3523.31224,0.18731
3525.24071,0.18181
3527.16918,0.17749
3529.09765,0.17525
3531.02611,0.17289
3532.95458,0.16992
3534.88305,0.17039
3536.81152,0.17333
3538.73999,0.17260
3540.66846,0.17059
3542.59693,0.17280
3544.52540,0.17963
3546.45386,0.18546
3548.38233,0.18389
3550.31080,0.18082
3552.23927,0.18109
3554.16774,0.17540
3556.09621,0.16655
3558.02468,0.16756
3559.95314,0.17337
3561.88161,0.17451
3563.81008,0.17567
3565.73855,0.18042
3567.66702,0.18011
3569.59549,0.17395
3571.52396,0.17140
3573.45243,0.17038
3575.38089,0.16543
3577.30936,0.16041
3579.23783,0.15991
3581.16630,0.16060
3583.09477,0.16072
3585.02324,0.16238
3586.95171,0.16489
3588.88017,0.16222
3590.80864,0.15752
3592.73711,0.15711
3594.66558,0.15821
3596.59405,0.15690
3598.52252,0.15605
3600.45099,0.15698
3602.37946,0.15737
3604.30792,0.15987
3606.23639,0.16765
3608.16486,0.17457
3610.09333,0.17125
3612.02180,0.16414
3613.95027,0.16081
3615.87874,0.15810
3617.80720,0.15506
3619.73567,0.15201
3621.66414,0.14608
3623.59261,0.13973
3625.52108,0.13817
3627.44955,0.14565
3629.37802,0.15657
3631.30649,0.15818
3633.23495,0.15422
3635.16342,0.14718
3637.09189,0.14000
3639.02036,0.13410
3640.94883,0.13064
3642.87730,0.13321
3644.80577,0.14260
3646.73423,0.15793
3648.66270,0.17250
3650.59117,0.16645
3652.51964,0.15216
3654.44811,0.14665
3656.37658,0.14550
3658.30505,0.14265
3660.23352,0.13897
3662.16198,0.13359
3664.09045,0.13013
3666.01892,0.13391
3667.94739,0.14332
3669.87586,0.15156
3671.80433,0.15251
3673.73280,0.15373
3675.66126,0.15469
3677.58973,0.15018
3679.51820,0.14511
3681.44667,0.14024
3683.37514,0.13772
3685.30361,0.14071
3687.23208,0.15017
3689.16055,0.15721
3691.08901,0.14709
3693.01748,0.13575
3694.94595,0.13326
3696.87442,0.13341
3698.80289,0.13432
3700.73136,0.13584
3702.65983,0.13249
3704.58829,0.12890
3706.51676,0.13394
3708.44523,0.14456
3710.37370,0.15406
3712.30217,0.15535
3714.23064,0.14665
3716.15911,0.13848
3718.08757,0.13547
3720.01604,0.13422
3721.94451,0.13142
3723.87298,0.12953
3725.80145,0.13010
3727.72992,0.13112
3729.65839,0.13373
3731.58686,0.13829
3733.51532,0.14270
3735.44379,0.14918
3737.37226,0.15301
3739.30073,0.15099
3741.22920,0.15051
3743.15767,0.15242
3745.08614,0.15197
3747.01460,0.15012
3748.94307,0.14865
3750.87154,0.14754
3752.80001,0.14425
3754.72848,0.13694
3756.65695,0.13057
3758.58542,0.12880
3760.51389,0.12902
3762.44235,0.12805
3764.37082,0.12754
3766.29929,0.12676
3768.22776,0.12715
3770.15623,0.13139
3772.08470,0.13287
3774.01317,0.13225
3775.94163,0.13707
3777.87010,0.14379
3779.79857,0.13980
3781.72704,0.12732
3783.65551,0.12013
3785.58398,0.12106
3787.51245,0.12421
3789.44092,0.12548
3791.36938,0.12889
3793.29785,0.13483
3795.22632,0.13535
3797.15479,0.12976
3799.08326,0.12813
3801.01173,0.13130
3802.94020,0.13416
3804.86866,0.13792
3806.79713,0.13957
3808.72560,0.13198
3810.65407,0.12193
3812.58254,0.11735
3814.51101,0.11823
3816.43948,0.12009
3818.36795,0.12349
3820.29641,0.13009
3822.22488,0.13107
3824.15335,0.12904
3826.08182,0.13047
3828.01029,0.12926
3829.93876,0.12577
3831.86723,0.12827
3833.79569,0.13267
3835.72416,0.12893
3837.65263,0.12199
3839.58110,0.12097
3841.50957,0.12315
3843.43804,0.12541
3845.36651,0.12860
3847.29498,0.13298
3849.22344,0.13548
3851.15191,0.13803
3853.08038,0.14977
3855.00885,0.14885
3856.93732,0.13126
3858.86579,0.12094
3860.79426,0.12135
3862.72272,0.12560
3864.65119,0.12681
3866.57966,0.12600
3868.50813,0.12400
3870.43660,0.12191
3872.36507,0.12177
3874.29354,0.12088
3876.22200,0.12197
3878.15047,0.12687
3880.07894,0.13003
3882.00741,0.12841
3883.93588,0.12549
3885.86435,0.11863
3887.79282,0.11124
3889.72129,0.11089
3891.64975,0.11510
3893.57822,0.11792
3895.50669,0.12075
3897.43516,0.12534
3899.36363,0.12863
3901.29210,0.12957
3903.22057,0.12874
3905.14903,0.12269
3907.07750,0.11500
3909.00597,0.11356
3910.93444,0.11826
3912.86291,0.12110
3914.79138,0.11953
3916.71985,0.11880
3918.64832,0.12035
3920.57678,0.12246
3922.50525,0.12528
3924.43372,0.12833
3926.36219,0.12955
3928.29066,0.12573
3930.21913,0.11856
3932.14760,0.11434
3934.07606,0.11148
3936.00453,0.10774
3937.93300,0.10593
3939.86147,0.10666
3941.78994,0.11134
3943.71841,0.11615
3945.64688,0.11510
3947.57535,0.11105
3949.50381,0.10633
3951.43228,0.10575
3953.36075,0.11330
3955.28922,0.11976
3957.21769,0.11809
3959.14616,0.11572
3961.07463,0.11771
3963.00309,0.12051
3964.93156,0.12116
3966.86003,0.11962
3968.78850,0.11748
3970.71697,0.11501
3972.64544,0.11089
3974.57391,0.10472
3976.50238,0.10016
3978.43084,0.10376
3980.35931,0.11348
3982.28778,0.11817
3984.21625,0.11420
3986.14472,0.10987
3988.07319,0.11036
3990.00166,0.11168
3991.93012,0.11062
3993.85859,0.11009
3995.78706,0.11114
3997.71553,0.11057
3999.64400,0.10867
4001.57247,0.10794
4003.50094,0.10884
4005.42941,0.10919
4007.35787,0.10661
4009.28634,0.10557
4011.21481,0.10905
4013.14328,0.11172
4015.07175,0.10939
4017.00022,0.10288
4018.92869,0.09726
4020.85715,0.09626
4022.78562,0.09742
4024.71409,0.09786
4026.64256,0.09934
4028.57103,0.10181
4030.49950,0.10193
4032.42797,0.10225
4034.35644,0.10331
4036.28490,0.09884
4038.21337,0.09212
4040.14184,0.09414
4042.07031,0.10120
4043.99878,0.10049
4045.92725,0.09393
4047.85572,0.09122
4049.78418,0.09488
4051.71265,0.10068
4053.64112,0.10182
4055.56959,0.10003
4057.49806,0.10227
4059.42653,0.10797
4061.35500,0.10971
4063.28346,0.10432
4065.21193,0.09958
4067.14040,0.09992
4069.06887,0.09837
4070.99734,0.09172
4072.92581,0.08733
4074.85428,0.09047
4076.78275,0.09819
4078.71121,0.10147
4080.63968,0.09370
4082.56815,0.08453
4084.49662,0.08541
4086.42509,0.09314
4088.35356,0.09926
4090.28203,0.09959
4092.21049,0.09527
4094.13896,0.09039
4096.06743,0.08808
4097.99590,0.08738
4099.92437,0.08901
4101.85284,0.09299
4103.78131,0.09515
4105.70978,0.09572
4107.63824,0.09369
4109.56671,0.08780
4111.49518,0.08581
4113.42365,0.09129
4115.35212,0.09428
4117.28059,0.08776
4119.20906,0.08018
4121.13752,0.08069
4123.06599,0.08359
4124.99446,0.08172
4126.92293,0.08143
4128.85140,0.08658
4130.77987,0.08899
4132.70834,0.08490
4134.63681,0.08020
4136.56527,0.08070
4138.49374,0.08294
4140.42221,0.08104
4142.35068,0.07848
4144.27915,0.07959
4146.20762,0.08310
4148.13609,0.08668
4150.06455,0.08732
4151.99302,0.08415
4153.92149,0.08427
4155.84996,0.09282
4157.77843,0.10041
4159.70690,0.09787
4161.63537,0.08956
4163.56384,0.08322
4165.49230,0.08183
4167.42077,0.08612
4169.34924,0.09034
4171.27771,0.08328
4173.20618,0.07068
4175.13465,0.06915
4177.06312,0.08030
4178.99158,0.09138
4180.92005,0.09085
4182.84852,0.08165
4184.77699,0.07710
4186.70546,0.08371
4188.63393,0.09155
4190.56240,0.08877
4192.49087,0.08074
4194.41933,0.07810
4196.34780,0.08019
4198.27627,0.08124
4200.20474,0.07858
4202.13321,0.07449
4204.06168,0.07158
4205.99015,0.07042
4207.91861,0.07400
4209.84708,0.07870
4211.77555,0.07825
4213.70402,0.07714
4215.63249,0.07686
4217.56096,0.07466
4219.48943,0.07268
4221.41789,0.07143
4223.34636,0.06916
4225.27483,0.06674
4227.20330,0.06575
4229.13177,0.06523
4231.06024,0.06515
4232.98871,0.06745
4234.91718,0.07026
4236.84564,0.06949
4238.77411,0.06680
4240.70258,0.06624
4242.63105,0.06989
4244.55952,0.07697
4246.48799,0.07929
4248.41646,0.07304
4250.34492,0.06602
4252.27339,0.06287
4254.20186,0.06637
4256.13033,0.07439
4258.05880,0.07498
4259.98727,0.06919
4261.91574,0.06554
4263.84421,0.06356
4265.77267,0.06375
4267.70114,0.06293
4269.62961,0.05853
4271.55808,0.05777
4273.48655,0.05993
4275.41502,0.05732
4277.34349,0.05128
4279.27195,0.04832
4281.20042,0.05093
4283.12889,0.05526
4285.05736,0.05626
4286.98583,0.05234
4288.91430,0.04771
4290.84277,0.04695
4292.77124,0.04646
4294.69970,0.04659
4296.62817,0.05223
4298.55664,0.05552
4300.48511,0.05246
4302.41358,0.05508
4304.34205,0.06403
4306.27052,0.06472
4308.19898,0.05636
4310.12745,0.05125
4312.05592,0.05212
4313.98439,0.05567
4315.91286,0.06026
4317.84133,0.06160
4319.76980,0.05946
4321.69827,0.05960
4323.62673,0.06369
4325.55520,0.06572
4327.48367,0.06246
4329.41214,0.06084
4331.34061,0.06075
4333.26908,0.05390
4335.19755,0.04415
4337.12601,0.04190
4339.05448,0.04428
4340.98295,0.04317
4342.91142,0.04053
4344.83989,0.03859
4346.76836,0.03991
4348.69683,0.04725
4350.62530,0.05306
4352.55376,0.05043
4354.48223,0.04417
4356.41070,0.04409
4358.33917,0.05035
4360.26764,0.05276
4362.19611,0.04539
4364.12458,0.03566
4366.05304,0.03686
4367.98151,0.04728
4369.90998,0.05237
4371.83845,0.04859
4373.76692,0.04388
4375.69539,0.04340
4377.62386,0.04664
4379.55232,0.04874
4381.48079,0.04958
4383.40926,0.05175
4385.33773,0.04874
4387.26620,0.03815
4389.19467,0.03185
4391.12314,0.03735
4393.05161,0.04430
4394.98007,0.04499
4396.90854,0.04548
4398.83701,0.04794
4400.76548,0.05015
4402.69395,0.04974
4404.62242,0.04268
4406.55089,0.03444
4408.47935,0.03418
4410.40782,0.03880
4412.33629,0.04116
4414.26476,0.04109
4416.19323,0.04178
4418.12170,0.04475
4420.05017,0.04844
4421.97864,0.05045
4423.90710,0.04685
4425.83557,0.03970
4427.76404,0.03819
4429.69251,0.03999
4431.62098,0.03616
4433.54945,0.02932
4435.47792,0.03254
4437.40638,0.04907
4439.33485,0.06130
4441.26332,0.05810
4443.19179,0.04595
4445.12026,0.03285
4447.04873,0.02491
4448.97720,0.02343
4450.90567,0.02366
4452.83413,0.02070
4454.76260,0.01860
4456.69107,0.02380
4458.61954,0.03151
4460.54801,0.03700
4462.47648,0.04254
4464.40495,0.04399
4466.33341,0.03527
4468.26188,0.02441
4470.19035,0.02326
4472.11882,0.02708
4474.04729,0.03019
4475.97576,0.03761
4477.90423,0.04312
4479.83270,0.03796
4481.76116,0.02974
4483.68963,0.02645
4485.61810,0.02702
4487.54657,0.02638
4489.47504,0.01992
4491.40351,0.01502
4493.33198,0.02138
4495.26044,0.02782
4497.18891,0.02359
4499.11738,0.01479
4501.04585,0.01051
4502.97432,0.01575
4504.90279,0.02363
4506.83126,0.02547
4508.75973,0.02365
4510.68819,0.02088
4512.61666,0.01802
4514.54513,0.01593
4516.47360,0.01324
4518.40207,0.01072
4520.33054,0.01045
4522.25901,0.01113
4524.18747,0.01224
4526.11594,0.01525
4528.04441,0.01928
4529.97288,0.01926
4531.90135,0.01370
4533.82982,0.01111
4535.75829,0.01344
4537.68676,0.01369
4539.61522,0.00901
4541.54369,0.00127
4543.47216,0.00091
4545.40063,0.01443
4547.32910,0.02615
4549.25757,0.01909
4551.18604,0.00325
4553.11450,0.00027
4555.04297,0.01234
4556.97144,0.02775
4558.89991,0.03451
4560.82838,0.02605
4562.75685,0.01307
4564.68532,0.01046
4566.61378,0.01508
4568.54225,0.01997
4570.47072,0.02776
4572.39919,0.03179
4574.32766,0.02329
4576.25613,0.01040
4578.18460,0.00057
4580.11307,-0.00310
4582.04153,0.00360
4583.97000,0.01396
4585.89847,0.01788
4587.82694,0.01582
4589.75541,0.01395
4591.68388,0.01431
4593.61235,0.01503
4595.54081,0.01518
4597.46928,0.01093
4599.39775,0.00054
4601.32622,-0.00286
4603.25469,0.00859
4605.18316,0.02284
4607.11163,0.03052
4609.04010,0.02995
4610.96856,0.02381
4612.89703,0.02308
4614.82550,0.02302
4616.75397,0.01117
4618.68244,0.00032
4620.61091,0.00274
4622.53938,0.01137
4624.46784,0.01694
4626.39631,0.01333
4628.32478,0.00737
4630.25325,0.01095
4632.18172,0.01795
4634.11019,0.01623
4636.03866,0.01044
4637.96713,0.01051
4639.89559,0.01899
4641.82406,0.02741
4643.75253,0.02466
4645.68100,0.01546
4647.60947,0.00961
4649.53794,0.01004
4651.46641,0.01383
4653.39487,0.01592
4655.32334,0.01468
4657.25181,0.01130
4659.18028,0.00763
4661.10875,0.00874
4663.03722,0.01930
4664.96569,0.02759
4666.89416,0.02177
4668.82262,0.00783
4670.75109,-0.00080
4672.67956,0.00449
4674.60803,0.01269
4676.53650,0.00750
4678.46497,-0.00613
4680.39344,-0.01172
4682.32190,-0.00540
4684.25037,0.00203
4686.17884,0.00375
4688.10731,0.00324
4690.03578,0.00362
4691.96425,0.00996
4693.89272,0.02023
4695.82119,0.01964
4697.74965,0.01095
4699.67812,0.00485
4701.60659,0.00035
4703.53506,-0.00170
4705.46353,-0.00047
4707.39200,0.00323
4709.32047,0.00670
4711.24893,0.01088
4713.17740,0.02076
4715.10587,0.03228
4717.03434,0.03566
4718.96281,0.02703
4720.89128,0.01559
4722.81975,0.00915
4724.74821,0.00409
4726.67668,0.00030
4728.60515,0.00172
4730.53362,0.00145
4732.46209,-0.00265
4734.39056,0.00428
4736.31903,0.02008
4738.24750,0.02574
4740.17596,0.02103
4742.10443,0.01853
4744.03290,0.02375
4745.96137,0.02487
4747.88984,0.00847
4749.81831,-0.00730
4751.74678,-0.00146
4753.67524,0.00955
4755.60371,0.01041
4757.53218,0.00996
4759.46065,0.01127
4761.38912,0.00879
4763.31759,0.00723
4765.24606,0.01026
4767.17453,0.01502
4769.10299,0.01589
4771.03146,0.01090
4772.95993,0.00987
4774.88840,0.01487
4776.81687,0.01883
4778.74534,0.01852
4780.67381,0.01214
4782.60227,0.00401
4784.53074,-0.00054
4786.45921,0.00263
4788.38768,0.01636
4790.31615,0.02576
4792.24462,0.01514
4794.17309,-0.00348
4796.10156,-0.01026
4798.03002,-0.00147
4799.95849,0.01019
4801.88696,0.01344
4803.81543,0.01340
4805.74390,0.01539
4807.67237,0.02189
4809.60084,0.03327
4811.52930,0.04040
4813.45777,0.03531
4815.38624,0.01620
4817.31471,-0.00777
4819.24318,-0.02200
4821.17165,-0.02126
4823.10012,-0.01020
4825.02859,0.00434
4826.95705,0.01727
4828.88552,0.02537
4830.81399,0.02452
4832.74246,0.01179
4834.67093,-0.00237
4836.59940,-0.00801
4838.52787,-0.00939
4840.45633,-0.00529
4842.38480,0.00621
4844.31327,0.01525
4846.24174,0.01544
4848.17021,0.01338
4850.09868,0.01755
4852.02715,0.02283
4853.95562,0.02070
4855.88408,0.01707
4857.81255,0.01313
4859.74102,-0.00309
4861.66949,-0.02533
4863.59796,-0.03145
4865.52643,-0.01799
4867.45490,0.00460
4869.38336,0.02338
4871.31183,0.02799
4873.24030,0.02240
4875.16877,0.01756
4877.09724,0.01074
4879.02571,-0.00200
4880.95418,-0.00569
4882.88265,0.00804
4884.81111,0.02443
4886.73958,0.03103
4888.66805,0.03692
4890.59652,0.04666
4892.52499,0.03991
4894.45346,0.02127
4896.38193,0.01739
4898.31039,0.02968
4900.23886,0.03859
4902.16733,0.03042
4904.09580,0.01404
4906.02427,0.00299
4907.95274,-0.00155
4909.88121,-0.00105
4911.80967,0.00248
4913.73814,0.00530
4915.66661,0.00894
4917.59508,0.01786
4919.52355,0.02882
4921.45202,0.03006
4923.38049,0.01204
4925.30896,-0.00523
4927.23742,0.00310
4929.16589,0.01761
4931.09436,0.02026
4933.02283,0.01941
4934.95130,0.01478
4936.87977,0.00387
4938.80824,0.00001
4940.73670,0.00640
4942.66517,0.00671
4944.59364,-0.00099
4946.52211,-0.00730
4948.45058,-0.00701
4950.37905,-0.00001
4952.30752,0.00598
4954.23599,0.01320
4956.16445,0.02265
4958.09292,0.02934
4960.02139,0.03246
4961.94986,0.02357
4963.87833,0.00846
4965.80680,0.00064
4967.73527,0.00170
4969.66373,0.01091
4971.59220,0.02182
4973.52067,0.02889
4975.44914,0.02603
4977.37761,0.01446
4979.30608,0.01252
4981.23455,0.02111
4983.16302,0.02302
4985.09148,0.02132
4987.01995,0.02399
4988.94842,0.02325
4990.87689,0.02042
4992.80536,0.02761
4994.73383,0.03866
4996.66230,0.03730
4998.59076,0.02962
5000.51923,0.02637
5002.44770,0.02562
5004.37617,0.02288
5006.30464,0.01509
5008.23311,0.01332
5010.16158,0.02390
5012.09005,0.03339
5014.01851,0.03371
5015.94698,0.03021
5017.87545,0.02374
5019.80392,0.00678
5021.73239,-0.00731
5023.66086,-0.00196
5025.58933,0.00374
5027.51779,-0.00409
5029.44626,-0.00925
5031.37473,-0.00349
5033.30320,0.00862
5035.23167,0.02157
5037.16014,0.02768
5039.08861,0.02593
5041.01708,0.02426
5042.94554,0.02853
5044.87401,0.03209
5046.80248,0.02991
5048.73095,0.02391
5050.65942,0.01024
5052.58789,0.00433
5054.51636,0.01702
5056.44482,0.02735
5058.37329,0.03461
5060.30176,0.04330
5062.23023,0.03668
5064.15870,0.01544
5066.08717,-0.00436
5068.01564,-0.01152
5069.94410,-0.01154
5071.87257,-0.01535
5073.80104,-0.01122
5075.72951,0.00552
5077.65798,0.01968
5079.58645,0.03913
5081.51492,0.05720
5083.44339,0.04244
5085.37185,0.01175
5087.30032,-0.00450
5089.22879,-0.01495
5091.15726,-0.01631
5093.08573,0.00858
5095.01420,0.03450
5096.94267,0.03415
5098.87113,0.02321
5100.79960,0.01821
5102.72807,0.02117
5104.65654,0.02753
5106.58501,0.02563
5108.51348,0.01681
5110.44195,0.01828
5112.37042,0.03429
5114.29888,0.04672
5116.22735,0.04401
5118.15582,0.03138
5120.08429,0.01916
5122.01276,0.01684
5123.94123,0.02231
5125.86970,0.02292
5127.79816,0.01735
5129.72663,0.01214
5131.65510,0.00578
5133.58357,0.00290
5135.51204,0.01344
5137.44051,0.03125
5139.36898,0.03719
5141.29745,0.03021
5143.22591,0.03097
5145.15438,0.03760
5147.08285,0.03053
5149.01132,0.02051
5150.93979,0.02151
5152.86826,0.02408
5154.79673,0.02746
5156.72519,0.03546
5158.65366,0.04528
5160.58213,0.05820
5162.51060,0.06725
5164.43907,0.06313
5166.36754,0.05118
5168.29601,0.03701
5170.22448,0.02766
5172.15294,0.03301
5174.08141,0.04132
5176.00988,0.03939
5177.93835,0.03573
5179.86682,0.03653
5181.79529,0.03611
5183.72376,0.02858
5185.65222,0.02269
5187.58069,0.03680
5189.50916,0.05692
5191.43763,0.05591
5193.36610,0.04259
5195.29457,0.04448
5197.22304,0.06302
5199.15151,0.07313
5201.07997,0.07181
5203.00844,0.06779
5204.93691,0.05133
5206.86538,0.03031
5208.79385,0.03258
5210.72232,0.05121
5212.65079,0.05737
5214.57925,0.05512
5216.50772,0.06514
5218.43619,0.06802
5220.36466,0.04642
5222.29313,0.03357
5224.22160,0.04502
5226.15007,0.05767
5228.07854,0.05930
5230.00700,0.04754
5231.93547,0.03183
5233.86394,0.03236
5235.79241,0.03344
5237.72088,0.02397
5239.64935,0.02646
5241.57782,0.04775
5243.50628,0.06583
5245.43475,0.05288
5247.36322,0.01983
5249.29169,0.01161
5251.22016,0.02816
5253.14863,0.03125
5255.07710,0.02215
5257.00556,0.02262
5258.93403,0.03041
5260.86250,0.04062
5262.79097,0.06122
5264.71944,0.08076
5266.64791,0.07303
5268.57638,0.05938
5270.50485,0.06599
5272.43331,0.06772
5274.36178,0.05747
5276.29025,0.05571
5278.21872,0.05553
5280.14719,0.05489
5282.07566,0.06168
5284.00413,0.06924
5285.93259,0.06938
5287.86106,0.06268
5289.78953,0.05375
5291.71800,0.03824
5293.64647,0.02083
5295.57494,0.01651
5297.50341,0.02480
5299.43188,0.02579
5301.36034,0.01465
5303.28881,0.01932
5305.21728,0.03952
5307.14575,0.04330
5309.07422,0.03662
5311.00269,0.04194
5312.93116,0.05170
5314.85962,0.06215
5316.78809,0.06862
5318.71656,0.05779
5320.64503,0.04190
5322.57350,0.03608
5324.50197,0.03878
5326.43044,0.04212
5328.35891,0.04035
5330.28737,0.04991
5332.21584,0.08002
5334.14431,0.10389
5336.07278,0.10763
5338.00125,0.10598
5339.92972,0.09907
5341.85819,0.08395
5343.78665,0.07612
5345.71512,0.08566
5347.64359,0.08817
5349.57206,0.06998
5351.50053,0.05568
5353.42900,0.05323
5355.35747,0.04158
5357.28594,0.03142
5359.21440,0.03550
5361.14287,0.04578
5363.07134,0.05675
5364.99981,0.07253
5366.92828,0.09491
5368.85675,0.10272
5370.78522,0.08347
5372.71368,0.05778
5374.64215,0.03729
5376.57062,0.01901
5378.49909,0.02223
5380.42756,0.04740
5382.35603,0.05880
5384.28450,0.05140
5386.21297,0.06122
5388.14143,0.07923
5390.06990,0.07377
5391.99837,0.05679
5393.92684,0.05102
5395.85531,0.06954
5397.78378,0.11168
5399.71225,0.13905
5401.64071,0.11727
5403.56918,0.07371
5405.49765,0.04444
5407.42612,0.02664
5409.35459,0.01475
5411.28306,0.01963
5413.21153,0.04533
5415.13999,0.06670
5417.06846,0.07392
5418.99693,0.08140
5420.92540,0.08378
5422.85387,0.07918
5424.78234,0.08417
5426.71081,0.09530
5428.63928,0.08929
5430.56774,0.05706
5432.49621,0.02506
5434.42468,0.01585
5436.35315,0.02073
5438.28162,0.03549
5440.21009,0.07160
5442.13856,0.11028
5444.06702,0.12072
5445.99549,0.10667
5447.92396,0.09183
5449.85243,0.09157
5451.78090,0.08869
5453.70937,0.07592
5455.63784,0.07100
5457.56631,0.06117
5459.49477,0.04435
5461.42324,0.04943
5463.35171,0.05307
5465.28018,0.04024
5467.20865,0.04051
5469.13712,0.05200
5471.06559,0.06082
5472.99405,0.07123
5474.92252,0.08631
5476.85099,0.11344
5478.77946,0.12620
5480.70793,0.09144
5482.63640,0.05134
5484.56487,0.05223
5486.49334,0.05847
5488.42180,0.04979
5490.35027,0.05968
5492.27874,0.09179
5494.20721,0.11458
5496.13568,0.10226
5498.06415,0.06530
5499.99262,0.04435
5501.92108,0.05065
5503.84955,0.05629
5505.77802,0.05066
5507.70649,0.04996
5509.63496,0.06012
5511.56343,0.06745
5513.49190,0.06793
5515.42037,0.06470
5517.34883,0.06085
5519.27730,0.06593
5521.20577,0.07963
5523.13424,0.07552
5525.06271,0.04941
5526.99118,0.03720
5528.91965,0.04472
5530.84811,0.05780
5532.77658,0.07049
5534.70505,0.06900
5536.63352,0.05534
5538.56199,0.04958
5540.49046,0.05775
5542.41893,0.06907
5544.34740,0.07872
5546.27586,0.09195
5548.20433,0.10911
5550.13280,0.12521
5552.06127,0.12895
5553.98974,0.12544
5555.91821,0.12246
5557.84668,0.09865
5559.77514,0.06715
5561.70361,0.06515
5563.63208,0.07695
5565.56055,0.08112
5567.48902,0.08766
5569.41749,0.08763
5571.34596,0.07641
5573.27443,0.08077
5575.20289,0.10631
5577.13136,0.12938
5579.05983,0.13148
5580.98830,0.10145
5582.91677,0.06564
5584.84524,0.06885
5586.77371,0.09486
5588.70217,0.09684
5590.63064,0.07979
5592.55911,0.07913
5594.48758,0.09465
5596.41605,0.10081
5598.34452,0.08014
5600.27299,0.04607
5602.20145,0.04317
5604.12992,0.07883
5606.05839,0.10542
5607.98686,0.09836
5609.91533,0.07550
5611.84380,0.06712
5613.77227,0.08247
5615.70074,0.08150
5617.62920,0.04509
5619.55767,0.01290
5621.48614,0.00960
5623.41461,0.02250
5625.34308,0.03031
5627.27155,0.01653
5629.20002,-0.00885
5631.12848,-0.00982
5633.05695,0.03617
5634.98542,0.09305
5636.91389,0.11192
5638.84236,0.10551
5640.77083,0.09345
5642.69930,0.08456
5644.62777,0.09690
5646.55623,0.11479
5648.48470,0.10282
5650.41317,0.07413
5652.34164,0.07095
5654.27011,0.09323
5656.19858,0.11002
5658.12705,0.11152
5660.05551,0.10957
5661.98398,0.11381
5663.91245,0.11517
5665.84092,0.11091
5667.76939,0.11292
5669.69786,0.11654
5671.62633,0.10630
5673.55480,0.08817
5675.48326,0.08314
5677.41173,0.08514
5679.34020,0.08520
5681.26867,0.09445
5683.19714,0.10662
5685.12561,0.11667
5687.05408,0.11958
5688.98254,0.10755
5690.91101,0.08345
5692.83948,0.04292
5694.76795,0.01129
5696.69642,0.03219
5698.62489,0.08957
5700.55336,0.11378
5702.48183,0.08869
5704.41029,0.07770
5706.33876,0.09871
5708.26723,0.10687
5710.19570,0.09998
5712.12417,0.10080
5714.05264,0.09094
5715.98111,0.06477
5717.90957,0.06332
5719.83804,0.10018
5721.76651,0.12129
5723.69498,0.09200
5725.62345,0.05956
5727.55192,0.05477
5729.48039,0.05742
5731.40886,0.06759
5733.33732,0.08875
5735.26579,0.08989
5737.19426,0.06979
5739.12273,0.08427
5741.05120,0.11679
5742.97967,0.11127
5744.90814,0.08014
5746.83660,0.05430
5748.76507,0.05089
5750.69354,0.06398
5752.62201,0.06657
5754.55048,0.05786
5756.47895,0.05414
5758.40742,0.05042
5760.33588,0.05260
5762.26435,0.06668
5764.19282,0.05620
5766.12129,0.01932
5768.04976,0.01008
5769.97823,0.04053
5771.90670,0.05115
5773.83517,0.00737
5775.76363,-0.02969
5777.69210,0.00426
5779.62057,0.08957
5781.54904,0.13727
5783.47751,0.11861
5785.40598,0.09976
5787.33445,0.09779
5789.26291,0.09604
5791.19138,0.10454
5793.11985,0.09168
5795.04832,0.05932
5796.97679,0.05254
5798.90526,0.05639
5800.83373,0.05076
5802.76220,0.04979
5804.69066,0.06181
5806.61913,0.08938
5808.54760,0.11903
5810.47607,0.13395
5812.40454,0.14147
5814.33301,0.13641
5816.26148,0.11445
5818.18994,0.09433
5820.11841,0.07180
5822.04688,0.05292
5823.97535,0.05612
5825.90382,0.06812
5827.83229,0.08118
5829.76076,0.07709
5831.68923,0.05096
5833.61769,0.04957
5835.54616,0.07052
5837.47463,0.06905
5839.40310,0.06976
5841.33157,0.10413
5843.26004,0.12964
5845.18851,0.11702
5847.11697,0.11044
5849.04544,0.12678
5850.97391,0.11505
5852.90238,0.07366
5854.83085,0.04307
5856.75932,0.02787
5858.68779,0.03862
5860.61626,0.08977
5862.54472,0.12674
5864.47319,0.09918
5866.40166,0.05831
5868.33013,0.06118
5870.25860,0.09607
5872.18707,0.13807
5874.11554,0.14685
5876.04400,0.10437
5877.97247,0.06799
5879.90094,0.05242
5881.82941,0.02034
5883.75788,-0.00896
5885.68635,0.00676
5887.61482,0.05480
5889.54329,0.08885
5891.47175,0.08469
5893.40022,0.04917
5895.32869,0.01770
5897.25716,0.01552
5899.18563,0.04290
5901.11410,0.07150
5903.04257,0.05493
5904.97103,0.03582
5906.89950,0.07939
5908.82797,0.14271
5910.75644,0.16367
5912.68491,0.12710
5914.61338,0.06917
5916.54185,0.07402
5918.47032,0.12385
5920.39878,0.13529
5922.32725,0.13021
5924.25572,0.14173
5926.18419,0.12786
5928.11266,0.09111
5930.04113,0.09595
5931.96960,0.13740
5933.89806,0.15565
5935.82653,0.13275
5937.75500,0.09621
5939.68347,0.05814
5941.61194,0.02202
5943.54041,0.01768
5945.46888,0.06063
5947.39734,0.12628
5949.32581,0.16081
5951.25428,0.13487
5953.18275,0.08614
5955.11122,0.05656
5957.03969,0.05669
5958.96816,0.07031
5960.89663,0.08846
5962.82509,0.10904
5964.75356,0.12001
5966.68203,0.11697
5968.61050,0.08373
5970.53897,0.03702
5972.46744,0.04438
5974.39591,0.09765
5976.32437,0.12038
5978.25284,0.09514
5980.18131,0.06737
5982.10978,0.06679
5984.03825,0.07667
5985.96672,0.11946
5987.89519,0.19683
5989.82366,0.22112
5991.75212,0.19668
5993.68059,0.18329
5995.60906,0.15335
5997.53753,0.10419
5999.46600,0.08255
6001.39447,0.06937
6003.32294,0.04006
6005.25140,0.01965
6007.17987,0.01990
6009.10834,0.03722
6011.03681,0.05695
6012.96528,0.04486
6014.89375,0.01117
6016.82222,-0.00213
6018.75069,0.00822
6020.67915,0.03906
6022.60762,0.06702
6024.53609,0.04331
6026.46456,0.01224
6028.39303,0.02304
6030.32150,0.03720
6032.24997,0.05369
6034.17843,0.07966
6036.10690,0.05988
6038.03537,0.03249
6039.96384,0.08156
6041.89231,0.14982
6043.82078,0.16108
6045.74925,0.14012
6047.67772,0.11026
6049.60618,0.07575
6051.53465,0.06548
6053.46312,0.06736
6055.39159,0.06506
6057.32006,0.08303
6059.24853,0.10192
6061.17700,0.08967
6063.10546,0.06530
6065.03393,0.06272
6066.96240,0.07431
6068.89087,0.08527
6070.81934,0.10625
6072.74781,0.12036
6074.67628,0.09660
6076.60475,0.04278
6078.53321,0.01705
6080.46168,0.03858
6082.39015,0.06666
6084.31862,0.12172
6086.24709,0.18192
6088.17556,0.14601
6090.10403,0.05757
6092.03249,0.03089
6093.96096,0.06856
6095.88943,0.09683
6097.81790,0.08505
6099.74637,0.05743
6101.67484,0.02430
6103.60331,0.00552
6105.53177,0.03728
6107.46024,0.08364
6109.38871,0.08224
6111.31718,0.04389
6113.24565,0.01615
6115.17412,0.03009
6117.10259,0.07752
6119.03106,0.12381
6120.95952,0.13237
6122.88799,0.10361
6124.81646,0.06710
6126.74493,0.04490
6128.67340,0.05073
6130.60187,0.05691
6132.53034,0.04660
6134.45880,0.05015
6136.38727,0.06432
6138.31574,0.07954
6140.24421,0.08919
6142.17268,0.08730
6144.10115,0.09495
6146.02962,0.10144
6147.95809,0.08553
6149.88655,0.05314
6151.81502,0.02088
6153.74349,-0.01015
6155.67196,-0.02693
6157.60043,0.02074
6159.52890,0.10416
6161.45737,0.13139
6163.38583,0.09860
6165.31430,0.07024
6167.24277,0.08237
6169.17124,0.09537
6171.09971,0.06425
6173.02818,0.02984
6174.95665,0.04012
6176.88512,0.07148
6178.81358,0.09620
6180.74205,0.10925
6182.67052,0.11268
6184.59899,0.12832
6186.52746,0.15913
6188.45593,0.15616
6190.38440,0.10510
6192.31286,0.06930
6194.24133,0.09542
6196.16980,0.15865
6198.09827,0.17475
6200.02674,0.12110
6201.95521,0.08529
6203.88368,0.10251
6205.81215,0.10196
6207.74061,0.07729
6209.66908,0.07313
6211.59755,0.06424
6213.52602,0.03641
6215.45449,0.01259
6217.38296,0.00257
6219.31143,0.02030
6221.23989,0.05377
6223.16836,0.08023
6225.09683,0.12403
6227.02530,0.19512
6228.95377,0.22009
6230.88224,0.17005
6232.81071,0.10856
6234.73918,0.06428
6236.66764,0.04934
6238.59611,0.08212
6240.52458,0.12621
6242.45305,0.14911
6244.38152,0.14292
6246.30999,0.10569
6248.23846,0.06019
6250.16692,0.02965
6252.09539,0.04280
6254.02386,0.09464
6255.95233,0.10985
6257.88080,0.08596
6259.80927,0.10222
6261.73774,0.13706
6263.66621,0.16075
6265.59467,0.20035
6267.52314,0.22329
6269.45161,0.19925
6271.38008,0.14379
6273.30855,0.09975
6275.23702,0.09146
6277.16549,0.07345
6279.09395,0.04997
6281.02242,0.04536
6282.95089,0.05589
6284.87936,0.08602
6286.80783,0.09982
6288.73630,0.07513
6290.66477,0.07279
6292.59323,0.11288
6294.52170,0.13411
6296.45017,0.14316
6298.37864,0.16076
6300.30711,0.13417
6302.23558,0.07060
6304.16405,0.05123
6306.09252,0.06165
6308.02098,0.09535
6309.94945,0.18798
6311.87792,0.23548
6313.80639,0.14706
6315.73486,0.05438
6317.66333,0.07465
6319.59180,0.15272
6321.52026,0.19597
6323.44873,0.16526
6325.37720,0.10809
6327.30567,0.08637
6329.23414,0.08852
6331.16261,0.09042
6333.09108,0.09506
6335.01955,0.11677
6336.94801,0.12275
6338.87648,0.07417
6340.80495,0.04001
6342.73342,0.04510
6344.66189,0.03413
6346.59036,0.01805
6348.51883,0.02447
6350.44729,0.02325
6352.37576,-0.01072
6354.30423,-0.02573
6356.23270,0.00865
6358.16117,0.04887
6360.08964,0.06809
6362.01811,0.08776
6363.94658,0.11217
6365.87504,0.12560
6367.80351,0.12778
6369.73198,0.10992
6371.66045,0.06641
6373.58892,0.03432
6375.51739,0.02876
6377.44586,0.03623
6379.37432,0.07560
6381.30279,0.12953
6383.23126,0.13942
6385.15973,0.12166
6387.08820,0.13990
6389.01667,0.18715
6390.94514,0.21927
6392.87361,0.18120
6394.80207,0.06098
6396.73054,-0.01042
6398.65901,0.04164
6400.58748,0.12192
6402.51595,0.15347
6404.44442,0.16075
6406.37289,0.14307
6408.30135,0.10437
6410.22982,0.07776
6412.15829,0.08999
6414.08676,0.13683
6416.01523,0.17653
6417.94370,0.17247
6419.87217,0.12157
6421.80064,0.09417
6423.72910,0.12396
6425.65757,0.15069
6427.58604,0.14200
6429.51451,0.12071
6431.44298,0.09863
6433.37145,0.10475
6435.29992,0.12821
6437.22838,0.07325
6439.15685,-0.04090
6441.08532,-0.07392
6443.01379,-0.05342
6444.94226,-0.06705
6446.87073,-0.03914
6448.79920,0.09054
6450.72766,0.18746
6452.65613,0.15401
6454.58460,0.08116
6456.51307,0.03874
6458.44154,0.05434
6460.37001,0.09929
6462.29848,0.11253
6464.22695,0.11241
6466.15541,0.10503
6468.08388,0.07652
6470.01235,0.08026
6471.94082,0.10536
6473.86929,0.11575
6475.79776,0.13653
6477.72623,0.11474
6479.65469,0.05934
6481.58316,0.06298
6483.51163,0.10444
6485.44010,0.10768
6487.36857,0.04318
6489.29704,-0.02519
6491.22551,-0.03934
6493.15398,-0.02736
6495.08244,0.03764
6497.01091,0.13732
6498.93938,0.17191
6500.86785,0.15868
6502.79632,0.17526
6504.72479,0.17727
6506.65326,0.11178
6508.58172,0.04684
6510.51019,0.05366
6512.43866,0.07945
6514.36713,0.07616
6516.29560,0.05947
6518.22407,0.03035
6520.15254,0.01228
6522.08101,-0.01042
6524.00947,-0.06234
6525.93794,-0.06052
6527.86641,0.00756
6529.79488,0.04693
6531.72335,0.08121
6533.65182,0.16853
6535.58029,0.19338
6537.50875,0.08795
6539.43722,0.01926
6541.36569,0.05868
6543.29416,0.08923
6545.22263,0.06655
6547.15110,0.03839
6549.07957,0.00764
6551.00804,-0.02758
6552.93650,-0.01182
6554.86497,0.01980
6556.79344,0.01128
6558.72191,0.00633
6560.65038,0.00566
6562.57885,-0.01316
6564.50732,-0.00633
6566.43578,0.06036
6568.36425,0.13279
6570.29272,0.12595
6572.22119,0.02133
6574.14966,-0.10018
6576.07813,-0.17178
6578.00660,-0.19692
6579.93507,-0.13040
6581.86353,0.04429
6583.79200,0.19618
6585.72047,0.23034
6587.64894,0.19573
6589.57741,0.13121
6591.50588,0.07096
6593.43435,0.06910
6595.36281,0.11429
6597.29128,0.14009
6599.21975,0.13214
6601.14822,0.13332
6603.07669,0.16139
6605.00516,0.15451
6606.93363,0.10437
6608.86210,0.06336
6610.79056,0.02848
6612.71903,0.00410
6614.64750,0.02822
6616.57597,0.07773
6618.50444,0.12481
6620.43291,0.14160
6622.36138,0.11292
6624.28984,0.09307
6626.21831,0.11366
6628.14678,0.13104
6630.07525,0.10924
6632.00372,0.11243
6633.93219,0.17669
6635.86066,0.23100
6637.78912,0.18882
6639.71759,0.06190
6641.64606,-0.03227
6643.57453,-0.02481
6645.50300,-0.00014
6647.43147,-0.03837
6649.35994,-0.06672
6651.28841,-0.00914
6653.21687,0.06873
6655.14534,0.06657
6657.07381,-0.00498
6659.00228,-0.03478
6660.93075,-0.00026
6662.85922,-0.00275
6664.78769,-0.05329
6666.71615,-0.04958
6668.64462,0.02885
6670.57309,0.09251
6672.50156,0.07821
6674.43003,-0.00208
6676.35850,-0.07079
6678.28697,-0.08497
6680.21544,-0.04293
6682.14390,0.03841
6684.07237,0.11899
6686.00084,0.17556
6687.92931,0.19930
6689.85778,0.16340
6691.78625,0.06560
6693.71472,0.00518
6695.64318,0.04503
6697.57165,0.09099
6699.50012,0.09040
6701.42859,0.09901
6703.35706,0.16004
6705.28553,0.25180
6707.21400,0.22007
6709.14247,0.06076
6711.07093,-0.03064
6712.99940,0.00307
6714.92787,0.10464
6716.85634,0.17227
6718.78481,0.17105
6720.71328,0.14218
6722.64175,0.04995
6724.57021,-0.06756
6726.49868,-0.08163
6728.42715,-0.01442
6730.35562,-0.00115
6732.28409,-0.08978
6734.21256,-0.12139
6736.14103,0.01672
6738.06950,0.14639
6739.99796,0.11106
6741.92643,-0.02188
6743.85490,-0.11006
6745.78337,-0.07072
6747.71184,0.02485
6749.64031,0.02837
6751.56878,0.01475
6753.49724,0.07851
6755.42571,0.11840
6757.35418,0.06600
6759.28265,-0.00657
6761.21112,0.00106
6763.13959,0.07810
6765.06806,0.14746
6766.99653,0.12792
6768.92499,0.04893
6770.85346,0.02909
6772.78193,0.08144
6774.71040,0.13309
6776.63887,0.15465
6778.56734,0.15481
6780.49581,0.10840
6782.42427,0.06222
6784.35274,0.08604
6786.28121,0.10476
6788.20968,0.07007
6790.13815,0.08467
6792.06662,0.20991
6793.99509,0.29671
6795.92355,0.23852
6797.85202,0.17399
6799.78049,0.21859
6801.70896,0.27984
6803.63743,0.27740
6805.56590,0.22622
6807.49437,0.16178
6809.42284,0.11248
6811.35130,0.06149
6813.27977,0.03671
6815.20824,0.03161
6817.13671,0.00242
6819.06518,-0.02876
6820.99365,-0.05988
6822.92212,-0.05768
6824.85058,0.00168
6826.77905,0.05839
6828.70752,0.07647
6830.63599,0.03610
6832.56446,-0.01310
6834.49293,0.03001
6836.42140,0.15183
6838.34987,0.18213
6840.27833,0.08534
6842.20680,0.01538
6844.13527,0.06562
6846.06374,0.12512
6847.99221,0.07888
6849.92068,0.01318
6851.84915,0.02534
6853.77761,0.06698
6855.70608,0.07624
6857.63455,0.04069
6859.56302,0.04458
6861.49149,0.11191
6863.41996,0.13081
6865.34843,0.08515
6867.27690,0.04326
6869.20536,-0.01825
6871.13383,-0.09258
6873.06230,-0.06145
6874.99077,0.08174
6876.91924,0.20070
6878.84771,0.20034
6880.77618,0.08115
6882.70464,0.00991
6884.63311,0.02952
6886.56158,0.03968
6888.49005,0.04320
6890.41852,0.06486
6892.34699,0.08810
6894.27546,0.16391
6896.20393,0.24712
6898.13239,0.18935
6900.06086,0.02735
6901.98933,-0.07837
6903.91780,-0.01426
6905.84627,0.13636
6907.77474,0.15519
6909.70321,0.08722
6911.63167,0.07586
6913.56014,0.10108
6915.48861,0.03873
6917.41708,-0.03739
6919.34555,0.00261
6921.27402,0.02501
6923.20249,-0.04604
6925.13096,-0.09180
6927.05942,-0.05179
6928.98789,0.02600
6930.91636,0.07744
6932.84483,0.09992
6934.77330,0.09485
6936.70177,0.03307
6938.63024,-0.08150
6940.55870,-0.12450
6942.48717,-0.02084
6944.41564,0.04067
6946.34411,-0.02382
6948.27258,-0.06160
6950.20105,0.01917
6952.12952,0.09206
6954.05799,0.00868
6955.98645,-0.13979
6957.91492,-0.12906
6959.84339,-0.04041
6961.77186,-0.00660
6963.70033,0.01911
6965.62880,0.03800
6967.55727,0.00774
6969.48573,0.00673
6971.41420,0.00814
6973.34267,-0.08455
6975.27114,-0.11628
6977.19961,-0.01215
6979.12808,0.10219
6981.05655,0.12284
6982.98501,0.03268
6984.91348,-0.08902
6986.84195,-0.16231
6988.77042,-0.09253
6990.69889,0.06508
6992.62736,0.12025
6994.55583,0.07436
6996.48430,0.02743
6998.41276,0.02732
7000.34123,0.07940
7002.26970,0.09392
7004.19817,0.02158
7006.12664,-0.07182
7008.05511,-0.10920
7009.98358,-0.04981
7011.91204,0.05810
7013.84051,0.06593
7015.76898,-0.00994
7017.69745,0.05493
7019.62592,0.21533
7021.55439,0.26934
7023.48286,0.25495
7025.41133,0.29394
7027.33979,0.39171
7029.26826,0.42445
7031.19673,0.27816
7033.12520,0.01958
7035.05367,-0.12957
7036.98214,-0.01649
7038.91061,0.15969
7040.83907,0.22901
7042.76754,0.14512
7044.69601,-0.04306
7046.62448,-0.17632
7048.55295,-0.13476
7050.48142,-0.00236
7052.40989,0.12802
7054.33836,0.25437
7056.26682,0.32010
7058.19529,0.25635
7060.12376,0.14365
7062.05223,0.14013
7063.98070,0.19557
7065.90917,0.10350
7067.83764,-0.08136
7069.76610,-0.12367
7071.69457,0.04221
7073.62304,0.11323
7075.55151,-0.01213
7077.47998,-0.08465
7079.40845,-0.05848
7081.33692,-0.13253
7083.26539,-0.20413
7085.19385,-0.12671
7087.12232,-0.02121
7089.05079,0.03424
7090.97926,0.04728
7092.90773,0.05937
7094.83620,0.10626
7096.76467,0.13054
7098.69313,0.07332
7100.62160,-0.00682
7102.55007,-0.02552
7104.47854,0.05901
7106.40701,0.20688
7108.33548,0.26373
7110.26395,0.21245
7112.19242,0.18427
7114.12088,0.18228
7116.04935,0.11754
7117.97782,0.01442
7119.90629,-0.04588
7121.83476,-0.04516
7123.76323,-0.02164
7125.69170,-0.02149
7127.62016,0.01139
7129.54863,0.11455
7131.47710,0.19734
7133.40557,0.17848
7135.33404,0.08596
7137.26251,0.01488
7139.19098,-0.01249
7141.11944,-0.05755
7143.04791,-0.09719
7144.97638,-0.06968
7146.90485,0.05482
7148.83332,0.19783
7150.76179,0.21564
7152.69026,0.13441
7154.61873,0.12348
7156.54719,0.21144
7158.47566,0.29305
7160.40413,0.27759
7162.33260,0.19526
7164.26107,0.15058
7166.18954,0.05660
7168.11801,-0.09493
7170.04647,-0.07660
7171.97494,0.08801
7173.90341,0.23978
7175.83188,0.40401
7177.76035,0.51026
7179.68882,0.40207
7181.61729,0.18514
7183.54576,0.18417
7185.47422,0.32561
7187.40269,0.28436
7189.33116,0.12377
7191.25963,0.09025
7193.18810,0.10681
7195.11657,0.00418
7197.04504,-0.04882
7198.97350,0.00069
7200.90197,0.05221
7202.83044,0.10277
7204.75891,0.14343
7206.68738,0.13411
7208.61585,0.14016
7210.54432,0.18277
7212.47279,0.18128
7214.40125,0.14299
7216.32972,0.14353
7218.25819,0.12802
7220.18666,0.13822
7222.11513,0.25560
7224.04360,0.28571
7225.97207,0.14897
7227.90053,0.12725
7229.82900,0.25417
7231.75747,0.24548
7233.68594,0.11062
7235.61441,0.02049
7237.54288,-0.03192
7239.47135,-0.07345
7241.39982,-0.14414
7243.32828,-0.17419
7245.25675,-0.06882
7247.18522,0.03672
7249.11369,0.08063
7251.04216,0.04605
7252.97063,-0.01796
7254.89910,0.01909
7256.82756,0.05429
7258.75603,0.08195
7260.68450,0.14333
7262.61297,0.10288
7264.54144,0.05408
7266.46991,0.12641
7268.39838,0.16676
7270.32685,0.13670
7272.25531,0.08240
7274.18378,0.08631
7276.11225,0.10616
7278.04072,0.03383
7279.96919,-0.02773
7281.89766,-0.01062
7283.82613,-0.07547
7285.75459,-0.14185
7287.68306,-0.17125
7289.61153,-0.18714
7291.54000,-0.11346
7293.46847,0.03415
7295.39694,0.19881
7297.32541,0.37224
7299.25387,0.39929
7301.18234,0.25743
7303.11081,0.11644
7305.03928,0.02473
7306.96775,-0.09102
7308.89622,-0.19480
7310.82469,-0.19908
7312.75316,-0.11894
7314.68162,0.07156
7316.61009,0.29390
7318.53856,0.29008
7320.46703,0.16466
7322.39550,0.17455
7324.32397,0.26681
7326.25244,0.18690
7328.18090,-0.01048
7330.10937,-0.05267
7332.03784,0.01472
7333.96631,0.05830
7335.89478,0.14973
7337.82325,0.30584
7339.75172,0.41297
7341.68019,0.37053
7343.60865,0.35332
7345.53712,0.34481
7347.46559,0.24813
7349.39406,0.15386
7351.32253,0.19875
7353.25100,0.26484
7355.17947,0.16766
7357.10793,-0.00187
7359.03640,-0.02199
7360.96487,0.07848
7362.89334,0.18243
7364.82181,0.25725
7366.75028,0.24914
7368.67875,0.18645
7370.60722,0.16057
7372.53568,0.10252
7374.46415,0.00157
7376.39262,0.06119
7378.32109,0.15327
7380.24956,0.15283
7382.17803,0.18106
7384.10650,0.21301
7386.03496,0.09282
7387.96343,-0.03676
7389.89190,0.01353
7391.82037,0.14619
7393.74884,0.28700
7395.67731,0.35628
7397.60578,0.28189
7399.53425,0.10578
7401.46271,-0.11666
7403.39118,-0.27263
7405.31965,-0.21848
7407.24812,-0.05545
7409.17659,0.10741
7411.10506,0.23692
7413.03353,0.22384
7414.96199,0.10262
7416.89046,0.00541
7418.81893,-0.02842
7420.74740,-0.00836
7422.67587,0.01581
7424.60434,0.00911
7426.53281,0.03397
7428.46128,0.11873
7430.38974,0.20728
7432.31821,0.30049
7434.24668,0.42645
7436.17515,0.49158
7438.10362,0.47578
7440.03209,0.43039
7441.96056,0.31860
7443.88902,0.18385
7445.81749,0.13129
7447.74596,0.11082
7449.67443,-0.00147
7451.60290,-0.17908
7453.53137,-0.17703
7455.45984,-0.00596
7457.38831,0.08301
7459.31677,-0.00668
7461.24524,-0.11904
7463.17371,-0.05852
7465.10218,0.11070
7467.03065,0.14453
7468.95912,0.02125
7470.88759,-0.02921
7472.81605,0.07498
7474.74452,0.13643
7476.67299,0.13134
7478.60146,0.17342
7480.52993,0.20503
7482.45840,0.09165
7484.38687,-0.14474
7486.31533,-0.30616
7488.24380,-0.20862
7490.17227,0.05307
7492.10074,0.23146
7494.02921,0.21525
7495.95768,0.04175
7497.88615,-0.20537
