399.19301,0.83628
401.12148,0.74400
403.04995,0.43067
404.97842,0.16974
406.90689,0.06375
408.83536,0.07878
410.76382,0.16043
412.69229,0.23257
414.62076,0.24005
416.54923,0.09839
418.47770,-0.13839
420.40617,-0.07596
422.33464,0.11596
424.26311,0.18421
426.19157,0.20728
428.12004,0.25236
430.04851,0.27742
431.97698,0.23592
433.90545,0.18484
435.83392,0.16937
437.76239,0.14752
439.69085,0.09822
441.61932,0.03190
443.54779,-0.00809
445.47626,0.04129
447.40473,0.10134
449.33320,0.09371
451.26167,0.12296
453.19013,0.21267
455.11860,0.25610
457.04707,0.22702
458.97554,0.17510
460.90401,0.14158
462.83248,0.13864
464.76095,0.13480
466.68942,0.09901
468.61788,0.05005
470.54635,-0.01924
472.47482,-0.08822
474.40329,-0.01589
476.33176,0.08807
478.26023,0.10851
480.18870,0.12377
482.11716,0.15413
484.04563,0.16649
485.97410,0.16287
487.90257,0.15540
489.83104,0.12468
491.75951,0.09747
493.68798,0.07382
495.61645,0.04349
497.54491,0.04052
499.47338,0.04906
501.40185,0.03530
503.33032,0.01379
505.25879,0.02354
507.18726,0.07871
509.11573,0.13463
511.04419,0.15133
512.97266,0.15713
514.90113,0.16922
516.82960,0.16768
518.75807,0.15178
520.68654,0.14303
522.61501,0.14520
524.54348,0.13939
526.47194,0.12546
528.40041,0.12541
530.32888,0.14926
532.25735,0.16709
534.18582,0.14206
536.11429,0.11500
538.04276,0.12729
539.97122,0.13020
541.89969,0.11410
543.82816,0.11231
545.75663,0.10887
547.68510,0.10560
549.61357,0.20018
551.54204,0.58492
553.47051,0.97865
555.39897,0.80245
557.32744,0.33321
559.25591,0.14408
561.18438,0.12498
563.11285,0.10544
565.04132,0.09393
566.96979,0.08948
568.89825,0.09182
570.82672,0.09440
572.75519,0.11569
574.68366,0.15421
576.61213,0.16566
578.54060,0.14925
580.46907,0.13271
582.39754,0.12209
584.32600,0.13264
586.25447,0.13643
588.18294,0.09966
590.11141,0.07080
592.03988,0.08372
593.96835,0.10703
595.89682,0.11392
597.82528,0.11540
599.75375,0.12393
601.68222,0.13326
603.61069,0.14135
605.53916,0.15349
607.46763,0.16730
609.39610,0.16915
611.32456,0.14578
613.25303,0.12117
615.18150,0.12662
617.10997,0.13554
619.03844,0.13235
620.96691,0.14052
622.89538,0.15129
624.82385,0.15317
626.75231,0.15132
628.68078,0.14136
630.60925,0.12638
632.53772,0.11743
634.46619,0.11740
636.39466,0.11846
638.32313,0.11417
640.25159,0.11224
642.18006,0.11927
644.10853,0.12482
646.03700,0.12071
647.96547,0.11463
649.89394,0.10721
651.82241,0.10573
653.75088,0.12261
655.67934,0.14072
657.60781,0.14831
659.53628,0.14176
661.46475,0.12597
663.39322,0.12583
665.32169,0.14568
667.25016,0.17467
669.17862,0.19383
671.10709,0.19806
673.03556,0.19664
674.96403,0.17709
676.89250,0.14551
678.82097,0.13060
680.74944,0.13236
682.67791,0.13041
684.60637,0.12526
686.53484,0.12518
688.46331,0.13197
690.39178,0.13199
692.32025,0.12048
694.24872,0.11556
696.17719,0.11981
698.10565,0.12428
700.03412,0.12833
701.96259,0.12955
703.89106,0.13062
705.81953,0.14184
707.74800,0.15106
709.67647,0.15174
711.60494,0.16102
713.53340,0.16547
715.46187,0.15166
717.39034,0.14265
719.31881,0.14993
721.24728,0.16164
723.17575,0.16287
725.10422,0.15213
727.03268,0.13905
728.96115,0.12453
730.88962,0.11047
732.81809,0.11332
734.74656,0.13204
736.67503,0.14568
738.60350,0.15012
740.53197,0.14900
742.46043,0.14803
744.38890,0.15630
746.31737,0.16081
748.24584,0.14799
750.17431,0.14027
752.10278,0.15187
754.03125,0.15615
755.95971,0.14048
757.88818,0.12494
759.81665,0.11984
761.74512,0.11974
763.67359,0.12074
765.60206,0.12212
767.53053,0.12471
769.45900,0.12595
771.38746,0.12307
773.31593,0.12632
775.24440,0.13563
777.17287,0.13596
779.10134,0.13565
781.02981,0.14667
782.95828,0.15666
784.88674,0.15158
786.81521,0.13627
788.74368,0.12766
790.67215,0.12990
792.60062,0.13367
794.52909,0.13643
796.45756,0.14131
798.38602,0.14676
800.31449,0.15008
802.24296,0.14667
804.17143,0.13618
806.09990,0.13281
808.02837,0.13940
809.95684,0.14003
811.88531,0.13442
813.81377,0.13177
815.74224,0.13522
817.67071,0.14528
819.59918,0.15110
821.52765,0.15049
823.45612,0.15613
825.38459,0.16576
827.31305,0.16721
829.24152,0.15749
831.16999,0.14656
833.09846,0.14794
835.02693,0.15432
836.95540,0.14666
838.88387,0.13196
840.81234,0.12867
842.74080,0.13755
844.66927,0.14867
846.59774,0.15503
848.52621,0.15853
850.45468,0.16249
852.38315,0.16679
854.31162,0.16934
856.24008,0.16651
858.16855,0.16164
860.09702,0.15893
862.02549,0.15414
863.95396,0.14832
865.88243,0.14620
867.81090,0.14257
869.73937,0.13754
871.66783,0.13812
873.59630,0.13883
875.52477,0.13676
877.45324,0.13219
879.38171,0.11662
881.31018,0.10259
883.23865,0.10953
885.16711,0.12483
887.09558,0.13059
889.02405,0.13066
890.95252,0.13510
892.88099,0.14307
894.80946,0.14422
896.73793,0.13639
898.66640,0.13070
900.59486,0.13275
902.52333,0.13689
904.45180,0.13815
906.38027,0.13634
908.30874,0.13538
910.23721,0.13745
912.16568,0.13848
914.09414,0.14025
916.02261,0.14493
917.95108,0.14877
919.87955,0.15343
921.80802,0.15559
923.73649,0.14971
925.66496,0.14397
927.59343,0.14587
929.52189,0.15010
931.45036,0.15104
933.37883,0.14891
935.30730,0.14462
937.23577,0.14256
939.16424,0.14426
941.09271,0.14604
943.02117,0.14629
944.94964,0.14497
946.87811,0.14634
948.80658,0.15331
950.73505,0.15679
952.66352,0.14854
954.59199,0.13782
956.52045,0.13672
958.44892,0.14620
960.37739,0.15996
962.30586,0.16645
964.23433,0.16310
966.16280,0.15864
968.09127,0.15982
970.01974,0.16387
971.94820,0.16148
973.87667,0.15281
975.80514,0.15100
977.73361,0.15970
979.66208,0.16486
981.59055,0.15873
983.51902,0.14829
985.44748,0.14333
987.37595,0.14740
989.30442,0.15465
991.23289,0.16104
993.16136,0.16476
995.08983,0.16163
997.01830,0.15248
998.94677,0.14489
1000.87523,0.14608
1002.80370,0.15327
1004.73217,0.15916
1006.66064,0.16362
1008.58911,0.16511
1010.51758,0.15982
1012.44605,0.15532
1014.37451,0.16070
1016.30298,0.16923
1018.23145,0.16931
1020.15992,0.16102
1022.08839,0.15302
1024.01686,0.15509
1025.94533,0.16570
1027.87380,0.17529
1029.80226,0.17626
1031.73073,0.16250
1033.65920,0.14786
1035.58767,0.14971
1037.51614,0.15852
1039.44461,0.16146
1041.37308,0.15888
1043.30154,0.15474
1045.23001,0.14848
1047.15848,0.13960
1049.08695,0.13620
1051.01542,0.14589
1052.94389,0.16038
1054.87236,0.16107
1056.80083,0.15328
1058.72929,0.15753
1060.65776,0.16938
1062.58623,0.17367
1064.51470,0.16970
1066.44317,0.16085
1068.37164,0.15228
1070.30011,0.15335
1072.22857,0.15968
1074.15704,0.16199
1076.08551,0.16233
1078.01398,0.16283
1079.94245,0.16492
1081.87092,0.16835
1083.79939,0.16938
1085.72786,0.16811
1087.65632,0.16497
1089.58479,0.16169
1091.51326,0.16334
1093.44173,0.16424
1095.37020,0.15486
1097.29867,0.14419
1099.22714,0.14747
1101.15560,0.16286
1103.08407,0.17286
1105.01254,0.16538
1106.94101,0.15243
1108.86948,0.14935
1110.79795,0.15195
1112.72642,0.15576
1114.65489,0.16466
1116.58335,0.17049
1118.51182,0.16057
1120.44029,0.14828
1122.36876,0.15237
1124.29723,0.16375
1126.22570,0.16894
1128.15417,0.16670
1130.08263,0.16234
1132.01110,0.16201
1133.93957,0.16266
1135.86804,0.15987
1137.79651,0.15720
1139.72498,0.15837
1141.65345,0.16102
1143.58191,0.16275
1145.51038,0.16535
1147.43885,0.16941
1149.36732,0.16974
1151.29579,0.16473
1153.22426,0.16245
1155.15273,0.16371
1157.08120,0.16450
1159.00966,0.16674
1160.93813,0.16661
1162.86660,0.16245
1164.79507,0.16022
1166.72354,0.15748
1168.65201,0.15215
1170.58048,0.15035
1172.50894,0.15364
1174.43741,0.16000
1176.36588,0.16656
1178.29435,0.16774
1180.22282,0.16264
1182.15129,0.15825
1184.07976,0.16012
1186.00823,0.16390
1187.93669,0.16527
1189.86516,0.16644
1191.79363,0.16935
1193.72210,0.17252
1195.65057,0.17116
1197.57904,0.16451
1199.50751,0.15521
1201.43597,0.14743
1203.36444,0.14834
1205.29291,0.15582
1207.22138,0.16329
1209.14985,0.16948
1211.07832,0.17183
1213.00679,0.17014
1214.93526,0.16704
1216.86372,0.16448
1218.79219,0.16417
1220.72066,0.16413
1222.64913,0.16417
1224.57760,0.16530
1226.50607,0.16290
1228.43454,0.15739
1230.36300,0.15569
1232.29147,0.15791
1234.21994,0.15925
1236.14841,0.15861
1238.07688,0.15875
1240.00535,0.16137
1241.93382,0.16399
1243.86229,0.16234
1245.79075,0.15639
1247.71922,0.15333
1249.64769,0.15617
1251.57616,0.15664
1253.50463,0.15552
1255.43310,0.16135
1257.36157,0.16490
1259.29003,0.15578
1261.21850,0.14641
1263.14697,0.14917
1265.07544,0.15600
1267.00391,0.15465
1268.93238,0.14676
1270.86085,0.14597
1272.78932,0.15461
1274.71778,0.15903
1276.64625,0.15838
1278.57472,0.15943
1280.50319,0.15560
1282.43166,0.14864
1284.36013,0.14985
1286.28860,0.15160
1288.21706,0.14782
1290.14553,0.14855
1292.07400,0.15390
1294.00247,0.15853
1295.93094,0.15852
1297.85941,0.14881
1299.78788,0.13086
1301.71634,0.10660
1303.64481,0.08445
1305.57328,0.09098
1307.50175,0.12914
1309.43022,0.15931
1311.35869,0.16612
1313.28716,0.16665
1315.21563,0.16508
1317.14409,0.16425
1319.07256,0.16689
1321.00103,0.16701
1322.92950,0.16673
1324.85797,0.16261
1326.78644,0.15246
1328.71491,0.14942
1330.64337,0.14832
1332.57184,0.14445
1334.50031,0.14551
1336.42878,0.14539
1338.35725,0.14372
1340.28572,0.13898
1342.21419,0.13282
1344.14266,0.13279
1346.07112,0.13169
1347.99959,0.13511
1349.92806,0.14680
1351.85653,0.15225
1353.78500,0.14995
1355.71347,0.14956
1357.64194,0.15562
1359.57040,0.16472
1361.49887,0.17322
1363.42734,0.17694
1365.35581,0.17254
1367.28428,0.16677
1369.21275,0.16610
1371.14122,0.17123
1373.06969,0.17916
1374.99815,0.18384
1376.92662,0.18372
1378.85509,0.18309
1380.78356,0.18165
1382.71203,0.17871
1384.64050,0.17858
1386.56897,0.18243
1388.49743,0.18298
1390.42590,0.18167
1392.35437,0.18513
1394.28284,0.18979
1396.21131,0.19112
1398.13978,0.19041
1400.06825,0.18800
1401.99672,0.18775
1403.92518,0.19004
1405.85365,0.18812
1407.78212,0.18430
1409.71059,0.18490
1411.63906,0.18729
1413.56753,0.18720
1415.49600,0.18665
1417.42446,0.18956
1419.35293,0.19028
1421.28140,0.18711
1423.20987,0.18739
1425.13834,0.18907
1427.06681,0.18881
1428.99528,0.18663
1430.92375,0.18460
1432.85221,0.18606
1434.78068,0.19253
1436.70915,0.19726
1438.63762,0.19008
1440.56609,0.17973
1442.49456,0.17410
1444.42303,0.17606
1446.35149,0.18416
1448.27996,0.19264
1450.20843,0.19514
1452.13690,0.19309
1454.06537,0.19359
1455.99384,0.20264
1457.92231,0.20657
1459.85077,0.19355
1461.77924,0.18763
1463.70771,0.19130
1465.63618,0.19303
1467.56465,0.18965
1469.49312,0.19114
1471.42159,0.20045
1473.35006,0.20664
1475.27852,0.20114
1477.20699,0.19392
1479.13546,0.19155
1481.06393,0.19347
1482.99240,0.19440
1484.92087,0.19582
1486.84934,0.20324
1488.77780,0.21178
1490.70627,0.20562
1492.63474,0.19383
1494.56321,0.19337
1496.49168,0.20347
1498.42015,0.20947
1500.34862,0.20455
1502.27709,0.19824
1504.20555,0.20324
1506.13402,0.22880
1508.06249,0.23309
1509.99096,0.20976
1511.91943,0.20066
1513.84790,0.20626
1515.77637,0.21856
1517.70483,0.22545
1519.63330,0.22583
1521.56177,0.22794
1523.49024,0.22553
1525.41871,0.21638
1527.34718,0.20660
1529.27565,0.20026
1531.20412,0.19971
1533.13258,0.20487
1535.06105,0.20775
1536.98952,0.21242
1538.91799,0.23210
1540.84646,0.24842
1542.77493,0.23293
1544.70340,0.21579
1546.63186,0.20458
1548.56033,0.20043
1550.48880,0.20012
1552.41727,0.20099
1554.34574,0.20668
1556.27421,0.21877
1558.20268,0.23548
1560.13115,0.22660
1562.05961,0.20622
1563.98808,0.19627
1565.91655,0.19207
1567.84502,0.19003
1569.77349,0.18852
1571.70196,0.18807
1573.63043,0.19100
1575.55889,0.19634
1577.48736,0.19463
1579.41583,0.18603
1581.34430,0.17968
1583.27277,0.17795
1585.20124,0.17769
1587.12971,0.17740
1589.05818,0.17973
1590.98664,0.18365
1592.91511,0.18542
1594.84358,0.18387
1596.77205,0.18138
1598.70052,0.18232
1600.62899,0.18548
1602.55746,0.18519
1604.48592,0.18314
1606.41439,0.18392
1608.34286,0.18521
1610.27133,0.18661
1612.19980,0.19143
1614.12827,0.20087
1616.05674,0.21122
1617.98521,0.20842
1619.91367,0.20098
1621.84214,0.20161
1623.77061,0.20224
1625.69908,0.19733
1627.62755,0.19487
1629.55602,0.19542
1631.48449,0.19806
1633.41295,0.20709
1635.34142,0.22203
1637.26989,0.22276
1639.19836,0.21000
1641.12683,0.20005
1643.05530,0.20127
1644.98377,0.21763
1646.91223,0.23551
1648.84070,0.23327
1650.76917,0.23394
1652.69764,0.24297
1654.62611,0.22471
1656.55458,0.20522
1658.48305,0.19937
1660.41152,0.19847
1662.33998,0.20029
1664.26845,0.20282
1666.19692,0.20493
1668.12539,0.21311
1670.05386,0.22179
1671.98233,0.21590
1673.91080,0.20762
1675.83926,0.20456
1677.76773,0.20425
1679.69620,0.20903
1681.62467,0.22187
1683.55314,0.23490
1685.48161,0.22589
1687.41008,0.21170
1689.33855,0.20559
1691.26701,0.20397
1693.19548,0.20610
1695.12395,0.21081
1697.05242,0.21608
1698.98089,0.22238
1700.90936,0.22585
1702.83783,0.22621
1704.76629,0.22497
1706.69476,0.21622
1708.62323,0.20452
1710.55170,0.19821
1712.48017,0.19838
1714.40864,0.20538
1716.33711,0.21607
1718.26558,0.21172
1720.19404,0.19671
1722.12251,0.18935
1724.05098,0.18969
1725.97945,0.19329
1727.90792,0.19721
1729.83639,0.20099
1731.76486,0.20612
1733.69332,0.20849
1735.62179,0.20165
1737.55026,0.20032
1739.47873,0.20563
1741.40720,0.20581
1743.33567,0.20245
1745.26414,0.20456
1747.19261,0.21006
1749.12107,0.21248
1751.04954,0.20981
1752.97801,0.20429
1754.90648,0.19826
1756.83495,0.19293
1758.76342,0.19185
1760.69189,0.19633
1762.62035,0.19954
1764.54882,0.19844
1766.47729,0.19833
1768.40576,0.20184
1770.33423,0.20874
1772.26270,0.21166
1774.19117,0.20425
1776.11964,0.19674
1778.04810,0.19532
1779.97657,0.19624
1781.90504,0.19431
1783.83351,0.19319
1785.76198,0.19510
1787.69045,0.19708
1789.61892,0.20088
1791.54738,0.20676
1793.47585,0.20545
1795.40432,0.19806
1797.33279,0.19417
1799.26126,0.19596
1801.18973,0.19899
1803.11820,0.19796
1805.04666,0.19536
1806.97513,0.19441
1808.90360,0.19484
1810.83207,0.19410
1812.76054,0.19134
1814.68901,0.18998
1816.61748,0.19474
1818.54595,0.20630
1820.47441,0.21410
1822.40288,0.21171
1824.33135,0.20455
1826.25982,0.20138
1828.18829,0.20621
1830.11676,0.20912
1832.04523,0.20119
1833.97369,0.19205
1835.90216,0.18828
1837.83063,0.18687
1839.75910,0.18678
1841.68757,0.19018
1843.61604,0.19328
1845.54451,0.19364
1847.47298,0.19505
1849.40144,0.19602
1851.32991,0.19409
1853.25838,0.19089
1855.18685,0.18861
1857.11532,0.18731
1859.04379,0.18670
1860.97226,0.18744
1862.90072,0.18919
1864.82919,0.19094
1866.75766,0.19372
1868.68613,0.19651
1870.61460,0.19521
1872.54307,0.19224
1874.47154,0.19090
1876.40001,0.19094
1878.32847,0.19224
1880.25694,0.19421
1882.18541,0.19451
1884.11388,0.19370
1886.04235,0.19338
1887.97082,0.19280
1889.89929,0.19242
1891.82775,0.19470
1893.75622,0.19789
1895.68469,0.19610
1897.61316,0.19150
1899.54163,0.19134
1901.47010,0.19342
1903.39857,0.19402
1905.32704,0.19349
1907.25550,0.19151
1909.18397,0.18978
1911.11244,0.19064
1913.04091,0.19259
1914.96938,0.19457
1916.89785,0.19619
1918.82632,0.19513
1920.75478,0.19294
1922.68325,0.19364
1924.61172,0.19493
1926.54019,0.19282
1928.46866,0.18916
1930.39713,0.18756
1932.32560,0.18894
1934.25407,0.19075
1936.18253,0.19103
1938.11100,0.19142
1940.03947,0.19351
1941.96794,0.19660
1943.89641,0.19748
1945.82488,0.19540
1947.75335,0.19351
1949.68181,0.19237
1951.61028,0.19153
1953.53875,0.19092
1955.46722,0.18939
1957.39569,0.18781
1959.32416,0.18870
1961.25263,0.19158
1963.18110,0.19317
1965.10956,0.19193
1967.03803,0.18888
1968.96650,0.18652
1970.89497,0.18674
1972.82344,0.18856
1974.75191,0.19211
1976.68038,0.19718
1978.60884,0.19792
1980.53731,0.19225
1982.46578,0.18757
1984.39425,0.18902
1986.32272,0.19353
1988.25119,0.19576
1990.17966,0.19470
1992.10812,0.19291
1994.03659,0.19118
1995.96506,0.18976
1997.89353,0.19030
1999.82200,0.19209
2001.75047,0.19230
2003.67894,0.19116
2005.60741,0.18932
2007.53587,0.18637
2009.46434,0.18486
2011.39281,0.18732
2013.32128,0.19191
2015.24975,0.19444
2017.17822,0.19306
2019.10669,0.18975
2021.03515,0.18798
2022.96362,0.18951
2024.89209,0.19138
2026.82056,0.19029
2028.74903,0.18781
2030.67750,0.18640
2032.60597,0.18677
2034.53444,0.18841
2036.46290,0.19005
2038.39137,0.19131
2040.31984,0.19158
2042.24831,0.19041
2044.17678,0.18992
2046.10525,0.19081
2048.03372,0.19135
2049.96218,0.19283
2051.89065,0.19499
2053.81912,0.19386
2055.74759,0.19084
2057.67606,0.19000
2059.60453,0.18948
2061.53300,0.18751
2063.46147,0.18734
2065.38993,0.18951
2067.31840,0.19108
2069.24687,0.19200
2071.17534,0.19297
2073.10381,0.19302
2075.03228,0.19203
2076.96075,0.19083
2078.88921,0.18983
2080.81768,0.18908
2082.74615,0.18897
2084.67462,0.18958
2086.60309,0.19120
2088.53156,0.19353
2090.46003,0.19369
2092.38850,0.19182
2094.31696,0.19075
2096.24543,0.18960
2098.17390,0.18782
2100.10237,0.18715
2102.03084,0.18870
2103.95931,0.19137
2105.88778,0.19186
2107.81624,0.19010
2109.74471,0.18954
2111.67318,0.19092
2113.60165,0.19215
2115.53012,0.19319
2117.45859,0.19466
2119.38706,0.19447
2121.31553,0.19266
2123.24399,0.19150
2125.17246,0.19157
2127.10093,0.19263
2129.02940,0.19274
2130.95787,0.19135
2132.88634,0.18927
2134.81481,0.18695
2136.74327,0.18625
2138.67174,0.18644
2140.60021,0.18680
2142.52868,0.18774
2144.45715,0.18938
2146.38562,0.19226
2148.31409,0.19325
2150.24255,0.19110
2152.17102,0.18957
2154.09949,0.19047
2156.02796,0.19245
2157.95643,0.19396
2159.88490,0.19428
2161.81337,0.19343
2163.74184,0.19350
2165.67030,0.19431
2167.59877,0.19236
2169.52724,0.18993
2171.45571,0.19180
2173.38418,0.19439
2175.31265,0.19363
2177.24112,0.19185
2179.16958,0.18977
2181.09805,0.18723
2183.02652,0.18684
2184.95499,0.18966
2186.88346,0.19343
2188.81193,0.19420
2190.74040,0.19161
2192.66887,0.18967
2194.59733,0.18989
2196.52580,0.19080
2198.45427,0.19109
2200.38274,0.19100
2202.31121,0.19027
2204.23968,0.18709
2206.16815,0.18490
2208.09661,0.18803
2210.02508,0.19159
2211.95355,0.19067
2213.88202,0.18906
2215.81049,0.18948
2217.73896,0.18970
2219.66743,0.18960
2221.59590,0.18932
2223.52436,0.18782
2225.45283,0.18711
2227.38130,0.18864
2229.30977,0.18982
2231.23824,0.18952
2233.16671,0.18999
2235.09518,0.19067
2237.02364,0.19062
2238.95211,0.19123
2240.88058,0.19094
2242.80905,0.18890
2244.73752,0.18844
2246.66599,0.19041
2248.59446,0.19294
2250.52293,0.19508
2252.45139,0.19475
2254.37986,0.19138
2256.30833,0.18871
2258.23680,0.18985
2260.16527,0.19233
2262.09374,0.19083
2264.02221,0.18604
2265.95067,0.18333
2267.87914,0.18369
2269.80761,0.18523
2271.73608,0.18738
2273.66455,0.18920
2275.59302,0.19021
2277.52149,0.19116
2279.44996,0.19018
2281.37842,0.18731
2283.30689,0.18688
2285.23536,0.18721
2287.16383,0.18476
2289.09230,0.18293
2291.02077,0.18372
2292.94924,0.18431
2294.87770,0.18319
2296.80617,0.18254
2298.73464,0.18516
2300.66311,0.18987
2302.59158,0.19366
2304.52005,0.19483
2306.44852,0.19238
2308.37699,0.18777
2310.30545,0.18403
2312.23392,0.18130
2314.16239,0.17962
2316.09086,0.18003
2318.01933,0.18045
2319.94780,0.18113
2321.87627,0.18282
2323.80473,0.17988
2325.73320,0.17206
2327.66167,0.16678
2329.59014,0.16990
2331.51861,0.17855
2333.44708,0.18322
2335.37555,0.18205
2337.30401,0.17932
2339.23248,0.18451
2341.16095,0.19702
2343.08942,0.19796
2345.01789,0.18713
2346.94636,0.18180
2348.87483,0.18559
2350.80330,0.19601
2352.73176,0.20449
2354.66023,0.19243
2356.58870,0.16686
2358.51717,0.15761
2360.44564,0.15832
2362.37411,0.15461
2364.30258,0.15720
2366.23104,0.16484
2368.15951,0.16587
2370.08798,0.16144
2372.01645,0.16169
2373.94492,0.17090
2375.87339,0.18073
2377.80186,0.18424
2379.73033,0.18437
2381.65879,0.18588
2383.58726,0.18941
2385.51573,0.19187
2387.44420,0.19173
2389.37267,0.19144
2391.30114,0.19215
2393.22961,0.19240
2395.15807,0.19264
2397.08654,0.19450
2399.01501,0.19735
2400.94348,0.19901
2402.87195,0.19797
2404.80042,0.19452
2406.72889,0.19082
2408.65736,0.18928
2410.58582,0.18932
2412.51429,0.18852
2414.44276,0.18785
2416.37123,0.18886
2418.29970,0.19038
2420.22817,0.19113
2422.15664,0.19017
2424.08510,0.18745
2426.01357,0.18545
2427.94204,0.18685
2429.87051,0.19061
2431.79898,0.19277
2433.72745,0.19123
2435.65592,0.18845
2437.58439,0.18761
2439.51285,0.18886
2441.44132,0.19103
2443.36979,0.19291
2445.29826,0.19258
2447.22673,0.18966
2449.15520,0.18660
2451.08367,0.18673
2453.01213,0.19054
2454.94060,0.19228
2456.86907,0.19087
2458.79754,0.19151
2460.72601,0.19338
2462.65448,0.19550
2464.58295,0.19790
2466.51142,0.19749
2468.43988,0.19424
2470.36835,0.19214
2472.29682,0.19349
2474.22529,0.19561
2476.15376,0.19608
2478.08223,0.19531
2480.01070,0.19469
2481.93916,0.19479
2483.86763,0.19459
2485.79610,0.19426
2487.72457,0.19359
2489.65304,0.19202
2491.58151,0.19022
2493.50998,0.18732
2495.43844,0.18429
2497.36691,0.18504
2499.29538,0.18881
2501.22385,0.19246
2503.15232,0.19469
2505.08079,0.19403
2507.00926,0.19207
2508.93773,0.19082
2510.86619,0.18992
2512.79466,0.19190
2514.72313,0.19680
2516.65160,0.19795
2518.58007,0.19425
2520.50854,0.19275
2522.43701,0.19528
2524.36547,0.19605
2526.29394,0.19326
2528.22241,0.19157
2530.15088,0.19255
2532.07935,0.19468
2534.00782,0.19674
2535.93629,0.19597
2537.86476,0.19320
2539.79322,0.19183
2541.72169,0.19169
2543.65016,0.19249
2545.57863,0.19418
2547.50710,0.19500
2549.43557,0.19440
2551.36404,0.19233
2553.29250,0.19024
2555.22097,0.18990
2557.14944,0.19020
2559.07791,0.19193
2561.00638,0.19585
2562.93485,0.19816
2564.86332,0.19591
2566.79179,0.19260
2568.72025,0.19275
2570.64872,0.19421
2572.57719,0.19443
2574.50566,0.19526
2576.43413,0.19655
2578.36260,0.19675
2580.29107,0.19620
2582.21953,0.19479
2584.14800,0.19328
2586.07647,0.19349
2588.00494,0.19417
2589.93341,0.19454
2591.86188,0.19670
2593.79035,0.19894
2595.71882,0.19651
2597.64728,0.19161
2599.57575,0.19101
2601.50422,0.19457
2603.43269,0.19780
2605.36116,0.19876
2607.28963,0.19805
2609.21810,0.19855
2611.14656,0.20097
2613.07503,0.20146
2615.00350,0.19884
2616.93197,0.19687
2618.86044,0.19774
2620.78891,0.19977
2622.71738,0.20087
2624.64585,0.20115
2626.57431,0.20143
2628.50278,0.20069
2630.43125,0.19887
2632.35972,0.19694
2634.28819,0.19651
2636.21666,0.19992
2638.14513,0.20415
2640.07359,0.20408
2642.00206,0.20140
2643.93053,0.20023
2645.85900,0.19997
2647.78747,0.19897
2649.71594,0.19876
2651.64441,0.19915
2653.57288,0.19854
2655.50134,0.19896
2657.42981,0.20141
2659.35828,0.20215
2661.28675,0.19913
2663.21522,0.19550
2665.14369,0.19433
2667.07216,0.19434
2669.00062,0.19342
2670.92909,0.19327
2672.85756,0.19545
2674.78603,0.19854
2676.71450,0.20093
2678.64297,0.20168
2680.57144,0.20124
2682.49990,0.19976
2684.42837,0.19753
2686.35684,0.19719
2688.28531,0.19840
2690.21378,0.19739
2692.14225,0.19572
2694.07072,0.19798
2695.99919,0.20243
2697.92765,0.20422
2699.85612,0.20261
2701.78459,0.19944
2703.71306,0.19717
2705.64153,0.19821
2707.57000,0.20165
2709.49847,0.20364
2711.42693,0.20245
2713.35540,0.20034
2715.28387,0.19839
2717.21234,0.19535
2719.14081,0.19364
2721.06928,0.19626
2722.99775,0.20047
2724.92622,0.20305
2726.85468,0.20500
2728.78315,0.20529
2730.71162,0.20197
2732.64009,0.19933
2734.56856,0.20039
2736.49703,0.20250
2738.42550,0.20207
2740.35396,0.19863
2742.28243,0.19658
2744.21090,0.19833
2746.13937,0.20137
2748.06784,0.20293
2749.99631,0.20328
2751.92478,0.20516
2753.85325,0.20672
2755.78171,0.20431
2757.71018,0.20148
2759.63865,0.20146
2761.56712,0.20202
2763.49559,0.20193
2765.42406,0.20203
2767.35253,0.20232
2769.28099,0.20130
2771.20946,0.20001
2773.13793,0.20210
2775.06640,0.20614
2776.99487,0.20746
2778.92334,0.20689
2780.85181,0.20685
2782.78028,0.20689
2784.70874,0.20702
2786.63721,0.20636
2788.56568,0.20480
2790.49415,0.20498
2792.42262,0.20859
2794.35109,0.21264
2796.27956,0.21297
2798.20802,0.21166
2800.13649,0.21144
2802.06496,0.21094
2803.99343,0.21023
2805.92190,0.21062
2807.85037,0.21069
2809.77884,0.21017
2811.70731,0.21157
2813.63577,0.21315
2815.56424,0.21222
2817.49271,0.20965
2819.42118,0.20713
2821.34965,0.20623
2823.27812,0.20603
2825.20659,0.20652
2827.13505,0.20851
2829.06352,0.20886
2830.99199,0.20789
2832.92046,0.21004
2834.84893,0.21292
2836.77740,0.21144
2838.70587,0.20701
2840.63433,0.20451
2842.56280,0.20666
2844.49127,0.20985
2846.41974,0.20978
2848.34821,0.20933
2850.27668,0.20982
2852.20515,0.20876
2854.13362,0.21005
2856.06208,0.21542
2857.99055,0.21768
2859.91902,0.21665
2861.84749,0.21656
2863.77596,0.21294
2865.70443,0.20644
2867.63290,0.20412
2869.56136,0.20426
2871.48983,0.20364
2873.41830,0.20245
2875.34677,0.19980
2877.27524,0.19761
2879.20371,0.19739
2881.13218,0.19706
2883.06065,0.19554
2884.98911,0.19525
2886.91758,0.19973
2888.84605,0.20676
2890.77452,0.21057
2892.70299,0.20683
2894.63146,0.19820
2896.55993,0.19593
2898.48839,0.19929
2900.41686,0.19784
2902.34533,0.19268
2904.27380,0.18824
2906.20227,0.18807
2908.13074,0.19621
2910.05921,0.20619
2911.98768,0.20882
2913.91614,0.19948
2915.84461,0.18222
2917.77308,0.17619
2919.70155,0.18619
2921.63002,0.19515
2923.55849,0.19240
2925.48696,0.18139
2927.41542,0.18042
2929.34389,0.19489
2931.27236,0.20354
2933.20083,0.19884
2935.12930,0.18584
2937.05777,0.17132
2938.98624,0.17450
2940.91471,0.19199
2942.84317,0.20013
2944.77164,0.18979
2946.70011,0.16900
2948.62858,0.16613
2950.55705,0.18683
2952.48552,0.20133
2954.41399,0.19762
2956.34245,0.18024
2958.27092,0.16729
2960.19939,0.17839
2962.12786,0.19887
2964.05633,0.20593
2965.98480,0.19582
2967.91327,0.18251
2969.84174,0.18633
2971.77020,0.20155
2973.69867,0.21130
2975.62714,0.20944
2977.55561,0.19485
2979.48408,0.18713
2981.41255,0.19962
2983.34102,0.21418
2985.26948,0.21364
2987.19795,0.19831
2989.12642,0.18778
2991.05489,0.19688
2992.98336,0.21018
2994.91183,0.21150
2996.84030,0.20373
2998.76877,0.19737
3000.69723,0.19989
3002.62570,0.20685
3004.55417,0.20765
3006.48264,0.19981
3008.41111,0.18883
3010.33958,0.17155
3012.26805,0.13821
3014.19651,0.09443
3016.12498,0.06911
3018.05345,0.09356
3019.98192,0.15117
3021.91039,0.19185
3023.83886,0.20363
3025.76733,0.20253
3027.69579,0.19838
3029.62426,0.19997
3031.55273,0.20693
3033.48120,0.21092
3035.40967,0.20922
3037.33814,0.20284
3039.26661,0.20052
3041.19508,0.20603
3043.12354,0.20927
3045.05201,0.20504
3046.98048,0.19802
3048.90895,0.19841
3050.83742,0.20759
3052.76589,0.21415
3054.69436,0.20783
3056.62282,0.19217
3058.55129,0.18908
3060.47976,0.20251
3062.40823,0.21200
3064.33670,0.20603
3066.26517,0.19092
3068.19364,0.18813
3070.12211,0.20163
3072.05057,0.21051
3073.97904,0.20425
3075.90751,0.19387
3077.83598,0.19754
3079.76445,0.21064
3081.69292,0.21197
3083.62139,0.19335
3085.54985,0.17403
3087.47832,0.17886
3089.40679,0.19634
3091.33526,0.20256
3093.26373,0.19270
3095.19220,0.18400
3097.12067,0.19354
3099.04914,0.20709
3100.97760,0.20591
3102.90607,0.19103
3104.83454,0.18446
3106.76301,0.19666
3108.69148,0.20724
3110.61995,0.20175
3112.54842,0.19109
3114.47688,0.19589
3116.40535,0.20883
3118.33382,0.20655
3120.26229,0.19129
3122.19076,0.18452
3124.11923,0.19474
3126.04770,0.20496
3127.97617,0.20372
3129.90463,0.19636
3131.83310,0.19554
3133.76157,0.20558
3135.69004,0.21237
3137.61851,0.20696
3139.54698,0.19855
3141.47545,0.19977
3143.40391,0.20685
3145.33238,0.20991
3147.26085,0.20994
3149.18932,0.21276
3151.11779,0.21866
3153.04626,0.22097
3154.97473,0.21820
3156.90320,0.21525
3158.83166,0.21484
3160.76013,0.21710
3162.68860,0.21873
3164.61707,0.21620
3166.54554,0.21505
3168.47401,0.22041
3170.40248,0.22663
3172.33094,0.22734
3174.25941,0.22428
3176.18788,0.22500
3178.11635,0.22886
3180.04482,0.22771
3181.97329,0.22190
3183.90176,0.21790
3185.83022,0.21747
3187.75869,0.21772
3189.68716,0.21647
3191.61563,0.21481
3193.54410,0.21461
3195.47257,0.21337
3197.40104,0.21086
3199.32951,0.21154
3201.25797,0.21403
3203.18644,0.21610
3205.11491,0.21751
3207.04338,0.21367
3208.97185,0.20782
3210.90032,0.21027
3212.82879,0.21905
3214.75725,0.22464
3216.68572,0.22460
3218.61419,0.22386
3220.54266,0.22288
3222.47113,0.22026
3224.39960,0.21777
3226.32807,0.21576
3228.25654,0.21711
3230.18500,0.22041
3232.11347,0.22103
3234.04194,0.22074
3235.97041,0.22121
3237.89888,0.22100
3239.82735,0.21912
3241.75582,0.21678
3243.68428,0.21257
3245.61275,0.20573
3247.54122,0.20422
3249.46969,0.21092
3251.39816,0.21702
3253.32663,0.21955
3255.25510,0.21994
3257.18357,0.21405
3259.11203,0.20596
3261.04050,0.20481
3262.96897,0.20941
3264.89744,0.21494
3266.82591,0.21776
3268.75438,0.21692
3270.68285,0.21532
3272.61131,0.21337
3274.53978,0.21278
3276.46825,0.21427
3278.39672,0.21308
3280.32519,0.21254
3282.25366,0.21541
3284.18213,0.21605
3286.11060,0.21503
3288.03906,0.21639
3289.96753,0.21828
3291.89600,0.21415
3293.82447,0.20467
3295.75294,0.20191
3297.68141,0.20993
3299.60988,0.21584
3301.53834,0.21063
3303.46681,0.20417
3305.39528,0.20738
3307.32375,0.21484
3309.25222,0.21667
3311.18069,0.21295
3313.10916,0.20998
3315.03763,0.21004
3316.96609,0.21020
3318.89456,0.21138
3320.82303,0.21558
3322.75150,0.21736
3324.67997,0.21505
3326.60844,0.21345
3328.53691,0.21344
3330.46537,0.21518
3332.39384,0.21784
3334.32231,0.21818
3336.25078,0.21781
3338.17925,0.21998
3340.10772,0.22395
3342.03619,0.22584
3343.96466,0.22231
3345.89312,0.21719
3347.82159,0.21640
3349.75006,0.21803
3351.67853,0.21917
3353.60700,0.22176
3355.53547,0.22305
3357.46394,0.22093
3359.39240,0.22028
3361.32087,0.21900
3363.24934,0.21509
3365.17781,0.21525
3367.10628,0.21896
3369.03475,0.22034
3370.96322,0.22021
3372.89168,0.22083
3374.82015,0.22227
3376.74862,0.22389
3378.67709,0.22307
3380.60556,0.21897
3382.53403,0.21508
3384.46250,0.21281
3386.39097,0.20893
3388.31943,0.20452
3390.24790,0.20449
3392.17637,0.20855
3394.10484,0.21387
3396.03331,0.21786
3397.96178,0.21776
3399.89025,0.21494
3401.81871,0.21446
3403.74718,0.21657
3405.67565,0.21654
3407.60412,0.21422
3409.53259,0.21203
3411.46106,0.21064
3413.38953,0.21015
3415.31800,0.20937
3417.24646,0.20763
3419.17493,0.20479
3421.10340,0.20444
3423.03187,0.21069
3424.96034,0.21611
3426.88881,0.21572
3428.81728,0.21755
3430.74574,0.21978
3432.67421,0.21400
3434.60268,0.20656
3436.53115,0.20476
3438.45962,0.20611
3440.38809,0.20663
3442.31656,0.20540
3444.24503,0.20390
3446.17349,0.20497
3448.10196,0.20686
3450.03043,0.20356
3451.95890,0.19920
3453.88737,0.19728
3455.81584,0.19322
3457.74431,0.19120
3459.67277,0.19679
3461.60124,0.20178
3463.52971,0.19829
3465.45818,0.19235
3467.38665,0.19154
3469.31512,0.19460
3471.24359,0.19643
3473.17206,0.19795
3475.10052,0.20311
3477.02899,0.20656
3478.95746,0.20252
3480.88593,0.19444
3482.81440,0.19112
3484.74287,0.19699
3486.67134,0.20257
3488.59980,0.20045
3490.52827,0.19835
3492.45674,0.19896
3494.38521,0.19351
3496.31368,0.18305
3498.24215,0.17882
3500.17062,0.18301
3502.09909,0.18829
3504.02755,0.18734
3505.95602,0.18399
3507.88449,0.18549
3509.81296,0.18804
3511.74143,0.18760
3513.66990,0.18496
3515.59837,0.18228
3517.52683,0.18202
3519.45530,0.18162
3521.38377,0.17991
3523.31224,0.17951
3525.24071,0.18458
3527.16918,0.19299
3529.09765,0.19162
3531.02611,0.17990
3532.95458,0.17015
3534.88305,0.16618
3536.81152,0.16514
3538.73999,0.16458
3540.66846,0.16546
3542.59693,0.17049
3544.52540,0.17744
3546.45386,0.17873
3548.38233,0.17420
3550.31080,0.16909
3552.23927,0.16321
3554.16774,0.15750
3556.09621,0.15706
3558.02468,0.16254
3559.95314,0.16762
3561.88161,0.16857
3563.81008,0.17057
3565.73855,0.17781
3567.66702,0.17995
3569.59549,0.17142
3571.52396,0.16528
3573.45243,0.16484
3575.38089,0.16525
3577.30936,0.16318
3579.23783,0.16032
3581.16630,0.15880
3583.09477,0.15958
3585.02324,0.16324
3586.95171,0.16499
3588.88017,0.15661
3590.80864,0.14846
3592.73711,0.15054
3594.66558,0.15580
3596.59405,0.15687
3598.52252,0.15707
3600.45099,0.15583
3602.37946,0.15268
3604.30792,0.15096
3606.23639,0.15338
3608.16486,0.16160
3610.09333,0.17056
3612.02180,0.17470
3613.95027,0.17083
3615.87874,0.16417
3617.80720,0.16555
3619.73567,0.16739
3621.66414,0.15914
3623.59261,0.15133
3625.52108,0.15000
3627.44955,0.15350
3629.37802,0.15348
3631.30649,0.14737
3633.23495,0.14283
3635.16342,0.13911
3637.09189,0.13831
3639.02036,0.14384
3640.94883,0.15043
3642.87730,0.15062
3644.80577,0.14935
3646.73423,0.15712
3648.66270,0.16744
3650.59117,0.15612
3652.51964,0.14146
3654.44811,0.13785
3656.37658,0.13960
3658.30505,0.13888
3660.23352,0.13661
3662.16198,0.13546
3664.09045,0.13453
3666.01892,0.13771
3667.94739,0.14800
3669.87586,0.15560
3671.80433,0.15163
3673.73280,0.14822
3675.66126,0.14522
3677.58973,0.14008
3679.51820,0.13826
3681.44667,0.13819
3683.37514,0.13836
3685.30361,0.13930
3687.23208,0.14352
3689.16055,0.14813
3691.08901,0.14536
3693.01748,0.14138
3694.94595,0.13829
3696.87442,0.13627
3698.80289,0.14042
3700.73136,0.14990
3702.65983,0.14994
3704.58829,0.13905
3706.51676,0.13543
3708.44523,0.14295
3710.37370,0.15057
3712.30217,0.14426
3714.23064,0.13277
3716.15911,0.12966
3718.08757,0.13481
3720.01604,0.14216
3721.94451,0.14259
3723.87298,0.13579
3725.80145,0.13080
3727.72992,0.12982
3729.65839,0.13145
3731.58686,0.13813
3733.51532,0.14951
3735.44379,0.15523
3737.37226,0.14564
3739.30073,0.13489
3741.22920,0.13243
3743.15767,0.13340
3745.08614,0.13503
3747.01460,0.14124
3748.94307,0.15255
3750.87154,0.15946
3752.80001,0.15036
3754.72848,0.13971
3756.65695,0.13254
3758.58542,0.12945
3760.51389,0.13126
3762.44235,0.13446
3764.37082,0.13897
3766.29929,0.14426
3768.22776,0.14670
3770.15623,0.14152
3772.08470,0.13159
3774.01317,0.12657
3775.94163,0.12561
3777.87010,0.12573
3779.79857,0.12629
3781.72704,0.12519
3783.65551,0.12349
3785.58398,0.12238
3787.51245,0.12271
3789.44092,0.12444
3791.36938,0.12484
3793.29785,0.12595
3795.22632,0.13308
3797.15479,0.14170
3799.08326,0.14383
3801.01173,0.14427
3802.94020,0.14328
3804.86866,0.14024
3806.79713,0.13752
3808.72560,0.13251
3810.65407,0.12701
3812.58254,0.12233
3814.51101,0.11988
3816.43948,0.12293
3818.36795,0.12998
3820.29641,0.13807
3822.22488,0.14193
3824.15335,0.14006
3826.08182,0.13573
3828.01029,0.12984
3829.93876,0.12637
3831.86723,0.12623
3833.79569,0.12636
3835.72416,0.12900
3837.65263,0.14075
3839.58110,0.15030
3841.50957,0.14367
3843.43804,0.13166
3845.36651,0.12361
3847.29498,0.12113
3849.22344,0.12691
3851.15191,0.14067
3853.08038,0.14624
3855.00885,0.12991
3856.93732,0.12088
3858.86579,0.12141
3860.79426,0.12738
3862.72272,0.13644
3864.65119,0.13850
3866.57966,0.13284
3868.50813,0.13111
3870.43660,0.13069
3872.36507,0.12632
3874.29354,0.12122
3876.22200,0.11472
3878.15047,0.11123
3880.07894,0.11487
3882.00741,0.12114
3883.93588,0.12548
3885.86435,0.12521
3887.79282,0.12063
3889.72129,0.11801
3891.64975,0.11960
3893.57822,0.12467
3895.50669,0.13120
3897.43516,0.13820
3899.36363,0.13973
3901.29210,0.13436
3903.22057,0.12923
3905.14903,0.12310
3907.07750,0.11967
3909.00597,0.12192
3910.93444,0.12578
3912.86291,0.12950
3914.79138,0.13202
3916.71985,0.13151
3918.64832,0.13025
3920.57678,0.12873
3922.50525,0.12636
3924.43372,0.12468
3926.36219,0.12402
3928.29066,0.12287
3930.21913,0.11431
3932.14760,0.10066
3934.07606,0.09966
3936.00453,0.10925
3937.93300,0.11474
3939.86147,0.11401
3941.78994,0.11028
3943.71841,0.10365
3945.64688,0.09967
3947.57535,0.10279
3949.50381,0.10728
3951.43228,0.10924
3953.36075,0.11071
3955.28922,0.11314
3957.21769,0.11819
3959.14616,0.12079
3961.07463,0.11749
3963.00309,0.11752
3964.93156,0.12179
3966.86003,0.12048
3968.78850,0.11494
3970.71697,0.11117
3972.64544,0.10741
3974.57391,0.10440
3976.50238,0.10721
3978.43084,0.11048
3980.35931,0.10842
3982.28778,0.10706
3984.21625,0.10763
3986.14472,0.10626
3988.07319,0.10492
3990.00166,0.10383
3991.93012,0.10138
3993.85859,0.10058
3995.78706,0.10354
3997.71553,0.10750
3999.64400,0.11212
4001.57247,0.11655
4003.50094,0.11663
4005.42941,0.11235
4007.35787,0.10461
4009.28634,0.09546
4011.21481,0.09244
4013.14328,0.09893
4015.07175,0.10448
4017.00022,0.10041
4018.92869,0.09581
4020.85715,0.09743
4022.78562,0.10008
4024.71409,0.10028
4026.64256,0.09887
4028.57103,0.09890
4030.49950,0.10011
4032.42797,0.09887
4034.35644,0.09610
4036.28490,0.09628
4038.21337,0.10081
4040.14184,0.10596
4042.07031,0.10741
4043.99878,0.10573
4045.92725,0.10251
4047.85572,0.09838
4049.78418,0.09777
4051.71265,0.10089
4053.64112,0.10181
4055.56959,0.10114
4057.49806,0.10274
4059.42653,0.10349
4061.35500,0.09801
4063.28346,0.09125
4065.21193,0.08909
4067.14040,0.08570
4069.06887,0.08202
4070.99734,0.08696
4072.92581,0.09659
4074.85428,0.10177
4076.78275,0.10227
4078.71121,0.10058
4080.63968,0.09847
4082.56815,0.09758
4084.49662,0.09576
4086.42509,0.09423
4088.35356,0.09652
4090.28203,0.09862
4092.21049,0.09695
4094.13896,0.09383
4096.06743,0.08980
4097.99590,0.08421
4099.92437,0.08340
4101.85284,0.08851
4103.78131,0.09073
4105.70978,0.08978
4107.63824,0.08797
4109.56671,0.08463
4111.49518,0.08318
4113.42365,0.08558
4115.35212,0.09224
4117.28059,0.09811
4119.20906,0.09768
4121.13752,0.09329
4123.06599,0.08744
4124.99446,0.08397
4126.92293,0.08405
4128.85140,0.08482
4130.77987,0.08498
4132.70834,0.08184
4134.63681,0.07965
4136.56527,0.08514
4138.49374,0.09073
4140.42221,0.08605
4142.35068,0.07817
4144.27915,0.08187
4146.20762,0.09234
4148.13609,0.09355
4150.06455,0.08640
4151.99302,0.08221
4153.92149,0.08475
4155.84996,0.09165
4157.77843,0.09867
4159.70690,0.09940
4161.63537,0.09434
4163.56384,0.09093
4165.49230,0.08954
4167.42077,0.08482
4169.34924,0.07852
4171.27771,0.07838
4173.20618,0.08093
4175.13465,0.07575
4177.06312,0.06996
4178.99158,0.07273
4180.92005,0.07462
4182.84852,0.07182
4184.77699,0.07180
4186.70546,0.07566
4188.63393,0.07972
4190.56240,0.08280
4192.49087,0.08456
4194.41933,0.08264
4196.34780,0.07868
4198.27627,0.07809
4200.20474,0.07879
4202.13321,0.07626
4204.06168,0.07446
4205.99015,0.07513
4207.91861,0.07513
4209.84708,0.07416
4211.77555,0.07232
4213.70402,0.07100
4215.63249,0.07112
4217.56096,0.07065
4219.48943,0.07020
4221.41789,0.07206
4223.34636,0.07250
4225.27483,0.06697
4227.20330,0.06184
4229.13177,0.06461
4231.06024,0.07069
4232.98871,0.07393
4234.91718,0.07608
4236.84564,0.07423
4238.77411,0.06611
4240.70258,0.06189
4242.63105,0.06281
4244.55952,0.06175
4246.48799,0.06153
4248.41646,0.06418
4250.34492,0.06703
4252.27339,0.07085
4254.20186,0.07360
4256.13033,0.07048
4258.05880,0.06482
4259.98727,0.06437
4261.91574,0.06828
4263.84421,0.06960
4265.77267,0.07000
4267.70114,0.07413
4269.62961,0.07765
4271.55808,0.07793
4273.48655,0.07837
4275.41502,0.07980
4277.34349,0.07717
4279.27195,0.06570
4281.20042,0.05199
4283.12889,0.04631
4285.05736,0.04895
4286.98583,0.05583
4288.91430,0.06136
4290.84277,0.06076
4292.77124,0.05513
4294.69970,0.04704
4296.62817,0.04268
4298.55664,0.04970
4300.48511,0.06229
4302.41358,0.06617
4304.34205,0.05680
4306.27052,0.04477
4308.19898,0.04316
4310.12745,0.05150
4312.05592,0.06126
4313.98439,0.06594
4315.91286,0.06149
4317.84133,0.05190
4319.76980,0.04536
4321.69827,0.04722
4323.62673,0.05760
4325.55520,0.06604
4327.48367,0.06462
4329.41214,0.05835
4331.34061,0.05418
4333.26908,0.05210
4335.19755,0.04333
4337.12601,0.02870
4339.05448,0.02530
4340.98295,0.03645
4342.91142,0.04729
4344.83989,0.05010
4346.76836,0.05074
4348.69683,0.05763
4350.62530,0.06642
4352.55376,0.06533
4354.48223,0.05592
4356.41070,0.04771
4358.33917,0.04629
4360.26764,0.04981
4362.19611,0.05166
4364.12458,0.05126
4366.05304,0.04966
4367.98151,0.04885
4369.90998,0.05333
4371.83845,0.05642
4373.76692,0.05147
4375.69539,0.04612
4377.62386,0.04139
4379.55232,0.03168
4381.48079,0.02671
4383.40926,0.03276
4385.33773,0.03875
4387.26620,0.03783
4389.19467,0.03265
4391.12314,0.03052
4393.05161,0.03729
4394.98007,0.04535
4396.90854,0.04674
4398.83701,0.04519
4400.76548,0.04010
4402.69395,0.03189
4404.62242,0.02704
4406.55089,0.02562
4408.47935,0.02889
4410.40782,0.03682
4412.33629,0.04160
4414.26476,0.04082
4416.19323,0.03833
4418.12170,0.03752
4420.05017,0.04070
4421.97864,0.04124
4423.90710,0.03139
4425.83557,0.02183
4427.76404,0.02517
4429.69251,0.03536
4431.62098,0.04050
4433.54945,0.03731
4435.47792,0.03052
4437.40638,0.02974
4439.33485,0.03548
4441.26332,0.03466
4443.19179,0.03110
4445.12026,0.03799
4447.04873,0.04630
4448.97720,0.04290
4450.90567,0.02999
4452.83413,0.02045
4454.76260,0.02477
4456.69107,0.03732
4458.61954,0.04407
4460.54801,0.04238
4462.47648,0.04019
4464.40495,0.03758
4466.33341,0.02975
4468.26188,0.02265
4470.19035,0.02694
4472.11882,0.03836
4474.04729,0.04297
4475.97576,0.03759
4477.90423,0.02871
4479.83270,0.02295
4481.76116,0.02127
4483.68963,0.01638
4485.61810,0.00804
4487.54657,0.00805
4489.47504,0.01768
4491.40351,0.02680
4493.33198,0.03229
4495.26044,0.03486
4497.18891,0.03207
4499.11738,0.02716
4501.04585,0.02395
4502.97432,0.01833
4504.90279,0.01150
4506.83126,0.00691
4508.75973,0.00187
4510.68819,-0.00108
4512.61666,0.00269
4514.54513,0.01204
4516.47360,0.02078
4518.40207,0.02132
4520.33054,0.01694
4522.25901,0.01581
4524.18747,0.01506
4526.11594,0.01079
4528.04441,0.00896
4529.97288,0.01334
4531.90135,0.01822
4533.82982,0.01975
4535.75829,0.01962
4537.68676,0.01827
4539.61522,0.01476
4541.54369,0.01211
4543.47216,0.01405
4545.40063,0.01843
4547.32910,0.02198
4549.25757,0.02127
4551.18604,0.01722
4553.11450,0.01854
4555.04297,0.02278
4556.97144,0.01807
4558.89991,0.00848
4560.82838,0.00758
4562.75685,0.01341
4564.68532,0.01304
4566.61378,0.00785
4568.54225,0.00809
4570.47072,0.00625
4572.39919,-0.00573
4574.32766,-0.01478
4576.25613,-0.01605
4578.18460,-0.01273
4580.11307,0.00092
4582.04153,0.01323
4583.97000,0.01433
4585.89847,0.01509
4587.82694,0.01344
4589.75541,0.00726
4591.68388,0.00896
4593.61235,0.01746
4595.54081,0.02118
4597.46928,0.01813
4599.39775,0.01176
4601.32622,0.00954
4603.25469,0.01462
4605.18316,0.01501
4607.11163,0.00648
4609.04010,0.00142
4610.96856,0.00311
4612.89703,0.00602
4614.82550,0.01010
4616.75397,0.01300
4618.68244,0.01313
4620.61091,0.01412
4622.53938,0.00982
4624.46784,-0.00210
4626.39631,-0.00852
4628.32478,-0.00546
4630.25325,0.00090
4632.18172,0.00854
4634.11019,0.01058
4636.03866,0.00758
4637.96713,0.01147
4639.89559,0.01958
4641.82406,0.02406
4643.75253,0.02357
4645.68100,0.01826
4647.60947,0.01188
4649.53794,0.00832
4651.46641,0.00947
4653.39487,0.01208
4655.32334,0.01057
4657.25181,0.00677
4659.18028,0.00463
4661.10875,0.00011
4663.03722,-0.00769
4664.96569,-0.00931
4666.89416,0.00172
4668.82262,0.01737
4670.75109,0.02027
4672.67956,0.01235
4674.60803,0.00694
4676.53650,0.00114
4678.46497,-0.00264
4680.39344,0.00508
4682.32190,0.01274
4684.25037,0.00512
4686.17884,-0.00514
4688.10731,0.00029
4690.03578,0.01555
4691.96425,0.02593
4693.89272,0.02776
4695.82119,0.02730
4697.74965,0.02900
4699.67812,0.03328
4701.60659,0.03660
4703.53506,0.03252
4705.46353,0.02597
4707.39200,0.02220
4709.32047,0.01942
4711.24893,0.01823
4713.17740,0.01427
4715.10587,0.00589
4717.03434,-0.00007
4718.96281,0.00100
4720.89128,0.00567
4722.81975,0.00695
4724.74821,0.01103
4726.67668,0.02248
4728.60515,0.02856
4730.53362,0.02408
4732.46209,0.01658
4734.39056,0.00866
4736.31903,0.00219
4738.24750,0.00555
4740.17596,0.01291
4742.10443,0.01298
4744.03290,0.01537
4745.96137,0.02536
4747.88984,0.03144
4749.81831,0.02825
4751.74678,0.01856
4753.67524,0.00551
4755.60371,-0.00311
4757.53218,-0.00348
4759.46065,0.00016
4761.38912,0.00609
4763.31759,0.01308
4765.24606,0.02424
4767.17453,0.03582
4769.10299,0.03245
4771.03146,0.01955
4772.95993,0.01078
4774.88840,0.00540
4776.81687,0.00706
4778.74534,0.01447
4780.67381,0.01802
4782.60227,0.01384
4784.53074,0.00029
4786.45921,-0.00898
4788.38768,-0.00351
4790.31615,0.00204
4792.24462,-0.00563
4794.17309,-0.01926
4796.10156,-0.01925
4798.03002,-0.00790
4799.95849,-0.00054
4801.88696,0.00688
4803.81543,0.01431
4805.74390,0.01259
4807.67237,0.00990
4809.60084,0.01188
4811.52930,0.01490
4813.45777,0.02263
4815.38624,0.02818
4817.31471,0.02226
4819.24318,0.00770
4821.17165,-0.00824
4823.10012,-0.01472
4825.02859,-0.01218
4826.95705,-0.00912
4828.88552,-0.00762
4830.81399,-0.00820
4832.74246,-0.00813
4834.67093,-0.00060
4836.59940,0.01170
4838.52787,0.02301
4840.45633,0.03251
4842.38480,0.03368
4844.31327,0.01876
4846.24174,-0.00628
4848.17021,-0.01728
4850.09868,-0.00658
4852.02715,0.00367
4853.95562,0.00149
4855.88408,-0.00375
4857.81255,0.00039
4859.74102,0.01004
4861.66949,0.01320
4863.59796,0.00834
4865.52643,0.00225
4867.45490,0.00340
4869.38336,0.00880
4871.31183,0.01103
4873.24030,0.01184
4875.16877,0.01455
4877.09724,0.01699
4879.02571,0.01831
4880.95418,0.01927
4882.88265,0.01574
4884.81111,0.00795
4886.73958,0.00113
4888.66805,-0.00461
4890.59652,-0.01254
4892.52499,-0.01748
4894.45346,-0.01230
4896.38193,-0.00551
4898.31039,-0.00736
4900.23886,-0.00924
4902.16733,-0.00037
4904.09580,0.01257
4906.02427,0.01662
4907.95274,0.00583
4909.88121,-0.00877
4911.80967,-0.00873
4913.73814,-0.00083
4915.66661,0.00532
4917.59508,0.02042
4919.52355,0.03832
4921.45202,0.04059
4923.38049,0.02893
4925.30896,0.01073
4927.23742,-0.00533
4929.16589,-0.00598
4931.09436,0.00525
4933.02283,0.01341
4934.95130,0.01138
4936.87977,-0.00147
4938.80824,-0.01723
4940.73670,-0.02434
4942.66517,-0.01611
4944.59364,-0.00096
4946.52211,0.00336
4948.45058,0.00410
4950.37905,0.01253
4952.30752,0.01895
4954.23599,0.01868
4956.16445,0.01284
4958.09292,0.00134
4960.02139,-0.00556
4961.94986,0.00193
4963.87833,0.01047
4965.80680,0.00553
4967.73527,-0.00412
4969.66373,-0.00758
4971.59220,-0.00085
4973.52067,0.01652
4975.44914,0.03211
4977.37761,0.03113
4979.30608,0.01736
4981.23455,0.01128
4983.16302,0.02520
4985.09148,0.03902
4987.01995,0.03611
4988.94842,0.03130
4990.87689,0.02776
4992.80536,0.01214
4994.73383,-0.00775
4996.66230,-0.01437
4998.59076,-0.01248
5000.51923,-0.01281
5002.44770,-0.00997
5004.37617,0.00196
5006.30464,0.01322
5008.23311,0.01105
5010.16158,0.00241
5012.09005,0.00066
5014.01851,0.00919
5015.94698,0.02527
5017.87545,0.04101
5019.80392,0.04946
5021.73239,0.04478
5023.66086,0.03123
5025.58933,0.02480
5027.51779,0.02915
5029.44626,0.02982
5031.37473,0.01990
5033.30320,0.01193
5035.23167,0.00965
5037.16014,0.00508
5039.08861,0.00791
5041.01708,0.02396
5042.94554,0.03229
5044.87401,0.01871
5046.80248,-0.00178
5048.73095,0.00189
5050.65942,0.02801
5052.58789,0.03751
5054.51636,0.02683
5056.44482,0.02806
5058.37329,0.03756
5060.30176,0.03271
5062.23023,0.02619
5064.15870,0.02795
5066.08717,0.02751
5068.01564,0.03152
5069.94410,0.03758
5071.87257,0.02432
5073.80104,0.00523
5075.72951,0.00787
5077.65798,0.01563
5079.58645,0.01190
5081.51492,0.01543
5083.44339,0.03297
5085.37185,0.04271
5087.30032,0.03326
5089.22879,0.01993
5091.15726,0.00919
5093.08573,0.00270
5095.01420,0.00744
5096.94267,0.01712
5098.87113,0.03086
5100.79960,0.04215
5102.72807,0.03433
5104.65654,0.02435
5106.58501,0.03453
5108.51348,0.04357
5110.44195,0.02093
5112.37042,-0.01354
5114.29888,-0.01394
5116.22735,0.01106
5118.15582,0.02280
5120.08429,0.02474
5122.01276,0.03944
5123.94123,0.05893
5125.86970,0.06123
5127.79816,0.04599
5129.72663,0.02448
5131.65510,0.00457
5133.58357,-0.00157
5135.51204,0.00642
5137.44051,0.01814
5139.36898,0.02860
5141.29745,0.03087
5143.22591,0.02401
5145.15438,0.01984
5147.08285,0.03321
5149.01132,0.05982
5150.93979,0.07637
5152.86826,0.08052
5154.79673,0.08561
5156.72519,0.08549
5158.65366,0.06781
5160.58213,0.04475
5162.51060,0.03295
5164.43907,0.03181
5166.36754,0.03762
5168.29601,0.03570
5170.22448,0.01408
5172.15294,0.00014
5174.08141,0.02082
5176.00988,0.05706
5177.93835,0.06932
5179.86682,0.05245
5181.79529,0.03709
5183.72376,0.03428
5185.65222,0.03221
5187.58069,0.02682
5189.50916,0.02412
5191.43763,0.03018
5193.36610,0.03503
5195.29457,0.02575
5197.22304,0.01407
5199.15151,0.02059
5201.07997,0.04067
5203.00844,0.05327
5204.93691,0.05149
5206.86538,0.03604
5208.79385,0.01224
5210.72232,0.00192
5212.65079,0.01800
5214.57925,0.04546
5216.50772,0.06080
5218.43619,0.05785
5220.36466,0.04474
5222.29313,0.03817
5224.22160,0.04385
5226.15007,0.04275
5228.07854,0.03077
5230.00700,0.02936
5231.93547,0.03542
5233.86394,0.02679
5235.79241,0.01314
5237.72088,0.01793
5239.64935,0.03326
5241.57782,0.04183
5243.50628,0.04544
5245.43475,0.05295
5247.36322,0.05346
5249.29169,0.03673
5251.22016,0.03410
5253.14863,0.06208
5255.07710,0.08109
5257.00556,0.05968
5258.93403,0.02112
5260.86250,0.00691
5262.79097,0.03560
5264.71944,0.06743
5266.64791,0.06532
5268.57638,0.04765
5270.50485,0.03179
5272.43331,0.03641
5274.36178,0.05826
5276.29025,0.05890
5278.21872,0.03362
5280.14719,0.01448
5282.07566,0.01302
5284.00413,0.02024
5285.93259,0.04087
5287.86106,0.07196
5289.78953,0.08680
5291.71800,0.07597
5293.64647,0.05296
5295.57494,0.03764
5297.50341,0.04098
5299.43188,0.04311
5301.36034,0.04279
5303.28881,0.05744
5305.21728,0.07202
5307.14575,0.07211
5309.07422,0.06260
5311.00269,0.05239
5312.93116,0.04322
5314.85962,0.04105
5316.78809,0.05358
5318.71656,0.05611
5320.64503,0.03805
5322.57350,0.02408
5324.50197,0.01715
5326.43044,0.01396
5328.35891,0.02458
5330.28737,0.03947
5332.21584,0.04209
5334.14431,0.03871
5336.07278,0.05186
5338.00125,0.07719
5339.92972,0.08196
5341.85819,0.06700
5343.78665,0.04216
5345.71512,0.01575
5347.64359,0.01938
5349.57206,0.04450
5351.50053,0.06461
5353.42900,0.07680
5355.35747,0.07560
5357.28594,0.06062
5359.21440,0.04769
5361.14287,0.05958
5363.07134,0.08503
5364.99981,0.08204
5366.92828,0.06482
5368.85675,0.06429
5370.78522,0.07398
5372.71368,0.07799
5374.64215,0.06646
5376.57062,0.06316
5378.49909,0.08287
5380.42756,0.08877
5382.35603,0.07475
5384.28450,0.06765
5386.21297,0.07043
5388.14143,0.06809
5390.06990,0.06756
5391.99837,0.07651
5393.92684,0.07728
5395.85531,0.05762
5397.78378,0.04264
5399.71225,0.04294
5401.64071,0.05008
5403.56918,0.05263
5405.49765,0.03868
5407.42612,0.02091
5409.35459,0.02401
5411.28306,0.03871
5413.21153,0.03594
5415.13999,0.02356
5417.06846,0.01249
5418.99693,0.01059
5420.92540,0.04386
5422.85387,0.09000
5424.78234,0.09898
5426.71081,0.07470
5428.63928,0.04731
5430.56774,0.03784
5432.49621,0.04851
5434.42468,0.06909
5436.35315,0.09187
5438.28162,0.10622
5440.21009,0.11178
5442.13856,0.11646
5444.06702,0.10682
5445.99549,0.06712
5447.92396,0.03069
5449.85243,0.04028
5451.78090,0.06291
5453.70937,0.06127
5455.63784,0.05781
5457.56631,0.07736
5459.49477,0.10312
5461.42324,0.11089
5463.35171,0.10934
5465.28018,0.11310
5467.20865,0.11687
5469.13712,0.11230
5471.06559,0.09465
5472.99405,0.06458
5474.92252,0.03730
5476.85099,0.04059
5478.77946,0.05941
5480.70793,0.06628
5482.63640,0.06826
5484.56487,0.06279
5486.49334,0.04228
5488.42180,0.02932
5490.35027,0.03825
5492.27874,0.05185
5494.20721,0.05020
5496.13568,0.04527
5498.06415,0.05562
5499.99262,0.06452
5501.92108,0.05608
5503.84955,0.04808
5505.77802,0.06107
5507.70649,0.08724
5509.63496,0.09155
5511.56343,0.07454
5513.49190,0.06879
5515.42037,0.07674
5517.34883,0.07996
5519.27730,0.07429
5521.20577,0.06319
5523.13424,0.05307
5525.06271,0.05277
5526.99118,0.07196
5528.91965,0.10777
5530.84811,0.12327
5532.77658,0.10488
5534.70505,0.09042
5536.63352,0.10014
5538.56199,0.12585
5540.49046,0.15506
5542.41893,0.16557
5544.34740,0.15116
5546.27586,0.13072
5548.20433,0.10619
5550.13280,0.07989
5552.06127,0.06943
5553.98974,0.07614
5555.91821,0.08752
5557.84668,0.09285
5559.77514,0.09177
5561.70361,0.07856
5563.63208,0.04991
5565.56055,0.03824
5567.48902,0.05463
5569.41749,0.07846
5571.34596,0.10544
5573.27443,0.12333
5575.20289,0.11029
5577.13136,0.07512
5579.05983,0.04940
5580.98830,0.04592
5582.91677,0.05445
5584.84524,0.07172
5586.77371,0.09703
5588.70217,0.10284
5590.63064,0.07575
5592.55911,0.06226
5594.48758,0.08128
5596.41605,0.09125
5598.34452,0.06914
5600.27299,0.04910
5602.20145,0.06601
5604.12992,0.08789
5606.05839,0.07381
5607.98686,0.04744
5609.91533,0.04151
5611.84380,0.03487
5613.77227,0.03002
5615.70074,0.06202
5617.62920,0.09876
5619.55767,0.10928
5621.48614,0.11514
5623.41461,0.11623
5625.34308,0.10618
5627.27155,0.10046
5629.20002,0.10286
5631.12848,0.09636
5633.05695,0.06539
5634.98542,0.03508
5636.91389,0.02837
5638.84236,0.02743
5640.77083,0.05035
5642.69930,0.09947
5644.62777,0.12182
5646.55623,0.10585
5648.48470,0.08873
5650.41317,0.09238
5652.34164,0.10524
5654.27011,0.09420
5656.19858,0.05933
5658.12705,0.03812
5660.05551,0.04301
5661.98398,0.06727
5663.91245,0.10155
5665.84092,0.12711
5667.76939,0.13713
5669.69786,0.13338
5671.62633,0.12168
5673.55480,0.11949
5675.48326,0.12679
5677.41173,0.12914
5679.34020,0.13944
5681.26867,0.13460
5683.19714,0.08164
5685.12561,0.03778
5687.05408,0.03673
5688.98254,0.04500
5690.91101,0.05428
5692.83948,0.07222
5694.76795,0.08614
5696.69642,0.08931
5698.62489,0.08559
5700.55336,0.06626
5702.48183,0.04662
5704.41029,0.05419
5706.33876,0.07186
5708.26723,0.08175
5710.19570,0.09712
5712.12417,0.11543
5714.05264,0.11382
5715.98111,0.08827
5717.90957,0.05087
5719.83804,0.02414
5721.76651,0.03112
5723.69498,0.06622
5725.62345,0.09703
5727.55192,0.09827
5729.48039,0.07864
5731.40886,0.06841
5733.33732,0.07525
5735.26579,0.09044
5737.19426,0.10444
5739.12273,0.09411
5741.05120,0.06820
5742.97967,0.05085
5744.90814,0.02902
5746.83660,0.01983
5748.76507,0.03762
5750.69354,0.04168
5752.62201,0.03843
5754.55048,0.06092
5756.47895,0.08150
5758.40742,0.08483
5760.33588,0.08616
5762.26435,0.08387
5764.19282,0.07034
5766.12129,0.05967
5768.04976,0.07739
5769.97823,0.11336
5771.90670,0.12189
5773.83517,0.09598
5775.76363,0.07581
5777.69210,0.06521
5779.62057,0.05635
5781.54904,0.07121
5783.47751,0.09145
5785.40598,0.09222
5787.33445,0.09954
5789.26291,0.11646
5791.19138,0.12053
5793.11985,0.13135
5795.04832,0.14695
5796.97679,0.12568
5798.90526,0.08849
5800.83373,0.07293
5802.76220,0.06634
5804.69066,0.04784
5806.61913,0.03220
5808.54760,0.04608
5810.47607,0.06759
5812.40454,0.06994
5814.33301,0.06952
5816.26148,0.08542
5818.18994,0.11163
5820.11841,0.12945
5822.04688,0.11683
5823.97535,0.06849
5825.90382,0.00528
5827.83229,-0.03268
5829.76076,0.00322
5831.68923,0.07055
5833.61769,0.07468
5835.54616,0.04137
5837.47463,0.04313
5839.40310,0.06845
5841.33157,0.08970
5843.26004,0.10061
5845.18851,0.10777
5847.11697,0.11841
5849.04544,0.11164
5850.97391,0.09517
5852.90238,0.08233
5854.83085,0.05455
5856.75932,0.04709
5858.68779,0.09477
5860.61626,0.14407
5862.54472,0.13238
5864.47319,0.10448
5866.40166,0.11311
5868.33013,0.11909
5870.25860,0.11637
5872.18707,0.11625
5874.11554,0.10555
5876.04400,0.09980
5877.97247,0.11761
5879.90094,0.14498
5881.82941,0.14721
5883.75788,0.11764
5885.68635,0.07897
5887.61482,0.06104
5889.54329,0.07927
5891.47175,0.10937
5893.40022,0.11744
5895.32869,0.08575
5897.25716,0.03744
5899.18563,0.02051
5901.11410,0.04623
5903.04257,0.06835
5904.97103,0.04827
5906.89950,0.03182
5908.82797,0.04773
5910.75644,0.06622
5912.68491,0.09839
5914.61338,0.13375
5916.54185,0.13401
5918.47032,0.13518
5920.39878,0.15900
5922.32725,0.16232
5924.25572,0.13579
5926.18419,0.10847
5928.11266,0.09447
5930.04113,0.08227
5931.96960,0.05457
5933.89806,0.03221
5935.82653,0.04587
5937.75500,0.07088
5939.68347,0.08872
5941.61194,0.10213
5943.54041,0.09909
5945.46888,0.09124
5947.39734,0.09723
5949.32581,0.10699
5951.25428,0.10973
5953.18275,0.10762
5955.11122,0.10196
5957.03969,0.09882
5958.96816,0.10380
5960.89663,0.10093
5962.82509,0.08331
5964.75356,0.06867
5966.68203,0.07019
5968.61050,0.08418
5970.53897,0.08449
5972.46744,0.06883
5974.39591,0.06426
5976.32437,0.05585
5978.25284,0.03057
5980.18131,0.03393
5982.10978,0.08070
5984.03825,0.11377
5985.96672,0.10397
5987.89519,0.07005
5989.82366,0.04327
5991.75212,0.05950
5993.68059,0.10050
5995.60906,0.12104
5997.53753,0.11333
5999.46600,0.08746
6001.39447,0.06130
6003.32294,0.06363
6005.25140,0.09425
6007.17987,0.10974
6009.10834,0.09343
6011.03681,0.08975
6012.96528,0.12696
6014.89375,0.16994
6016.82222,0.17427
6018.75069,0.11693
6020.67915,0.03775
6022.60762,0.00601
6024.53609,0.02168
6026.46456,0.06012
6028.39303,0.09628
6030.32150,0.09487
6032.24997,0.06295
6034.17843,0.04516
6036.10690,0.06533
6038.03537,0.08217
6039.96384,0.07493
6041.89231,0.07575
6043.82078,0.08019
6045.74925,0.08668
6047.67772,0.10172
6049.60618,0.08772
6051.53465,0.08402
6053.46312,0.14043
6055.39159,0.17398
6057.32006,0.14405
6059.24853,0.12308
6061.17700,0.14367
6063.10546,0.15595
6065.03393,0.11147
6066.96240,0.05671
6068.89087,0.04879
6070.81934,0.07538
6072.74781,0.08495
6074.67628,0.07030
6076.60475,0.06778
6078.53321,0.08175
6080.46168,0.09215
6082.39015,0.08085
6084.31862,0.06622
6086.24709,0.08878
6088.17556,0.13115
6090.10403,0.15431
6092.03249,0.14828
6093.96096,0.12212
6095.88943,0.08237
6097.81790,0.04248
6099.74637,0.04487
6101.67484,0.08145
6103.60331,0.10021
6105.53177,0.09787
6107.46024,0.09999
6109.38871,0.11071
6111.31718,0.11668
6113.24565,0.11084
6115.17412,0.09025
6117.10259,0.06573
6119.03106,0.06714
6120.95952,0.09130
6122.88799,0.08950
6124.81646,0.07267
6126.74493,0.06765
6128.67340,0.04294
6130.60187,0.03461
6132.53034,0.08857
6134.45880,0.14334
6136.38727,0.14897
6138.31574,0.12392
6140.24421,0.10279
6142.17268,0.09351
6144.10115,0.08592
6146.02962,0.08094
6147.95809,0.08520
6149.88655,0.09191
6151.81502,0.09501
6153.74349,0.08857
6155.67196,0.06197
6157.60043,0.02760
6159.52890,0.03925
6161.45737,0.09509
6163.38583,0.08060
6165.31430,0.00459
6167.24277,-0.01045
6169.17124,0.01541
6171.09971,0.01432
6173.02818,0.01147
6174.95665,0.04253
6176.88512,0.06786
6178.81358,0.05110
6180.74205,0.01198
6182.67052,-0.01299
6184.59899,-0.00961
6186.52746,0.00710
6188.45593,0.00284
6190.38440,-0.02531
6192.31286,-0.03000
6194.24133,-0.00981
6196.16980,0.01795
6198.09827,0.05113
6200.02674,0.06324
6201.95521,0.06054
6203.88368,0.04135
6205.81215,-0.01830
6207.74061,-0.04419
6209.66908,0.01922
6211.59755,0.06999
6213.52602,0.06013
6215.45449,0.06093
6217.38296,0.05774
6219.31143,0.02271
6221.23989,0.03207
6223.16836,0.10736
6225.09683,0.14176
6227.02530,0.11751
6228.95377,0.09322
6230.88224,0.03908
6232.81071,-0.03853
6234.73918,-0.06552
6236.66764,-0.04271
6238.59611,0.00072
6240.52458,0.03594
6242.45305,0.02395
6244.38152,-0.00660
6246.30999,0.00168
6248.23846,0.04122
6250.16692,0.07698
6252.09539,0.08950
6254.02386,0.09222
6255.95233,0.09069
6257.88080,0.07750
6259.80927,0.09522
6261.73774,0.13801
6263.66621,0.13589
6265.59467,0.12555
6267.52314,0.15445
6269.45161,0.13909
6271.38008,0.06260
6273.30855,0.00770
6275.23702,0.03336
6277.16549,0.07146
6279.09395,0.03591
6281.02242,-0.00550
6282.95089,0.02919
6284.87936,0.06793
6286.80783,0.05714
6288.73630,0.05079
6290.66477,0.05787
6292.59323,0.06292
6294.52170,0.07578
6296.45017,0.07153
6298.37864,0.05149
6300.30711,0.06549
6302.23558,0.10884
6304.16405,0.13009
6306.09252,0.10453
6308.02098,0.04663
6309.94945,0.01587
6311.87792,0.05740
6313.80639,0.14485
6315.73486,0.18516
6317.66333,0.11472
6319.59180,0.00379
6321.52026,-0.02391
6323.44873,0.02316
6325.37720,0.06128
6327.30567,0.09245
6329.23414,0.08880
6331.16261,0.02298
6333.09108,0.01265
6335.01955,0.08607
6336.94801,0.13002
6338.87648,0.11744
6340.80495,0.08060
6342.73342,0.07405
6344.66189,0.12426
6346.59036,0.16713
6348.51883,0.16889
6350.44729,0.14318
6352.37576,0.10611
6354.30423,0.06477
6356.23270,0.01578
6358.16117,0.00397
6360.08964,0.05544
6362.01811,0.11830
6363.94658,0.12878
6365.87504,0.10910
6367.80351,0.11559
6369.73198,0.13467
6371.66045,0.15986
6373.58892,0.15738
6375.51739,0.10665
6377.44586,0.05931
6379.37432,0.01959
6381.30279,-0.01650
6383.23126,0.00701
6385.15973,0.07617
6387.08820,0.09462
6389.01667,0.05724
6390.94514,-0.00398
6392.87361,-0.04098
6394.80207,-0.01256
6396.73054,0.01754
6398.65901,0.01398
6400.58748,0.03158
6402.51595,0.10099
6404.44442,0.17436
6406.37289,0.21169
6408.30135,0.20447
6410.22982,0.13901
6412.15829,0.05908
6414.08676,0.03973
6416.01523,0.05563
6417.94370,0.08491
6419.87217,0.12600
6421.80064,0.11932
6423.72910,0.07600
6425.65757,0.04071
6427.58604,0.00714
6429.51451,-0.00450
6431.44298,0.02648
6433.37145,0.06635
6435.29992,0.11189
6437.22838,0.14302
6439.15685,0.09770
6441.08532,0.02405
6443.01379,-0.00678
6444.94226,0.01351
6446.87073,0.06984
6448.79920,0.12428
6450.72766,0.13459
6452.65613,0.11557
6454.58460,0.09965
6456.51307,0.07351
6458.44154,0.05970
6460.37001,0.09861
6462.29848,0.16621
6464.22695,0.21614
6466.15541,0.19396
6468.08388,0.11915
6470.01235,0.08860
6471.94082,0.09824
6473.86929,0.08787
6475.79776,0.04734
6477.72623,0.02657
6479.65469,0.06546
6481.58316,0.08189
6483.51163,0.03597
6485.44010,0.00355
6487.36857,0.00739
6489.29704,0.03931
6491.22551,0.09607
6493.15398,0.13415
6495.08244,0.14994
6497.01091,0.18314
6498.93938,0.20221
6500.86785,0.14665
6502.79632,0.06377
6504.72479,0.05761
6506.65326,0.08910
6508.58172,0.08982
6510.51019,0.10028
6512.43866,0.11945
6514.36713,0.08582
6516.29560,0.04063
6518.22407,0.03595
6520.15254,0.03184
6522.08101,0.00567
6524.00947,-0.01220
6525.93794,-0.00316
6527.86641,0.01102
6529.79488,0.02370
6531.72335,0.04902
6533.65182,0.06141
6535.58029,0.06357
6537.50875,0.08881
6539.43722,0.12973
6541.36569,0.14784
6543.29416,0.09657
6545.22263,0.03508
6547.15110,0.03648
6549.07957,0.04983
6551.00804,0.04383
6552.93650,0.08001
6554.86497,0.15584
6556.79344,0.15298
6558.72191,0.07128
6560.65038,0.03322
6562.57885,0.04326
6564.50732,0.04301
6566.43578,0.02910
6568.36425,0.02881
6570.29272,0.06112
6572.22119,0.10691
6574.14966,0.14056
6576.07813,0.13967
6578.00660,0.10231
6579.93507,0.05576
6581.86353,0.02307
6583.79200,0.04432
6585.72047,0.08125
6587.64894,0.04486
6589.57741,-0.02173
6591.50588,-0.02207
6593.43435,0.06353
6595.36281,0.13816
6597.29128,0.06168
6599.21975,-0.13518
6601.14822,-0.25040
6603.07669,-0.16509
6605.00516,-0.01193
6606.93363,0.08292
6608.86210,0.13490
6610.79056,0.19146
6612.71903,0.22852
6614.64750,0.25314
6616.57597,0.27881
6618.50444,0.28034
6620.43291,0.26203
6622.36138,0.25051
6624.28984,0.22858
6626.21831,0.14711
6628.14678,0.04798
6630.07525,-0.00053
6632.00372,-0.02518
6633.93219,-0.03631
6635.86066,-0.02024
6637.78912,-0.01933
6639.71759,-0.03363
6641.64606,-0.03737
6643.57453,-0.07037
6645.50300,-0.09181
6647.43147,-0.01215
6649.35994,0.07884
6651.28841,0.07666
6653.21687,0.00533
6655.14534,-0.05426
6657.07381,-0.04696
6659.00228,-0.01123
6660.93075,0.01076
6662.85922,0.05773
6664.78769,0.13179
6666.71615,0.16700
6668.64462,0.11004
6670.57309,-0.02656
6672.50156,-0.11460
6674.43003,-0.02880
6676.35850,0.11237
6678.28697,0.14542
6680.21544,0.05517
6682.14390,-0.07514
6684.07237,-0.12999
6686.00084,-0.05278
6687.92931,0.04143
6689.85778,0.01437
6691.78625,-0.03022
6693.71472,-0.00467
6695.64318,0.03705
6697.57165,0.05552
6699.50012,0.03178
6701.42859,-0.00316
6703.35706,0.02145
6705.28553,0.07666
6707.21400,0.06195
6709.14247,-0.02510
6711.07093,-0.06385
6712.99940,0.00683
6714.92787,0.12207
6716.85634,0.16850
6718.78481,0.12250
6720.71328,0.07969
6722.64175,0.12722
6724.57021,0.17536
6726.49868,0.13035
6728.42715,0.10026
6730.35562,0.13219
6732.28409,0.12926
6734.21256,0.11822
6736.14103,0.11895
6738.06950,0.05742
6739.99796,-0.00863
6741.92643,0.02128
6743.85490,0.08431
6745.78337,0.11264
6747.71184,0.10771
6749.64031,0.07833
6751.56878,0.09659
6753.49724,0.16063
6755.42571,0.17241
6757.35418,0.13484
6759.28265,0.09448
6761.21112,0.04826
6763.13959,0.01036
6765.06806,0.00506
6766.99653,0.00481
6768.92499,0.00705
6770.85346,0.07220
6772.78193,0.20241
6774.71040,0.32898
6776.63887,0.34803
6778.56734,0.24823
6780.49581,0.13490
6782.42427,0.09342
6784.35274,0.13834
6786.28121,0.15369
6788.20968,0.04550
6790.13815,-0.04214
6792.06662,0.06944
6793.99509,0.24540
6795.92355,0.29206
6797.85202,0.22532
6799.78049,0.11936
6801.70896,-0.02510
6803.63743,-0.08547
6805.56590,0.01925
6807.49437,0.06985
6809.42284,0.00963
6811.35130,-0.02548
6813.27977,0.01179
6815.20824,0.06516
6817.13671,0.06728
6819.06518,0.02520
6820.99365,-0.00588
6822.92212,-0.02446
6824.85058,-0.05992
6826.77905,-0.07456
6828.70752,-0.03846
6830.63599,0.01710
6832.56446,0.09887
6834.49293,0.22047
6836.42140,0.28187
6838.34987,0.18830
6840.27833,0.04203
6842.20680,-0.03807
6844.13527,-0.04788
6846.06374,-0.01328
6847.99221,0.06952
6849.92068,0.14974
6851.84915,0.14975
6853.77761,0.10941
6855.70608,0.11282
6857.63455,0.16377
6859.56302,0.16264
6861.49149,0.09110
6863.41996,0.04738
6865.34843,0.07120
6867.27690,0.10098
6869.20536,0.10770
6871.13383,0.13129
6873.06230,0.14733
6874.99077,0.11868
6876.91924,0.11342
6878.84771,0.16830
6880.77618,0.21530
6882.70464,0.15916
6884.63311,0.02024
6886.56158,-0.12018
6888.49005,-0.17334
6890.41852,-0.09196
6892.34699,0.02368
6894.27546,0.04075
6896.20393,0.01993
6898.13239,0.08620
6900.06086,0.18773
6901.98933,0.23172
6903.91780,0.24293
6905.84627,0.24000
6907.77474,0.23774
6909.70321,0.24929
6911.63167,0.22662
6913.56014,0.13574
6915.48861,0.03634
6917.41708,0.00795
6919.34555,0.08137
6921.27402,0.19981
6923.20249,0.22316
6925.13096,0.11828
6927.05942,-0.01108
6928.98789,-0.07845
6930.91636,-0.02632
6932.84483,0.12293
6934.77330,0.22684
6936.70177,0.28224
6938.63024,0.31822
6940.55870,0.25750
6942.48717,0.11797
6944.41564,-0.01324
6946.34411,-0.10264
6948.27258,-0.11410
6950.20105,-0.04397
6952.12952,0.05640
6954.05799,0.10947
6955.98645,0.09028
6957.91492,0.06949
6959.84339,0.07734
6961.77186,0.09079
6963.70033,0.07065
6965.62880,-0.00275
6967.55727,-0.05823
6969.48573,-0.03156
6971.41420,-0.00711
6973.34267,-0.04048
6975.27114,-0.05234
6977.19961,-0.02082
6979.12808,0.02630
6981.05655,0.11356
6982.98501,0.14624
6984.91348,0.02850
6986.84195,-0.05625
6988.77042,0.04286
6990.69889,0.17131
6992.62736,0.16717
6994.55583,0.10074
6996.48430,0.10377
6998.41276,0.15664
7000.34123,0.15193
7002.26970,0.11917
7004.19817,0.11184
7006.12664,0.05206
7008.05511,-0.05898
7009.98358,-0.07808
7011.91204,-0.02088
7013.84051,0.04601
7015.76898,0.07323
7017.69745,0.05863
7019.62592,0.01514
7021.55439,-0.03859
7023.48286,-0.04457
7025.41133,-0.00940
7027.33979,-0.03378
7029.26826,-0.14116
7031.19673,-0.18883
7033.12520,-0.13048
7035.05367,0.00587
7036.98214,0.18556
7038.91061,0.26651
7040.83907,0.22032
7042.76754,0.15231
7044.69601,0.12404
7046.62448,0.06909
7048.55295,0.02593
7050.48142,0.02541
7052.40989,0.04029
7054.33836,0.04527
7056.26682,0.00569
7058.19529,-0.06798
7060.12376,-0.09311
7062.05223,-0.03224
7063.98070,0.05368
7065.90917,0.10755
7067.83764,0.13454
7069.76610,0.11281
7071.69457,0.09409
7073.62304,0.14776
7075.55151,0.13456
7077.47998,0.04507
7079.40845,0.01504
7081.33692,0.02417
7083.26539,0.00979
7085.19385,0.09655
7087.12232,0.32408
7089.05079,0.49207
7090.97926,0.44526
7092.90773,0.30551
7094.83620,0.22717
7096.76467,0.16943
7098.69313,0.11258
7100.62160,0.10581
7102.55007,0.02942
7104.47854,-0.03462
7106.40701,0.12471
7108.33548,0.29628
7110.26395,0.28857
7112.19242,0.18853
7114.12088,0.06333
7116.04935,0.00547
7117.97782,0.09326
7119.90629,0.14812
7121.83476,0.08126
7123.76323,0.05861
7125.69170,0.14805
7127.62016,0.24891
7129.54863,0.25656
7131.47710,0.18021
7133.40557,0.07205
7135.33404,-0.04160
7137.26251,-0.17735
7139.19098,-0.27851
7141.11944,-0.24888
7143.04791,-0.14448
7144.97638,-0.03586
7146.90485,-0.00166
7148.83332,-0.09879
7150.76179,-0.24876
7152.69026,-0.33628
7154.61873,-0.27312
7156.54719,-0.12913
7158.47566,0.00888
7160.40413,0.17275
7162.33260,0.35338
7164.26107,0.45498
7166.18954,0.42720
7168.11801,0.35674
7170.04647,0.28835
7171.97494,0.17519
7173.90341,0.13193
7175.83188,0.19178
7177.76035,0.20509
7179.68882,0.24708
7181.61729,0.37705
7183.54576,0.40905
7185.47422,0.35692
7187.40269,0.32005
7189.33116,0.22679
7191.25963,0.05018
7193.18810,-0.07876
7195.11657,-0.08052
7197.04504,-0.03128
7198.97350,0.03656
7200.90197,0.09583
7202.83044,0.06893
7204.75891,0.04590
7206.68738,0.15088
7208.61585,0.17920
7210.54432,0.06588
7212.47279,-0.07315
7214.40125,-0.12355
7216.32972,-0.07498
7218.25819,-0.02200
7220.18666,-0.03301
7222.11513,0.04153
7224.04360,0.23842
7225.97207,0.34159
7227.90053,0.27604
7229.82900,0.22827
7231.75747,0.26392
7233.68594,0.34367
7235.61441,0.33982
7237.54288,0.20567
7239.47135,0.15214
7241.39982,0.24006
7243.32828,0.18828
7245.25675,-0.02024
7247.18522,-0.14074
7249.11369,-0.16817
7251.04216,-0.05338
7252.97063,0.26667
7254.89910,0.35001
7256.82756,0.13485
7258.75603,-0.03629
7260.68450,-0.05635
7262.61297,0.00589
7264.54144,0.03250
7266.46991,0.00047
7268.39838,-0.01055
7270.32685,0.03524
7272.25531,0.10658
7274.18378,0.11919
7276.11225,0.05985
7278.04072,-0.05931
7279.96919,-0.16555
7281.89766,-0.16471
7283.82613,-0.14610
7285.75459,-0.14496
7287.68306,-0.19020
7289.61153,-0.28044
7291.54000,-0.26589
7293.46847,-0.10646
7295.39694,0.01463
7297.32541,0.05501
7299.25387,0.10557
7301.18234,0.12186
7303.11081,0.09484
7305.03928,0.15195
7306.96775,0.29649
7308.89622,0.32275
7310.82469,0.17147
7312.75316,0.13888
7314.68162,0.32579
7316.61009,0.49684
7318.53856,0.40892
7320.46703,0.24498
7322.39550,0.16063
7324.32397,0.14222
7326.25244,0.09431
7328.18090,0.02623
7330.10937,0.08152
7332.03784,0.13713
7333.96631,0.07485
7335.89478,0.03983
7337.82325,0.05058
7339.75172,0.04340
7341.68019,0.10038
7343.60865,0.12533
7345.53712,0.00460
7347.46559,-0.02166
7349.39406,0.18772
7351.32253,0.31044
7353.25100,0.25459
7355.17947,0.18568
7357.10793,0.01537
7359.03640,-0.23425
7360.96487,-0.23501
7362.89334,0.00678
7364.82181,0.20372
7366.75028,0.16027
7368.67875,-0.00887
7370.60722,-0.09454
7372.53568,-0.05030
7374.46415,0.07229
7376.39262,0.08278
7378.32109,-0.03007
7380.24956,-0.10000
7382.17803,-0.08543
7384.10650,-0.01943
7386.03496,0.09648
7387.96343,0.17049
7389.89190,0.03580
7391.82037,-0.14213
7393.74884,-0.08511
7395.67731,0.08469
7397.60578,0.14029
7399.53425,0.21107
7401.46271,0.30633
7403.39118,0.23581
7405.31965,0.02844
7407.24812,-0.06386
7409.17659,-0.01797
7411.10506,0.01386
7413.03353,-0.01605
7414.96199,-0.02627
7416.89046,0.00791
7418.81893,0.11277
7420.74740,0.22650
7422.67587,0.23268
7424.60434,0.21486
7426.53281,0.23923
7428.46128,0.23649
7430.38974,0.10255
7432.31821,-0.03075
7434.24668,-0.07921
7436.17515,-0.07311
7438.10362,0.02112
7440.03209,0.13939
7441.96056,0.23422
7443.88902,0.22681
7445.81749,0.06123
7447.74596,-0.12459
7449.67443,-0.16452
7451.60290,-0.04746
7453.53137,-0.01622
7455.45984,-0.10621
7457.38831,-0.18274
7459.31677,-0.24787
7461.24524,-0.29543
7463.17371,-0.23101
7465.10218,-0.03580
7467.03065,0.10709
7468.95912,0.07342
7470.88759,0.00155
7472.81605,-0.03185
7474.74452,-0.06840
7476.67299,-0.02614
7478.60146,0.14442
7480.52993,0.20540
7482.45840,0.03132
7484.38687,-0.11419
7486.31533,-0.13430
7488.24380,-0.02677
7490.17227,0.11043
7492.10074,0.06976
7494.02921,0.00586
7495.95768,0.00538
7497.88615,-0.07849
