399.19301,0.46552
401.12148,0.40118
403.04995,0.34887
404.97842,0.31510
406.90689,0.29540
408.83536,0.31755
410.76382,0.28012
412.69229,0.13256
414.62076,0.06880
416.54923,0.12194
418.47770,0.08833
420.40617,-0.04749
422.33464,-0.06215
424.26311,-0.04131
426.19157,-0.05170
428.12004,-0.06005
430.04851,-0.05699
431.97698,-0.02090
433.90545,0.05834
435.83392,0.06190
437.76239,-0.03796
439.69085,-0.15181
441.61932,-0.16508
443.54779,-0.03064
445.47626,0.07728
447.40473,0.07038
449.33320,0.03078
451.26167,0.06014
453.19013,0.12981
455.11860,0.13140
457.04707,0.05891
458.97554,0.04082
460.90401,0.09791
462.83248,0.10315
464.76095,0.06329
466.68942,0.08397
468.61788,0.14403
470.54635,0.44191
472.47482,2.34709
474.40329,4.79517
476.33176,3.06794
478.26023,0.79784
480.18870,0.10170
482.11716,0.08712
484.04563,0.10723
485.97410,0.12384
487.90257,0.12920
489.83104,0.08378
491.75951,-0.00897
493.68798,-0.04025
495.61645,0.01361
497.54491,0.10234
499.47338,0.16658
501.40185,0.17111
503.33032,0.10967
505.25879,0.06860
507.18726,0.09790
509.11573,0.13265
511.04419,0.14587
512.97266,0.13329
514.90113,0.09149
516.82960,0.09076
518.75807,0.15101
520.68654,0.16039
522.61501,0.10508
524.54348,0.07790
526.47194,0.12942
528.40041,0.18264
530.32888,0.17172
532.25735,0.13193
534.18582,0.10144
536.11429,0.07889
538.04276,0.06717
539.97122,0.09313
541.89969,0.13581
543.82816,0.16131
545.75663,0.18864
547.68510,0.20875
549.61357,0.15874
551.54204,-0.01963
553.47051,-0.18801
555.39897,-0.13239
557.32744,0.04744
559.25591,0.14312
561.18438,0.17270
563.11285,0.18649
565.04132,0.18852
566.96979,0.16432
568.89825,0.11840
570.82672,0.11022
572.75519,0.13856
574.68366,0.15540
576.61213,0.15450
578.54060,0.14989
580.46907,0.13783
582.39754,0.11799
584.32600,0.09499
586.25447,0.07799
588.18294,0.07886
590.11141,0.08650
592.03988,0.09211
593.96835,0.10092
595.89682,0.11119
597.82528,0.12292
599.75375,0.13417
601.68222,0.12508
603.61069,0.10315
605.53916,0.09485
607.46763,0.09667
609.39610,0.10473
611.32456,0.10641
613.25303,0.10449
615.18150,0.12729
617.10997,0.15361
619.03844,0.14629
620.96691,0.12938
622.89538,0.12610
624.82385,0.12473
626.75231,0.12928
628.68078,0.14461
630.60925,0.15837
632.53772,0.16263
634.46619,0.15962
636.39466,0.15136
638.32313,0.14322
640.25159,0.14313
642.18006,0.13073
644.10853,0.10037
646.03700,0.08585
647.96547,0.09947
649.89394,0.11791
651.82241,0.11396
653.75088,0.08771
655.67934,0.06352
657.60781,0.06090
659.53628,0.08398
661.46475,0.12130
663.39322,0.14487
665.32169,0.14072
667.25016,0.12826
669.17862,0.14127
671.10709,0.15064
673.03556,0.13140
674.96403,0.10564
676.89250,0.09765
678.82097,0.09588
680.74944,0.09394
682.67791,0.10504
684.60637,0.12254
686.53484,0.13382
688.46331,0.12591
690.39178,0.10727
692.32025,0.10537
694.24872,0.11742
696.17719,0.12658
698.10565,0.13140
700.03412,0.13385
701.96259,0.12681
703.89106,0.11557
705.81953,0.11891
707.74800,0.13393
709.67647,0.14513
711.60494,0.14689
713.53340,0.13939
715.46187,0.12975
717.39034,0.12935
719.31881,0.13975
721.24728,0.15533
723.17575,0.16658
725.10422,0.16356
727.03268,0.15170
728.96115,0.13992
730.88962,0.13310
732.81809,0.13404
734.74656,0.13454
736.67503,0.13298
738.60350,0.13815
740.53197,0.14634
742.46043,0.14404
744.38890,0.13311
746.31737,0.12536
748.24584,0.12221
750.17431,0.12304
752.10278,0.12632
754.03125,0.12473
755.95971,0.11574
757.88818,0.11078
759.81665,0.11717
761.74512,0.12391
763.67359,0.12611
765.60206,0.13067
767.53053,0.13773
769.45900,0.14763
771.38746,0.15726
773.31593,0.14995
775.24440,0.13349
777.17287,0.12997
779.10134,0.13412
781.02981,0.14075
782.95828,0.14605
784.88674,0.14057
786.81521,0.12855
788.74368,0.11796
790.67215,0.11270
792.60062,0.11438
794.52909,0.12242
796.45756,0.13210
798.38602,0.14080
800.31449,0.15249
802.24296,0.16176
804.17143,0.15655
806.09990,0.13610
808.02837,0.11322
809.95684,0.10743
811.88531,0.12353
813.81377,0.14975
815.74224,0.16788
817.67071,0.16679
819.59918,0.15874
821.52765,0.15458
823.45612,0.15082
825.38459,0.14676
827.31305,0.14407
829.24152,0.14387
831.16999,0.14791
833.09846,0.15724
835.02693,0.16240
836.95540,0.15224
838.88387,0.13845
840.81234,0.13813
842.74080,0.14617
844.66927,0.14896
846.59774,0.14321
848.52621,0.13496
850.45468,0.13105
852.38315,0.13046
854.31162,0.13122
856.24008,0.13425
858.16855,0.13633
860.09702,0.13702
862.02549,0.13814
863.95396,0.13579
865.88243,0.12927
867.81090,0.12476
869.73937,0.13052
871.66783,0.14282
873.59630,0.14389
875.52477,0.13711
877.45324,0.13664
879.38171,0.13409
881.31018,0.12986
883.23865,0.13307
885.16711,0.13241
887.09558,0.12736
889.02405,0.13006
890.95252,0.13299
892.88099,0.13045
894.80946,0.13236
896.73793,0.13764
898.66640,0.13551
900.59486,0.12904
902.52333,0.12661
904.45180,0.13203
906.38027,0.14289
908.30874,0.14944
910.23721,0.15192
912.16568,0.15476
914.09414,0.15684
916.02261,0.15846
917.95108,0.15462
919.87955,0.14472
921.80802,0.13918
923.73649,0.13861
925.66496,0.14140
927.59343,0.15083
929.52189,0.15458
931.45036,0.14558
933.37883,0.13786
935.30730,0.13694
937.23577,0.13902
939.16424,0.14343
941.09271,0.14597
943.02117,0.14672
944.94964,0.15002
946.87811,0.14500
948.80658,0.12580
950.73505,0.11395
952.66352,0.12076
954.59199,0.12911
956.52045,0.13144
958.44892,0.13688
960.37739,0.14112
962.30586,0.13959
964.23433,0.14141
966.16280,0.14640
968.09127,0.14802
970.01974,0.14977
971.94820,0.15286
973.87667,0.15551
975.80514,0.15400
977.73361,0.14603
979.66208,0.14450
981.59055,0.15476
983.51902,0.16485
985.44748,0.16435
987.37595,0.15359
989.30442,0.14786
991.23289,0.15349
993.16136,0.16073
995.08983,0.16534
997.01830,0.16495
998.94677,0.15743
1000.87523,0.14770
1002.80370,0.14167
1004.73217,0.14027
1006.66064,0.14469
1008.58911,0.15355
1010.51758,0.15623
1012.44605,0.15110
1014.37451,0.14632
1016.30298,0.14112
1018.23145,0.13728
1020.15992,0.14208
1022.08839,0.15070
1024.01686,0.15431
1025.94533,0.15949
1027.87380,0.16607
1029.80226,0.15800
1031.73073,0.14319
1033.65920,0.14029
1035.58767,0.14580
1037.51614,0.15183
1039.44461,0.15527
1041.37308,0.15557
1043.30154,0.15555
1045.23001,0.15753
1047.15848,0.15790
1049.08695,0.15463
1051.01542,0.15359
1052.94389,0.15397
1054.87236,0.15446
1056.80083,0.15718
1058.72929,0.15717
1060.65776,0.15745
1062.58623,0.16257
1064.51470,0.16343
1066.44317,0.15922
1068.37164,0.16106
1070.30011,0.16813
1072.22857,0.16754
1074.15704,0.15653
1076.08551,0.14305
1078.01398,0.13454
1079.94245,0.13925
1081.87092,0.15136
1083.79939,0.15705
1085.72786,0.15947
1087.65632,0.16627
1089.58479,0.16920
1091.51326,0.16070
1093.44173,0.15466
1095.37020,0.16013
1097.29867,0.16504
1099.22714,0.16085
1101.15560,0.15110
1103.08407,0.14084
1105.01254,0.13409
1106.94101,0.13922
1108.86948,0.15628
1110.79795,0.16611
1112.72642,0.16163
1114.65489,0.16042
1116.58335,0.16663
1118.51182,0.16850
1120.44029,0.16412
1122.36876,0.15732
1124.29723,0.15288
1126.22570,0.15193
1128.15417,0.15046
1130.08263,0.15005
1132.01110,0.15412
1133.93957,0.15888
1135.86804,0.16046
1137.79651,0.15950
1139.72498,0.15587
1141.65345,0.15265
1143.58191,0.15428
1145.51038,0.15575
1147.43885,0.15236
1149.36732,0.15209
1151.29579,0.15969
1153.22426,0.16831
1155.15273,0.17352
1157.08120,0.17494
1159.00966,0.17060
1160.93813,0.16362
1162.86660,0.15985
1164.79507,0.15746
1166.72354,0.15807
1168.65201,0.16401
1170.58048,0.16805
1172.50894,0.16868
1174.43741,0.16964
1176.36588,0.16979
1178.29435,0.16720
1180.22282,0.16231
1182.15129,0.15759
1184.07976,0.15874
1186.00823,0.16610
1187.93669,0.17049
1189.86516,0.16839
1191.79363,0.16316
1193.72210,0.15928
1195.65057,0.15924
1197.57904,0.16045
1199.50751,0.16328
1201.43597,0.16748
1203.36444,0.16724
1205.29291,0.16463
1207.22138,0.16438
1209.14985,0.16359
1211.07832,0.16341
1213.00679,0.16516
1214.93526,0.16496
1216.86372,0.16354
1218.79219,0.16145
1220.72066,0.15868
1222.64913,0.15926
1224.57760,0.16242
1226.50607,0.16279
1228.43454,0.16200
1230.36300,0.16478
1232.29147,0.16683
1234.21994,0.16424
1236.14841,0.16233
1238.07688,0.16193
1240.00535,0.15992
1241.93382,0.15801
1243.86229,0.15562
1245.79075,0.15253
1247.71922,0.15329
1249.64769,0.15663
1251.57616,0.15608
1253.50463,0.15471
1255.43310,0.15739
1257.36157,0.15618
1259.29003,0.15039
1261.21850,0.15313
1263.14697,0.16162
1265.07544,0.16142
1267.00391,0.15208
1268.93238,0.14409
1270.86085,0.14587
1272.78932,0.15329
1274.71778,0.15663
1276.64625,0.15806
1278.57472,0.15919
1280.50319,0.15326
1282.43166,0.14909
1284.36013,0.15752
1286.28860,0.16292
1288.21706,0.15824
1290.14553,0.15753
1292.07400,0.15877
1294.00247,0.15481
1295.93094,0.14940
1297.85941,0.14229
1299.78788,0.12795
1301.71634,0.10164
1303.64481,0.07507
1305.57328,0.07937
1307.50175,0.11731
1309.43022,0.15052
1311.35869,0.16168
1313.28716,0.16552
1315.21563,0.16799
1317.14409,0.16808
1319.07256,0.16640
1321.00103,0.16313
1322.92950,0.16207
1324.85797,0.15963
1326.78644,0.15436
1328.71491,0.15304
1330.64337,0.14888
1332.57184,0.14383
1334.50031,0.14769
1336.42878,0.15154
1338.35725,0.15345
1340.28572,0.15085
1342.21419,0.14192
1344.14266,0.13856
1346.07112,0.13604
1347.99959,0.13419
1349.92806,0.14170
1351.85653,0.15095
1353.78500,0.15363
1355.71347,0.15322
1357.64194,0.15694
1359.57040,0.16564
1361.49887,0.17526
1363.42734,0.17800
1365.35581,0.17172
1367.28428,0.16702
1369.21275,0.16866
1371.14122,0.17145
1373.06969,0.17297
1374.99815,0.17513
1376.92662,0.17491
1378.85509,0.17216
1380.78356,0.17073
1382.71203,0.17041
1384.64050,0.17234
1386.56897,0.17767
1388.49743,0.18041
1390.42590,0.17979
1392.35437,0.18311
1394.28284,0.19158
1396.21131,0.19679
1398.13978,0.19225
1400.06825,0.18142
1401.99672,0.17357
1403.92518,0.17328
1405.85365,0.17668
1407.78212,0.17954
1409.71059,0.18252
1411.63906,0.18229
1413.56753,0.17824
1415.49600,0.17795
1417.42446,0.18295
1419.35293,0.18651
1421.28140,0.18614
1423.20987,0.18447
1425.13834,0.18162
1427.06681,0.17953
1428.99528,0.17934
1430.92375,0.18050
1432.85221,0.18194
1434.78068,0.18225
1436.70915,0.18310
1438.63762,0.18619
1440.56609,0.18565
1442.49456,0.18046
1444.42303,0.17794
1446.35149,0.18137
1448.27996,0.18460
1450.20843,0.18443
1452.13690,0.18605
1454.06537,0.19268
1455.99384,0.20360
1457.92231,0.21004
1459.85077,0.20389
1461.77924,0.19732
1463.70771,0.19413
1465.63618,0.19029
1467.56465,0.18582
1469.49312,0.18748
1471.42159,0.19796
1473.35006,0.20617
1475.27852,0.19919
1477.20699,0.18975
1479.13546,0.18696
1481.06393,0.18957
1482.99240,0.19247
1484.92087,0.19624
1486.84934,0.20447
1488.77780,0.21009
1490.70627,0.20151
1492.63474,0.19269
1494.56321,0.19444
1496.49168,0.20178
1498.42015,0.20255
1500.34862,0.19784
1502.27709,0.20069
1504.20555,0.21376
1506.13402,0.23152
1508.06249,0.23088
1509.99096,0.21455
1511.91943,0.20086
1513.84790,0.19555
1515.77637,0.19998
1517.70483,0.20840
1519.63330,0.21593
1521.56177,0.21839
1523.49024,0.21375
1525.41871,0.20917
1527.34718,0.20206
1529.27565,0.19669
1531.20412,0.20008
1533.13258,0.20421
1535.06105,0.19861
1536.98952,0.19646
1538.91799,0.21170
1540.84646,0.23490
1542.77493,0.22643
1544.70340,0.20528
1546.63186,0.19216
1548.56033,0.18955
1550.48880,0.19213
1552.41727,0.19706
1554.34574,0.20646
1556.27421,0.22265
1558.20268,0.23966
1560.13115,0.22225
1562.05961,0.20475
1563.98808,0.20118
1565.91655,0.19851
1567.84502,0.19630
1569.77349,0.19391
1571.70196,0.18790
1573.63043,0.18775
1575.55889,0.19429
1577.48736,0.19331
1579.41583,0.18432
1581.34430,0.17553
1583.27277,0.17128
1585.20124,0.17332
1587.12971,0.17557
1589.05818,0.17518
1590.98664,0.17540
1592.91511,0.17728
1594.84358,0.17742
1596.77205,0.17279
1598.70052,0.16883
1600.62899,0.17126
1602.55746,0.17488
1604.48592,0.17446
1606.41439,0.17431
1608.34286,0.17603
1610.27133,0.17674
1612.19980,0.17929
1614.12827,0.18773
1616.05674,0.19795
1617.98521,0.19890
1619.91367,0.19550
1621.84214,0.19427
1623.77061,0.19267
1625.69908,0.19046
1627.62755,0.18933
1629.55602,0.18972
1631.48449,0.19188
1633.41295,0.19641
1635.34142,0.20094
1637.26989,0.19630
1639.19836,0.18954
1641.12683,0.18859
1643.05530,0.19550
1644.98377,0.21195
1646.91223,0.22674
1648.84070,0.22278
1650.76917,0.22224
1652.69764,0.23400
1654.62611,0.22660
1656.55458,0.20757
1658.48305,0.19581
1660.41152,0.19099
1662.33998,0.19256
1664.26845,0.19588
1666.19692,0.20051
1668.12539,0.21158
1670.05386,0.22041
1671.98233,0.21459
1673.91080,0.20773
1675.83926,0.20396
1677.76773,0.20215
1679.69620,0.20740
1681.62467,0.22147
1683.55314,0.23615
1685.48161,0.22741
1687.41008,0.21103
1689.33855,0.20242
1691.26701,0.19811
1693.19548,0.19921
1695.12395,0.20861
1697.05242,0.22118
1698.98089,0.22365
1700.90936,0.21137
1702.83783,0.20250
1704.76629,0.20374
1706.69476,0.20340
1708.62323,0.19829
1710.55170,0.19585
1712.48017,0.19973
1714.40864,0.20939
1716.33711,0.21643
1718.26558,0.20772
1720.19404,0.19465
1722.12251,0.18786
1724.05098,0.18578
1725.97945,0.18624
1727.90792,0.18923
1729.83639,0.19427
1731.76486,0.19946
1733.69332,0.20073
1735.62179,0.19463
1737.55026,0.19262
1739.47873,0.19534
1741.40720,0.19458
1743.33567,0.18993
1745.26414,0.18875
1747.19261,0.19339
1749.12107,0.19882
1751.04954,0.19840
1752.97801,0.19308
1754.90648,0.19033
1756.83495,0.19002
1758.76342,0.18712
1760.69189,0.18532
1762.62035,0.18720
1764.54882,0.18725
1766.47729,0.18776
1768.40576,0.19556
1770.33423,0.20814
1772.26270,0.21142
1774.19117,0.20175
1776.11964,0.19508
1778.04810,0.19687
1779.97657,0.20246
1781.90504,0.20249
1783.83351,0.19559
1785.76198,0.18853
1787.69045,0.18688
1789.61892,0.19328
1791.54738,0.20311
1793.47585,0.20336
1795.40432,0.19608
1797.33279,0.19104
1799.26126,0.18964
1801.18973,0.18878
1803.11820,0.18726
1805.04666,0.18724
1806.97513,0.18769
1808.90360,0.18601
1810.83207,0.18360
1812.76054,0.18378
1814.68901,0.18615
1816.61748,0.18594
1818.54595,0.17696
1820.47441,0.16613
1822.40288,0.16909
1824.33135,0.18280
1826.25982,0.19139
1828.18829,0.19607
1830.11676,0.20064
1832.04523,0.19815
1833.97369,0.19218
1835.90216,0.18946
1837.83063,0.18937
1839.75910,0.18909
1841.68757,0.19058
1843.61604,0.19269
1845.54451,0.18938
1847.47298,0.18383
1849.40144,0.17974
1851.32991,0.17781
1853.25838,0.17942
1855.18685,0.18247
1857.11532,0.18377
1859.04379,0.18405
1860.97226,0.18449
1862.90072,0.18546
1864.82919,0.18766
1866.75766,0.19050
1868.68613,0.19325
1870.61460,0.19383
1872.54307,0.19298
1874.47154,0.19249
1876.40001,0.19073
1878.32847,0.18707
1880.25694,0.18339
1882.18541,0.18300
1884.11388,0.18602
1886.04235,0.18856
1887.97082,0.18987
1889.89929,0.18980
1891.82775,0.18752
1893.75622,0.18604
1895.68469,0.18688
1897.61316,0.18824
1899.54163,0.18942
1901.47010,0.19073
1903.39857,0.19108
1905.32704,0.18958
1907.25550,0.18751
1909.18397,0.18617
1911.11244,0.18569
1913.04091,0.18655
1914.96938,0.18860
1916.89785,0.19002
1918.82632,0.18780
1920.75478,0.18389
1922.68325,0.18314
1924.61172,0.18460
1926.54019,0.18576
1928.46866,0.18680
1930.39713,0.18722
1932.32560,0.18687
1934.25407,0.18677
1936.18253,0.18698
1938.11100,0.18738
1940.03947,0.18843
1941.96794,0.18880
1943.89641,0.18640
1945.82488,0.18435
1947.75335,0.18624
1949.68181,0.18891
1951.61028,0.18853
1953.53875,0.18749
1955.46722,0.18888
1957.39569,0.18904
1959.32416,0.18603
1961.25263,0.18440
1963.18110,0.18567
1965.10956,0.18830
1967.03803,0.18907
1968.96650,0.18589
1970.89497,0.18319
1972.82344,0.18236
1974.75191,0.17878
1976.68038,0.17343
1978.60884,0.17155
1980.53731,0.17322
1982.46578,0.17757
1984.39425,0.18268
1986.32272,0.18624
1988.25119,0.18941
1990.17966,0.19021
1992.10812,0.18643
1994.03659,0.18261
1995.96506,0.18333
1997.89353,0.18607
1999.82200,0.18712
2001.75047,0.18770
2003.67894,0.18882
2005.60741,0.18828
2007.53587,0.18593
2009.46434,0.18568
2011.39281,0.18810
2013.32128,0.18942
2015.24975,0.18892
2017.17822,0.18827
2019.10669,0.18770
2021.03515,0.18706
2022.96362,0.18659
2024.89209,0.18628
2026.82056,0.18689
2028.74903,0.18851
2030.67750,0.18849
2032.60597,0.18534
2034.53444,0.18225
2036.46290,0.18281
2038.39137,0.18596
2040.31984,0.18859
2042.24831,0.18909
2044.17678,0.18755
2046.10525,0.18549
2048.03372,0.18468
2049.96218,0.18577
2051.89065,0.18750
2053.81912,0.18777
2055.74759,0.18709
2057.67606,0.18731
2059.60453,0.18801
2061.53300,0.18759
2063.46147,0.18628
2065.38993,0.18577
2067.31840,0.18639
2069.24687,0.18731
2071.17534,0.18763
2073.10381,0.18831
2075.03228,0.18933
2076.96075,0.18830
2078.88921,0.18684
2080.81768,0.18730
2082.74615,0.18841
2084.67462,0.18861
2086.60309,0.18812
2088.53156,0.18800
2090.46003,0.18881
2092.38850,0.18969
2094.31696,0.18986
2096.24543,0.19028
2098.17390,0.18998
2100.10237,0.18795
2102.03084,0.18690
2103.95931,0.18938
2105.88778,0.19285
2107.81624,0.19361
2109.74471,0.19381
2111.67318,0.19437
2113.60165,0.19376
2115.53012,0.19178
2117.45859,0.18855
2119.38706,0.18684
2121.31553,0.18759
2123.24399,0.18827
2125.17246,0.18856
2127.10093,0.18977
2129.02940,0.19071
2130.95787,0.18979
2132.88634,0.18644
2134.81481,0.17884
2136.74327,0.17242
2138.67174,0.17677
2140.60021,0.18533
2142.52868,0.18654
2144.45715,0.18465
2146.38562,0.18504
2148.31409,0.18590
2150.24255,0.18726
2152.17102,0.18906
2154.09949,0.18979
2156.02796,0.18906
2157.95643,0.18821
2159.88490,0.18861
2161.81337,0.18888
2163.74184,0.18761
2165.67030,0.18741
2167.59877,0.18978
2169.52724,0.19038
2171.45571,0.18777
2173.38418,0.18578
2175.31265,0.18640
2177.24112,0.18935
2179.16958,0.19289
2181.09805,0.19394
2183.02652,0.19218
2184.95499,0.19020
2186.88346,0.18921
2188.81193,0.18886
2190.74040,0.18805
2192.66887,0.18748
2194.59733,0.18855
2196.52580,0.18885
2198.45427,0.18741
2200.38274,0.18653
2202.31121,0.18758
2204.23968,0.18966
2206.16815,0.18874
2208.09661,0.18434
2210.02508,0.18087
2211.95355,0.18125
2213.88202,0.18394
2215.81049,0.18397
2217.73896,0.18208
2219.66743,0.18284
2221.59590,0.18544
2223.52436,0.18742
2225.45283,0.18791
2227.38130,0.18781
2229.30977,0.18831
2231.23824,0.18860
2233.16671,0.18837
2235.09518,0.18900
2237.02364,0.19040
2238.95211,0.19071
2240.88058,0.19019
2242.80905,0.18930
2244.73752,0.18735
2246.66599,0.18634
2248.59446,0.18785
2250.52293,0.18877
2252.45139,0.18677
2254.37986,0.18557
2256.30833,0.18838
2258.23680,0.19106
2260.16527,0.19030
2262.09374,0.18959
2264.02221,0.19015
2265.95067,0.18955
2267.87914,0.18927
2269.80761,0.19077
2271.73608,0.19062
2273.66455,0.18827
2275.59302,0.18793
2277.52149,0.18887
2279.44996,0.18754
2281.37842,0.18648
2283.30689,0.18844
2285.23536,0.18992
2287.16383,0.18912
2289.09230,0.18887
2291.02077,0.19030
2292.94924,0.19393
2294.87770,0.19635
2296.80617,0.19323
2298.73464,0.18904
2300.66311,0.18630
2302.59158,0.18263
2304.52005,0.18081
2306.44852,0.18310
2308.37699,0.18395
2310.30545,0.17981
2312.23392,0.17740
2314.16239,0.18116
2316.09086,0.18580
2318.01933,0.18859
2319.94780,0.19192
2321.87627,0.19033
2323.80473,0.17715
2325.73320,0.16179
2327.66167,0.15810
2329.59014,0.16632
2331.51861,0.17086
2333.44708,0.16817
2335.37555,0.17374
2337.30401,0.18528
2339.23248,0.18541
2341.16095,0.17479
2343.08942,0.16585
2345.01789,0.16617
2346.94636,0.17601
2348.87483,0.18739
2350.80330,0.19671
2352.73176,0.19983
2354.66023,0.19144
2356.58870,0.17660
2358.51717,0.15850
2360.44564,0.14682
2362.37411,0.14666
2364.30258,0.14600
2366.23104,0.14859
2368.15951,0.15651
2370.08798,0.16390
2372.01645,0.16910
2373.94492,0.17210
2375.87339,0.17634
2377.80186,0.18021
2379.73033,0.18048
2381.65879,0.18055
2383.58726,0.18314
2385.51573,0.18682
2387.44420,0.18904
2389.37267,0.18883
2391.30114,0.18793
2393.22961,0.18836
2395.15807,0.19002
2397.08654,0.19205
2399.01501,0.19343
2400.94348,0.19287
2402.87195,0.19139
2404.80042,0.19107
2406.72889,0.19194
2408.65736,0.19149
2410.58582,0.18987
2412.51429,0.19060
2414.44276,0.19125
2416.37123,0.18801
2418.29970,0.18457
2420.22817,0.18462
2422.15664,0.18614
2424.08510,0.18632
2426.01357,0.18532
2427.94204,0.18491
2429.87051,0.18502
2431.79898,0.18453
2433.72745,0.18484
2435.65592,0.18658
2437.58439,0.18841
2439.51285,0.19001
2441.44132,0.19105
2443.36979,0.19158
2445.29826,0.19316
2447.22673,0.19569
2449.15520,0.19946
2451.08367,0.20578
2453.01213,0.20910
2454.94060,0.20480
2456.86907,0.19678
2458.79754,0.19144
2460.72601,0.19153
2462.65448,0.19185
2464.58295,0.18915
2466.51142,0.18625
2468.43988,0.18396
2470.36835,0.18284
2472.29682,0.18394
2474.22529,0.18604
2476.15376,0.18735
2478.08223,0.18737
2480.01070,0.18727
2481.93916,0.18771
2483.86763,0.18747
2485.79610,0.18630
2487.72457,0.18506
2489.65304,0.18580
2491.58151,0.18936
2493.50998,0.19156
2495.43844,0.18989
2497.36691,0.18693
2499.29538,0.18608
2501.22385,0.18835
2503.15232,0.19041
2505.08079,0.18962
2507.00926,0.18944
2508.93773,0.19266
2510.86619,0.19634
2512.79466,0.19804
2514.72313,0.19811
2516.65160,0.19579
2518.58007,0.19172
2520.50854,0.18928
2522.43701,0.18980
2524.36547,0.19172
2526.29394,0.19298
2528.22241,0.19404
2530.15088,0.19569
2532.07935,0.19594
2534.00782,0.19535
2535.93629,0.19536
2537.86476,0.19409
2539.79322,0.19114
2541.72169,0.18900
2543.65016,0.18899
2545.57863,0.19071
2547.50710,0.19234
2549.43557,0.19125
2551.36404,0.18901
2553.29250,0.19028
2555.22097,0.19397
2557.14944,0.19502
2559.07791,0.19428
2561.00638,0.19422
2562.93485,0.19419
2564.86332,0.19316
2566.79179,0.19061
2568.72025,0.18900
2570.64872,0.19151
2572.57719,0.19694
2574.50566,0.19975
2576.43413,0.19828
2578.36260,0.19645
2580.29107,0.19565
2582.21953,0.19520
2584.14800,0.19511
2586.07647,0.19515
2588.00494,0.19369
2589.93341,0.19006
2591.86188,0.18732
2593.79035,0.18816
2595.71882,0.19104
2597.64728,0.19276
2599.57575,0.19266
2601.50422,0.19166
2603.43269,0.19029
2605.36116,0.18978
2607.28963,0.19207
2609.21810,0.19369
2611.14656,0.19162
2613.07503,0.19272
2615.00350,0.19559
2616.93197,0.19217
2618.86044,0.18792
2620.78891,0.18928
2622.71738,0.19223
2624.64585,0.19286
2626.57431,0.19210
2628.50278,0.19127
2630.43125,0.19086
2632.35972,0.19136
2634.28819,0.19162
2636.21666,0.19035
2638.14513,0.18929
2640.07359,0.18934
2642.00206,0.18809
2643.93053,0.18683
2645.85900,0.18867
2647.78747,0.19199
2649.71594,0.19411
2651.64441,0.19334
2653.57288,0.19112
2655.50134,0.19161
2657.42981,0.19449
2659.35828,0.19595
2661.28675,0.19393
2663.21522,0.19194
2665.14369,0.19439
2667.07216,0.19735
2669.00062,0.19627
2670.92909,0.19312
2672.85756,0.19040
2674.78603,0.18948
2676.71450,0.18992
2678.64297,0.19019
2680.57144,0.19054
2682.49990,0.18994
2684.42837,0.18820
2686.35684,0.18842
2688.28531,0.19140
2690.21378,0.19367
2692.14225,0.19257
2694.07072,0.19180
2695.99919,0.19461
2697.92765,0.19781
2699.85612,0.19816
2701.78459,0.19615
2703.71306,0.19473
2705.64153,0.19367
2707.57000,0.19142
2709.49847,0.19112
2711.42693,0.19391
2713.35540,0.19649
2715.28387,0.19733
2717.21234,0.19751
2719.14081,0.19845
2721.06928,0.20034
2722.99775,0.20075
2724.92622,0.19830
2726.85468,0.19763
2728.78315,0.20092
2730.71162,0.20233
2732.64009,0.20175
2734.56856,0.20401
2736.49703,0.20473
2738.42550,0.20045
2740.35396,0.19739
2742.28243,0.19961
2744.21090,0.20355
2746.13937,0.20457
2748.06784,0.20274
2749.99631,0.20034
2751.92478,0.19757
2753.85325,0.19456
2755.78171,0.19310
2757.71018,0.19500
2759.63865,0.19927
2761.56712,0.20273
2763.49559,0.20531
2765.42406,0.20599
2767.35253,0.20093
2769.28099,0.19428
2771.20946,0.19485
2773.13793,0.20270
2775.06640,0.20817
2776.99487,0.20553
2778.92334,0.20024
2780.85181,0.19810
2782.78028,0.19890
2784.70874,0.20074
2786.63721,0.20081
2788.56568,0.19892
2790.49415,0.19906
2792.42262,0.19932
2794.35109,0.19733
2796.27956,0.19756
2798.20802,0.20059
2800.13649,0.20213
2802.06496,0.20047
2803.99343,0.19839
2805.92190,0.19767
2807.85037,0.19750
2809.77884,0.19826
2811.70731,0.19910
2813.63577,0.19967
2815.56424,0.20240
2817.49271,0.20662
2819.42118,0.20786
2821.34965,0.20499
2823.27812,0.20172
2825.20659,0.20102
2827.13505,0.20161
2829.06352,0.20272
2830.99199,0.20533
2832.92046,0.20649
2834.84893,0.20580
2836.77740,0.20705
2838.70587,0.20913
2840.63433,0.20982
2842.56280,0.21045
2844.49127,0.21005
2846.41974,0.20707
2848.34821,0.20521
2850.27668,0.20585
2852.20515,0.20440
2854.13362,0.19929
2856.06208,0.19509
2857.99055,0.19559
2859.91902,0.19929
2861.84749,0.20180
2863.77596,0.20076
2865.70443,0.19853
2867.63290,0.19877
2869.56136,0.20049
2871.48983,0.19893
2873.41830,0.19486
2875.34677,0.19380
2877.27524,0.19637
2879.20371,0.19986
2881.13218,0.20030
2883.06065,0.19535
2884.98911,0.19227
2886.91758,0.19762
2888.84605,0.20439
2890.77452,0.20582
2892.70299,0.20261
2894.63146,0.19675
2896.55993,0.19327
2898.48839,0.19334
2900.41686,0.19317
2902.34533,0.19035
2904.27380,0.18397
2906.20227,0.18054
2908.13074,0.18539
2910.05921,0.19153
2911.98768,0.19285
2913.91614,0.18644
2915.84461,0.17445
2917.77308,0.17352
2919.70155,0.18577
2921.63002,0.19408
2923.55849,0.18847
2925.48696,0.17332
2927.41542,0.17423
2929.34389,0.19254
2931.27236,0.19943
2933.20083,0.19668
2935.12930,0.19001
2937.05777,0.17818
2938.98624,0.18032
2940.91471,0.19454
2942.84317,0.20095
2944.77164,0.19508
2946.70011,0.17947
2948.62858,0.17295
2950.55705,0.18750
2952.48552,0.20195
2954.41399,0.19965
2956.34245,0.18257
2958.27092,0.17084
2960.19939,0.18249
2962.12786,0.20053
2964.05633,0.20475
2965.98480,0.19379
2967.91327,0.18001
2969.84174,0.18463
2971.77020,0.20419
2973.69867,0.21466
2975.62714,0.20253
2977.55561,0.17927
2979.48408,0.17577
2981.41255,0.19203
2983.34102,0.19994
2985.26948,0.19403
2987.19795,0.18378
2989.12642,0.18117
2991.05489,0.19147
2992.98336,0.20155
2994.91183,0.20117
2996.84030,0.19513
2998.76877,0.19594
3000.69723,0.20708
3002.62570,0.21642
3004.55417,0.21476
3006.48264,0.20470
3008.41111,0.19124
3010.33958,0.16953
3012.26805,0.13103
3014.19651,0.08362
3016.12498,0.05540
3018.05345,0.07772
3019.98192,0.13976
3021.91039,0.18895
3023.83886,0.20381
3025.76733,0.20139
3027.69579,0.19568
3029.62426,0.19560
3031.55273,0.20294
3033.48120,0.20855
3035.40967,0.20715
3037.33814,0.20384
3039.26661,0.20548
3041.19508,0.20918
3043.12354,0.20840
3045.05201,0.20228
3046.98048,0.19358
3048.90895,0.19218
3050.83742,0.20152
3052.76589,0.20845
3054.69436,0.20158
3056.62282,0.18690
3058.55129,0.18500
3060.47976,0.19606
3062.40823,0.20108
3064.33670,0.19413
3066.26517,0.18315
3068.19364,0.18453
3070.12211,0.19800
3072.05057,0.20575
3073.97904,0.19870
3075.90751,0.18411
3077.83598,0.18332
3079.76445,0.19739
3081.69292,0.20438
3083.62139,0.19572
3085.54985,0.18678
3087.47832,0.19356
3089.40679,0.20379
3091.33526,0.19839
3093.26373,0.17855
3095.19220,0.16759
3097.12067,0.18105
3099.04914,0.19952
3100.97760,0.20044
3102.90607,0.18316
3104.83454,0.17304
3106.76301,0.18570
3108.69148,0.20043
3110.61995,0.19604
3112.54842,0.17985
3114.47688,0.17904
3116.40535,0.19604
3118.33382,0.20563
3120.26229,0.19693
3122.19076,0.18522
3124.11923,0.18916
3126.04770,0.19996
3127.97617,0.20072
3129.90463,0.19470
3131.83310,0.19575
3133.76157,0.20567
3135.69004,0.21114
3137.61851,0.20530
3139.54698,0.19593
3141.47545,0.19581
3143.40391,0.20408
3145.33238,0.20839
3147.26085,0.20622
3149.18932,0.20506
3151.11779,0.20636
3153.04626,0.20623
3154.97473,0.20575
3156.90320,0.20700
3158.83166,0.21033
3160.76013,0.21325
3162.68860,0.21372
3164.61707,0.21344
3166.54554,0.21330
3168.47401,0.21492
3170.40248,0.21785
3172.33094,0.21795
3174.25941,0.21540
3176.18788,0.21482
3178.11635,0.21688
3180.04482,0.21826
3181.97329,0.21844
3183.90176,0.21963
3185.83022,0.22048
3187.75869,0.21820
3189.68716,0.21560
3191.61563,0.21562
3193.54410,0.21715
3195.47257,0.21767
3197.40104,0.21452
3199.32951,0.21066
3201.25797,0.20958
3203.18644,0.20917
3205.11491,0.20899
3207.04338,0.20935
3208.97185,0.20985
3210.90032,0.21205
3212.82879,0.21639
3214.75725,0.21945
3216.68572,0.21803
3218.61419,0.21547
3220.54266,0.21348
3222.47113,0.20989
3224.39960,0.20766
3226.32807,0.20999
3228.25654,0.21425
3230.18500,0.21600
3232.11347,0.21429
3234.04194,0.21266
3235.97041,0.21275
3237.89888,0.21215
3239.82735,0.21028
3241.75582,0.20739
3243.68428,0.20456
3245.61275,0.20439
3247.54122,0.20643
3249.46969,0.20839
3251.39816,0.20714
3253.32663,0.20454
3255.25510,0.20800
3257.18357,0.21500
3259.11203,0.21453
3261.04050,0.20754
3262.96897,0.20395
3264.89744,0.20255
3266.82591,0.19948
3268.75438,0.19907
3270.68285,0.20143
3272.61131,0.20424
3274.53978,0.20882
3276.46825,0.21252
3278.39672,0.21390
3280.32519,0.21560
3282.25366,0.21550
3284.18213,0.21323
3286.11060,0.21207
3288.03906,0.21035
3289.96753,0.20773
3291.89600,0.20970
3293.82447,0.21691
3295.75294,0.22302
3297.68141,0.22302
3299.60988,0.21644
3301.53834,0.20925
3303.46681,0.20994
3305.39528,0.21535
3307.32375,0.21551
3309.25222,0.21297
3311.18069,0.21233
3313.10916,0.20973
3315.03763,0.20680
3316.96609,0.20887
3318.89456,0.21386
3320.82303,0.21576
3322.75150,0.21470
3324.67997,0.21454
3326.60844,0.21417
3328.53691,0.21180
3330.46537,0.21143
3332.39384,0.21619
3334.32231,0.22066
3336.25078,0.21883
3338.17925,0.21316
3340.10772,0.20978
3342.03619,0.20855
3343.96466,0.20704
3345.89312,0.20844
3347.82159,0.21254
3349.75006,0.21322
3351.67853,0.21121
3353.60700,0.21142
3355.53547,0.21171
3357.46394,0.21308
3359.39240,0.22062
3361.32087,0.22748
3363.24934,0.22617
3365.17781,0.22219
3367.10628,0.22366
3369.03475,0.22794
3370.96322,0.22678
3372.89168,0.22337
3374.82015,0.22094
3376.74862,0.21450
3378.67709,0.20996
3380.60556,0.21612
3382.53403,0.22458
3384.46250,0.22146
3386.39097,0.20902
3388.31943,0.20197
3390.24790,0.20402
3392.17637,0.20449
3394.10484,0.20017
3396.03331,0.20017
3397.96178,0.20573
3399.89025,0.20933
3401.81871,0.20791
3403.74718,0.20499
3405.67565,0.20256
3407.60412,0.19888
3409.53259,0.19793
3411.46106,0.20164
3413.38953,0.20224
3415.31800,0.19643
3417.24646,0.19079
3419.17493,0.19104
3421.10340,0.19647
3423.03187,0.20163
3424.96034,0.20231
3426.88881,0.20296
3428.81728,0.20577
3430.74574,0.20756
3432.67421,0.20707
3434.60268,0.20384
3436.53115,0.20345
3438.45962,0.20758
3440.38809,0.20778
3442.31656,0.20303
3444.24503,0.20277
3446.17349,0.20702
3448.10196,0.20624
3450.03043,0.20243
3451.95890,0.20264
3453.88737,0.20729
3455.81584,0.20910
3457.74431,0.20165
3459.67277,0.19169
3461.60124,0.18733
3463.52971,0.18984
3465.45818,0.19505
3467.38665,0.19737
3469.31512,0.19721
3471.24359,0.19732
3473.17206,0.19787
3475.10052,0.19494
3477.02899,0.18659
3478.95746,0.18285
3480.88593,0.18985
3482.81440,0.19546
3484.74287,0.19329
3486.67134,0.18973
3488.59980,0.18739
3490.52827,0.18689
3492.45674,0.18878
3494.38521,0.19274
3496.31368,0.19491
3498.24215,0.19272
3500.17062,0.19071
3502.09909,0.19035
3504.02755,0.18954
3505.95602,0.18606
3507.88449,0.17851
3509.81296,0.17226
3511.74143,0.17301
3513.66990,0.17699
3515.59837,0.18016
3517.52683,0.18340
3519.45530,0.18410
3521.38377,0.17851
3523.31224,0.17158
3525.24071,0.17077
3527.16918,0.17544
3529.09765,0.17778
3531.02611,0.17418
3532.95458,0.17212
3534.88305,0.17628
3536.81152,0.17971
3538.73999,0.17762
3540.66846,0.17746
3542.59693,0.17859
3544.52540,0.17324
3546.45386,0.16839
3548.38233,0.17165
3550.31080,0.17721
3552.23927,0.17774
3554.16774,0.17086
3556.09621,0.16316
3558.02468,0.15999
3559.95314,0.16284
3561.88161,0.16872
3563.81008,0.17085
3565.73855,0.17062
3567.66702,0.17081
3569.59549,0.16664
3571.52396,0.16216
3573.45243,0.16161
3575.38089,0.16348
3577.30936,0.16469
3579.23783,0.16311
3581.16630,0.16241
3583.09477,0.16723
3585.02324,0.17473
3586.95171,0.17641
3588.88017,0.16787
3590.80864,0.15956
3592.73711,0.15574
3594.66558,0.15398
3596.59405,0.15398
3598.52252,0.15666
3600.45099,0.16116
3602.37946,0.16481
3604.30792,0.16719
3606.23639,0.17156
3608.16486,0.17592
3610.09333,0.17423
3612.02180,0.16800
3613.95027,0.15758
3615.87874,0.15021
3617.80720,0.15325
3619.73567,0.15731
3621.66414,0.15357
3623.59261,0.14785
3625.52108,0.14575
3627.44955,0.15036
3629.37802,0.15534
3631.30649,0.15016
3633.23495,0.14331
3635.16342,0.14087
3637.09189,0.14240
3639.02036,0.14300
3640.94883,0.14004
3642.87730,0.13942
3644.80577,0.14746
3646.73423,0.16182
3648.66270,0.16760
3650.59117,0.15105
3652.51964,0.13808
3654.44811,0.13622
3656.37658,0.13688
3658.30505,0.13566
3660.23352,0.13454
3662.16198,0.13234
3664.09045,0.12683
3666.01892,0.12371
3667.94739,0.13047
3669.87586,0.14138
3671.80433,0.14371
3673.73280,0.14407
3675.66126,0.14417
3677.58973,0.14195
3679.51820,0.13920
3681.44667,0.13691
3683.37514,0.13672
3685.30361,0.13653
3687.23208,0.13753
3689.16055,0.13933
3691.08901,0.13724
3693.01748,0.13564
3694.94595,0.13547
3696.87442,0.13542
3698.80289,0.13188
3700.73136,0.12646
3702.65983,0.12984
3704.58829,0.13695
3706.51676,0.13812
3708.44523,0.13887
3710.37370,0.14313
3712.30217,0.14148
3714.23064,0.13597
3716.15911,0.13517
3718.08757,0.13734
3720.01604,0.13864
3721.94451,0.13704
3723.87298,0.13632
3725.80145,0.13847
3727.72992,0.13862
3729.65839,0.13858
3731.58686,0.14243
3733.51532,0.14771
3735.44379,0.15176
3737.37226,0.15107
3739.30073,0.14485
3741.22920,0.14056
3743.15767,0.14337
3745.08614,0.15006
3747.01460,0.15079
3748.94307,0.14931
3750.87154,0.14666
3752.80001,0.13953
3754.72848,0.13354
3756.65695,0.13073
3758.58542,0.12838
3760.51389,0.12500
3762.44235,0.12462
3764.37082,0.12759
3766.29929,0.12991
3768.22776,0.13051
3770.15623,0.13182
3772.08470,0.13186
3774.01317,0.12820
3775.94163,0.12750
3777.87010,0.13486
3779.79857,0.13934
3781.72704,0.13479
3783.65551,0.13180
3785.58398,0.13086
3787.51245,0.12718
3789.44092,0.12212
3791.36938,0.12028
3793.29785,0.12368
3795.22632,0.12802
3797.15479,0.12972
3799.08326,0.13331
3801.01173,0.13913
3802.94020,0.13876
3804.86866,0.13604
3806.79713,0.13088
3808.72560,0.12151
3810.65407,0.11869
3812.58254,0.12323
3814.51101,0.12944
3816.43948,0.13322
3818.36795,0.13805
3820.29641,0.14602
3822.22488,0.14502
3824.15335,0.13948
3826.08182,0.13766
3828.01029,0.13358
3829.93876,0.12874
3831.86723,0.12693
3833.79569,0.12574
3835.72416,0.12674
3837.65263,0.13157
3839.58110,0.13260
3841.50957,0.13129
3843.43804,0.13130
3845.36651,0.12724
3847.29498,0.12249
3849.22344,0.12265
3851.15191,0.12921
3853.08038,0.14101
3855.00885,0.13722
3856.93732,0.12523
3858.86579,0.11969
3860.79426,0.12094
3862.72272,0.12777
3864.65119,0.13145
3866.57966,0.12727
3868.50813,0.12486
3870.43660,0.12761
3872.36507,0.12870
3874.29354,0.12453
3876.22200,0.11745
3878.15047,0.11358
3880.07894,0.11620
3882.00741,0.12193
3883.93588,0.12396
3885.86435,0.12132
3887.79282,0.12090
3889.72129,0.12489
3891.64975,0.12745
3893.57822,0.12498
3895.50669,0.12323
3897.43516,0.12385
3899.36363,0.12232
3901.29210,0.11740
3903.22057,0.11423
3905.14903,0.11767
3907.07750,0.11867
3909.00597,0.11340
3910.93444,0.11196
3912.86291,0.11729
3914.79138,0.12139
3916.71985,0.11723
3918.64832,0.11024
3920.57678,0.10832
3922.50525,0.10827
3924.43372,0.10985
3926.36219,0.11411
3928.29066,0.11880
3930.21913,0.12126
3932.14760,0.11911
3934.07606,0.11365
3936.00453,0.10824
3937.93300,0.10627
3939.86147,0.10823
3941.78994,0.10874
3943.71841,0.10522
3945.64688,0.10415
3947.57535,0.10769
3949.50381,0.11114
3951.43228,0.10945
3953.36075,0.10434
3955.28922,0.10285
3957.21769,0.10340
3959.14616,0.10099
3961.07463,0.10000
3963.00309,0.10201
3964.93156,0.10147
3966.86003,0.09933
3968.78850,0.10095
3970.71697,0.10581
3972.64544,0.10818
3974.57391,0.10497
3976.50238,0.10151
3978.43084,0.10169
3980.35931,0.10331
3982.28778,0.10471
3984.21625,0.10429
3986.14472,0.10161
3988.07319,0.09749
3990.00166,0.09383
3991.93012,0.09402
3993.85859,0.09747
3995.78706,0.10022
3997.71553,0.10149
3999.64400,0.10432
4001.57247,0.10816
4003.50094,0.10890
4005.42941,0.10665
4007.35787,0.10269
4009.28634,0.09744
4011.21481,0.09493
4013.14328,0.09539
4015.07175,0.09383
4017.00022,0.09257
4018.92869,0.09544
4020.85715,0.09692
4022.78562,0.09303
4024.71409,0.09023
4026.64256,0.09652
4028.57103,0.10636
4030.49950,0.10876
4032.42797,0.10473
4034.35644,0.09930
4036.28490,0.09706
4038.21337,0.10076
4040.14184,0.10388
4042.07031,0.10324
4043.99878,0.10266
4045.92725,0.09863
4047.85572,0.08866
4049.78418,0.08289
4051.71265,0.08751
4053.64112,0.09592
4055.56959,0.09928
4057.49806,0.09722
4059.42653,0.09639
4061.35500,0.09705
4063.28346,0.09767
4065.21193,0.10027
4067.14040,0.10159
4069.06887,0.10275
4070.99734,0.10788
4072.92581,0.10884
4074.85428,0.10108
4076.78275,0.09378
4078.71121,0.09192
4080.63968,0.09271
4082.56815,0.09212
4084.49662,0.09017
4086.42509,0.09220
4088.35356,0.09788
4090.28203,0.10070
4092.21049,0.09864
4094.13896,0.09608
4096.06743,0.09462
4097.99590,0.08910
4099.92437,0.08019
4101.85284,0.07507
4103.78131,0.07697
4105.70978,0.08315
4107.63824,0.09005
4109.56671,0.09697
4111.49518,0.09904
4113.42365,0.09533
4115.35212,0.09559
4117.28059,0.10038
4119.20906,0.09820
4121.13752,0.08835
4123.06599,0.08556
4124.99446,0.09168
4126.92293,0.09472
4128.85140,0.09204
4130.77987,0.08766
4132.70834,0.08375
4134.63681,0.07941
4136.56527,0.07801
4138.49374,0.08275
4140.42221,0.08712
4142.35068,0.08676
4144.27915,0.08178
4146.20762,0.07679
4148.13609,0.07972
4150.06455,0.08697
4151.99302,0.09115
4153.92149,0.09287
4155.84996,0.09051
4157.77843,0.08400
4159.70690,0.08194
4161.63537,0.08246
4163.56384,0.07698
4165.49230,0.07229
4167.42077,0.07394
4169.34924,0.07395
4171.27771,0.06922
4173.20618,0.06789
4175.13465,0.07541
4177.06312,0.08311
4178.99158,0.08155
4180.92005,0.07701
4182.84852,0.07724
4184.77699,0.07757
4186.70546,0.07424
4188.63393,0.07511
4190.56240,0.08052
4192.49087,0.07704
4194.41933,0.06665
4196.34780,0.06484
4198.27627,0.07180
4200.20474,0.07750
4202.13321,0.07834
4204.06168,0.07684
4205.99015,0.07939
4207.91861,0.08498
4209.84708,0.08264
4211.77555,0.07592
4213.70402,0.07872
4215.63249,0.08345
4217.56096,0.07950
4219.48943,0.07645
4221.41789,0.07738
4223.34636,0.07514
4225.27483,0.07403
4227.20330,0.08104
4229.13177,0.08792
4231.06024,0.08670
4232.98871,0.08432
4234.91718,0.08353
4236.84564,0.07830
4238.77411,0.07065
4240.70258,0.06787
4242.63105,0.07020
4244.55952,0.07368
4246.48799,0.07632
4248.41646,0.07590
4250.34492,0.06847
4252.27339,0.05722
4254.20186,0.05487
4256.13033,0.06404
4258.05880,0.07171
4259.98727,0.06928
4261.91574,0.06454
4263.84421,0.06809
4265.77267,0.07519
4267.70114,0.07549
4269.62961,0.07083
4271.55808,0.06746
4273.48655,0.06563
4275.41502,0.06748
4277.34349,0.07074
4279.27195,0.06902
4281.20042,0.06728
4283.12889,0.06924
4285.05736,0.06854
4286.98583,0.06086
4288.91430,0.05104
4290.84277,0.04802
4292.77124,0.05218
4294.69970,0.05577
4296.62817,0.05548
4298.55664,0.05501
4300.48511,0.05755
4302.41358,0.05992
4304.34205,0.05710
4306.27052,0.05522
4308.19898,0.06127
4310.12745,0.06507
4312.05592,0.05766
4313.98439,0.04717
4315.91286,0.04278
4317.84133,0.04192
4319.76980,0.04093
4321.69827,0.04171
4323.62673,0.04277
4325.55520,0.04076
4327.48367,0.04026
4329.41214,0.04553
4331.34061,0.04836
4333.26908,0.04514
4335.19755,0.04557
4337.12601,0.05069
4339.05448,0.05382
4340.98295,0.05381
4342.91142,0.04833
4344.83989,0.03967
4346.76836,0.03811
4348.69683,0.04541
4350.62530,0.05603
4352.55376,0.06114
4354.48223,0.05711
4356.41070,0.05156
4358.33917,0.04702
4360.26764,0.04286
4362.19611,0.04529
4364.12458,0.05446
4366.05304,0.05650
4367.98151,0.05012
4369.90998,0.04871
4371.83845,0.05000
4373.76692,0.04793
4375.69539,0.04574
4377.62386,0.04497
4379.55232,0.04187
4381.48079,0.03639
4383.40926,0.03682
4385.33773,0.04224
4387.26620,0.04513
4389.19467,0.04602
4391.12314,0.04552
4393.05161,0.04108
4394.98007,0.03213
4396.90854,0.02256
4398.83701,0.02077
4400.76548,0.02774
4402.69395,0.03568
4404.62242,0.04113
4406.55089,0.03942
4408.47935,0.03089
4410.40782,0.02774
4412.33629,0.02952
4414.26476,0.02873
4416.19323,0.02867
4418.12170,0.02983
4420.05017,0.03311
4421.97864,0.04154
4423.90710,0.04720
4425.83557,0.04345
4427.76404,0.03485
4429.69251,0.02954
4431.62098,0.03114
4433.54945,0.03700
4435.47792,0.04092
4437.40638,0.03970
4439.33485,0.03729
4441.26332,0.03439
4443.19179,0.03238
4445.12026,0.03612
4447.04873,0.03970
4448.97720,0.03857
4450.90567,0.03880
4452.83413,0.03615
4454.76260,0.02466
4456.69107,0.01904
4458.61954,0.02600
4460.54801,0.03086
4462.47648,0.02968
4464.40495,0.03016
4466.33341,0.02864
4468.26188,0.02120
4470.19035,0.01852
4472.11882,0.02370
4474.04729,0.02586
4475.97576,0.02209
4477.90423,0.01907
4479.83270,0.02012
4481.76116,0.02250
4483.68963,0.02582
4485.61810,0.02987
4487.54657,0.02812
4489.47504,0.02070
4491.40351,0.01637
4493.33198,0.01828
4495.26044,0.02461
4497.18891,0.02796
4499.11738,0.01965
4501.04585,0.00995
4502.97432,0.01141
4504.90279,0.01690
4506.83126,0.02084
4508.75973,0.02403
4510.68819,0.02088
4512.61666,0.01260
4514.54513,0.00754
4516.47360,0.00884
4518.40207,0.01660
4520.33054,0.02253
4522.25901,0.02077
4524.18747,0.02099
4526.11594,0.02654
4528.04441,0.03118
4529.97288,0.03231
4531.90135,0.02394
4533.82982,0.00564
4535.75829,-0.00344
4537.68676,0.00719
4539.61522,0.01951
4541.54369,0.02100
4543.47216,0.01688
4545.40063,0.01195
4547.32910,0.01129
4549.25757,0.01535
4551.18604,0.01853
4553.11450,0.01888
4555.04297,0.02002
4556.97144,0.02407
4558.89991,0.02697
4560.82838,0.02600
4562.75685,0.02221
4564.68532,0.01995
4566.61378,0.02151
4568.54225,0.02031
4570.47072,0.01275
4572.39919,0.00370
4574.32766,-0.00272
4576.25613,-0.00159
4578.18460,0.00976
4580.11307,0.01677
4582.04153,0.01005
4583.97000,0.00192
4585.89847,0.00204
4587.82694,0.00812
4589.75541,0.01323
4591.68388,0.01494
4593.61235,0.01510
4595.54081,0.01581
4597.46928,0.01872
4599.39775,0.01988
4601.32622,0.01798
4603.25469,0.01849
4605.18316,0.01881
4607.11163,0.01484
4609.04010,0.01228
4610.96856,0.01431
4612.89703,0.01687
4614.82550,0.01213
4616.75397,0.00512
4618.68244,0.00973
4620.61091,0.01814
4622.53938,0.01830
4624.46784,0.01568
4626.39631,0.01372
4628.32478,0.01037
4630.25325,0.01380
4632.18172,0.02275
4634.11019,0.02337
4636.03866,0.02225
4637.96713,0.02480
4639.89559,0.02395
4641.82406,0.02037
4643.75253,0.01185
4645.68100,-0.00013
4647.60947,-0.00482
4649.53794,0.00156
4651.46641,0.01290
4653.39487,0.01820
4655.32334,0.01678
4657.25181,0.01785
4659.18028,0.01966
4661.10875,0.01408
4663.03722,0.00456
4664.96569,0.00304
4666.89416,0.01218
4668.82262,0.02282
4670.75109,0.02955
4672.67956,0.02992
4674.60803,0.01857
4676.53650,0.00322
4678.46497,-0.00064
4680.39344,0.00424
4682.32190,0.00852
4684.25037,0.00794
4686.17884,0.00266
4688.10731,-0.00017
4690.03578,-0.00111
4691.96425,-0.00191
4693.89272,-0.00119
4695.82119,-0.00340
4697.74965,-0.00046
4699.67812,0.01194
4701.60659,0.01748
4703.53506,0.01235
4705.46353,0.00888
4707.39200,0.01492
4709.32047,0.02262
4711.24893,0.01871
4713.17740,0.00812
4715.10587,0.00288
4717.03434,0.00367
4718.96281,0.00264
4720.89128,0.00057
4722.81975,0.00484
4724.74821,0.01171
4726.67668,0.01631
4728.60515,0.01704
4730.53362,0.01808
4732.46209,0.02549
4734.39056,0.02731
4736.31903,0.01925
4738.24750,0.01724
4740.17596,0.01794
4742.10443,0.00962
4744.03290,0.00187
4745.96137,0.00237
4747.88984,0.01070
4749.81831,0.02124
4751.74678,0.02188
4753.67524,0.01731
4755.60371,0.01437
4757.53218,0.00948
4759.46065,0.00611
4761.38912,0.00467
4763.31759,0.00056
4765.24606,-0.00311
4767.17453,0.00244
4769.10299,0.01412
4771.03146,0.01659
4772.95993,0.01236
4774.88840,0.01079
4776.81687,0.01059
4778.74534,0.01698
4780.67381,0.03146
4782.60227,0.03510
4784.53074,0.01875
4786.45921,0.00452
4788.38768,0.00179
4790.31615,-0.00080
4792.24462,-0.00130
4794.17309,-0.00084
4796.10156,-0.00601
4798.03002,-0.00755
4799.95849,0.00382
4801.88696,0.01881
4803.81543,0.02309
4805.74390,0.01754
4807.67237,0.01118
4809.60084,0.00463
4811.52930,-0.00152
4813.45777,0.00148
4815.38624,0.01315
4817.31471,0.01874
4819.24318,0.01561
4821.17165,0.01524
4823.10012,0.01957
4825.02859,0.02305
4826.95705,0.01978
4828.88552,0.00856
4830.81399,0.00683
4832.74246,0.01964
4834.67093,0.02212
4836.59940,0.00933
4838.52787,0.00706
4840.45633,0.02018
4842.38480,0.02119
4844.31327,0.00309
4846.24174,-0.01134
4848.17021,-0.01223
4850.09868,-0.00319
4852.02715,0.00808
4853.95562,0.00575
4855.88408,-0.00715
4857.81255,-0.00822
4859.74102,0.00712
4861.66949,0.01786
4863.59796,0.01644
4865.52643,0.01226
4867.45490,0.00578
4869.38336,0.00011
4871.31183,-0.00022
4873.24030,0.00015
4875.16877,0.00716
4877.09724,0.02303
4879.02571,0.02553
4880.95418,0.00912
4882.88265,-0.00208
4884.81111,0.00052
4886.73958,0.00454
4888.66805,0.00783
4890.59652,0.01555
4892.52499,0.01823
4894.45346,0.01045
4896.38193,0.00460
4898.31039,0.00592
4900.23886,0.00580
4902.16733,0.00073
4904.09580,-0.00626
4906.02427,-0.00506
4907.95274,0.01014
4909.88121,0.02065
4911.80967,0.01406
4913.73814,0.00696
4915.66661,0.01527
4917.59508,0.03041
4919.52355,0.03742
4921.45202,0.04003
4923.38049,0.03786
4925.30896,0.02334
4927.23742,0.00488
4929.16589,-0.00692
4931.09436,-0.01007
4933.02283,-0.00789
4934.95130,-0.00277
4936.87977,0.01026
4938.80824,0.03019
4940.73670,0.04292
4942.66517,0.04219
4944.59364,0.03698
4946.52211,0.03167
4948.45058,0.02001
4950.37905,0.00444
4952.30752,0.00120
4954.23599,0.01000
4956.16445,0.00786
4958.09292,-0.01021
4960.02139,-0.02410
4961.94986,-0.01740
4963.87833,0.00754
4965.80680,0.03225
4967.73527,0.04162
4969.66373,0.03833
4971.59220,0.02699
4973.52067,0.01325
4975.44914,0.01132
4977.37761,0.02019
4979.30608,0.01940
4981.23455,0.00279
4983.16302,-0.01485
4985.09148,-0.01990
4987.01995,-0.01223
4988.94842,-0.00090
4990.87689,0.00691
4992.80536,0.01267
4994.73383,0.02226
4996.66230,0.03298
4998.59076,0.03400
5000.51923,0.02300
5002.44770,0.00808
5004.37617,0.00224
5006.30464,0.00882
5008.23311,0.01362
5010.16158,0.00790
5012.09005,-0.00029
5014.01851,-0.00429
5015.94698,-0.00157
5017.87545,0.00935
5019.80392,0.01677
5021.73239,0.01449
5023.66086,0.01520
5025.58933,0.02301
5027.51779,0.02798
5029.44626,0.02319
5031.37473,0.01678
5033.30320,0.01873
5035.23167,0.02316
5037.16014,0.02285
5039.08861,0.01950
5041.01708,0.02504
5042.94554,0.04299
5044.87401,0.05525
5046.80248,0.04433
5048.73095,0.01881
5050.65942,0.00136
5052.58789,-0.00573
5054.51636,-0.00006
5056.44482,0.02028
5058.37329,0.03182
5060.30176,0.02779
5062.23023,0.02545
5064.15870,0.03096
5066.08717,0.04691
5068.01564,0.06619
5069.94410,0.06565
5071.87257,0.04828
5073.80104,0.04221
5075.72951,0.04867
5077.65798,0.04232
5079.58645,0.02582
5081.51492,0.02430
5083.44339,0.02800
5085.37185,0.01702
5087.30032,0.00315
5089.22879,0.00844
5091.15726,0.02407
5093.08573,0.02382
5095.01420,0.01218
5096.94267,0.01029
5098.87113,0.02478
5100.79960,0.03651
5102.72807,0.02755
5104.65654,0.01166
5106.58501,0.01377
5108.51348,0.03407
5110.44195,0.04737
5112.37042,0.04779
5114.29888,0.04617
5116.22735,0.04202
5118.15582,0.03148
5120.08429,0.02233
5122.01276,0.02941
5123.94123,0.04038
5125.86970,0.03648
5127.79816,0.02352
5129.72663,0.01270
5131.65510,0.00963
5133.58357,0.00752
5135.51204,0.00002
5137.44051,-0.00641
5139.36898,-0.01002
5141.29745,-0.01354
5143.22591,-0.01169
5145.15438,0.01097
5147.08285,0.04265
5149.01132,0.04745
5150.93979,0.03680
5152.86826,0.03203
5154.79673,0.02064
5156.72519,0.00919
5158.65366,0.01326
5160.58213,0.02048
5162.51060,0.01508
5164.43907,0.00682
5166.36754,0.01245
5168.29601,0.02272
5170.22448,0.02388
5172.15294,0.01544
5174.08141,0.01016
5176.00988,0.01036
5177.93835,0.00166
5179.86682,-0.00641
5181.79529,0.00258
5183.72376,0.01893
5185.65222,0.02676
5187.58069,0.02676
5189.50916,0.03018
5191.43763,0.03583
5193.36610,0.04704
5195.29457,0.06897
5197.22304,0.08234
5199.15151,0.07097
5201.07997,0.04822
5203.00844,0.03249
5204.93691,0.03141
5206.86538,0.05096
5208.79385,0.07697
5210.72232,0.08123
5212.65079,0.06974
5214.57925,0.05906
5216.50772,0.04654
5218.43619,0.02830
5220.36466,0.01287
5222.29313,0.01336
5224.22160,0.02964
5226.15007,0.04288
5228.07854,0.04111
5230.00700,0.02660
5231.93547,0.00386
5233.86394,-0.00472
5235.79241,0.01052
5237.72088,0.03393
5239.64935,0.06044
5241.57782,0.08241
5243.50628,0.07856
5245.43475,0.05416
5247.36322,0.04608
5249.29169,0.05556
5251.22016,0.05402
5253.14863,0.04786
5255.07710,0.05195
5257.00556,0.05724
5258.93403,0.05322
5260.86250,0.04687
5262.79097,0.03884
5264.71944,0.02027
5266.64791,0.01761
5268.57638,0.03920
5270.50485,0.04989
5272.43331,0.04205
5274.36178,0.03507
5276.29025,0.03407
5278.21872,0.03822
5280.14719,0.04812
5282.07566,0.05726
5284.00413,0.06464
5285.93259,0.06511
5287.86106,0.05150
5289.78953,0.04591
5291.71800,0.05785
5293.64647,0.06952
5295.57494,0.07883
5297.50341,0.07970
5299.43188,0.05823
5301.36034,0.02512
5303.28881,0.01113
5305.21728,0.01535
5307.14575,0.02068
5309.07422,0.03379
5311.00269,0.04808
5312.93116,0.04941
5314.85962,0.04462
5316.78809,0.04239
5318.71656,0.04783
5320.64503,0.05540
5322.57350,0.05352
5324.50197,0.05913
5326.43044,0.07684
5328.35891,0.07402
5330.28737,0.05742
5332.21584,0.05236
5334.14431,0.05129
5336.07278,0.04328
5338.00125,0.03779
5339.92972,0.04172
5341.85819,0.04249
5343.78665,0.03659
5345.71512,0.03389
5347.64359,0.04086
5349.57206,0.05271
5351.50053,0.06045
5353.42900,0.05924
5355.35747,0.05984
5357.28594,0.06552
5359.21440,0.05464
5361.14287,0.02782
5363.07134,0.01373
5364.99981,0.01917
5366.92828,0.02332
5368.85675,0.01418
5370.78522,0.01167
5372.71368,0.03739
5374.64215,0.06719
5376.57062,0.06421
5378.49909,0.04064
5380.42756,0.02791
5382.35603,0.04428
5384.28450,0.07521
5386.21297,0.07369
5388.14143,0.05062
5390.06990,0.04983
5391.99837,0.06845
5393.92684,0.07702
5395.85531,0.05710
5397.78378,0.03997
5399.71225,0.05622
5401.64071,0.07641
5403.56918,0.06927
5405.49765,0.05186
5407.42612,0.04278
5409.35459,0.04105
5411.28306,0.03741
5413.21153,0.03112
5415.13999,0.03773
5417.06846,0.05516
5418.99693,0.06827
5420.92540,0.07198
5422.85387,0.06555
5424.78234,0.05065
5426.71081,0.04385
5428.63928,0.05383
5430.56774,0.06760
5432.49621,0.07520
5434.42468,0.07546
5436.35315,0.08072
5438.28162,0.07762
5440.21009,0.04408
5442.13856,0.02556
5444.06702,0.05846
5445.99549,0.09673
5447.92396,0.10054
5449.85243,0.08740
5451.78090,0.08188
5453.70937,0.08031
5455.63784,0.07770
5457.56631,0.08637
5459.49477,0.10578
5461.42324,0.10036
5463.35171,0.06095
5465.28018,0.03253
5467.20865,0.03243
5469.13712,0.05044
5471.06559,0.07675
5472.99405,0.08606
5474.92252,0.07360
5476.85099,0.06581
5478.77946,0.06890
5480.70793,0.06574
5482.63640,0.05953
5484.56487,0.06374
5486.49334,0.07433
5488.42180,0.08817
5490.35027,0.09796
5492.27874,0.09453
5494.20721,0.09127
5496.13568,0.09157
5498.06415,0.08610
5499.99262,0.07833
5501.92108,0.07193
5503.84955,0.06026
5505.77802,0.05316
5507.70649,0.06997
5509.63496,0.08868
5511.56343,0.08645
5513.49190,0.08274
5515.42037,0.08174
5517.34883,0.06258
5519.27730,0.02901
5521.20577,0.00860
5523.13424,0.02648
5525.06271,0.07003
5526.99118,0.08959
5528.91965,0.06832
5530.84811,0.04513
5532.77658,0.05123
5534.70505,0.06522
5536.63352,0.06296
5538.56199,0.06087
5540.49046,0.08016
5542.41893,0.09440
5544.34740,0.07761
5546.27586,0.06790
5548.20433,0.07374
5550.13280,0.05807
5552.06127,0.04258
5553.98974,0.04886
5555.91821,0.05384
5557.84668,0.05528
5559.77514,0.07284
5561.70361,0.11924
5563.63208,0.15512
5565.56055,0.13950
5567.48902,0.11921
5569.41749,0.11574
5571.34596,0.10825
5573.27443,0.10259
5575.20289,0.08439
5577.13136,0.05737
5579.05983,0.04949
5580.98830,0.06359
5582.91677,0.08684
5584.84524,0.10037
5586.77371,0.09537
5588.70217,0.06671
5590.63064,0.03137
5592.55911,0.03620
5594.48758,0.07345
5596.41605,0.08814
5598.34452,0.07877
5600.27299,0.07098
5602.20145,0.06019
5604.12992,0.05513
5606.05839,0.07352
5607.98686,0.10229
5609.91533,0.10902
5611.84380,0.08169
5613.77227,0.05803
5615.70074,0.06548
5617.62920,0.08195
5619.55767,0.10655
5621.48614,0.14590
5623.41461,0.16423
5625.34308,0.13597
5627.27155,0.09584
5629.20002,0.09071
5631.12848,0.09521
5633.05695,0.08705
5634.98542,0.08994
5636.91389,0.09070
5638.84236,0.07274
5640.77083,0.06140
5642.69930,0.07357
5644.62777,0.10120
5646.55623,0.11506
5648.48470,0.09275
5650.41317,0.06032
5652.34164,0.05612
5654.27011,0.06912
5656.19858,0.07843
5658.12705,0.08890
5660.05551,0.09193
5661.98398,0.08630
5663.91245,0.09162
5665.84092,0.10619
5667.76939,0.11984
5669.69786,0.12806
5671.62633,0.12889
5673.55480,0.12166
5675.48326,0.11292
5677.41173,0.11251
5679.34020,0.10380
5681.26867,0.07904
5683.19714,0.05180
5685.12561,0.03078
5687.05408,0.01804
5688.98254,0.00994
5690.91101,0.01396
5692.83948,0.03641
5694.76795,0.07686
5696.69642,0.12226
5698.62489,0.14709
5700.55336,0.14663
5702.48183,0.12585
5704.41029,0.10533
5706.33876,0.10805
5708.26723,0.12104
5710.19570,0.11422
5712.12417,0.07926
5714.05264,0.06130
5715.98111,0.09285
5717.90957,0.12460
5719.83804,0.10525
5721.76651,0.05357
5723.69498,0.02247
5725.62345,0.02942
5727.55192,0.04385
5729.48039,0.04949
5731.40886,0.07018
5733.33732,0.10454
5735.26579,0.11608
5737.19426,0.08841
5739.12273,0.04797
5741.05120,0.03668
5742.97967,0.05250
5744.90814,0.05929
5746.83660,0.06534
5748.76507,0.10071
5750.69354,0.14672
5752.62201,0.15274
5754.55048,0.11472
5756.47895,0.07086
5758.40742,0.04689
5760.33588,0.04014
5762.26435,0.04275
5764.19282,0.06668
5766.12129,0.11648
5768.04976,0.15548
5769.97823,0.14495
5771.90670,0.10155
5773.83517,0.07055
5775.76363,0.05719
5777.69210,0.04741
5779.62057,0.04478
5781.54904,0.06449
5783.47751,0.08925
5785.40598,0.08525
5787.33445,0.07609
5789.26291,0.09142
5791.19138,0.09870
5793.11985,0.07260
5795.04832,0.04457
5796.97679,0.04618
5798.90526,0.05974
5800.83373,0.06405
5802.76220,0.05742
5804.69066,0.04681
5806.61913,0.05253
5808.54760,0.06511
5810.47607,0.06281
5812.40454,0.05642
5814.33301,0.05849
5816.26148,0.07685
5818.18994,0.10027
5820.11841,0.10219
5822.04688,0.09552
5823.97535,0.10209
5825.90382,0.11651
5827.83229,0.11857
5829.76076,0.10674
5831.68923,0.10730
5833.61769,0.12231
5835.54616,0.13545
5837.47463,0.12197
5839.40310,0.07235
5841.33157,0.02945
5843.26004,0.02786
5845.18851,0.05257
5847.11697,0.07670
5849.04544,0.08771
5850.97391,0.08011
5852.90238,0.06877
5854.83085,0.07876
5856.75932,0.10708
5858.68779,0.13795
5860.61626,0.14590
5862.54472,0.11102
5864.47319,0.07048
5866.40166,0.06685
5868.33013,0.09105
5870.25860,0.12746
5872.18707,0.16907
5874.11554,0.18713
5876.04400,0.16372
5877.97247,0.13487
5879.90094,0.12896
5881.82941,0.12568
5883.75788,0.11648
5885.68635,0.11410
5887.61482,0.11084
5889.54329,0.10639
5891.47175,0.10700
5893.40022,0.09966
5895.32869,0.08460
5897.25716,0.07524
5899.18563,0.07208
5901.11410,0.06626
5903.04257,0.06959
5904.97103,0.09625
5906.89950,0.12193
5908.82797,0.11735
5910.75644,0.09171
5912.68491,0.08087
5914.61338,0.09149
5916.54185,0.08972
5918.47032,0.06804
5920.39878,0.06193
5922.32725,0.08672
5924.25572,0.11717
5926.18419,0.11826
5928.11266,0.09649
5930.04113,0.08950
5931.96960,0.07448
5933.89806,0.01708
5935.82653,-0.03333
5937.75500,-0.02582
5939.68347,0.01555
5941.61194,0.04399
5943.54041,0.04376
5945.46888,0.03657
5947.39734,0.04155
5949.32581,0.06533
5951.25428,0.10687
5953.18275,0.13755
5955.11122,0.13133
5957.03969,0.09808
5958.96816,0.05739
5960.89663,0.03924
5962.82509,0.04649
5964.75356,0.04661
5966.68203,0.04174
5968.61050,0.05399
5970.53897,0.07552
5972.46744,0.08226
5974.39591,0.06375
5976.32437,0.03319
5978.25284,0.01798
5980.18131,0.04068
5982.10978,0.08310
5984.03825,0.09455
5985.96672,0.07156
5987.89519,0.06358
5989.82366,0.07640
5991.75212,0.05996
5993.68059,0.00433
5995.60906,-0.02902
5997.53753,-0.00181
5999.46600,0.05033
6001.39447,0.09231
6003.32294,0.10532
6005.25140,0.07051
6007.17987,0.01109
6009.10834,-0.00825
6011.03681,0.02246
6012.96528,0.05367
6014.89375,0.06347
6016.82222,0.05547
6018.75069,0.05549
6020.67915,0.09563
6022.60762,0.12984
6024.53609,0.12933
6026.46456,0.13446
6028.39303,0.15160
6030.32150,0.16043
6032.24997,0.13664
6034.17843,0.07638
6036.10690,0.01579
6038.03537,-0.02151
6039.96384,-0.00489
6041.89231,0.06897
6043.82078,0.11811
6045.74925,0.09433
6047.67772,0.04381
6049.60618,0.02001
6051.53465,0.04106
6053.46312,0.06475
6055.39159,0.04934
6057.32006,0.03326
6059.24853,0.05193
6061.17700,0.08017
6063.10546,0.08606
6065.03393,0.08294
6066.96240,0.11681
6068.89087,0.15349
6070.81934,0.13184
6072.74781,0.09168
6074.67628,0.08680
6076.60475,0.09321
6078.53321,0.07188
6080.46168,0.04468
6082.39015,0.04423
6084.31862,0.06806
6086.24709,0.10267
6088.17556,0.10857
6090.10403,0.08910
6092.03249,0.07911
6093.96096,0.06557
6095.88943,0.03877
6097.81790,0.01164
6099.74637,0.00915
6101.67484,0.05696
6103.60331,0.12591
6105.53177,0.16898
6107.46024,0.20176
6109.38871,0.19554
6111.31718,0.08046
6113.24565,-0.02651
6115.17412,-0.00270
6117.10259,0.07033
6119.03106,0.08013
6120.95952,0.04337
6122.88799,0.03752
6124.81646,0.08730
6126.74493,0.14084
6128.67340,0.13318
6130.60187,0.09826
6132.53034,0.08552
6134.45880,0.06961
6136.38727,0.03668
6138.31574,0.02919
6140.24421,0.06252
6142.17268,0.09829
6144.10115,0.10989
6146.02962,0.09052
6147.95809,0.06667
6149.88655,0.06711
6151.81502,0.07548
6153.74349,0.08331
6155.67196,0.10483
6157.60043,0.12709
6159.52890,0.13954
6161.45737,0.15017
6163.38583,0.14620
6165.31430,0.10832
6167.24277,0.06743
6169.17124,0.06824
6171.09971,0.07290
6173.02818,0.04020
6174.95665,0.02744
6176.88512,0.05749
6178.81358,0.10634
6180.74205,0.15145
6182.67052,0.15122
6184.59899,0.11558
6186.52746,0.09471
6188.45593,0.10927
6190.38440,0.14086
6192.31286,0.17008
6194.24133,0.18222
6196.16980,0.15938
6198.09827,0.12521
6200.02674,0.10714
6201.95521,0.08202
6203.88368,0.04516
6205.81215,0.03275
6207.74061,0.04349
6209.66908,0.05055
6211.59755,0.03766
6213.52602,0.01068
6215.45449,0.01164
6217.38296,0.05785
6219.31143,0.10092
6221.23989,0.09883
6223.16836,0.05283
6225.09683,-0.00543
6227.02530,-0.04015
6228.95377,-0.01764
6230.88224,0.04521
6232.81071,0.06844
6234.73918,0.06006
6236.66764,0.08918
6238.59611,0.13487
6240.52458,0.14276
6242.45305,0.10373
6244.38152,0.06416
6246.30999,0.05294
6248.23846,0.02902
6250.16692,-0.01186
6252.09539,-0.02282
6254.02386,-0.00411
6255.95233,0.00828
6257.88080,-0.01026
6259.80927,-0.02561
6261.73774,0.00790
6263.66621,0.07703
6265.59467,0.12205
6267.52314,0.08004
6269.45161,-0.00167
6271.38008,-0.02521
6273.30855,0.00554
6275.23702,0.02943
6277.16549,0.03783
6279.09395,0.04432
6281.02242,0.05189
6282.95089,0.06957
6284.87936,0.07844
6286.80783,0.06322
6288.73630,0.06672
6290.66477,0.09278
6292.59323,0.06362
6294.52170,0.00842
6296.45017,0.00909
6298.37864,0.02700
6300.30711,0.03890
6302.23558,0.07062
6304.16405,0.08085
6306.09252,0.07707
6308.02098,0.11621
6309.94945,0.14136
6311.87792,0.10553
6313.80639,0.07075
6315.73486,0.04174
6317.66333,0.04084
6319.59180,0.10551
6321.52026,0.14602
6323.44873,0.13711
6325.37720,0.12412
6327.30567,0.10419
6329.23414,0.11166
6331.16261,0.12909
6333.09108,0.08688
6335.01955,0.01748
6336.94801,-0.00867
6338.87648,0.00769
6340.80495,0.01869
6342.73342,0.00889
6344.66189,0.01225
6346.59036,0.02881
6348.51883,0.01407
6350.44729,-0.01905
6352.37576,-0.03346
6354.30423,-0.03564
6356.23270,-0.02381
6358.16117,0.03533
6360.08964,0.12967
6362.01811,0.17120
6363.94658,0.14294
6365.87504,0.13139
6367.80351,0.16300
6369.73198,0.17851
6371.66045,0.16209
6373.58892,0.13227
6375.51739,0.09934
6377.44586,0.07812
6379.37432,0.06269
6381.30279,0.01531
6383.23126,-0.04528
6385.15973,-0.04024
6387.08820,0.02251
6389.01667,0.10311
6390.94514,0.16061
6392.87361,0.14685
6394.80207,0.09627
6396.73054,0.08355
6398.65901,0.09341
6400.58748,0.06361
6402.51595,0.02109
6404.44442,0.05026
6406.37289,0.11352
6408.30135,0.11150
6410.22982,0.06582
6412.15829,0.04001
6414.08676,0.03615
6416.01523,0.04484
6417.94370,0.05327
6419.87217,0.02507
6421.80064,-0.04187
6423.72910,-0.08023
6425.65757,-0.07656
6427.58604,-0.06238
6429.51451,0.00274
6431.44298,0.09870
6433.37145,0.13916
6435.29992,0.13046
6437.22838,0.13838
6439.15685,0.16349
6441.08532,0.15382
6443.01379,0.14097
6444.94226,0.14256
6446.87073,0.10967
6448.79920,0.06230
6450.72766,0.04919
6452.65613,0.04220
6454.58460,0.02669
6456.51307,0.05340
6458.44154,0.12070
6460.37001,0.17476
6462.29848,0.18040
6464.22695,0.13815
6466.15541,0.07872
6468.08388,0.05339
6470.01235,0.04906
6471.94082,-0.00945
6473.86929,-0.04751
6475.79776,-0.00098
6477.72623,0.06560
6479.65469,0.10122
6481.58316,0.09364
6483.51163,0.10971
6485.44010,0.15312
6487.36857,0.14774
6489.29704,0.09731
6491.22551,0.04055
6493.15398,0.00780
6495.08244,0.00294
6497.01091,-0.00940
6498.93938,-0.03312
6500.86785,-0.04542
6502.79632,-0.04256
6504.72479,-0.03112
6506.65326,-0.00887
6508.58172,0.01657
6510.51019,0.03089
6512.43866,0.01786
6514.36713,0.00331
6516.29560,0.01358
6518.22407,-0.00315
6520.15254,-0.04109
6522.08101,-0.01403
6524.00947,0.06644
6525.93794,0.08034
6527.86641,0.00811
6529.79488,-0.04439
6531.72335,-0.00298
6533.65182,0.07343
6535.58029,0.06971
6537.50875,0.01893
6539.43722,0.01307
6541.36569,0.03175
6543.29416,0.06187
6545.22263,0.10619
6547.15110,0.11799
6549.07957,0.11334
6551.00804,0.11003
6552.93650,0.05237
6554.86497,0.00467
6556.79344,0.06300
6558.72191,0.12733
6560.65038,0.12491
6562.57885,0.11867
6564.50732,0.11298
6566.43578,0.10951
6568.36425,0.14633
6570.29272,0.16945
6572.22119,0.11057
6574.14966,0.00744
6576.07813,-0.04890
6578.00660,-0.05224
6579.93507,-0.04999
6581.86353,-0.01671
6583.79200,0.06455
6585.72047,0.13730
6587.64894,0.15896
6589.57741,0.11311
6591.50588,0.03820
6593.43435,0.01919
6595.36281,0.05297
6597.29128,0.03359
6599.21975,-0.04045
6601.14822,-0.06468
6603.07669,0.00611
6605.00516,0.07485
6606.93363,0.08816
6608.86210,0.09282
6610.79056,0.11032
6612.71903,0.11327
6614.64750,0.08102
6616.57597,0.01227
6618.50444,-0.04082
6620.43291,-0.04336
6622.36138,-0.03584
6624.28984,-0.00457
6626.21831,0.10957
6628.14678,0.23828
6630.07525,0.24482
6632.00372,0.16359
6633.93219,0.11932
6635.86066,0.11249
6637.78912,0.09621
6639.71759,0.11456
6641.64606,0.18720
6643.57453,0.24767
6645.50300,0.24353
6647.43147,0.19371
6649.35994,0.16081
6651.28841,0.16656
6653.21687,0.19151
6655.14534,0.22188
6657.07381,0.20296
6659.00228,0.12097
6660.93075,0.05709
6662.85922,0.00856
6664.78769,-0.00491
6666.71615,0.06443
6668.64462,0.14381
6670.57309,0.16748
6672.50156,0.12533
6674.43003,0.02216
6676.35850,-0.04679
6678.28697,-0.02226
6680.21544,0.03164
6682.14390,0.06030
6684.07237,0.07780
6686.00084,0.09687
6687.92931,0.10505
6689.85778,0.08231
6691.78625,0.03756
6693.71472,-0.01449
6695.64318,-0.04243
6697.57165,0.01019
6699.50012,0.09139
6701.42859,0.11336
6703.35706,0.10959
6705.28553,0.11925
6707.21400,0.12346
6709.14247,0.14535
6711.07093,0.15641
6712.99940,0.11756
6714.92787,0.08818
6716.85634,0.08818
6718.78481,0.08528
6720.71328,0.08450
6722.64175,0.09821
6724.57021,0.11660
6726.49868,0.10084
6728.42715,0.04857
6730.35562,0.00873
6732.28409,0.00677
6734.21256,0.04743
6736.14103,0.13223
6738.06950,0.17826
6739.99796,0.14806
6741.92643,0.13618
6743.85490,0.18163
6745.78337,0.21413
6747.71184,0.16552
6749.64031,0.05514
6751.56878,0.01157
6753.49724,0.04071
6755.42571,0.03749
6757.35418,0.04402
6759.28265,0.09481
6761.21112,0.10812
6763.13959,0.09929
6765.06806,0.07807
6766.99653,0.04220
6768.92499,0.05585
6770.85346,0.11675
6772.78193,0.17408
6774.71040,0.19672
6776.63887,0.16507
6778.56734,0.08407
6780.49581,0.02380
6782.42427,0.04251
6784.35274,0.06644
6786.28121,0.04208
6788.20968,0.01903
6790.13815,-0.00340
6792.06662,-0.02561
6793.99509,0.00162
6795.92355,0.03853
6797.85202,0.03209
6799.78049,0.01839
6801.70896,0.02424
6803.63743,0.02875
6805.56590,0.06351
6807.49437,0.13072
6809.42284,0.13862
6811.35130,0.07577
6813.27977,0.03991
6815.20824,0.07215
6817.13671,0.08765
6819.06518,0.03881
6820.99365,0.03549
6822.92212,0.12582
6824.85058,0.13068
6826.77905,0.01396
6828.70752,-0.03377
6830.63599,0.03112
6832.56446,0.06466
6834.49293,0.02966
6836.42140,-0.03705
6838.34987,-0.06972
6840.27833,-0.05549
6842.20680,-0.03721
6844.13527,-0.01915
6846.06374,0.00940
6847.99221,0.03142
6849.92068,-0.01281
6851.84915,-0.09526
6853.77761,-0.13032
6855.70608,-0.12586
6857.63455,-0.08427
6859.56302,-0.00503
6861.49149,0.08205
6863.41996,0.14750
6865.34843,0.17865
6867.27690,0.17179
6869.20536,0.10903
6871.13383,0.01441
6873.06230,-0.02289
6874.99077,0.00669
6876.91924,0.05441
6878.84771,0.12722
6880.77618,0.17873
6882.70464,0.14550
6884.63311,0.06234
6886.56158,0.02726
6888.49005,0.06442
6890.41852,0.10031
6892.34699,0.06162
6894.27546,-0.02769
6896.20393,-0.05230
6898.13239,0.02522
6900.06086,0.11057
6901.98933,0.13201
6903.91780,0.12591
6905.84627,0.17047
6907.77474,0.20786
6909.70321,0.13131
6911.63167,-0.00682
6913.56014,-0.04587
6915.48861,0.03330
6917.41708,0.12669
6919.34555,0.19316
6921.27402,0.18719
6923.20249,0.12465
6925.13096,0.10160
6927.05942,0.11543
6928.98789,0.08813
6930.91636,0.02937
6932.84483,-0.02314
6934.77330,-0.05577
6936.70177,-0.06965
6938.63024,-0.12489
6940.55870,-0.15914
6942.48717,-0.07702
6944.41564,-0.01725
6946.34411,-0.02858
6948.27258,-0.01576
6950.20105,0.06396
6952.12952,0.17626
6954.05799,0.28189
6955.98645,0.27637
6957.91492,0.10636
6959.84339,-0.06583
6961.77186,-0.10195
6963.70033,-0.02200
6965.62880,0.10060
6967.55727,0.14161
6969.48573,0.01304
6971.41420,-0.13941
6973.34267,-0.13934
6975.27114,-0.00174
6977.19961,0.07814
6979.12808,-0.00565
6981.05655,-0.12962
6982.98501,-0.14934
6984.91348,-0.08234
6986.84195,-0.02388
6988.77042,-0.00975
6990.69889,0.01426
6992.62736,0.06823
6994.55583,0.08655
6996.48430,0.08708
6998.41276,0.11219
7000.34123,0.12824
7002.26970,0.16513
7004.19817,0.21810
7006.12664,0.22694
7008.05511,0.16511
7009.98358,0.07019
7011.91204,0.03772
7013.84051,0.06454
7015.76898,0.04570
7017.69745,0.02263
7019.62592,0.04904
7021.55439,0.09654
7023.48286,0.14397
7025.41133,0.18656
7027.33979,0.21906
7029.26826,0.17586
7031.19673,0.08623
7033.12520,0.05868
7035.05367,0.07649
7036.98214,0.06475
7038.91061,0.03152
7040.83907,0.02333
7042.76754,0.06881
7044.69601,0.09295
7046.62448,0.06998
7048.55295,0.10618
7050.48142,0.17493
7052.40989,0.22865
7054.33836,0.34358
7056.26682,0.44938
7058.19529,0.29690
7060.12376,-0.02019
7062.05223,-0.14789
7063.98070,-0.01737
7065.90917,0.06770
7067.83764,-0.02527
7069.76610,-0.08906
7071.69457,0.00636
7073.62304,0.09724
7075.55151,0.08621
7077.47998,0.05957
7079.40845,0.08292
7081.33692,0.14786
7083.26539,0.22246
7085.19385,0.27708
7087.12232,0.27848
7089.05079,0.19836
7090.97926,0.11249
7092.90773,0.07591
7094.83620,0.03734
7096.76467,0.00451
7098.69313,-0.00552
7100.62160,-0.00467
7102.55007,0.06780
7104.47854,0.18986
7106.40701,0.22539
7108.33548,0.14727
7110.26395,0.03410
7112.19242,-0.06546
7114.12088,-0.05316
7116.04935,0.12011
7117.97782,0.28758
7119.90629,0.26465
7121.83476,0.18790
7123.76323,0.15979
7125.69170,0.14499
7127.62016,0.07168
7129.54863,-0.03421
7131.47710,-0.01617
7133.40557,0.12765
7135.33404,0.18990
7137.26251,0.15939
7139.19098,0.15263
7141.11944,0.12237
7143.04791,0.00537
7144.97638,-0.09341
7146.90485,-0.00061
7148.83332,0.17085
7150.76179,0.17656
7152.69026,0.02799
7154.61873,-0.06954
7156.54719,-0.08179
7158.47566,-0.07727
7160.40413,-0.04566
7162.33260,-0.00551
7164.26107,0.04035
7166.18954,0.10196
7168.11801,0.06796
7170.04647,-0.04570
7171.97494,-0.07888
7173.90341,-0.09506
7175.83188,-0.09534
7177.76035,0.04634
7179.68882,0.18776
7181.61729,0.23871
7183.54576,0.32525
7185.47422,0.37775
7187.40269,0.25573
7189.33116,0.07777
7191.25963,0.02485
7193.18810,0.05088
7195.11657,0.06334
7197.04504,0.08040
7198.97350,0.09248
7200.90197,0.07232
7202.83044,0.07715
7204.75891,0.15602
7206.68738,0.18086
7208.61585,0.07172
7210.54432,-0.00740
7212.47279,0.02389
7214.40125,-0.01927
7216.32972,-0.20927
7218.25819,-0.24696
7220.18666,-0.02676
7222.11513,0.11047
7224.04360,0.07895
7225.97207,-0.00435
7227.90053,-0.00110
7229.82900,0.07486
7231.75747,0.18096
7233.68594,0.23770
7235.61441,0.17449
7237.54288,0.10231
7239.47135,0.15831
7241.39982,0.24981
7243.32828,0.25508
7245.25675,0.25312
7247.18522,0.30050
7249.11369,0.27629
7251.04216,0.16178
7252.97063,0.14069
7254.89910,0.16775
7256.82756,0.06254
7258.75603,-0.02338
7260.68450,0.08069
7262.61297,0.22761
7264.54144,0.26645
7266.46991,0.23294
7268.39838,0.08614
7270.32685,-0.09343
7272.25531,-0.07178
7274.18378,0.06284
7276.11225,0.08437
7278.04072,-0.01460
7279.96919,-0.20817
7281.89766,-0.24632
7283.82613,-0.07817
7285.75459,0.05102
7287.68306,0.02855
7289.61153,-0.04500
7291.54000,-0.01944
7293.46847,0.17703
7295.39694,0.39026
7297.32541,0.40660
7299.25387,0.28297
7301.18234,0.19069
7303.11081,0.17282
7305.03928,0.12084
7306.96775,-0.02361
7308.89622,-0.12336
7310.82469,-0.01072
7312.75316,0.11921
7314.68162,0.07462
7316.61009,-0.04490
7318.53856,-0.05771
7320.46703,-0.00484
7322.39550,0.00992
7324.32397,-0.00815
7326.25244,0.09394
7328.18090,0.23949
7330.10937,0.09719
7332.03784,-0.07041
7333.96631,0.01442
7335.89478,0.06762
7337.82325,0.04735
7339.75172,0.26569
7341.68019,0.57226
7343.60865,0.38189
7345.53712,-0.10572
7347.46559,-0.35014
7349.39406,-0.18674
7351.32253,0.12145
7353.25100,0.32432
7355.17947,0.36524
7357.10793,0.33821
7359.03640,0.27360
7360.96487,0.17835
7362.89334,0.14767
7364.82181,0.16217
7366.75028,0.16066
7368.67875,0.08054
7370.60722,-0.11490
7372.53568,-0.23301
7374.46415,-0.16826
7376.39262,-0.18465
7378.32109,-0.27565
7380.24956,-0.16942
7382.17803,0.05811
7384.10650,0.18798
7386.03496,0.21421
7387.96343,0.24418
7389.89190,0.28830
7391.82037,0.32833
7393.74884,0.39868
7395.67731,0.46277
7397.60578,0.43184
7399.53425,0.27187
7401.46271,0.06966
7403.39118,0.01278
7405.31965,0.14336
7407.24812,0.26805
7409.17659,0.28913
7411.10506,0.22122
7413.03353,0.11444
7414.96199,-0.03768
7416.89046,-0.14087
7418.81893,0.03535
7420.74740,0.23411
7422.67587,0.17553
7424.60434,0.12364
7426.53281,0.15466
7428.46128,0.13061
7430.38974,-0.02037
7432.31821,-0.12507
7434.24668,-0.11476
7436.17515,-0.01739
7438.10362,0.14073
7440.03209,0.16476
7441.96056,-0.03502
7443.88902,-0.27121
7445.81749,-0.35567
7447.74596,-0.24177
7449.67443,-0.02759
7451.60290,0.04704
7453.53137,-0.05818
7455.45984,-0.16901
7457.38831,-0.18884
7459.31677,-0.06843
7461.24524,0.07477
7463.17371,0.09596
7465.10218,0.08672
7467.03065,0.23528
7468.95912,0.44135
7470.88759,0.46416
7472.81605,0.38345
7474.74452,0.32598
7476.67299,0.17447
7478.60146,-0.03366
7480.52993,-0.05446
7482.45840,0.12582
7484.38687,0.23962
7486.31533,0.24978
7488.24380,0.26976
7490.17227,0.26444
7492.10074,0.18894
7494.02921,0.09534
7495.95768,-0.01220
7497.88615,-0.08854
