399.19301,0.22494
401.12148,-0.11253
403.04995,0.14051
404.97842,0.15382
406.90689,0.01585
408.83536,-0.08043
410.76382,-0.04097
412.69229,-0.00429
414.62076,0.06986
416.54923,0.26146
418.47770,0.38547
420.40617,0.26766
422.33464,0.13369
424.26311,0.10124
426.19157,0.08808
428.12004,-0.03964
430.04851,-0.19026
431.97698,-0.25722
433.90545,-0.27304
435.83392,-0.15460
437.76239,0.00289
439.69085,0.07568
441.61932,0.12350
443.54779,0.14265
445.47626,0.14063
447.40473,0.12087
449.33320,0.02335
451.26167,-0.01559
453.19013,0.02472
455.11860,0.09007
457.04707,0.21678
458.97554,0.30215
460.90401,0.26478
462.83248,0.15697
464.76095,0.08727
466.68942,0.12604
468.61788,0.15779
470.54635,0.13802
472.47482,0.12512
474.40329,0.12620
476.33176,0.11324
478.26023,0.08414
480.18870,0.06800
482.11716,0.08903
484.04563,0.12838
485.97410,0.14671
487.90257,0.11121
489.83104,0.05727
491.75951,0.04496
493.68798,0.07199
495.61645,0.12189
497.54491,0.16549
499.47338,0.17942
501.40185,0.16386
503.33032,0.12072
505.25879,0.09870
507.18726,0.11737
509.11573,0.12543
511.04419,0.10328
512.97266,0.06160
514.90113,0.03813
516.82960,0.05334
518.75807,0.06476
520.68654,0.08441
522.61501,0.10449
524.54348,0.10085
526.47194,0.12995
528.40041,0.17080
530.32888,0.14501
532.25735,0.07023
534.18582,0.03355
536.11429,0.06715
538.04276,0.10383
539.97122,0.11929
541.89969,0.16054
543.82816,0.19739
545.75663,0.18835
547.68510,0.17328
549.61357,0.17654
551.54204,0.24822
553.47051,0.33517
555.39897,0.28376
557.32744,0.16355
559.25591,0.10325
561.18438,0.09100
563.11285,0.10475
565.04132,0.11050
566.96979,0.11162
568.89825,0.10908
570.82672,0.09936
572.75519,0.09822
574.68366,0.08818
576.61213,0.08473
578.54060,0.09158
580.46907,0.09937
582.39754,0.11249
584.32600,0.10166
586.25447,0.07140
588.18294,0.06096
590.11141,0.08737
592.03988,0.12649
593.96835,0.13105
595.89682,0.11032
597.82528,0.09270
599.75375,0.07512
601.68222,0.07078
603.61069,0.09068
605.53916,0.10965
607.46763,0.11567
609.39610,0.11049
611.32456,0.10502
613.25303,0.10844
615.18150,0.10598
617.10997,0.10093
619.03844,0.10158
620.96691,0.10491
622.89538,0.10911
624.82385,0.10424
626.75231,0.10331
628.68078,0.11271
630.60925,0.11960
632.53772,0.12349
634.46619,0.11106
636.39466,0.08575
638.32313,0.06652
640.25159,0.06734
642.18006,0.09357
644.10853,0.11020
646.03700,0.10134
647.96547,0.09626
649.89394,0.11137
651.82241,0.13636
653.75088,0.15385
655.67934,0.15130
657.60781,0.12716
659.53628,0.10400
661.46475,0.10477
663.39322,0.11742
665.32169,0.13176
667.25016,0.15184
669.17862,0.14828
671.10709,0.12045
673.03556,0.10559
674.96403,0.11050
676.89250,0.13403
678.82097,0.14259
680.74944,0.12136
682.67791,0.09989
684.60637,0.09324
686.53484,0.10841
688.46331,0.12936
690.39178,0.13614
692.32025,0.13826
694.24872,0.13207
696.17719,0.11684
698.10565,0.10294
700.03412,0.10254
701.96259,0.12458
703.89106,0.14290
705.81953,0.13772
707.74800,0.13285
709.67647,0.13686
711.60494,0.14288
713.53340,0.14950
715.46187,0.14717
717.39034,0.14208
719.31881,0.13534
721.24728,0.12124
723.17575,0.11157
725.10422,0.10887
727.03268,0.10887
728.96115,0.10988
730.88962,0.11994
732.81809,0.13688
734.74656,0.14208
736.67503,0.14244
738.60350,0.14720
740.53197,0.15389
742.46043,0.15960
744.38890,0.15250
746.31737,0.14070
748.24584,0.13729
750.17431,0.13448
752.10278,0.13834
754.03125,0.15122
755.95971,0.15582
757.88818,0.14760
759.81665,0.13809
761.74512,0.13624
763.67359,0.13372
765.60206,0.12224
767.53053,0.10962
769.45900,0.10250
771.38746,0.10035
773.31593,0.10303
775.24440,0.11371
777.17287,0.13251
779.10134,0.14382
781.02981,0.13497
782.95828,0.11948
784.88674,0.11415
786.81521,0.11736
788.74368,0.12037
790.67215,0.12960
792.60062,0.14943
794.52909,0.15539
796.45756,0.14245
798.38602,0.13819
800.31449,0.14128
802.24296,0.13966
804.17143,0.14086
806.09990,0.14143
808.02837,0.13022
809.95684,0.11543
811.88531,0.11991
813.81377,0.14171
815.74224,0.15416
817.67071,0.14698
819.59918,0.12938
821.52765,0.12039
823.45612,0.12077
825.38459,0.11901
827.31305,0.12111
829.24152,0.13124
831.16999,0.14654
833.09846,0.16063
835.02693,0.16634
836.95540,0.16249
838.88387,0.15062
840.81234,0.14288
842.74080,0.14296
844.66927,0.13833
846.59774,0.13527
848.52621,0.13883
850.45468,0.13471
852.38315,0.12946
854.31162,0.13435
856.24008,0.14184
858.16855,0.14643
860.09702,0.14656
862.02549,0.14731
863.95396,0.14951
865.88243,0.14987
867.81090,0.16271
869.73937,0.17976
871.66783,0.17288
873.59630,0.15342
875.52477,0.14574
877.45324,0.15098
879.38171,0.15491
881.31018,0.14982
883.23865,0.14409
885.16711,0.13985
887.09558,0.13966
889.02405,0.14557
890.95252,0.14467
892.88099,0.13974
894.80946,0.14110
896.73793,0.14122
898.66640,0.13548
900.59486,0.12820
902.52333,0.12842
904.45180,0.13865
906.38027,0.15109
908.30874,0.16312
910.23721,0.16555
912.16568,0.15310
914.09414,0.14079
916.02261,0.13826
917.95108,0.14174
919.87955,0.14575
921.80802,0.15102
923.73649,0.15950
925.66496,0.16187
927.59343,0.15061
929.52189,0.13580
931.45036,0.13128
933.37883,0.13221
935.30730,0.12943
937.23577,0.13026
939.16424,0.13545
941.09271,0.13941
943.02117,0.14845
944.94964,0.16024
946.87811,0.16199
948.80658,0.15298
950.73505,0.14639
952.66352,0.15229
954.59199,0.16128
956.52045,0.16063
958.44892,0.15849
960.37739,0.16062
962.30586,0.16016
964.23433,0.15596
966.16280,0.15151
968.09127,0.15112
970.01974,0.15441
971.94820,0.15337
973.87667,0.14462
975.80514,0.13800
977.73361,0.14071
979.66208,0.14244
981.59055,0.14230
983.51902,0.14961
985.44748,0.15735
987.37595,0.16152
989.30442,0.16315
991.23289,0.16113
993.16136,0.16200
995.08983,0.16239
997.01830,0.15942
998.94677,0.15982
1000.87523,0.15466
1002.80370,0.14375
1004.73217,0.14468
1006.66064,0.15238
1008.58911,0.14938
1010.51758,0.14048
1012.44605,0.14290
1014.37451,0.15425
1016.30298,0.15880
1018.23145,0.15497
1020.15992,0.14730
1022.08839,0.14362
1024.01686,0.14658
1025.94533,0.14307
1027.87380,0.13760
1029.80226,0.14244
1031.73073,0.15084
1033.65920,0.15210
1035.58767,0.14573
1037.51614,0.14697
1039.44461,0.15967
1041.37308,0.16599
1043.30154,0.16452
1045.23001,0.16360
1047.15848,0.16296
1049.08695,0.16837
1051.01542,0.17696
1052.94389,0.17766
1054.87236,0.17237
1056.80083,0.16487
1058.72929,0.15685
1060.65776,0.15348
1062.58623,0.16007
1064.51470,0.17353
1066.44317,0.18190
1068.37164,0.17879
1070.30011,0.17177
1072.22857,0.17512
1074.15704,0.18466
1076.08551,0.18627
1078.01398,0.18129
1079.94245,0.17270
1081.87092,0.16841
1083.79939,0.17403
1085.72786,0.17139
1087.65632,0.16416
1089.58479,0.17145
1091.51326,0.17769
1093.44173,0.16983
1095.37020,0.15799
1097.29867,0.15420
1099.22714,0.15943
1101.15560,0.16486
1103.08407,0.16946
1105.01254,0.17256
1106.94101,0.17219
1108.86948,0.17146
1110.79795,0.16897
1112.72642,0.16447
1114.65489,0.15978
1116.58335,0.15894
1118.51182,0.16874
1120.44029,0.17637
1122.36876,0.16749
1124.29723,0.15476
1126.22570,0.15232
1128.15417,0.15797
1130.08263,0.16274
1132.01110,0.16485
1133.93957,0.16722
1135.86804,0.16496
1137.79651,0.15902
1139.72498,0.15591
1141.65345,0.15245
1143.58191,0.14984
1145.51038,0.15330
1147.43885,0.16162
1149.36732,0.16848
1151.29579,0.16553
1153.22426,0.16123
1155.15273,0.16300
1157.08120,0.16437
1159.00966,0.16762
1160.93813,0.17061
1162.86660,0.17114
1164.79507,0.17251
1166.72354,0.17084
1168.65201,0.16828
1170.58048,0.16693
1172.50894,0.16809
1174.43741,0.17311
1176.36588,0.17485
1178.29435,0.17328
1180.22282,0.16968
1182.15129,0.16210
1184.07976,0.15969
1186.00823,0.16394
1187.93669,0.16283
1189.86516,0.15722
1191.79363,0.15554
1193.72210,0.15840
1195.65057,0.16430
1197.57904,0.17191
1199.50751,0.17921
1201.43597,0.18348
1203.36444,0.18201
1205.29291,0.17417
1207.22138,0.16457
1209.14985,0.15967
1211.07832,0.15989
1213.00679,0.16492
1214.93526,0.17206
1216.86372,0.17431
1218.79219,0.17194
1220.72066,0.16857
1222.64913,0.16701
1224.57760,0.16954
1226.50607,0.17193
1228.43454,0.17168
1230.36300,0.17208
1232.29147,0.17290
1234.21994,0.17025
1236.14841,0.16486
1238.07688,0.16367
1240.00535,0.16750
1241.93382,0.17002
1243.86229,0.16960
1245.79075,0.16645
1247.71922,0.16270
1249.64769,0.16289
1251.57616,0.16220
1253.50463,0.15820
1255.43310,0.15862
1257.36157,0.16200
1259.29003,0.16161
1261.21850,0.15896
1263.14697,0.15983
1265.07544,0.16265
1267.00391,0.16074
1268.93238,0.15976
1270.86085,0.16434
1272.78932,0.16796
1274.71778,0.16804
1276.64625,0.16755
1278.57472,0.16888
1280.50319,0.16611
1282.43166,0.16015
1284.36013,0.16199
1286.28860,0.16513
1288.21706,0.16476
1290.14553,0.16805
1292.07400,0.16886
1294.00247,0.16263
1295.93094,0.15685
1297.85941,0.15382
1299.78788,0.14687
1301.71634,0.12981
1303.64481,0.11072
1305.57328,0.11347
1307.50175,0.14259
1309.43022,0.16724
1311.35869,0.17208
1313.28716,0.17210
1315.21563,0.17261
1317.14409,0.16979
1319.07256,0.16746
1321.00103,0.16680
1322.92950,0.16528
1324.85797,0.16263
1326.78644,0.16109
1328.71491,0.16162
1330.64337,0.15690
1332.57184,0.15079
1334.50031,0.15281
1336.42878,0.15793
1338.35725,0.16459
1340.28572,0.16706
1342.21419,0.16754
1344.14266,0.17525
1346.07112,0.17394
1347.99959,0.16102
1349.92806,0.15393
1351.85653,0.15522
1353.78500,0.16086
1355.71347,0.16518
1357.64194,0.16399
1359.57040,0.16268
1361.49887,0.16589
1363.42734,0.17003
1365.35581,0.17198
1367.28428,0.17242
1369.21275,0.17196
1371.14122,0.17193
1373.06969,0.17331
1374.99815,0.17474
1376.92662,0.17221
1378.85509,0.17006
1380.78356,0.17225
1382.71203,0.17607
1384.64050,0.18212
1386.56897,0.18772
1388.49743,0.18796
1390.42590,0.18703
1392.35437,0.18747
1394.28284,0.18866
1396.21131,0.18971
1398.13978,0.18943
1400.06825,0.18700
1401.99672,0.18268
1403.92518,0.18053
1405.85365,0.18135
1407.78212,0.18354
1409.71059,0.18818
1411.63906,0.18999
1413.56753,0.18682
1415.49600,0.18560
1417.42446,0.18712
1419.35293,0.18641
1421.28140,0.18500
1423.20987,0.18548
1425.13834,0.18551
1427.06681,0.18535
1428.99528,0.18571
1430.92375,0.18525
1432.85221,0.18597
1434.78068,0.18958
1436.70915,0.18964
1438.63762,0.18495
1440.56609,0.18468
1442.49456,0.18572
1444.42303,0.18552
1446.35149,0.18623
1448.27996,0.18737
1450.20843,0.18833
1452.13690,0.18966
1454.06537,0.19597
1455.99384,0.20918
1457.92231,0.20954
1459.85077,0.19548
1461.77924,0.19043
1463.70771,0.19450
1465.63618,0.19607
1467.56465,0.19082
1469.49312,0.19136
1471.42159,0.19951
1473.35006,0.20575
1475.27852,0.20438
1477.20699,0.19705
1479.13546,0.18796
1481.06393,0.18239
1482.99240,0.18113
1484.92087,0.18383
1486.84934,0.19057
1488.77780,0.19732
1490.70627,0.19613
1492.63474,0.19186
1494.56321,0.19304
1496.49168,0.19861
1498.42015,0.19907
1500.34862,0.19502
1502.27709,0.19561
1504.20555,0.20402
1506.13402,0.21975
1508.06249,0.22253
1509.99096,0.20935
1511.91943,0.19650
1513.84790,0.19023
1515.77637,0.19378
1517.70483,0.19921
1519.63330,0.20202
1521.56177,0.20876
1523.49024,0.21400
1525.41871,0.21317
1527.34718,0.20933
1529.27565,0.20429
1531.20412,0.19891
1533.13258,0.19174
1535.06105,0.18846
1536.98952,0.19596
1538.91799,0.21392
1540.84646,0.22742
1542.77493,0.21835
1544.70340,0.20381
1546.63186,0.19190
1548.56033,0.18949
1550.48880,0.19573
1552.41727,0.20125
1554.34574,0.20622
1556.27421,0.21776
1558.20268,0.22942
1560.13115,0.21062
1562.05961,0.19226
1563.98808,0.18672
1565.91655,0.18587
1567.84502,0.18720
1569.77349,0.19040
1571.70196,0.19211
1573.63043,0.19317
1575.55889,0.19385
1577.48736,0.18748
1579.41583,0.18005
1581.34430,0.17888
1583.27277,0.18146
1585.20124,0.18322
1587.12971,0.18259
1589.05818,0.18087
1590.98664,0.18055
1592.91511,0.18380
1594.84358,0.18752
1596.77205,0.18561
1598.70052,0.18150
1600.62899,0.18029
1602.55746,0.18102
1604.48592,0.18295
1606.41439,0.18394
1608.34286,0.18244
1610.27133,0.18237
1612.19980,0.18595
1614.12827,0.19040
1616.05674,0.19406
1617.98521,0.19485
1619.91367,0.19392
1621.84214,0.19464
1623.77061,0.19583
1625.69908,0.19780
1627.62755,0.20222
1629.55602,0.20488
1631.48449,0.20466
1633.41295,0.20569
1635.34142,0.20798
1637.26989,0.20388
1639.19836,0.19815
1641.12683,0.19582
1643.05530,0.19776
1644.98377,0.20880
1646.91223,0.22593
1648.84070,0.23086
1650.76917,0.23186
1652.69764,0.23147
1654.62611,0.21663
1656.55458,0.20480
1658.48305,0.20001
1660.41152,0.20161
1662.33998,0.20480
1664.26845,0.20290
1666.19692,0.20355
1668.12539,0.21116
1670.05386,0.21735
1671.98233,0.21621
1673.91080,0.21516
1675.83926,0.21220
1677.76773,0.20669
1679.69620,0.20566
1681.62467,0.21090
1683.55314,0.21964
1685.48161,0.21909
1687.41008,0.20884
1689.33855,0.20160
1691.26701,0.20106
1693.19548,0.20514
1695.12395,0.21405
1697.05242,0.22384
1698.98089,0.22287
1700.90936,0.21131
1702.83783,0.20270
1704.76629,0.20019
1706.69476,0.19782
1708.62323,0.19422
1710.55170,0.19359
1712.48017,0.19813
1714.40864,0.20901
1716.33711,0.22018
1718.26558,0.21254
1720.19404,0.19825
1722.12251,0.19180
1724.05098,0.18872
1725.97945,0.18741
1727.90792,0.18829
1729.83639,0.19177
1731.76486,0.20024
1733.69332,0.20683
1735.62179,0.19915
1737.55026,0.19112
1739.47873,0.19128
1741.40720,0.19811
1743.33567,0.20363
1745.26414,0.20472
1747.19261,0.20537
1749.12107,0.20676
1751.04954,0.20209
1752.97801,0.19444
1754.90648,0.19416
1756.83495,0.19883
1758.76342,0.20052
1760.69189,0.19996
1762.62035,0.19869
1764.54882,0.19629
1766.47729,0.19540
1768.40576,0.19813
1770.33423,0.20490
1772.26270,0.20929
1774.19117,0.20499
1776.11964,0.19989
1778.04810,0.19748
1779.97657,0.19555
1781.90504,0.19271
1783.83351,0.19085
1785.76198,0.19059
1787.69045,0.19081
1789.61892,0.19250
1791.54738,0.19632
1793.47585,0.19956
1795.40432,0.20036
1797.33279,0.19898
1799.26126,0.19672
1801.18973,0.19545
1803.11820,0.19326
1805.04666,0.19136
1806.97513,0.19298
1808.90360,0.19630
1810.83207,0.19666
1812.76054,0.19377
1814.68901,0.19363
1816.61748,0.19389
1818.54595,0.19053
1820.47441,0.19097
1822.40288,0.19701
1824.33135,0.19944
1826.25982,0.19691
1828.18829,0.19782
1830.11676,0.19946
1832.04523,0.19517
1833.97369,0.18962
1835.90216,0.18636
1837.83063,0.18506
1839.75910,0.18624
1841.68757,0.19258
1843.61604,0.20017
1845.54451,0.19814
1847.47298,0.19219
1849.40144,0.19054
1851.32991,0.19026
1853.25838,0.18891
1855.18685,0.18823
1857.11532,0.18918
1859.04379,0.19042
1860.97226,0.19062
1862.90072,0.19035
1864.82919,0.19296
1866.75766,0.19777
1868.68613,0.19742
1870.61460,0.19249
1872.54307,0.18875
1874.47154,0.18621
1876.40001,0.18565
1878.32847,0.18663
1880.25694,0.18800
1882.18541,0.18854
1884.11388,0.18760
1886.04235,0.18757
1887.97082,0.18898
1889.89929,0.19031
1891.82775,0.19031
1893.75622,0.18991
1895.68469,0.19271
1897.61316,0.19623
1899.54163,0.19547
1901.47010,0.19397
1903.39857,0.19494
1905.32704,0.19544
1907.25550,0.19309
1909.18397,0.18926
1911.11244,0.18820
1913.04091,0.19097
1914.96938,0.19400
1916.89785,0.19427
1918.82632,0.19168
1920.75478,0.18995
1922.68325,0.19057
1924.61172,0.19085
1926.54019,0.18857
1928.46866,0.18584
1930.39713,0.18783
1932.32560,0.19259
1934.25407,0.19330
1936.18253,0.19140
1938.11100,0.19087
1940.03947,0.19257
1941.96794,0.19543
1943.89641,0.19535
1945.82488,0.19240
1947.75335,0.19066
1949.68181,0.19119
1951.61028,0.19239
1953.53875,0.19323
1955.46722,0.19348
1957.39569,0.19269
1959.32416,0.19245
1961.25263,0.19397
1963.18110,0.19436
1965.10956,0.19208
1967.03803,0.19001
1968.96650,0.19060
1970.89497,0.19371
1972.82344,0.19582
1974.75191,0.19367
1976.68038,0.19026
1978.60884,0.18861
1980.53731,0.18763
1982.46578,0.18654
1984.39425,0.18697
1986.32272,0.19060
1988.25119,0.19401
1990.17966,0.19329
1992.10812,0.19091
1994.03659,0.19069
1995.96506,0.19191
1997.89353,0.19162
1999.82200,0.18974
2001.75047,0.18861
2003.67894,0.18846
2005.60741,0.18738
2007.53587,0.18640
2009.46434,0.18790
2011.39281,0.18851
2013.32128,0.18722
2015.24975,0.18835
2017.17822,0.18985
2019.10669,0.18879
2021.03515,0.18917
2022.96362,0.19265
2024.89209,0.19531
2026.82056,0.19421
2028.74903,0.19177
2030.67750,0.19184
2032.60597,0.19330
2034.53444,0.19265
2036.46290,0.19027
2038.39137,0.18806
2040.31984,0.18680
2042.24831,0.18765
2044.17678,0.18962
2046.10525,0.19009
2048.03372,0.18994
2049.96218,0.19054
2051.89065,0.19088
2053.81912,0.19099
2055.74759,0.19192
2057.67606,0.19253
2059.60453,0.19033
2061.53300,0.18668
2063.46147,0.18580
2065.38993,0.18779
2067.31840,0.18943
2069.24687,0.19058
2071.17534,0.19313
2073.10381,0.19567
2075.03228,0.19405
2076.96075,0.18900
2078.88921,0.18592
2080.81768,0.18648
2082.74615,0.18897
2084.67462,0.19074
2086.60309,0.19013
2088.53156,0.18917
2090.46003,0.19034
2092.38850,0.19287
2094.31696,0.19349
2096.24543,0.19179
2098.17390,0.19036
2100.10237,0.19055
2102.03084,0.19095
2103.95931,0.18892
2105.88778,0.18715
2107.81624,0.18933
2109.74471,0.19219
2111.67318,0.19342
2113.60165,0.19555
2115.53012,0.19775
2117.45859,0.19646
2119.38706,0.19424
2121.31553,0.19465
2123.24399,0.19466
2125.17246,0.19305
2127.10093,0.19274
2129.02940,0.19337
2130.95787,0.19244
2132.88634,0.18947
2134.81481,0.18765
2136.74327,0.18966
2138.67174,0.19265
2140.60021,0.19285
2142.52868,0.19030
2144.45715,0.18827
2146.38562,0.18857
2148.31409,0.19019
2150.24255,0.19177
2152.17102,0.19134
2154.09949,0.18873
2156.02796,0.18728
2157.95643,0.18878
2159.88490,0.19180
2161.81337,0.19532
2163.74184,0.19734
2165.67030,0.19645
2167.59877,0.19500
2169.52724,0.19474
2171.45571,0.19511
2173.38418,0.19532
2175.31265,0.19568
2177.24112,0.19521
2179.16958,0.19211
2181.09805,0.18845
2183.02652,0.18638
2184.95499,0.18527
2186.88346,0.18616
2188.81193,0.18947
2190.74040,0.19281
2192.66887,0.19470
2194.59733,0.19408
2196.52580,0.19159
2198.45427,0.19138
2200.38274,0.19397
2202.31121,0.19465
2204.23968,0.19230
2206.16815,0.18997
2208.09661,0.18863
2210.02508,0.18803
2211.95355,0.18878
2213.88202,0.19054
2215.81049,0.19184
2217.73896,0.19272
2219.66743,0.19375
2221.59590,0.19502
2223.52436,0.19689
2225.45283,0.19697
2227.38130,0.19391
2229.30977,0.19066
2231.23824,0.18980
2233.16671,0.19132
2235.09518,0.19377
2237.02364,0.19619
2238.95211,0.19748
2240.88058,0.19562
2242.80905,0.19069
2244.73752,0.18603
2246.66599,0.18519
2248.59446,0.18891
2250.52293,0.19314
2252.45139,0.19325
2254.37986,0.19181
2256.30833,0.19219
2258.23680,0.19325
2260.16527,0.19570
2262.09374,0.19910
2264.02221,0.19830
2265.95067,0.19356
2267.87914,0.19086
2269.80761,0.19058
2271.73608,0.19160
2273.66455,0.19303
2275.59302,0.19284
2277.52149,0.19296
2279.44996,0.19288
2281.37842,0.19104
2283.30689,0.18976
2285.23536,0.18977
2287.16383,0.19021
2289.09230,0.19015
2291.02077,0.18970
2292.94924,0.19001
2294.87770,0.19005
2296.80617,0.18646
2298.73464,0.17819
2300.66311,0.17089
2302.59158,0.17026
2304.52005,0.17305
2306.44852,0.17318
2308.37699,0.16931
2310.30545,0.16314
2312.23392,0.15835
2314.16239,0.15654
2316.09086,0.15440
2318.01933,0.14828
2319.94780,0.14134
2321.87627,0.13926
2323.80473,0.13722
2325.73320,0.13168
2327.66167,0.12772
2329.59014,0.12693
2331.51861,0.13037
2333.44708,0.13287
2335.37555,0.12943
2337.30401,0.13142
2339.23248,0.13826
2341.16095,0.14040
2343.08942,0.14562
2345.01789,0.15421
2346.94636,0.16135
2348.87483,0.16610
2350.80330,0.16581
2352.73176,0.15888
2354.66023,0.14717
2356.58870,0.13466
2358.51717,0.12043
2360.44564,0.10269
2362.37411,0.09424
2364.30258,0.11149
2366.23104,0.13837
2368.15951,0.14609
2370.08798,0.13765
2372.01645,0.13379
2373.94492,0.14356
2375.87339,0.15828
2377.80186,0.16817
2379.73033,0.17444
2381.65879,0.18124
2383.58726,0.18628
2385.51573,0.18650
2387.44420,0.18581
2389.37267,0.18777
2391.30114,0.19042
2393.22961,0.19196
2395.15807,0.19269
2397.08654,0.19425
2399.01501,0.19621
2400.94348,0.19653
2402.87195,0.19581
2404.80042,0.19371
2406.72889,0.18988
2408.65736,0.18904
2410.58582,0.19279
2412.51429,0.19494
2414.44276,0.19329
2416.37123,0.19191
2418.29970,0.19267
2420.22817,0.19403
2422.15664,0.19405
2424.08510,0.19330
2426.01357,0.19313
2427.94204,0.19344
2429.87051,0.19342
2431.79898,0.19368
2433.72745,0.19656
2435.65592,0.20037
2437.58439,0.20111
2439.51285,0.19857
2441.44132,0.19541
2443.36979,0.19425
2445.29826,0.19422
2447.22673,0.19350
2449.15520,0.19504
2451.08367,0.20032
2453.01213,0.20342
2454.94060,0.19951
2456.86907,0.19263
2458.79754,0.18985
2460.72601,0.19084
2462.65448,0.19142
2464.58295,0.19156
2466.51142,0.19323
2468.43988,0.19528
2470.36835,0.19567
2472.29682,0.19629
2474.22529,0.19564
2476.15376,0.19120
2478.08223,0.18843
2480.01070,0.18991
2481.93916,0.19178
2483.86763,0.19155
2485.79610,0.18915
2487.72457,0.18882
2489.65304,0.19328
2491.58151,0.19693
2493.50998,0.19650
2495.43844,0.19564
2497.36691,0.19595
2499.29538,0.19494
2501.22385,0.19280
2503.15232,0.19345
2505.08079,0.19622
2507.00926,0.19806
2508.93773,0.19850
2510.86619,0.19733
2512.79466,0.19673
2514.72313,0.19836
2516.65160,0.19942
2518.58007,0.19911
2520.50854,0.19919
2522.43701,0.19841
2524.36547,0.19502
2526.29394,0.19113
2528.22241,0.19132
2530.15088,0.19554
2532.07935,0.19762
2534.00782,0.19384
2535.93629,0.18818
2537.86476,0.18725
2539.79322,0.19114
2541.72169,0.19410
2543.65016,0.19422
2545.57863,0.19437
2547.50710,0.19488
2549.43557,0.19438
2551.36404,0.19435
2553.29250,0.19594
2555.22097,0.19702
2557.14944,0.19711
2559.07791,0.19866
2561.00638,0.20053
2562.93485,0.20012
2564.86332,0.19737
2566.79179,0.19459
2568.72025,0.19594
2570.64872,0.20081
2572.57719,0.20262
2574.50566,0.19827
2576.43413,0.19357
2578.36260,0.19250
2580.29107,0.19119
2582.21953,0.18933
2584.14800,0.18971
2586.07647,0.19109
2588.00494,0.19302
2589.93341,0.19675
2591.86188,0.20003
2593.79035,0.20038
2595.71882,0.19951
2597.64728,0.19966
2599.57575,0.20066
2601.50422,0.20022
2603.43269,0.19736
2605.36116,0.19533
2607.28963,0.19644
2609.21810,0.19834
2611.14656,0.19829
2613.07503,0.19637
2615.00350,0.19458
2616.93197,0.19575
2618.86044,0.20067
2620.78891,0.20425
2622.71738,0.20280
2624.64585,0.19982
2626.57431,0.19856
2628.50278,0.19907
2630.43125,0.20151
2632.35972,0.20576
2634.28819,0.20707
2636.21666,0.20242
2638.14513,0.19714
2640.07359,0.19477
2642.00206,0.19466
2643.93053,0.19623
2645.85900,0.19743
2647.78747,0.19769
2649.71594,0.19939
2651.64441,0.20244
2653.57288,0.20238
2655.50134,0.19783
2657.42981,0.19456
2659.35828,0.19528
2661.28675,0.19632
2663.21522,0.19668
2665.14369,0.19688
2667.07216,0.19552
2669.00062,0.19342
2670.92909,0.19363
2672.85756,0.19672
2674.78603,0.19951
2676.71450,0.20057
2678.64297,0.20103
2680.57144,0.19981
2682.49990,0.19836
2684.42837,0.20067
2686.35684,0.20455
2688.28531,0.20730
2690.21378,0.20897
2692.14225,0.20787
2694.07072,0.20456
2695.99919,0.20100
2697.92765,0.19884
2699.85612,0.19849
2701.78459,0.19811
2703.71306,0.19803
2705.64153,0.19907
2707.57000,0.19999
2709.49847,0.20017
2711.42693,0.20082
2713.35540,0.20283
2715.28387,0.20542
2717.21234,0.20778
2719.14081,0.20919
2721.06928,0.20785
2722.99775,0.20477
2724.92622,0.20340
2726.85468,0.20245
2728.78315,0.20061
2730.71162,0.19884
2732.64009,0.19759
2734.56856,0.19862
2736.49703,0.20258
2738.42550,0.20743
2740.35396,0.20974
2742.28243,0.20850
2744.21090,0.20487
2746.13937,0.20191
2748.06784,0.20192
2749.99631,0.20223
2751.92478,0.20287
2753.85325,0.20475
2755.78171,0.20602
2757.71018,0.20753
2759.63865,0.20914
2761.56712,0.20863
2763.49559,0.20760
2765.42406,0.20883
2767.35253,0.21030
2769.28099,0.20974
2771.20946,0.20890
2773.13793,0.21041
2775.06640,0.21278
2776.99487,0.21201
2778.92334,0.20783
2780.85181,0.20321
2782.78028,0.20251
2784.70874,0.20608
2786.63721,0.20889
2788.56568,0.20832
2790.49415,0.20499
2792.42262,0.20101
2794.35109,0.19845
2796.27956,0.19902
2798.20802,0.20307
2800.13649,0.20612
2802.06496,0.20634
2803.99343,0.20920
2805.92190,0.21506
2807.85037,0.21862
2809.77884,0.21986
2811.70731,0.21911
2813.63577,0.21531
2815.56424,0.21201
2817.49271,0.21005
2819.42118,0.20624
2821.34965,0.20230
2823.27812,0.20435
2825.20659,0.21130
2827.13505,0.21234
2829.06352,0.20486
2830.99199,0.20096
2832.92046,0.20672
2834.84893,0.21300
2836.77740,0.21358
2838.70587,0.21280
2840.63433,0.21226
2842.56280,0.21029
2844.49127,0.20931
2846.41974,0.21063
2848.34821,0.21115
2850.27668,0.20831
2852.20515,0.20297
2854.13362,0.19911
2856.06208,0.19974
2857.99055,0.20399
2859.91902,0.20932
2861.84749,0.21245
2863.77596,0.21192
2865.70443,0.20991
2867.63290,0.20754
2869.56136,0.20495
2871.48983,0.20401
2873.41830,0.20481
2875.34677,0.20649
2877.27524,0.20942
2879.20371,0.21180
2881.13218,0.21196
2883.06065,0.21190
2884.98911,0.21248
2886.91758,0.21136
2888.84605,0.20858
2890.77452,0.20626
2892.70299,0.20378
2894.63146,0.20092
2896.55993,0.20087
2898.48839,0.20477
2900.41686,0.20781
2902.34533,0.20592
2904.27380,0.20098
2906.20227,0.19845
2908.13074,0.20134
2910.05921,0.20456
2911.98768,0.20392
2913.91614,0.19891
2915.84461,0.18965
2917.77308,0.18603
2919.70155,0.19159
2921.63002,0.19673
2923.55849,0.19758
2925.48696,0.19112
2927.41542,0.18573
2929.34389,0.19642
2931.27236,0.20908
2933.20083,0.20727
2935.12930,0.19643
2937.05777,0.18653
2938.98624,0.18995
2940.91471,0.20110
2942.84317,0.20177
2944.77164,0.19104
2946.70011,0.17807
2948.62858,0.17782
2950.55705,0.19242
2952.48552,0.20482
2954.41399,0.20475
2956.34245,0.18930
2958.27092,0.17625
2960.19939,0.18650
2962.12786,0.20358
2964.05633,0.20571
2965.98480,0.19292
2967.91327,0.18052
2969.84174,0.18552
2971.77020,0.19982
2973.69867,0.20595
2975.62714,0.19938
2977.55561,0.18739
2979.48408,0.18915
2981.41255,0.20576
2983.34102,0.21504
2985.26948,0.20860
2987.19795,0.19612
2989.12642,0.19468
2991.05489,0.20937
2992.98336,0.22290
2994.91183,0.22459
2996.84030,0.21863
2998.76877,0.21253
3000.69723,0.21058
3002.62570,0.20901
3004.55417,0.20516
3006.48264,0.20115
3008.41111,0.19800
3010.33958,0.18744
3012.26805,0.15987
3014.19651,0.12016
3016.12498,0.09272
3018.05345,0.11200
3019.98192,0.16590
3021.91039,0.20142
3023.83886,0.20908
3025.76733,0.20935
3027.69579,0.20470
3029.62426,0.19828
3031.55273,0.19989
3033.48120,0.20735
3035.40967,0.20997
3037.33814,0.20685
3039.26661,0.20722
3041.19508,0.21105
3043.12354,0.21135
3045.05201,0.20737
3046.98048,0.20246
3048.90895,0.20502
3050.83742,0.21440
3052.76589,0.21782
3054.69436,0.20907
3056.62282,0.19467
3058.55129,0.19114
3060.47976,0.19900
3062.40823,0.20447
3064.33670,0.20198
3066.26517,0.19359
3068.19364,0.19311
3070.12211,0.20406
3072.05057,0.21054
3073.97904,0.20304
3075.90751,0.19053
3077.83598,0.19176
3079.76445,0.20427
3081.69292,0.20884
3083.62139,0.19974
3085.54985,0.19174
3087.47832,0.19853
3089.40679,0.20634
3091.33526,0.19971
3093.26373,0.18630
3095.19220,0.18585
3097.12067,0.20111
3099.04914,0.21071
3100.97760,0.20565
3102.90607,0.19242
3104.83454,0.18595
3106.76301,0.19645
3108.69148,0.20784
3110.61995,0.20120
3112.54842,0.18656
3114.47688,0.18954
3116.40535,0.20529
3118.33382,0.20838
3120.26229,0.19681
3122.19076,0.18940
3124.11923,0.19925
3126.04770,0.21584
3127.97617,0.22161
3129.90463,0.21476
3131.83310,0.21029
3133.76157,0.21564
3135.69004,0.21851
3137.61851,0.21443
3139.54698,0.20924
3141.47545,0.20549
3143.40391,0.20652
3145.33238,0.21159
3147.26085,0.21321
3149.18932,0.21207
3151.11779,0.21229
3153.04626,0.20849
3154.97473,0.20330
3156.90320,0.20538
3158.83166,0.21154
3160.76013,0.21626
3162.68860,0.21761
3164.61707,0.21630
3166.54554,0.21715
3168.47401,0.22144
3170.40248,0.22335
3172.33094,0.21893
3174.25941,0.21238
3176.18788,0.21050
3178.11635,0.21617
3180.04482,0.22215
3181.97329,0.22081
3183.90176,0.21714
3185.83022,0.21380
3187.75869,0.21189
3189.68716,0.21453
3191.61563,0.21526
3193.54410,0.21263
3195.47257,0.21291
3197.40104,0.21439
3199.32951,0.21459
3201.25797,0.21596
3203.18644,0.21646
3205.11491,0.21351
3207.04338,0.21008
3208.97185,0.20687
3210.90032,0.20550
3212.82879,0.21054
3214.75725,0.21711
3216.68572,0.21771
3218.61419,0.21653
3220.54266,0.21923
3222.47113,0.22217
3224.39960,0.22043
3226.32807,0.21672
3228.25654,0.21564
3230.18500,0.21662
3232.11347,0.21735
3234.04194,0.21707
3235.97041,0.21416
3237.89888,0.21042
3239.82735,0.21096
3241.75582,0.21195
3243.68428,0.20994
3245.61275,0.21030
3247.54122,0.21321
3249.46969,0.21388
3251.39816,0.21163
3253.32663,0.20972
3255.25510,0.21131
3257.18357,0.21516
3259.11203,0.21487
3261.04050,0.21113
3262.96897,0.21225
3264.89744,0.21532
3266.82591,0.21406
3268.75438,0.21196
3270.68285,0.21171
3272.61131,0.21281
3274.53978,0.21524
3276.46825,0.21542
3278.39672,0.21413
3280.32519,0.21622
3282.25366,0.21586
3284.18213,0.20942
3286.11060,0.20532
3288.03906,0.20606
3289.96753,0.20598
3291.89600,0.20615
3293.82447,0.20986
3295.75294,0.21198
3297.68141,0.20900
3299.60988,0.20431
3301.53834,0.20302
3303.46681,0.20654
3305.39528,0.21000
3307.32375,0.21109
3309.25222,0.21080
3311.18069,0.20967
3313.10916,0.20978
3315.03763,0.20927
3316.96609,0.20799
3318.89456,0.21152
3320.82303,0.21577
3322.75150,0.21410
3324.67997,0.21227
3326.60844,0.21380
3328.53691,0.21464
3330.46537,0.21446
3332.39384,0.21470
3334.32231,0.21436
3336.25078,0.21368
3338.17925,0.21213
3340.10772,0.20846
3342.03619,0.20494
3343.96466,0.20489
3345.89312,0.20898
3347.82159,0.21148
3349.75006,0.20957
3351.67853,0.20868
3353.60700,0.21065
3355.53547,0.21147
3357.46394,0.20921
3359.39240,0.20996
3361.32087,0.21482
3363.24934,0.21648
3365.17781,0.21633
3367.10628,0.21728
3369.03475,0.21650
3370.96322,0.21336
3372.89168,0.21001
3374.82015,0.20917
3376.74862,0.21022
3378.67709,0.21030
3380.60556,0.20954
3382.53403,0.20912
3384.46250,0.20859
3386.39097,0.20805
3388.31943,0.20866
3390.24790,0.21182
3392.17637,0.21624
3394.10484,0.21664
3396.03331,0.21258
3397.96178,0.21217
3399.89025,0.21650
3401.81871,0.21689
3403.74718,0.21229
3405.67565,0.20637
3407.60412,0.20170
3409.53259,0.20070
3411.46106,0.19864
3413.38953,0.19364
3415.31800,0.19361
3417.24646,0.19857
3419.17493,0.20054
3421.10340,0.20035
3423.03187,0.20135
3424.96034,0.20058
3426.88881,0.19874
3428.81728,0.19989
3430.74574,0.20195
3432.67421,0.19749
3434.60268,0.18792
3436.53115,0.18551
3438.45962,0.19160
3440.38809,0.19616
3442.31656,0.19974
3444.24503,0.20509
3446.17349,0.20661
3448.10196,0.20394
3450.03043,0.20003
3451.95890,0.19471
3453.88737,0.19058
3455.81584,0.19036
3457.74431,0.19090
3459.67277,0.18932
3461.60124,0.18835
3463.52971,0.18997
3465.45818,0.19261
3467.38665,0.19562
3469.31512,0.19878
3471.24359,0.19856
3473.17206,0.19644
3475.10052,0.19887
3477.02899,0.20114
3478.95746,0.19839
3480.88593,0.19403
3482.81440,0.18884
3484.74287,0.18463
3486.67134,0.18409
3488.59980,0.18672
3490.52827,0.18724
3492.45674,0.18321
3494.38521,0.18282
3496.31368,0.18684
3498.24215,0.18686
3500.17062,0.18648
3502.09909,0.19117
3504.02755,0.19325
3505.95602,0.18886
3507.88449,0.18406
3509.81296,0.17936
3511.74143,0.17455
3513.66990,0.17431
3515.59837,0.17719
3517.52683,0.17634
3519.45530,0.17331
3521.38377,0.17482
3523.31224,0.17657
3525.24071,0.17293
3527.16918,0.16997
3529.09765,0.16810
3531.02611,0.16467
3532.95458,0.16796
3534.88305,0.17707
3536.81152,0.17955
3538.73999,0.17545
3540.66846,0.17263
3542.59693,0.17091
3544.52540,0.16944
3546.45386,0.17037
3548.38233,0.17186
3550.31080,0.17132
3552.23927,0.17098
3554.16774,0.17103
3556.09621,0.16794
3558.02468,0.16355
3559.95314,0.16306
3561.88161,0.16688
3563.81008,0.17323
3565.73855,0.17892
3567.66702,0.17537
3569.59549,0.16821
3571.52396,0.16542
3573.45243,0.16052
3575.38089,0.15279
3577.30936,0.14975
3579.23783,0.15347
3581.16630,0.15833
3583.09477,0.15845
3585.02324,0.15492
3586.95171,0.15287
3588.88017,0.15268
3590.80864,0.15187
3592.73711,0.15190
3594.66558,0.15533
3596.59405,0.16099
3598.52252,0.16411
3600.45099,0.16340
3602.37946,0.15995
3604.30792,0.15764
3606.23639,0.16036
3608.16486,0.16501
3610.09333,0.16542
3612.02180,0.16204
3613.95027,0.15702
3615.87874,0.15354
3617.80720,0.15447
3619.73567,0.15647
3621.66414,0.15426
3623.59261,0.15153
3625.52108,0.15154
3627.44955,0.15492
3629.37802,0.15765
3631.30649,0.15492
3633.23495,0.15164
3635.16342,0.14902
3637.09189,0.14738
3639.02036,0.14463
3640.94883,0.13912
3642.87730,0.13698
3644.80577,0.14296
3646.73423,0.15216
3648.66270,0.15098
3650.59117,0.13969
3652.51964,0.13725
3654.44811,0.14020
3656.37658,0.14170
3658.30505,0.13872
3660.23352,0.13646
3662.16198,0.13723
3664.09045,0.13806
3666.01892,0.13811
3667.94739,0.13785
3669.87586,0.13610
3671.80433,0.13611
3673.73280,0.14189
3675.66126,0.14682
3677.58973,0.14419
3679.51820,0.14112
3681.44667,0.13684
3683.37514,0.13208
3685.30361,0.13145
3687.23208,0.13671
3689.16055,0.14201
3691.08901,0.13931
3693.01748,0.13648
3694.94595,0.13502
3696.87442,0.13364
3698.80289,0.13508
3700.73136,0.13785
3702.65983,0.13633
3704.58829,0.13182
3706.51676,0.13163
3708.44523,0.13873
3710.37370,0.14794
3712.30217,0.14540
3714.23064,0.13780
3716.15911,0.13575
3718.08757,0.13465
3720.01604,0.13318
3721.94451,0.13621
3723.87298,0.14298
3725.80145,0.14525
3727.72992,0.14230
3729.65839,0.14002
3731.58686,0.14179
3733.51532,0.15225
3735.44379,0.15947
3737.37226,0.14638
3739.30073,0.13648
3741.22920,0.14071
3743.15767,0.15106
3745.08614,0.15819
3747.01460,0.15848
3748.94307,0.15682
3750.87154,0.14940
3752.80001,0.13642
3754.72848,0.13039
3756.65695,0.13060
3758.58542,0.12986
3760.51389,0.12478
3762.44235,0.12240
3764.37082,0.12384
3766.29929,0.12523
3768.22776,0.12626
3770.15623,0.12453
3772.08470,0.12153
3774.01317,0.12278
3775.94163,0.12640
3777.87010,0.12831
3779.79857,0.12617
3781.72704,0.12290
3783.65551,0.12275
3785.58398,0.12293
3787.51245,0.11956
3789.44092,0.11723
3791.36938,0.11889
3793.29785,0.12132
3795.22632,0.12312
3797.15479,0.12421
3799.08326,0.12648
3801.01173,0.13251
3802.94020,0.13364
3804.86866,0.12801
3806.79713,0.12834
3808.72560,0.13645
3810.65407,0.13943
3812.58254,0.13675
3814.51101,0.13766
3816.43948,0.14503
3818.36795,0.14933
3820.29641,0.14646
3822.22488,0.13604
3824.15335,0.13155
3826.08182,0.13460
3828.01029,0.13556
3829.93876,0.13451
3831.86723,0.13448
3833.79569,0.13267
3835.72416,0.12910
3837.65263,0.12879
3839.58110,0.13331
3841.50957,0.13605
3843.43804,0.13545
3845.36651,0.13258
3847.29498,0.13048
3849.22344,0.13337
3851.15191,0.13962
3853.08038,0.14238
3855.00885,0.13731
3856.93732,0.12852
3858.86579,0.12126
3860.79426,0.12078
3862.72272,0.12608
3864.65119,0.12988
3866.57966,0.13023
3868.50813,0.13267
3870.43660,0.13738
3872.36507,0.13676
3874.29354,0.13069
3876.22200,0.12595
3878.15047,0.12679
3880.07894,0.13129
3882.00741,0.13523
3883.93588,0.13625
3885.86435,0.13120
3887.79282,0.12360
3889.72129,0.12133
3891.64975,0.12321
3893.57822,0.12286
3895.50669,0.12017
3897.43516,0.11930
3899.36363,0.12339
3901.29210,0.13151
3903.22057,0.13325
3905.14903,0.12532
3907.07750,0.11984
3909.00597,0.11962
3910.93444,0.11966
3912.86291,0.11977
3914.79138,0.12050
3916.71985,0.11865
3918.64832,0.11602
3920.57678,0.11567
3922.50525,0.11561
3924.43372,0.11489
3926.36219,0.11122
3928.29066,0.10676
3930.21913,0.10790
3932.14760,0.11294
3934.07606,0.11410
3936.00453,0.11161
3937.93300,0.10930
3939.86147,0.10770
3941.78994,0.10943
3943.71841,0.11376
3945.64688,0.11497
3947.57535,0.11747
3949.50381,0.12081
3951.43228,0.11734
3953.36075,0.11186
3955.28922,0.10836
3957.21769,0.10711
3959.14616,0.10869
3961.07463,0.10877
3963.00309,0.10756
3964.93156,0.10896
3966.86003,0.11091
3968.78850,0.11172
3970.71697,0.11124
3972.64544,0.10842
3974.57391,0.10846
3976.50238,0.11447
3978.43084,0.11935
3980.35931,0.11630
3982.28778,0.10595
3984.21625,0.09913
3986.14472,0.10212
3988.07319,0.10713
3990.00166,0.10832
3991.93012,0.10689
3993.85859,0.10545
3995.78706,0.10508
3997.71553,0.10449
3999.64400,0.10417
4001.57247,0.10681
4003.50094,0.11117
4005.42941,0.11342
4007.35787,0.11408
4009.28634,0.11347
4011.21481,0.10920
4013.14328,0.10396
4015.07175,0.10267
4017.00022,0.10554
4018.92869,0.10839
4020.85715,0.10781
4022.78562,0.10636
4024.71409,0.10522
4026.64256,0.10272
4028.57103,0.10171
4030.49950,0.10345
4032.42797,0.10269
4034.35644,0.09741
4036.28490,0.09341
4038.21337,0.09396
4040.14184,0.09598
4042.07031,0.09559
4043.99878,0.09402
4045.92725,0.09624
4047.85572,0.10087
4049.78418,0.10163
4051.71265,0.09743
4053.64112,0.09418
4055.56959,0.09645
4057.49806,0.10194
4059.42653,0.10397
4061.35500,0.09924
4063.28346,0.09589
4065.21193,0.10045
4067.14040,0.10522
4069.06887,0.10259
4070.99734,0.09764
4072.92581,0.09532
4074.85428,0.09405
4076.78275,0.09323
4078.71121,0.09273
4080.63968,0.09567
4082.56815,0.10168
4084.49662,0.10042
4086.42509,0.09035
4088.35356,0.08240
4090.28203,0.08100
4092.21049,0.08258
4094.13896,0.08501
4096.06743,0.08756
4097.99590,0.09099
4099.92437,0.09537
4101.85284,0.09893
4103.78131,0.10060
4105.70978,0.09974
4107.63824,0.09788
4109.56671,0.09649
4111.49518,0.09492
4113.42365,0.09363
4115.35212,0.09282
4117.28059,0.08967
4119.20906,0.08428
4121.13752,0.08332
4123.06599,0.08881
4124.99446,0.09369
4126.92293,0.09481
4128.85140,0.09405
4130.77987,0.09162
4132.70834,0.09045
4134.63681,0.09190
4136.56527,0.09028
4138.49374,0.08400
4140.42221,0.07935
4142.35068,0.07971
4144.27915,0.08257
4146.20762,0.08476
4148.13609,0.08504
4150.06455,0.08666
4151.99302,0.08971
4153.92149,0.08953
4155.84996,0.08685
4157.77843,0.08487
4159.70690,0.08473
4161.63537,0.08605
4163.56384,0.08547
4165.49230,0.08167
4167.42077,0.08276
4169.34924,0.09147
4171.27771,0.09636
4173.20618,0.09334
4175.13465,0.08718
4177.06312,0.08143
4178.99158,0.07982
4180.92005,0.08037
4182.84852,0.07770
4184.77699,0.07286
4186.70546,0.07031
4188.63393,0.07398
4190.56240,0.08041
4192.49087,0.07924
4194.41933,0.07086
4196.34780,0.06535
4198.27627,0.06631
4200.20474,0.06860
4202.13321,0.07066
4204.06168,0.07452
4205.99015,0.07585
4207.91861,0.07312
4209.84708,0.07273
4211.77555,0.07587
4213.70402,0.07681
4215.63249,0.07298
4217.56096,0.06657
4219.48943,0.06532
4221.41789,0.07099
4223.34636,0.07350
4225.27483,0.07127
4227.20330,0.06861
4229.13177,0.06601
4231.06024,0.06386
4232.98871,0.06365
4234.91718,0.06825
4236.84564,0.07474
4238.77411,0.07837
4240.70258,0.07632
4242.63105,0.06821
4244.55952,0.06296
4246.48799,0.06780
4248.41646,0.07463
4250.34492,0.07301
4252.27339,0.06928
4254.20186,0.07235
4256.13033,0.07676
4258.05880,0.07484
4259.98727,0.06740
4261.91574,0.06262
4263.84421,0.06582
4265.77267,0.06914
4267.70114,0.06606
4269.62961,0.06319
4271.55808,0.06462
4273.48655,0.06490
4275.41502,0.06227
4277.34349,0.06237
4279.27195,0.06671
4281.20042,0.07059
4283.12889,0.07026
4285.05736,0.06739
4286.98583,0.06626
4288.91430,0.06917
4290.84277,0.07529
4292.77124,0.07668
4294.69970,0.07033
4296.62817,0.06389
4298.55664,0.06089
4300.48511,0.05982
4302.41358,0.05683
4304.34205,0.05076
4306.27052,0.04643
4308.19898,0.04751
4310.12745,0.05034
4312.05592,0.04983
4313.98439,0.05192
4315.91286,0.06283
4317.84133,0.07420
4319.76980,0.07334
4321.69827,0.06269
4323.62673,0.05602
4325.55520,0.05728
4327.48367,0.06098
4329.41214,0.06365
4331.34061,0.06425
4333.26908,0.06362
4335.19755,0.06414
4337.12601,0.06508
4339.05448,0.06221
4340.98295,0.05612
4342.91142,0.05395
4344.83989,0.05540
4346.76836,0.05678
4348.69683,0.06103
4350.62530,0.06294
4352.55376,0.05589
4354.48223,0.04544
4356.41070,0.03946
4358.33917,0.03879
4360.26764,0.03650
4362.19611,0.03302
4364.12458,0.03707
4366.05304,0.04668
4367.98151,0.05168
4369.90998,0.04675
4371.83845,0.03660
4373.76692,0.03311
4375.69539,0.03615
4377.62386,0.03531
4379.55232,0.03477
4381.48079,0.03778
4383.40926,0.03763
4385.33773,0.03846
4387.26620,0.04316
4389.19467,0.04610
4391.12314,0.04237
4393.05161,0.03152
4394.98007,0.02646
4396.90854,0.03437
4398.83701,0.04412
4400.76548,0.04813
4402.69395,0.04312
4404.62242,0.03302
4406.55089,0.03090
4408.47935,0.03692
4410.40782,0.04076
4412.33629,0.03953
4414.26476,0.03838
4416.19323,0.03889
4418.12170,0.03491
4420.05017,0.02421
4421.97864,0.01662
4423.90710,0.02157
4425.83557,0.03260
4427.76404,0.03745
4429.69251,0.03556
4431.62098,0.03336
4433.54945,0.03041
4435.47792,0.02668
4437.40638,0.02710
4439.33485,0.02838
4441.26332,0.02737
4443.19179,0.02733
4445.12026,0.02757
4447.04873,0.02634
4448.97720,0.02624
4450.90567,0.03000
4452.83413,0.03709
4454.76260,0.04523
4456.69107,0.04850
4458.61954,0.04329
4460.54801,0.03493
4462.47648,0.02758
4464.40495,0.02190
4466.33341,0.01701
4468.26188,0.01138
4470.19035,0.01077
4472.11882,0.01836
4474.04729,0.02704
4475.97576,0.03137
4477.90423,0.02997
4479.83270,0.02553
4481.76116,0.02183
4483.68963,0.01831
4485.61810,0.01813
4487.54657,0.02435
4489.47504,0.03161
4491.40351,0.03856
4493.33198,0.04605
4495.26044,0.04555
4497.18891,0.03688
4499.11738,0.03353
4501.04585,0.03617
4502.97432,0.03458
4504.90279,0.02682
4506.83126,0.01589
4508.75973,0.00839
4510.68819,0.00999
4512.61666,0.01478
4514.54513,0.01818
4516.47360,0.02324
4518.40207,0.02785
4520.33054,0.02945
4522.25901,0.02797
4524.18747,0.02448
4526.11594,0.01955
4528.04441,0.01000
4529.97288,0.00447
4531.90135,0.01228
4533.82982,0.02332
4535.75829,0.02923
4537.68676,0.03052
4539.61522,0.02485
4541.54369,0.01358
4543.47216,0.00899
4545.40063,0.01352
4547.32910,0.01629
4549.25757,0.01537
4551.18604,0.00991
4553.11450,0.00149
4555.04297,0.00242
4556.97144,0.01129
4558.89991,0.01340
4560.82838,0.01220
4562.75685,0.01867
4564.68532,0.02436
4566.61378,0.02016
4568.54225,0.01148
4570.47072,0.00857
4572.39919,0.01803
4574.32766,0.03079
4576.25613,0.02891
4578.18460,0.01114
4580.11307,-0.00181
4582.04153,0.00156
4583.97000,0.00862
4585.89847,0.00910
4587.82694,0.00724
4589.75541,0.00814
4591.68388,0.00868
4593.61235,0.00998
4595.54081,0.01783
4597.46928,0.02861
4599.39775,0.03369
4601.32622,0.02590
4603.25469,0.01319
4605.18316,0.01566
4607.11163,0.02634
4609.04010,0.02647
4610.96856,0.02332
4612.89703,0.02654
4614.82550,0.02648
4616.75397,0.01453
4618.68244,0.00321
4620.61091,0.00609
4622.53938,0.01411
4624.46784,0.01528
4626.39631,0.01203
4628.32478,0.01214
4630.25325,0.01489
4632.18172,0.01056
4634.11019,0.00048
4636.03866,-0.00236
4637.96713,0.00213
4639.89559,0.00630
4641.82406,0.01003
4643.75253,0.01501
4645.68100,0.01808
4647.60947,0.01760
4649.53794,0.01944
4651.46641,0.02077
4653.39487,0.01388
4655.32334,0.00807
4657.25181,0.00874
4659.18028,0.00692
4661.10875,0.00178
4663.03722,0.00107
4664.96569,0.00618
4666.89416,0.00695
4668.82262,0.00157
4670.75109,0.00171
4672.67956,0.01088
4674.60803,0.02451
4676.53650,0.03155
4678.46497,0.02586
4680.39344,0.02023
4682.32190,0.02059
4684.25037,0.01683
4686.17884,0.00858
4688.10731,0.00540
4690.03578,0.00715
4691.96425,0.00653
4693.89272,0.00256
4695.82119,0.00496
4697.74965,0.01307
4699.67812,0.01163
4701.60659,0.00263
4703.53506,0.00046
4705.46353,0.00670
4707.39200,0.00971
4709.32047,0.00480
4711.24893,0.00370
4713.17740,0.00821
4715.10587,0.00748
4717.03434,0.00232
4718.96281,-0.00044
4720.89128,-0.00342
4722.81975,-0.00733
4724.74821,-0.00151
4726.67668,0.01342
4728.60515,0.02046
4730.53362,0.01610
4732.46209,0.01177
4734.39056,0.01269
4736.31903,0.01535
4738.24750,0.01296
4740.17596,0.00567
4742.10443,-0.00148
4744.03290,-0.00605
4745.96137,-0.00523
4747.88984,-0.00371
4749.81831,-0.00163
4751.74678,0.00598
4753.67524,0.01028
4755.60371,0.00785
4757.53218,-0.00054
4759.46065,-0.00924
4761.38912,-0.00188
4763.31759,0.01209
4765.24606,0.00939
4767.17453,-0.00319
4769.10299,-0.00838
4771.03146,-0.00562
4772.95993,-0.00233
4774.88840,0.00121
4776.81687,0.00576
4778.74534,0.00573
4780.67381,0.00444
4782.60227,0.00845
4784.53074,0.01073
4786.45921,0.00453
4788.38768,-0.00157
4790.31615,0.00728
4792.24462,0.02332
4794.17309,0.02264
4796.10156,0.00443
4798.03002,-0.00814
4799.95849,-0.00077
4801.88696,0.01242
4803.81543,0.01151
4805.74390,0.00572
4807.67237,0.00754
4809.60084,0.00940
4811.52930,0.00794
4813.45777,0.00773
4815.38624,0.00918
4817.31471,0.00661
4819.24318,0.00333
4821.17165,0.00898
4823.10012,0.02077
4825.02859,0.02525
4826.95705,0.01659
4828.88552,0.00487
4830.81399,0.00459
4832.74246,0.01335
4834.67093,0.01519
4836.59940,0.01213
4838.52787,0.01927
4840.45633,0.03507
4842.38480,0.03950
4844.31327,0.02109
4846.24174,-0.00163
4848.17021,-0.00819
4850.09868,-0.00143
4852.02715,0.00422
4853.95562,0.00262
4855.88408,0.00141
4857.81255,0.00646
4859.74102,0.01290
4861.66949,0.01407
4863.59796,0.01458
4865.52643,0.01740
4867.45490,0.01555
4869.38336,0.01241
4871.31183,0.02158
4873.24030,0.03902
4875.16877,0.04106
4877.09724,0.02673
4879.02571,0.01818
4880.95418,0.01519
4882.88265,0.00600
4884.81111,0.00156
4886.73958,0.00717
4888.66805,0.01094
4890.59652,0.01354
4892.52499,0.02092
4894.45346,0.02416
4896.38193,0.01156
4898.31039,-0.00486
4900.23886,-0.00638
4902.16733,-0.00172
4904.09580,0.00018
4906.02427,0.00344
4907.95274,0.00453
4909.88121,0.00518
4911.80967,0.00950
4913.73814,0.01000
4915.66661,0.00842
4917.59508,0.01017
4919.52355,0.00967
4921.45202,0.00811
4923.38049,0.00930
4925.30896,0.00759
4927.23742,0.00640
4929.16589,0.01144
4931.09436,0.01320
4933.02283,0.00762
4934.95130,0.00497
4936.87977,0.01459
4938.80824,0.03216
4940.73670,0.04380
4942.66517,0.03864
4944.59364,0.02239
4946.52211,0.01525
4948.45058,0.01254
4950.37905,0.00666
4952.30752,0.01317
4954.23599,0.02684
4956.16445,0.02914
4958.09292,0.01604
4960.02139,-0.00453
4961.94986,-0.01256
4963.87833,-0.00181
4965.80680,0.00764
4967.73527,0.00667
4969.66373,0.00553
4971.59220,0.00981
4973.52067,0.02129
4975.44914,0.03239
4977.37761,0.03323
4979.30608,0.02794
4981.23455,0.02530
4983.16302,0.02756
4985.09148,0.03208
4987.01995,0.03967
4988.94842,0.04299
4990.87689,0.03723
4992.80536,0.02674
4994.73383,0.01083
4996.66230,0.01088
4998.59076,0.03465
5000.51923,0.04394
5002.44770,0.02346
5004.37617,0.00332
5006.30464,0.00809
5008.23311,0.01906
5010.16158,0.01291
5012.09005,-0.00119
5014.01851,-0.00693
5015.94698,-0.00381
5017.87545,0.00495
5019.80392,0.01474
5021.73239,0.01423
5023.66086,0.00556
5025.58933,0.00056
5027.51779,0.00526
5029.44626,0.01409
5031.37473,0.01420
5033.30320,0.00972
5035.23167,0.00828
5037.16014,0.01584
5039.08861,0.03278
5041.01708,0.03642
5042.94554,0.01919
5044.87401,0.00204
5046.80248,-0.00060
5048.73095,0.00673
5050.65942,0.01334
5052.58789,0.01785
5054.51636,0.02454
5056.44482,0.02526
5058.37329,0.01768
5060.30176,0.02059
5062.23023,0.03436
5064.15870,0.03926
5066.08717,0.03311
5068.01564,0.02786
5069.94410,0.02408
5071.87257,0.01495
5073.80104,0.00732
5075.72951,0.00810
5077.65798,0.01118
5079.58645,0.01306
5081.51492,0.00744
5083.44339,-0.00467
5085.37185,-0.00203
5087.30032,0.01318
5089.22879,0.01999
5091.15726,0.02374
5093.08573,0.03382
5095.01420,0.03991
5096.94267,0.03969
5098.87113,0.03773
5100.79960,0.02683
5102.72807,0.02528
5104.65654,0.04604
5106.58501,0.05354
5108.51348,0.03311
5110.44195,0.01206
5112.37042,0.00687
5114.29888,0.01412
5116.22735,0.03305
5118.15582,0.05397
5120.08429,0.05549
5122.01276,0.03778
5123.94123,0.02324
5125.86970,0.02424
5127.79816,0.02901
5129.72663,0.02832
5131.65510,0.02295
5133.58357,0.01518
5135.51204,0.01527
5137.44051,0.02609
5139.36898,0.03503
5141.29745,0.03746
5143.22591,0.04349
5145.15438,0.04690
5147.08285,0.03154
5149.01132,0.01637
5150.93979,0.02835
5152.86826,0.04451
5154.79673,0.03776
5156.72519,0.02776
5158.65366,0.02975
5160.58213,0.02677
5162.51060,0.00792
5164.43907,-0.00655
5166.36754,0.00598
5168.29601,0.03382
5170.22448,0.05295
5172.15294,0.05252
5174.08141,0.04547
5176.00988,0.04023
5177.93835,0.03192
5179.86682,0.02904
5181.79529,0.03238
5183.72376,0.03564
5185.65222,0.05011
5187.58069,0.06482
5189.50916,0.05396
5191.43763,0.02991
5193.36610,0.01391
5195.29457,-0.00114
5197.22304,-0.01457
5199.15151,0.00385
5201.07997,0.04762
5203.00844,0.06851
5204.93691,0.04693
5206.86538,0.01375
5208.79385,0.01403
5210.72232,0.02716
5212.65079,0.02666
5214.57925,0.02559
5216.50772,0.02821
5218.43619,0.03534
5220.36466,0.04048
5222.29313,0.03587
5224.22160,0.03774
5226.15007,0.05062
5228.07854,0.06033
5230.00700,0.06400
5231.93547,0.06289
5233.86394,0.06238
5235.79241,0.06916
5237.72088,0.06860
5239.64935,0.05840
5241.57782,0.05502
5243.50628,0.04866
5245.43475,0.04231
5247.36322,0.05390
5249.29169,0.06480
5251.22016,0.06712
5253.14863,0.07008
5255.07710,0.05763
5257.00556,0.03459
5258.93403,0.03771
5260.86250,0.05910
5262.79097,0.05439
5264.71944,0.03417
5266.64791,0.03728
5268.57638,0.04863
5270.50485,0.04988
5272.43331,0.05138
5274.36178,0.05893
5276.29025,0.06867
5278.21872,0.07692
5280.14719,0.07354
5282.07566,0.06069
5284.00413,0.05017
5285.93259,0.04366
5287.86106,0.04659
5289.78953,0.06380
5291.71800,0.09125
5293.64647,0.10843
5295.57494,0.10025
5297.50341,0.07949
5299.43188,0.06146
5301.36034,0.05160
5303.28881,0.05314
5305.21728,0.06411
5307.14575,0.07539
5309.07422,0.07404
5311.00269,0.06360
5312.93116,0.06035
5314.85962,0.06634
5316.78809,0.06768
5318.71656,0.05271
5320.64503,0.03250
5322.57350,0.03357
5324.50197,0.04477
5326.43044,0.03734
5328.35891,0.03244
5330.28737,0.03989
5332.21584,0.04119
5334.14431,0.05320
5336.07278,0.08407
5338.00125,0.09540
5339.92972,0.07245
5341.85819,0.05104
5343.78665,0.03632
5345.71512,0.01818
5347.64359,0.00935
5349.57206,0.01708
5351.50053,0.03903
5353.42900,0.06315
5355.35747,0.06866
5357.28594,0.06267
5359.21440,0.07004
5361.14287,0.09272
5363.07134,0.10359
5364.99981,0.08334
5366.92828,0.05040
5368.85675,0.03534
5370.78522,0.05520
5372.71368,0.09152
5374.64215,0.10279
5376.57062,0.08143
5378.49909,0.05958
5380.42756,0.05448
5382.35603,0.05926
5384.28450,0.06262
5386.21297,0.05845
5388.14143,0.05320
5390.06990,0.06099
5391.99837,0.08131
5393.92684,0.08897
5395.85531,0.07138
5397.78378,0.06584
5399.71225,0.08772
5401.64071,0.09217
5403.56918,0.05676
5405.49765,0.03182
5407.42612,0.04928
5409.35459,0.06733
5411.28306,0.06272
5413.21153,0.06497
5415.13999,0.07291
5417.06846,0.07625
5418.99693,0.08664
5420.92540,0.09591
5422.85387,0.09088
5424.78234,0.07878
5426.71081,0.07947
5428.63928,0.09890
5430.56774,0.10891
5432.49621,0.09813
5434.42468,0.08332
5436.35315,0.06693
5438.28162,0.04450
5440.21009,0.02450
5442.13856,0.01796
5444.06702,0.03228
5445.99549,0.05863
5447.92396,0.07166
5449.85243,0.07435
5451.78090,0.08405
5453.70937,0.09539
5455.63784,0.09820
5457.56631,0.09786
5459.49477,0.09620
5461.42324,0.08092
5463.35171,0.07050
5465.28018,0.07911
5467.20865,0.08059
5469.13712,0.06536
5471.06559,0.05350
5472.99405,0.05838
5474.92252,0.07293
5476.85099,0.07826
5478.77946,0.07194
5480.70793,0.06241
5482.63640,0.05518
5484.56487,0.05194
5486.49334,0.05046
5488.42180,0.05371
5490.35027,0.05881
5492.27874,0.06022
5494.20721,0.06967
5496.13568,0.09121
5498.06415,0.09313
5499.99262,0.05514
5501.92108,0.03167
5503.84955,0.06281
5505.77802,0.09905
5507.70649,0.09833
5509.63496,0.08534
5511.56343,0.07259
5513.49190,0.05282
5515.42037,0.04134
5517.34883,0.04549
5519.27730,0.06389
5521.20577,0.08938
5523.13424,0.10301
5525.06271,0.08862
5526.99118,0.05524
5528.91965,0.03514
5530.84811,0.03930
5532.77658,0.05904
5534.70505,0.08389
5536.63352,0.08342
5538.56199,0.04392
5540.49046,0.00218
5542.41893,0.00982
5544.34740,0.06981
5546.27586,0.11903
5548.20433,0.12372
5550.13280,0.11712
5552.06127,0.10350
5553.98974,0.07237
5555.91821,0.05034
5557.84668,0.05459
5559.77514,0.08009
5561.70361,0.11214
5563.63208,0.12342
5565.56055,0.10650
5567.48902,0.07933
5569.41749,0.05893
5571.34596,0.05466
5573.27443,0.05796
5575.20289,0.05427
5577.13136,0.04742
5579.05983,0.04274
5580.98830,0.03299
5582.91677,0.02414
5584.84524,0.03776
5586.77371,0.06355
5588.70217,0.08337
5590.63064,0.09153
5592.55911,0.07767
5594.48758,0.06262
5596.41605,0.07549
5598.34452,0.10138
5600.27299,0.11199
5602.20145,0.10444
5604.12992,0.08436
5606.05839,0.05259
5607.98686,0.03015
5609.91533,0.03882
5611.84380,0.06041
5613.77227,0.07289
5615.70074,0.08002
5617.62920,0.08860
5619.55767,0.10302
5621.48614,0.11166
5623.41461,0.12328
5625.34308,0.16277
5627.27155,0.17381
5629.20002,0.11731
5631.12848,0.07154
5633.05695,0.07582
5634.98542,0.09192
5636.91389,0.08964
5638.84236,0.08001
5640.77083,0.08181
5642.69930,0.08821
5644.62777,0.09737
5646.55623,0.10209
5648.48470,0.08317
5650.41317,0.05636
5652.34164,0.03817
5654.27011,0.03613
5656.19858,0.06934
5658.12705,0.11615
5660.05551,0.11370
5661.98398,0.06343
5663.91245,0.03168
5665.84092,0.04047
5667.76939,0.06969
5669.69786,0.08272
5671.62633,0.06806
5673.55480,0.07143
5675.48326,0.10518
5677.41173,0.11925
5679.34020,0.10709
5681.26867,0.10166
5683.19714,0.09386
5685.12561,0.08560
5687.05408,0.08789
5688.98254,0.07975
5690.91101,0.06088
5692.83948,0.04942
5694.76795,0.05285
5696.69642,0.07317
5698.62489,0.09002
5700.55336,0.08116
5702.48183,0.07439
5704.41029,0.08666
5706.33876,0.07547
5708.26723,0.04316
5710.19570,0.05183
5712.12417,0.11230
5714.05264,0.17348
5715.98111,0.19751
5717.90957,0.17969
5719.83804,0.14132
5721.76651,0.12874
5723.69498,0.14733
5725.62345,0.14963
5727.55192,0.10641
5729.48039,0.05592
5731.40886,0.05456
5733.33732,0.08455
5735.26579,0.10553
5737.19426,0.10275
5739.12273,0.08415
5741.05120,0.07774
5742.97967,0.08711
5744.90814,0.09682
5746.83660,0.09262
5748.76507,0.08141
5750.69354,0.07370
5752.62201,0.05821
5754.55048,0.05523
5756.47895,0.07651
5758.40742,0.10343
5760.33588,0.11353
5762.26435,0.10394
5764.19282,0.11181
5766.12129,0.11870
5768.04976,0.08652
5769.97823,0.05531
5771.90670,0.05979
5773.83517,0.07624
5775.76363,0.06774
5777.69210,0.03318
5779.62057,0.02095
5781.54904,0.04912
5783.47751,0.07141
5785.40598,0.07013
5787.33445,0.07895
5789.26291,0.10421
5791.19138,0.10024
5793.11985,0.05401
5795.04832,0.01074
5796.97679,0.00857
5798.90526,0.04139
5800.83373,0.07643
5802.76220,0.09679
5804.69066,0.10441
5806.61913,0.09828
5808.54760,0.07422
5810.47607,0.05753
5812.40454,0.07018
5814.33301,0.08142
5816.26148,0.09648
5818.18994,0.12892
5820.11841,0.12637
5822.04688,0.08842
5823.97535,0.06907
5825.90382,0.06744
5827.83229,0.06022
5829.76076,0.06611
5831.68923,0.08633
5833.61769,0.07343
5835.54616,0.03826
5837.47463,0.03780
5839.40310,0.08301
5841.33157,0.11228
5843.26004,0.08440
5845.18851,0.06483
5847.11697,0.09046
5849.04544,0.12896
5850.97391,0.15302
5852.90238,0.14605
5854.83085,0.11873
5856.75932,0.10329
5858.68779,0.10173
5860.61626,0.09873
5862.54472,0.09862
5864.47319,0.09512
5866.40166,0.08649
5868.33013,0.10263
5870.25860,0.13102
5872.18707,0.12771
5874.11554,0.10103
5876.04400,0.07038
5877.97247,0.04699
5879.90094,0.04640
5881.82941,0.04104
5883.75788,0.03042
5885.68635,0.04298
5887.61482,0.05649
5889.54329,0.05833
5891.47175,0.06151
5893.40022,0.06517
5895.32869,0.06832
5897.25716,0.08182
5899.18563,0.11017
5901.11410,0.12543
5903.04257,0.11282
5904.97103,0.10674
5906.89950,0.10355
5908.82797,0.05759
5910.75644,0.01341
5912.68491,0.05618
5914.61338,0.13981
5916.54185,0.16643
5918.47032,0.13482
5920.39878,0.09192
5922.32725,0.06904
5924.25572,0.07351
5926.18419,0.10012
5928.11266,0.11590
5930.04113,0.08569
5931.96960,0.04585
5933.89806,0.03716
5935.82653,0.03889
5937.75500,0.04157
5939.68347,0.06770
5941.61194,0.11025
5943.54041,0.13080
5945.46888,0.09886
5947.39734,0.02818
5949.32581,-0.01259
5951.25428,0.01568
5953.18275,0.07492
5955.11122,0.11021
5957.03969,0.10186
5958.96816,0.09299
5960.89663,0.10107
5962.82509,0.09951
5964.75356,0.10138
5966.68203,0.09446
5968.61050,0.04444
5970.53897,0.00994
5972.46744,0.05898
5974.39591,0.13318
5976.32437,0.15154
5978.25284,0.12993
5980.18131,0.10595
5982.10978,0.07315
5984.03825,0.04976
5985.96672,0.07682
5987.89519,0.11650
5989.82366,0.12500
5991.75212,0.11700
5993.68059,0.11378
5995.60906,0.10739
5997.53753,0.06351
5999.46600,0.03078
6001.39447,0.06836
6003.32294,0.11673
6005.25140,0.12459
6007.17987,0.12386
6009.10834,0.12144
6011.03681,0.10528
6012.96528,0.09051
6014.89375,0.09800
6016.82222,0.12447
6018.75069,0.15426
6020.67915,0.15882
6022.60762,0.12559
6024.53609,0.12167
6026.46456,0.15318
6028.39303,0.13889
6030.32150,0.08042
6032.24997,0.04304
6034.17843,0.05612
6036.10690,0.07612
6038.03537,0.07851
6039.96384,0.09377
6041.89231,0.10630
6043.82078,0.11167
6045.74925,0.12107
6047.67772,0.12901
6049.60618,0.12850
6051.53465,0.11638
6053.46312,0.08985
6055.39159,0.04397
6057.32006,0.01975
6059.24853,0.05762
6061.17700,0.13416
6063.10546,0.16456
6065.03393,0.10746
6066.96240,0.03474
6068.89087,-0.00093
6070.81934,0.00560
6072.74781,0.03574
6074.67628,0.06992
6076.60475,0.09228
6078.53321,0.08744
6080.46168,0.05817
6082.39015,0.03643
6084.31862,0.06287
6086.24709,0.08806
6088.17556,0.05402
6090.10403,0.03448
6092.03249,0.07717
6093.96096,0.11719
6095.88943,0.11262
6097.81790,0.12888
6099.74637,0.17429
6101.67484,0.16122
6103.60331,0.09553
6105.53177,0.05007
6107.46024,0.04274
6109.38871,0.06590
6111.31718,0.11618
6113.24565,0.14932
6115.17412,0.14605
6117.10259,0.14065
6119.03106,0.11201
6120.95952,0.05954
6122.88799,0.05136
6124.81646,0.07936
6126.74493,0.07742
6128.67340,0.03876
6130.60187,0.02883
6132.53034,0.07097
6134.45880,0.11424
6136.38727,0.09858
6138.31574,0.02481
6140.24421,-0.02810
6142.17268,-0.01042
6144.10115,0.02857
6146.02962,0.05146
6147.95809,0.07551
6149.88655,0.08921
6151.81502,0.07785
6153.74349,0.04714
6155.67196,-0.00677
6157.60043,-0.03850
6159.52890,0.01527
6161.45737,0.12078
6163.38583,0.18689
6165.31430,0.17795
6167.24277,0.14548
6169.17124,0.13903
6171.09971,0.14113
6173.02818,0.14562
6174.95665,0.17064
6176.88512,0.17641
6178.81358,0.14500
6180.74205,0.11220
6182.67052,0.08021
6184.59899,0.06030
6186.52746,0.07255
6188.45593,0.09302
6190.38440,0.08770
6192.31286,0.05575
6194.24133,0.04664
6196.16980,0.10062
6198.09827,0.14464
6200.02674,0.11064
6201.95521,0.05377
6203.88368,0.04041
6205.81215,0.07566
6207.74061,0.11562
6209.66908,0.13327
6211.59755,0.14360
6213.52602,0.13372
6215.45449,0.10653
6217.38296,0.10867
6219.31143,0.10332
6221.23989,0.04662
6223.16836,0.00876
6225.09683,0.04560
6227.02530,0.09999
6228.95377,0.11492
6230.88224,0.08838
6232.81071,0.05938
6234.73918,0.06052
6236.66764,0.05871
6238.59611,0.03489
6240.52458,0.03132
6242.45305,0.05319
6244.38152,0.04646
6246.30999,0.01855
6248.23846,0.02709
6250.16692,0.06315
6252.09539,0.06494
6254.02386,0.04500
6255.95233,0.05039
6257.88080,0.06487
6259.80927,0.05765
6261.73774,0.03307
6263.66621,0.02947
6265.59467,0.05142
6267.52314,0.03440
6269.45161,-0.03462
6271.38008,-0.10386
6273.30855,-0.10213
6275.23702,-0.00114
6277.16549,0.07679
6279.09395,0.06370
6281.02242,0.06400
6282.95089,0.11412
6284.87936,0.14100
6286.80783,0.11323
6288.73630,0.04539
6290.66477,-0.02506
6292.59323,-0.06789
6294.52170,-0.07332
6296.45017,-0.02303
6298.37864,0.05255
6300.30711,0.08805
6302.23558,0.05796
6304.16405,0.00914
6306.09252,0.00623
6308.02098,0.02675
6309.94945,0.01878
6311.87792,0.01133
6313.80639,0.00028
6315.73486,-0.04415
6317.66333,-0.04504
6319.59180,0.04754
6321.52026,0.13749
6323.44873,0.13136
6325.37720,0.07480
6327.30567,0.05898
6329.23414,0.08920
6331.16261,0.10429
6333.09108,0.10064
6335.01955,0.09078
6336.94801,0.08933
6338.87648,0.11393
6340.80495,0.10422
6342.73342,0.06722
6344.66189,0.08758
6346.59036,0.14129
6348.51883,0.16218
6350.44729,0.16258
6352.37576,0.14566
6354.30423,0.10047
6356.23270,0.04165
6358.16117,0.00028
6360.08964,0.02899
6362.01811,0.11485
6363.94658,0.15523
6365.87504,0.09925
6367.80351,0.03966
6369.73198,0.06033
6371.66045,0.09460
6373.58892,0.06807
6375.51739,0.03985
6377.44586,0.09514
6379.37432,0.17924
6381.30279,0.17419
6383.23126,0.08035
6385.15973,0.04337
6387.08820,0.09720
6389.01667,0.14361
6390.94514,0.13828
6392.87361,0.08291
6394.80207,0.01613
6396.73054,0.00554
6398.65901,0.03810
6400.58748,0.05389
6402.51595,0.04085
6404.44442,0.01728
6406.37289,0.02908
6408.30135,0.12346
6410.22982,0.18001
6412.15829,0.08460
6414.08676,-0.02392
6416.01523,-0.03009
6417.94370,0.00113
6419.87217,0.03268
6421.80064,0.06861
6423.72910,0.06523
6425.65757,0.06294
6427.58604,0.15413
6429.51451,0.29349
6431.44298,0.31571
6433.37145,0.20122
6435.29992,0.12067
6437.22838,0.11740
6439.15685,0.11284
6441.08532,0.10934
6443.01379,0.12777
6444.94226,0.11904
6446.87073,0.09308
6448.79920,0.10796
6450.72766,0.14886
6452.65613,0.14822
6454.58460,0.08900
6456.51307,0.01607
6458.44154,-0.00396
6460.37001,0.05918
6462.29848,0.15534
6464.22695,0.20980
6466.15541,0.20135
6468.08388,0.13425
6470.01235,0.04399
6471.94082,-0.00830
6473.86929,0.01226
6475.79776,0.08471
6477.72623,0.10654
6479.65469,0.06763
6481.58316,0.07393
6483.51163,0.10981
6485.44010,0.10670
6487.36857,0.08050
6489.29704,0.07585
6491.22551,0.10231
6493.15398,0.11866
6495.08244,0.10873
6497.01091,0.09819
6498.93938,0.08178
6500.86785,0.06846
6502.79632,0.11622
6504.72479,0.16656
6506.65326,0.11584
6508.58172,0.02794
6510.51019,0.01011
6512.43866,0.04070
6514.36713,0.05138
6516.29560,0.03790
6518.22407,0.02309
6520.15254,-0.00023
6522.08101,-0.02940
6524.00947,-0.03320
6525.93794,0.00289
6527.86641,0.06044
6529.79488,0.07637
6531.72335,0.03982
6533.65182,0.03215
6535.58029,0.05383
6537.50875,0.09420
6539.43722,0.14331
6541.36569,0.08860
6543.29416,-0.02807
6545.22263,-0.03867
6547.15110,0.02773
6549.07957,0.07820
6551.00804,0.10439
6552.93650,0.13221
6554.86497,0.17874
6556.79344,0.22106
6558.72191,0.22347
6560.65038,0.19380
6562.57885,0.12080
6564.50732,0.01926
6566.43578,-0.00582
6568.36425,0.07885
6570.29272,0.19327
6572.22119,0.21222
6574.14966,0.16206
6576.07813,0.18378
6578.00660,0.23381
6579.93507,0.22779
6581.86353,0.17609
6583.79200,0.08652
6585.72047,0.04142
6587.64894,0.06889
6589.57741,0.07167
6591.50588,0.04049
6593.43435,0.04378
6595.36281,0.06188
6597.29128,0.05921
6599.21975,0.05228
6601.14822,0.04531
6603.07669,0.04511
6605.00516,0.05366
6606.93363,0.05287
6608.86210,0.02194
6610.79056,-0.00735
6612.71903,0.01137
6614.64750,0.04495
6616.57597,0.03556
6618.50444,-0.01148
6620.43291,-0.02433
6622.36138,0.02039
6624.28984,0.05719
6626.21831,0.04174
6628.14678,0.02263
6630.07525,0.08473
6632.00372,0.16440
6633.93219,0.12669
6635.86066,0.02701
6637.78912,0.02330
6639.71759,0.07132
6641.64606,0.06904
6643.57453,0.05522
6645.50300,0.11991
6647.43147,0.21605
6649.35994,0.18946
6651.28841,0.08522
6653.21687,0.06160
6655.14534,0.07942
6657.07381,0.05012
6659.00228,0.05454
6660.93075,0.06555
6662.85922,0.01148
6664.78769,-0.01824
6666.71615,0.01222
6668.64462,0.04762
6670.57309,0.06249
6672.50156,0.07799
6674.43003,0.11298
6676.35850,0.11808
6678.28697,0.08866
6680.21544,0.09994
6682.14390,0.13679
6684.07237,0.12733
6686.00084,0.07658
6687.92931,0.04132
6689.85778,0.07555
6691.78625,0.15131
6693.71472,0.18665
6695.64318,0.16682
6697.57165,0.12976
6699.50012,0.08461
6701.42859,0.04816
6703.35706,0.06826
6705.28553,0.11997
6707.21400,0.14300
6709.14247,0.10792
6711.07093,0.04852
6712.99940,0.02309
6714.92787,0.02470
6716.85634,0.05906
6718.78481,0.11225
6720.71328,0.08710
6722.64175,0.04900
6724.57021,0.13406
6726.49868,0.25816
6728.42715,0.26204
6730.35562,0.14848
6732.28409,0.09436
6734.21256,0.13605
6736.14103,0.15561
6738.06950,0.13073
6739.99796,0.10858
6741.92643,0.09603
6743.85490,0.10046
6745.78337,0.13405
6747.71184,0.14263
6749.64031,0.08804
6751.56878,0.04269
6753.49724,0.07307
6755.42571,0.15563
6757.35418,0.25050
6759.28265,0.33102
6761.21112,0.31605
6763.13959,0.20325
6765.06806,0.08390
6766.99653,0.03979
6768.92499,0.07623
6770.85346,0.11218
6772.78193,0.13332
6774.71040,0.13298
6776.63887,0.06511
6778.56734,-0.01747
6780.49581,-0.05165
6782.42427,-0.00173
6784.35274,0.10049
6786.28121,0.16494
6788.20968,0.15905
6790.13815,0.08885
6792.06662,0.06720
6793.99509,0.14302
6795.92355,0.14270
6797.85202,0.05840
6799.78049,0.01738
6801.70896,-0.00629
6803.63743,-0.07875
6805.56590,-0.11707
6807.49437,-0.09710
6809.42284,-0.07088
6811.35130,-0.00186
6813.27977,0.07930
6815.20824,0.09760
6817.13671,0.07786
6819.06518,0.09322
6820.99365,0.13904
6822.92212,0.06349
6824.85058,-0.10631
6826.77905,-0.16074
6828.70752,-0.09719
6830.63599,-0.02796
6832.56446,0.01154
6834.49293,0.08785
6836.42140,0.13211
6838.34987,0.03823
6840.27833,-0.03095
6842.20680,0.07223
6844.13527,0.23073
6846.06374,0.28303
6847.99221,0.25361
6849.92068,0.18364
6851.84915,0.07325
6853.77761,-0.05007
6855.70608,-0.14276
6857.63455,-0.09510
6859.56302,0.04909
6861.49149,0.15438
6863.41996,0.16058
6865.34843,0.08174
6867.27690,-0.00774
6869.20536,-0.02172
6871.13383,0.05413
6873.06230,0.15481
6874.99077,0.19831
6876.91924,0.20424
6878.84771,0.17270
6880.77618,0.11016
6882.70464,0.07671
6884.63311,0.06422
6886.56158,0.05736
6888.49005,0.08127
6890.41852,0.11610
6892.34699,0.07483
6894.27546,-0.01537
6896.20393,-0.04779
6898.13239,-0.00917
6900.06086,0.05578
6901.98933,0.09366
6903.91780,0.06093
6905.84627,0.03061
6907.77474,0.08265
6909.70321,0.14409
6911.63167,0.15861
6913.56014,0.13786
6915.48861,0.10319
6917.41708,0.05436
6919.34555,0.00306
6921.27402,-0.00913
6923.20249,-0.00279
6925.13096,0.00404
6927.05942,0.00361
6928.98789,-0.06390
6930.91636,-0.17401
6932.84483,-0.18052
6934.77330,-0.11128
6936.70177,-0.07213
6938.63024,-0.05923
6940.55870,-0.07489
6942.48717,-0.08204
6944.41564,-0.02790
6946.34411,0.06151
6948.27258,0.15664
6950.20105,0.23427
6952.12952,0.27507
6954.05799,0.25552
6955.98645,0.13759
6957.91492,0.03785
6959.84339,0.04687
6961.77186,0.05043
6963.70033,0.00552
6965.62880,-0.04615
6967.55727,-0.05264
6969.48573,0.02300
6971.41420,0.03407
6973.34267,-0.02912
6975.27114,0.00059
6977.19961,0.07751
6979.12808,0.09365
6981.05655,0.02561
6982.98501,-0.03686
6984.91348,-0.02921
6986.84195,0.00878
6988.77042,0.02929
6990.69889,-0.04445
6992.62736,-0.12155
6994.55583,-0.04715
6996.48430,0.14187
6998.41276,0.27141
7000.34123,0.25916
7002.26970,0.14795
7004.19817,0.00031
7006.12664,-0.08263
7008.05511,-0.01675
7009.98358,0.08924
7011.91204,0.11427
7013.84051,0.08013
7015.76898,0.06972
7017.69745,0.08940
7019.62592,0.08595
7021.55439,0.01417
7023.48286,-0.09862
7025.41133,-0.15021
7027.33979,-0.12028
7029.26826,-0.06606
7031.19673,-0.00036
7033.12520,0.04354
7035.05367,-0.01832
7036.98214,-0.09687
7038.91061,-0.07982
7040.83907,0.03400
7042.76754,0.25557
7044.69601,0.39520
7046.62448,0.27557
7048.55295,0.08354
7050.48142,-0.00479
7052.40989,-0.00086
7054.33836,0.12251
7056.26682,0.30148
7058.19529,0.28946
7060.12376,0.12923
7062.05223,0.06072
7063.98070,0.06583
7065.90917,0.07126
7067.83764,0.09439
7069.76610,0.13207
7071.69457,0.12770
7073.62304,0.09415
7075.55151,0.09875
7077.47998,0.12289
7079.40845,0.10742
7081.33692,0.01828
7083.26539,-0.04128
7085.19385,0.00132
7087.12232,0.08068
7089.05079,0.09999
7090.97926,0.03049
7092.90773,0.00554
7094.83620,0.07081
7096.76467,0.00685
7098.69313,-0.17809
7100.62160,-0.16259
7102.55007,-0.01504
7104.47854,0.02112
7106.40701,-0.02386
7108.33548,0.00380
7110.26395,0.08603
7112.19242,0.13657
7114.12088,0.11892
7116.04935,0.11265
7117.97782,0.16202
7119.90629,0.15159
7121.83476,0.07601
7123.76323,0.08645
7125.69170,0.17407
7127.62016,0.20611
7129.54863,0.26481
7131.47710,0.32053
7133.40557,0.17788
7135.33404,-0.02626
7137.26251,-0.06431
7139.19098,0.05685
7141.11944,0.21580
7143.04791,0.31875
7144.97638,0.33469
7146.90485,0.28128
7148.83332,0.23008
7150.76179,0.18131
7152.69026,0.05802
7154.61873,-0.09630
7156.54719,-0.09973
7158.47566,0.02292
7160.40413,0.12228
7162.33260,0.13064
7164.26107,0.12011
7166.18954,0.15477
7168.11801,0.17293
7170.04647,0.14814
7171.97494,0.12417
7173.90341,0.06239
7175.83188,-0.03423
7177.76035,-0.00310
7179.68882,0.11261
7181.61729,0.11694
7183.54576,-0.01159
7185.47422,-0.09914
7187.40269,0.00669
7189.33116,0.22905
7191.25963,0.32727
7193.18810,0.20442
7195.11657,0.04054
7197.04504,-0.02740
7198.97350,-0.05079
7200.90197,-0.11071
7202.83044,-0.16862
7204.75891,-0.15966
7206.68738,-0.06585
7208.61585,0.11362
7210.54432,0.30921
7212.47279,0.40736
7214.40125,0.38726
7216.32972,0.24031
7218.25819,0.01761
7220.18666,-0.10743
7222.11513,-0.12219
7224.04360,-0.06117
7225.97207,0.02543
7227.90053,0.04944
7229.82900,-0.02882
7231.75747,-0.08087
7233.68594,0.07970
7235.61441,0.26146
7237.54288,0.28711
7239.47135,0.22012
7241.39982,0.12238
7243.32828,0.05670
7245.25675,0.09794
7247.18522,0.13123
7249.11369,0.10336
7251.04216,0.08901
7252.97063,0.15546
7254.89910,0.12187
7256.82756,0.10250
7258.75603,0.27116
7260.68450,0.47539
7262.61297,0.37118
7264.54144,0.12800
7266.46991,0.00642
7268.39838,-0.02577
7270.32685,-0.03189
7272.25531,-0.10057
7274.18378,-0.07154
7276.11225,0.07447
7278.04072,0.19381
7279.96919,0.24861
7281.89766,0.20346
7283.82613,0.19264
7285.75459,0.15524
7287.68306,0.06965
7289.61153,0.12128
7291.54000,0.26589
7293.46847,0.27574
7295.39694,0.27487
7297.32541,0.31000
7299.25387,0.19927
7301.18234,0.00665
7303.11081,-0.04697
7305.03928,0.07850
7306.96775,0.21068
7308.89622,0.16422
7310.82469,0.05432
7312.75316,0.06804
7314.68162,0.11813
7316.61009,0.07966
7318.53856,0.00083
7320.46703,-0.04867
7322.39550,-0.10724
7324.32397,-0.07456
7326.25244,0.02149
7328.18090,0.01051
7330.10937,-0.08777
7332.03784,-0.11790
7333.96631,-0.05658
7335.89478,0.06257
7337.82325,0.27039
7339.75172,0.49219
7341.68019,0.43482
7343.60865,0.25731
7345.53712,0.04439
7347.46559,-0.15038
7349.39406,-0.10943
7351.32253,0.00546
7353.25100,-0.02725
7355.17947,-0.07385
7357.10793,-0.00864
7359.03640,0.07893
7360.96487,0.05907
7362.89334,0.09167
7364.82181,0.20549
7366.75028,0.14246
7368.67875,-0.06477
7370.60722,-0.09612
7372.53568,0.10510
7374.46415,0.32348
7376.39262,0.35367
7378.32109,0.33523
7380.24956,0.27279
7382.17803,0.14658
7384.10650,0.08032
7386.03496,0.12947
7387.96343,0.12114
7389.89190,-0.05635
7391.82037,-0.16594
7393.74884,-0.10898
7395.67731,-0.05795
7397.60578,-0.06735
7399.53425,-0.04264
7401.46271,0.01488
7403.39118,0.04594
7405.31965,0.05601
7407.24812,0.07782
7409.17659,0.07499
7411.10506,0.01216
7413.03353,-0.06348
7414.96199,-0.09930
7416.89046,-0.05107
7418.81893,0.10942
7420.74740,0.21214
7422.67587,0.16232
7424.60434,0.06411
7426.53281,-0.07821
7428.46128,-0.22869
7430.38974,-0.21363
7432.31821,-0.10641
7434.24668,-0.05816
7436.17515,0.04750
7438.10362,0.13402
7440.03209,0.12669
7441.96056,0.24758
7443.88902,0.39719
7445.81749,0.31642
7447.74596,0.18034
7449.67443,0.11796
7451.60290,-0.02130
7453.53137,-0.09988
7455.45984,0.05795
7457.38831,0.23112
7459.31677,0.23578
7461.24524,0.16061
7463.17371,0.13679
7465.10218,0.06711
7467.03065,-0.07548
7468.95912,-0.14918
7470.88759,-0.09389
7472.81605,-0.09041
7474.74452,-0.22881
7476.67299,-0.25095
7478.60146,-0.04390
7480.52993,0.15306
7482.45840,0.24567
7484.38687,0.32314
7486.31533,0.38543
7488.24380,0.37513
7490.17227,0.27466
7492.10074,0.10683
7494.02921,-0.03651
7495.95768,-0.06434
7497.88615,-0.02961
