399.19301,-0.57137
401.12148,-0.43995
403.04995,-0.22111
404.97842,-0.06968
406.90689,-0.10150
408.83536,-0.19086
410.76382,-0.13259
412.69229,-0.04901
414.62076,-0.06696
416.54923,-0.04876
418.47770,0.09445
420.40617,0.26877
422.33464,0.33842
424.26311,0.27992
426.19157,0.11332
428.12004,0.03510
430.04851,0.11806
431.97698,0.20925
433.90545,0.22109
435.83392,0.16720
437.76239,0.07570
439.69085,0.00148
441.61932,0.01059
443.54779,0.12585
445.47626,0.16600
447.40473,0.06444
449.33320,0.02126
451.26167,0.10900
453.19013,0.17186
455.11860,0.15440
457.04707,0.12248
458.97554,0.09585
460.90401,0.08461
462.83248,0.09375
464.76095,0.09013
466.68942,0.07209
468.61788,0.05943
470.54635,0.10639
472.47482,0.54687
474.40329,1.17794
476.33176,0.82113
478.26023,0.26069
480.18870,0.05580
482.11716,0.04024
484.04563,0.03703
485.97410,0.04584
487.90257,0.09465
489.83104,0.16468
491.75951,0.22609
493.68798,0.24035
495.61645,0.18900
497.54491,0.11903
499.47338,0.09366
501.40185,0.10455
503.33032,0.09595
505.25879,0.07265
507.18726,0.06913
509.11573,0.07594
511.04419,0.08078
512.97266,0.08597
514.90113,0.08990
516.82960,0.10807
518.75807,0.14329
520.68654,0.15927
522.61501,0.16709
524.54348,0.16445
526.47194,0.13243
528.40041,0.11983
530.32888,0.12314
532.25735,0.10683
534.18582,0.09515
536.11429,0.11752
538.04276,0.14586
539.97122,0.15052
541.89969,0.13893
543.82816,0.11905
545.75663,0.10887
547.68510,0.12534
549.61357,0.13354
551.54204,0.06061
553.47051,-0.02722
555.39897,0.01200
557.32744,0.11059
559.25591,0.13124
561.18438,0.11918
563.11285,0.13148
565.04132,0.13639
566.96979,0.12799
568.89825,0.12179
570.82672,0.11553
572.75519,0.11421
574.68366,0.10978
576.61213,0.09142
578.54060,0.07684
580.46907,0.07318
582.39754,0.08194
584.32600,0.10807
586.25447,0.13626
588.18294,0.15378
590.11141,0.15840
592.03988,0.15129
593.96835,0.14452
595.89682,0.13822
597.82528,0.12288
599.75375,0.10409
601.68222,0.10555
603.61069,0.12499
605.53916,0.12639
607.46763,0.10572
609.39610,0.08373
611.32456,0.07564
613.25303,0.08715
615.18150,0.10260
617.10997,0.10517
619.03844,0.10092
620.96691,0.10173
622.89538,0.10089
624.82385,0.09534
626.75231,0.09422
628.68078,0.09845
630.60925,0.10935
632.53772,0.11968
634.46619,0.11634
636.39466,0.11560
638.32313,0.12695
640.25159,0.13280
642.18006,0.12615
644.10853,0.11210
646.03700,0.10496
647.96547,0.11442
649.89394,0.11655
651.82241,0.10786
653.75088,0.10980
655.67934,0.11759
657.60781,0.13145
659.53628,0.14400
661.46475,0.13484
663.39322,0.12303
665.32169,0.13130
667.25016,0.14981
669.17862,0.13042
671.10709,0.08494
673.03556,0.07510
674.96403,0.10138
676.89250,0.12773
678.82097,0.13656
680.74944,0.13905
682.67791,0.14190
684.60637,0.14434
686.53484,0.14426
688.46331,0.14837
690.39178,0.15617
692.32025,0.15288
694.24872,0.14565
696.17719,0.14588
698.10565,0.14539
700.03412,0.14709
701.96259,0.14794
703.89106,0.13120
705.81953,0.11544
707.74800,0.12334
709.67647,0.13267
711.60494,0.13134
713.53340,0.13786
715.46187,0.14708
717.39034,0.13979
719.31881,0.12797
721.24728,0.12809
723.17575,0.13157
725.10422,0.13198
727.03268,0.13210
728.96115,0.12861
730.88962,0.11976
732.81809,0.11818
734.74656,0.12704
736.67503,0.13198
738.60350,0.13318
740.53197,0.13190
742.46043,0.12667
744.38890,0.12676
746.31737,0.13136
748.24584,0.13913
750.17431,0.15471
752.10278,0.16427
754.03125,0.15889
755.95971,0.15433
757.88818,0.15205
759.81665,0.14228
761.74512,0.13347
763.67359,0.12930
765.60206,0.12159
767.53053,0.11252
769.45900,0.11048
771.38746,0.11746
773.31593,0.12929
775.24440,0.13355
777.17287,0.12306
779.10134,0.11850
781.02981,0.13169
782.95828,0.14340
784.88674,0.14775
786.81521,0.14828
788.74368,0.13608
790.67215,0.11910
792.60062,0.11379
794.52909,0.11528
796.45756,0.11832
798.38602,0.12899
800.31449,0.13962
802.24296,0.13907
804.17143,0.13409
806.09990,0.13199
808.02837,0.12767
809.95684,0.11821
811.88531,0.11244
813.81377,0.11827
815.74224,0.12983
817.67071,0.13660
819.59918,0.13869
821.52765,0.14224
823.45612,0.14282
825.38459,0.13590
827.31305,0.12779
829.24152,0.11777
831.16999,0.11275
833.09846,0.12561
835.02693,0.13978
836.95540,0.13731
838.88387,0.13016
840.81234,0.12771
842.74080,0.12706
844.66927,0.13259
846.59774,0.14128
848.52621,0.14152
850.45468,0.13790
852.38315,0.14122
854.31162,0.14650
856.24008,0.14398
858.16855,0.14193
860.09702,0.14583
862.02549,0.14583
863.95396,0.14504
865.88243,0.15183
867.81090,0.14948
869.73937,0.12749
871.66783,0.11422
873.59630,0.12426
875.52477,0.14227
877.45324,0.15505
879.38171,0.15537
881.31018,0.15121
883.23865,0.14736
885.16711,0.13685
887.09558,0.12673
889.02405,0.12761
890.95252,0.13510
892.88099,0.13902
894.80946,0.13591
896.73793,0.13201
898.66640,0.13433
900.59486,0.13934
902.52333,0.14310
904.45180,0.14721
906.38027,0.15012
908.30874,0.15285
910.23721,0.15560
912.16568,0.15412
914.09414,0.14880
916.02261,0.14279
917.95108,0.13892
919.87955,0.13712
921.80802,0.13653
923.73649,0.13890
925.66496,0.14038
927.59343,0.13938
929.52189,0.14201
931.45036,0.14567
933.37883,0.14612
935.30730,0.14531
937.23577,0.14473
939.16424,0.14638
941.09271,0.14806
943.02117,0.14537
944.94964,0.13895
946.87811,0.13380
948.80658,0.13494
950.73505,0.14274
952.66352,0.15442
954.59199,0.16412
956.52045,0.16547
958.44892,0.15965
960.37739,0.15437
962.30586,0.15228
964.23433,0.15032
966.16280,0.14810
968.09127,0.14755
970.01974,0.14847
971.94820,0.14937
973.87667,0.15169
975.80514,0.15496
977.73361,0.15489
979.66208,0.15289
981.59055,0.15299
983.51902,0.15229
985.44748,0.15193
987.37595,0.15631
989.30442,0.15915
991.23289,0.15890
993.16136,0.15985
995.08983,0.15725
997.01830,0.15134
998.94677,0.15036
1000.87523,0.15446
1002.80370,0.15484
1004.73217,0.15067
1006.66064,0.14857
1008.58911,0.14806
1010.51758,0.15080
1012.44605,0.15635
1014.37451,0.15760
1016.30298,0.15658
1018.23145,0.15731
1020.15992,0.16189
1022.08839,0.16967
1024.01686,0.17119
1025.94533,0.16399
1027.87380,0.15679
1029.80226,0.15429
1031.73073,0.15371
1033.65920,0.15369
1035.58767,0.15745
1037.51614,0.16088
1039.44461,0.15313
1041.37308,0.14129
1043.30154,0.13972
1045.23001,0.14590
1047.15848,0.15399
1049.08695,0.16008
1051.01542,0.16076
1052.94389,0.15780
1054.87236,0.15426
1056.80083,0.14992
1058.72929,0.14777
1060.65776,0.15652
1062.58623,0.17130
1064.51470,0.17711
1066.44317,0.17200
1068.37164,0.16614
1070.30011,0.16464
1072.22857,0.16534
1074.15704,0.16882
1076.08551,0.17536
1078.01398,0.17801
1079.94245,0.17026
1081.87092,0.15818
1083.79939,0.15221
1085.72786,0.15171
1087.65632,0.14937
1089.58479,0.14338
1091.51326,0.13741
1093.44173,0.13442
1095.37020,0.13682
1097.29867,0.14713
1099.22714,0.16287
1101.15560,0.17291
1103.08407,0.16780
1105.01254,0.15874
1106.94101,0.16136
1108.86948,0.16664
1110.79795,0.16498
1112.72642,0.16425
1114.65489,0.16578
1116.58335,0.16852
1118.51182,0.17086
1120.44029,0.16517
1122.36876,0.15875
1124.29723,0.16215
1126.22570,0.16878
1128.15417,0.16937
1130.08263,0.16377
1132.01110,0.15828
1133.93957,0.15633
1135.86804,0.15318
1137.79651,0.14590
1139.72498,0.14198
1141.65345,0.14877
1143.58191,0.16038
1145.51038,0.16501
1147.43885,0.16132
1149.36732,0.15585
1151.29579,0.15360
1153.22426,0.15667
1155.15273,0.16007
1157.08120,0.15980
1159.00966,0.15840
1160.93813,0.15608
1162.86660,0.15380
1164.79507,0.15214
1166.72354,0.15215
1168.65201,0.15657
1170.58048,0.16279
1172.50894,0.16643
1174.43741,0.16488
1176.36588,0.16117
1178.29435,0.15931
1180.22282,0.15854
1182.15129,0.15938
1184.07976,0.16121
1186.00823,0.16147
1187.93669,0.16250
1189.86516,0.16700
1191.79363,0.17016
1193.72210,0.16862
1195.65057,0.16496
1197.57904,0.16180
1199.50751,0.16064
1201.43597,0.15955
1203.36444,0.15655
1205.29291,0.15543
1207.22138,0.15923
1209.14985,0.16232
1211.07832,0.16019
1213.00679,0.15842
1214.93526,0.16152
1216.86372,0.16421
1218.79219,0.16118
1220.72066,0.15778
1222.64913,0.15975
1224.57760,0.16257
1226.50607,0.15996
1228.43454,0.15394
1230.36300,0.15449
1232.29147,0.16283
1234.21994,0.16663
1236.14841,0.16365
1238.07688,0.16133
1240.00535,0.15944
1241.93382,0.15672
1243.86229,0.15447
1245.79075,0.15153
1247.71922,0.14974
1249.64769,0.15128
1251.57616,0.15178
1253.50463,0.15100
1255.43310,0.15291
1257.36157,0.15180
1259.29003,0.14449
1261.21850,0.14191
1263.14697,0.14652
1265.07544,0.14691
1267.00391,0.14159
1268.93238,0.14114
1270.86085,0.15068
1272.78932,0.16006
1274.71778,0.15800
1276.64625,0.15326
1278.57472,0.15581
1280.50319,0.15494
1282.43166,0.14855
1284.36013,0.14934
1286.28860,0.15195
1288.21706,0.15068
1290.14553,0.15207
1292.07400,0.15276
1294.00247,0.15067
1295.93094,0.14859
1297.85941,0.14423
1299.78788,0.13381
1301.71634,0.11119
1303.64481,0.08638
1305.57328,0.09201
1307.50175,0.12948
1309.43022,0.15805
1311.35869,0.16394
1313.28716,0.16556
1315.21563,0.16803
1317.14409,0.16879
1319.07256,0.16505
1321.00103,0.15751
1322.92950,0.15542
1324.85797,0.15397
1326.78644,0.15010
1328.71491,0.15149
1330.64337,0.14895
1332.57184,0.14410
1334.50031,0.14771
1336.42878,0.14924
1338.35725,0.14521
1340.28572,0.13544
1342.21419,0.11628
1344.14266,0.09602
1346.07112,0.08549
1347.99959,0.10236
1349.92806,0.13725
1351.85653,0.15212
1353.78500,0.14689
1355.71347,0.14715
1357.64194,0.15559
1359.57040,0.16132
1361.49887,0.16218
1363.42734,0.16304
1365.35581,0.16390
1367.28428,0.16361
1369.21275,0.16469
1371.14122,0.16799
1373.06969,0.17170
1374.99815,0.17442
1376.92662,0.17586
1378.85509,0.17541
1380.78356,0.17323
1382.71203,0.17288
1384.64050,0.17551
1386.56897,0.17738
1388.49743,0.17858
1390.42590,0.18102
1392.35437,0.18358
1394.28284,0.18633
1396.21131,0.18786
1398.13978,0.18427
1400.06825,0.17626
1401.99672,0.17378
1403.92518,0.17956
1405.85365,0.18345
1407.78212,0.18155
1409.71059,0.18098
1411.63906,0.18412
1413.56753,0.18720
1415.49600,0.18926
1417.42446,0.19235
1419.35293,0.18937
1421.28140,0.18129
1423.20987,0.17881
1425.13834,0.17972
1427.06681,0.18386
1428.99528,0.19136
1430.92375,0.19339
1432.85221,0.18947
1434.78068,0.18865
1436.70915,0.19022
1438.63762,0.18839
1440.56609,0.18668
1442.49456,0.18592
1444.42303,0.18542
1446.35149,0.18637
1448.27996,0.18504
1450.20843,0.18286
1452.13690,0.18794
1454.06537,0.20003
1455.99384,0.21263
1457.92231,0.20856
1459.85077,0.19521
1461.77924,0.19096
1463.70771,0.19099
1465.63618,0.18938
1467.56465,0.18655
1469.49312,0.18778
1471.42159,0.19675
1473.35006,0.20720
1475.27852,0.20523
1477.20699,0.19746
1479.13546,0.19277
1481.06393,0.19090
1482.99240,0.18880
1484.92087,0.19041
1486.84934,0.19994
1488.77780,0.20828
1490.70627,0.20227
1492.63474,0.19373
1494.56321,0.19435
1496.49168,0.20497
1498.42015,0.21102
1500.34862,0.20333
1502.27709,0.19791
1504.20555,0.20300
1506.13402,0.21951
1508.06249,0.22527
1509.99096,0.20939
1511.91943,0.19764
1513.84790,0.19765
1515.77637,0.20551
1517.70483,0.21043
1519.63330,0.21111
1521.56177,0.21134
1523.49024,0.20707
1525.41871,0.20396
1527.34718,0.20181
1529.27565,0.19785
1531.20412,0.19730
1533.13258,0.19910
1535.06105,0.19894
1536.98952,0.20514
1538.91799,0.22547
1540.84646,0.24155
1542.77493,0.22576
1544.70340,0.20851
1546.63186,0.20185
1548.56033,0.20145
1550.48880,0.19930
1552.41727,0.19612
1554.34574,0.20117
1556.27421,0.21855
1558.20268,0.24439
1560.13115,0.23399
1562.05961,0.20618
1563.98808,0.19385
1565.91655,0.19392
1567.84502,0.20072
1569.77349,0.20338
1571.70196,0.19659
1573.63043,0.19306
1575.55889,0.19498
1577.48736,0.19296
1579.41583,0.18780
1581.34430,0.18457
1583.27277,0.18314
1585.20124,0.18326
1587.12971,0.18467
1589.05818,0.18330
1590.98664,0.17774
1592.91511,0.17386
1594.84358,0.17319
1596.77205,0.17274
1598.70052,0.17230
1600.62899,0.17424
1602.55746,0.17954
1604.48592,0.18367
1606.41439,0.18378
1608.34286,0.18244
1610.27133,0.18133
1612.19980,0.18223
1614.12827,0.18800
1616.05674,0.19613
1617.98521,0.19688
1619.91367,0.19521
1621.84214,0.19684
1623.77061,0.19761
1625.69908,0.19640
1627.62755,0.19421
1629.55602,0.19129
1631.48449,0.19003
1633.41295,0.19415
1635.34142,0.20457
1637.26989,0.20460
1639.19836,0.19716
1641.12683,0.19320
1643.05530,0.19360
1644.98377,0.20547
1646.91223,0.22538
1648.84070,0.22526
1650.76917,0.21977
1652.69764,0.22268
1654.62611,0.21310
1656.55458,0.19912
1658.48305,0.19528
1660.41152,0.20166
1662.33998,0.20998
1664.26845,0.20742
1666.19692,0.20381
1668.12539,0.21220
1670.05386,0.22398
1671.98233,0.21867
1673.91080,0.20698
1675.83926,0.20150
1677.76773,0.20175
1679.69620,0.20408
1681.62467,0.21251
1683.55314,0.22746
1685.48161,0.22474
1687.41008,0.21161
1689.33855,0.20384
1691.26701,0.19806
1693.19548,0.19699
1695.12395,0.20544
1697.05242,0.21805
1698.98089,0.22080
1700.90936,0.20838
1702.83783,0.19868
1704.76629,0.20058
1706.69476,0.20082
1708.62323,0.19278
1710.55170,0.18501
1712.48017,0.18445
1714.40864,0.19575
1716.33711,0.21298
1718.26558,0.21001
1720.19404,0.19401
1722.12251,0.18560
1724.05098,0.18359
1725.97945,0.18598
1727.90792,0.19156
1729.83639,0.19586
1731.76486,0.19742
1733.69332,0.19582
1735.62179,0.19132
1737.55026,0.19235
1739.47873,0.19522
1741.40720,0.19421
1743.33567,0.19306
1745.26414,0.19435
1747.19261,0.19777
1749.12107,0.20024
1751.04954,0.19428
1752.97801,0.18536
1754.90648,0.18421
1756.83495,0.19003
1758.76342,0.19508
1760.69189,0.19592
1762.62035,0.19267
1764.54882,0.18902
1766.47729,0.18829
1768.40576,0.19053
1770.33423,0.19898
1772.26270,0.20773
1774.19117,0.20228
1776.11964,0.19364
1778.04810,0.19076
1779.97657,0.18938
1781.90504,0.18768
1783.83351,0.18918
1785.76198,0.19122
1787.69045,0.19127
1789.61892,0.19555
1791.54738,0.20391
1793.47585,0.20298
1795.40432,0.19574
1797.33279,0.19166
1799.26126,0.19016
1801.18973,0.18943
1803.11820,0.18765
1805.04666,0.18764
1806.97513,0.19172
1808.90360,0.19535
1810.83207,0.19449
1812.76054,0.19093
1814.68901,0.18809
1816.61748,0.19168
1818.54595,0.20365
1820.47441,0.21225
1822.40288,0.20970
1824.33135,0.19926
1826.25982,0.18994
1828.18829,0.18962
1830.11676,0.19252
1832.04523,0.19185
1833.97369,0.18988
1835.90216,0.18788
1837.83063,0.18663
1839.75910,0.18902
1841.68757,0.19523
1843.61604,0.19861
1845.54451,0.19433
1847.47298,0.18998
1849.40144,0.18866
1851.32991,0.18686
1853.25838,0.18390
1855.18685,0.18324
1857.11532,0.18632
1859.04379,0.18985
1860.97226,0.18959
1862.90072,0.18681
1864.82919,0.18739
1866.75766,0.19374
1868.68613,0.19945
1870.61460,0.19485
1872.54307,0.18595
1874.47154,0.18120
1876.40001,0.18075
1878.32847,0.18259
1880.25694,0.18432
1882.18541,0.18458
1884.11388,0.18464
1886.04235,0.18373
1887.97082,0.18151
1889.89929,0.18080
1891.82775,0.18303
1893.75622,0.18570
1895.68469,0.18610
1897.61316,0.18675
1899.54163,0.19060
1901.47010,0.19389
1903.39857,0.19351
1905.32704,0.19130
1907.25550,0.18855
1909.18397,0.18602
1911.11244,0.18562
1913.04091,0.18708
1914.96938,0.18819
1916.89785,0.18842
1918.82632,0.18964
1920.75478,0.19113
1922.68325,0.18895
1924.61172,0.18454
1926.54019,0.18529
1928.46866,0.19003
1930.39713,0.19051
1932.32560,0.18669
1934.25407,0.18332
1936.18253,0.18107
1938.11100,0.18136
1940.03947,0.18533
1941.96794,0.19100
1943.89641,0.19501
1945.82488,0.19445
1947.75335,0.19027
1949.68181,0.18643
1951.61028,0.18486
1953.53875,0.18438
1955.46722,0.18381
1957.39569,0.18304
1959.32416,0.18280
1961.25263,0.18374
1963.18110,0.18545
1965.10956,0.18749
1967.03803,0.18930
1968.96650,0.19100
1970.89497,0.19353
1972.82344,0.19371
1974.75191,0.19119
1976.68038,0.19218
1978.60884,0.19519
1980.53731,0.19404
1982.46578,0.19015
1984.39425,0.18751
1986.32272,0.18725
1988.25119,0.18869
1990.17966,0.19006
1992.10812,0.18989
1994.03659,0.18813
1995.96506,0.18711
1997.89353,0.18904
1999.82200,0.19081
2001.75047,0.18903
2003.67894,0.18751
2005.60741,0.18844
2007.53587,0.18835
2009.46434,0.18759
2011.39281,0.18818
2013.32128,0.18948
2015.24975,0.19051
2017.17822,0.18935
2019.10669,0.18748
2021.03515,0.18679
2022.96362,0.18618
2024.89209,0.18705
2026.82056,0.18738
2028.74903,0.18439
2030.67750,0.18269
2032.60597,0.18433
2034.53444,0.18609
2036.46290,0.18803
2038.39137,0.19018
2040.31984,0.18902
2042.24831,0.18631
2044.17678,0.18697
2046.10525,0.18918
2048.03372,0.18993
2049.96218,0.19017
2051.89065,0.19017
2053.81912,0.18896
2055.74759,0.18795
2057.67606,0.18837
2059.60453,0.18832
2061.53300,0.18697
2063.46147,0.18651
2065.38993,0.18776
2067.31840,0.19008
2069.24687,0.19113
2071.17534,0.18784
2073.10381,0.18366
2075.03228,0.18350
2076.96075,0.18567
2078.88921,0.18664
2080.81768,0.18696
2082.74615,0.18955
2084.67462,0.19328
2086.60309,0.19509
2088.53156,0.19455
2090.46003,0.19216
2092.38850,0.19024
2094.31696,0.18985
2096.24543,0.18933
2098.17390,0.18934
2100.10237,0.18907
2102.03084,0.18713
2103.95931,0.18631
2105.88778,0.18728
2107.81624,0.18862
2109.74471,0.18952
2111.67318,0.18976
2113.60165,0.19030
2115.53012,0.19089
2117.45859,0.19109
2119.38706,0.19092
2121.31553,0.18958
2123.24399,0.18742
2125.17246,0.18616
2127.10093,0.18567
2129.02940,0.18512
2130.95787,0.18677
2132.88634,0.19108
2134.81481,0.19412
2136.74327,0.19422
2138.67174,0.19296
2140.60021,0.19076
2142.52868,0.18845
2144.45715,0.18816
2146.38562,0.18926
2148.31409,0.19045
2150.24255,0.19147
2152.17102,0.19076
2154.09949,0.18949
2156.02796,0.19005
2157.95643,0.19038
2159.88490,0.18963
2161.81337,0.19060
2163.74184,0.19246
2165.67030,0.19102
2167.59877,0.18636
2169.52724,0.18395
2171.45571,0.18631
2173.38418,0.18926
2175.31265,0.19001
2177.24112,0.19004
2179.16958,0.18936
2181.09805,0.18760
2183.02652,0.18750
2184.95499,0.18948
2186.88346,0.18993
2188.81193,0.18832
2190.74040,0.18748
2192.66887,0.18981
2194.59733,0.19368
2196.52580,0.19506
2198.45427,0.19310
2200.38274,0.18884
2202.31121,0.18524
2204.23968,0.18590
2206.16815,0.18933
2208.09661,0.19162
2210.02508,0.19222
2211.95355,0.19176
2213.88202,0.19083
2215.81049,0.18969
2217.73896,0.18715
2219.66743,0.18555
2221.59590,0.18653
2223.52436,0.18698
2225.45283,0.18736
2227.38130,0.18875
2229.30977,0.18890
2231.23824,0.18751
2233.16671,0.18591
2235.09518,0.18511
2237.02364,0.18595
2238.95211,0.18764
2240.88058,0.18894
2242.80905,0.19022
2244.73752,0.19137
2246.66599,0.19137
2248.59446,0.19021
2250.52293,0.18879
2252.45139,0.18796
2254.37986,0.18753
2256.30833,0.18626
2258.23680,0.18540
2260.16527,0.18751
2262.09374,0.19017
2264.02221,0.19079
2265.95067,0.19102
2267.87914,0.19109
2269.80761,0.19010
2271.73608,0.18874
2273.66455,0.18860
2275.59302,0.18996
2277.52149,0.19042
2279.44996,0.18931
2281.37842,0.18855
2283.30689,0.18890
2285.23536,0.18991
2287.16383,0.19144
2289.09230,0.19172
2291.02077,0.18976
2292.94924,0.18594
2294.87770,0.17991
2296.80617,0.17752
2298.73464,0.18209
2300.66311,0.18577
2302.59158,0.18478
2304.52005,0.18398
2306.44852,0.18482
2308.37699,0.18215
2310.30545,0.17591
2312.23392,0.17197
2314.16239,0.17298
2316.09086,0.17650
2318.01933,0.17891
2319.94780,0.18310
2321.87627,0.19138
2323.80473,0.19545
2325.73320,0.18866
2327.66167,0.18014
2329.59014,0.17832
2331.51861,0.17475
2333.44708,0.16996
2335.37555,0.17767
2337.30401,0.18943
2339.23248,0.18710
2341.16095,0.18085
2343.08942,0.18635
2345.01789,0.19446
2346.94636,0.19135
2348.87483,0.18245
2350.80330,0.17644
2352.73176,0.17375
2354.66023,0.16877
2356.58870,0.16011
2358.51717,0.15235
2360.44564,0.14730
2362.37411,0.14852
2364.30258,0.16141
2366.23104,0.17736
2368.15951,0.18193
2370.08798,0.17799
2372.01645,0.17434
2373.94492,0.17259
2375.87339,0.17439
2377.80186,0.17964
2379.73033,0.18444
2381.65879,0.18583
2383.58726,0.18578
2385.51573,0.18696
2387.44420,0.18819
2389.37267,0.18758
2391.30114,0.18499
2393.22961,0.18268
2395.15807,0.18204
2397.08654,0.18226
2399.01501,0.18431
2400.94348,0.18733
2402.87195,0.18845
2404.80042,0.18895
2406.72889,0.19116
2408.65736,0.19271
2410.58582,0.19093
2412.51429,0.18805
2414.44276,0.18677
2416.37123,0.18637
2418.29970,0.18617
2420.22817,0.18712
2422.15664,0.18874
2424.08510,0.18977
2426.01357,0.18962
2427.94204,0.18746
2429.87051,0.18465
2431.79898,0.18510
2433.72745,0.18921
2435.65592,0.19250
2437.58439,0.19247
2439.51285,0.19144
2441.44132,0.19073
2443.36979,0.18982
2445.29826,0.19048
2447.22673,0.19248
2449.15520,0.19331
2451.08367,0.19232
2453.01213,0.18902
2454.94060,0.18591
2456.86907,0.18712
2458.79754,0.19095
2460.72601,0.19305
2462.65448,0.19297
2464.58295,0.19293
2466.51142,0.19388
2468.43988,0.19448
2470.36835,0.19392
2472.29682,0.19353
2474.22529,0.19388
2476.15376,0.19421
2478.08223,0.19355
2480.01070,0.19157
2481.93916,0.18899
2483.86763,0.18769
2485.79610,0.18869
2487.72457,0.18937
2489.65304,0.18835
2491.58151,0.18849
2493.50998,0.19007
2495.43844,0.18984
2497.36691,0.18865
2499.29538,0.19018
2501.22385,0.19256
2503.15232,0.19227
2505.08079,0.19112
2507.00926,0.19105
2508.93773,0.18978
2510.86619,0.18745
2512.79466,0.18796
2514.72313,0.18908
2516.65160,0.18704
2518.58007,0.18540
2520.50854,0.18700
2522.43701,0.18999
2524.36547,0.19118
2526.29394,0.19122
2528.22241,0.19428
2530.15088,0.19699
2532.07935,0.19366
2534.00782,0.18864
2535.93629,0.18742
2537.86476,0.18790
2539.79322,0.18740
2541.72169,0.18676
2543.65016,0.18836
2545.57863,0.19281
2547.50710,0.19543
2549.43557,0.19350
2551.36404,0.19170
2553.29250,0.19234
2555.22097,0.19281
2557.14944,0.19332
2559.07791,0.19453
2561.00638,0.19388
2562.93485,0.19209
2564.86332,0.19268
2566.79179,0.19474
2568.72025,0.19538
2570.64872,0.19440
2572.57719,0.19234
2574.50566,0.19000
2576.43413,0.18933
2578.36260,0.19003
2580.29107,0.19021
2582.21953,0.18972
2584.14800,0.18849
2586.07647,0.18800
2588.00494,0.19007
2589.93341,0.19171
2591.86188,0.19059
2593.79035,0.18917
2595.71882,0.19047
2597.64728,0.19398
2599.57575,0.19460
2601.50422,0.19181
2603.43269,0.19202
2605.36116,0.19647
2607.28963,0.19914
2609.21810,0.19650
2611.14656,0.19299
2613.07503,0.19352
2615.00350,0.19593
2616.93197,0.19655
2618.86044,0.19555
2620.78891,0.19481
2622.71738,0.19474
2624.64585,0.19568
2626.57431,0.19634
2628.50278,0.19419
2630.43125,0.19172
2632.35972,0.19078
2634.28819,0.19068
2636.21666,0.19254
2638.14513,0.19548
2640.07359,0.19744
2642.00206,0.19805
2643.93053,0.19790
2645.85900,0.19597
2647.78747,0.19160
2649.71594,0.18907
2651.64441,0.18961
2653.57288,0.18858
2655.50134,0.18724
2657.42981,0.18885
2659.35828,0.19088
2661.28675,0.19159
2663.21522,0.19111
2665.14369,0.19024
2667.07216,0.18978
2669.00062,0.18916
2670.92909,0.18886
2672.85756,0.18953
2674.78603,0.19042
2676.71450,0.19150
2678.64297,0.19387
2680.57144,0.19672
2682.49990,0.19785
2684.42837,0.19728
2686.35684,0.19680
2688.28531,0.19685
2690.21378,0.19576
2692.14225,0.19331
2694.07072,0.19157
2695.99919,0.19041
2697.92765,0.18934
2699.85612,0.19112
2701.78459,0.19528
2703.71306,0.19805
2705.64153,0.19833
2707.57000,0.19651
2709.49847,0.19338
2711.42693,0.19041
2713.35540,0.19040
2715.28387,0.19342
2717.21234,0.19529
2719.14081,0.19462
2721.06928,0.19597
2722.99775,0.19963
2724.92622,0.19941
2726.85468,0.19823
2728.78315,0.20107
2730.71162,0.20285
2732.64009,0.20150
2734.56856,0.20115
2736.49703,0.20284
2738.42550,0.20397
2740.35396,0.20164
2742.28243,0.19779
2744.21090,0.19813
2746.13937,0.20074
2748.06784,0.20164
2749.99631,0.20351
2751.92478,0.20612
2753.85325,0.20653
2755.78171,0.20622
2757.71018,0.20536
2759.63865,0.20140
2761.56712,0.19670
2763.49559,0.19495
2765.42406,0.19669
2767.35253,0.19956
2769.28099,0.19988
2771.20946,0.19887
2773.13793,0.19805
2775.06640,0.19577
2776.99487,0.19404
2778.92334,0.19661
2780.85181,0.20304
2782.78028,0.20911
2784.70874,0.21173
2786.63721,0.21228
2788.56568,0.21186
2790.49415,0.20834
2792.42262,0.20266
2794.35109,0.19894
2796.27956,0.19960
2798.20802,0.20383
2800.13649,0.20540
2802.06496,0.20178
2803.99343,0.20066
2805.92190,0.20536
2807.85037,0.20844
2809.77884,0.20646
2811.70731,0.20453
2813.63577,0.20495
2815.56424,0.20687
2817.49271,0.20884
2819.42118,0.20741
2821.34965,0.20255
2823.27812,0.19853
2825.20659,0.19791
2827.13505,0.19935
2829.06352,0.20129
2830.99199,0.20248
2832.92046,0.20306
2834.84893,0.20562
2836.77740,0.20887
2838.70587,0.20967
2840.63433,0.20802
2842.56280,0.20596
2844.49127,0.20551
2846.41974,0.20556
2848.34821,0.20509
2850.27668,0.20414
2852.20515,0.20118
2854.13362,0.19830
2856.06208,0.19827
2857.99055,0.19890
2859.91902,0.19987
2861.84749,0.20076
2863.77596,0.19938
2865.70443,0.19788
2867.63290,0.19895
2869.56136,0.20237
2871.48983,0.20388
2873.41830,0.20009
2875.34677,0.19694
2877.27524,0.19969
2879.20371,0.20348
2881.13218,0.20191
2883.06065,0.19480
2884.98911,0.18934
2886.91758,0.19309
2888.84605,0.20167
2890.77452,0.20539
2892.70299,0.20207
2894.63146,0.19496
2896.55993,0.19016
2898.48839,0.19171
2900.41686,0.19633
2902.34533,0.19737
2904.27380,0.19260
2906.20227,0.18891
2908.13074,0.19242
2910.05921,0.19913
2911.98768,0.20357
2913.91614,0.20084
2915.84461,0.18996
2917.77308,0.18268
2919.70155,0.18651
2921.63002,0.19588
2923.55849,0.20033
2925.48696,0.19081
2927.41542,0.17926
2929.34389,0.18375
2931.27236,0.19516
2933.20083,0.19713
2935.12930,0.18581
2937.05777,0.17217
2938.98624,0.17591
2940.91471,0.18944
2942.84317,0.19266
2944.77164,0.18422
2946.70011,0.17032
2948.62858,0.17096
2950.55705,0.19242
2952.48552,0.20955
2954.41399,0.20700
2956.34245,0.18650
2958.27092,0.17025
2960.19939,0.17855
2962.12786,0.19305
2964.05633,0.19594
2965.98480,0.18849
2967.91327,0.17768
2969.84174,0.18164
2971.77020,0.19917
2973.69867,0.20809
2975.62714,0.19837
2977.55561,0.18019
2979.48408,0.17870
2981.41255,0.19597
2983.34102,0.20783
2985.26948,0.20417
2987.19795,0.19039
2989.12642,0.18474
2991.05489,0.19629
2992.98336,0.20718
2994.91183,0.20724
2996.84030,0.19904
2998.76877,0.18960
3000.69723,0.19071
3002.62570,0.19785
3004.55417,0.19820
3006.48264,0.18984
3008.41111,0.17518
3010.33958,0.15228
3012.26805,0.11511
3014.19651,0.06938
3016.12498,0.04546
3018.05345,0.07515
3019.98192,0.14141
3021.91039,0.19173
3023.83886,0.20848
3025.76733,0.20698
3027.69579,0.20149
3029.62426,0.20387
3031.55273,0.21273
3033.48120,0.21662
3035.40967,0.21188
3037.33814,0.20260
3039.26661,0.19898
3041.19508,0.20277
3043.12354,0.20404
3045.05201,0.19763
3046.98048,0.18923
3048.90895,0.19283
3050.83742,0.20646
3052.76589,0.21322
3054.69436,0.20768
3056.62282,0.19662
3058.55129,0.19604
3060.47976,0.20809
3062.40823,0.21241
3064.33670,0.19785
3066.26517,0.17912
3068.19364,0.17936
3070.12211,0.19551
3072.05057,0.20504
3073.97904,0.19522
3075.90751,0.17673
3077.83598,0.17380
3079.76445,0.18757
3081.69292,0.19803
3083.62139,0.19065
3085.54985,0.17767
3087.47832,0.18342
3089.40679,0.19714
3091.33526,0.19561
3093.26373,0.17973
3095.19220,0.17143
3097.12067,0.18490
3099.04914,0.19997
3100.97760,0.19548
3102.90607,0.17792
3104.83454,0.17355
3106.76301,0.18940
3108.69148,0.20089
3110.61995,0.19224
3112.54842,0.17726
3114.47688,0.18134
3116.40535,0.19728
3118.33382,0.19966
3120.26229,0.18878
3122.19076,0.18006
3124.11923,0.18529
3126.04770,0.19822
3127.97617,0.20336
3129.90463,0.19892
3131.83310,0.19804
3133.76157,0.20657
3135.69004,0.21330
3137.61851,0.20742
3139.54698,0.19433
3141.47545,0.19146
3143.40391,0.19841
3145.33238,0.20042
3147.26085,0.19597
3149.18932,0.19524
3151.11779,0.20285
3153.04626,0.21061
3154.97473,0.21204
3156.90320,0.20924
3158.83166,0.20766
3160.76013,0.20691
3162.68860,0.20351
3164.61707,0.20170
3166.54554,0.20353
3168.47401,0.20708
3170.40248,0.21116
3172.33094,0.21175
3174.25941,0.20940
3176.18788,0.21032
3178.11635,0.21330
3180.04482,0.21162
3181.97329,0.20622
3183.90176,0.20401
3185.83022,0.20554
3187.75869,0.20537
3189.68716,0.20491
3191.61563,0.20755
3193.54410,0.20957
3195.47257,0.20978
3197.40104,0.21107
3199.32951,0.21117
3201.25797,0.21013
3203.18644,0.21209
3205.11491,0.21296
3207.04338,0.21127
3208.97185,0.21390
3210.90032,0.21730
3212.82879,0.21358
3214.75725,0.20762
3216.68572,0.20851
3218.61419,0.21315
3220.54266,0.21155
3222.47113,0.20691
3224.39960,0.20681
3226.32807,0.20728
3228.25654,0.20472
3230.18500,0.20265
3232.11347,0.20672
3234.04194,0.21458
3235.97041,0.21539
3237.89888,0.21013
3239.82735,0.20834
3241.75582,0.20828
3243.68428,0.20660
3245.61275,0.20637
3247.54122,0.20619
3249.46969,0.20411
3251.39816,0.20149
3253.32663,0.20017
3255.25510,0.20177
3257.18357,0.20317
3259.11203,0.20255
3261.04050,0.20445
3262.96897,0.20739
3264.89744,0.20504
3266.82591,0.20325
3268.75438,0.20943
3270.68285,0.21628
3272.61131,0.21743
3274.53978,0.21710
3276.46825,0.21769
3278.39672,0.21702
3280.32519,0.21674
3282.25366,0.21739
3284.18213,0.21461
3286.11060,0.21006
3288.03906,0.20909
3289.96753,0.21278
3291.89600,0.21874
3293.82447,0.21985
3295.75294,0.21389
3297.68141,0.20859
3299.60988,0.20852
3301.53834,0.21073
3303.46681,0.21122
3305.39528,0.21051
3307.32375,0.21092
3309.25222,0.21012
3311.18069,0.20594
3313.10916,0.20330
3315.03763,0.20615
3316.96609,0.20966
3318.89456,0.20957
3320.82303,0.20862
3322.75150,0.20905
3324.67997,0.20823
3326.60844,0.20471
3328.53691,0.20178
3330.46537,0.20378
3332.39384,0.20956
3334.32231,0.21150
3336.25078,0.20911
3338.17925,0.20779
3340.10772,0.20481
3342.03619,0.20118
3343.96466,0.20321
3345.89312,0.20681
3347.82159,0.20732
3349.75006,0.20814
3351.67853,0.20994
3353.60700,0.21054
3355.53547,0.21021
3357.46394,0.20887
3359.39240,0.20889
3361.32087,0.21490
3363.24934,0.22208
3365.17781,0.22577
3367.10628,0.23054
3369.03475,0.23168
3370.96322,0.22352
3372.89168,0.21400
3374.82015,0.20878
3376.74862,0.20709
3378.67709,0.20764
3380.60556,0.20665
3382.53403,0.20320
3384.46250,0.20255
3386.39097,0.20498
3388.31943,0.20380
3390.24790,0.20165
3392.17637,0.20849
3394.10484,0.21887
3396.03331,0.22024
3397.96178,0.21532
3399.89025,0.21173
3401.81871,0.20921
3403.74718,0.20500
3405.67565,0.20334
3407.60412,0.20585
3409.53259,0.20413
3411.46106,0.20129
3413.38953,0.20570
3415.31800,0.21072
3417.24646,0.21240
3419.17493,0.21499
3421.10340,0.21496
3423.03187,0.20900
3424.96034,0.20296
3426.88881,0.20129
3428.81728,0.20250
3430.74574,0.20172
3432.67421,0.19838
3434.60268,0.19657
3436.53115,0.19799
3438.45962,0.20147
3440.38809,0.20182
3442.31656,0.19832
3444.24503,0.20029
3446.17349,0.20931
3448.10196,0.21299
3450.03043,0.20592
3451.95890,0.19747
3453.88737,0.19268
3455.81584,0.18786
3457.74431,0.18531
3459.67277,0.18983
3461.60124,0.19434
3463.52971,0.19308
3465.45818,0.18988
3467.38665,0.18561
3469.31512,0.18318
3471.24359,0.18702
3473.17206,0.19174
3475.10052,0.19061
3477.02899,0.18745
3478.95746,0.19102
3480.88593,0.19917
3482.81440,0.20238
3484.74287,0.20093
3486.67134,0.19617
3488.59980,0.18746
3490.52827,0.18224
3492.45674,0.18317
3494.38521,0.18507
3496.31368,0.18714
3498.24215,0.19094
3500.17062,0.19365
3502.09909,0.19144
3504.02755,0.18539
3505.95602,0.18114
3507.88449,0.18033
3509.81296,0.17900
3511.74143,0.17385
3513.66990,0.16757
3515.59837,0.16809
3517.52683,0.17561
3519.45530,0.18080
3521.38377,0.18093
3523.31224,0.17788
3525.24071,0.17609
3527.16918,0.17938
3529.09765,0.17946
3531.02611,0.17284
3532.95458,0.16676
3534.88305,0.16429
3536.81152,0.16346
3538.73999,0.16046
3540.66846,0.15981
3542.59693,0.16774
3544.52540,0.17668
3546.45386,0.17778
3548.38233,0.17589
3550.31080,0.17525
3552.23927,0.17183
3554.16774,0.16716
3556.09621,0.16724
3558.02468,0.16933
3559.95314,0.17115
3561.88161,0.17497
3563.81008,0.17687
3565.73855,0.17305
3567.66702,0.16832
3569.59549,0.16669
3571.52396,0.16828
3573.45243,0.16999
3575.38089,0.16379
3577.30936,0.15096
3579.23783,0.14273
3581.16630,0.14646
3583.09477,0.15977
3585.02324,0.17195
3586.95171,0.17092
3588.88017,0.15902
3590.80864,0.15236
3592.73711,0.15290
3594.66558,0.15635
3596.59405,0.15850
3598.52252,0.15956
3600.45099,0.15902
3602.37946,0.15656
3604.30792,0.15701
3606.23639,0.16064
3608.16486,0.16072
3610.09333,0.15430
3612.02180,0.14968
3613.95027,0.15269
3615.87874,0.16058
3617.80720,0.16734
3619.73567,0.16622
3621.66414,0.15967
3623.59261,0.15638
3625.52108,0.15632
3627.44955,0.15706
3629.37802,0.15325
3631.30649,0.14595
3633.23495,0.14151
3635.16342,0.13817
3637.09189,0.13782
3639.02036,0.14188
3640.94883,0.14521
3642.87730,0.14513
3644.80577,0.14378
3646.73423,0.14380
3648.66270,0.14835
3650.59117,0.15084
3652.51964,0.14792
3654.44811,0.14670
3656.37658,0.14267
3658.30505,0.13406
3660.23352,0.12995
3662.16198,0.13112
3664.09045,0.13458
3666.01892,0.13828
3667.94739,0.13939
3669.87586,0.13388
3671.80433,0.12791
3673.73280,0.13241
3675.66126,0.14545
3677.58973,0.14860
3679.51820,0.13975
3681.44667,0.12995
3683.37514,0.12554
3685.30361,0.12788
3687.23208,0.13252
3689.16055,0.13597
3691.08901,0.13871
3693.01748,0.13693
3694.94595,0.13291
3696.87442,0.13010
3698.80289,0.12821
3700.73136,0.12786
3702.65983,0.12748
3704.58829,0.12760
3706.51676,0.13240
3708.44523,0.13867
3710.37370,0.14009
3712.30217,0.13746
3714.23064,0.13423
3716.15911,0.13229
3718.08757,0.13376
3720.01604,0.13590
3721.94451,0.13402
3723.87298,0.13114
3725.80145,0.13116
3727.72992,0.13320
3729.65839,0.13710
3731.58686,0.14129
3733.51532,0.13924
3735.44379,0.13194
3737.37226,0.13103
3739.30073,0.13345
3741.22920,0.13720
3743.15767,0.14485
3745.08614,0.15038
3747.01460,0.14893
3748.94307,0.15049
3750.87154,0.15174
3752.80001,0.14115
3754.72848,0.13372
3756.65695,0.13291
3758.58542,0.13181
3760.51389,0.13239
3762.44235,0.13597
3764.37082,0.13776
3766.29929,0.13660
3768.22776,0.13352
3770.15623,0.12784
3772.08470,0.12439
3774.01317,0.12454
3775.94163,0.12488
3777.87010,0.12813
3779.79857,0.13321
3781.72704,0.13360
3783.65551,0.12932
3785.58398,0.12314
3787.51245,0.12146
3789.44092,0.12401
3791.36938,0.12476
3793.29785,0.12618
3795.22632,0.13284
3797.15479,0.13835
3799.08326,0.13853
3801.01173,0.13615
3802.94020,0.13213
3804.86866,0.13441
3806.79713,0.13734
3808.72560,0.13072
3810.65407,0.12393
3812.58254,0.12190
3814.51101,0.12324
3816.43948,0.12818
3818.36795,0.13640
3820.29641,0.14602
3822.22488,0.14630
3824.15335,0.13856
3826.08182,0.13093
3828.01029,0.12488
3829.93876,0.12370
3831.86723,0.12681
3833.79569,0.13044
3835.72416,0.13266
3837.65263,0.13812
3839.58110,0.14582
3841.50957,0.14545
3843.43804,0.13614
3845.36651,0.12562
3847.29498,0.12458
3849.22344,0.13247
3851.15191,0.13765
3853.08038,0.12885
3855.00885,0.11747
3856.93732,0.11618
3858.86579,0.11750
3860.79426,0.11827
3862.72272,0.11951
3864.65119,0.12505
3866.57966,0.12907
3868.50813,0.12639
3870.43660,0.12280
3872.36507,0.12420
3874.29354,0.12699
3876.22200,0.12993
3878.15047,0.13375
3880.07894,0.13470
3882.00741,0.13087
3883.93588,0.12853
3885.86435,0.12774
3887.79282,0.12693
3889.72129,0.12631
3891.64975,0.12101
3893.57822,0.11238
3895.50669,0.10834
3897.43516,0.10994
3899.36363,0.11547
3901.29210,0.11955
3903.22057,0.12170
3905.14903,0.12437
3907.07750,0.12533
3909.00597,0.12245
3910.93444,0.11474
3912.86291,0.10805
3914.79138,0.11085
3916.71985,0.11978
3918.64832,0.12140
3920.57678,0.11451
3922.50525,0.10868
3924.43372,0.11027
3926.36219,0.11944
3928.29066,0.12706
3930.21913,0.12622
3932.14760,0.12004
3934.07606,0.11268
3936.00453,0.10484
3937.93300,0.10219
3939.86147,0.10712
3941.78994,0.11372
3943.71841,0.11717
3945.64688,0.11757
3947.57535,0.11576
3949.50381,0.11210
3951.43228,0.11105
3953.36075,0.11195
3955.28922,0.11098
3957.21769,0.11197
3959.14616,0.11430
3961.07463,0.10928
3963.00309,0.09985
3964.93156,0.09756
3966.86003,0.09931
3968.78850,0.09924
3970.71697,0.10030
3972.64544,0.09938
3974.57391,0.09607
3976.50238,0.09728
3978.43084,0.10164
3980.35931,0.10427
3982.28778,0.10628
3984.21625,0.10934
3986.14472,0.11148
3988.07319,0.10905
3990.00166,0.10317
3991.93012,0.10319
3993.85859,0.10993
3995.78706,0.11419
3997.71553,0.11359
3999.64400,0.11056
4001.57247,0.10707
4003.50094,0.10520
4005.42941,0.10567
4007.35787,0.10496
4009.28634,0.10094
4011.21481,0.09995
4013.14328,0.10200
4015.07175,0.09942
4017.00022,0.09736
4018.92869,0.10158
4020.85715,0.10349
4022.78562,0.10166
4024.71409,0.10337
4026.64256,0.10452
4028.57103,0.09741
4030.49950,0.08850
4032.42797,0.08635
4034.35644,0.08680
4036.28490,0.08567
4038.21337,0.08531
4040.14184,0.08768
4042.07031,0.09317
4043.99878,0.09855
4045.92725,0.10144
4047.85572,0.10275
4049.78418,0.10131
4051.71265,0.09802
4053.64112,0.09550
4055.56959,0.09253
4057.49806,0.08884
4059.42653,0.08695
4061.35500,0.08697
4063.28346,0.08805
4065.21193,0.09245
4067.14040,0.09867
4069.06887,0.10035
4070.99734,0.09724
4072.92581,0.09356
4074.85428,0.08962
4076.78275,0.08665
4078.71121,0.08883
4080.63968,0.09398
4082.56815,0.09556
4084.49662,0.09294
4086.42509,0.09164
4088.35356,0.09489
4090.28203,0.09820
4092.21049,0.09891
4094.13896,0.09975
4096.06743,0.09929
4097.99590,0.09631
4099.92437,0.09364
4101.85284,0.09024
4103.78131,0.08600
4105.70978,0.08453
4107.63824,0.08360
4109.56671,0.08160
4111.49518,0.08340
4113.42365,0.08920
4115.35212,0.09533
4117.28059,0.10012
4119.20906,0.09953
4121.13752,0.09271
4123.06599,0.08789
4124.99446,0.08787
4126.92293,0.08640
4128.85140,0.08414
4130.77987,0.08501
4132.70834,0.08580
4134.63681,0.08508
4136.56527,0.08536
4138.49374,0.08571
4140.42221,0.08373
4142.35068,0.08282
4144.27915,0.08683
4146.20762,0.09040
4148.13609,0.08887
4150.06455,0.08483
4151.99302,0.08068
4153.92149,0.07821
4155.84996,0.07853
4157.77843,0.08152
4159.70690,0.08199
4161.63537,0.07613
4163.56384,0.07341
4165.49230,0.07677
4167.42077,0.07587
4169.34924,0.07249
4171.27771,0.07653
4173.20618,0.08398
4175.13465,0.08460
4177.06312,0.07731
4178.99158,0.06830
4180.92005,0.06237
4182.84852,0.06108
4184.77699,0.06534
4186.70546,0.07052
4188.63393,0.07072
4190.56240,0.06951
4192.49087,0.07229
4194.41933,0.07772
4196.34780,0.07955
4198.27627,0.07689
4200.20474,0.07675
4202.13321,0.07855
4204.06168,0.07615
4205.99015,0.07030
4207.91861,0.06575
4209.84708,0.06627
4211.77555,0.06959
4213.70402,0.06961
4215.63249,0.06775
4217.56096,0.06793
4219.48943,0.07065
4221.41789,0.07420
4223.34636,0.07462
4225.27483,0.07467
4227.20330,0.07876
4229.13177,0.08438
4231.06024,0.08839
4232.98871,0.08762
4234.91718,0.08095
4236.84564,0.07088
4238.77411,0.06325
4240.70258,0.06439
4242.63105,0.06947
4244.55952,0.06935
4246.48799,0.06721
4248.41646,0.06857
4250.34492,0.06896
4252.27339,0.06479
4254.20186,0.05879
4256.13033,0.05429
4258.05880,0.05519
4259.98727,0.06114
4261.91574,0.06453
4263.84421,0.06296
4265.77267,0.06367
4267.70114,0.06799
4269.62961,0.06673
4271.55808,0.06142
4273.48655,0.06036
4275.41502,0.05926
4277.34349,0.05537
4279.27195,0.05477
4281.20042,0.05742
4283.12889,0.05952
4285.05736,0.06389
4286.98583,0.06870
4288.91430,0.06973
4290.84277,0.07088
4292.77124,0.06855
4294.69970,0.06125
4296.62817,0.05940
4298.55664,0.06205
4300.48511,0.05973
4302.41358,0.05402
4304.34205,0.05169
4306.27052,0.05181
4308.19898,0.05006
4310.12745,0.04924
4312.05592,0.05367
4313.98439,0.05717
4315.91286,0.05589
4317.84133,0.05667
4319.76980,0.05736
4321.69827,0.05135
4323.62673,0.04499
4325.55520,0.04462
4327.48367,0.04614
4329.41214,0.04548
4331.34061,0.04532
4333.26908,0.05122
4335.19755,0.05877
4337.12601,0.05599
4339.05448,0.04715
4340.98295,0.04589
4342.91142,0.04885
4344.83989,0.04602
4346.76836,0.04083
4348.69683,0.03931
4350.62530,0.04039
4352.55376,0.04444
4354.48223,0.05188
4356.41070,0.05507
4358.33917,0.04663
4360.26764,0.03584
4362.19611,0.03832
4364.12458,0.04782
4366.05304,0.04503
4367.98151,0.03281
4369.90998,0.02884
4371.83845,0.03625
4373.76692,0.04566
4375.69539,0.05291
4377.62386,0.05919
4379.55232,0.05700
4381.48079,0.04419
4383.40926,0.03746
4385.33773,0.03881
4387.26620,0.03661
4389.19467,0.03743
4391.12314,0.04577
4393.05161,0.05058
4394.98007,0.04872
4396.90854,0.04623
4398.83701,0.04262
4400.76548,0.03575
4402.69395,0.03168
4404.62242,0.03208
4406.55089,0.03214
4408.47935,0.03292
4410.40782,0.03397
4412.33629,0.03088
4414.26476,0.02569
4416.19323,0.02454
4418.12170,0.03082
4420.05017,0.04007
4421.97864,0.04487
4423.90710,0.04259
4425.83557,0.03341
4427.76404,0.02472
4429.69251,0.02215
4431.62098,0.02281
4433.54945,0.02867
4435.47792,0.03519
4437.40638,0.03179
4439.33485,0.02282
4441.26332,0.01943
4443.19179,0.02723
4445.12026,0.04081
4447.04873,0.04646
4448.97720,0.04296
4450.90567,0.03946
4452.83413,0.03412
4454.76260,0.02487
4456.69107,0.02191
4458.61954,0.02611
4460.54801,0.02805
4462.47648,0.02849
4464.40495,0.03208
4466.33341,0.03577
4468.26188,0.03154
4470.19035,0.02176
4472.11882,0.01919
4474.04729,0.02219
4475.97576,0.02197
4477.90423,0.01918
4479.83270,0.01650
4481.76116,0.01716
4483.68963,0.02248
4485.61810,0.02921
4487.54657,0.03422
4489.47504,0.03571
4491.40351,0.03546
4493.33198,0.03447
4495.26044,0.02978
4497.18891,0.02364
4499.11738,0.02161
4501.04585,0.02140
4502.97432,0.01890
4504.90279,0.01839
4506.83126,0.01936
4508.75973,0.01519
4510.68819,0.01168
4512.61666,0.01248
4514.54513,0.01011
4516.47360,0.00517
4518.40207,0.00069
4520.33054,-0.00437
4522.25901,-0.00756
4524.18747,-0.00637
4526.11594,0.00014
4528.04441,0.00945
4529.97288,0.01560
4531.90135,0.01798
4533.82982,0.02214
4535.75829,0.02932
4537.68676,0.02991
4539.61522,0.02157
4541.54369,0.01400
4543.47216,0.00713
4545.40063,0.00356
4547.32910,0.01157
4549.25757,0.02002
4551.18604,0.01552
4553.11450,0.00485
4555.04297,0.00128
4556.97144,0.00590
4558.89991,0.00805
4560.82838,0.00649
4562.75685,0.01087
4564.68532,0.01936
4566.61378,0.02102
4568.54225,0.01832
4570.47072,0.02131
4572.39919,0.02545
4574.32766,0.02725
4576.25613,0.02887
4578.18460,0.02160
4580.11307,0.01058
4582.04153,0.01070
4583.97000,0.01204
4585.89847,0.00573
4587.82694,0.00415
4589.75541,0.00910
4591.68388,0.00968
4593.61235,0.00844
4595.54081,0.01261
4597.46928,0.01837
4599.39775,0.02054
4601.32622,0.01998
4603.25469,0.01785
4605.18316,0.01550
4607.11163,0.01043
4609.04010,0.00036
4610.96856,-0.00585
4612.89703,-0.00353
4614.82550,-0.00002
4616.75397,0.00077
4618.68244,0.00429
4620.61091,0.01034
4622.53938,0.01396
4624.46784,0.01665
4626.39631,0.01726
4628.32478,0.01713
4630.25325,0.01818
4632.18172,0.01713
4634.11019,0.01611
4636.03866,0.01524
4637.96713,0.01137
4639.89559,0.00761
4641.82406,0.00824
4643.75253,0.00988
4645.68100,0.00972
4647.60947,0.01388
4649.53794,0.01950
4651.46641,0.01698
4653.39487,0.00950
4655.32334,0.00258
4657.25181,0.00111
4659.18028,0.00751
4661.10875,0.01144
4663.03722,0.00975
4664.96569,0.01040
4666.89416,0.01079
4668.82262,0.00997
4670.75109,0.01664
4672.67956,0.02652
4674.60803,0.02439
4676.53650,0.01430
4678.46497,0.01479
4680.39344,0.02411
4682.32190,0.02744
4684.25037,0.02047
4686.17884,0.00738
4688.10731,-0.00244
4690.03578,-0.00278
4691.96425,0.00328
4693.89272,0.01471
4695.82119,0.02737
4697.74965,0.02462
4699.67812,0.00685
4701.60659,-0.00158
4703.53506,0.00686
4705.46353,0.01695
4707.39200,0.01548
4709.32047,0.00747
4711.24893,0.00503
4713.17740,0.01047
4715.10587,0.01880
4717.03434,0.01779
4718.96281,0.00702
4720.89128,0.00070
4722.81975,-0.00051
4724.74821,0.00176
4726.67668,0.01040
4728.60515,0.01539
4730.53362,0.00961
4732.46209,0.00287
4734.39056,0.00324
4736.31903,0.00269
4738.24750,-0.00469
4740.17596,-0.00898
4742.10443,-0.00453
4744.03290,0.00464
4745.96137,0.01479
4747.88984,0.01934
4749.81831,0.01400
4751.74678,0.00749
4753.67524,0.01225
4755.60371,0.02082
4757.53218,0.01730
4759.46065,0.00467
4761.38912,-0.00454
4763.31759,-0.00035
4765.24606,0.01469
4767.17453,0.02104
4769.10299,0.00920
4771.03146,-0.00250
4772.95993,-0.00076
4774.88840,0.00324
4776.81687,0.00622
4778.74534,0.01299
4780.67381,0.01549
4782.60227,0.01150
4784.53074,0.01182
4786.45921,0.01385
4788.38768,0.00556
4790.31615,-0.00590
4792.24462,-0.00676
4794.17309,0.00099
4796.10156,0.00574
4798.03002,0.00559
4799.95849,0.00904
4801.88696,0.01098
4803.81543,0.00656
4805.74390,0.00429
4807.67237,0.00459
4809.60084,0.00091
4811.52930,-0.00480
4813.45777,-0.00240
4815.38624,0.01006
4817.31471,0.02154
4819.24318,0.01966
4821.17165,0.00666
4823.10012,0.00213
4825.02859,0.01128
4826.95705,0.01893
4828.88552,0.02152
4830.81399,0.02213
4832.74246,0.01831
4834.67093,0.01710
4836.59940,0.01831
4838.52787,0.01236
4840.45633,0.00370
4842.38480,-0.00337
4844.31327,-0.00818
4846.24174,-0.00733
4848.17021,-0.00229
4850.09868,0.00491
4852.02715,0.01308
4853.95562,0.01366
4855.88408,0.00765
4857.81255,0.00966
4859.74102,0.01906
4861.66949,0.02242
4863.59796,0.01412
4865.52643,0.00211
4867.45490,-0.00009
4869.38336,0.00795
4871.31183,0.01328
4873.24030,0.01359
4875.16877,0.01585
4877.09724,0.01317
4879.02571,0.00360
4880.95418,0.00096
4882.88265,0.00861
4884.81111,0.01635
4886.73958,0.01728
4888.66805,0.01477
4890.59652,0.01389
4892.52499,0.01782
4894.45346,0.02622
4896.38193,0.03494
4898.31039,0.03876
4900.23886,0.03501
4902.16733,0.02938
4904.09580,0.02497
4906.02427,0.01798
4907.95274,0.00978
4909.88121,0.00514
4911.80967,0.00282
4913.73814,-0.00188
4915.66661,-0.00687
4917.59508,-0.00430
4919.52355,0.00172
4921.45202,0.00397
4923.38049,0.00908
4925.30896,0.01080
4927.23742,-0.00064
4929.16589,-0.01102
4931.09436,-0.01395
4933.02283,-0.01322
4934.95130,-0.00502
4936.87977,0.00358
4938.80824,0.00186
4940.73670,-0.00444
4942.66517,-0.00653
4944.59364,-0.00546
4946.52211,-0.00526
4948.45058,-0.00354
4950.37905,0.00194
4952.30752,0.01110
4954.23599,0.02113
4956.16445,0.02370
4958.09292,0.01939
4960.02139,0.01303
4961.94986,0.00859
4963.87833,0.01302
4965.80680,0.01724
4967.73527,0.01648
4969.66373,0.02444
4971.59220,0.03396
4973.52067,0.03074
4975.44914,0.02675
4977.37761,0.02814
4979.30608,0.02658
4981.23455,0.02592
4983.16302,0.02430
4985.09148,0.01648
4987.01995,0.00607
4988.94842,-0.00773
4990.87689,-0.00766
4992.80536,0.02008
4994.73383,0.04769
4996.66230,0.05257
4998.59076,0.03986
5000.51923,0.01941
5002.44770,0.00636
5004.37617,0.00729
5006.30464,0.01023
5008.23311,0.01410
5010.16158,0.01901
5012.09005,0.01844
5014.01851,0.02334
5015.94698,0.03487
5017.87545,0.03964
5019.80392,0.04341
5021.73239,0.05215
5023.66086,0.05149
5025.58933,0.03184
5027.51779,0.00833
5029.44626,0.00244
5031.37473,0.01565
5033.30320,0.03167
5035.23167,0.03511
5037.16014,0.02220
5039.08861,0.00864
5041.01708,0.00766
5042.94554,0.00928
5044.87401,0.01398
5046.80248,0.02079
5048.73095,0.01740
5050.65942,0.01464
5052.58789,0.01886
5054.51636,0.01778
5056.44482,0.01200
5058.37329,0.00643
5060.30176,-0.00056
5062.23023,-0.00405
5064.15870,0.00624
5066.08717,0.02697
5068.01564,0.03530
5069.94410,0.03307
5071.87257,0.04308
5073.80104,0.05280
5075.72951,0.04578
5077.65798,0.03085
5079.58645,0.01898
5081.51492,0.01726
5083.44339,0.01934
5085.37185,0.01947
5087.30032,0.02551
5089.22879,0.03327
5091.15726,0.02626
5093.08573,0.01056
5095.01420,-0.00266
5096.94267,-0.01138
5098.87113,0.00195
5100.79960,0.02930
5102.72807,0.03526
5104.65654,0.02055
5106.58501,0.00381
5108.51348,-0.01067
5110.44195,-0.01143
5112.37042,0.01445
5114.29888,0.04269
5116.22735,0.04467
5118.15582,0.02902
5120.08429,0.01673
5122.01276,0.02008
5123.94123,0.03511
5125.86970,0.04649
5127.79816,0.04422
5129.72663,0.03673
5131.65510,0.03470
5133.58357,0.03673
5135.51204,0.04087
5137.44051,0.03950
5139.36898,0.02967
5141.29745,0.02401
5143.22591,0.03496
5145.15438,0.04974
5147.08285,0.03709
5149.01132,0.01235
5150.93979,0.01202
5152.86826,0.02045
5154.79673,0.01004
5156.72519,-0.00600
5158.65366,-0.00148
5160.58213,0.01608
5162.51060,0.02289
5164.43907,0.02400
5166.36754,0.03201
5168.29601,0.03675
5170.22448,0.04232
5172.15294,0.05278
5174.08141,0.05394
5176.00988,0.04404
5177.93835,0.03383
5179.86682,0.03521
5181.79529,0.03710
5183.72376,0.03294
5185.65222,0.04098
5187.58069,0.04774
5189.50916,0.03741
5191.43763,0.03317
5193.36610,0.03899
5195.29457,0.03976
5197.22304,0.03683
5199.15151,0.02172
5201.07997,0.00411
5203.00844,0.01207
5204.93691,0.03505
5206.86538,0.05563
5208.79385,0.07095
5210.72232,0.06818
5212.65079,0.05529
5214.57925,0.05666
5216.50772,0.06052
5218.43619,0.04477
5220.36466,0.02040
5222.29313,0.00817
5224.22160,0.01916
5226.15007,0.03392
5228.07854,0.03396
5230.00700,0.04068
5231.93547,0.05051
5233.86394,0.05017
5235.79241,0.05176
5237.72088,0.05000
5239.64935,0.03368
5241.57782,0.01900
5243.50628,0.01883
5245.43475,0.03083
5247.36322,0.05109
5249.29169,0.05670
5251.22016,0.04747
5253.14863,0.05257
5255.07710,0.05467
5257.00556,0.04237
5258.93403,0.03908
5260.86250,0.04221
5262.79097,0.04313
5264.71944,0.03970
5266.64791,0.03306
5268.57638,0.03189
5270.50485,0.02974
5272.43331,0.02731
5274.36178,0.03909
5276.29025,0.05497
5278.21872,0.05569
5280.14719,0.04753
5282.07566,0.04309
5284.00413,0.04022
5285.93259,0.04289
5287.86106,0.05652
5289.78953,0.06668
5291.71800,0.05954
5293.64647,0.05426
5295.57494,0.07006
5297.50341,0.08475
5299.43188,0.07972
5301.36034,0.06410
5303.28881,0.04219
5305.21728,0.03153
5307.14575,0.04279
5309.07422,0.05208
5311.00269,0.04767
5312.93116,0.03879
5314.85962,0.02984
5316.78809,0.02394
5318.71656,0.01901
5320.64503,0.01718
5322.57350,0.04085
5324.50197,0.07906
5326.43044,0.09146
5328.35891,0.08247
5330.28737,0.06821
5332.21584,0.04922
5334.14431,0.03757
5336.07278,0.04263
5338.00125,0.06231
5339.92972,0.07712
5341.85819,0.06963
5343.78665,0.05180
5345.71512,0.05234
5347.64359,0.06067
5349.57206,0.04965
5351.50053,0.03443
5353.42900,0.02836
5355.35747,0.02116
5357.28594,0.01469
5359.21440,0.01482
5361.14287,0.02070
5363.07134,0.02998
5364.99981,0.04186
5366.92828,0.05571
5368.85675,0.06457
5370.78522,0.06130
5372.71368,0.05393
5374.64215,0.06065
5376.57062,0.08171
5378.49909,0.09291
5380.42756,0.08739
5382.35603,0.07154
5384.28450,0.05579
5386.21297,0.05949
5388.14143,0.07225
5390.06990,0.07642
5391.99837,0.08145
5393.92684,0.08132
5395.85531,0.05882
5397.78378,0.03441
5399.71225,0.04036
5401.64071,0.07199
5403.56918,0.09714
5405.49765,0.10308
5407.42612,0.09690
5409.35459,0.08757
5411.28306,0.08106
5413.21153,0.07136
5415.13999,0.04691
5417.06846,0.01628
5418.99693,0.01278
5420.92540,0.04780
5422.85387,0.08452
5424.78234,0.08816
5426.71081,0.07060
5428.63928,0.06673
5430.56774,0.07339
5432.49621,0.07239
5434.42468,0.06854
5436.35315,0.06472
5438.28162,0.06779
5440.21009,0.08499
5442.13856,0.10615
5444.06702,0.11187
5445.99549,0.09931
5447.92396,0.07962
5449.85243,0.06119
5451.78090,0.05156
5453.70937,0.05419
5455.63784,0.05362
5457.56631,0.03141
5459.49477,0.01283
5461.42324,0.03181
5463.35171,0.05976
5465.28018,0.05485
5467.20865,0.02723
5469.13712,0.00960
5471.06559,0.02451
5472.99405,0.05945
5474.92252,0.08485
5476.85099,0.09603
5478.77946,0.10281
5480.70793,0.09619
5482.63640,0.07628
5484.56487,0.06231
5486.49334,0.06245
5488.42180,0.07080
5490.35027,0.07020
5492.27874,0.05822
5494.20721,0.06065
5496.13568,0.07782
5498.06415,0.08930
5499.99262,0.09135
5501.92108,0.08893
5503.84955,0.06854
5505.77802,0.03660
5507.70649,0.02096
5509.63496,0.01494
5511.56343,0.02026
5513.49190,0.04232
5515.42037,0.05257
5517.34883,0.04582
5519.27730,0.04716
5521.20577,0.06136
5523.13424,0.08456
5525.06271,0.10659
5526.99118,0.09977
5528.91965,0.07879
5530.84811,0.08059
5532.77658,0.09520
5534.70505,0.10085
5536.63352,0.09204
5538.56199,0.06794
5540.49046,0.04642
5542.41893,0.05213
5544.34740,0.07290
5546.27586,0.08675
5548.20433,0.09358
5550.13280,0.09436
5552.06127,0.08599
5553.98974,0.08156
5555.91821,0.10032
5557.84668,0.11971
5559.77514,0.10007
5561.70361,0.06256
5563.63208,0.05978
5565.56055,0.07218
5567.48902,0.06176
5569.41749,0.06211
5571.34596,0.08941
5573.27443,0.09672
5575.20289,0.06408
5577.13136,0.04039
5579.05983,0.04457
5580.98830,0.05397
5582.91677,0.06648
5584.84524,0.08308
5586.77371,0.09014
5588.70217,0.07893
5590.63064,0.06260
5592.55911,0.06595
5594.48758,0.09298
5596.41605,0.11404
5598.34452,0.10160
5600.27299,0.07467
5602.20145,0.06718
5604.12992,0.07766
5606.05839,0.08238
5607.98686,0.07546
5609.91533,0.07505
5611.84380,0.08568
5613.77227,0.09861
5615.70074,0.09515
5617.62920,0.05785
5619.55767,0.03085
5621.48614,0.03943
5623.41461,0.04967
5625.34308,0.07143
5627.27155,0.10519
5629.20002,0.10399
5631.12848,0.06439
5633.05695,0.03467
5634.98542,0.04775
5636.91389,0.07608
5638.84236,0.08670
5640.77083,0.09083
5642.69930,0.09507
5644.62777,0.08726
5646.55623,0.07477
5648.48470,0.07616
5650.41317,0.08992
5652.34164,0.09396
5654.27011,0.08272
5656.19858,0.08037
5658.12705,0.08106
5660.05551,0.06128
5661.98398,0.04707
5663.91245,0.06607
5665.84092,0.09067
5667.76939,0.09972
5669.69786,0.09575
5671.62633,0.08300
5673.55480,0.07558
5675.48326,0.07741
5677.41173,0.08132
5679.34020,0.08204
5681.26867,0.08697
5683.19714,0.09986
5685.12561,0.11100
5687.05408,0.12330
5688.98254,0.12205
5690.91101,0.09926
5692.83948,0.08914
5694.76795,0.10076
5696.69642,0.11143
5698.62489,0.10059
5700.55336,0.06923
5702.48183,0.04513
5704.41029,0.04252
5706.33876,0.03860
5708.26723,0.02141
5710.19570,0.01720
5712.12417,0.04487
5714.05264,0.08993
5715.98111,0.11340
5717.90957,0.10168
5719.83804,0.08446
5721.76651,0.07401
5723.69498,0.07493
5725.62345,0.09500
5727.55192,0.11076
5729.48039,0.10769
5731.40886,0.11007
5733.33732,0.12801
5735.26579,0.13619
5737.19426,0.11343
5739.12273,0.07566
5741.05120,0.05012
5742.97967,0.05204
5744.90814,0.07589
5746.83660,0.09900
5748.76507,0.09093
5750.69354,0.04263
5752.62201,0.00286
5754.55048,-0.00232
5756.47895,0.00908
5758.40742,0.04313
5760.33588,0.08198
5762.26435,0.09856
5764.19282,0.10195
5766.12129,0.10146
5768.04976,0.10774
5769.97823,0.12015
5771.90670,0.12343
5773.83517,0.11100
5775.76363,0.07880
5777.69210,0.04957
5779.62057,0.05911
5781.54904,0.08115
5783.47751,0.08323
5785.40598,0.08088
5787.33445,0.07243
5789.26291,0.04864
5791.19138,0.02802
5793.11985,0.01647
5795.04832,0.00362
5796.97679,0.01889
5798.90526,0.06557
5800.83373,0.08676
5802.76220,0.08844
5804.69066,0.10540
5806.61913,0.11759
5808.54760,0.10373
5810.47607,0.08806
5812.40454,0.10492
5814.33301,0.13203
5816.26148,0.13135
5818.18994,0.10695
5820.11841,0.08595
5822.04688,0.09044
5823.97535,0.10464
5825.90382,0.10198
5827.83229,0.09493
5829.76076,0.10695
5831.68923,0.12324
5833.61769,0.12110
5835.54616,0.10843
5837.47463,0.09834
5839.40310,0.09751
5841.33157,0.10027
5843.26004,0.08236
5845.18851,0.05053
5847.11697,0.03420
5849.04544,0.04434
5850.97391,0.06531
5852.90238,0.06047
5854.83085,0.04370
5856.75932,0.05200
5858.68779,0.05827
5860.61626,0.03891
5862.54472,0.01995
5864.47319,0.02069
5866.40166,0.04190
5868.33013,0.07235
5870.25860,0.09280
5872.18707,0.10241
5874.11554,0.11696
5876.04400,0.13300
5877.97247,0.13926
5879.90094,0.12311
5881.82941,0.07287
5883.75788,0.02328
5885.68635,0.01330
5887.61482,0.04532
5889.54329,0.09800
5891.47175,0.13528
5893.40022,0.13829
5895.32869,0.11083
5897.25716,0.08505
5899.18563,0.09002
5901.11410,0.09988
5903.04257,0.09153
5904.97103,0.07803
5906.89950,0.06755
5908.82797,0.06916
5910.75644,0.09816
5912.68491,0.13450
5914.61338,0.12410
5916.54185,0.08061
5918.47032,0.06723
5920.39878,0.07221
5922.32725,0.05592
5924.25572,0.02636
5926.18419,0.01102
5928.11266,0.01192
5930.04113,0.01086
5931.96960,0.02225
5933.89806,0.06214
5935.82653,0.10175
5937.75500,0.09480
5939.68347,0.05128
5941.61194,0.03335
5943.54041,0.03708
5945.46888,0.01604
5947.39734,-0.00840
5949.32581,-0.01332
5951.25428,-0.00588
5953.18275,0.01931
5955.11122,0.04575
5957.03969,0.05002
5958.96816,0.05651
5960.89663,0.08141
5962.82509,0.08760
5964.75356,0.06624
5966.68203,0.05073
5968.61050,0.05852
5970.53897,0.08154
5972.46744,0.10602
5974.39591,0.12206
5976.32437,0.13928
5978.25284,0.16109
5980.18131,0.15705
5982.10978,0.12369
5984.03825,0.09464
5985.96672,0.08565
5987.89519,0.08754
5989.82366,0.05633
5991.75212,-0.01293
5993.68059,-0.03885
5995.60906,0.02832
5997.53753,0.11550
5999.46600,0.13424
6001.39447,0.10408
6003.32294,0.07762
6005.25140,0.06446
6007.17987,0.06949
6009.10834,0.09348
6011.03681,0.11065
6012.96528,0.11029
6014.89375,0.11347
6016.82222,0.13307
6018.75069,0.13528
6020.67915,0.10629
6022.60762,0.09761
6024.53609,0.09729
6026.46456,0.07590
6028.39303,0.07073
6030.32150,0.07126
6032.24997,0.05964
6034.17843,0.06582
6036.10690,0.04480
6038.03537,-0.01879
6039.96384,-0.02897
6041.89231,0.02471
6043.82078,0.07389
6045.74925,0.09764
6047.67772,0.10104
6049.60618,0.07627
6051.53465,0.05541
6053.46312,0.09214
6055.39159,0.14377
6057.32006,0.12057
6059.24853,0.05252
6061.17700,0.01199
6063.10546,0.00592
6065.03393,0.01960
6066.96240,0.04577
6068.89087,0.06848
6070.81934,0.08004
6072.74781,0.08599
6074.67628,0.08789
6076.60475,0.08410
6078.53321,0.09371
6080.46168,0.13082
6082.39015,0.16421
6084.31862,0.16606
6086.24709,0.12395
6088.17556,0.07861
6090.10403,0.08850
6092.03249,0.12701
6093.96096,0.15194
6095.88943,0.15899
6097.81790,0.15381
6099.74637,0.12506
6101.67484,0.08698
6103.60331,0.09301
6105.53177,0.12487
6107.46024,0.12085
6109.38871,0.09175
6111.31718,0.07905
6113.24565,0.09115
6115.17412,0.12233
6117.10259,0.14625
6119.03106,0.15142
6120.95952,0.13075
6122.88799,0.06318
6124.81646,0.01403
6126.74493,0.06375
6128.67340,0.14113
6130.60187,0.15268
6132.53034,0.13616
6134.45880,0.12274
6136.38727,0.09743
6138.31574,0.06278
6140.24421,0.04105
6142.17268,0.05160
6144.10115,0.08440
6146.02962,0.09431
6147.95809,0.06020
6149.88655,0.02422
6151.81502,0.03815
6153.74349,0.09275
6155.67196,0.09480
6157.60043,0.00742
6159.52890,-0.06220
6161.45737,-0.03283
6163.38583,0.05668
6165.31430,0.12312
6167.24277,0.11213
6169.17124,0.06732
6171.09971,0.05950
6173.02818,0.06568
6174.95665,0.02215
6176.88512,-0.05084
6178.81358,-0.08254
6180.74205,-0.04839
6182.67052,-0.01192
6184.59899,0.00484
6186.52746,0.07874
6188.45593,0.18800
6190.38440,0.22220
6192.31286,0.18408
6194.24133,0.09886
6196.16980,0.00022
6198.09827,-0.02304
6200.02674,0.03669
6201.95521,0.09023
6203.88368,0.08571
6205.81215,0.04921
6207.74061,0.01952
6209.66908,-0.00342
6211.59755,-0.00722
6213.52602,0.03237
6215.45449,0.07906
6217.38296,0.06899
6219.31143,0.02685
6221.23989,0.03724
6223.16836,0.10601
6225.09683,0.16823
6227.02530,0.19742
6228.95377,0.17107
6230.88224,0.10147
6232.81071,0.05862
6234.73918,0.03706
6236.66764,0.03028
6238.59611,0.05368
6240.52458,0.06092
6242.45305,0.04544
6244.38152,0.09298
6246.30999,0.17873
6248.23846,0.17029
6250.16692,0.11265
6252.09539,0.08928
6254.02386,0.06187
6255.95233,0.05975
6257.88080,0.09805
6259.80927,0.10515
6261.73774,0.07463
6263.66621,0.05814
6265.59467,0.05199
6267.52314,0.04563
6269.45161,0.07759
6271.38008,0.13543
6273.30855,0.16692
6275.23702,0.16009
6277.16549,0.13605
6279.09395,0.09016
6281.02242,0.05591
6282.95089,0.07531
6284.87936,0.11420
6286.80783,0.14194
6288.73630,0.16948
6290.66477,0.18273
6292.59323,0.15046
6294.52170,0.10821
6296.45017,0.10342
6298.37864,0.10527
6300.30711,0.08729
6302.23558,0.08016
6304.16405,0.10572
6306.09252,0.12303
6308.02098,0.09816
6309.94945,0.08715
6311.87792,0.10685
6313.80639,0.08446
6315.73486,0.05830
6317.66333,0.12475
6319.59180,0.19555
6321.52026,0.13109
6323.44873,0.04858
6325.37720,0.06557
6327.30567,0.07284
6329.23414,0.02349
6331.16261,-0.00259
6333.09108,0.03055
6335.01955,0.08448
6336.94801,0.12438
6338.87648,0.14690
6340.80495,0.13486
6342.73342,0.09453
6344.66189,0.09761
6346.59036,0.17329
6348.51883,0.21336
6350.44729,0.13162
6352.37576,-0.00870
6354.30423,-0.09189
6356.23270,-0.10598
6358.16117,-0.09776
6360.08964,-0.06157
6362.01811,0.02231
6363.94658,0.10925
6365.87504,0.16643
6367.80351,0.19997
6369.73198,0.19436
6371.66045,0.15713
6373.58892,0.10421
6375.51739,0.04592
6377.44586,0.04114
6379.37432,0.08302
6381.30279,0.10638
6383.23126,0.10205
6385.15973,0.08488
6387.08820,0.05593
6389.01667,0.02563
6390.94514,0.01764
6392.87361,0.04954
6394.80207,0.08770
6396.73054,0.07304
6398.65901,0.02705
6400.58748,0.01498
6402.51595,0.04092
6404.44442,0.05323
6406.37289,0.03333
6408.30135,0.01532
6410.22982,0.06265
6412.15829,0.16811
6414.08676,0.22523
6416.01523,0.21517
6417.94370,0.17427
6419.87217,0.09368
6421.80064,0.02152
6423.72910,0.02493
6425.65757,0.09718
6427.58604,0.16894
6429.51451,0.20386
6431.44298,0.22361
6433.37145,0.22740
6435.29992,0.18867
6437.22838,0.11426
6439.15685,0.03478
6441.08532,-0.01866
6443.01379,-0.02096
6444.94226,-0.00500
6446.87073,0.00632
6448.79920,0.04938
6450.72766,0.07612
6452.65613,0.03916
6454.58460,0.01720
6456.51307,0.05418
6458.44154,0.08198
6460.37001,0.07198
6462.29848,0.07290
6464.22695,0.09380
6466.15541,0.10796
6468.08388,0.09897
6470.01235,0.07278
6471.94082,0.05862
6473.86929,0.07419
6475.79776,0.13110
6477.72623,0.22493
6479.65469,0.27490
6481.58316,0.22344
6483.51163,0.14605
6485.44010,0.07745
6487.36857,-0.01062
6489.29704,-0.05642
6491.22551,-0.02674
6493.15398,0.00224
6495.08244,-0.00713
6497.01091,0.01512
6498.93938,0.11483
6500.86785,0.19435
6502.79632,0.16446
6504.72479,0.10696
6506.65326,0.09241
6508.58172,0.11192
6510.51019,0.11947
6512.43866,0.10436
6514.36713,0.10650
6516.29560,0.10987
6518.22407,0.06009
6520.15254,-0.00171
6522.08101,0.02657
6524.00947,0.13388
6525.93794,0.19013
6527.86641,0.16699
6529.79488,0.14134
6531.72335,0.10741
6533.65182,0.04356
6535.58029,0.01566
6537.50875,0.05536
6539.43722,0.12905
6541.36569,0.18065
6543.29416,0.13925
6545.22263,0.03281
6547.15110,-0.01968
6549.07957,0.01964
6551.00804,0.07314
6552.93650,0.06729
6554.86497,0.06780
6556.79344,0.12282
6558.72191,0.16066
6560.65038,0.12786
6562.57885,0.04898
6564.50732,-0.04607
6566.43578,-0.11980
6568.36425,-0.11339
6570.29272,-0.03310
6572.22119,0.04350
6574.14966,0.09700
6576.07813,0.15695
6578.00660,0.16061
6579.93507,0.06235
6581.86353,0.00200
6583.79200,0.03604
6585.72047,0.05061
6587.64894,0.04576
6589.57741,0.07121
6591.50588,0.13706
6593.43435,0.18096
6595.36281,0.14829
6597.29128,0.12696
6599.21975,0.14411
6601.14822,0.17265
6603.07669,0.19939
6605.00516,0.18295
6606.93363,0.09390
6608.86210,-0.02789
6610.79056,-0.09456
6612.71903,-0.06871
6614.64750,0.02779
6616.57597,0.14450
6618.50444,0.19394
6620.43291,0.15883
6622.36138,0.10294
6624.28984,0.08117
6626.21831,0.10500
6628.14678,0.15219
6630.07525,0.20109
6632.00372,0.25443
6633.93219,0.28846
6635.86066,0.20679
6637.78912,0.04141
6639.71759,-0.00832
6641.64606,0.09791
6643.57453,0.23080
6645.50300,0.22970
6647.43147,0.11447
6649.35994,0.08319
6651.28841,0.15369
6653.21687,0.18648
6655.14534,0.16478
6657.07381,0.12303
6659.00228,0.01244
6660.93075,-0.09358
6662.85922,-0.12262
6664.78769,-0.10518
6666.71615,-0.02729
6668.64462,0.04943
6670.57309,0.06041
6672.50156,0.08380
6674.43003,0.13198
6676.35850,0.14927
6678.28697,0.15065
6680.21544,0.13161
6682.14390,0.11020
6684.07237,0.13738
6686.00084,0.15548
6687.92931,0.12653
6689.85778,0.12781
6691.78625,0.12824
6693.71472,0.06973
6695.64318,0.01628
6697.57165,0.02718
6699.50012,0.08648
6701.42859,0.14731
6703.35706,0.13763
6705.28553,0.03640
6707.21400,-0.05464
6709.14247,0.00707
6711.07093,0.12336
6712.99940,0.12733
6714.92787,0.05787
6716.85634,0.01020
6718.78481,0.02998
6720.71328,0.08371
6722.64175,0.09894
6724.57021,0.10216
6726.49868,0.10576
6728.42715,0.08847
6730.35562,0.06874
6732.28409,0.03920
6734.21256,0.01451
6736.14103,0.06771
6738.06950,0.13448
6739.99796,0.13608
6741.92643,0.16148
6743.85490,0.19539
6745.78337,0.14993
6747.71184,0.09238
6749.64031,0.07895
6751.56878,0.06469
6753.49724,0.03610
6755.42571,0.04529
6757.35418,0.10777
6759.28265,0.16514
6761.21112,0.16612
6763.13959,0.16803
6765.06806,0.17758
6766.99653,0.09918
6768.92499,-0.00940
6770.85346,-0.00565
6772.78193,0.05201
6774.71040,0.02301
6776.63887,-0.03299
6778.56734,0.03252
6780.49581,0.11447
6782.42427,0.10748
6784.35274,0.10976
6786.28121,0.11240
6788.20968,0.04177
6790.13815,-0.04125
6792.06662,-0.06756
6793.99509,-0.04988
6795.92355,-0.02495
6797.85202,0.01088
6799.78049,0.04205
6801.70896,0.00465
6803.63743,-0.03025
6805.56590,0.06295
6807.49437,0.16502
6809.42284,0.18641
6811.35130,0.18742
6813.27977,0.15396
6815.20824,0.08195
6817.13671,0.05914
6819.06518,0.10576
6820.99365,0.16683
6822.92212,0.16335
6824.85058,0.12313
6826.77905,0.12150
6828.70752,0.11050
6830.63599,0.07271
6832.56446,0.04093
6834.49293,0.01297
6836.42140,0.03488
6838.34987,0.11165
6840.27833,0.14531
6842.20680,0.13612
6844.13527,0.12473
6846.06374,0.08727
6847.99221,-0.00678
6849.92068,-0.07651
6851.84915,-0.02720
6853.77761,0.04659
6855.70608,0.07853
6857.63455,0.08773
6859.56302,0.11526
6861.49149,0.16825
6863.41996,0.17212
6865.34843,0.13934
6867.27690,0.11110
6869.20536,0.05235
6871.13383,-0.02416
6873.06230,-0.06806
6874.99077,-0.05606
6876.91924,-0.02255
6878.84771,-0.00413
6880.77618,0.02703
6882.70464,0.08711
6884.63311,0.13235
6886.56158,0.15740
6888.49005,0.13995
6890.41852,0.07948
6892.34699,0.05230
6894.27546,0.02879
6896.20393,-0.05081
6898.13239,-0.07690
6900.06086,0.03111
6901.98933,0.15573
6903.91780,0.18730
6905.84627,0.10756
6907.77474,0.03556
6909.70321,0.08692
6911.63167,0.18726
6913.56014,0.24214
6915.48861,0.26547
6917.41708,0.19834
6919.34555,-0.00528
6921.27402,-0.12875
6923.20249,-0.06117
6925.13096,0.00156
6927.05942,-0.05477
6928.98789,-0.11841
6930.91636,-0.10103
6932.84483,-0.06444
6934.77330,-0.05252
6936.70177,-0.05629
6938.63024,-0.03778
6940.55870,0.03979
6942.48717,0.07481
6944.41564,0.03461
6946.34411,0.05013
6948.27258,0.11009
6950.20105,0.10526
6952.12952,0.11334
6954.05799,0.20544
6955.98645,0.27540
6957.91492,0.26856
6959.84339,0.21833
6961.77186,0.11715
6963.70033,0.04167
6965.62880,0.04666
6967.55727,0.03981
6969.48573,-0.05276
6971.41420,-0.07372
6973.34267,0.04933
6975.27114,0.09672
6977.19961,0.06684
6979.12808,0.08668
6981.05655,0.12731
6982.98501,0.21552
6984.91348,0.28288
6986.84195,0.18724
6988.77042,0.07859
6990.69889,0.04764
6992.62736,-0.04886
6994.55583,-0.15504
6996.48430,-0.12081
6998.41276,0.02263
7000.34123,0.13959
7002.26970,0.18224
7004.19817,0.15789
7006.12664,0.07810
7008.05511,0.01450
7009.98358,0.01910
7011.91204,0.06107
7013.84051,0.05860
7015.76898,-0.00901
7017.69745,-0.03353
7019.62592,-0.01073
7021.55439,0.02258
7023.48286,0.03334
7025.41133,-0.05932
7027.33979,-0.15493
7029.26826,-0.11930
7031.19673,-0.02129
7033.12520,0.07185
7035.05367,0.10483
7036.98214,0.06814
7038.91061,0.04533
7040.83907,0.05058
7042.76754,0.02717
7044.69601,0.02167
7046.62448,0.08138
7048.55295,0.05658
7050.48142,-0.03115
7052.40989,-0.06804
7054.33836,-0.06417
7056.26682,-0.03272
7058.19529,0.04191
7060.12376,0.15118
7062.05223,0.26711
7063.98070,0.34067
7065.90917,0.28531
7067.83764,0.13352
7069.76610,0.04346
7071.69457,0.10375
7073.62304,0.14811
7075.55151,0.07294
7077.47998,0.00772
7079.40845,0.04676
7081.33692,0.10875
7083.26539,0.10290
7085.19385,0.11045
7087.12232,0.12257
7089.05079,0.06430
7090.97926,0.05934
7092.90773,0.16312
7094.83620,0.19935
7096.76467,0.10587
7098.69313,0.05377
7100.62160,0.10582
7102.55007,0.10469
7104.47854,-0.00965
7106.40701,-0.08411
7108.33548,-0.00677
7110.26395,0.05274
7112.19242,0.06022
7114.12088,0.11281
7116.04935,0.18169
7117.97782,0.17016
7119.90629,0.02049
7121.83476,-0.13409
7123.76323,-0.17669
7125.69170,-0.15931
7127.62016,-0.10244
7129.54863,0.00145
7131.47710,0.01966
7133.40557,-0.03993
7135.33404,0.02869
7137.26251,0.17818
7139.19098,0.21150
7141.11944,0.09792
7143.04791,-0.04362
7144.97638,-0.03691
7146.90485,0.13961
7148.83332,0.23499
7150.76179,0.16765
7152.69026,0.05556
7154.61873,0.01942
7156.54719,0.04406
7158.47566,0.07025
7160.40413,0.07222
7162.33260,0.02930
7164.26107,-0.02211
7166.18954,0.00191
7168.11801,0.17225
7170.04647,0.38137
7171.97494,0.37126
7173.90341,0.24834
7175.83188,0.22027
7177.76035,0.25396
7179.68882,0.28915
7181.61729,0.25043
7183.54576,0.05935
7185.47422,-0.11734
7187.40269,-0.13703
7189.33116,-0.01410
7191.25963,0.14113
7193.18810,0.13065
7195.11657,0.02725
7197.04504,-0.00696
7198.97350,0.03611
7200.90197,0.15390
7202.83044,0.32619
7204.75891,0.33481
7206.68738,0.15467
7208.61585,0.07012
7210.54432,0.02906
7212.47279,-0.02179
7214.40125,-0.06990
7216.32972,-0.10315
7218.25819,-0.08966
7220.18666,-0.07280
7222.11513,-0.07709
7224.04360,-0.09273
7225.97207,-0.07987
7227.90053,-0.06763
7229.82900,-0.03030
7231.75747,0.07994
7233.68594,0.05003
7235.61441,-0.06989
7237.54288,-0.02684
7239.47135,0.15262
7241.39982,0.28434
7243.32828,0.29314
7245.25675,0.16272
7247.18522,0.06272
7249.11369,0.09203
7251.04216,0.15299
7252.97063,0.18913
7254.89910,0.16420
7256.82756,0.08610
7258.75603,0.07612
7260.68450,0.11666
7262.61297,-0.01172
7264.54144,-0.18245
7266.46991,-0.18743
7268.39838,-0.16799
7270.32685,-0.13979
7272.25531,0.02986
7274.18378,0.24582
7276.11225,0.28155
7278.04072,0.16103
7279.96919,0.03014
7281.89766,0.02105
7283.82613,0.05474
7285.75459,-0.00182
7287.68306,-0.00429
7289.61153,0.20961
7291.54000,0.38617
7293.46847,0.35945
7295.39694,0.28314
7297.32541,0.19191
7299.25387,0.07706
7301.18234,-0.00679
7303.11081,-0.07054
7305.03928,-0.21848
7306.96775,-0.32166
7308.89622,-0.15501
7310.82469,0.10924
7312.75316,0.22788
7314.68162,0.10297
7316.61009,-0.19453
7318.53856,-0.27224
7320.46703,-0.09339
7322.39550,0.13567
7324.32397,0.28519
7326.25244,0.34710
7328.18090,0.36459
7330.10937,0.26908
7332.03784,0.14262
7333.96631,0.12918
7335.89478,0.15536
7337.82325,0.06726
7339.75172,-0.23073
7341.68019,-0.35759
7343.60865,-0.13677
7345.53712,0.10183
7347.46559,0.21877
7349.39406,0.29791
7351.32253,0.39448
7353.25100,0.43673
7355.17947,0.37201
7357.10793,0.23390
7359.03640,0.08629
7360.96487,0.02666
7362.89334,0.12399
7364.82181,0.24024
7366.75028,0.22149
7368.67875,0.11733
7370.60722,0.03896
7372.53568,0.00605
7374.46415,-0.05177
7376.39262,-0.13669
7378.32109,-0.03411
7380.24956,0.18630
7382.17803,0.20180
7384.10650,0.04995
7386.03496,0.10176
7387.96343,0.28286
7389.89190,0.29323
7391.82037,0.18339
7393.74884,0.05242
7395.67731,-0.08983
7397.60578,-0.15943
7399.53425,-0.14713
7401.46271,-0.20253
7403.39118,-0.35677
7405.31965,-0.36647
7407.24812,-0.13897
7409.17659,0.05607
7411.10506,0.10557
7413.03353,0.11210
7414.96199,0.07274
7416.89046,-0.05147
7418.81893,-0.18044
7420.74740,-0.13009
7422.67587,0.07235
7424.60434,0.16318
7426.53281,0.13919
7428.46128,0.18368
7430.38974,0.27269
7432.31821,0.19893
7434.24668,0.04479
7436.17515,0.07429
7438.10362,0.21731
7440.03209,0.22046
7441.96056,0.19274
7443.88902,0.21219
7445.81749,0.19943
7447.74596,0.23079
7449.67443,0.26703
7451.60290,0.10584
7453.53137,-0.14159
7455.45984,-0.21614
7457.38831,-0.15663
7459.31677,-0.08663
7461.24524,-0.07465
7463.17371,-0.12520
7465.10218,-0.22946
7467.03065,-0.27504
7468.95912,-0.15030
7470.88759,0.04571
7472.81605,0.07609
7474.74452,0.02890
7476.67299,0.07981
7478.60146,0.10122
7480.52993,0.16102
7482.45840,0.38579
7484.38687,0.41174
7486.31533,0.21177
7488.24380,0.09633
7490.17227,0.12563
7492.10074,0.09814
7494.02921,-0.00751
7495.95768,-0.04780
7497.88615,0.00684
