399.19301,0.36718
401.12148,-0.65725
403.04995,-0.32914
404.97842,-0.02263
406.90689,-0.02977
408.83536,-0.14011
410.76382,-0.19819
412.69229,-0.17467
414.62076,-0.07650
416.54923,-0.01410
418.47770,-0.01010
420.40617,0.03824
422.33464,0.07095
424.26311,0.08435
426.19157,0.11283
428.12004,0.14914
430.04851,0.19868
431.97698,0.22101
433.90545,0.18429
435.83392,0.11910
437.76239,0.09825
439.69085,0.13946
441.61932,0.15296
443.54779,0.06163
445.47626,-0.03377
447.40473,0.00161
449.33320,0.11071
451.26167,0.15743
453.19013,0.12950
455.11860,0.10657
457.04707,0.10412
458.97554,0.05987
460.90401,0.01922
462.83248,0.05141
464.76095,0.12053
466.68942,0.15363
468.61788,0.17315
470.54635,0.28193
472.47482,0.66309
474.40329,0.99154
476.33176,0.62424
478.26023,0.23003
480.18870,0.06633
482.11716,0.03555
484.04563,0.08127
485.97410,0.12787
487.90257,0.11569
489.83104,0.08521
491.75951,0.11630
493.68798,0.16696
495.61645,0.14318
497.54491,0.07736
499.47338,0.03951
501.40185,0.03850
503.33032,0.05128
505.25879,0.04280
507.18726,0.04094
509.11573,0.08469
511.04419,0.12970
512.97266,0.10466
514.90113,0.01345
516.82960,-0.02391
518.75807,0.03322
520.68654,0.08025
522.61501,0.08937
524.54348,0.09274
526.47194,0.11549
528.40041,0.14633
530.32888,0.13811
532.25735,0.10277
534.18582,0.08675
536.11429,0.06907
538.04276,0.04354
539.97122,0.05072
541.89969,0.08106
543.82816,0.10722
545.75663,0.12548
547.68510,0.12836
549.61357,0.17708
551.54204,0.37388
553.47051,0.56354
555.39897,0.47778
557.32744,0.22274
559.25591,0.10701
561.18438,0.12487
563.11285,0.14107
565.04132,0.14903
566.96979,0.16535
568.89825,0.15700
570.82672,0.12444
572.75519,0.10906
574.68366,0.12709
576.61213,0.14404
578.54060,0.12574
580.46907,0.10248
582.39754,0.09015
584.32600,0.07672
586.25447,0.08484
588.18294,0.10638
590.11141,0.12166
592.03988,0.13443
593.96835,0.13068
595.89682,0.11663
597.82528,0.11653
599.75375,0.12730
601.68222,0.13555
603.61069,0.12728
605.53916,0.10511
607.46763,0.09895
609.39610,0.10686
611.32456,0.11275
613.25303,0.12724
615.18150,0.13707
617.10997,0.11761
619.03844,0.10362
620.96691,0.12190
622.89538,0.13913
624.82385,0.14183
626.75231,0.13286
628.68078,0.11709
630.60925,0.12495
632.53772,0.15002
634.46619,0.14538
636.39466,0.11724
638.32313,0.10163
640.25159,0.11023
642.18006,0.13483
644.10853,0.14442
646.03700,0.12811
647.96547,0.11103
649.89394,0.10954
651.82241,0.12174
653.75088,0.13160
655.67934,0.12651
657.60781,0.11774
659.53628,0.12502
661.46475,0.14703
663.39322,0.15811
665.32169,0.16225
667.25016,0.18556
669.17862,0.17580
671.10709,0.11580
673.03556,0.08344
674.96403,0.08116
676.89250,0.09959
678.82097,0.13441
680.74944,0.15136
682.67791,0.13431
684.60637,0.11808
686.53484,0.11589
688.46331,0.11584
690.39178,0.11856
692.32025,0.12152
694.24872,0.12464
696.17719,0.13074
698.10565,0.13306
700.03412,0.13253
701.96259,0.13423
703.89106,0.13483
705.81953,0.13531
707.74800,0.14233
709.67647,0.16217
711.60494,0.18727
713.53340,0.18894
715.46187,0.16292
717.39034,0.14088
719.31881,0.13808
721.24728,0.14634
723.17575,0.15139
725.10422,0.14033
727.03268,0.11808
728.96115,0.10896
730.88962,0.12108
732.81809,0.13591
734.74656,0.14580
736.67503,0.14728
738.60350,0.13192
740.53197,0.11932
742.46043,0.12444
744.38890,0.13393
746.31737,0.14491
748.24584,0.15421
750.17431,0.15046
752.10278,0.13902
754.03125,0.13530
755.95971,0.14526
757.88818,0.15537
759.81665,0.15053
761.74512,0.13812
763.67359,0.13539
765.60206,0.14516
767.53053,0.15475
769.45900,0.14809
771.38746,0.12826
773.31593,0.12094
775.24440,0.13078
777.17287,0.14796
779.10134,0.16377
781.02981,0.15632
782.95828,0.13334
784.88674,0.12711
786.81521,0.13884
788.74368,0.15136
790.67215,0.15836
792.60062,0.16015
794.52909,0.15934
796.45756,0.16107
798.38602,0.16255
800.31449,0.15335
802.24296,0.13200
804.17143,0.11567
806.09990,0.11635
808.02837,0.12725
809.95684,0.13465
811.88531,0.13124
813.81377,0.12776
815.74224,0.13310
817.67071,0.13516
819.59918,0.12920
821.52765,0.13003
823.45612,0.14156
825.38459,0.14836
827.31305,0.14226
829.24152,0.13924
831.16999,0.14692
833.09846,0.14663
835.02693,0.13818
836.95540,0.13615
838.88387,0.13381
840.81234,0.13385
842.74080,0.14830
844.66927,0.16444
846.59774,0.16549
848.52621,0.15503
850.45468,0.14508
852.38315,0.14059
854.31162,0.13646
856.24008,0.13245
858.16855,0.12894
860.09702,0.11852
862.02549,0.10607
863.95396,0.10643
865.88243,0.11986
867.81090,0.13487
869.73937,0.14540
871.66783,0.15374
873.59630,0.15571
875.52477,0.14388
877.45324,0.13202
879.38171,0.13130
881.31018,0.13129
883.23865,0.12942
885.16711,0.13354
887.09558,0.14436
889.02405,0.15447
890.95252,0.15877
892.88099,0.15904
894.80946,0.15813
896.73793,0.15544
898.66640,0.14502
900.59486,0.13045
902.52333,0.12635
904.45180,0.13301
906.38027,0.14111
908.30874,0.14600
910.23721,0.14693
912.16568,0.14774
914.09414,0.14553
916.02261,0.13984
917.95108,0.14175
919.87955,0.15179
921.80802,0.16100
923.73649,0.16634
925.66496,0.16651
927.59343,0.16143
929.52189,0.15653
931.45036,0.15190
933.37883,0.14580
935.30730,0.14122
937.23577,0.13629
939.16424,0.13288
941.09271,0.13354
943.02117,0.13339
944.94964,0.13362
946.87811,0.14232
948.80658,0.15747
950.73505,0.16054
952.66352,0.14782
954.59199,0.14044
956.52045,0.14476
958.44892,0.14773
960.37739,0.14932
962.30586,0.15602
964.23433,0.16155
966.16280,0.16148
968.09127,0.15736
970.01974,0.14906
971.94820,0.14274
973.87667,0.14412
975.80514,0.14684
977.73361,0.14334
979.66208,0.14055
981.59055,0.14788
983.51902,0.15866
985.44748,0.16084
987.37595,0.15570
989.30442,0.15488
991.23289,0.15810
993.16136,0.15588
995.08983,0.14806
997.01830,0.13884
998.94677,0.13325
1000.87523,0.13693
1002.80370,0.14586
1004.73217,0.15148
1006.66064,0.15250
1008.58911,0.15023
1010.51758,0.14720
1012.44605,0.14632
1014.37451,0.14864
1016.30298,0.15599
1018.23145,0.16697
1020.15992,0.17523
1022.08839,0.17109
1024.01686,0.15825
1025.94533,0.14969
1027.87380,0.14160
1029.80226,0.13548
1031.73073,0.14041
1033.65920,0.14674
1035.58767,0.14503
1037.51614,0.14406
1039.44461,0.15293
1041.37308,0.16236
1043.30154,0.16575
1045.23001,0.16830
1047.15848,0.16648
1049.08695,0.15965
1051.01542,0.15570
1052.94389,0.15590
1054.87236,0.15784
1056.80083,0.16074
1058.72929,0.16367
1060.65776,0.16724
1062.58623,0.17206
1064.51470,0.17354
1066.44317,0.16877
1068.37164,0.16327
1070.30011,0.16087
1072.22857,0.16078
1074.15704,0.16586
1076.08551,0.17333
1078.01398,0.17224
1079.94245,0.16469
1081.87092,0.15916
1083.79939,0.15586
1085.72786,0.15988
1087.65632,0.16823
1089.58479,0.16597
1091.51326,0.15808
1093.44173,0.15598
1095.37020,0.15673
1097.29867,0.15661
1099.22714,0.15895
1101.15560,0.16513
1103.08407,0.16897
1105.01254,0.17064
1106.94101,0.17363
1108.86948,0.17356
1110.79795,0.16543
1112.72642,0.15329
1114.65489,0.14797
1116.58335,0.15208
1118.51182,0.16165
1120.44029,0.17060
1122.36876,0.17083
1124.29723,0.16484
1126.22570,0.15980
1128.15417,0.15648
1130.08263,0.15570
1132.01110,0.15774
1133.93957,0.15854
1135.86804,0.15807
1137.79651,0.16038
1139.72498,0.16321
1141.65345,0.16373
1143.58191,0.16166
1145.51038,0.16037
1147.43885,0.16487
1149.36732,0.16688
1151.29579,0.16274
1153.22426,0.16291
1155.15273,0.16881
1157.08120,0.17263
1159.00966,0.17090
1160.93813,0.16533
1162.86660,0.15843
1164.79507,0.15735
1166.72354,0.16262
1168.65201,0.16408
1170.58048,0.16101
1172.50894,0.15973
1174.43741,0.16441
1176.36588,0.17169
1178.29435,0.17126
1180.22282,0.16456
1182.15129,0.16138
1184.07976,0.16175
1186.00823,0.16163
1187.93669,0.16175
1189.86516,0.16343
1191.79363,0.16348
1193.72210,0.16088
1195.65057,0.16022
1197.57904,0.16037
1199.50751,0.15965
1201.43597,0.16182
1203.36444,0.16526
1205.29291,0.16734
1207.22138,0.16755
1209.14985,0.16307
1211.07832,0.15975
1213.00679,0.16528
1214.93526,0.17087
1216.86372,0.16751
1218.79219,0.15975
1220.72066,0.15553
1222.64913,0.15863
1224.57760,0.16518
1226.50607,0.16737
1228.43454,0.16277
1230.36300,0.15860
1232.29147,0.16090
1234.21994,0.16379
1236.14841,0.16306
1238.07688,0.16186
1240.00535,0.15831
1241.93382,0.15282
1243.86229,0.15049
1245.79075,0.14991
1247.71922,0.14978
1249.64769,0.15150
1251.57616,0.15066
1253.50463,0.14691
1255.43310,0.14919
1257.36157,0.15548
1259.29003,0.15583
1261.21850,0.15312
1263.14697,0.15355
1265.07544,0.15400
1267.00391,0.15127
1268.93238,0.14897
1270.86085,0.15104
1272.78932,0.15456
1274.71778,0.15469
1276.64625,0.15695
1278.57472,0.16356
1280.50319,0.16149
1282.43166,0.15454
1284.36013,0.15622
1286.28860,0.15695
1288.21706,0.15370
1290.14553,0.15674
1292.07400,0.15979
1294.00247,0.15621
1295.93094,0.15222
1297.85941,0.14872
1299.78788,0.13610
1301.71634,0.10820
1303.64481,0.08073
1305.57328,0.08602
1307.50175,0.12356
1309.43022,0.15347
1311.35869,0.16300
1313.28716,0.16745
1315.21563,0.16874
1317.14409,0.16586
1319.07256,0.16175
1321.00103,0.15974
1322.92950,0.16175
1324.85797,0.15836
1326.78644,0.14850
1328.71491,0.14540
1330.64337,0.14528
1332.57184,0.14524
1334.50031,0.15020
1336.42878,0.15390
1338.35725,0.15667
1340.28572,0.15353
1342.21419,0.14710
1344.14266,0.14949
1346.07112,0.15106
1347.99959,0.15046
1349.92806,0.15077
1351.85653,0.14983
1353.78500,0.15288
1355.71347,0.15675
1357.64194,0.15771
1359.57040,0.15950
1361.49887,0.16332
1363.42734,0.16545
1365.35581,0.16557
1367.28428,0.16799
1369.21275,0.17149
1371.14122,0.17388
1373.06969,0.17692
1374.99815,0.17935
1376.92662,0.17688
1378.85509,0.17332
1380.78356,0.17331
1382.71203,0.17515
1384.64050,0.17570
1386.56897,0.17577
1388.49743,0.17784
1390.42590,0.17871
1392.35437,0.17739
1394.28284,0.17736
1396.21131,0.17882
1398.13978,0.17706
1400.06825,0.17350
1401.99672,0.17325
1403.92518,0.17454
1405.85365,0.17606
1407.78212,0.17856
1409.71059,0.17945
1411.63906,0.17725
1413.56753,0.17735
1415.49600,0.18515
1417.42446,0.19489
1419.35293,0.19374
1421.28140,0.18566
1423.20987,0.17957
1425.13834,0.17429
1427.06681,0.17382
1428.99528,0.18035
1430.92375,0.18702
1432.85221,0.18917
1434.78068,0.19072
1436.70915,0.19023
1438.63762,0.18502
1440.56609,0.18073
1442.49456,0.17831
1444.42303,0.17884
1446.35149,0.18408
1448.27996,0.18858
1450.20843,0.18730
1452.13690,0.18729
1454.06537,0.19551
1455.99384,0.21264
1457.92231,0.21839
1459.85077,0.20103
1461.77924,0.18911
1463.70771,0.18712
1465.63618,0.18788
1467.56465,0.18760
1469.49312,0.19113
1471.42159,0.20068
1473.35006,0.21016
1475.27852,0.21007
1477.20699,0.20288
1479.13546,0.19666
1481.06393,0.19321
1482.99240,0.18944
1484.92087,0.19040
1486.84934,0.19799
1488.77780,0.20264
1490.70627,0.19711
1492.63474,0.19007
1494.56321,0.18854
1496.49168,0.19311
1498.42015,0.19680
1500.34862,0.19398
1502.27709,0.19292
1504.20555,0.19960
1506.13402,0.21697
1508.06249,0.22846
1509.99096,0.21719
1511.91943,0.20284
1513.84790,0.19788
1515.77637,0.20655
1517.70483,0.21754
1519.63330,0.22329
1521.56177,0.22798
1523.49024,0.22249
1525.41871,0.21089
1527.34718,0.20074
1529.27565,0.19774
1531.20412,0.20526
1533.13258,0.21407
1535.06105,0.21052
1536.98952,0.20889
1538.91799,0.22518
1540.84646,0.24529
1542.77493,0.23386
1544.70340,0.21091
1546.63186,0.19513
1548.56033,0.19193
1550.48880,0.19417
1552.41727,0.19927
1554.34574,0.21180
1556.27421,0.23081
1558.20268,0.24858
1560.13115,0.22560
1562.05961,0.19991
1563.98808,0.19277
1565.91655,0.19230
1567.84502,0.19525
1569.77349,0.19947
1571.70196,0.19893
1573.63043,0.19934
1575.55889,0.20107
1577.48736,0.19538
1579.41583,0.18792
1581.34430,0.18323
1583.27277,0.17919
1585.20124,0.17635
1587.12971,0.17708
1589.05818,0.17982
1590.98664,0.18130
1592.91511,0.18148
1594.84358,0.17975
1596.77205,0.17534
1598.70052,0.17243
1600.62899,0.17374
1602.55746,0.17730
1604.48592,0.18171
1606.41439,0.18501
1608.34286,0.18516
1610.27133,0.18330
1612.19980,0.18292
1614.12827,0.18754
1616.05674,0.19547
1617.98521,0.19603
1619.91367,0.19372
1621.84214,0.19654
1623.77061,0.19723
1625.69908,0.19193
1627.62755,0.18821
1629.55602,0.18847
1631.48449,0.19224
1633.41295,0.20032
1635.34142,0.21120
1637.26989,0.21107
1639.19836,0.20555
1641.12683,0.20450
1643.05530,0.20712
1644.98377,0.21419
1646.91223,0.21833
1648.84070,0.21248
1650.76917,0.21515
1652.69764,0.22747
1654.62611,0.21630
1656.55458,0.19978
1658.48305,0.19536
1660.41152,0.19810
1662.33998,0.20171
1664.26845,0.20091
1666.19692,0.20250
1668.12539,0.21043
1670.05386,0.21401
1671.98233,0.21036
1673.91080,0.20970
1675.83926,0.20763
1677.76773,0.20284
1679.69620,0.20217
1681.62467,0.21059
1683.55314,0.22643
1685.48161,0.22265
1687.41008,0.20750
1689.33855,0.20153
1691.26701,0.20242
1693.19548,0.20847
1695.12395,0.22198
1697.05242,0.23542
1698.98089,0.23299
1700.90936,0.21656
1702.83783,0.20599
1704.76629,0.20292
1706.69476,0.19970
1708.62323,0.19506
1710.55170,0.19204
1712.48017,0.19392
1714.40864,0.20125
1716.33711,0.20961
1718.26558,0.20602
1720.19404,0.19292
1722.12251,0.18425
1724.05098,0.18290
1725.97945,0.18756
1727.90792,0.19454
1729.83639,0.19830
1731.76486,0.19734
1733.69332,0.19591
1735.62179,0.19502
1737.55026,0.19460
1739.47873,0.19566
1741.40720,0.19876
1743.33567,0.20178
1745.26414,0.20235
1747.19261,0.20204
1749.12107,0.20170
1751.04954,0.20019
1752.97801,0.20045
1754.90648,0.20220
1756.83495,0.20043
1758.76342,0.19512
1760.69189,0.19166
1762.62035,0.18920
1764.54882,0.18692
1766.47729,0.18882
1768.40576,0.19570
1770.33423,0.20318
1772.26270,0.20365
1774.19117,0.19598
1776.11964,0.19136
1778.04810,0.19263
1779.97657,0.19437
1781.90504,0.19165
1783.83351,0.18823
1785.76198,0.18806
1787.69045,0.19087
1789.61892,0.19693
1791.54738,0.20229
1793.47585,0.19928
1795.40432,0.19448
1797.33279,0.19352
1799.26126,0.19252
1801.18973,0.18889
1803.11820,0.18442
1805.04666,0.18276
1806.97513,0.18461
1808.90360,0.18808
1810.83207,0.19100
1812.76054,0.19004
1814.68901,0.18647
1816.61748,0.18276
1818.54595,0.17845
1820.47441,0.17550
1822.40288,0.17777
1824.33135,0.18601
1826.25982,0.19422
1828.18829,0.19817
1830.11676,0.19638
1832.04523,0.18964
1833.97369,0.18665
1835.90216,0.18827
1837.83063,0.18935
1839.75910,0.19025
1841.68757,0.19485
1843.61604,0.19988
1845.54451,0.19652
1847.47298,0.19002
1849.40144,0.18786
1851.32991,0.18724
1853.25838,0.18321
1855.18685,0.17830
1857.11532,0.17886
1859.04379,0.18212
1860.97226,0.18305
1862.90072,0.18395
1864.82919,0.18697
1866.75766,0.19139
1868.68613,0.19469
1870.61460,0.19413
1872.54307,0.19170
1874.47154,0.18972
1876.40001,0.18829
1878.32847,0.18598
1880.25694,0.18464
1882.18541,0.18612
1884.11388,0.18756
1886.04235,0.18865
1887.97082,0.18994
1889.89929,0.18979
1891.82775,0.18893
1893.75622,0.18795
1895.68469,0.18560
1897.61316,0.18212
1899.54163,0.17932
1901.47010,0.17862
1903.39857,0.17899
1905.32704,0.17970
1907.25550,0.18217
1909.18397,0.18427
1911.11244,0.18422
1913.04091,0.18432
1914.96938,0.18527
1916.89785,0.18762
1918.82632,0.19040
1920.75478,0.19216
1922.68325,0.19143
1924.61172,0.18656
1926.54019,0.18341
1928.46866,0.18501
1930.39713,0.18744
1932.32560,0.18804
1934.25407,0.18609
1936.18253,0.18286
1938.11100,0.18104
1940.03947,0.18337
1941.96794,0.18906
1943.89641,0.19162
1945.82488,0.18909
1947.75335,0.18601
1949.68181,0.18493
1951.61028,0.18581
1953.53875,0.18690
1955.46722,0.18669
1957.39569,0.18611
1959.32416,0.18644
1961.25263,0.18682
1963.18110,0.18693
1965.10956,0.18865
1967.03803,0.18874
1968.96650,0.18369
1970.89497,0.18044
1972.82344,0.18353
1974.75191,0.18921
1976.68038,0.19259
1978.60884,0.19205
1980.53731,0.19035
1982.46578,0.18883
1984.39425,0.18845
1986.32272,0.19009
1988.25119,0.18960
1990.17966,0.18598
1992.10812,0.18295
1994.03659,0.18149
1995.96506,0.18152
1997.89353,0.18357
1999.82200,0.18542
2001.75047,0.18518
2003.67894,0.18549
2005.60741,0.18694
2007.53587,0.18706
2009.46434,0.18665
2011.39281,0.18764
2013.32128,0.18830
2015.24975,0.18662
2017.17822,0.18522
2019.10669,0.18762
2021.03515,0.18961
2022.96362,0.18582
2024.89209,0.18292
2026.82056,0.18707
2028.74903,0.19195
2030.67750,0.19280
2032.60597,0.19145
2034.53444,0.18925
2036.46290,0.18734
2038.39137,0.18674
2040.31984,0.18643
2042.24831,0.18625
2044.17678,0.18554
2046.10525,0.18317
2048.03372,0.18312
2049.96218,0.18673
2051.89065,0.18803
2053.81912,0.18690
2055.74759,0.18863
2057.67606,0.19188
2059.60453,0.19232
2061.53300,0.18928
2063.46147,0.18570
2065.38993,0.18491
2067.31840,0.18673
2069.24687,0.18891
2071.17534,0.18910
2073.10381,0.18851
2075.03228,0.19012
2076.96075,0.19077
2078.88921,0.18791
2080.81768,0.18686
2082.74615,0.18976
2084.67462,0.19164
2086.60309,0.19036
2088.53156,0.18818
2090.46003,0.18700
2092.38850,0.18734
2094.31696,0.18873
2096.24543,0.18941
2098.17390,0.18792
2100.10237,0.18624
2102.03084,0.18723
2103.95931,0.18894
2105.88778,0.18838
2107.81624,0.18709
2109.74471,0.18714
2111.67318,0.18830
2113.60165,0.18932
2115.53012,0.18857
2117.45859,0.18662
2119.38706,0.18654
2121.31553,0.18883
2123.24399,0.19059
2125.17246,0.19089
2127.10093,0.19147
2129.02940,0.19228
2130.95787,0.19161
2132.88634,0.19028
2134.81481,0.18776
2136.74327,0.18460
2138.67174,0.18637
2140.60021,0.18957
2142.52868,0.18830
2144.45715,0.18787
2146.38562,0.18983
2148.31409,0.18987
2150.24255,0.18886
2152.17102,0.18884
2154.09949,0.18890
2156.02796,0.18803
2157.95643,0.18695
2159.88490,0.18824
2161.81337,0.19097
2163.74184,0.19076
2165.67030,0.18895
2167.59877,0.18940
2169.52724,0.19118
2171.45571,0.19199
2173.38418,0.19051
2175.31265,0.18703
2177.24112,0.18503
2179.16958,0.18609
2181.09805,0.18820
2183.02652,0.19054
2184.95499,0.19159
2186.88346,0.19000
2188.81193,0.18857
2190.74040,0.18917
2192.66887,0.18899
2194.59733,0.18669
2196.52580,0.18497
2198.45427,0.18525
2200.38274,0.18630
2202.31121,0.18724
2204.23968,0.18884
2206.16815,0.19066
2208.09661,0.19089
2210.02508,0.18955
2211.95355,0.18822
2213.88202,0.18800
2215.81049,0.18727
2217.73896,0.18530
2219.66743,0.18355
2221.59590,0.18279
2223.52436,0.18436
2225.45283,0.18807
2227.38130,0.18999
2229.30977,0.18769
2231.23824,0.18432
2233.16671,0.18384
2235.09518,0.18426
2237.02364,0.18338
2238.95211,0.18387
2240.88058,0.18637
2242.80905,0.18827
2244.73752,0.18891
2246.66599,0.18923
2248.59446,0.18952
2250.52293,0.19023
2252.45139,0.19113
2254.37986,0.19079
2256.30833,0.18912
2258.23680,0.18759
2260.16527,0.18722
2262.09374,0.18721
2264.02221,0.18691
2265.95067,0.18759
2267.87914,0.18846
2269.80761,0.18744
2271.73608,0.18628
2273.66455,0.18735
2275.59302,0.18887
2277.52149,0.18856
2279.44996,0.18728
2281.37842,0.18718
2283.30689,0.18805
2285.23536,0.18819
2287.16383,0.18685
2289.09230,0.18624
2291.02077,0.19046
2292.94924,0.19756
2294.87770,0.20201
2296.80617,0.19900
2298.73464,0.18796
2300.66311,0.17959
2302.59158,0.17951
2304.52005,0.18221
2306.44852,0.18585
2308.37699,0.18899
2310.30545,0.18928
2312.23392,0.18770
2314.16239,0.18509
2316.09086,0.18231
2318.01933,0.18004
2319.94780,0.17867
2321.87627,0.17773
2323.80473,0.17734
2325.73320,0.17890
2327.66167,0.17747
2329.59014,0.17150
2331.51861,0.17237
2333.44708,0.18160
2335.37555,0.18430
2337.30401,0.18195
2339.23248,0.18866
2341.16095,0.19581
2343.08942,0.18727
2345.01789,0.17432
2346.94636,0.17612
2348.87483,0.18443
2350.80330,0.19040
2352.73176,0.20021
2354.66023,0.21737
2356.58870,0.21953
2358.51717,0.18808
2360.44564,0.15056
2362.37411,0.14876
2364.30258,0.17133
2366.23104,0.17839
2368.15951,0.17118
2370.08798,0.17063
2372.01645,0.17798
2373.94492,0.18173
2375.87339,0.17785
2377.80186,0.17548
2379.73033,0.17761
2381.65879,0.18155
2383.58726,0.18656
2385.51573,0.18887
2387.44420,0.18739
2389.37267,0.18560
2391.30114,0.18479
2393.22961,0.18488
2395.15807,0.18641
2397.08654,0.18830
2399.01501,0.18778
2400.94348,0.18610
2402.87195,0.18787
2404.80042,0.19181
2406.72889,0.19252
2408.65736,0.19027
2410.58582,0.18861
2412.51429,0.18783
2414.44276,0.18802
2416.37123,0.18948
2418.29970,0.19043
2420.22817,0.18965
2422.15664,0.18845
2424.08510,0.18781
2426.01357,0.18666
2427.94204,0.18598
2429.87051,0.18695
2431.79898,0.18725
2433.72745,0.18656
2435.65592,0.18662
2437.58439,0.18778
2439.51285,0.19053
2441.44132,0.19347
2443.36979,0.19361
2445.29826,0.19122
2447.22673,0.18935
2449.15520,0.18938
2451.08367,0.18689
2453.01213,0.18079
2454.94060,0.18114
2456.86907,0.18851
2458.79754,0.19141
2460.72601,0.18972
2462.65448,0.18900
2464.58295,0.18979
2466.51142,0.19283
2468.43988,0.19488
2470.36835,0.19060
2472.29682,0.18389
2474.22529,0.18250
2476.15376,0.18586
2478.08223,0.18778
2480.01070,0.18702
2481.93916,0.18746
2483.86763,0.18931
2485.79610,0.19047
2487.72457,0.19146
2489.65304,0.19213
2491.58151,0.19061
2493.50998,0.18727
2495.43844,0.18517
2497.36691,0.18504
2499.29538,0.18515
2501.22385,0.18451
2503.15232,0.18371
2505.08079,0.18423
2507.00926,0.18542
2508.93773,0.18604
2510.86619,0.18654
2512.79466,0.18788
2514.72313,0.19010
2516.65160,0.19118
2518.58007,0.19015
2520.50854,0.18769
2522.43701,0.18542
2524.36547,0.18521
2526.29394,0.18578
2528.22241,0.18604
2530.15088,0.18776
2532.07935,0.19040
2534.00782,0.19163
2535.93629,0.19176
2537.86476,0.19289
2539.79322,0.19496
2541.72169,0.19570
2543.65016,0.19477
2545.57863,0.19306
2547.50710,0.19134
2549.43557,0.19141
2551.36404,0.19321
2553.29250,0.19332
2555.22097,0.19132
2557.14944,0.19276
2559.07791,0.19752
2561.00638,0.19871
2562.93485,0.19562
2564.86332,0.19261
2566.79179,0.19071
2568.72025,0.18889
2570.64872,0.18855
2572.57719,0.18960
2574.50566,0.18991
2576.43413,0.19000
2578.36260,0.19000
2580.29107,0.18957
2582.21953,0.18991
2584.14800,0.19131
2586.07647,0.19320
2588.00494,0.19547
2589.93341,0.19700
2591.86188,0.19521
2593.79035,0.19204
2595.71882,0.19182
2597.64728,0.19219
2599.57575,0.19085
2601.50422,0.19038
2603.43269,0.19099
2605.36116,0.19294
2607.28963,0.19450
2609.21810,0.19154
2611.14656,0.18748
2613.07503,0.18612
2615.00350,0.18633
2616.93197,0.18831
2618.86044,0.19181
2620.78891,0.19398
2622.71738,0.19280
2624.64585,0.19041
2626.57431,0.18846
2628.50278,0.18643
2630.43125,0.18633
2632.35972,0.18809
2634.28819,0.18868
2636.21666,0.18783
2638.14513,0.18718
2640.07359,0.18779
2642.00206,0.18822
2643.93053,0.18672
2645.85900,0.18527
2647.78747,0.18471
2649.71594,0.18489
2651.64441,0.18800
2653.57288,0.19201
2655.50134,0.19260
2657.42981,0.19216
2659.35828,0.19451
2661.28675,0.19626
2663.21522,0.19379
2665.14369,0.19131
2667.07216,0.19278
2669.00062,0.19550
2670.92909,0.19752
2672.85756,0.19967
2674.78603,0.20090
2676.71450,0.20080
2678.64297,0.19957
2680.57144,0.19756
2682.49990,0.19659
2684.42837,0.19665
2686.35684,0.19669
2688.28531,0.19601
2690.21378,0.19470
2692.14225,0.19428
2694.07072,0.19518
2695.99919,0.19571
2697.92765,0.19525
2699.85612,0.19609
2701.78459,0.19805
2703.71306,0.19791
2705.64153,0.19567
2707.57000,0.19416
2709.49847,0.19382
2711.42693,0.19390
2713.35540,0.19602
2715.28387,0.19818
2717.21234,0.19708
2719.14081,0.19677
2721.06928,0.19890
2722.99775,0.19970
2724.92622,0.19921
2726.85468,0.19900
2728.78315,0.19862
2730.71162,0.19693
2732.64009,0.19409
2734.56856,0.19230
2736.49703,0.19385
2738.42550,0.19833
2740.35396,0.20071
2742.28243,0.19838
2744.21090,0.19559
2746.13937,0.19528
2748.06784,0.19608
2749.99631,0.19699
2751.92478,0.19735
2753.85325,0.19621
2755.78171,0.19474
2757.71018,0.19476
2759.63865,0.19598
2761.56712,0.19794
2763.49559,0.20058
2765.42406,0.20158
2767.35253,0.19783
2769.28099,0.19338
2771.20946,0.19626
2773.13793,0.20190
2775.06640,0.20244
2776.99487,0.20363
2778.92334,0.20669
2780.85181,0.20537
2782.78028,0.20315
2784.70874,0.20296
2786.63721,0.20219
2788.56568,0.20188
2790.49415,0.20341
2792.42262,0.20465
2794.35109,0.20344
2796.27956,0.20171
2798.20802,0.20242
2800.13649,0.20318
2802.06496,0.20115
2803.99343,0.19906
2805.92190,0.19904
2807.85037,0.19923
2809.77884,0.20019
2811.70731,0.20295
2813.63577,0.20455
2815.56424,0.20449
2817.49271,0.20490
2819.42118,0.20578
2821.34965,0.20638
2823.27812,0.20434
2825.20659,0.19889
2827.13505,0.19378
2829.06352,0.19232
2830.99199,0.19413
2832.92046,0.19450
2834.84893,0.19301
2836.77740,0.19520
2838.70587,0.19792
2840.63433,0.19811
2842.56280,0.20066
2844.49127,0.20265
2846.41974,0.19919
2848.34821,0.19505
2850.27668,0.19549
2852.20515,0.20007
2854.13362,0.20529
2856.06208,0.20704
2857.99055,0.20525
2859.91902,0.20339
2861.84749,0.20161
2863.77596,0.19905
2865.70443,0.19855
2867.63290,0.20104
2869.56136,0.20215
2871.48983,0.19974
2873.41830,0.19744
2875.34677,0.19898
2877.27524,0.20408
2879.20371,0.20715
2881.13218,0.20389
2883.06065,0.19728
2884.98911,0.19324
2886.91758,0.19547
2888.84605,0.20262
2890.77452,0.20719
2892.70299,0.20227
2894.63146,0.19171
2896.55993,0.18699
2898.48839,0.19210
2900.41686,0.20035
2902.34533,0.20292
2904.27380,0.19608
2906.20227,0.18912
2908.13074,0.19318
2910.05921,0.20196
2911.98768,0.20395
2913.91614,0.19408
2915.84461,0.17682
2917.77308,0.17092
2919.70155,0.18211
2921.63002,0.19294
2923.55849,0.19654
2925.48696,0.20209
2927.41542,0.21178
2929.34389,0.21327
2931.27236,0.20419
2933.20083,0.19919
2935.12930,0.19189
2937.05777,0.17637
2938.98624,0.17600
2940.91471,0.19028
2942.84317,0.19577
2944.77164,0.18576
2946.70011,0.16871
2948.62858,0.16777
2950.55705,0.18649
2952.48552,0.19815
2954.41399,0.19278
2956.34245,0.17635
2958.27092,0.16691
2960.19939,0.18088
2962.12786,0.19824
2964.05633,0.20096
2965.98480,0.19163
2967.91327,0.17726
2969.84174,0.17640
2971.77020,0.18994
2973.69867,0.19832
2975.62714,0.19021
2977.55561,0.17302
2979.48408,0.17119
2981.41255,0.18725
2983.34102,0.19975
2985.26948,0.20091
2987.19795,0.19453
2989.12642,0.19349
2991.05489,0.20479
2992.98336,0.21257
2994.91183,0.20910
2996.84030,0.20152
2998.76877,0.19714
3000.69723,0.20021
3002.62570,0.20390
3004.55417,0.20294
3006.48264,0.19761
3008.41111,0.18533
3010.33958,0.16292
3012.26805,0.12737
3014.19651,0.08567
3016.12498,0.06148
3018.05345,0.08361
3019.98192,0.14259
3021.91039,0.19011
3023.83886,0.20882
3025.76733,0.21053
3027.69579,0.20239
3029.62426,0.19735
3031.55273,0.19972
3033.48120,0.20019
3035.40967,0.19757
3037.33814,0.19605
3039.26661,0.19851
3041.19508,0.20210
3043.12354,0.20356
3045.05201,0.20281
3046.98048,0.19672
3048.90895,0.19414
3050.83742,0.20163
3052.76589,0.20606
3054.69436,0.19869
3056.62282,0.18413
3058.55129,0.18040
3060.47976,0.19363
3062.40823,0.20243
3064.33670,0.19252
3066.26517,0.17812
3068.19364,0.18306
3070.12211,0.20087
3072.05057,0.20663
3073.97904,0.19341
3075.90751,0.17725
3077.83598,0.18190
3079.76445,0.20062
3081.69292,0.20602
3083.62139,0.18945
3085.54985,0.17171
3087.47832,0.17865
3089.40679,0.19700
3091.33526,0.19940
3093.26373,0.18608
3095.19220,0.18034
3097.12067,0.19334
3099.04914,0.20288
3100.97760,0.19607
3102.90607,0.18506
3104.83454,0.18549
3106.76301,0.19849
3108.69148,0.20857
3110.61995,0.20519
3112.54842,0.19616
3114.47688,0.19799
3116.40535,0.20672
3118.33382,0.20762
3120.26229,0.19632
3122.19076,0.18297
3124.11923,0.18639
3126.04770,0.20012
3127.97617,0.20301
3129.90463,0.19412
3131.83310,0.19232
3133.76157,0.20308
3135.69004,0.20813
3137.61851,0.20091
3139.54698,0.19208
3141.47545,0.19220
3143.40391,0.20050
3145.33238,0.20647
3147.26085,0.20309
3149.18932,0.19795
3151.11779,0.20148
3153.04626,0.20754
3154.97473,0.20904
3156.90320,0.20840
3158.83166,0.20696
3160.76013,0.20470
3162.68860,0.20401
3164.61707,0.20587
3166.54554,0.21128
3168.47401,0.21901
3170.40248,0.22058
3172.33094,0.21464
3174.25941,0.20856
3176.18788,0.20815
3178.11635,0.21290
3180.04482,0.21533
3181.97329,0.21378
3183.90176,0.21415
3185.83022,0.21681
3187.75869,0.21757
3189.68716,0.21695
3191.61563,0.21678
3193.54410,0.21636
3195.47257,0.21491
3197.40104,0.21276
3199.32951,0.20981
3201.25797,0.20740
3203.18644,0.20735
3205.11491,0.20728
3207.04338,0.20645
3208.97185,0.20685
3210.90032,0.21003
3212.82879,0.21508
3214.75725,0.21702
3216.68572,0.21349
3218.61419,0.20804
3220.54266,0.20594
3222.47113,0.20801
3224.39960,0.21007
3226.32807,0.21077
3228.25654,0.21096
3230.18500,0.20835
3232.11347,0.20386
3234.04194,0.20292
3235.97041,0.20591
3237.89888,0.20984
3239.82735,0.21116
3241.75582,0.20831
3243.68428,0.20698
3245.61275,0.21077
3247.54122,0.21672
3249.46969,0.22267
3251.39816,0.22387
3253.32663,0.21808
3255.25510,0.21196
3257.18357,0.20858
3259.11203,0.20606
3261.04050,0.20524
3262.96897,0.20668
3264.89744,0.20717
3266.82591,0.20491
3268.75438,0.20384
3270.68285,0.20516
3272.61131,0.20693
3274.53978,0.21100
3276.46825,0.21514
3278.39672,0.21406
3280.32519,0.21237
3282.25366,0.21425
3284.18213,0.21280
3286.11060,0.20685
3288.03906,0.20543
3289.96753,0.20919
3291.89600,0.21191
3293.82447,0.21373
3295.75294,0.21632
3297.68141,0.21661
3299.60988,0.21159
3301.53834,0.20568
3303.46681,0.20597
3305.39528,0.21059
3307.32375,0.21612
3309.25222,0.22265
3311.18069,0.22373
3313.10916,0.21725
3315.03763,0.21265
3316.96609,0.21248
3318.89456,0.21030
3320.82303,0.20594
3322.75150,0.20514
3324.67997,0.20696
3326.60844,0.20674
3328.53691,0.20641
3330.46537,0.21051
3332.39384,0.21806
3334.32231,0.22364
3336.25078,0.22499
3338.17925,0.22318
3340.10772,0.22104
3342.03619,0.22053
3343.96466,0.21674
3345.89312,0.20831
3347.82159,0.20101
3349.75006,0.19763
3351.67853,0.20048
3353.60700,0.21072
3355.53547,0.22106
3357.46394,0.22387
3359.39240,0.22183
3361.32087,0.21863
3363.24934,0.21438
3365.17781,0.21206
3367.10628,0.21225
3369.03475,0.21265
3370.96322,0.21459
3372.89168,0.21687
3374.82015,0.21655
3376.74862,0.21450
3378.67709,0.21086
3380.60556,0.20929
3382.53403,0.21327
3384.46250,0.21757
3386.39097,0.21787
3388.31943,0.21507
3390.24790,0.21068
3392.17637,0.20550
3394.10484,0.20319
3396.03331,0.20610
3397.96178,0.20932
3399.89025,0.20775
3401.81871,0.20212
3403.74718,0.19739
3405.67565,0.19749
3407.60412,0.20355
3409.53259,0.21121
3411.46106,0.21445
3413.38953,0.21415
3415.31800,0.21086
3417.24646,0.20589
3419.17493,0.20436
3421.10340,0.20716
3423.03187,0.20969
3424.96034,0.20605
3426.88881,0.19777
3428.81728,0.19434
3430.74574,0.19779
3432.67421,0.19898
3434.60268,0.19789
3436.53115,0.20221
3438.45962,0.20839
3440.38809,0.20937
3442.31656,0.20455
3444.24503,0.20005
3446.17349,0.20081
3448.10196,0.20072
3450.03043,0.19809
3451.95890,0.19828
3453.88737,0.19920
3455.81584,0.19666
3457.74431,0.19052
3459.67277,0.18677
3461.60124,0.19173
3463.52971,0.19851
3465.45818,0.19802
3467.38665,0.19292
3469.31512,0.18662
3471.24359,0.18308
3473.17206,0.18705
3475.10052,0.19260
3477.02899,0.19314
3478.95746,0.19114
3480.88593,0.18953
3482.81440,0.18852
3484.74287,0.18932
3486.67134,0.19192
3488.59980,0.19226
3490.52827,0.18967
3492.45674,0.18718
3494.38521,0.18598
3496.31368,0.18572
3498.24215,0.18480
3500.17062,0.18529
3502.09909,0.18982
3504.02755,0.19433
3505.95602,0.19544
3507.88449,0.19226
3509.81296,0.18324
3511.74143,0.17419
3513.66990,0.17175
3515.59837,0.17362
3517.52683,0.17376
3519.45530,0.17108
3521.38377,0.16976
3523.31224,0.17104
3525.24071,0.17371
3527.16918,0.17513
3529.09765,0.17324
3531.02611,0.17097
3532.95458,0.16950
3534.88305,0.16750
3536.81152,0.16599
3538.73999,0.16760
3540.66846,0.17273
3542.59693,0.17903
3544.52540,0.18361
3546.45386,0.18348
3548.38233,0.17934
3550.31080,0.17492
3552.23927,0.17106
3554.16774,0.16598
3556.09621,0.16010
3558.02468,0.15986
3559.95314,0.16584
3561.88161,0.17029
3563.81008,0.17469
3565.73855,0.18112
3567.66702,0.18003
3569.59549,0.17201
3571.52396,0.16530
3573.45243,0.15955
3575.38089,0.15613
3577.30936,0.15618
3579.23783,0.15435
3581.16630,0.15151
3583.09477,0.15357
3585.02324,0.16011
3586.95171,0.16777
3588.88017,0.16723
3590.80864,0.16267
3592.73711,0.16385
3594.66558,0.16463
3596.59405,0.16031
3598.52252,0.15789
3600.45099,0.15716
3602.37946,0.15360
3604.30792,0.15190
3606.23639,0.15507
3608.16486,0.15559
3610.09333,0.15267
3612.02180,0.15735
3613.95027,0.16434
3615.87874,0.16260
3617.80720,0.15952
3619.73567,0.15768
3621.66414,0.15125
3623.59261,0.14844
3625.52108,0.15494
3627.44955,0.16630
3629.37802,0.16649
3631.30649,0.15446
3633.23495,0.14662
3635.16342,0.14187
3637.09189,0.13824
3639.02036,0.13802
3640.94883,0.14170
3642.87730,0.14544
3644.80577,0.14832
3646.73423,0.15180
3648.66270,0.15386
3650.59117,0.15017
3652.51964,0.14389
3654.44811,0.14215
3656.37658,0.14438
3658.30505,0.14439
3660.23352,0.14083
3662.16198,0.13562
3664.09045,0.13266
3666.01892,0.13330
3667.94739,0.13641
3669.87586,0.13939
3671.80433,0.13771
3673.73280,0.13812
3675.66126,0.14554
3677.58973,0.14973
3679.51820,0.14389
3681.44667,0.13662
3683.37514,0.13585
3685.30361,0.13976
3687.23208,0.14639
3689.16055,0.15342
3691.08901,0.14843
3693.01748,0.13583
3694.94595,0.12776
3696.87442,0.12662
3698.80289,0.13054
3700.73136,0.13658
3702.65983,0.13889
3704.58829,0.13618
3706.51676,0.13838
3708.44523,0.15137
3710.37370,0.16312
3712.30217,0.15222
3714.23064,0.13440
3716.15911,0.12773
3718.08757,0.13093
3720.01604,0.13895
3721.94451,0.14286
3723.87298,0.13750
3725.80145,0.12697
3727.72992,0.11934
3729.65839,0.11862
3731.58686,0.12579
3733.51532,0.13978
3735.44379,0.15021
3737.37226,0.14981
3739.30073,0.14506
3741.22920,0.14421
3743.15767,0.15171
3745.08614,0.15801
3747.01460,0.15274
3748.94307,0.14522
3750.87154,0.14046
3752.80001,0.13990
3754.72848,0.13657
3756.65695,0.13163
3758.58542,0.13121
3760.51389,0.13273
3762.44235,0.12920
3764.37082,0.12250
3766.29929,0.11976
3768.22776,0.12842
3770.15623,0.14001
3772.08470,0.13707
3774.01317,0.12848
3775.94163,0.12613
3777.87010,0.12712
3779.79857,0.12628
3781.72704,0.12364
3783.65551,0.12325
3785.58398,0.12541
3787.51245,0.12585
3789.44092,0.12497
3791.36938,0.12500
3793.29785,0.12423
3795.22632,0.12164
3797.15479,0.12176
3799.08326,0.12735
3801.01173,0.13071
3802.94020,0.12571
3804.86866,0.12052
3806.79713,0.11731
3808.72560,0.11784
3810.65407,0.12057
3812.58254,0.12118
3814.51101,0.12430
3816.43948,0.13370
3818.36795,0.14163
3820.29641,0.14475
3822.22488,0.13871
3824.15335,0.12961
3826.08182,0.12388
3828.01029,0.12123
3829.93876,0.12301
3831.86723,0.12517
3833.79569,0.12502
3835.72416,0.13102
3837.65263,0.14107
3839.58110,0.13834
3841.50957,0.12870
3843.43804,0.12235
3845.36651,0.12048
3847.29498,0.12408
3849.22344,0.13041
3851.15191,0.13572
3853.08038,0.13632
3855.00885,0.12703
3856.93732,0.11733
3858.86579,0.11512
3860.79426,0.12101
3862.72272,0.12836
3864.65119,0.12918
3866.57966,0.13044
3868.50813,0.13765
3870.43660,0.14039
3872.36507,0.13350
3874.29354,0.12563
3876.22200,0.12189
3878.15047,0.12382
3880.07894,0.12631
3882.00741,0.12251
3883.93588,0.11857
3885.86435,0.11840
3887.79282,0.11781
3889.72129,0.11759
3891.64975,0.11860
3893.57822,0.11802
3895.50669,0.11750
3897.43516,0.12285
3899.36363,0.13319
3901.29210,0.13436
3903.22057,0.12584
3905.14903,0.11760
3907.07750,0.11083
3909.00597,0.10739
3910.93444,0.10791
3912.86291,0.11247
3914.79138,0.11880
3916.71985,0.12230
3918.64832,0.12343
3920.57678,0.12340
3922.50525,0.12064
3924.43372,0.11673
3926.36219,0.11461
3928.29066,0.11238
3930.21913,0.10893
3932.14760,0.10889
3934.07606,0.11058
3936.00453,0.10824
3937.93300,0.10497
3939.86147,0.10560
3941.78994,0.11066
3943.71841,0.11789
3945.64688,0.12256
3947.57535,0.12462
3949.50381,0.12531
3951.43228,0.11898
3953.36075,0.10995
3955.28922,0.10853
3957.21769,0.11117
3959.14616,0.11080
3961.07463,0.10610
3963.00309,0.10157
3964.93156,0.10463
3966.86003,0.11136
3968.78850,0.11283
3970.71697,0.10848
3972.64544,0.10338
3974.57391,0.10272
3976.50238,0.10609
3978.43084,0.10748
3980.35931,0.10414
3982.28778,0.10027
3984.21625,0.10059
3986.14472,0.10187
3988.07319,0.09827
3990.00166,0.09274
3991.93012,0.09173
3993.85859,0.09529
3995.78706,0.10030
3997.71553,0.10335
3999.64400,0.10252
4001.57247,0.10040
4003.50094,0.09863
4005.42941,0.09455
4007.35787,0.09076
4009.28634,0.09343
4011.21481,0.09902
4013.14328,0.10218
4015.07175,0.10268
4017.00022,0.10031
4018.92869,0.09675
4020.85715,0.09452
4022.78562,0.09368
4024.71409,0.09150
4026.64256,0.08745
4028.57103,0.08648
4030.49950,0.08947
4032.42797,0.09030
4034.35644,0.08762
4036.28490,0.08894
4038.21337,0.09835
4040.14184,0.10662
4042.07031,0.10469
4043.99878,0.09870
4045.92725,0.09710
4047.85572,0.09940
4049.78418,0.10100
4051.71265,0.09857
4053.64112,0.09357
4055.56959,0.08882
4057.49806,0.08756
4059.42653,0.09019
4061.35500,0.09013
4063.28346,0.08791
4065.21193,0.09093
4067.14040,0.09444
4069.06887,0.09198
4070.99734,0.08808
4072.92581,0.08772
4074.85428,0.09188
4076.78275,0.09467
4078.71121,0.09183
4080.63968,0.09138
4082.56815,0.09719
4084.49662,0.10111
4086.42509,0.09862
4088.35356,0.09453
4090.28203,0.09229
4092.21049,0.09093
4094.13896,0.08953
4096.06743,0.08683
4097.99590,0.08482
4099.92437,0.08654
4101.85284,0.08852
4103.78131,0.08991
4105.70978,0.09410
4107.63824,0.09718
4109.56671,0.09516
4111.49518,0.09117
4113.42365,0.08781
4115.35212,0.08550
4117.28059,0.08616
4119.20906,0.08776
4121.13752,0.08788
4123.06599,0.08849
4124.99446,0.08620
4126.92293,0.07952
4128.85140,0.07390
4130.77987,0.07423
4132.70834,0.08207
4134.63681,0.09197
4136.56527,0.09669
4138.49374,0.09172
4140.42221,0.08079
4142.35068,0.07540
4144.27915,0.07892
4146.20762,0.08561
4148.13609,0.08864
4150.06455,0.08608
4151.99302,0.08287
4153.92149,0.08329
4155.84996,0.08615
4157.77843,0.08782
4159.70690,0.08629
4161.63537,0.08321
4163.56384,0.07975
4165.49230,0.07415
4167.42077,0.06940
4169.34924,0.07003
4171.27771,0.07533
4173.20618,0.08255
4175.13465,0.08667
4177.06312,0.08448
4178.99158,0.07911
4180.92005,0.07505
4182.84852,0.07427
4184.77699,0.07524
4186.70546,0.07511
4188.63393,0.07452
4190.56240,0.07734
4192.49087,0.08554
4194.41933,0.09434
4196.34780,0.09512
4198.27627,0.08982
4200.20474,0.08649
4202.13321,0.08184
4204.06168,0.07477
4205.99015,0.07160
4207.91861,0.07193
4209.84708,0.07212
4211.77555,0.07167
4213.70402,0.07251
4215.63249,0.07413
4217.56096,0.07381
4219.48943,0.07201
4221.41789,0.07125
4223.34636,0.07308
4225.27483,0.07415
4227.20330,0.07015
4229.13177,0.06458
4231.06024,0.06431
4232.98871,0.06833
4234.91718,0.06844
4236.84564,0.06219
4238.77411,0.05669
4240.70258,0.05853
4242.63105,0.06399
4244.55952,0.06498
4246.48799,0.06317
4248.41646,0.06378
4250.34492,0.06696
4252.27339,0.07133
4254.20186,0.07081
4256.13033,0.06415
4258.05880,0.06079
4259.98727,0.06296
4261.91574,0.06473
4263.84421,0.06386
4265.77267,0.06202
4267.70114,0.05859
4269.62961,0.05355
4271.55808,0.05228
4273.48655,0.05509
4275.41502,0.05844
4277.34349,0.06252
4279.27195,0.06371
4281.20042,0.05829
4283.12889,0.05161
4285.05736,0.05045
4286.98583,0.05263
4288.91430,0.05459
4290.84277,0.05851
4292.77124,0.06150
4294.69970,0.05849
4296.62817,0.05297
4298.55664,0.05246
4300.48511,0.05791
4302.41358,0.05975
4304.34205,0.05516
4306.27052,0.05405
4308.19898,0.05691
4310.12745,0.05734
4312.05592,0.05678
4313.98439,0.05788
4315.91286,0.06179
4317.84133,0.06356
4319.76980,0.05789
4321.69827,0.05285
4323.62673,0.04962
4325.55520,0.04018
4327.48367,0.03060
4329.41214,0.03252
4331.34061,0.04460
4333.26908,0.05267
4335.19755,0.04962
4337.12601,0.04648
4339.05448,0.04777
4340.98295,0.04409
4342.91142,0.03890
4344.83989,0.04251
4346.76836,0.05327
4348.69683,0.06092
4350.62530,0.05802
4352.55376,0.05367
4354.48223,0.05294
4356.41070,0.04724
4358.33917,0.04202
4360.26764,0.04382
4362.19611,0.04307
4364.12458,0.03841
4366.05304,0.04056
4367.98151,0.04897
4369.90998,0.05573
4371.83845,0.05918
4373.76692,0.05728
4375.69539,0.04728
4377.62386,0.03843
4379.55232,0.04161
4381.48079,0.05058
4383.40926,0.05354
4385.33773,0.04744
4387.26620,0.03926
4389.19467,0.03699
4391.12314,0.03665
4393.05161,0.03311
4394.98007,0.03306
4396.90854,0.03974
4398.83701,0.04690
4400.76548,0.05204
4402.69395,0.05237
4404.62242,0.04853
4406.55089,0.04892
4408.47935,0.05327
4410.40782,0.05317
4412.33629,0.04838
4414.26476,0.05004
4416.19323,0.05770
4418.12170,0.05775
4420.05017,0.05008
4421.97864,0.03978
4423.90710,0.02814
4425.83557,0.02190
4427.76404,0.02425
4429.69251,0.02739
4431.62098,0.02541
4433.54945,0.02484
4435.47792,0.02585
4437.40638,0.01978
4439.33485,0.01726
4441.26332,0.02737
4443.19179,0.03365
4445.12026,0.02970
4447.04873,0.02809
4448.97720,0.03036
4450.90567,0.03137
4452.83413,0.03348
4454.76260,0.03763
4456.69107,0.04263
4458.61954,0.04535
4460.54801,0.04268
4462.47648,0.04003
4464.40495,0.03879
4466.33341,0.03330
4468.26188,0.02306
4470.19035,0.01334
4472.11882,0.01267
4474.04729,0.01860
4475.97576,0.01763
4477.90423,0.01405
4479.83270,0.01893
4481.76116,0.02929
4483.68963,0.03891
4485.61810,0.03728
4487.54657,0.02559
4489.47504,0.01908
4491.40351,0.01660
4493.33198,0.01360
4495.26044,0.01677
4497.18891,0.02038
4499.11738,0.01534
4501.04585,0.01239
4502.97432,0.02025
4504.90279,0.03122
4506.83126,0.03327
4508.75973,0.02714
4510.68819,0.02387
4512.61666,0.02330
4514.54513,0.02249
4516.47360,0.02099
4518.40207,0.01656
4520.33054,0.01358
4522.25901,0.01431
4524.18747,0.01443
4526.11594,0.01203
4528.04441,0.00842
4529.97288,0.00719
4531.90135,0.01014
4533.82982,0.01437
4535.75829,0.01775
4537.68676,0.02155
4539.61522,0.02906
4541.54369,0.03624
4543.47216,0.03227
4545.40063,0.01997
4547.32910,0.01607
4549.25757,0.02394
4551.18604,0.02931
4553.11450,0.02637
4555.04297,0.01876
4556.97144,0.00787
4558.89991,-0.00220
4560.82838,-0.00482
4562.75685,0.00061
4564.68532,0.00627
4566.61378,0.01019
4568.54225,0.01714
4570.47072,0.02440
4572.39919,0.02764
4574.32766,0.02633
4576.25613,0.02109
4578.18460,0.01680
4580.11307,0.01611
4582.04153,0.01799
4583.97000,0.02092
4585.89847,0.01942
4587.82694,0.01808
4589.75541,0.02176
4591.68388,0.02446
4593.61235,0.02660
4595.54081,0.02504
4597.46928,0.01601
4599.39775,0.00804
4601.32622,0.00573
4603.25469,0.00617
4605.18316,0.00761
4607.11163,0.01174
4609.04010,0.01526
4610.96856,0.00755
4612.89703,-0.00736
4614.82550,-0.01073
4616.75397,0.00124
4618.68244,0.01532
4620.61091,0.01936
4622.53938,0.01445
4624.46784,0.01262
4626.39631,0.01771
4628.32478,0.02239
4630.25325,0.02286
4632.18172,0.02156
4634.11019,0.02079
4636.03866,0.01950
4637.96713,0.01567
4639.89559,0.00905
4641.82406,0.00404
4643.75253,0.00563
4645.68100,0.01104
4647.60947,0.01534
4649.53794,0.01460
4651.46641,0.00511
4653.39487,-0.00428
4655.32334,-0.00177
4657.25181,0.00360
4659.18028,-0.00126
4661.10875,-0.00705
4663.03722,-0.00433
4664.96569,-0.00409
4666.89416,-0.00647
4668.82262,0.00023
4670.75109,0.01563
4672.67956,0.03317
4674.60803,0.03186
4676.53650,0.00646
4678.46497,-0.00721
4680.39344,0.00166
4682.32190,0.01317
4684.25037,0.02006
4686.17884,0.01899
4688.10731,0.00868
4690.03578,-0.00154
4691.96425,-0.00150
4693.89272,0.00347
4695.82119,0.00385
4697.74965,0.00019
4699.67812,-0.00306
4701.60659,-0.00078
4703.53506,0.00459
4705.46353,0.00379
4707.39200,-0.00093
4709.32047,0.00315
4711.24893,0.01329
4713.17740,0.01736
4715.10587,0.01829
4717.03434,0.02110
4718.96281,0.02299
4720.89128,0.01643
4722.81975,0.00336
4724.74821,-0.00212
4726.67668,0.00283
4728.60515,0.01186
4730.53362,0.01879
4732.46209,0.02170
4734.39056,0.01933
4736.31903,0.00890
4738.24750,0.00263
4740.17596,0.01519
4742.10443,0.03373
4744.03290,0.03389
4745.96137,0.01812
4747.88984,0.00443
4749.81831,-0.00151
4751.74678,-0.00030
4753.67524,0.00523
4755.60371,0.01023
4757.53218,0.01653
4759.46065,0.02642
4761.38912,0.03433
4763.31759,0.02994
4765.24606,0.00849
4767.17453,-0.00996
4769.10299,-0.00624
4771.03146,0.00564
4772.95993,0.01435
4774.88840,0.02160
4776.81687,0.02013
4778.74534,0.01010
4780.67381,0.00532
4782.60227,0.00785
4784.53074,0.00896
4786.45921,0.00719
4788.38768,0.00267
4790.31615,0.00185
4792.24462,0.01717
4794.17309,0.03692
4796.10156,0.03540
4798.03002,0.01642
4799.95849,0.00204
4801.88696,-0.00182
4803.81543,0.00019
4805.74390,0.00848
4807.67237,0.02010
4809.60084,0.02141
4811.52930,0.00897
4813.45777,-0.00138
4815.38624,-0.00284
4817.31471,-0.00342
4819.24318,-0.00466
4821.17165,-0.00199
4823.10012,0.00740
4825.02859,0.01573
4826.95705,0.01584
4828.88552,0.01473
4830.81399,0.01828
4832.74246,0.02496
4834.67093,0.02743
4836.59940,0.02279
4838.52787,0.01190
4840.45633,-0.00677
4842.38480,-0.02092
4844.31327,-0.01534
4846.24174,0.00604
4848.17021,0.02410
4850.09868,0.02556
4852.02715,0.01937
4853.95562,0.01805
4855.88408,0.01958
4857.81255,0.02354
4859.74102,0.03290
4861.66949,0.03854
4863.59796,0.03375
4865.52643,0.02452
4867.45490,0.02268
4869.38336,0.02953
4871.31183,0.02837
4873.24030,0.02433
4875.16877,0.03289
4877.09724,0.03792
4879.02571,0.03012
4880.95418,0.02050
4882.88265,0.01368
4884.81111,0.01280
4886.73958,0.01569
4888.66805,0.01169
4890.59652,0.00621
4892.52499,0.01626
4894.45346,0.03022
4896.38193,0.02417
4898.31039,0.00837
4900.23886,0.00186
4902.16733,0.00083
4904.09580,0.00380
4906.02427,0.01442
4907.95274,0.02533
4909.88121,0.02985
4911.80967,0.02996
4913.73814,0.02480
4915.66661,0.00585
4917.59508,-0.02117
4919.52355,-0.02964
4921.45202,-0.01360
4923.38049,0.00690
4925.30896,0.02260
4927.23742,0.02597
4929.16589,0.01316
4931.09436,-0.00140
4933.02283,-0.00926
4934.95130,-0.00758
4936.87977,0.00805
4938.80824,0.01875
4940.73670,0.00815
4942.66517,-0.00284
4944.59364,0.00433
4946.52211,0.01533
4948.45058,0.01386
4950.37905,0.00511
4952.30752,0.00362
4954.23599,0.01216
4956.16445,0.01280
4958.09292,0.00096
4960.02139,-0.00430
4961.94986,0.00638
4963.87833,0.02559
4965.80680,0.04045
4967.73527,0.04093
4969.66373,0.02934
4971.59220,0.01871
4973.52067,0.01489
4975.44914,0.01248
4977.37761,0.01206
4979.30608,0.02095
4981.23455,0.03418
4983.16302,0.03575
4985.09148,0.02332
4987.01995,0.00834
4988.94842,0.00237
4990.87689,0.00151
4992.80536,-0.00316
4994.73383,-0.00475
4996.66230,-0.00179
4998.59076,0.00190
5000.51923,0.00668
5002.44770,0.00620
5004.37617,0.00325
5006.30464,0.00957
5008.23311,0.01684
5010.16158,0.01329
5012.09005,0.00662
5014.01851,0.00676
5015.94698,0.01343
5017.87545,0.01855
5019.80392,0.02011
5021.73239,0.02301
5023.66086,0.02500
5025.58933,0.01718
5027.51779,0.00407
5029.44626,0.00539
5031.37473,0.01765
5033.30320,0.01865
5035.23167,0.00991
5037.16014,0.01114
5039.08861,0.01661
5041.01708,0.01270
5042.94554,0.01603
5044.87401,0.02940
5046.80248,0.03719
5048.73095,0.04203
5050.65942,0.04290
5052.58789,0.03137
5054.51636,0.02057
5056.44482,0.02454
5058.37329,0.02831
5060.30176,0.01800
5062.23023,0.00886
5064.15870,0.01428
5066.08717,0.02275
5068.01564,0.02550
5069.94410,0.02422
5071.87257,0.01874
5073.80104,0.01473
5075.72951,0.01418
5077.65798,0.01520
5079.58645,0.02280
5081.51492,0.03550
5083.44339,0.04082
5085.37185,0.03571
5087.30032,0.03112
5089.22879,0.03034
5091.15726,0.03089
5093.08573,0.03339
5095.01420,0.03597
5096.94267,0.03794
5098.87113,0.03489
5100.79960,0.02094
5102.72807,0.00422
5104.65654,0.00008
5106.58501,0.01297
5108.51348,0.03351
5110.44195,0.05121
5112.37042,0.05476
5114.29888,0.04210
5116.22735,0.03315
5118.15582,0.03342
5120.08429,0.02785
5122.01276,0.01767
5123.94123,0.01136
5125.86970,0.00834
5127.79816,0.00678
5129.72663,0.00306
5131.65510,0.00329
5133.58357,0.01477
5135.51204,0.02664
5137.44051,0.03359
5139.36898,0.03316
5141.29745,0.02346
5143.22591,0.01630
5145.15438,0.01960
5147.08285,0.02916
5149.01132,0.03113
5150.93979,0.02510
5152.86826,0.02706
5154.79673,0.03391
5156.72519,0.02988
5158.65366,0.02268
5160.58213,0.02287
5162.51060,0.02080
5164.43907,0.02327
5166.36754,0.03510
5168.29601,0.03938
5170.22448,0.03619
5172.15294,0.03355
5174.08141,0.02601
5176.00988,0.01770
5177.93835,0.02129
5179.86682,0.02213
5181.79529,0.00943
5183.72376,0.00972
5185.65222,0.03491
5187.58069,0.05452
5189.50916,0.04797
5191.43763,0.03375
5193.36610,0.02855
5195.29457,0.02717
5197.22304,0.03188
5199.15151,0.04128
5201.07997,0.04149
5203.00844,0.04128
5204.93691,0.04823
5206.86538,0.05706
5208.79385,0.06418
5210.72232,0.05645
5212.65079,0.04570
5214.57925,0.05041
5216.50772,0.05571
5218.43619,0.04612
5220.36466,0.02946
5222.29313,0.01773
5224.22160,0.01499
5226.15007,0.02593
5228.07854,0.03290
5230.00700,0.02077
5231.93547,0.02193
5233.86394,0.05883
5235.79241,0.08919
5237.72088,0.07999
5239.64935,0.06262
5241.57782,0.05998
5243.50628,0.05301
5245.43475,0.03253
5247.36322,0.02259
5249.29169,0.04245
5251.22016,0.07070
5253.14863,0.07834
5255.07710,0.06632
5257.00556,0.05542
5258.93403,0.04844
5260.86250,0.04302
5262.79097,0.04630
5264.71944,0.05291
5266.64791,0.05901
5268.57638,0.06113
5270.50485,0.05077
5272.43331,0.03774
5274.36178,0.03454
5276.29025,0.03140
5278.21872,0.01506
5280.14719,-0.00407
5282.07566,-0.00014
5284.00413,0.02011
5285.93259,0.02885
5287.86106,0.02875
5289.78953,0.02337
5291.71800,0.01450
5293.64647,0.01766
5295.57494,0.02953
5297.50341,0.03719
5299.43188,0.03764
5301.36034,0.04345
5303.28881,0.05333
5305.21728,0.05393
5307.14575,0.05646
5309.07422,0.06266
5311.00269,0.05192
5312.93116,0.02591
5314.85962,0.00494
5316.78809,0.01018
5318.71656,0.03173
5320.64503,0.04030
5322.57350,0.04028
5324.50197,0.03792
5326.43044,0.03254
5328.35891,0.03575
5330.28737,0.03776
5332.21584,0.02578
5334.14431,0.02505
5336.07278,0.06169
5338.00125,0.11018
5339.92972,0.13174
5341.85819,0.11655
5343.78665,0.06134
5345.71512,0.01271
5347.64359,0.02384
5349.57206,0.06700
5351.50053,0.10449
5353.42900,0.10556
5355.35747,0.06468
5357.28594,0.02715
5359.21440,0.01901
5361.14287,0.03031
5363.07134,0.05026
5364.99981,0.07207
5366.92828,0.07939
5368.85675,0.06659
5370.78522,0.06135
5372.71368,0.08248
5374.64215,0.09983
5376.57062,0.09574
5378.49909,0.09054
5380.42756,0.07982
5382.35603,0.06514
5384.28450,0.06579
5386.21297,0.07632
5388.14143,0.07023
5390.06990,0.04774
5391.99837,0.03890
5393.92684,0.05719
5395.85531,0.07265
5397.78378,0.07283
5399.71225,0.07708
5401.64071,0.09115
5403.56918,0.10539
5405.49765,0.11751
5407.42612,0.11660
5409.35459,0.08100
5411.28306,0.03826
5413.21153,0.03913
5415.13999,0.06835
5417.06846,0.09701
5418.99693,0.12233
5420.92540,0.12972
5422.85387,0.11324
5424.78234,0.08952
5426.71081,0.07409
5428.63928,0.07084
5430.56774,0.07148
5432.49621,0.06185
5434.42468,0.04423
5436.35315,0.03547
5438.28162,0.03940
5440.21009,0.05235
5442.13856,0.07431
5444.06702,0.09476
5445.99549,0.09503
5447.92396,0.08479
5449.85243,0.08184
5451.78090,0.08728
5453.70937,0.10462
5455.63784,0.11582
5457.56631,0.10971
5459.49477,0.10056
5461.42324,0.08413
5463.35171,0.06725
5465.28018,0.05965
5467.20865,0.04554
5469.13712,0.02844
5471.06559,0.02761
5472.99405,0.03454
5474.92252,0.04653
5476.85099,0.06380
5478.77946,0.06944
5480.70793,0.07508
5482.63640,0.09583
5484.56487,0.12551
5486.49334,0.14987
5488.42180,0.14026
5490.35027,0.09610
5492.27874,0.06145
5494.20721,0.05732
5496.13568,0.06383
5498.06415,0.06406
5499.99262,0.05796
5501.92108,0.05804
5503.84955,0.07735
5505.77802,0.10888
5507.70649,0.12976
5509.63496,0.12408
5511.56343,0.09719
5513.49190,0.07226
5515.42037,0.05972
5517.34883,0.05747
5519.27730,0.06184
5521.20577,0.06790
5523.13424,0.08467
5525.06271,0.10359
5526.99118,0.10774
5528.91965,0.10225
5530.84811,0.09348
5532.77658,0.08602
5534.70505,0.08496
5536.63352,0.09192
5538.56199,0.10717
5540.49046,0.11957
5542.41893,0.10837
5544.34740,0.08152
5546.27586,0.06430
5548.20433,0.06360
5550.13280,0.08125
5552.06127,0.10850
5553.98974,0.11422
5555.91821,0.09495
5557.84668,0.08635
5559.77514,0.09288
5561.70361,0.09446
5563.63208,0.08537
5565.56055,0.06857
5567.48902,0.04957
5569.41749,0.03074
5571.34596,0.02164
5573.27443,0.02625
5575.20289,0.03770
5577.13136,0.05832
5579.05983,0.08162
5580.98830,0.08975
5582.91677,0.08278
5584.84524,0.07144
5586.77371,0.06072
5588.70217,0.06236
5590.63064,0.07828
5592.55911,0.09900
5594.48758,0.11651
5596.41605,0.11112
5598.34452,0.08428
5600.27299,0.06276
5602.20145,0.04952
5604.12992,0.03936
5606.05839,0.04007
5607.98686,0.05119
5609.91533,0.05253
5611.84380,0.03576
5613.77227,0.03276
5615.70074,0.05628
5617.62920,0.07707
5619.55767,0.08237
5621.48614,0.09055
5623.41461,0.10462
5625.34308,0.10387
5627.27155,0.09945
5629.20002,0.11265
5631.12848,0.11812
5633.05695,0.10004
5634.98542,0.09613
5636.91389,0.12659
5638.84236,0.14010
5640.77083,0.11154
5642.69930,0.07887
5644.62777,0.07278
5646.55623,0.09517
5648.48470,0.11197
5650.41317,0.09784
5652.34164,0.08716
5654.27011,0.10030
5656.19858,0.10631
5658.12705,0.09664
5660.05551,0.09513
5661.98398,0.10456
5663.91245,0.09714
5665.84092,0.07284
5667.76939,0.06500
5669.69786,0.07677
5671.62633,0.08819
5673.55480,0.09003
5675.48326,0.08953
5677.41173,0.09942
5679.34020,0.10760
5681.26867,0.09659
5683.19714,0.07517
5685.12561,0.06153
5687.05408,0.06300
5688.98254,0.08351
5690.91101,0.10690
5692.83948,0.09489
5694.76795,0.05985
5696.69642,0.04691
5698.62489,0.05008
5700.55336,0.03682
5702.48183,0.01188
5704.41029,0.01771
5706.33876,0.05788
5708.26723,0.08271
5710.19570,0.08355
5712.12417,0.09057
5714.05264,0.11033
5715.98111,0.11473
5717.90957,0.08493
5719.83804,0.07387
5721.76651,0.10287
5723.69498,0.11888
5725.62345,0.12092
5727.55192,0.12477
5729.48039,0.11757
5731.40886,0.10472
5733.33732,0.09750
5735.26579,0.09999
5737.19426,0.10501
5739.12273,0.10214
5741.05120,0.09504
5742.97967,0.09546
5744.90814,0.10350
5746.83660,0.11392
5748.76507,0.11273
5750.69354,0.07105
5752.62201,0.03537
5754.55048,0.06303
5756.47895,0.08813
5758.40742,0.07049
5760.33588,0.05822
5762.26435,0.07675
5764.19282,0.09932
5766.12129,0.09866
5768.04976,0.10085
5769.97823,0.11632
5771.90670,0.10967
5773.83517,0.09621
5775.76363,0.09464
5777.69210,0.07592
5779.62057,0.03987
5781.54904,0.02966
5783.47751,0.06446
5785.40598,0.11041
5787.33445,0.13447
5789.26291,0.11856
5791.19138,0.07263
5793.11985,0.04823
5795.04832,0.04630
5796.97679,0.03386
5798.90526,0.01910
5800.83373,0.01291
5802.76220,0.01252
5804.69066,0.01477
5806.61913,0.01942
5808.54760,0.03739
5810.47607,0.05604
5812.40454,0.05924
5814.33301,0.06748
5816.26148,0.07016
5818.18994,0.04453
5820.11841,0.02357
5822.04688,0.04033
5823.97535,0.08262
5825.90382,0.11261
5827.83229,0.10618
5829.76076,0.08424
5831.68923,0.09392
5833.61769,0.12419
5835.54616,0.11407
5837.47463,0.08900
5839.40310,0.10670
5841.33157,0.13736
5843.26004,0.14343
5845.18851,0.12592
5847.11697,0.08736
5849.04544,0.05830
5850.97391,0.08212
5852.90238,0.13454
5854.83085,0.15375
5856.75932,0.11237
5858.68779,0.05836
5860.61626,0.04718
5862.54472,0.05948
5864.47319,0.07796
5866.40166,0.09701
5868.33013,0.09518
5870.25860,0.09917
5872.18707,0.11299
5874.11554,0.10546
5876.04400,0.09046
5877.97247,0.09381
5879.90094,0.10578
5881.82941,0.10053
5883.75788,0.06989
5885.68635,0.04690
5887.61482,0.05558
5889.54329,0.06416
5891.47175,0.06353
5893.40022,0.07273
5895.32869,0.08516
5897.25716,0.07987
5899.18563,0.05480
5901.11410,0.05090
5903.04257,0.07381
5904.97103,0.08487
5906.89950,0.07743
5908.82797,0.07455
5910.75644,0.09746
5912.68491,0.12040
5914.61338,0.11542
5916.54185,0.09257
5918.47032,0.06968
5920.39878,0.06012
5922.32725,0.06290
5924.25572,0.06220
5926.18419,0.03847
5928.11266,0.01403
5930.04113,0.02882
5931.96960,0.06597
5933.89806,0.08274
5935.82653,0.06252
5937.75500,0.04011
5939.68347,0.04299
5941.61194,0.04720
5943.54041,0.06163
5945.46888,0.09999
5947.39734,0.11286
5949.32581,0.08766
5951.25428,0.07741
5953.18275,0.09529
5955.11122,0.10252
5957.03969,0.09719
5958.96816,0.08579
5960.89663,0.06038
5962.82509,0.06289
5964.75356,0.11140
5966.68203,0.15117
5968.61050,0.15280
5970.53897,0.16165
5972.46744,0.16721
5974.39591,0.11954
5976.32437,0.08279
5978.25284,0.10641
5980.18131,0.13481
5982.10978,0.14504
5984.03825,0.17538
5985.96672,0.21349
5987.89519,0.21513
5989.82366,0.19685
5991.75212,0.16544
5993.68059,0.09777
5995.60906,0.04235
5997.53753,0.07254
5999.46600,0.14525
6001.39447,0.17463
6003.32294,0.15922
6005.25140,0.15706
6007.17987,0.15147
6009.10834,0.09273
6011.03681,0.03358
6012.96528,0.03470
6014.89375,0.05805
6016.82222,0.06837
6018.75069,0.09445
6020.67915,0.13590
6022.60762,0.14377
6024.53609,0.10292
6026.46456,0.06067
6028.39303,0.06133
6030.32150,0.07152
6032.24997,0.06607
6034.17843,0.07247
6036.10690,0.07905
6038.03537,0.06303
6039.96384,0.03576
6041.89231,0.01668
6043.82078,0.02547
6045.74925,0.05408
6047.67772,0.08194
6049.60618,0.08093
6051.53465,0.04081
6053.46312,0.02180
6055.39159,0.05930
6057.32006,0.09827
6059.24853,0.09831
6061.17700,0.08155
6063.10546,0.05316
6065.03393,0.01656
6066.96240,0.01165
6068.89087,0.02849
6070.81934,0.02807
6072.74781,0.03297
6074.67628,0.06416
6076.60475,0.07293
6078.53321,0.04306
6080.46168,0.03731
6082.39015,0.07091
6084.31862,0.09613
6086.24709,0.10009
6088.17556,0.08518
6090.10403,0.03602
6092.03249,-0.02208
6093.96096,-0.04990
6095.88943,-0.05141
6097.81790,-0.02583
6099.74637,0.03508
6101.67484,0.09951
6103.60331,0.14353
6105.53177,0.17682
6107.46024,0.18462
6109.38871,0.16284
6111.31718,0.13721
6113.24565,0.09076
6115.17412,0.02883
6117.10259,0.01304
6119.03106,0.03852
6120.95952,0.03576
6122.88799,0.01318
6124.81646,0.00916
6126.74493,0.04036
6128.67340,0.08806
6130.60187,0.08466
6132.53034,0.03397
6134.45880,0.01015
6136.38727,0.04750
6138.31574,0.12217
6140.24421,0.17760
6142.17268,0.16805
6144.10115,0.09707
6146.02962,0.02764
6147.95809,0.01593
6149.88655,0.04603
6151.81502,0.06991
6153.74349,0.06982
6155.67196,0.06279
6157.60043,0.06094
6159.52890,0.06401
6161.45737,0.07554
6163.38583,0.07675
6165.31430,0.05700
6167.24277,0.03554
6169.17124,0.03013
6171.09971,0.05408
6173.02818,0.05919
6174.95665,0.03694
6176.88512,0.06633
6178.81358,0.11339
6180.74205,0.10901
6182.67052,0.09210
6184.59899,0.08134
6186.52746,0.04954
6188.45593,0.00000
6190.38440,-0.03437
6192.31286,-0.04200
6194.24133,-0.02333
6196.16980,0.01835
6198.09827,0.04125
6200.02674,0.04272
6201.95521,0.07420
6203.88368,0.10620
6205.81215,0.09948
6207.74061,0.10747
6209.66908,0.12611
6211.59755,0.09648
6213.52602,0.05079
6215.45449,0.02522
6217.38296,0.00421
6219.31143,-0.00138
6221.23989,0.03247
6223.16836,0.10558
6225.09683,0.17355
6227.02530,0.16120
6228.95377,0.07858
6230.88224,0.01853
6232.81071,0.03028
6234.73918,0.06370
6236.66764,0.04716
6238.59611,0.00617
6240.52458,0.01582
6242.45305,0.06974
6244.38152,0.11214
6246.30999,0.12687
6248.23846,0.13412
6250.16692,0.13126
6252.09539,0.10122
6254.02386,0.07797
6255.95233,0.07650
6257.88080,0.07289
6259.80927,0.06588
6261.73774,0.05220
6263.66621,0.00997
6265.59467,-0.02848
6267.52314,-0.01738
6269.45161,0.00166
6271.38008,0.01653
6273.30855,0.02843
6275.23702,-0.00110
6277.16549,-0.02738
6279.09395,-0.00610
6281.02242,0.02826
6282.95089,0.04853
6284.87936,0.01717
6286.80783,-0.03732
6288.73630,-0.02876
6290.66477,0.03801
6292.59323,0.08832
6294.52170,0.08996
6296.45017,0.08193
6298.37864,0.07885
6300.30711,0.04747
6302.23558,0.03324
6304.16405,0.09022
6306.09252,0.15817
6308.02098,0.15606
6309.94945,0.09081
6311.87792,0.02028
6313.80639,-0.01327
6315.73486,0.02438
6317.66333,0.08391
6319.59180,0.07815
6321.52026,0.01633
6323.44873,0.00061
6325.37720,0.06095
6327.30567,0.09326
6329.23414,0.05881
6331.16261,0.04206
6333.09108,0.07481
6335.01955,0.10978
6336.94801,0.12770
6338.87648,0.12841
6340.80495,0.11605
6342.73342,0.09776
6344.66189,0.06430
6346.59036,0.01686
6348.51883,-0.03693
6350.44729,-0.06456
6352.37576,-0.05165
6354.30423,-0.03037
6356.23270,-0.00416
6358.16117,0.01223
6360.08964,0.00392
6362.01811,-0.00924
6363.94658,-0.00788
6365.87504,0.01503
6367.80351,0.07189
6369.73198,0.14290
6371.66045,0.18447
6373.58892,0.17902
6375.51739,0.11607
6377.44586,0.04354
6379.37432,0.03427
6381.30279,0.05906
6383.23126,0.03963
6385.15973,-0.01370
6387.08820,-0.03849
6389.01667,-0.01217
6390.94514,0.05414
6392.87361,0.08640
6394.80207,0.03772
6396.73054,-0.01149
6398.65901,-0.00169
6400.58748,0.02007
6402.51595,0.00240
6404.44442,0.00031
6406.37289,0.04272
6408.30135,0.07306
6410.22982,0.09276
6412.15829,0.15189
6414.08676,0.20705
6416.01523,0.19182
6417.94370,0.12934
6419.87217,0.06845
6421.80064,0.00570
6423.72910,-0.05102
6425.65757,-0.04303
6427.58604,0.03032
6429.51451,0.08670
6431.44298,0.08457
6433.37145,0.05202
6435.29992,0.03494
6437.22838,0.04598
6439.15685,0.04561
6441.08532,0.04498
6443.01379,0.10906
6444.94226,0.19279
6446.87073,0.20399
6448.79920,0.16609
6450.72766,0.12930
6452.65613,0.09188
6454.58460,0.06056
6456.51307,0.06757
6458.44154,0.07914
6460.37001,0.05093
6462.29848,0.03238
6464.22695,0.08624
6466.15541,0.18969
6468.08388,0.23680
6470.01235,0.17965
6471.94082,0.10400
6473.86929,0.06808
6475.79776,0.06510
6477.72623,0.10144
6479.65469,0.14537
6481.58316,0.13242
6483.51163,0.08110
6485.44010,0.07046
6487.36857,0.07853
6489.29704,0.03283
6491.22551,-0.02321
6493.15398,-0.02121
6495.08244,0.01935
6497.01091,0.09897
6498.93938,0.18008
6500.86785,0.18365
6502.79632,0.12805
6504.72479,0.08909
6506.65326,0.08304
6508.58172,0.11126
6510.51019,0.16855
6512.43866,0.19911
6514.36713,0.18005
6516.29560,0.12774
6518.22407,0.04850
6520.15254,0.00075
6522.08101,0.02610
6524.00947,0.09010
6525.93794,0.13064
6527.86641,0.10831
6529.79488,0.07201
6531.72335,0.09649
6533.65182,0.15092
6535.58029,0.17904
6537.50875,0.14521
6539.43722,0.08865
6541.36569,0.10258
6543.29416,0.13264
6545.22263,0.09997
6547.15110,0.04598
6549.07957,0.04066
6551.00804,0.09475
6552.93650,0.14833
6554.86497,0.16757
6556.79344,0.14069
6558.72191,0.10812
6560.65038,0.11114
6562.57885,0.13174
6564.50732,0.13699
6566.43578,0.10774
6568.36425,0.05487
6570.29272,-0.00654
6572.22119,-0.05040
6574.14966,-0.05635
6576.07813,-0.01475
6578.00660,0.07391
6579.93507,0.17433
6581.86353,0.22221
6583.79200,0.16735
6585.72047,0.07295
6587.64894,0.01533
6589.57741,-0.01449
6591.50588,-0.00582
6593.43435,0.09571
6595.36281,0.19209
6597.29128,0.16313
6599.21975,0.08964
6601.14822,0.04637
6603.07669,0.06849
6605.00516,0.12960
6606.93363,0.11986
6608.86210,0.02854
6610.79056,-0.02092
6612.71903,0.03722
6614.64750,0.12281
6616.57597,0.13453
6618.50444,0.08206
6620.43291,0.03725
6622.36138,0.00655
6624.28984,-0.00374
6626.21831,0.04987
6628.14678,0.14411
6630.07525,0.19827
6632.00372,0.19241
6633.93219,0.19036
6635.86066,0.21410
6637.78912,0.20864
6639.71759,0.16550
6641.64606,0.10304
6643.57453,0.05759
6645.50300,0.06956
6647.43147,0.10443
6649.35994,0.13210
6651.28841,0.15515
6653.21687,0.17420
6655.14534,0.14115
6657.07381,0.01246
6659.00228,-0.08213
6660.93075,-0.05938
6662.85922,-0.02958
6664.78769,-0.02903
6666.71615,-0.00572
6668.64462,0.03580
6670.57309,0.06100
6672.50156,0.05409
6674.43003,0.03617
6676.35850,0.05756
6678.28697,0.11487
6680.21544,0.13934
6682.14390,0.09438
6684.07237,0.02267
6686.00084,-0.02562
6687.92931,-0.01906
6689.85778,0.05443
6691.78625,0.11080
6693.71472,0.10195
6695.64318,0.05391
6697.57165,0.01129
6699.50012,0.05653
6701.42859,0.13206
6703.35706,0.10261
6705.28553,0.02612
6707.21400,-0.04107
6709.14247,-0.09185
6711.07093,-0.05623
6712.99940,0.03145
6714.92787,0.06515
6716.85634,0.05864
6718.78481,0.08864
6720.71328,0.06049
6722.64175,-0.05737
6724.57021,-0.10329
6726.49868,-0.07262
6728.42715,-0.05036
6730.35562,0.00036
6732.28409,0.08687
6734.21256,0.12756
6736.14103,0.09657
6738.06950,0.05392
6739.99796,0.06805
6741.92643,0.11755
6743.85490,0.12526
6745.78337,0.07986
6747.71184,0.01152
6749.64031,-0.00658
6751.56878,0.02739
6753.49724,0.05446
6755.42571,0.06342
6757.35418,0.03479
6759.28265,-0.03103
6761.21112,-0.06812
6763.13959,-0.08566
6765.06806,-0.10899
6766.99653,-0.09389
6768.92499,-0.10100
6770.85346,-0.10569
6772.78193,0.00094
6774.71040,0.12006
6776.63887,0.16428
6778.56734,0.19081
6780.49581,0.21075
6782.42427,0.20223
6784.35274,0.16281
6786.28121,0.08829
6788.20968,0.04063
6790.13815,0.09480
6792.06662,0.14546
6793.99509,0.10024
6795.92355,0.07518
6797.85202,0.11641
6799.78049,0.16578
6801.70896,0.19927
6803.63743,0.21217
6805.56590,0.16101
6807.49437,0.06002
6809.42284,-0.00530
6811.35130,-0.03342
6813.27977,-0.04678
6815.20824,0.03545
6817.13671,0.16579
6819.06518,0.19841
6820.99365,0.15383
6822.92212,0.08622
6824.85058,0.03496
6826.77905,0.01099
6828.70752,0.03884
6830.63599,0.10070
6832.56446,0.08701
6834.49293,0.04621
6836.42140,0.06778
6838.34987,0.06767
6840.27833,0.03523
6842.20680,0.05632
6844.13527,0.12426
6846.06374,0.17743
6847.99221,0.17993
6849.92068,0.21127
6851.84915,0.29363
6853.77761,0.30426
6855.70608,0.18393
6857.63455,0.01753
6859.56302,-0.03708
6861.49149,0.02512
6863.41996,0.05156
6865.34843,0.00975
6867.27690,0.00887
6869.20536,0.05572
6871.13383,0.07247
6873.06230,0.09325
6874.99077,0.13523
6876.91924,0.12151
6878.84771,0.05128
6880.77618,-0.03918
6882.70464,-0.07954
6884.63311,-0.05028
6886.56158,-0.02714
6888.49005,-0.00450
6890.41852,0.07338
6892.34699,0.14562
6894.27546,0.13749
6896.20393,0.10498
6898.13239,0.11311
6900.06086,0.12241
6901.98933,0.11224
6903.91780,0.07731
6905.84627,-0.01972
6907.77474,-0.09307
6909.70321,-0.03213
6911.63167,0.08021
6913.56014,0.07848
6915.48861,0.02045
6917.41708,0.05271
6919.34555,0.10851
6921.27402,0.17535
6923.20249,0.29304
6925.13096,0.32396
6927.05942,0.25341
6928.98789,0.15833
6930.91636,0.06775
6932.84483,0.05580
6934.77330,0.10861
6936.70177,0.12641
6938.63024,0.05679
6940.55870,-0.05670
6942.48717,-0.05400
6944.41564,0.03638
6946.34411,0.10504
6948.27258,0.14613
6950.20105,0.18166
6952.12952,0.18365
6954.05799,0.15679
6955.98645,0.17787
6957.91492,0.22775
6959.84339,0.21353
6961.77186,0.13869
6963.70033,0.07474
6965.62880,0.01505
6967.55727,-0.06040
6969.48573,-0.04995
6971.41420,0.05456
6973.34267,0.04546
6975.27114,-0.06708
6977.19961,-0.05679
6979.12808,0.01322
6981.05655,0.04296
6982.98501,0.07963
6984.91348,0.11990
6986.84195,0.12797
6988.77042,0.07463
6990.69889,-0.03266
6992.62736,-0.09991
6994.55583,-0.11947
6996.48430,-0.07450
6998.41276,0.06613
7000.34123,0.13508
7002.26970,0.10623
7004.19817,0.09659
7006.12664,0.06773
7008.05511,0.03440
7009.98358,0.08997
7011.91204,0.13670
7013.84051,0.09927
7015.76898,0.07018
7017.69745,0.01840
7019.62592,-0.08545
7021.55439,-0.12114
7023.48286,-0.10977
7025.41133,-0.14926
7027.33979,-0.16745
7029.26826,-0.05153
7031.19673,0.11012
7033.12520,0.19857
7035.05367,0.21923
7036.98214,0.20291
7038.91061,0.18799
7040.83907,0.23240
7042.76754,0.25952
7044.69601,0.16139
7046.62448,0.06583
7048.55295,0.01928
7050.48142,-0.03019
7052.40989,-0.06942
7054.33836,-0.06839
7056.26682,0.03482
7058.19529,0.22484
7060.12376,0.30244
7062.05223,0.21355
7063.98070,0.10257
7065.90917,0.08810
7067.83764,0.14072
7069.76610,0.19855
7071.69457,0.21342
7073.62304,0.20771
7075.55151,0.18146
7077.47998,0.11391
7079.40845,0.03204
7081.33692,0.02878
7083.26539,0.09368
7085.19385,0.08827
7087.12232,0.01937
7089.05079,-0.00197
7090.97926,0.06343
7092.90773,0.10394
7094.83620,0.06937
7096.76467,0.08391
7098.69313,0.15021
7100.62160,0.17526
7102.55007,0.15238
7104.47854,0.04887
7106.40701,-0.05074
7108.33548,-0.04032
7110.26395,-0.07483
7112.19242,-0.16810
7114.12088,-0.13306
7116.04935,0.04146
7117.97782,0.21953
7119.90629,0.34094
7121.83476,0.43736
7123.76323,0.46600
7125.69170,0.35414
7127.62016,0.13590
7129.54863,-0.01892
7131.47710,-0.05734
7133.40557,-0.01614
7135.33404,0.04742
7137.26251,0.04746
7139.19098,0.05651
7141.11944,0.13827
7143.04791,0.15753
7144.97638,0.05495
7146.90485,-0.05622
7148.83332,-0.12356
7150.76179,-0.17136
7152.69026,-0.17536
7154.61873,-0.14816
7156.54719,-0.08953
7158.47566,0.01255
7160.40413,0.09132
7162.33260,0.13442
7164.26107,0.18991
7166.18954,0.21584
7168.11801,0.16222
7170.04647,0.07660
7171.97494,0.01230
7173.90341,0.06174
7175.83188,0.17699
7177.76035,0.19408
7179.68882,0.12961
7181.61729,0.02655
7183.54576,-0.06873
7185.47422,-0.00815
7187.40269,0.13458
7189.33116,0.14732
7191.25963,0.06053
7193.18810,0.07070
7195.11657,0.09149
7197.04504,0.04663
7198.97350,0.01006
7200.90197,-0.00027
7202.83044,0.01982
7204.75891,0.06532
7206.68738,0.04234
7208.61585,0.00765
7210.54432,0.06538
7212.47279,0.12817
7214.40125,0.07425
7216.32972,-0.08865
7218.25819,-0.16113
7220.18666,0.04663
7222.11513,0.27666
7224.04360,0.28146
7225.97207,0.13400
7227.90053,0.09923
7229.82900,0.18909
7231.75747,0.27554
7233.68594,0.27754
7235.61441,0.21991
7237.54288,0.16959
7239.47135,0.18267
7241.39982,0.22082
7243.32828,0.21910
7245.25675,0.21707
7247.18522,0.25631
7249.11369,0.31099
7251.04216,0.32638
7252.97063,0.24800
7254.89910,0.10396
7256.82756,-0.00225
7258.75603,-0.08218
7260.68450,-0.11587
7262.61297,-0.05083
7264.54144,0.03408
7266.46991,0.10299
7268.39838,0.11591
7270.32685,0.03811
7272.25531,-0.00856
7274.18378,0.05082
7276.11225,0.10082
7278.04072,0.10475
7279.96919,0.04663
7281.89766,-0.00528
7283.82613,0.04776
7285.75459,0.10634
7287.68306,0.10616
7289.61153,0.11647
7291.54000,0.18945
7293.46847,0.22756
7295.39694,0.11165
7297.32541,-0.03989
7299.25387,-0.09353
7301.18234,-0.10429
7303.11081,-0.14289
7305.03928,-0.18096
7306.96775,-0.14423
7308.89622,-0.10027
7310.82469,-0.20186
7312.75316,-0.25502
7314.68162,-0.15177
7316.61009,-0.10639
7318.53856,-0.15937
7320.46703,-0.13099
7322.39550,-0.05038
7324.32397,0.03601
7326.25244,0.05959
7328.18090,0.03473
7330.10937,0.06997
7332.03784,0.19028
7333.96631,0.33586
7335.89478,0.37938
7337.82325,0.29972
7339.75172,0.21177
7341.68019,0.24609
7343.60865,0.28903
7345.53712,0.35734
7347.46559,0.47502
7349.39406,0.43077
7351.32253,0.21490
7353.25100,0.03657
7355.17947,-0.06517
7357.10793,-0.11405
7359.03640,-0.05230
7360.96487,-0.00027
7362.89334,-0.03698
7364.82181,-0.02452
7366.75028,0.03999
7368.67875,0.06157
7370.60722,0.01690
7372.53568,-0.00599
7374.46415,0.08441
7376.39262,0.16483
7378.32109,0.12117
7380.24956,0.16553
7382.17803,0.29917
7384.10650,0.26561
7386.03496,0.11822
7387.96343,0.02944
7389.89190,-0.00720
7391.82037,0.00205
7393.74884,0.00626
7395.67731,-0.03426
7397.60578,-0.08270
7399.53425,-0.04782
7401.46271,0.07583
7403.39118,0.19214
7405.31965,0.27074
7407.24812,0.29960
7409.17659,0.25826
7411.10506,0.12622
7413.03353,-0.06196
7414.96199,-0.17384
7416.89046,-0.14437
7418.81893,0.01288
7420.74740,0.17767
7422.67587,0.14489
7424.60434,0.01679
7426.53281,-0.07015
7428.46128,-0.09272
7430.38974,-0.01178
7432.31821,0.12424
7434.24668,0.17761
7436.17515,0.02558
7438.10362,-0.10882
7440.03209,0.06324
7441.96056,0.29139
7443.88902,0.29930
7445.81749,0.20732
7447.74596,0.21581
7449.67443,0.26547
7451.60290,0.21094
7453.53137,0.17817
7455.45984,0.25393
7457.38831,0.33496
7459.31677,0.30092
7461.24524,0.21817
7463.17371,0.26467
7465.10218,0.31000
7467.03065,0.26773
7468.95912,0.21706
7470.88759,0.10876
7472.81605,-0.06245
7474.74452,-0.14474
7476.67299,-0.06171
7478.60146,0.12478
7480.52993,0.19118
7482.45840,0.05329
7484.38687,-0.09412
7486.31533,-0.15203
7488.24380,-0.14451
7490.17227,-0.06456
7492.10074,0.04821
7494.02921,0.11115
7495.95768,0.20179
7497.88615,0.39933
