399.19301,0.04611
401.12148,-0.36018
403.04995,-0.11801
404.97842,0.15692
406.90689,0.27394
408.83536,0.16966
410.76382,-0.04389
412.69229,-0.15102
414.62076,-0.16974
416.54923,-0.15373
418.47770,-0.01635
420.40617,0.20283
422.33464,0.27516
424.26311,0.22808
426.19157,0.16792
428.12004,0.16520
430.04851,0.18737
431.97698,0.13481
433.90545,0.02681
435.83392,-0.03250
437.76239,-0.00435
439.69085,0.06414
441.61932,0.09608
443.54779,0.11564
445.47626,0.16871
447.40473,0.18183
449.33320,0.11170
451.26167,0.00768
453.19013,-0.03264
455.11860,0.07259
457.04707,0.23789
458.97554,0.28959
460.90401,0.22787
462.83248,0.11779
464.76095,0.00426
466.68942,-0.02810
468.61788,0.00798
470.54635,-0.00646
472.47482,-0.09438
474.40329,-0.11501
476.33176,-0.04820
478.26023,0.01954
480.18870,0.09894
482.11716,0.16908
484.04563,0.17134
485.97410,0.10604
487.90257,0.02553
489.83104,0.01233
491.75951,0.08228
493.68798,0.13163
495.61645,0.12934
497.54491,0.12627
499.47338,0.11817
501.40185,0.06946
503.33032,0.03339
505.25879,0.08128
507.18726,0.15017
509.11573,0.14691
511.04419,0.12995
512.97266,0.16159
514.90113,0.18632
516.82960,0.15387
518.75807,0.11046
520.68654,0.10837
522.61501,0.10644
524.54348,0.06568
526.47194,0.03706
528.40041,0.05838
530.32888,0.08790
532.25735,0.10388
534.18582,0.11356
536.11429,0.11295
538.04276,0.12585
539.97122,0.15055
541.89969,0.14667
543.82816,0.12571
545.75663,0.10971
547.68510,0.10717
549.61357,0.18079
551.54204,0.30988
553.47051,0.34914
555.39897,0.26736
557.32744,0.16551
559.25591,0.12302
561.18438,0.10468
563.11285,0.08192
565.04132,0.08474
566.96979,0.09538
568.89825,0.07891
570.82672,0.04987
572.75519,0.05299
574.68366,0.10062
576.61213,0.13807
578.54060,0.15193
580.46907,0.16566
582.39754,0.16085
584.32600,0.13075
586.25447,0.10662
588.18294,0.09885
590.11141,0.09545
592.03988,0.10062
593.96835,0.11516
595.89682,0.12524
597.82528,0.13927
599.75375,0.16233
601.68222,0.15929
603.61069,0.12917
605.53916,0.11699
607.46763,0.12223
609.39610,0.11769
611.32456,0.10898
613.25303,0.10408
615.18150,0.08866
617.10997,0.08632
619.03844,0.11445
620.96691,0.12808
622.89538,0.12562
624.82385,0.13594
626.75231,0.14560
628.68078,0.14161
630.60925,0.13541
632.53772,0.12986
634.46619,0.11279
636.39466,0.09365
638.32313,0.10144
640.25159,0.13838
642.18006,0.16547
644.10853,0.16088
646.03700,0.15094
647.96547,0.15302
649.89394,0.14663
651.82241,0.12991
653.75088,0.12556
655.67934,0.12636
657.60781,0.11838
659.53628,0.11534
661.46475,0.12789
663.39322,0.14062
665.32169,0.13621
667.25016,0.12277
669.17862,0.14276
671.10709,0.16869
673.03556,0.15692
674.96403,0.12673
676.89250,0.10714
678.82097,0.09978
680.74944,0.09313
682.67791,0.10185
684.60637,0.13665
686.53484,0.16493
688.46331,0.16085
690.39178,0.13931
692.32025,0.12615
694.24872,0.12984
696.17719,0.13820
698.10565,0.14141
700.03412,0.14010
701.96259,0.13453
703.89106,0.13067
705.81953,0.13866
707.74800,0.15475
709.67647,0.17427
711.60494,0.19006
713.53340,0.17906
715.46187,0.14199
717.39034,0.11445
719.31881,0.10979
721.24728,0.11163
723.17575,0.11291
725.10422,0.11483
727.03268,0.11960
728.96115,0.12982
730.88962,0.13666
732.81809,0.12952
734.74656,0.11978
736.67503,0.12205
738.60350,0.12795
740.53197,0.12953
742.46043,0.12246
744.38890,0.10725
746.31737,0.10700
748.24584,0.12656
750.17431,0.13360
752.10278,0.12404
754.03125,0.12343
755.95971,0.12702
757.88818,0.12292
759.81665,0.12061
761.74512,0.12963
763.67359,0.14152
765.60206,0.14115
767.53053,0.14036
769.45900,0.14947
771.38746,0.15218
773.31593,0.14932
775.24440,0.15161
777.17287,0.15294
779.10134,0.15354
781.02981,0.15513
782.95828,0.15398
784.88674,0.15414
786.81521,0.15194
788.74368,0.14311
790.67215,0.14374
792.60062,0.15814
794.52909,0.16373
796.45756,0.14973
798.38602,0.13212
800.31449,0.12492
802.24296,0.12707
804.17143,0.13069
806.09990,0.13725
808.02837,0.15476
809.95684,0.17168
811.88531,0.17174
813.81377,0.15843
815.74224,0.14025
817.67071,0.12937
819.59918,0.13094
821.52765,0.13469
823.45612,0.13930
825.38459,0.14828
827.31305,0.15538
829.24152,0.15041
831.16999,0.13299
833.09846,0.12400
835.02693,0.13339
836.95540,0.13567
838.88387,0.12462
840.81234,0.11933
842.74080,0.12329
844.66927,0.13123
846.59774,0.13810
848.52621,0.14715
850.45468,0.15801
852.38315,0.15233
854.31162,0.13449
856.24008,0.13366
858.16855,0.14895
860.09702,0.15686
862.02549,0.15288
863.95396,0.14729
865.88243,0.14705
867.81090,0.15406
869.73937,0.16823
871.66783,0.17819
873.59630,0.17009
875.52477,0.15683
877.45324,0.15235
879.38171,0.14769
881.31018,0.14430
883.23865,0.15133
885.16711,0.15742
887.09558,0.15096
889.02405,0.14407
890.95252,0.14250
892.88099,0.13818
894.80946,0.13560
896.73793,0.13451
898.66640,0.13099
900.59486,0.13606
902.52333,0.14803
904.45180,0.15078
906.38027,0.14415
908.30874,0.14004
910.23721,0.14258
912.16568,0.14471
914.09414,0.14190
916.02261,0.14006
917.95108,0.14255
919.87955,0.14702
921.80802,0.15187
923.73649,0.15064
925.66496,0.14298
927.59343,0.14196
929.52189,0.14942
931.45036,0.15261
933.37883,0.15021
935.30730,0.15126
937.23577,0.15591
939.16424,0.15733
941.09271,0.15252
943.02117,0.14735
944.94964,0.14832
946.87811,0.14965
948.80658,0.14453
950.73505,0.14053
952.66352,0.14832
954.59199,0.16294
956.52045,0.16739
958.44892,0.15912
960.37739,0.15376
962.30586,0.15290
964.23433,0.14668
966.16280,0.14226
968.09127,0.14683
970.01974,0.15270
971.94820,0.15283
973.87667,0.15213
975.80514,0.15540
977.73361,0.15357
979.66208,0.14358
981.59055,0.13752
983.51902,0.13775
985.44748,0.13439
987.37595,0.13282
989.30442,0.14102
991.23289,0.14628
993.16136,0.14790
995.08983,0.15907
997.01830,0.17157
998.94677,0.17206
1000.87523,0.16141
1002.80370,0.14823
1004.73217,0.14657
1006.66064,0.15540
1008.58911,0.15973
1010.51758,0.15749
1012.44605,0.15420
1014.37451,0.15465
1016.30298,0.16000
1018.23145,0.16359
1020.15992,0.16183
1022.08839,0.15656
1024.01686,0.14551
1025.94533,0.13722
1027.87380,0.14384
1029.80226,0.14873
1031.73073,0.14098
1033.65920,0.13935
1035.58767,0.15191
1037.51614,0.16515
1039.44461,0.16843
1041.37308,0.16592
1043.30154,0.16372
1045.23001,0.16289
1047.15848,0.15862
1049.08695,0.14874
1051.01542,0.14564
1052.94389,0.15708
1054.87236,0.16609
1056.80083,0.16011
1058.72929,0.15643
1060.65776,0.16320
1062.58623,0.16521
1064.51470,0.15927
1066.44317,0.14986
1068.37164,0.14116
1070.30011,0.14404
1072.22857,0.15267
1074.15704,0.15425
1076.08551,0.15542
1078.01398,0.16112
1079.94245,0.16559
1081.87092,0.16686
1083.79939,0.16773
1085.72786,0.16928
1087.65632,0.17190
1089.58479,0.17509
1091.51326,0.17481
1093.44173,0.16979
1095.37020,0.16431
1097.29867,0.16329
1099.22714,0.16569
1101.15560,0.16764
1103.08407,0.16906
1105.01254,0.16935
1106.94101,0.17073
1108.86948,0.17819
1110.79795,0.18320
1112.72642,0.17603
1114.65489,0.16169
1116.58335,0.14930
1118.51182,0.15036
1120.44029,0.16192
1122.36876,0.16672
1124.29723,0.16660
1126.22570,0.16833
1128.15417,0.16264
1130.08263,0.15167
1132.01110,0.15074
1133.93957,0.15602
1135.86804,0.15716
1137.79651,0.15617
1139.72498,0.15199
1141.65345,0.14642
1143.58191,0.14897
1145.51038,0.15742
1147.43885,0.16188
1149.36732,0.16136
1151.29579,0.16071
1153.22426,0.16373
1155.15273,0.17138
1157.08120,0.17940
1159.00966,0.18081
1160.93813,0.17309
1162.86660,0.16500
1164.79507,0.16519
1166.72354,0.16734
1168.65201,0.16546
1170.58048,0.16234
1172.50894,0.16036
1174.43741,0.16122
1176.36588,0.16223
1178.29435,0.16040
1180.22282,0.16010
1182.15129,0.16261
1184.07976,0.16112
1186.00823,0.15347
1187.93669,0.14921
1189.86516,0.15417
1191.79363,0.16041
1193.72210,0.16088
1195.65057,0.15872
1197.57904,0.15952
1199.50751,0.16397
1201.43597,0.16916
1203.36444,0.17033
1205.29291,0.16563
1207.22138,0.16040
1209.14985,0.15887
1211.07832,0.16018
1213.00679,0.16252
1214.93526,0.16408
1216.86372,0.16514
1218.79219,0.16666
1220.72066,0.16740
1222.64913,0.16869
1224.57760,0.17386
1226.50607,0.17865
1228.43454,0.17639
1230.36300,0.17210
1232.29147,0.17075
1234.21994,0.16670
1236.14841,0.16214
1238.07688,0.16434
1240.00535,0.16848
1241.93382,0.16936
1243.86229,0.16833
1245.79075,0.16468
1247.71922,0.15885
1249.64769,0.15617
1251.57616,0.15771
1253.50463,0.15953
1255.43310,0.16093
1257.36157,0.16116
1259.29003,0.15786
1261.21850,0.15335
1263.14697,0.15362
1265.07544,0.15955
1267.00391,0.16380
1268.93238,0.16049
1270.86085,0.15554
1272.78932,0.15694
1274.71778,0.16143
1276.64625,0.16436
1278.57472,0.16616
1280.50319,0.16404
1282.43166,0.16138
1284.36013,0.16482
1286.28860,0.16707
1288.21706,0.16550
1290.14553,0.16669
1292.07400,0.16824
1294.00247,0.16509
1295.93094,0.15669
1297.85941,0.14748
1299.78788,0.13836
1301.71634,0.12257
1303.64481,0.10557
1305.57328,0.11074
1307.50175,0.14095
1309.43022,0.16476
1311.35869,0.16975
1313.28716,0.17137
1315.21563,0.17339
1317.14409,0.17252
1319.07256,0.17037
1321.00103,0.16915
1322.92950,0.16965
1324.85797,0.16512
1326.78644,0.15753
1328.71491,0.15789
1330.64337,0.15789
1332.57184,0.15459
1334.50031,0.15635
1336.42878,0.15763
1338.35725,0.15645
1340.28572,0.15125
1342.21419,0.14511
1344.14266,0.14657
1346.07112,0.15052
1347.99959,0.15561
1349.92806,0.16045
1351.85653,0.16020
1353.78500,0.15841
1355.71347,0.15596
1357.64194,0.15442
1359.57040,0.15890
1361.49887,0.16698
1363.42734,0.17132
1365.35581,0.17101
1367.28428,0.16911
1369.21275,0.16752
1371.14122,0.16821
1373.06969,0.17061
1374.99815,0.17361
1376.92662,0.17506
1378.85509,0.17553
1380.78356,0.17599
1382.71203,0.17455
1384.64050,0.17495
1386.56897,0.18020
1388.49743,0.18276
1390.42590,0.18094
1392.35437,0.18281
1394.28284,0.18853
1396.21131,0.19049
1398.13978,0.18852
1400.06825,0.18669
1401.99672,0.18476
1403.92518,0.18275
1405.85365,0.18281
1407.78212,0.18295
1409.71059,0.18018
1411.63906,0.17827
1413.56753,0.18005
1415.49600,0.18315
1417.42446,0.18583
1419.35293,0.18751
1421.28140,0.18875
1423.20987,0.18919
1425.13834,0.18635
1427.06681,0.18356
1428.99528,0.18587
1430.92375,0.18857
1432.85221,0.18836
1434.78068,0.19119
1436.70915,0.19445
1438.63762,0.18971
1440.56609,0.18354
1442.49456,0.17995
1444.42303,0.17767
1446.35149,0.17733
1448.27996,0.18156
1450.20843,0.18729
1452.13690,0.18977
1454.06537,0.19201
1455.99384,0.19916
1457.92231,0.20395
1459.85077,0.19831
1461.77924,0.19541
1463.70771,0.19552
1465.63618,0.19115
1467.56465,0.18577
1469.49312,0.18677
1471.42159,0.19570
1473.35006,0.20650
1475.27852,0.20698
1477.20699,0.20258
1479.13546,0.19701
1481.06393,0.18965
1482.99240,0.18377
1484.92087,0.18510
1486.84934,0.19337
1488.77780,0.19940
1490.70627,0.19691
1492.63474,0.19289
1494.56321,0.19326
1496.49168,0.19898
1498.42015,0.20239
1500.34862,0.20100
1502.27709,0.20235
1504.20555,0.21118
1506.13402,0.22533
1508.06249,0.21642
1509.99096,0.20035
1511.91943,0.19649
1513.84790,0.19784
1515.77637,0.20159
1517.70483,0.20848
1519.63330,0.21870
1521.56177,0.22626
1523.49024,0.22218
1525.41871,0.21180
1527.34718,0.20032
1529.27565,0.19682
1531.20412,0.20242
1533.13258,0.20573
1535.06105,0.20244
1536.98952,0.20566
1538.91799,0.21670
1540.84646,0.21871
1542.77493,0.21287
1544.70340,0.20689
1546.63186,0.19828
1548.56033,0.19480
1550.48880,0.19619
1552.41727,0.19888
1554.34574,0.20448
1556.27421,0.21514
1558.20268,0.22720
1560.13115,0.21013
1562.05961,0.19210
1563.98808,0.18692
1565.91655,0.18560
1567.84502,0.18762
1569.77349,0.19128
1571.70196,0.19178
1573.63043,0.19497
1575.55889,0.20388
1577.48736,0.20439
1579.41583,0.19310
1581.34430,0.18320
1583.27277,0.17973
1585.20124,0.18113
1587.12971,0.18189
1589.05818,0.18124
1590.98664,0.18319
1592.91511,0.18660
1594.84358,0.18630
1596.77205,0.18194
1598.70052,0.17894
1600.62899,0.18092
1602.55746,0.18335
1604.48592,0.18198
1606.41439,0.18242
1608.34286,0.18745
1610.27133,0.19117
1612.19980,0.19190
1614.12827,0.19524
1616.05674,0.20152
1617.98521,0.20030
1619.91367,0.19792
1621.84214,0.20209
1623.77061,0.20346
1625.69908,0.19736
1627.62755,0.19328
1629.55602,0.19409
1631.48449,0.19838
1633.41295,0.20649
1635.34142,0.21587
1637.26989,0.21456
1639.19836,0.20627
1641.12683,0.20067
1643.05530,0.20123
1644.98377,0.20822
1646.91223,0.21536
1648.84070,0.21371
1650.76917,0.21347
1652.69764,0.21926
1654.62611,0.21381
1656.55458,0.20251
1658.48305,0.19620
1660.41152,0.19342
1662.33998,0.19323
1664.26845,0.19410
1666.19692,0.19557
1668.12539,0.20150
1670.05386,0.21017
1671.98233,0.21381
1673.91080,0.21373
1675.83926,0.20728
1677.76773,0.20044
1679.69620,0.20258
1681.62467,0.21311
1683.55314,0.22362
1685.48161,0.21300
1687.41008,0.19612
1689.33855,0.18892
1691.26701,0.18969
1693.19548,0.19603
1695.12395,0.21030
1697.05242,0.22811
1698.98089,0.23222
1700.90936,0.22009
1702.83783,0.21111
1704.76629,0.20863
1706.69476,0.20515
1708.62323,0.20057
1710.55170,0.19746
1712.48017,0.19863
1714.40864,0.20476
1716.33711,0.20982
1718.26558,0.20564
1720.19404,0.19958
1722.12251,0.19688
1724.05098,0.19451
1725.97945,0.19164
1727.90792,0.19072
1729.83639,0.19219
1731.76486,0.19450
1733.69332,0.19479
1735.62179,0.19318
1737.55026,0.19572
1739.47873,0.19865
1741.40720,0.19798
1743.33567,0.19952
1745.26414,0.20401
1747.19261,0.20645
1749.12107,0.20655
1751.04954,0.20384
1752.97801,0.19683
1754.90648,0.19173
1756.83495,0.19247
1758.76342,0.19552
1760.69189,0.19738
1762.62035,0.19540
1764.54882,0.19107
1766.47729,0.18966
1768.40576,0.19271
1770.33423,0.20087
1772.26270,0.20782
1774.19117,0.20364
1776.11964,0.19750
1778.04810,0.19610
1779.97657,0.19544
1781.90504,0.19375
1783.83351,0.19359
1785.76198,0.19188
1787.69045,0.18932
1789.61892,0.19183
1791.54738,0.19909
1793.47585,0.20309
1795.40432,0.20105
1797.33279,0.19985
1799.26126,0.20143
1801.18973,0.20021
1803.11820,0.19540
1805.04666,0.19314
1806.97513,0.19489
1808.90360,0.19692
1810.83207,0.19494
1812.76054,0.19079
1814.68901,0.19051
1816.61748,0.19337
1818.54595,0.19467
1820.47441,0.19355
1822.40288,0.19264
1824.33135,0.19384
1826.25982,0.19618
1828.18829,0.19793
1830.11676,0.19628
1832.04523,0.19206
1833.97369,0.19021
1835.90216,0.19004
1837.83063,0.19039
1839.75910,0.19256
1841.68757,0.19702
1843.61604,0.20142
1845.54451,0.20098
1847.47298,0.19678
1849.40144,0.19269
1851.32991,0.19136
1853.25838,0.19293
1855.18685,0.19425
1857.11532,0.19365
1859.04379,0.19175
1860.97226,0.18930
1862.90072,0.18689
1864.82919,0.18643
1866.75766,0.19008
1868.68613,0.19463
1870.61460,0.19317
1872.54307,0.18851
1874.47154,0.18619
1876.40001,0.18652
1878.32847,0.18762
1880.25694,0.18904
1882.18541,0.19133
1884.11388,0.19293
1886.04235,0.19250
1887.97082,0.19243
1889.89929,0.19191
1891.82775,0.18818
1893.75622,0.18350
1895.68469,0.18038
1897.61316,0.18018
1899.54163,0.18311
1901.47010,0.18865
1903.39857,0.19468
1905.32704,0.19725
1907.25550,0.19603
1909.18397,0.19392
1911.11244,0.19216
1913.04091,0.19139
1914.96938,0.19192
1916.89785,0.19150
1918.82632,0.18974
1920.75478,0.19049
1922.68325,0.19312
1924.61172,0.19298
1926.54019,0.19096
1928.46866,0.19143
1930.39713,0.19317
1932.32560,0.19224
1934.25407,0.18971
1936.18253,0.18917
1938.11100,0.19089
1940.03947,0.19164
1941.96794,0.18937
1943.89641,0.18716
1945.82488,0.18818
1947.75335,0.19073
1949.68181,0.19215
1951.61028,0.19214
1953.53875,0.19273
1955.46722,0.19322
1957.39569,0.19070
1959.32416,0.18788
1961.25263,0.18803
1963.18110,0.18950
1965.10956,0.19105
1967.03803,0.19219
1968.96650,0.19265
1970.89497,0.19313
1972.82344,0.19416
1974.75191,0.19501
1976.68038,0.19494
1978.60884,0.19491
1980.53731,0.19368
1982.46578,0.18954
1984.39425,0.18558
1986.32272,0.18436
1988.25119,0.18474
1990.17966,0.18686
1992.10812,0.19057
1994.03659,0.19297
1995.96506,0.19417
1997.89353,0.19517
1999.82200,0.19478
2001.75047,0.19294
2003.67894,0.19154
2005.60741,0.19137
2007.53587,0.19189
2009.46434,0.19135
2011.39281,0.18854
2013.32128,0.18730
2015.24975,0.18882
2017.17822,0.18932
2019.10669,0.18905
2021.03515,0.18994
2022.96362,0.19167
2024.89209,0.19291
2026.82056,0.19171
2028.74903,0.18916
2030.67750,0.18928
2032.60597,0.19043
2034.53444,0.18884
2036.46290,0.18755
2038.39137,0.18939
2040.31984,0.19082
2042.24831,0.18916
2044.17678,0.18882
2046.10525,0.19176
2048.03372,0.19463
2049.96218,0.19567
2051.89065,0.19503
2053.81912,0.19442
2055.74759,0.19277
2057.67606,0.18875
2059.60453,0.18706
2061.53300,0.19028
2063.46147,0.19352
2065.38993,0.19270
2067.31840,0.19192
2069.24687,0.19506
2071.17534,0.19756
2073.10381,0.19643
2075.03228,0.19459
2076.96075,0.19331
2078.88921,0.19226
2080.81768,0.19176
2082.74615,0.19236
2084.67462,0.19408
2086.60309,0.19502
2088.53156,0.19395
2090.46003,0.19267
2092.38850,0.19305
2094.31696,0.19338
2096.24543,0.19170
2098.17390,0.18994
2100.10237,0.19039
2102.03084,0.19166
2103.95931,0.19181
2105.88778,0.19237
2107.81624,0.19334
2109.74471,0.19406
2111.67318,0.19535
2113.60165,0.19498
2115.53012,0.19210
2117.45859,0.18935
2119.38706,0.18761
2121.31553,0.18615
2123.24399,0.18570
2125.17246,0.18768
2127.10093,0.19010
2129.02940,0.19015
2130.95787,0.18953
2132.88634,0.19411
2134.81481,0.20462
2136.74327,0.20903
2138.67174,0.20093
2140.60021,0.19231
2142.52868,0.19108
2144.45715,0.19262
2146.38562,0.19481
2148.31409,0.19723
2150.24255,0.19788
2152.17102,0.19738
2154.09949,0.19613
2156.02796,0.19359
2157.95643,0.19078
2159.88490,0.19026
2161.81337,0.19281
2163.74184,0.19515
2165.67030,0.19573
2167.59877,0.19461
2169.52724,0.19121
2171.45571,0.18905
2173.38418,0.19042
2175.31265,0.19230
2177.24112,0.19359
2179.16958,0.19488
2181.09805,0.19466
2183.02652,0.19273
2184.95499,0.19179
2186.88346,0.19224
2188.81193,0.19253
2190.74040,0.19325
2192.66887,0.19466
2194.59733,0.19621
2196.52580,0.19664
2198.45427,0.19497
2200.38274,0.19388
2202.31121,0.19445
2204.23968,0.19556
2206.16815,0.19593
2208.09661,0.19422
2210.02508,0.19179
2211.95355,0.18994
2213.88202,0.18965
2215.81049,0.19110
2217.73896,0.19147
2219.66743,0.18957
2221.59590,0.18817
2223.52436,0.18894
2225.45283,0.19062
2227.38130,0.19258
2229.30977,0.19439
2231.23824,0.19484
2233.16671,0.19413
2235.09518,0.19414
2237.02364,0.19462
2238.95211,0.19288
2240.88058,0.18987
2242.80905,0.18842
2244.73752,0.18964
2246.66599,0.19228
2248.59446,0.19301
2250.52293,0.19217
2252.45139,0.19184
2254.37986,0.19030
2256.30833,0.18736
2258.23680,0.18625
2260.16527,0.18763
2262.09374,0.18939
2264.02221,0.18986
2265.95067,0.19025
2267.87914,0.19252
2269.80761,0.19501
2271.73608,0.19474
2273.66455,0.19087
2275.59302,0.18665
2277.52149,0.18614
2279.44996,0.18900
2281.37842,0.19213
2283.30689,0.19162
2285.23536,0.18770
2287.16383,0.18522
2289.09230,0.18540
2291.02077,0.18651
2292.94924,0.18708
2294.87770,0.18491
2296.80617,0.18046
2298.73464,0.17777
2300.66311,0.17745
2302.59158,0.17576
2304.52005,0.17159
2306.44852,0.16761
2308.37699,0.16590
2310.30545,0.16583
2312.23392,0.16607
2314.16239,0.16513
2316.09086,0.16312
2318.01933,0.16151
2319.94780,0.16071
2321.87627,0.16055
2323.80473,0.15731
2325.73320,0.14642
2327.66167,0.13432
2329.59014,0.13230
2331.51861,0.13326
2333.44708,0.12580
2335.37555,0.11923
2337.30401,0.12170
2339.23248,0.12448
2341.16095,0.11956
2343.08942,0.11676
2345.01789,0.12160
2346.94636,0.12833
2348.87483,0.13224
2350.80330,0.13100
2352.73176,0.12636
2354.66023,0.11540
2356.58870,0.09045
2358.51717,0.06978
2360.44564,0.08102
2362.37411,0.11953
2364.30258,0.15024
2366.23104,0.14244
2368.15951,0.11891
2370.08798,0.11986
2372.01645,0.13831
2373.94492,0.15531
2375.87339,0.16701
2377.80186,0.17191
2379.73033,0.17252
2381.65879,0.17528
2383.58726,0.18152
2385.51573,0.18641
2387.44420,0.18767
2389.37267,0.18814
2391.30114,0.19010
2393.22961,0.19278
2395.15807,0.19377
2397.08654,0.19228
2399.01501,0.19139
2400.94348,0.19329
2402.87195,0.19503
2404.80042,0.19462
2406.72889,0.19315
2408.65736,0.19242
2410.58582,0.19450
2412.51429,0.19660
2414.44276,0.19461
2416.37123,0.19203
2418.29970,0.19347
2420.22817,0.19597
2422.15664,0.19456
2424.08510,0.19098
2426.01357,0.19090
2427.94204,0.19414
2429.87051,0.19575
2431.79898,0.19520
2433.72745,0.19382
2435.65592,0.19226
2437.58439,0.19214
2439.51285,0.19246
2441.44132,0.19197
2443.36979,0.19155
2445.29826,0.19130
2447.22673,0.19063
2449.15520,0.19040
2451.08367,0.19169
2453.01213,0.19194
2454.94060,0.18984
2456.86907,0.18921
2458.79754,0.19131
2460.72601,0.19355
2462.65448,0.19410
2464.58295,0.19363
2466.51142,0.19523
2468.43988,0.19696
2470.36835,0.19412
2472.29682,0.19104
2474.22529,0.19196
2476.15376,0.19350
2478.08223,0.19411
2480.01070,0.19395
2481.93916,0.19211
2483.86763,0.19016
2485.79610,0.19050
2487.72457,0.19217
2489.65304,0.19201
2491.58151,0.19061
2493.50998,0.19133
2495.43844,0.19352
2497.36691,0.19512
2499.29538,0.19639
2501.22385,0.19722
2503.15232,0.19618
2505.08079,0.19367
2507.00926,0.19366
2508.93773,0.19571
2510.86619,0.19456
2512.79466,0.19172
2514.72313,0.19099
2516.65160,0.19097
2518.58007,0.19020
2520.50854,0.18922
2522.43701,0.19055
2524.36547,0.19354
2526.29394,0.19448
2528.22241,0.19509
2530.15088,0.19663
2532.07935,0.19623
2534.00782,0.19290
2535.93629,0.18955
2537.86476,0.18908
2539.79322,0.19017
2541.72169,0.19135
2543.65016,0.19346
2545.57863,0.19641
2547.50710,0.19852
2549.43557,0.19759
2551.36404,0.19417
2553.29250,0.19238
2555.22097,0.19422
2557.14944,0.19653
2559.07791,0.19576
2561.00638,0.19327
2562.93485,0.19369
2564.86332,0.19623
2566.79179,0.19555
2568.72025,0.19324
2570.64872,0.19484
2572.57719,0.19884
2574.50566,0.20081
2576.43413,0.20025
2578.36260,0.19757
2580.29107,0.19420
2582.21953,0.19359
2584.14800,0.19574
2586.07647,0.19771
2588.00494,0.19835
2589.93341,0.19691
2591.86188,0.19480
2593.79035,0.19365
2595.71882,0.19380
2597.64728,0.19733
2599.57575,0.20119
2601.50422,0.20097
2603.43269,0.19981
2605.36116,0.20073
2607.28963,0.20083
2609.21810,0.19781
2611.14656,0.19465
2613.07503,0.19413
2615.00350,0.19705
2616.93197,0.20079
2618.86044,0.20231
2620.78891,0.20261
2622.71738,0.20075
2624.64585,0.19849
2626.57431,0.19965
2628.50278,0.20133
2630.43125,0.20210
2632.35972,0.20372
2634.28819,0.20263
2636.21666,0.19767
2638.14513,0.19562
2640.07359,0.19767
2642.00206,0.19918
2643.93053,0.20017
2645.85900,0.20115
2647.78747,0.20007
2649.71594,0.19714
2651.64441,0.19546
2653.57288,0.19628
2655.50134,0.19776
2657.42981,0.19847
2659.35828,0.19752
2661.28675,0.19610
2663.21522,0.19785
2665.14369,0.20142
2667.07216,0.20222
2669.00062,0.20071
2670.92909,0.19954
2672.85756,0.19864
2674.78603,0.19797
2676.71450,0.19832
2678.64297,0.19931
2680.57144,0.20178
2682.49990,0.20616
2684.42837,0.20811
2686.35684,0.20394
2688.28531,0.19727
2690.21378,0.19375
2692.14225,0.19425
2694.07072,0.19769
2695.99919,0.20207
2697.92765,0.20384
2699.85612,0.20253
2701.78459,0.20054
2703.71306,0.20053
2705.64153,0.20433
2707.57000,0.20836
2709.49847,0.20742
2711.42693,0.20324
2713.35540,0.20201
2715.28387,0.20434
2717.21234,0.20425
2719.14081,0.20274
2721.06928,0.20466
2722.99775,0.20677
2724.92622,0.20618
2726.85468,0.20427
2728.78315,0.20306
2730.71162,0.20457
2732.64009,0.20715
2734.56856,0.20889
2736.49703,0.20987
2738.42550,0.20913
2740.35396,0.20635
2742.28243,0.20352
2744.21090,0.20283
2746.13937,0.20279
2748.06784,0.20204
2749.99631,0.20416
2751.92478,0.20965
2753.85325,0.21254
2755.78171,0.20956
2757.71018,0.20484
2759.63865,0.20256
2761.56712,0.20300
2763.49559,0.20563
2765.42406,0.20864
2767.35253,0.21111
2769.28099,0.21257
2771.20946,0.21134
2773.13793,0.21006
2775.06640,0.21229
2776.99487,0.21487
2778.92334,0.21381
2780.85181,0.21087
2782.78028,0.20919
2784.70874,0.20880
2786.63721,0.20764
2788.56568,0.20675
2790.49415,0.20843
2792.42262,0.20859
2794.35109,0.20548
2796.27956,0.20490
2798.20802,0.20707
2800.13649,0.20647
2802.06496,0.20319
2803.99343,0.20082
2805.92190,0.20070
2807.85037,0.20403
2809.77884,0.20923
2811.70731,0.21218
2813.63577,0.21357
2815.56424,0.21230
2817.49271,0.20583
2819.42118,0.20068
2821.34965,0.20198
2823.27812,0.20502
2825.20659,0.20469
2827.13505,0.20249
2829.06352,0.20284
2830.99199,0.20680
2832.92046,0.21090
2834.84893,0.21096
2836.77740,0.20806
2838.70587,0.20562
2840.63433,0.20343
2842.56280,0.20140
2844.49127,0.20127
2846.41974,0.20213
2848.34821,0.20344
2850.27668,0.20565
2852.20515,0.20674
2854.13362,0.20675
2856.06208,0.20704
2857.99055,0.20798
2859.91902,0.20919
2861.84749,0.20845
2863.77596,0.20713
2865.70443,0.20897
2867.63290,0.21201
2869.56136,0.21293
2871.48983,0.21222
2873.41830,0.20963
2875.34677,0.20771
2877.27524,0.21033
2879.20371,0.21381
2881.13218,0.21343
2883.06065,0.20932
2884.98911,0.20504
2886.91758,0.20387
2888.84605,0.20369
2890.77452,0.20395
2892.70299,0.20607
2894.63146,0.20719
2896.55993,0.20742
2898.48839,0.20513
2900.41686,0.19967
2902.34533,0.19823
2904.27380,0.19909
2906.20227,0.19874
2908.13074,0.20100
2910.05921,0.20310
2911.98768,0.20090
2913.91614,0.19472
2915.84461,0.18769
2917.77308,0.18838
2919.70155,0.19666
2921.63002,0.20294
2923.55849,0.20252
2925.48696,0.19281
2927.41542,0.18544
2929.34389,0.19425
2931.27236,0.20510
2933.20083,0.20411
2935.12930,0.19470
2937.05777,0.18441
2938.98624,0.18581
2940.91471,0.19889
2942.84317,0.20749
2944.77164,0.20308
2946.70011,0.19189
2948.62858,0.18928
2950.55705,0.19740
2952.48552,0.20401
2954.41399,0.20440
2956.34245,0.19493
2958.27092,0.18470
2960.19939,0.19131
2962.12786,0.20459
2964.05633,0.20677
2965.98480,0.19717
2967.91327,0.18743
2969.84174,0.19366
2971.77020,0.21125
2973.69867,0.22187
2975.62714,0.21762
2977.55561,0.20236
2979.48408,0.19454
2981.41255,0.20284
2983.34102,0.21364
2985.26948,0.21456
2987.19795,0.20244
2989.12642,0.19395
2991.05489,0.20484
2992.98336,0.21901
2994.91183,0.22060
2996.84030,0.21451
2998.76877,0.20904
3000.69723,0.20881
3002.62570,0.21133
3004.55417,0.21020
3006.48264,0.20549
3008.41111,0.19836
3010.33958,0.18105
3012.26805,0.14706
3014.19651,0.10495
3016.12498,0.08194
3018.05345,0.10641
3019.98192,0.16310
3021.91039,0.20434
3023.83886,0.21569
3025.76733,0.21294
3027.69579,0.20572
3029.62426,0.20194
3031.55273,0.20688
3033.48120,0.21425
3035.40967,0.21646
3037.33814,0.21230
3039.26661,0.20906
3041.19508,0.21131
3043.12354,0.21188
3045.05201,0.20730
3046.98048,0.20156
3048.90895,0.19908
3050.83742,0.20134
3052.76589,0.20580
3054.69436,0.20441
3056.62282,0.19498
3058.55129,0.19454
3060.47976,0.20424
3062.40823,0.20684
3064.33670,0.20109
3066.26517,0.19482
3068.19364,0.19767
3070.12211,0.20758
3072.05057,0.21179
3073.97904,0.20614
3075.90751,0.19691
3077.83598,0.19741
3079.76445,0.20615
3081.69292,0.20742
3083.62139,0.19557
3085.54985,0.18465
3087.47832,0.19264
3089.40679,0.20771
3091.33526,0.20717
3093.26373,0.19339
3095.19220,0.18738
3097.12067,0.19735
3099.04914,0.20591
3100.97760,0.20223
3102.90607,0.19318
3104.83454,0.19104
3106.76301,0.20014
3108.69148,0.20945
3110.61995,0.20762
3112.54842,0.20056
3114.47688,0.20607
3116.40535,0.22054
3118.33382,0.22138
3120.26229,0.20292
3122.19076,0.18497
3124.11923,0.18698
3126.04770,0.19995
3127.97617,0.20638
3129.90463,0.20413
3131.83310,0.20203
3133.76157,0.20570
3135.69004,0.20947
3137.61851,0.20890
3139.54698,0.20871
3141.47545,0.21347
3143.40391,0.21580
3145.33238,0.20979
3147.26085,0.20503
3149.18932,0.20851
3151.11779,0.21596
3153.04626,0.22288
3154.97473,0.22502
3156.90320,0.22041
3158.83166,0.21578
3160.76013,0.21534
3162.68860,0.21483
3164.61707,0.21327
3166.54554,0.21319
3168.47401,0.21382
3170.40248,0.21380
3172.33094,0.21377
3174.25941,0.21362
3176.18788,0.21259
3178.11635,0.21303
3180.04482,0.21431
3181.97329,0.21295
3183.90176,0.21396
3185.83022,0.21933
3187.75869,0.22058
3189.68716,0.21552
3191.61563,0.21027
3193.54410,0.20700
3195.47257,0.20542
3197.40104,0.20938
3199.32951,0.21649
3201.25797,0.21935
3203.18644,0.21874
3205.11491,0.21901
3207.04338,0.22115
3208.97185,0.22207
3210.90032,0.21886
3212.82879,0.21397
3214.75725,0.21091
3216.68572,0.21137
3218.61419,0.21568
3220.54266,0.21705
3222.47113,0.21158
3224.39960,0.20788
3226.32807,0.20938
3228.25654,0.21109
3230.18500,0.21331
3232.11347,0.21692
3234.04194,0.21797
3235.97041,0.21818
3237.89888,0.22169
3239.82735,0.22495
3241.75582,0.22635
3243.68428,0.22559
3245.61275,0.22173
3247.54122,0.21912
3249.46969,0.21905
3251.39816,0.22012
3253.32663,0.21974
3255.25510,0.21510
3257.18357,0.21101
3259.11203,0.21108
3261.04050,0.21099
3262.96897,0.20863
3264.89744,0.20852
3266.82591,0.21204
3268.75438,0.21385
3270.68285,0.21144
3272.61131,0.20943
3274.53978,0.21211
3276.46825,0.21539
3278.39672,0.21373
3280.32519,0.20882
3282.25366,0.20540
3284.18213,0.20355
3286.11060,0.20275
3288.03906,0.20495
3289.96753,0.20567
3291.89600,0.20323
3293.82447,0.20307
3295.75294,0.20419
3297.68141,0.20379
3299.60988,0.20499
3301.53834,0.20822
3303.46681,0.20720
3305.39528,0.20263
3307.32375,0.20282
3309.25222,0.20901
3311.18069,0.21556
3313.10916,0.21761
3315.03763,0.21512
3316.96609,0.21380
3318.89456,0.21521
3320.82303,0.21350
3322.75150,0.20786
3324.67997,0.20348
3326.60844,0.20551
3328.53691,0.21055
3330.46537,0.20998
3332.39384,0.20996
3334.32231,0.21490
3336.25078,0.21660
3338.17925,0.21551
3340.10772,0.21357
3342.03619,0.20860
3343.96466,0.20460
3345.89312,0.20539
3347.82159,0.21068
3349.75006,0.21637
3351.67853,0.21749
3353.60700,0.21597
3355.53547,0.21342
3357.46394,0.21024
3359.39240,0.20993
3361.32087,0.20944
3363.24934,0.20637
3365.17781,0.20563
3367.10628,0.20989
3369.03475,0.21788
3370.96322,0.22531
3372.89168,0.22735
3374.82015,0.22130
3376.74862,0.21174
3378.67709,0.20907
3380.60556,0.21360
3382.53403,0.21567
3384.46250,0.21380
3386.39097,0.21421
3388.31943,0.21508
3390.24790,0.21315
3392.17637,0.21193
3394.10484,0.21454
3396.03331,0.21772
3397.96178,0.21472
3399.89025,0.20755
3401.81871,0.20160
3403.74718,0.19794
3405.67565,0.19849
3407.60412,0.20253
3409.53259,0.20728
3411.46106,0.21100
3413.38953,0.21091
3415.31800,0.20753
3417.24646,0.20660
3419.17493,0.20783
3421.10340,0.20876
3423.03187,0.21236
3424.96034,0.21316
3426.88881,0.20467
3428.81728,0.19624
3430.74574,0.19887
3432.67421,0.20774
3434.60268,0.21190
3436.53115,0.21083
3438.45962,0.21130
3440.38809,0.21232
3442.31656,0.20839
3444.24503,0.20516
3446.17349,0.20899
3448.10196,0.21186
3450.03043,0.20697
3451.95890,0.20098
3453.88737,0.19953
3455.81584,0.19894
3457.74431,0.19499
3459.67277,0.19097
3461.60124,0.19169
3463.52971,0.19401
3465.45818,0.19359
3467.38665,0.19241
3469.31512,0.19172
3471.24359,0.19183
3473.17206,0.19358
3475.10052,0.19489
3477.02899,0.19524
3478.95746,0.19527
3480.88593,0.19328
3482.81440,0.18997
3484.74287,0.18923
3486.67134,0.19220
3488.59980,0.19337
3490.52827,0.18879
3492.45674,0.18276
3494.38521,0.17829
3496.31368,0.17579
3498.24215,0.17655
3500.17062,0.17766
3502.09909,0.17583
3504.02755,0.17424
3505.95602,0.17764
3507.88449,0.18369
3509.81296,0.18408
3511.74143,0.17741
3513.66990,0.17102
3515.59837,0.16805
3517.52683,0.16802
3519.45530,0.16924
3521.38377,0.17227
3523.31224,0.17753
3525.24071,0.17990
3527.16918,0.17878
3529.09765,0.17805
3531.02611,0.17881
3532.95458,0.17919
3534.88305,0.17711
3536.81152,0.17616
3538.73999,0.17854
3540.66846,0.17946
3542.59693,0.17743
3544.52540,0.17401
3546.45386,0.17177
3548.38233,0.17230
3550.31080,0.17245
3552.23927,0.17001
3554.16774,0.16510
3556.09621,0.16084
3558.02468,0.15930
3559.95314,0.15839
3561.88161,0.15993
3563.81008,0.16721
3565.73855,0.17661
3567.66702,0.17814
3569.59549,0.16951
3571.52396,0.16266
3573.45243,0.16194
3575.38089,0.16049
3577.30936,0.15444
3579.23783,0.14949
3581.16630,0.14956
3583.09477,0.15470
3585.02324,0.16134
3586.95171,0.16082
3588.88017,0.15052
3590.80864,0.14486
3592.73711,0.15042
3594.66558,0.15772
3596.59405,0.15490
3598.52252,0.14860
3600.45099,0.14818
3602.37946,0.15153
3604.30792,0.15377
3606.23639,0.15546
3608.16486,0.15626
3610.09333,0.15389
3612.02180,0.15116
3613.95027,0.15114
3615.87874,0.15518
3617.80720,0.15874
3619.73567,0.15607
3621.66414,0.15254
3623.59261,0.15038
3625.52108,0.14854
3627.44955,0.15006
3629.37802,0.15216
3631.30649,0.14976
3633.23495,0.14698
3635.16342,0.14551
3637.09189,0.14497
3639.02036,0.14358
3640.94883,0.14197
3642.87730,0.14299
3644.80577,0.14812
3646.73423,0.15608
3648.66270,0.16173
3650.59117,0.16050
3652.51964,0.15613
3654.44811,0.15318
3656.37658,0.15060
3658.30505,0.14335
3660.23352,0.13527
3662.16198,0.13175
3664.09045,0.13322
3666.01892,0.13944
3667.94739,0.14792
3669.87586,0.15193
3671.80433,0.15366
3673.73280,0.16062
3675.66126,0.16185
3677.58973,0.14944
3679.51820,0.13822
3681.44667,0.13122
3683.37514,0.13086
3685.30361,0.13465
3687.23208,0.13657
3689.16055,0.13984
3691.08901,0.14061
3693.01748,0.13190
3694.94595,0.12461
3696.87442,0.12571
3698.80289,0.13149
3700.73136,0.13588
3702.65983,0.13822
3704.58829,0.13966
3706.51676,0.14159
3708.44523,0.14293
3710.37370,0.13899
3712.30217,0.13402
3714.23064,0.13443
3716.15911,0.13365
3718.08757,0.12872
3720.01604,0.12535
3721.94451,0.12789
3723.87298,0.12824
3725.80145,0.12424
3727.72992,0.12423
3729.65839,0.12569
3731.58686,0.12520
3733.51532,0.12823
3735.44379,0.13462
3737.37226,0.13694
3739.30073,0.13703
3741.22920,0.13929
3743.15767,0.14711
3745.08614,0.15708
3747.01460,0.15790
3748.94307,0.15493
3750.87154,0.15318
3752.80001,0.14573
3754.72848,0.13663
3756.65695,0.13401
3758.58542,0.13663
3760.51389,0.13901
3762.44235,0.13815
3764.37082,0.13448
3766.29929,0.13070
3768.22776,0.13049
3770.15623,0.13307
3772.08470,0.13342
3774.01317,0.12867
3775.94163,0.12137
3777.87010,0.11900
3779.79857,0.12551
3781.72704,0.13096
3783.65551,0.13070
3785.58398,0.12985
3787.51245,0.13122
3789.44092,0.13422
3791.36938,0.13524
3793.29785,0.13187
3795.22632,0.12856
3797.15479,0.13078
3799.08326,0.13768
3801.01173,0.14259
3802.94020,0.13844
3804.86866,0.13621
3806.79713,0.13991
3808.72560,0.13773
3810.65407,0.13160
3812.58254,0.13275
3814.51101,0.14159
3816.43948,0.14217
3818.36795,0.12998
3820.29641,0.12382
3822.22488,0.12463
3824.15335,0.12597
3826.08182,0.12765
3828.01029,0.12530
3829.93876,0.12131
3831.86723,0.12260
3833.79569,0.12897
3835.72416,0.13583
3837.65263,0.14186
3839.58110,0.14939
3841.50957,0.15330
3843.43804,0.14478
3845.36651,0.12873
3847.29498,0.11957
3849.22344,0.12268
3851.15191,0.13651
3853.08038,0.15331
3855.00885,0.14637
3856.93732,0.13242
3858.86579,0.12893
3860.79426,0.13066
3862.72272,0.13017
3864.65119,0.12546
3866.57966,0.12291
3868.50813,0.12601
3870.43660,0.12594
3872.36507,0.11684
3874.29354,0.10927
3876.22200,0.10680
3878.15047,0.10610
3880.07894,0.10748
3882.00741,0.11173
3883.93588,0.11752
3885.86435,0.12325
3887.79282,0.12516
3889.72129,0.12587
3891.64975,0.12647
3893.57822,0.12468
3895.50669,0.12287
3897.43516,0.12091
3899.36363,0.12004
3901.29210,0.12488
3903.22057,0.12758
3905.14903,0.11937
3907.07750,0.11077
3909.00597,0.10893
3910.93444,0.10825
3912.86291,0.10668
3914.79138,0.10855
3916.71985,0.11146
3918.64832,0.11229
3920.57678,0.11425
3922.50525,0.11761
3924.43372,0.12100
3926.36219,0.12202
3928.29066,0.12012
3930.21913,0.11790
3932.14760,0.11712
3934.07606,0.11733
3936.00453,0.11684
3937.93300,0.11625
3939.86147,0.11807
3941.78994,0.11931
3943.71841,0.11631
3945.64688,0.11449
3947.57535,0.11584
3949.50381,0.11662
3951.43228,0.11376
3953.36075,0.10987
3955.28922,0.11255
3957.21769,0.11997
3959.14616,0.12244
3961.07463,0.11752
3963.00309,0.11083
3964.93156,0.10677
3966.86003,0.10480
3968.78850,0.10563
3970.71697,0.10829
3972.64544,0.10760
3974.57391,0.10499
3976.50238,0.10694
3978.43084,0.11256
3980.35931,0.11559
3982.28778,0.11167
3984.21625,0.10394
3986.14472,0.10218
3988.07319,0.10706
3990.00166,0.10834
3991.93012,0.10465
3993.85859,0.10395
3995.78706,0.10602
3997.71553,0.10656
3999.64400,0.10574
4001.57247,0.10253
4003.50094,0.09780
4005.42941,0.09723
4007.35787,0.10268
4009.28634,0.10916
4011.21481,0.10993
4013.14328,0.10382
4015.07175,0.09721
4017.00022,0.09604
4018.92869,0.09935
4020.85715,0.10183
4022.78562,0.10224
4024.71409,0.10152
4026.64256,0.09739
4028.57103,0.09307
4030.49950,0.09283
4032.42797,0.09438
4034.35644,0.09610
4036.28490,0.09559
4038.21337,0.09250
4040.14184,0.09171
4042.07031,0.09462
4043.99878,0.10158
4045.92725,0.11111
4047.85572,0.11257
4049.78418,0.10482
4051.71265,0.10095
4053.64112,0.09996
4055.56959,0.09418
4057.49806,0.08920
4059.42653,0.08863
4061.35500,0.09099
4063.28346,0.09637
4065.21193,0.09973
4067.14040,0.09956
4069.06887,0.10351
4070.99734,0.10890
4072.92581,0.10544
4074.85428,0.09648
4076.78275,0.09128
4078.71121,0.08872
4080.63968,0.08526
4082.56815,0.08505
4084.49662,0.08901
4086.42509,0.09158
4088.35356,0.09329
4090.28203,0.09558
4092.21049,0.09516
4094.13896,0.09255
4096.06743,0.09000
4097.99590,0.08751
4099.92437,0.08665
4101.85284,0.09053
4103.78131,0.09872
4105.70978,0.10537
4107.63824,0.10698
4109.56671,0.10479
4111.49518,0.10093
4113.42365,0.09974
4115.35212,0.10227
4117.28059,0.10263
4119.20906,0.09727
4121.13752,0.09057
4123.06599,0.08710
4124.99446,0.08638
4126.92293,0.08702
4128.85140,0.08855
4130.77987,0.09178
4132.70834,0.09300
4134.63681,0.08882
4136.56527,0.08641
4138.49374,0.08808
4140.42221,0.08790
4142.35068,0.08427
4144.27915,0.07937
4146.20762,0.07601
4148.13609,0.07791
4150.06455,0.08775
4151.99302,0.09605
4153.92149,0.09169
4155.84996,0.08352
4157.77843,0.08051
4159.70690,0.07845
4161.63537,0.07640
4163.56384,0.07735
4165.49230,0.08135
4167.42077,0.08577
4169.34924,0.08665
4171.27771,0.08201
4173.20618,0.07432
4175.13465,0.06951
4177.06312,0.07065
4178.99158,0.07354
4180.92005,0.07521
4182.84852,0.07843
4184.77699,0.08125
4186.70546,0.08005
4188.63393,0.07797
4190.56240,0.07705
4192.49087,0.07626
4194.41933,0.07219
4196.34780,0.06395
4198.27627,0.06132
4200.20474,0.06901
4202.13321,0.07771
4204.06168,0.07848
4205.99015,0.07085
4207.91861,0.06215
4209.84708,0.05920
4211.77555,0.06436
4213.70402,0.07188
4215.63249,0.07019
4217.56096,0.06356
4219.48943,0.06513
4221.41789,0.07281
4223.34636,0.07916
4225.27483,0.08336
4227.20330,0.08345
4229.13177,0.07585
4231.06024,0.06774
4232.98871,0.06895
4234.91718,0.07388
4236.84564,0.07491
4238.77411,0.07496
4240.70258,0.07713
4242.63105,0.08000
4244.55952,0.08096
4246.48799,0.07949
4248.41646,0.07735
4250.34492,0.07490
4252.27339,0.06951
4254.20186,0.06182
4256.13033,0.05993
4258.05880,0.06407
4259.98727,0.06465
4261.91574,0.06163
4263.84421,0.06181
4265.77267,0.06689
4267.70114,0.07109
4269.62961,0.06946
4271.55808,0.06451
4273.48655,0.05851
4275.41502,0.05518
4277.34349,0.05546
4279.27195,0.05320
4281.20042,0.04975
4283.12889,0.05032
4285.05736,0.05297
4286.98583,0.05474
4288.91430,0.05561
4290.84277,0.05702
4292.77124,0.05851
4294.69970,0.05750
4296.62817,0.05605
4298.55664,0.05785
4300.48511,0.05971
4302.41358,0.05549
4304.34205,0.04951
4306.27052,0.05122
4308.19898,0.05525
4310.12745,0.05384
4312.05592,0.05073
4313.98439,0.04803
4315.91286,0.04933
4317.84133,0.05790
4319.76980,0.06268
4321.69827,0.05700
4323.62673,0.05229
4325.55520,0.05627
4327.48367,0.06150
4329.41214,0.05915
4331.34061,0.05336
4333.26908,0.05026
4335.19755,0.04706
4337.12601,0.04390
4339.05448,0.04701
4340.98295,0.05518
4342.91142,0.05781
4344.83989,0.05393
4346.76836,0.05180
4348.69683,0.05367
4350.62530,0.05964
4352.55376,0.06361
4354.48223,0.05645
4356.41070,0.04573
4358.33917,0.04223
4360.26764,0.04382
4362.19611,0.04936
4364.12458,0.05542
4366.05304,0.05297
4367.98151,0.04346
4369.90998,0.03683
4371.83845,0.03770
4373.76692,0.04699
4375.69539,0.06290
4377.62386,0.07233
4379.55232,0.06830
4381.48079,0.05810
4383.40926,0.04592
4385.33773,0.03769
4387.26620,0.03737
4389.19467,0.03745
4391.12314,0.03587
4393.05161,0.04227
4394.98007,0.05686
4396.90854,0.06098
4398.83701,0.04734
4400.76548,0.03443
4402.69395,0.02970
4404.62242,0.02814
4406.55089,0.03757
4408.47935,0.05359
4410.40782,0.05773
4412.33629,0.04796
4414.26476,0.03660
4416.19323,0.03279
4418.12170,0.03225
4420.05017,0.03016
4421.97864,0.03033
4423.90710,0.03072
4425.83557,0.02830
4427.76404,0.02957
4429.69251,0.03493
4431.62098,0.03506
4433.54945,0.02829
4435.47792,0.02482
4437.40638,0.03093
4439.33485,0.03578
4441.26332,0.03244
4443.19179,0.02822
4445.12026,0.02830
4447.04873,0.03297
4448.97720,0.03540
4450.90567,0.03361
4452.83413,0.03386
4454.76260,0.03403
4456.69107,0.03247
4458.61954,0.03240
4460.54801,0.03209
4462.47648,0.02707
4464.40495,0.01925
4466.33341,0.01483
4468.26188,0.01339
4470.19035,0.01305
4472.11882,0.01564
4474.04729,0.01619
4475.97576,0.01253
4477.90423,0.01447
4479.83270,0.02359
4481.76116,0.03314
4483.68963,0.03702
4485.61810,0.03350
4487.54657,0.02821
4489.47504,0.02520
4491.40351,0.02536
4493.33198,0.02374
4495.26044,0.01947
4497.18891,0.02007
4499.11738,0.02547
4501.04585,0.03051
4502.97432,0.03434
4504.90279,0.03813
4506.83126,0.03379
4508.75973,0.02112
4510.68819,0.01509
4512.61666,0.01676
4514.54513,0.02179
4516.47360,0.02775
4518.40207,0.02574
4520.33054,0.01614
4522.25901,0.01056
4524.18747,0.01298
4526.11594,0.01686
4528.04441,0.01996
4529.97288,0.02435
4531.90135,0.02458
4533.82982,0.01892
4535.75829,0.01683
4537.68676,0.01884
4539.61522,0.01924
4541.54369,0.01957
4543.47216,0.02336
4545.40063,0.03167
4547.32910,0.03567
4549.25757,0.02976
4551.18604,0.02556
4553.11450,0.02612
4555.04297,0.02288
4556.97144,0.02056
4558.89991,0.02337
4560.82838,0.02723
4562.75685,0.02951
4564.68532,0.02401
4566.61378,0.01523
4568.54225,0.01359
4570.47072,0.01331
4572.39919,0.00759
4574.32766,0.00109
4576.25613,0.00138
4578.18460,0.01098
4580.11307,0.02075
4582.04153,0.02095
4583.97000,0.01856
4585.89847,0.01991
4587.82694,0.01799
4589.75541,0.01298
4591.68388,0.01388
4593.61235,0.01615
4595.54081,0.01077
4597.46928,0.00428
4599.39775,0.00321
4601.32622,0.00465
4603.25469,0.00687
4605.18316,0.00853
4607.11163,0.00637
4609.04010,0.00316
4610.96856,0.00324
4612.89703,0.00384
4614.82550,0.00450
4616.75397,0.01015
4618.68244,0.01801
4620.61091,0.01850
4622.53938,0.01749
4624.46784,0.02342
4626.39631,0.02699
4628.32478,0.02208
4630.25325,0.01221
4632.18172,0.00465
4634.11019,0.00528
4636.03866,0.01276
4637.96713,0.02160
4639.89559,0.02295
4641.82406,0.01728
4643.75253,0.01157
4645.68100,0.00727
4647.60947,0.00533
4649.53794,0.00401
4651.46641,0.00162
4653.39487,0.00353
4655.32334,0.01174
4657.25181,0.01988
4659.18028,0.02526
4661.10875,0.02715
4663.03722,0.02269
4664.96569,0.01378
4666.89416,0.00973
4668.82262,0.01772
4670.75109,0.02619
4672.67956,0.02161
4674.60803,0.01121
4676.53650,0.00259
4678.46497,-0.00414
4680.39344,-0.00121
4682.32190,0.01021
4684.25037,0.01072
4686.17884,-0.00421
4688.10731,-0.01504
4690.03578,-0.00735
4691.96425,0.01056
4693.89272,0.02262
4695.82119,0.02446
4697.74965,0.02053
4699.67812,0.01516
4701.60659,0.01182
4703.53506,0.00951
4705.46353,0.00716
4707.39200,0.00586
4709.32047,0.00254
4711.24893,0.00068
4713.17740,0.00425
4715.10587,0.00883
4717.03434,0.01198
4718.96281,0.00710
4720.89128,-0.00167
4722.81975,0.00166
4724.74821,0.01318
4726.67668,0.01871
4728.60515,0.01679
4730.53362,0.01472
4732.46209,0.01387
4734.39056,0.01000
4736.31903,0.00734
4738.24750,0.00768
4740.17596,0.00416
4742.10443,0.00676
4744.03290,0.02482
4745.96137,0.03518
4747.88984,0.02422
4749.81831,0.00961
4751.74678,-0.00071
4753.67524,-0.01176
4755.60371,-0.01585
4757.53218,-0.00827
4759.46065,0.00038
4761.38912,0.00730
4763.31759,0.01228
4765.24606,0.00986
4767.17453,0.00462
4769.10299,0.00361
4771.03146,0.00178
4772.95993,-0.00238
4774.88840,0.00057
4776.81687,0.00892
4778.74534,0.01405
4780.67381,0.01276
4782.60227,0.00742
4784.53074,0.00339
4786.45921,0.00083
4788.38768,0.00093
4790.31615,0.00174
4792.24462,-0.00011
4794.17309,0.00469
4796.10156,0.01415
4798.03002,0.01532
4799.95849,0.01443
4801.88696,0.01485
4803.81543,0.01020
4805.74390,0.00585
4807.67237,0.00494
4809.60084,0.00355
4811.52930,0.00124
4813.45777,-0.00107
4815.38624,-0.00046
4817.31471,0.00641
4819.24318,0.01847
4821.17165,0.02419
4823.10012,0.01327
4825.02859,-0.00097
4826.95705,0.00183
4828.88552,0.01762
4830.81399,0.02903
4832.74246,0.02993
4834.67093,0.02550
4836.59940,0.01912
4838.52787,0.01087
4840.45633,0.00426
4842.38480,-0.00143
4844.31327,-0.00256
4846.24174,0.00951
4848.17021,0.02315
4850.09868,0.02380
4852.02715,0.01255
4853.95562,-0.00233
4855.88408,-0.00732
4857.81255,0.00504
4859.74102,0.02548
4861.66949,0.03265
4863.59796,0.02058
4865.52643,0.00735
4867.45490,0.00535
4869.38336,0.00813
4871.31183,0.00754
4873.24030,0.00518
4875.16877,0.00275
4877.09724,0.00385
4879.02571,0.00912
4880.95418,0.00894
4882.88265,0.00114
4884.81111,-0.00278
4886.73958,0.00225
4888.66805,0.00253
4890.59652,-0.00488
4892.52499,-0.00194
4894.45346,0.01282
4896.38193,0.01820
4898.31039,0.01312
4900.23886,0.02111
4902.16733,0.03566
4904.09580,0.03640
4906.02427,0.02488
4907.95274,0.00775
4909.88121,-0.00516
4911.80967,-0.00894
4913.73814,-0.00940
4915.66661,-0.00473
4917.59508,0.00315
4919.52355,0.00567
4921.45202,0.01173
4923.38049,0.02699
4925.30896,0.03585
4927.23742,0.03204
4929.16589,0.01797
4931.09436,-0.00465
4933.02283,-0.01623
4934.95130,-0.00760
4936.87977,-0.00014
4938.80824,0.00036
4940.73670,0.00581
4942.66517,0.01575
4944.59364,0.02313
4946.52211,0.02350
4948.45058,0.02476
4950.37905,0.02944
4952.30752,0.02631
4954.23599,0.02569
4956.16445,0.03694
4958.09292,0.03990
4960.02139,0.03411
4961.94986,0.03803
4963.87833,0.03933
4965.80680,0.02487
4967.73527,0.01134
4969.66373,0.00938
4971.59220,0.01555
4973.52067,0.02223
4975.44914,0.01703
4977.37761,0.00789
4979.30608,0.01966
4981.23455,0.03922
4983.16302,0.02836
4985.09148,-0.00205
4987.01995,-0.01290
4988.94842,-0.00246
4990.87689,0.00646
4992.80536,0.00982
4994.73383,0.01414
4996.66230,0.01337
4998.59076,0.00576
5000.51923,0.00149
5002.44770,0.00228
5004.37617,0.00084
5006.30464,0.00190
5008.23311,0.01211
5010.16158,0.01768
5012.09005,0.01727
5014.01851,0.02262
5015.94698,0.02779
5017.87545,0.02499
5019.80392,0.00586
5021.73239,-0.01982
5023.66086,-0.02078
5025.58933,-0.00147
5027.51779,0.00889
5029.44626,0.00966
5031.37473,0.01275
5033.30320,0.01429
5035.23167,0.01106
5037.16014,0.01399
5039.08861,0.02749
5041.01708,0.03406
5042.94554,0.02977
5044.87401,0.03307
5046.80248,0.04037
5048.73095,0.04137
5050.65942,0.03576
5052.58789,0.01842
5054.51636,0.00716
5056.44482,0.02196
5058.37329,0.03851
5060.30176,0.03272
5062.23023,0.02018
5064.15870,0.01295
5066.08717,0.00272
5068.01564,-0.00523
5069.94410,0.00235
5071.87257,0.01431
5073.80104,0.01227
5075.72951,0.00377
5077.65798,0.00818
5079.58645,0.02437
5081.51492,0.02985
5083.44339,0.02063
5085.37185,0.01332
5087.30032,0.01114
5089.22879,0.00889
5091.15726,0.00078
5093.08573,-0.00740
5095.01420,0.00473
5096.94267,0.03337
5098.87113,0.04985
5100.79960,0.04208
5102.72807,0.02333
5104.65654,0.00229
5106.58501,-0.01029
5108.51348,0.00927
5110.44195,0.04301
5112.37042,0.06007
5114.29888,0.06353
5116.22735,0.04860
5118.15582,0.03301
5120.08429,0.04334
5122.01276,0.05117
5123.94123,0.03850
5125.86970,0.02367
5127.79816,0.01438
5129.72663,0.01267
5131.65510,0.01793
5133.58357,0.02261
5135.51204,0.02777
5137.44051,0.04243
5139.36898,0.05856
5141.29745,0.05548
5143.22591,0.04109
5145.15438,0.03166
5147.08285,0.01975
5149.01132,0.00783
5150.93979,0.00636
5152.86826,0.01108
5154.79673,0.01937
5156.72519,0.03649
5158.65366,0.05101
5160.58213,0.04281
5162.51060,0.02476
5164.43907,0.02017
5166.36754,0.02355
5168.29601,0.03327
5170.22448,0.04835
5172.15294,0.04964
5174.08141,0.04172
5176.00988,0.03586
5177.93835,0.02828
5179.86682,0.02836
5181.79529,0.04106
5183.72376,0.04729
5185.65222,0.03701
5187.58069,0.03164
5189.50916,0.03858
5191.43763,0.04052
5193.36610,0.03660
5195.29457,0.03227
5197.22304,0.03038
5199.15151,0.04143
5201.07997,0.05942
5203.00844,0.06031
5204.93691,0.03909
5206.86538,0.02188
5208.79385,0.02313
5210.72232,0.03430
5212.65079,0.05059
5214.57925,0.05148
5216.50772,0.03819
5218.43619,0.03916
5220.36466,0.04566
5222.29313,0.04244
5224.22160,0.03522
5226.15007,0.02346
5228.07854,0.01059
5230.00700,0.00852
5231.93547,0.02673
5233.86394,0.04985
5235.79241,0.05253
5237.72088,0.03905
5239.64935,0.02730
5241.57782,0.02435
5243.50628,0.03152
5245.43475,0.04640
5247.36322,0.05429
5249.29169,0.04633
5251.22016,0.03566
5253.14863,0.03901
5255.07710,0.06074
5257.00556,0.07382
5258.93403,0.06181
5260.86250,0.05611
5262.79097,0.05662
5264.71944,0.03463
5266.64791,0.02147
5268.57638,0.04619
5270.50485,0.07662
5272.43331,0.07403
5274.36178,0.05621
5276.29025,0.05272
5278.21872,0.06024
5280.14719,0.06782
5282.07566,0.06596
5284.00413,0.05774
5285.93259,0.05386
5287.86106,0.05011
5289.78953,0.04354
5291.71800,0.04332
5293.64647,0.05049
5295.57494,0.05906
5297.50341,0.06258
5299.43188,0.04786
5301.36034,0.02732
5303.28881,0.03299
5305.21728,0.06054
5307.14575,0.08294
5309.07422,0.08290
5311.00269,0.06401
5312.93116,0.04750
5314.85962,0.04863
5316.78809,0.05541
5318.71656,0.06008
5320.64503,0.08062
5322.57350,0.10044
5324.50197,0.08451
5326.43044,0.05687
5328.35891,0.05642
5330.28737,0.06711
5332.21584,0.07016
5334.14431,0.06537
5336.07278,0.04816
5338.00125,0.03690
5339.92972,0.05206
5341.85819,0.06281
5343.78665,0.05369
5345.71512,0.05495
5347.64359,0.06298
5349.57206,0.04869
5351.50053,0.03407
5353.42900,0.04716
5355.35747,0.06195
5357.28594,0.05654
5359.21440,0.04683
5361.14287,0.04450
5363.07134,0.05370
5364.99981,0.07211
5366.92828,0.08446
5368.85675,0.08554
5370.78522,0.08335
5372.71368,0.08363
5374.64215,0.08412
5376.57062,0.07139
5378.49909,0.04483
5380.42756,0.03067
5382.35603,0.03460
5384.28450,0.03466
5386.21297,0.03759
5388.14143,0.06134
5390.06990,0.08449
5391.99837,0.08618
5393.92684,0.06836
5395.85531,0.07183
5397.78378,0.09920
5399.71225,0.10195
5401.64071,0.08092
5403.56918,0.06714
5405.49765,0.06584
5407.42612,0.06794
5409.35459,0.06383
5411.28306,0.04996
5413.21153,0.02962
5415.13999,0.01559
5417.06846,0.02262
5418.99693,0.04880
5420.92540,0.07931
5422.85387,0.09196
5424.78234,0.08531
5426.71081,0.08801
5428.63928,0.10952
5430.56774,0.12679
5432.49621,0.12633
5434.42468,0.10214
5436.35315,0.06363
5438.28162,0.05378
5440.21009,0.08289
5442.13856,0.09292
5444.06702,0.06146
5445.99549,0.04202
5447.92396,0.04694
5449.85243,0.04648
5451.78090,0.03906
5453.70937,0.04257
5455.63784,0.06205
5457.56631,0.06592
5459.49477,0.04995
5461.42324,0.05386
5463.35171,0.06944
5465.28018,0.07861
5467.20865,0.09357
5469.13712,0.10488
5471.06559,0.09359
5472.99405,0.08321
5474.92252,0.10207
5476.85099,0.11943
5478.77946,0.10310
5480.70793,0.08425
5482.63640,0.08789
5484.56487,0.09350
5486.49334,0.08852
5488.42180,0.09054
5490.35027,0.09932
5492.27874,0.09914
5494.20721,0.09015
5496.13568,0.08110
5498.06415,0.07109
5499.99262,0.05562
5501.92108,0.04380
5503.84955,0.06096
5505.77802,0.10444
5507.70649,0.12103
5509.63496,0.09924
5511.56343,0.08795
5513.49190,0.09545
5515.42037,0.08687
5517.34883,0.05526
5519.27730,0.02832
5521.20577,0.02108
5523.13424,0.04291
5525.06271,0.08236
5526.99118,0.09063
5528.91965,0.06064
5530.84811,0.05081
5532.77658,0.08608
5534.70505,0.12258
5536.63352,0.12632
5538.56199,0.10631
5540.49046,0.09664
5542.41893,0.10404
5544.34740,0.09532
5546.27586,0.07051
5548.20433,0.06514
5550.13280,0.09145
5552.06127,0.11499
5553.98974,0.09932
5555.91821,0.06246
5557.84668,0.04277
5559.77514,0.05560
5561.70361,0.08596
5563.63208,0.10370
5565.56055,0.10335
5567.48902,0.09600
5569.41749,0.08068
5571.34596,0.07024
5573.27443,0.08271
5575.20289,0.08718
5577.13136,0.06524
5579.05983,0.06362
5580.98830,0.08586
5582.91677,0.07342
5584.84524,0.03619
5586.77371,0.03539
5588.70217,0.06993
5590.63064,0.08808
5592.55911,0.07676
5594.48758,0.06433
5596.41605,0.07735
5598.34452,0.11078
5600.27299,0.12937
5602.20145,0.13402
5604.12992,0.13760
5606.05839,0.11696
5607.98686,0.07888
5609.91533,0.06507
5611.84380,0.08672
5613.77227,0.11065
5615.70074,0.11913
5617.62920,0.12607
5619.55767,0.12272
5621.48614,0.10398
5623.41461,0.10089
5625.34308,0.11052
5627.27155,0.08943
5629.20002,0.05345
5631.12848,0.05839
5633.05695,0.09920
5634.98542,0.12395
5636.91389,0.11547
5638.84236,0.09804
5640.77083,0.08433
5642.69930,0.08013
5644.62777,0.08151
5646.55623,0.08400
5648.48470,0.08799
5650.41317,0.08579
5652.34164,0.07701
5654.27011,0.05875
5656.19858,0.04459
5658.12705,0.05793
5660.05551,0.08077
5661.98398,0.08316
5663.91245,0.07378
5665.84092,0.07168
5667.76939,0.08250
5669.69786,0.09428
5671.62633,0.07122
5673.55480,0.02875
5675.48326,0.01204
5677.41173,0.00405
5679.34020,-0.00555
5681.26867,-0.00203
5683.19714,0.00741
5685.12561,0.02725
5687.05408,0.04856
5688.98254,0.05567
5690.91101,0.06648
5692.83948,0.08026
5694.76795,0.09069
5696.69642,0.09362
5698.62489,0.05844
5700.55336,0.01975
5702.48183,0.03746
5704.41029,0.06538
5706.33876,0.04821
5708.26723,0.02220
5710.19570,0.03129
5712.12417,0.05826
5714.05264,0.07045
5715.98111,0.07327
5717.90957,0.08903
5719.83804,0.11045
5721.76651,0.11065
5723.69498,0.08984
5725.62345,0.07969
5727.55192,0.09090
5729.48039,0.09850
5731.40886,0.09652
5733.33732,0.09625
5735.26579,0.09494
5737.19426,0.09823
5739.12273,0.11005
5741.05120,0.11248
5742.97967,0.09779
5744.90814,0.07354
5746.83660,0.05508
5748.76507,0.05835
5750.69354,0.07916
5752.62201,0.09424
5754.55048,0.08662
5756.47895,0.06966
5758.40742,0.06981
5760.33588,0.08603
5762.26435,0.09603
5764.19282,0.09436
5766.12129,0.09225
5768.04976,0.09661
5769.97823,0.10606
5771.90670,0.10752
5773.83517,0.07680
5775.76363,0.01958
5777.69210,-0.00589
5779.62057,0.01795
5781.54904,0.03749
5783.47751,0.03554
5785.40598,0.04476
5787.33445,0.08116
5789.26291,0.11159
5791.19138,0.10170
5793.11985,0.07539
5795.04832,0.07899
5796.97679,0.11191
5798.90526,0.13392
5800.83373,0.12132
5802.76220,0.08176
5804.69066,0.04750
5806.61913,0.04649
5808.54760,0.07725
5810.47607,0.10751
5812.40454,0.10659
5814.33301,0.11144
5816.26148,0.15317
5818.18994,0.16922
5820.11841,0.12232
5822.04688,0.06950
5823.97535,0.05079
5825.90382,0.06074
5827.83229,0.07676
5829.76076,0.07381
5831.68923,0.07021
5833.61769,0.08123
5835.54616,0.08872
5837.47463,0.09789
5839.40310,0.12119
5841.33157,0.12966
5843.26004,0.08892
5845.18851,0.05068
5847.11697,0.07369
5849.04544,0.09659
5850.97391,0.06582
5852.90238,0.02255
5854.83085,-0.00027
5856.75932,0.02956
5858.68779,0.09315
5860.61626,0.10878
5862.54472,0.06881
5864.47319,0.03146
5866.40166,0.03115
5868.33013,0.08568
5870.25860,0.16222
5872.18707,0.17682
5874.11554,0.12533
5876.04400,0.11155
5877.97247,0.16961
5879.90094,0.20392
5881.82941,0.17865
5883.75788,0.12731
5885.68635,0.07033
5887.61482,0.03357
5889.54329,0.01944
5891.47175,0.02460
5893.40022,0.05858
5895.32869,0.10867
5897.25716,0.14660
5899.18563,0.14933
5901.11410,0.12086
5903.04257,0.08823
5904.97103,0.08511
5906.89950,0.09712
5908.82797,0.09365
5910.75644,0.11239
5912.68491,0.15156
5914.61338,0.14960
5916.54185,0.11237
5918.47032,0.08159
5920.39878,0.07267
5922.32725,0.07147
5924.25572,0.08184
5926.18419,0.11853
5928.11266,0.13936
5930.04113,0.11283
5931.96960,0.07331
5933.89806,0.06082
5935.82653,0.07771
5937.75500,0.09841
5939.68347,0.09695
5941.61194,0.06159
5943.54041,0.02329
5945.46888,0.01834
5947.39734,0.04823
5949.32581,0.08250
5951.25428,0.08904
5953.18275,0.09214
5955.11122,0.09233
5957.03969,0.05848
5958.96816,0.01550
5960.89663,0.01330
5962.82509,0.05019
5964.75356,0.06862
5966.68203,0.04856
5968.61050,0.04656
5970.53897,0.07793
5972.46744,0.09108
5974.39591,0.07018
5976.32437,0.03685
5978.25284,0.02546
5980.18131,0.04762
5982.10978,0.06149
5984.03825,0.05006
5985.96672,0.05026
5987.89519,0.07941
5989.82366,0.10237
5991.75212,0.09413
5993.68059,0.09746
5995.60906,0.13211
5997.53753,0.14444
5999.46600,0.13158
6001.39447,0.11678
6003.32294,0.08856
6005.25140,0.06387
6007.17987,0.06150
6009.10834,0.06082
6011.03681,0.04435
6012.96528,0.01953
6014.89375,0.00258
6016.82222,0.00188
6018.75069,0.02763
6020.67915,0.05583
6022.60762,0.05137
6024.53609,0.03090
6026.46456,0.02909
6028.39303,0.04370
6030.32150,0.02714
6032.24997,-0.00128
6034.17843,0.03561
6036.10690,0.09626
6038.03537,0.09540
6039.96384,0.06960
6041.89231,0.05385
6043.82078,0.05586
6045.74925,0.09001
6047.67772,0.10077
6049.60618,0.05712
6051.53465,0.02960
6053.46312,0.04547
6055.39159,0.06426
6057.32006,0.07279
6059.24853,0.09514
6061.17700,0.12993
6063.10546,0.13146
6065.03393,0.07507
6066.96240,0.02826
6068.89087,0.04380
6070.81934,0.07313
6072.74781,0.06543
6074.67628,0.04346
6076.60475,0.04727
6078.53321,0.05430
6080.46168,0.05306
6082.39015,0.08792
6084.31862,0.11236
6086.24709,0.07230
6088.17556,0.04183
6090.10403,0.04011
6092.03249,0.03819
6093.96096,0.05624
6095.88943,0.07305
6097.81790,0.07932
6099.74637,0.11012
6101.67484,0.15420
6103.60331,0.17238
6105.53177,0.16661
6107.46024,0.14673
6109.38871,0.08259
6111.31718,0.00916
6113.24565,0.02437
6115.17412,0.11071
6117.10259,0.16450
6119.03106,0.14808
6120.95952,0.12771
6122.88799,0.13251
6124.81646,0.15700
6126.74493,0.16909
6128.67340,0.08566
6130.60187,0.00372
6132.53034,0.05409
6134.45880,0.12528
6136.38727,0.14099
6138.31574,0.15681
6140.24421,0.17028
6142.17268,0.15129
6144.10115,0.13913
6146.02962,0.15535
6147.95809,0.17182
6149.88655,0.16993
6151.81502,0.15512
6153.74349,0.15148
6155.67196,0.15697
6157.60043,0.13817
6159.52890,0.10461
6161.45737,0.09083
6163.38583,0.07792
6165.31430,0.06781
6167.24277,0.06921
6169.17124,0.03038
6171.09971,-0.02687
6173.02818,-0.01851
6174.95665,0.03333
6176.88512,0.08280
6178.81358,0.13162
6180.74205,0.14808
6182.67052,0.12763
6184.59899,0.12115
6186.52746,0.15611
6188.45593,0.20295
6190.38440,0.19609
6192.31286,0.14912
6194.24133,0.10016
6196.16980,0.08768
6198.09827,0.13622
6200.02674,0.15696
6201.95521,0.10960
6203.88368,0.05675
6205.81215,0.04176
6207.74061,0.06130
6209.66908,0.07924
6211.59755,0.08934
6213.52602,0.11630
6215.45449,0.12899
6217.38296,0.11421
6219.31143,0.10532
6221.23989,0.08723
6223.16836,0.05083
6225.09683,0.02993
6227.02530,0.02996
6228.95377,0.05168
6230.88224,0.10406
6232.81071,0.16012
6234.73918,0.17212
6236.66764,0.13580
6238.59611,0.08561
6240.52458,0.05726
6242.45305,0.05118
6244.38152,0.02986
6246.30999,-0.00258
6248.23846,0.00363
6250.16692,0.05880
6252.09539,0.12252
6254.02386,0.15836
6255.95233,0.15375
6257.88080,0.12836
6259.80927,0.13284
6261.73774,0.16199
6263.66621,0.17741
6265.59467,0.15909
6267.52314,0.09225
6269.45161,0.05876
6271.38008,0.10735
6273.30855,0.13978
6275.23702,0.10296
6277.16549,0.04511
6279.09395,0.01044
6281.02242,0.01076
6282.95089,0.01503
6284.87936,0.03304
6286.80783,0.06182
6288.73630,0.05690
6290.66477,0.04703
6292.59323,0.08367
6294.52170,0.13138
6296.45017,0.12197
6298.37864,0.08557
6300.30711,0.08860
6302.23558,0.09621
6304.16405,0.08450
6306.09252,0.10767
6308.02098,0.15012
6309.94945,0.15741
6311.87792,0.14391
6313.80639,0.13378
6315.73486,0.10851
6317.66333,0.06021
6319.59180,0.03323
6321.52026,0.05590
6323.44873,0.09252
6325.37720,0.11631
6327.30567,0.12985
6329.23414,0.15426
6331.16261,0.16679
6333.09108,0.11681
6335.01955,0.07083
6336.94801,0.06431
6338.87648,0.04234
6340.80495,0.03602
6342.73342,0.07637
6344.66189,0.11685
6346.59036,0.13389
6348.51883,0.10660
6350.44729,0.04110
6352.37576,0.03616
6354.30423,0.08027
6356.23270,0.08222
6358.16117,0.04940
6360.08964,0.02876
6362.01811,0.04365
6363.94658,0.07759
6365.87504,0.09348
6367.80351,0.09136
6369.73198,0.08590
6371.66045,0.06024
6373.58892,0.03296
6375.51739,0.04786
6377.44586,0.06070
6379.37432,0.04188
6381.30279,0.02131
6383.23126,0.00868
6385.15973,0.02853
6387.08820,0.08512
6389.01667,0.12650
6390.94514,0.13855
6392.87361,0.14184
6394.80207,0.11229
6396.73054,0.05477
6398.65901,0.02501
6400.58748,0.03503
6402.51595,0.06742
6404.44442,0.09671
6406.37289,0.07120
6408.30135,-0.00463
6410.22982,-0.03890
6412.15829,-0.01083
6414.08676,0.02107
6416.01523,0.06938
6417.94370,0.14020
6419.87217,0.16693
6421.80064,0.14339
6423.72910,0.09272
6425.65757,0.06497
6427.58604,0.12742
6429.51451,0.22387
6431.44298,0.23609
6433.37145,0.17930
6435.29992,0.15246
6437.22838,0.15223
6439.15685,0.13093
6441.08532,0.08092
6443.01379,0.02446
6444.94226,-0.00357
6446.87073,-0.01533
6448.79920,-0.00575
6450.72766,0.04419
6452.65613,0.08512
6454.58460,0.09470
6456.51307,0.10931
6458.44154,0.13348
6460.37001,0.14945
6462.29848,0.13042
6464.22695,0.05930
6466.15541,0.02031
6468.08388,0.06564
6470.01235,0.10098
6471.94082,0.07805
6473.86929,0.05195
6475.79776,0.04295
6477.72623,0.03472
6479.65469,0.02157
6481.58316,-0.01232
6483.51163,-0.04324
6485.44010,-0.01956
6487.36857,0.02306
6489.29704,0.05887
6491.22551,0.12018
6493.15398,0.14725
6495.08244,0.09312
6497.01091,0.03729
6498.93938,0.02154
6500.86785,0.06847
6502.79632,0.13064
6504.72479,0.13558
6506.65326,0.14031
6508.58172,0.12912
6510.51019,0.05107
6512.43866,-0.01498
6514.36713,-0.01849
6516.29560,0.00598
6518.22407,0.04665
6520.15254,0.12102
6522.08101,0.20184
6524.00947,0.21603
6525.93794,0.15908
6527.86641,0.10894
6529.79488,0.09735
6531.72335,0.09402
6533.65182,0.04898
6535.58029,0.00603
6537.50875,0.03477
6539.43722,0.04728
6541.36569,0.03095
6543.29416,0.06391
6545.22263,0.09623
6547.15110,0.11743
6549.07957,0.10849
6551.00804,0.01995
6552.93650,-0.03019
6554.86497,0.02358
6556.79344,0.07085
6558.72191,0.08589
6560.65038,0.14713
6562.57885,0.23993
6564.50732,0.25504
6566.43578,0.16530
6568.36425,0.08357
6570.29272,0.03320
6572.22119,-0.02338
6574.14966,-0.01165
6576.07813,0.05629
6578.00660,0.10733
6579.93507,0.17469
6581.86353,0.21061
6583.79200,0.15684
6585.72047,0.10026
6587.64894,0.06951
6589.57741,0.05425
6591.50588,0.06916
6593.43435,0.09224
6595.36281,0.07212
6597.29128,0.03000
6599.21975,0.00607
6601.14822,-0.01542
6603.07669,-0.00936
6605.00516,0.01492
6606.93363,0.01211
6608.86210,0.04448
6610.79056,0.11328
6612.71903,0.12642
6614.64750,0.10287
6616.57597,0.05063
6618.50444,-0.02332
6620.43291,-0.02760
6622.36138,0.02908
6624.28984,0.07516
6626.21831,0.08655
6628.14678,0.07038
6630.07525,0.05091
6632.00372,0.06632
6633.93219,0.09715
6635.86066,0.08274
6637.78912,0.07180
6639.71759,0.10140
6641.64606,0.06995
6643.57453,0.02030
6645.50300,0.08416
6647.43147,0.16848
6649.35994,0.17742
6651.28841,0.12183
6653.21687,0.02097
6655.14534,-0.03136
6657.07381,-0.01025
6659.00228,0.01245
6660.93075,0.03060
6662.85922,0.04905
6664.78769,0.01384
6666.71615,-0.05605
6668.64462,-0.01380
6670.57309,0.12207
6672.50156,0.15623
6674.43003,0.09229
6676.35850,0.06716
6678.28697,0.07479
6680.21544,0.07929
6682.14390,0.09007
6684.07237,0.09799
6686.00084,0.10336
6687.92931,0.12529
6689.85778,0.16237
6691.78625,0.16682
6693.71472,0.10144
6695.64318,0.03076
6697.57165,0.03777
6699.50012,0.05578
6701.42859,0.03918
6703.35706,0.06639
6705.28553,0.15310
6707.21400,0.18496
6709.14247,0.11079
6711.07093,0.07848
6712.99940,0.11733
6714.92787,0.10035
6716.85634,0.03519
6718.78481,0.03426
6720.71328,0.07960
6722.64175,0.09171
6724.57021,0.09995
6726.49868,0.13241
6728.42715,0.11452
6730.35562,0.02020
6732.28409,0.00482
6734.21256,0.09445
6736.14103,0.08943
6738.06950,0.01123
6739.99796,0.03238
6741.92643,0.13362
6743.85490,0.19709
6745.78337,0.20992
6747.71184,0.20779
6749.64031,0.17807
6751.56878,0.08479
6753.49724,0.00537
6755.42571,0.02604
6757.35418,0.05651
6759.28265,0.04653
6761.21112,0.07940
6763.13959,0.14870
6765.06806,0.15859
6766.99653,0.08579
6768.92499,0.01209
6770.85346,0.01964
6772.78193,0.07796
6774.71040,0.13433
6776.63887,0.16660
6778.56734,0.11887
6780.49581,0.03322
6782.42427,0.00599
6784.35274,0.01917
6786.28121,0.04951
6788.20968,0.10722
6790.13815,0.14628
6792.06662,0.11760
6793.99509,0.05813
6795.92355,0.04408
6797.85202,0.09474
6799.78049,0.14773
6801.70896,0.16280
6803.63743,0.17101
6805.56590,0.16326
6807.49437,0.12810
6809.42284,0.09315
6811.35130,0.06514
6813.27977,0.05812
6815.20824,0.04574
6817.13671,-0.01367
6819.06518,-0.04253
6820.99365,0.01101
6822.92212,0.03350
6824.85058,-0.01969
6826.77905,0.01844
6828.70752,0.13606
6830.63599,0.20488
6832.56446,0.20443
6834.49293,0.16229
6836.42140,0.11034
6838.34987,0.02862
6840.27833,-0.05950
6842.20680,-0.07047
6844.13527,-0.05553
6846.06374,-0.06585
6847.99221,-0.05791
6849.92068,0.02058
6851.84915,0.12388
6853.77761,0.15692
6855.70608,0.08470
6857.63455,-0.03612
6859.56302,-0.10795
6861.49149,-0.08934
6863.41996,-0.02206
6865.34843,0.03004
6867.27690,0.06334
6869.20536,0.08146
6871.13383,0.06093
6873.06230,0.05592
6874.99077,0.11379
6876.91924,0.13659
6878.84771,0.11372
6880.77618,0.11747
6882.70464,0.13770
6884.63311,0.18284
6886.56158,0.23219
6888.49005,0.19812
6890.41852,0.07878
6892.34699,-0.02997
6894.27546,-0.04280
6896.20393,0.01556
6898.13239,0.03344
6900.06086,0.00252
6901.98933,0.00854
6903.91780,0.02488
6905.84627,-0.01493
6907.77474,-0.05562
6909.70321,-0.01362
6911.63167,0.07018
6913.56014,0.05972
6915.48861,-0.05152
6917.41708,-0.15402
6919.34555,-0.21484
6921.27402,-0.15952
6923.20249,0.00217
6925.13096,0.06855
6927.05942,0.03379
6928.98789,0.03461
6930.91636,0.10900
6932.84483,0.16519
6934.77330,0.11679
6936.70177,0.03643
6938.63024,0.00726
6940.55870,0.05768
6942.48717,0.14797
6944.41564,0.22748
6946.34411,0.26584
6948.27258,0.25675
6950.20105,0.19365
6952.12952,0.07858
6954.05799,0.04115
6955.98645,0.07266
6957.91492,0.00036
6959.84339,-0.11588
6961.77186,-0.11952
6963.70033,0.01697
6965.62880,0.14286
6967.55727,0.11499
6969.48573,-0.03492
6971.41420,-0.13151
6973.34267,-0.06074
6975.27114,0.04196
6977.19961,0.03835
6979.12808,0.06215
6981.05655,0.16540
6982.98501,0.23630
6984.91348,0.19670
6986.84195,0.05183
6988.77042,-0.05052
6990.69889,0.01921
6992.62736,0.12076
6994.55583,0.09564
6996.48430,-0.00677
6998.41276,-0.01250
7000.34123,0.05864
7002.26970,0.05970
7004.19817,0.03355
7006.12664,0.00184
7008.05511,-0.13783
7009.98358,-0.24161
7011.91204,-0.13237
7013.84051,0.00781
7015.76898,-0.00338
7017.69745,0.00456
7019.62592,0.08537
7021.55439,0.10339
7023.48286,0.03753
7025.41133,0.00892
7027.33979,0.04500
7029.26826,0.03717
7031.19673,-0.01992
7033.12520,-0.03085
7035.05367,0.01827
7036.98214,0.04346
7038.91061,-0.00617
7040.83907,-0.04525
7042.76754,0.02868
7044.69601,0.10138
7046.62448,0.05753
7048.55295,0.02152
7050.48142,0.06316
7052.40989,0.11578
7054.33836,0.16833
7056.26682,0.21178
7058.19529,0.17872
7060.12376,0.15458
7062.05223,0.19487
7063.98070,0.21239
7065.90917,0.19145
7067.83764,0.16439
7069.76610,0.12119
7071.69457,0.06601
7073.62304,0.05666
7075.55151,0.05813
7077.47998,0.00844
7079.40845,-0.05551
7081.33692,-0.07604
7083.26539,-0.03366
7085.19385,0.02667
7087.12232,0.07195
7089.05079,0.07838
7090.97926,0.00017
7092.90773,-0.05677
7094.83620,0.08472
7096.76467,0.28635
7098.69313,0.29702
7100.62160,0.20353
7102.55007,0.19118
7104.47854,0.20849
7106.40701,0.10067
7108.33548,-0.06487
7110.26395,-0.09602
7112.19242,-0.03929
7114.12088,-0.03773
7116.04935,-0.09056
7117.97782,-0.04541
7119.90629,0.10257
7121.83476,0.16038
7123.76323,0.08885
7125.69170,-0.00681
7127.62016,0.00559
7129.54863,0.07074
7131.47710,0.06567
7133.40557,0.04138
7135.33404,0.04270
7137.26251,0.04768
7139.19098,0.10128
7141.11944,0.17737
7143.04791,0.18119
7144.97638,0.10976
7146.90485,0.03221
7148.83332,0.01867
7150.76179,0.11987
7152.69026,0.29954
7154.61873,0.37032
7156.54719,0.32867
7158.47566,0.26855
7160.40413,0.18286
7162.33260,0.13320
7164.26107,0.15332
7166.18954,0.14358
7168.11801,0.02166
7170.04647,-0.08968
7171.97494,-0.07368
7173.90341,-0.08197
7175.83188,-0.14341
7177.76035,-0.13720
7179.68882,-0.07444
7181.61729,-0.05666
7183.54576,-0.11653
7185.47422,-0.08902
7187.40269,0.01248
7189.33116,0.03996
7191.25963,0.01628
7193.18810,-0.02415
7195.11657,-0.03375
7197.04504,0.09276
7198.97350,0.19228
7200.90197,0.17376
7202.83044,0.17491
7204.75891,0.13896
7206.68738,0.11843
7208.61585,0.27280
7210.54432,0.33891
7212.47279,0.25066
7214.40125,0.25545
7216.32972,0.34786
7218.25819,0.25847
7220.18666,0.05519
7222.11513,-0.09248
7224.04360,-0.21855
7225.97207,-0.24347
7227.90053,-0.15536
7229.82900,-0.10397
7231.75747,-0.13113
7233.68594,-0.11401
7235.61441,0.01706
7237.54288,0.17051
7239.47135,0.25078
7241.39982,0.25463
7243.32828,0.19316
7245.25675,0.15838
7247.18522,0.19854
7249.11369,0.31564
7251.04216,0.44805
7252.97063,0.40827
7254.89910,0.21230
7256.82756,0.05771
7258.75603,-0.12482
7260.68450,-0.28369
7262.61297,-0.13089
7264.54144,0.11454
7266.46991,0.09776
7268.39838,0.01216
7270.32685,-0.00890
7272.25531,-0.01013
7274.18378,0.04636
7276.11225,0.05533
7278.04072,-0.08274
7279.96919,-0.20390
7281.89766,-0.09192
7283.82613,0.03699
7285.75459,0.02223
7287.68306,-0.00990
7289.61153,0.06518
7291.54000,0.14778
7293.46847,0.11493
7295.39694,0.08862
7297.32541,0.17304
7299.25387,0.24644
7301.18234,0.14154
7303.11081,-0.14101
7305.03928,-0.29939
7306.96775,-0.05153
7308.89622,0.34845
7310.82469,0.34123
7312.75316,0.17340
7314.68162,0.23065
7316.61009,0.33117
7318.53856,0.18819
7320.46703,0.02781
7322.39550,0.04349
7324.32397,0.16224
7326.25244,0.19319
7328.18090,0.14273
7330.10937,0.08508
7332.03784,0.03154
7333.96631,0.05130
7335.89478,0.06254
7337.82325,0.02645
7339.75172,0.03656
7341.68019,0.00953
7343.60865,-0.15249
7345.53712,-0.28133
7347.46559,-0.19288
7349.39406,-0.05509
7351.32253,0.00581
7353.25100,0.02231
7355.17947,0.00062
7357.10793,0.07660
7359.03640,0.17328
7360.96487,0.11164
7362.89334,0.02429
7364.82181,-0.01702
7366.75028,0.03596
7368.67875,0.17729
7370.60722,0.24425
7372.53568,0.17195
7374.46415,0.07898
7376.39262,0.04181
7378.32109,-0.05085
7380.24956,-0.15425
7382.17803,-0.12049
7384.10650,0.00242
7386.03496,0.08323
7387.96343,0.06917
7389.89190,0.00838
7391.82037,0.04916
7393.74884,0.23245
7395.67731,0.31442
7397.60578,0.16196
7399.53425,0.00584
7401.46271,-0.01551
7403.39118,0.06684
7405.31965,0.13465
7407.24812,0.09869
7409.17659,0.06305
7411.10506,0.06833
7413.03353,0.04908
7414.96199,0.02370
7416.89046,0.01912
7418.81893,-0.08081
7420.74740,-0.25784
7422.67587,-0.26442
7424.60434,-0.22538
7426.53281,-0.28197
7428.46128,-0.26811
7430.38974,-0.02362
7432.31821,0.18540
7434.24668,0.24610
7436.17515,0.35519
7438.10362,0.50870
7440.03209,0.54335
7441.96056,0.43930
7443.88902,0.21693
7445.81749,-0.01049
7447.74596,-0.05293
7449.67443,0.13294
7451.60290,0.33129
7453.53137,0.31696
7455.45984,0.19782
7457.38831,0.09935
7459.31677,0.02503
7461.24524,0.00594
7463.17371,0.10073
7465.10218,0.14112
7467.03065,-0.00290
7468.95912,-0.06604
7470.88759,0.11154
7472.81605,0.25220
7474.74452,0.06742
7476.67299,-0.25923
7478.60146,-0.36551
7480.52993,-0.22216
7482.45840,-0.12522
7484.38687,-0.08664
7486.31533,-0.01795
7488.24380,0.02802
7490.17227,0.03827
7492.10074,0.02798
7494.02921,0.04339
7495.95768,0.09676
7497.88615,0.12575
