399.19301,0.75071
401.12148,0.00276
403.04995,0.12426
404.97842,0.32691
406.90689,0.40316
408.83536,0.39739
410.76382,0.31149
412.69229,0.16469
414.62076,0.08835
416.54923,0.10266
418.47770,0.21133
420.40617,0.35125
422.33464,0.35540
424.26311,0.22097
426.19157,0.09017
428.12004,0.10994
430.04851,0.18881
431.97698,0.15127
433.90545,0.07520
435.83392,0.07735
437.76239,0.09841
439.69085,0.10015
441.61932,0.12090
443.54779,0.16280
445.47626,0.18825
447.40473,0.18342
449.33320,0.14611
451.26167,0.14481
453.19013,0.18797
455.11860,0.19376
457.04707,0.14212
458.97554,0.10142
460.90401,0.10789
462.83248,0.10562
464.76095,0.06070
466.68942,0.02114
468.61788,0.04400
470.54635,0.12487
472.47482,0.19405
474.40329,0.14204
476.33176,0.08072
478.26023,0.08903
480.18870,0.09777
482.11716,0.09707
484.04563,0.10731
485.97410,0.14009
487.90257,0.16609
489.83104,0.15834
491.75951,0.13623
493.68798,0.10728
495.61645,0.06190
497.54491,-0.01067
499.47338,-0.06530
501.40185,-0.05388
503.33032,-0.00679
505.25879,0.02325
507.18726,0.05173
509.11573,0.09743
511.04419,0.12486
512.97266,0.13204
514.90113,0.12594
516.82960,0.10328
518.75807,0.09640
520.68654,0.11414
522.61501,0.11976
524.54348,0.10685
526.47194,0.11715
528.40041,0.14372
530.32888,0.15970
532.25735,0.15739
534.18582,0.14211
536.11429,0.14977
538.04276,0.17438
539.97122,0.16901
541.89969,0.15272
543.82816,0.15280
545.75663,0.14534
547.68510,0.12717
549.61357,0.18242
551.54204,0.54913
553.47051,0.97490
555.39897,0.82209
557.32744,0.34675
559.25591,0.15000
561.18438,0.12408
563.11285,0.09995
565.04132,0.10280
566.96979,0.12521
568.89825,0.13125
570.82672,0.12156
572.75519,0.11825
574.68366,0.11935
576.61213,0.12632
578.54060,0.11689
580.46907,0.09478
582.39754,0.10118
584.32600,0.13291
586.25447,0.15556
588.18294,0.15715
590.11141,0.14243
592.03988,0.11725
593.96835,0.10386
595.89682,0.10368
597.82528,0.10127
599.75375,0.10183
601.68222,0.10398
603.61069,0.10717
605.53916,0.12635
607.46763,0.13769
609.39610,0.11076
611.32456,0.07635
613.25303,0.06954
615.18150,0.07917
617.10997,0.09315
619.03844,0.11866
620.96691,0.14509
622.89538,0.14285
624.82385,0.11112
626.75231,0.08754
628.68078,0.09541
630.60925,0.11609
632.53772,0.11756
634.46619,0.10212
636.39466,0.10463
638.32313,0.12478
640.25159,0.13130
642.18006,0.11388
644.10853,0.10357
646.03700,0.12386
647.96547,0.15292
649.89394,0.16190
651.82241,0.14819
653.75088,0.13497
655.67934,0.13173
657.60781,0.11565
659.53628,0.09043
661.46475,0.09596
663.39322,0.13459
665.32169,0.16461
667.25016,0.15667
669.17862,0.11628
671.10709,0.08814
673.03556,0.07619
674.96403,0.08345
676.89250,0.11132
678.82097,0.14003
680.74944,0.14945
682.67791,0.14918
684.60637,0.15284
686.53484,0.14878
688.46331,0.13375
690.39178,0.12389
692.32025,0.11822
694.24872,0.10903
696.17719,0.10091
698.10565,0.10006
700.03412,0.11300
701.96259,0.13026
703.89106,0.13637
705.81953,0.13837
707.74800,0.12137
709.67647,0.03529
711.60494,-0.05551
713.53340,-0.01035
715.46187,0.10349
717.39034,0.14102
719.31881,0.13150
721.24728,0.13623
723.17575,0.14745
725.10422,0.14926
727.03268,0.14843
728.96115,0.14934
730.88962,0.14464
732.81809,0.13904
734.74656,0.14070
736.67503,0.14257
738.60350,0.14321
740.53197,0.14961
742.46043,0.14880
744.38890,0.13659
746.31737,0.13442
748.24584,0.14873
750.17431,0.15631
752.10278,0.14533
754.03125,0.13615
755.95971,0.13620
757.88818,0.13702
759.81665,0.13851
761.74512,0.14493
763.67359,0.15615
765.60206,0.15931
767.53053,0.14666
769.45900,0.13044
771.38746,0.12262
773.31593,0.12568
775.24440,0.13707
777.17287,0.14397
779.10134,0.14054
781.02981,0.13731
782.95828,0.14238
784.88674,0.15220
786.81521,0.15472
788.74368,0.14634
790.67215,0.14047
792.60062,0.14332
794.52909,0.14230
796.45756,0.14252
798.38602,0.15960
800.31449,0.16989
802.24296,0.15636
804.17143,0.14487
806.09990,0.14357
808.02837,0.13882
809.95684,0.13411
811.88531,0.13750
813.81377,0.14078
815.74224,0.13488
817.67071,0.12912
819.59918,0.13403
821.52765,0.13904
823.45612,0.14112
825.38459,0.15628
827.31305,0.17132
829.24152,0.16412
831.16999,0.14711
833.09846,0.13810
835.02693,0.13796
836.95540,0.13224
838.88387,0.12239
840.81234,0.12493
842.74080,0.13561
844.66927,0.14595
846.59774,0.15362
848.52621,0.14944
850.45468,0.13831
852.38315,0.14030
854.31162,0.15575
856.24008,0.16476
858.16855,0.15624
860.09702,0.14049
862.02549,0.13139
863.95396,0.13700
865.88243,0.15575
867.81090,0.16987
869.73937,0.17530
871.66783,0.17999
873.59630,0.17460
875.52477,0.15750
877.45324,0.15276
879.38171,0.16252
881.31018,0.15752
883.23865,0.13829
885.16711,0.12801
887.09558,0.12598
889.02405,0.12885
890.95252,0.13993
892.88099,0.14909
894.80946,0.14941
896.73793,0.14838
898.66640,0.14855
900.59486,0.14506
902.52333,0.13988
904.45180,0.13944
906.38027,0.14596
908.30874,0.15678
910.23721,0.16424
912.16568,0.16517
914.09414,0.15977
916.02261,0.14784
917.95108,0.13803
919.87955,0.13699
921.80802,0.14293
923.73649,0.14868
925.66496,0.14501
927.59343,0.13432
929.52189,0.13056
931.45036,0.13987
933.37883,0.14913
935.30730,0.14924
937.23577,0.14772
939.16424,0.14700
941.09271,0.14202
943.02117,0.13419
944.94964,0.13192
946.87811,0.13319
948.80658,0.13175
950.73505,0.13390
952.66352,0.14135
954.59199,0.14923
956.52045,0.15587
958.44892,0.15921
960.37739,0.16014
962.30586,0.16156
964.23433,0.16223
966.16280,0.15918
968.09127,0.15109
970.01974,0.14272
971.94820,0.14221
973.87667,0.14497
975.80514,0.14076
977.73361,0.13655
979.66208,0.14353
981.59055,0.15396
983.51902,0.15789
985.44748,0.15746
987.37595,0.15505
989.30442,0.15403
991.23289,0.15386
993.16136,0.14998
995.08983,0.14599
997.01830,0.14599
998.94677,0.15130
1000.87523,0.15776
1002.80370,0.16088
1004.73217,0.16413
1006.66064,0.16255
1008.58911,0.15507
1010.51758,0.15267
1012.44605,0.15470
1014.37451,0.15750
1016.30298,0.16089
1018.23145,0.16004
1020.15992,0.15693
1022.08839,0.15762
1024.01686,0.15503
1025.94533,0.14081
1027.87380,0.12414
1029.80226,0.12451
1031.73073,0.14309
1033.65920,0.15810
1035.58767,0.16233
1037.51614,0.16487
1039.44461,0.16829
1041.37308,0.16899
1043.30154,0.16301
1045.23001,0.15499
1047.15848,0.15214
1049.08695,0.15424
1051.01542,0.15859
1052.94389,0.16451
1054.87236,0.16984
1056.80083,0.16860
1058.72929,0.16203
1060.65776,0.16071
1062.58623,0.16792
1064.51470,0.17511
1066.44317,0.17515
1068.37164,0.17114
1070.30011,0.17326
1072.22857,0.18252
1074.15704,0.18462
1076.08551,0.17372
1078.01398,0.15902
1079.94245,0.15260
1081.87092,0.15950
1083.79939,0.16951
1085.72786,0.17205
1087.65632,0.17011
1089.58479,0.17221
1091.51326,0.18280
1093.44173,0.19411
1095.37020,0.19207
1097.29867,0.17485
1099.22714,0.16154
1101.15560,0.16365
1103.08407,0.16708
1105.01254,0.16483
1106.94101,0.16176
1108.86948,0.16049
1110.79795,0.16416
1112.72642,0.16925
1114.65489,0.17337
1116.58335,0.17929
1118.51182,0.18026
1120.44029,0.17050
1122.36876,0.15924
1124.29723,0.15291
1126.22570,0.14561
1128.15417,0.13811
1130.08263,0.14068
1132.01110,0.15043
1133.93957,0.15362
1135.86804,0.14948
1137.79651,0.14542
1139.72498,0.14164
1141.65345,0.14001
1143.58191,0.14722
1145.51038,0.16209
1147.43885,0.17526
1149.36732,0.18071
1151.29579,0.17956
1153.22426,0.17296
1155.15273,0.16616
1157.08120,0.16605
1159.00966,0.16529
1160.93813,0.16325
1162.86660,0.16797
1164.79507,0.17132
1166.72354,0.16816
1168.65201,0.16533
1170.58048,0.16777
1172.50894,0.17455
1174.43741,0.17883
1176.36588,0.17927
1178.29435,0.18072
1180.22282,0.17979
1182.15129,0.17237
1184.07976,0.16306
1186.00823,0.15514
1187.93669,0.15208
1189.86516,0.15644
1191.79363,0.16214
1193.72210,0.16505
1195.65057,0.16513
1197.57904,0.16290
1199.50751,0.16310
1201.43597,0.16565
1203.36444,0.16722
1205.29291,0.17147
1207.22138,0.17583
1209.14985,0.17317
1211.07832,0.16803
1213.00679,0.16622
1214.93526,0.16613
1216.86372,0.16578
1218.79219,0.16557
1220.72066,0.16558
1222.64913,0.16567
1224.57760,0.16666
1226.50607,0.16753
1228.43454,0.16842
1230.36300,0.17085
1232.29147,0.17234
1234.21994,0.16927
1236.14841,0.16367
1238.07688,0.16139
1240.00535,0.16219
1241.93382,0.16274
1243.86229,0.16290
1245.79075,0.16182
1247.71922,0.16210
1249.64769,0.16632
1251.57616,0.17022
1253.50463,0.17247
1255.43310,0.17462
1257.36157,0.17621
1259.29003,0.17780
1261.21850,0.17936
1263.14697,0.17842
1265.07544,0.17311
1267.00391,0.16645
1268.93238,0.16250
1270.86085,0.16267
1272.78932,0.16603
1274.71778,0.16942
1276.64625,0.17160
1278.57472,0.17212
1280.50319,0.17044
1282.43166,0.16967
1284.36013,0.17144
1286.28860,0.17039
1288.21706,0.16592
1290.14553,0.16424
1292.07400,0.16599
1294.00247,0.16876
1295.93094,0.16892
1297.85941,0.16338
1299.78788,0.15318
1301.71634,0.13926
1303.64481,0.12756
1305.57328,0.13184
1307.50175,0.15246
1309.43022,0.16982
1311.35869,0.17410
1313.28716,0.17407
1315.21563,0.17567
1317.14409,0.17565
1319.07256,0.17009
1321.00103,0.16168
1322.92950,0.15816
1324.85797,0.15855
1326.78644,0.15900
1328.71491,0.16335
1330.64337,0.16617
1332.57184,0.16185
1334.50031,0.15937
1336.42878,0.16305
1338.35725,0.16878
1340.28572,0.17012
1342.21419,0.16139
1344.14266,0.14894
1346.07112,0.14871
1347.99959,0.16011
1349.92806,0.16636
1351.85653,0.16710
1353.78500,0.16971
1355.71347,0.17226
1357.64194,0.17223
1359.57040,0.17261
1361.49887,0.17445
1363.42734,0.17446
1365.35581,0.17342
1367.28428,0.17308
1369.21275,0.17383
1371.14122,0.17596
1373.06969,0.18015
1374.99815,0.18359
1376.92662,0.18274
1378.85509,0.18236
1380.78356,0.18308
1382.71203,0.18221
1384.64050,0.18199
1386.56897,0.18378
1388.49743,0.18462
1390.42590,0.18514
1392.35437,0.18759
1394.28284,0.18990
1396.21131,0.19042
1398.13978,0.18857
1400.06825,0.18337
1401.99672,0.17849
1403.92518,0.17572
1405.85365,0.17383
1407.78212,0.17520
1409.71059,0.17909
1411.63906,0.17937
1413.56753,0.17815
1415.49600,0.18182
1417.42446,0.18898
1419.35293,0.19228
1421.28140,0.18897
1423.20987,0.18526
1425.13834,0.18191
1427.06681,0.17881
1428.99528,0.17888
1430.92375,0.18147
1432.85221,0.18296
1434.78068,0.18408
1436.70915,0.18421
1438.63762,0.18232
1440.56609,0.18037
1442.49456,0.17810
1444.42303,0.17773
1446.35149,0.18177
1448.27996,0.18778
1450.20843,0.18954
1452.13690,0.18737
1454.06537,0.18740
1455.99384,0.19163
1457.92231,0.19377
1459.85077,0.19127
1461.77924,0.19154
1463.70771,0.19350
1465.63618,0.19061
1467.56465,0.18768
1469.49312,0.19182
1471.42159,0.19874
1473.35006,0.20082
1475.27852,0.19909
1477.20699,0.19706
1479.13546,0.19433
1481.06393,0.19135
1482.99240,0.18886
1484.92087,0.18880
1486.84934,0.19185
1488.77780,0.19415
1490.70627,0.18986
1492.63474,0.18512
1494.56321,0.18661
1496.49168,0.19225
1498.42015,0.19352
1500.34862,0.19010
1502.27709,0.18755
1504.20555,0.18675
1506.13402,0.19154
1508.06249,0.20171
1509.99096,0.20266
1511.91943,0.19999
1513.84790,0.19925
1515.77637,0.20251
1517.70483,0.20723
1519.63330,0.21349
1521.56177,0.22063
1523.49024,0.21433
1525.41871,0.20061
1527.34718,0.19268
1529.27565,0.19214
1531.20412,0.19384
1533.13258,0.19530
1535.06105,0.19523
1536.98952,0.19561
1538.91799,0.20297
1540.84646,0.21671
1542.77493,0.21386
1544.70340,0.20169
1546.63186,0.19363
1548.56033,0.19245
1550.48880,0.19429
1552.41727,0.19606
1554.34574,0.20045
1556.27421,0.20891
1558.20268,0.21816
1560.13115,0.21020
1562.05961,0.19546
1563.98808,0.18695
1565.91655,0.18509
1567.84502,0.18797
1569.77349,0.18839
1571.70196,0.18529
1573.63043,0.18685
1575.55889,0.19283
1577.48736,0.19196
1579.41583,0.18524
1581.34430,0.18212
1583.27277,0.18139
1585.20124,0.17944
1587.12971,0.17830
1589.05818,0.17891
1590.98664,0.17938
1592.91511,0.18037
1594.84358,0.18048
1596.77205,0.17744
1598.70052,0.17730
1600.62899,0.18347
1602.55746,0.18710
1604.48592,0.18387
1606.41439,0.18126
1608.34286,0.18160
1610.27133,0.18190
1612.19980,0.18445
1614.12827,0.19172
1616.05674,0.19971
1617.98521,0.19854
1619.91367,0.19308
1621.84214,0.19141
1623.77061,0.19360
1625.69908,0.19762
1627.62755,0.19858
1629.55602,0.19208
1631.48449,0.18527
1633.41295,0.18850
1635.34142,0.20545
1637.26989,0.21477
1639.19836,0.20648
1641.12683,0.19632
1643.05530,0.19258
1644.98377,0.19969
1646.91223,0.21003
1648.84070,0.20923
1650.76917,0.21232
1652.69764,0.22366
1654.62611,0.21232
1656.55458,0.19743
1658.48305,0.19580
1660.41152,0.20020
1662.33998,0.20203
1664.26845,0.19774
1666.19692,0.19342
1668.12539,0.19416
1670.05386,0.19978
1671.98233,0.20251
1673.91080,0.20186
1675.83926,0.20041
1677.76773,0.19956
1679.69620,0.20067
1681.62467,0.20556
1683.55314,0.21385
1685.48161,0.21285
1687.41008,0.20559
1689.33855,0.20081
1691.26701,0.19929
1693.19548,0.20129
1695.12395,0.20421
1697.05242,0.20511
1698.98089,0.20376
1700.90936,0.20257
1702.83783,0.20552
1704.76629,0.20762
1706.69476,0.20328
1708.62323,0.19768
1710.55170,0.19521
1712.48017,0.19416
1714.40864,0.19660
1716.33711,0.20542
1718.26558,0.20766
1720.19404,0.19930
1722.12251,0.19350
1724.05098,0.19179
1725.97945,0.19161
1727.90792,0.19312
1729.83639,0.19759
1731.76486,0.20400
1733.69332,0.20785
1735.62179,0.20089
1737.55026,0.19228
1739.47873,0.19078
1741.40720,0.19439
1743.33567,0.19626
1745.26414,0.19667
1747.19261,0.19983
1749.12107,0.20452
1751.04954,0.20187
1752.97801,0.19472
1754.90648,0.19246
1756.83495,0.19423
1758.76342,0.19439
1760.69189,0.19170
1762.62035,0.18869
1764.54882,0.18733
1766.47729,0.18890
1768.40576,0.19448
1770.33423,0.20220
1772.26270,0.20577
1774.19117,0.20175
1776.11964,0.19692
1778.04810,0.19445
1779.97657,0.19356
1781.90504,0.19360
1783.83351,0.19449
1785.76198,0.19448
1787.69045,0.19381
1789.61892,0.19512
1791.54738,0.19804
1793.47585,0.19974
1795.40432,0.19814
1797.33279,0.19467
1799.26126,0.19287
1801.18973,0.19206
1803.11820,0.18865
1805.04666,0.18525
1806.97513,0.18462
1808.90360,0.18575
1810.83207,0.18800
1812.76054,0.19038
1814.68901,0.19009
1816.61748,0.18555
1818.54595,0.18076
1820.47441,0.18111
1822.40288,0.18439
1824.33135,0.18728
1826.25982,0.19099
1828.18829,0.19453
1830.11676,0.19321
1832.04523,0.19001
1833.97369,0.19160
1835.90216,0.19497
1837.83063,0.19440
1839.75910,0.19077
1841.68757,0.18956
1843.61604,0.19187
1845.54451,0.19321
1847.47298,0.19285
1849.40144,0.19289
1851.32991,0.19237
1853.25838,0.19011
1855.18685,0.18718
1857.11532,0.18612
1859.04379,0.18804
1860.97226,0.19019
1862.90072,0.19051
1864.82919,0.19224
1866.75766,0.19746
1868.68613,0.20211
1870.61460,0.20129
1872.54307,0.19657
1874.47154,0.19171
1876.40001,0.18981
1878.32847,0.19014
1880.25694,0.19026
1882.18541,0.19186
1884.11388,0.19441
1886.04235,0.19389
1887.97082,0.19191
1889.89929,0.19220
1891.82775,0.19344
1893.75622,0.19345
1895.68469,0.19192
1897.61316,0.19008
1899.54163,0.18906
1901.47010,0.18804
1903.39857,0.18754
1905.32704,0.18822
1907.25550,0.18934
1909.18397,0.19142
1911.11244,0.19402
1913.04091,0.19502
1914.96938,0.19552
1916.89785,0.19744
1918.82632,0.19750
1920.75478,0.19505
1922.68325,0.19381
1924.61172,0.19245
1926.54019,0.19067
1928.46866,0.19121
1930.39713,0.19284
1932.32560,0.19393
1934.25407,0.19514
1936.18253,0.19525
1938.11100,0.19501
1940.03947,0.19758
1941.96794,0.19969
1943.89641,0.19669
1945.82488,0.19306
1947.75335,0.19300
1949.68181,0.19453
1951.61028,0.19432
1953.53875,0.19225
1955.46722,0.19116
1957.39569,0.19150
1959.32416,0.19172
1961.25263,0.19198
1963.18110,0.19202
1965.10956,0.19091
1967.03803,0.18879
1968.96650,0.18727
1970.89497,0.18766
1972.82344,0.18877
1974.75191,0.18933
1976.68038,0.18967
1978.60884,0.19048
1980.53731,0.19281
1982.46578,0.19561
1984.39425,0.19546
1986.32272,0.19287
1988.25119,0.19111
1990.17966,0.19107
1992.10812,0.19347
1994.03659,0.19671
1995.96506,0.19762
1997.89353,0.19719
1999.82200,0.19673
2001.75047,0.19564
2003.67894,0.19406
2005.60741,0.19328
2007.53587,0.19320
2009.46434,0.19292
2011.39281,0.19312
2013.32128,0.19379
2015.24975,0.19359
2017.17822,0.19282
2019.10669,0.19163
2021.03515,0.18916
2022.96362,0.18683
2024.89209,0.18703
2026.82056,0.19037
2028.74903,0.19512
2030.67750,0.19827
2032.60597,0.19860
2034.53444,0.19738
2036.46290,0.19547
2038.39137,0.19386
2040.31984,0.19424
2042.24831,0.19522
2044.17678,0.19401
2046.10525,0.19182
2048.03372,0.19235
2049.96218,0.19436
2051.89065,0.19449
2053.81912,0.19498
2055.74759,0.19527
2057.67606,0.19353
2059.60453,0.19262
2061.53300,0.19155
2063.46147,0.18937
2065.38993,0.19020
2067.31840,0.19408
2069.24687,0.19634
2071.17534,0.19635
2073.10381,0.19728
2075.03228,0.19969
2076.96075,0.19923
2078.88921,0.19327
2080.81768,0.18583
2082.74615,0.18234
2084.67462,0.18479
2086.60309,0.18952
2088.53156,0.19131
2090.46003,0.18996
2092.38850,0.18795
2094.31696,0.18759
2096.24543,0.19015
2098.17390,0.19282
2100.10237,0.19221
2102.03084,0.18977
2103.95931,0.18879
2105.88778,0.19101
2107.81624,0.19536
2109.74471,0.19815
2111.67318,0.19609
2113.60165,0.19202
2115.53012,0.19176
2117.45859,0.19282
2119.38706,0.19160
2121.31553,0.19112
2123.24399,0.19326
2125.17246,0.19562
2127.10093,0.19579
2129.02940,0.19484
2130.95787,0.19447
2132.88634,0.19670
2134.81481,0.20328
2136.74327,0.20752
2138.67174,0.20282
2140.60021,0.19598
2142.52868,0.19410
2144.45715,0.19413
2146.38562,0.19428
2148.31409,0.19587
2150.24255,0.19512
2152.17102,0.19072
2154.09949,0.18866
2156.02796,0.18948
2157.95643,0.18922
2159.88490,0.19016
2161.81337,0.19324
2163.74184,0.19475
2165.67030,0.19477
2167.59877,0.19422
2169.52724,0.19307
2171.45571,0.19339
2173.38418,0.19523
2175.31265,0.19564
2177.24112,0.19387
2179.16958,0.19240
2181.09805,0.19230
2183.02652,0.19340
2184.95499,0.19553
2186.88346,0.19607
2188.81193,0.19369
2190.74040,0.19241
2192.66887,0.19367
2194.59733,0.19338
2196.52580,0.19170
2198.45427,0.19171
2200.38274,0.19191
2202.31121,0.19032
2204.23968,0.18880
2206.16815,0.18896
2208.09661,0.18994
2210.02508,0.19046
2211.95355,0.19002
2213.88202,0.19025
2215.81049,0.19169
2217.73896,0.19250
2219.66743,0.19268
2221.59590,0.19235
2223.52436,0.19086
2225.45283,0.18966
2227.38130,0.19009
2229.30977,0.19110
2231.23824,0.19107
2233.16671,0.19059
2235.09518,0.19216
2237.02364,0.19470
2238.95211,0.19475
2240.88058,0.19299
2242.80905,0.19233
2244.73752,0.19269
2246.66599,0.19204
2248.59446,0.19097
2250.52293,0.19119
2252.45139,0.19235
2254.37986,0.19262
2256.30833,0.19168
2258.23680,0.19226
2260.16527,0.19359
2262.09374,0.19179
2264.02221,0.18825
2265.95067,0.18754
2267.87914,0.18854
2269.80761,0.18880
2271.73608,0.18969
2273.66455,0.18893
2275.59302,0.18656
2277.52149,0.18720
2279.44996,0.18918
2281.37842,0.18981
2283.30689,0.19012
2285.23536,0.19107
2287.16383,0.19131
2289.09230,0.18875
2291.02077,0.18578
2292.94924,0.18367
2294.87770,0.17970
2296.80617,0.17476
2298.73464,0.17115
2300.66311,0.16919
2302.59158,0.16829
2304.52005,0.16507
2306.44852,0.15650
2308.37699,0.14693
2310.30545,0.14314
2312.23392,0.14245
2314.16239,0.13859
2316.09086,0.13280
2318.01933,0.12988
2319.94780,0.13235
2321.87627,0.13712
2323.80473,0.13598
2325.73320,0.12695
2327.66167,0.11490
2329.59014,0.10179
2331.51861,0.09381
2333.44708,0.10232
2335.37555,0.12173
2337.30401,0.13098
2339.23248,0.12497
2341.16095,0.11528
2343.08942,0.10544
2345.01789,0.10348
2346.94636,0.11365
2348.87483,0.12244
2350.80330,0.12282
2352.73176,0.11385
2354.66023,0.09402
2356.58870,0.06553
2358.51717,0.04765
2360.44564,0.05997
2362.37411,0.07902
2364.30258,0.07835
2366.23104,0.07831
2368.15951,0.09197
2370.08798,0.10569
2372.01645,0.11620
2373.94492,0.13040
2375.87339,0.14581
2377.80186,0.15704
2379.73033,0.16638
2381.65879,0.17519
2383.58726,0.18212
2385.51573,0.18709
2387.44420,0.19019
2389.37267,0.19088
2391.30114,0.19039
2393.22961,0.19172
2395.15807,0.19388
2397.08654,0.19480
2399.01501,0.19488
2400.94348,0.19334
2402.87195,0.19108
2404.80042,0.19127
2406.72889,0.19314
2408.65736,0.19355
2410.58582,0.19337
2412.51429,0.19384
2414.44276,0.19457
2416.37123,0.19591
2418.29970,0.19798
2420.22817,0.19969
2422.15664,0.19906
2424.08510,0.19772
2426.01357,0.19761
2427.94204,0.19545
2429.87051,0.19170
2431.79898,0.19207
2433.72745,0.19556
2435.65592,0.19595
2437.58439,0.19397
2439.51285,0.19489
2441.44132,0.19831
2443.36979,0.19806
2445.29826,0.19406
2447.22673,0.19346
2449.15520,0.19847
2451.08367,0.20434
2453.01213,0.20562
2454.94060,0.20182
2456.86907,0.19657
2458.79754,0.19435
2460.72601,0.19581
2462.65448,0.19683
2464.58295,0.19642
2466.51142,0.19555
2468.43988,0.19449
2470.36835,0.19481
2472.29682,0.19596
2474.22529,0.19598
2476.15376,0.19470
2478.08223,0.19355
2480.01070,0.19342
2481.93916,0.19407
2483.86763,0.19504
2485.79610,0.19517
2487.72457,0.19383
2489.65304,0.19247
2491.58151,0.19211
2493.50998,0.19282
2495.43844,0.19304
2497.36691,0.19090
2499.29538,0.19020
2501.22385,0.19403
2503.15232,0.19813
2505.08079,0.19876
2507.00926,0.19702
2508.93773,0.19645
2510.86619,0.19796
2512.79466,0.19778
2514.72313,0.19516
2516.65160,0.19357
2518.58007,0.19349
2520.50854,0.19400
2522.43701,0.19562
2524.36547,0.19748
2526.29394,0.19728
2528.22241,0.19465
2530.15088,0.19224
2532.07935,0.19262
2534.00782,0.19573
2535.93629,0.19856
2537.86476,0.19885
2539.79322,0.19787
2541.72169,0.19568
2543.65016,0.19222
2545.57863,0.19118
2547.50710,0.19305
2549.43557,0.19317
2551.36404,0.19123
2553.29250,0.19093
2555.22097,0.19174
2557.14944,0.19295
2559.07791,0.19578
2561.00638,0.19775
2562.93485,0.19727
2564.86332,0.19653
2566.79179,0.19649
2568.72025,0.19709
2570.64872,0.19835
2572.57719,0.20031
2574.50566,0.20154
2576.43413,0.20083
2578.36260,0.20145
2580.29107,0.20378
2582.21953,0.20318
2584.14800,0.20103
2586.07647,0.20004
2588.00494,0.19712
2589.93341,0.19444
2591.86188,0.19664
2593.79035,0.20002
2595.71882,0.20102
2597.64728,0.20126
2599.57575,0.20080
2601.50422,0.19746
2603.43269,0.19340
2605.36116,0.19238
2607.28963,0.19308
2609.21810,0.19519
2611.14656,0.19816
2613.07503,0.19841
2615.00350,0.19677
2616.93197,0.19481
2618.86044,0.19337
2620.78891,0.19568
2622.71738,0.20018
2624.64585,0.20191
2626.57431,0.20063
2628.50278,0.19879
2630.43125,0.19831
2632.35972,0.19972
2634.28819,0.20042
2636.21666,0.19876
2638.14513,0.19757
2640.07359,0.19838
2642.00206,0.19973
2643.93053,0.20025
2645.85900,0.19912
2647.78747,0.19768
2649.71594,0.19759
2651.64441,0.19817
2653.57288,0.19973
2655.50134,0.20151
2657.42981,0.20037
2659.35828,0.19824
2661.28675,0.19818
2663.21522,0.19894
2665.14369,0.20003
2667.07216,0.20057
2669.00062,0.19944
2670.92909,0.19803
2672.85756,0.19777
2674.78603,0.19806
2676.71450,0.19771
2678.64297,0.19789
2680.57144,0.19932
2682.49990,0.19980
2684.42837,0.19863
2686.35684,0.19822
2688.28531,0.19959
2690.21378,0.20088
2692.14225,0.20123
2694.07072,0.20114
2695.99919,0.20019
2697.92765,0.19920
2699.85612,0.19921
2701.78459,0.19885
2703.71306,0.19839
2705.64153,0.19918
2707.57000,0.20041
2709.49847,0.20067
2711.42693,0.20126
2713.35540,0.20494
2715.28387,0.20711
2717.21234,0.20216
2719.14081,0.19638
2721.06928,0.19626
2722.99775,0.19802
2724.92622,0.19860
2726.85468,0.20086
2728.78315,0.20467
2730.71162,0.20744
2732.64009,0.20838
2734.56856,0.20583
2736.49703,0.20172
2738.42550,0.20030
2740.35396,0.20167
2742.28243,0.20384
2744.21090,0.20559
2746.13937,0.20817
2748.06784,0.21043
2749.99631,0.20958
2751.92478,0.20818
2753.85325,0.20833
2755.78171,0.20814
2757.71018,0.20815
2759.63865,0.20946
2761.56712,0.20889
2763.49559,0.20563
2765.42406,0.20426
2767.35253,0.20687
2769.28099,0.21007
2771.20946,0.21201
2773.13793,0.21404
2775.06640,0.21412
2776.99487,0.21096
2778.92334,0.20704
2780.85181,0.20375
2782.78028,0.20377
2784.70874,0.20709
2786.63721,0.20801
2788.56568,0.20625
2790.49415,0.20576
2792.42262,0.20542
2794.35109,0.20428
2796.27956,0.20462
2798.20802,0.20615
2800.13649,0.20785
2802.06496,0.21043
2803.99343,0.21257
2805.92190,0.21198
2807.85037,0.21068
2809.77884,0.21157
2811.70731,0.21306
2813.63577,0.21290
2815.56424,0.21241
2817.49271,0.21301
2819.42118,0.21221
2821.34965,0.20944
2823.27812,0.20966
2825.20659,0.21359
2827.13505,0.21570
2829.06352,0.21416
2830.99199,0.21243
2832.92046,0.21216
2834.84893,0.21234
2836.77740,0.21146
2838.70587,0.20774
2840.63433,0.20287
2842.56280,0.20058
2844.49127,0.20155
2846.41974,0.20506
2848.34821,0.20852
2850.27668,0.20955
2852.20515,0.20931
2854.13362,0.20911
2856.06208,0.20755
2857.99055,0.20362
2859.91902,0.20178
2861.84749,0.20365
2863.77596,0.20502
2865.70443,0.20636
2867.63290,0.20840
2869.56136,0.20950
2871.48983,0.20866
2873.41830,0.20491
2875.34677,0.20140
2877.27524,0.20103
2879.20371,0.20251
2881.13218,0.20342
2883.06065,0.20177
2884.98911,0.20069
2886.91758,0.20308
2888.84605,0.20582
2890.77452,0.20789
2892.70299,0.20907
2894.63146,0.20698
2896.55993,0.20342
2898.48839,0.20275
2900.41686,0.20521
2902.34533,0.20686
2904.27380,0.20512
2906.20227,0.20231
2908.13074,0.20112
2910.05921,0.19989
2911.98768,0.19885
2913.91614,0.19984
2915.84461,0.19998
2917.77308,0.19935
2919.70155,0.20034
2921.63002,0.20066
2923.55849,0.19536
2925.48696,0.18338
2927.41542,0.17737
2929.34389,0.18731
2931.27236,0.20096
2933.20083,0.20588
2935.12930,0.20457
2937.05777,0.20127
2938.98624,0.20171
2940.91471,0.20877
2942.84317,0.21347
2944.77164,0.20594
2946.70011,0.19057
2948.62858,0.18525
2950.55705,0.19343
2952.48552,0.19989
2954.41399,0.19847
2956.34245,0.19221
2958.27092,0.19060
2960.19939,0.19929
2962.12786,0.20723
2964.05633,0.20720
2965.98480,0.20010
2967.91327,0.19200
2969.84174,0.19357
2971.77020,0.20060
2973.69867,0.20463
2975.62714,0.20387
2977.55561,0.19824
2979.48408,0.19668
2981.41255,0.20298
2983.34102,0.20936
2985.26948,0.21069
2987.19795,0.20526
2989.12642,0.19991
2991.05489,0.20334
2992.98336,0.21133
2994.91183,0.21747
2996.84030,0.22071
2998.76877,0.22072
3000.69723,0.21795
3002.62570,0.21472
3004.55417,0.21465
3006.48264,0.21541
3008.41111,0.20911
3010.33958,0.19370
3012.26805,0.17045
3014.19651,0.13766
3016.12498,0.11102
3018.05345,0.12416
3019.98192,0.17245
3021.91039,0.21061
3023.83886,0.22121
3025.76733,0.21893
3027.69579,0.21392
3029.62426,0.21160
3031.55273,0.21389
3033.48120,0.21781
3035.40967,0.22000
3037.33814,0.21555
3039.26661,0.20692
3041.19508,0.20311
3043.12354,0.20662
3045.05201,0.21126
3046.98048,0.21076
3048.90895,0.20958
3050.83742,0.21196
3052.76589,0.21213
3054.69436,0.20588
3056.62282,0.19681
3058.55129,0.19406
3060.47976,0.20038
3062.40823,0.20684
3064.33670,0.20601
3066.26517,0.20052
3068.19364,0.19946
3070.12211,0.20579
3072.05057,0.21120
3073.97904,0.20678
3075.90751,0.19761
3077.83598,0.19792
3079.76445,0.20739
3081.69292,0.21363
3083.62139,0.20871
3085.54985,0.20091
3087.47832,0.20500
3089.40679,0.21357
3091.33526,0.21258
3093.26373,0.20090
3095.19220,0.19075
3097.12067,0.19580
3099.04914,0.20698
3100.97760,0.20770
3102.90607,0.19728
3104.83454,0.19370
3106.76301,0.20428
3108.69148,0.21097
3110.61995,0.20264
3112.54842,0.19025
3114.47688,0.19107
3116.40535,0.20120
3118.33382,0.20631
3120.26229,0.20587
3122.19076,0.20424
3124.11923,0.20592
3126.04770,0.21127
3127.97617,0.21465
3129.90463,0.21333
3131.83310,0.21332
3133.76157,0.21598
3135.69004,0.21380
3137.61851,0.20934
3139.54698,0.20958
3141.47545,0.21278
3143.40391,0.21475
3145.33238,0.21537
3147.26085,0.21529
3149.18932,0.21456
3151.11779,0.21367
3153.04626,0.21171
3154.97473,0.21014
3156.90320,0.21366
3158.83166,0.21926
3160.76013,0.21997
3162.68860,0.21783
3164.61707,0.21569
3166.54554,0.21391
3168.47401,0.21481
3170.40248,0.21574
3172.33094,0.21142
3174.25941,0.20737
3176.18788,0.21208
3178.11635,0.21960
3180.04482,0.22275
3181.97329,0.22394
3183.90176,0.22345
3185.83022,0.21869
3187.75869,0.21289
3189.68716,0.21152
3191.61563,0.21237
3193.54410,0.21181
3195.47257,0.21152
3197.40104,0.21098
3199.32951,0.21081
3201.25797,0.21759
3203.18644,0.22653
3205.11491,0.22516
3207.04338,0.21653
3208.97185,0.21365
3210.90032,0.21881
3212.82879,0.22136
3214.75725,0.21872
3216.68572,0.21750
3218.61419,0.21757
3220.54266,0.21679
3222.47113,0.21664
3224.39960,0.21727
3226.32807,0.21419
3228.25654,0.20709
3230.18500,0.20291
3232.11347,0.20480
3234.04194,0.20820
3235.97041,0.20922
3237.89888,0.20972
3239.82735,0.21021
3241.75582,0.20901
3243.68428,0.20580
3245.61275,0.20259
3247.54122,0.20332
3249.46969,0.20764
3251.39816,0.21187
3253.32663,0.21375
3255.25510,0.21229
3257.18357,0.21024
3259.11203,0.21261
3261.04050,0.21748
3262.96897,0.21790
3264.89744,0.21368
3266.82591,0.21034
3268.75438,0.20899
3270.68285,0.20736
3272.61131,0.20586
3274.53978,0.20650
3276.46825,0.20925
3278.39672,0.21103
3280.32519,0.21138
3282.25366,0.21286
3284.18213,0.21295
3286.11060,0.20909
3288.03906,0.20698
3289.96753,0.21104
3291.89600,0.21680
3293.82447,0.21802
3295.75294,0.21291
3297.68141,0.20733
3299.60988,0.20889
3301.53834,0.21349
3303.46681,0.21283
3305.39528,0.20870
3307.32375,0.20737
3309.25222,0.21112
3311.18069,0.21550
3313.10916,0.21460
3315.03763,0.21180
3316.96609,0.21263
3318.89456,0.21314
3320.82303,0.21166
3322.75150,0.21308
3324.67997,0.21428
3326.60844,0.21184
3328.53691,0.21032
3330.46537,0.21094
3332.39384,0.21097
3334.32231,0.20940
3336.25078,0.20790
3338.17925,0.20893
3340.10772,0.21368
3342.03619,0.21887
3343.96466,0.21943
3345.89312,0.21827
3347.82159,0.21768
3349.75006,0.21159
3351.67853,0.20179
3353.60700,0.20030
3355.53547,0.20698
3357.46394,0.21218
3359.39240,0.21564
3361.32087,0.21739
3363.24934,0.21360
3365.17781,0.20905
3367.10628,0.20916
3369.03475,0.21065
3370.96322,0.21064
3372.89168,0.21089
3374.82015,0.21449
3376.74862,0.21913
3378.67709,0.21757
3380.60556,0.21040
3382.53403,0.20489
3384.46250,0.20412
3386.39097,0.20547
3388.31943,0.20688
3390.24790,0.20823
3392.17637,0.20979
3394.10484,0.21358
3396.03331,0.21372
3397.96178,0.20711
3399.89025,0.20588
3401.81871,0.20883
3403.74718,0.20808
3405.67565,0.21164
3407.60412,0.21704
3409.53259,0.21451
3411.46106,0.20965
3413.38953,0.20604
3415.31800,0.20173
3417.24646,0.19861
3419.17493,0.19873
3421.10340,0.20311
3423.03187,0.20744
3424.96034,0.20661
3426.88881,0.20376
3428.81728,0.20272
3430.74574,0.20244
3432.67421,0.20096
3434.60268,0.19589
3436.53115,0.18938
3438.45962,0.19005
3440.38809,0.19845
3442.31656,0.20335
3444.24503,0.20187
3446.17349,0.20300
3448.10196,0.20731
3450.03043,0.20732
3451.95890,0.20308
3453.88737,0.19824
3455.81584,0.19366
3457.74431,0.19093
3459.67277,0.19006
3461.60124,0.18911
3463.52971,0.19070
3465.45818,0.19511
3467.38665,0.19705
3469.31512,0.19485
3471.24359,0.19137
3473.17206,0.18865
3475.10052,0.18973
3477.02899,0.19427
3478.95746,0.19379
3480.88593,0.18948
3482.81440,0.19047
3484.74287,0.19158
3486.67134,0.18442
3488.59980,0.17635
3490.52827,0.17889
3492.45674,0.18452
3494.38521,0.18039
3496.31368,0.17306
3498.24215,0.17377
3500.17062,0.17720
3502.09909,0.17843
3504.02755,0.18118
3505.95602,0.18143
3507.88449,0.17673
3509.81296,0.17393
3511.74143,0.17427
3513.66990,0.17428
3515.59837,0.17483
3517.52683,0.17686
3519.45530,0.17902
3521.38377,0.18027
3523.31224,0.18057
3525.24071,0.18096
3527.16918,0.18169
3529.09765,0.18003
3531.02611,0.17615
3532.95458,0.17430
3534.88305,0.17374
3536.81152,0.17032
3538.73999,0.16666
3540.66846,0.16789
3542.59693,0.17014
3544.52540,0.16861
3546.45386,0.16815
3548.38233,0.17290
3550.31080,0.17929
3552.23927,0.18095
3554.16774,0.17387
3556.09621,0.16615
3558.02468,0.16704
3559.95314,0.17552
3561.88161,0.18292
3563.81008,0.18314
3565.73855,0.17844
3567.66702,0.17084
3569.59549,0.16312
3571.52396,0.16130
3573.45243,0.16351
3575.38089,0.16312
3577.30936,0.15866
3579.23783,0.15317
3581.16630,0.14988
3583.09477,0.15129
3585.02324,0.15638
3586.95171,0.15942
3588.88017,0.15557
3590.80864,0.15173
3592.73711,0.15380
3594.66558,0.15785
3596.59405,0.15649
3598.52252,0.15293
3600.45099,0.15114
3602.37946,0.15077
3604.30792,0.15193
3606.23639,0.15098
3608.16486,0.14560
3610.09333,0.14421
3612.02180,0.15079
3613.95027,0.15660
3615.87874,0.15567
3617.80720,0.14953
3619.73567,0.14371
3621.66414,0.14363
3623.59261,0.14577
3625.52108,0.15185
3627.44955,0.16436
3629.37802,0.16510
3631.30649,0.14523
3633.23495,0.13080
3635.16342,0.12849
3637.09189,0.13167
3639.02036,0.13281
3640.94883,0.13097
3642.87730,0.13312
3644.80577,0.14271
3646.73423,0.15202
3648.66270,0.15321
3650.59117,0.14625
3652.51964,0.13823
3654.44811,0.13500
3656.37658,0.13704
3658.30505,0.13956
3660.23352,0.13995
3662.16198,0.13877
3664.09045,0.13684
3666.01892,0.13774
3667.94739,0.14321
3669.87586,0.14758
3671.80433,0.14775
3673.73280,0.15166
3675.66126,0.15671
3677.58973,0.15461
3679.51820,0.14882
3681.44667,0.14166
3683.37514,0.13444
3685.30361,0.12859
3687.23208,0.12839
3689.16055,0.13438
3691.08901,0.13347
3693.01748,0.12903
3694.94595,0.12882
3696.87442,0.13039
3698.80289,0.13280
3700.73136,0.13439
3702.65983,0.13175
3704.58829,0.12941
3706.51676,0.13063
3708.44523,0.13373
3710.37370,0.13843
3712.30217,0.14120
3714.23064,0.13761
3716.15911,0.12939
3718.08757,0.12171
3720.01604,0.12344
3721.94451,0.13301
3723.87298,0.13651
3725.80145,0.12951
3727.72992,0.12035
3729.65839,0.11800
3731.58686,0.12572
3733.51532,0.13264
3735.44379,0.12424
3737.37226,0.11803
3739.30073,0.12145
3741.22920,0.12694
3743.15767,0.13269
3745.08614,0.13500
3747.01460,0.13510
3748.94307,0.14191
3750.87154,0.15241
3752.80001,0.14768
3754.72848,0.13782
3756.65695,0.13547
3758.58542,0.14020
3760.51389,0.14321
3762.44235,0.13973
3764.37082,0.13465
3766.29929,0.12984
3768.22776,0.12785
3770.15623,0.12801
3772.08470,0.12634
3774.01317,0.12556
3775.94163,0.12782
3777.87010,0.13232
3779.79857,0.13530
3781.72704,0.13344
3783.65551,0.12794
3785.58398,0.12117
3787.51245,0.12000
3789.44092,0.12546
3791.36938,0.13033
3793.29785,0.13175
3795.22632,0.13080
3797.15479,0.12887
3799.08326,0.13222
3801.01173,0.14148
3802.94020,0.14493
3804.86866,0.14199
3806.79713,0.13682
3808.72560,0.12842
3810.65407,0.12298
3812.58254,0.12520
3814.51101,0.13549
3816.43948,0.14549
3818.36795,0.14314
3820.29641,0.13348
3822.22488,0.12553
3824.15335,0.12526
3826.08182,0.12875
3828.01029,0.12906
3829.93876,0.12427
3831.86723,0.11754
3833.79569,0.11414
3835.72416,0.11770
3837.65263,0.12239
3839.58110,0.12157
3841.50957,0.11882
3843.43804,0.11739
3845.36651,0.11928
3847.29498,0.12305
3849.22344,0.12591
3851.15191,0.13091
3853.08038,0.13847
3855.00885,0.12896
3856.93732,0.11427
3858.86579,0.11071
3860.79426,0.11587
3862.72272,0.12148
3864.65119,0.12253
3866.57966,0.12351
3868.50813,0.12723
3870.43660,0.12617
3872.36507,0.11734
3874.29354,0.11000
3876.22200,0.10962
3878.15047,0.11424
3880.07894,0.11663
3882.00741,0.11284
3883.93588,0.10840
3885.86435,0.11051
3887.79282,0.11813
3889.72129,0.12280
3891.64975,0.12358
3893.57822,0.12013
3895.50669,0.11563
3897.43516,0.11646
3899.36363,0.12163
3901.29210,0.12475
3903.22057,0.12688
3905.14903,0.12540
3907.07750,0.11735
3909.00597,0.11060
3910.93444,0.10933
3912.86291,0.11188
3914.79138,0.11637
3916.71985,0.12235
3918.64832,0.12678
3920.57678,0.12672
3922.50525,0.12575
3924.43372,0.12484
3926.36219,0.12167
3928.29066,0.11977
3930.21913,0.11949
3932.14760,0.11601
3934.07606,0.11290
3936.00453,0.11427
3937.93300,0.11573
3939.86147,0.11496
3941.78994,0.11313
3943.71841,0.11344
3945.64688,0.11663
3947.57535,0.11713
3949.50381,0.11448
3951.43228,0.11370
3953.36075,0.11437
3955.28922,0.11405
3957.21769,0.11271
3959.14616,0.11114
3961.07463,0.10926
3963.00309,0.10732
3964.93156,0.10648
3966.86003,0.10670
3968.78850,0.10717
3970.71697,0.10907
3972.64544,0.11185
3974.57391,0.11048
3976.50238,0.10477
3978.43084,0.10138
3980.35931,0.10175
3982.28778,0.10153
3984.21625,0.10054
3986.14472,0.10044
3988.07319,0.10282
3990.00166,0.10891
3991.93012,0.11272
3993.85859,0.11220
3995.78706,0.11157
3997.71553,0.10787
3999.64400,0.10017
4001.57247,0.09576
4003.50094,0.09820
4005.42941,0.10185
4007.35787,0.10285
4009.28634,0.10564
4011.21481,0.11008
4013.14328,0.10981
4015.07175,0.10505
4017.00022,0.10120
4018.92869,0.10111
4020.85715,0.10162
4022.78562,0.09885
4024.71409,0.09821
4026.64256,0.10305
4028.57103,0.10588
4030.49950,0.10449
4032.42797,0.10406
4034.35644,0.10628
4036.28490,0.10714
4038.21337,0.10230
4040.14184,0.09631
4042.07031,0.09714
4043.99878,0.10229
4045.92725,0.10723
4047.85572,0.11184
4049.78418,0.11072
4051.71265,0.10194
4053.64112,0.09478
4055.56959,0.09641
4057.49806,0.10251
4059.42653,0.10482
4061.35500,0.10378
4063.28346,0.10414
4065.21193,0.10482
4067.14040,0.10152
4069.06887,0.09422
4070.99734,0.09111
4072.92581,0.09624
4074.85428,0.10163
4076.78275,0.10208
4078.71121,0.09740
4080.63968,0.08924
4082.56815,0.08509
4084.49662,0.08369
4086.42509,0.07966
4088.35356,0.08009
4090.28203,0.08737
4092.21049,0.09506
4094.13896,0.09955
4096.06743,0.10011
4097.99590,0.10046
4099.92437,0.09963
4101.85284,0.09258
4103.78131,0.08434
4105.70978,0.08056
4107.63824,0.08037
4109.56671,0.08485
4111.49518,0.09030
4113.42365,0.09159
4115.35212,0.09219
4117.28059,0.09146
4119.20906,0.08588
4121.13752,0.08030
4123.06599,0.08042
4124.99446,0.08634
4126.92293,0.09316
4128.85140,0.09567
4130.77987,0.09445
4132.70834,0.09124
4134.63681,0.08743
4136.56527,0.08652
4138.49374,0.08592
4140.42221,0.08334
4142.35068,0.08428
4144.27915,0.08995
4146.20762,0.09310
4148.13609,0.08789
4150.06455,0.07973
4151.99302,0.07826
4153.92149,0.08277
4155.84996,0.08349
4157.77843,0.07899
4159.70690,0.07834
4161.63537,0.08180
4163.56384,0.08546
4165.49230,0.09111
4167.42077,0.09596
4169.34924,0.09531
4171.27771,0.08892
4173.20618,0.08099
4175.13465,0.07821
4177.06312,0.08241
4178.99158,0.09106
4180.92005,0.09685
4182.84852,0.09177
4184.77699,0.08064
4186.70546,0.07222
4188.63393,0.06940
4190.56240,0.07293
4192.49087,0.07858
4194.41933,0.08100
4196.34780,0.08148
4198.27627,0.08027
4200.20474,0.07442
4202.13321,0.06828
4204.06168,0.06849
4205.99015,0.07534
4207.91861,0.08187
4209.84708,0.08088
4211.77555,0.07455
4213.70402,0.06613
4215.63249,0.05994
4217.56096,0.06168
4219.48943,0.06722
4221.41789,0.07075
4223.34636,0.07249
4225.27483,0.07494
4227.20330,0.08095
4229.13177,0.08642
4231.06024,0.08259
4232.98871,0.07484
4234.91718,0.07486
4236.84564,0.07665
4238.77411,0.07027
4240.70258,0.06085
4242.63105,0.05810
4244.55952,0.06238
4246.48799,0.06536
4248.41646,0.06370
4250.34492,0.06332
4252.27339,0.06627
4254.20186,0.06799
4256.13033,0.06842
4258.05880,0.07125
4259.98727,0.07310
4261.91574,0.07213
4263.84421,0.07422
4265.77267,0.07554
4267.70114,0.06633
4269.62961,0.05592
4271.55808,0.06029
4273.48655,0.07083
4275.41502,0.07125
4277.34349,0.06429
4279.27195,0.05972
4281.20042,0.06139
4283.12889,0.06508
4285.05736,0.06626
4286.98583,0.06766
4288.91430,0.06712
4290.84277,0.06137
4292.77124,0.05594
4294.69970,0.05257
4296.62817,0.05040
4298.55664,0.05213
4300.48511,0.05919
4302.41358,0.06721
4304.34205,0.06870
4306.27052,0.06493
4308.19898,0.05919
4310.12745,0.05230
4312.05592,0.04952
4313.98439,0.05459
4315.91286,0.06260
4317.84133,0.06574
4319.76980,0.06511
4321.69827,0.06298
4323.62673,0.06058
4325.55520,0.05912
4327.48367,0.05370
4329.41214,0.04481
4331.34061,0.03739
4333.26908,0.03594
4335.19755,0.04095
4337.12601,0.04722
4339.05448,0.05381
4340.98295,0.05717
4342.91142,0.05359
4344.83989,0.05210
4346.76836,0.05839
4348.69683,0.06334
4350.62530,0.06084
4352.55376,0.05475
4354.48223,0.04841
4356.41070,0.04433
4358.33917,0.04500
4360.26764,0.04721
4362.19611,0.04648
4364.12458,0.04406
4366.05304,0.04524
4367.98151,0.05307
4369.90998,0.05952
4371.83845,0.05687
4373.76692,0.05415
4375.69539,0.05619
4377.62386,0.05244
4379.55232,0.04061
4381.48079,0.03243
4383.40926,0.03497
4385.33773,0.03954
4387.26620,0.03852
4389.19467,0.03986
4391.12314,0.04708
4393.05161,0.05087
4394.98007,0.04727
4396.90854,0.04083
4398.83701,0.03595
4400.76548,0.03368
4402.69395,0.03533
4404.62242,0.04206
4406.55089,0.04895
4408.47935,0.04867
4410.40782,0.04059
4412.33629,0.03043
4414.26476,0.02459
4416.19323,0.02776
4418.12170,0.03736
4420.05017,0.04326
4421.97864,0.04053
4423.90710,0.03582
4425.83557,0.03568
4427.76404,0.03869
4429.69251,0.04139
4431.62098,0.03941
4433.54945,0.03361
4435.47792,0.03275
4437.40638,0.03450
4439.33485,0.03237
4441.26332,0.02973
4443.19179,0.02739
4445.12026,0.02713
4447.04873,0.03346
4448.97720,0.04257
4450.90567,0.04754
4452.83413,0.04783
4454.76260,0.04609
4456.69107,0.04079
4458.61954,0.03043
4460.54801,0.01952
4462.47648,0.01483
4464.40495,0.01595
4466.33341,0.01794
4468.26188,0.01955
4470.19035,0.02352
4472.11882,0.03475
4474.04729,0.04561
4475.97576,0.04449
4477.90423,0.04100
4479.83270,0.04223
4481.76116,0.03636
4483.68963,0.02466
4485.61810,0.02211
4487.54657,0.02305
4489.47504,0.01779
4491.40351,0.01734
4493.33198,0.02497
4495.26044,0.03115
4497.18891,0.03174
4499.11738,0.02672
4501.04585,0.02665
4502.97432,0.03567
4504.90279,0.04094
4506.83126,0.04138
4508.75973,0.04479
4510.68819,0.04516
4512.61666,0.03186
4514.54513,0.01159
4516.47360,0.00434
4518.40207,0.01322
4520.33054,0.02102
4522.25901,0.01773
4524.18747,0.00969
4526.11594,0.00788
4528.04441,0.01483
4529.97288,0.01974
4531.90135,0.01994
4533.82982,0.02010
4535.75829,0.01685
4537.68676,0.01780
4539.61522,0.02643
4541.54369,0.02693
4543.47216,0.02253
4545.40063,0.02702
4547.32910,0.02804
4549.25757,0.01681
4551.18604,0.01006
4553.11450,0.01419
4555.04297,0.02031
4556.97144,0.02422
4558.89991,0.02666
4560.82838,0.02799
4562.75685,0.02384
4564.68532,0.01654
4566.61378,0.01407
4568.54225,0.01350
4570.47072,0.00839
4572.39919,-0.00221
4574.32766,-0.01068
4576.25613,-0.00624
4578.18460,0.00639
4580.11307,0.01404
4582.04153,0.01323
4583.97000,0.00887
4585.89847,0.00840
4587.82694,0.01207
4589.75541,0.01421
4591.68388,0.01758
4593.61235,0.02277
4595.54081,0.01994
4597.46928,0.01396
4599.39775,0.01688
4601.32622,0.01945
4603.25469,0.01394
4605.18316,0.00953
4607.11163,0.01432
4609.04010,0.02626
4610.96856,0.03371
4612.89703,0.03132
4614.82550,0.02757
4616.75397,0.02567
4618.68244,0.02294
4620.61091,0.02425
4622.53938,0.03124
4624.46784,0.03640
4626.39631,0.03506
4628.32478,0.02706
4630.25325,0.01569
4632.18172,0.01039
4634.11019,0.01428
4636.03866,0.01389
4637.96713,0.00514
4639.89559,0.00041
4641.82406,0.00466
4643.75253,0.01307
4645.68100,0.01646
4647.60947,0.01134
4649.53794,0.00095
4651.46641,-0.00815
4653.39487,-0.00661
4655.32334,0.00175
4657.25181,0.00677
4659.18028,0.00305
4661.10875,-0.00238
4663.03722,0.00426
4664.96569,0.01343
4666.89416,0.01322
4668.82262,0.01137
4670.75109,0.01319
4672.67956,0.01626
4674.60803,0.01936
4676.53650,0.01705
4678.46497,0.01043
4680.39344,0.01301
4682.32190,0.01798
4684.25037,0.01364
4686.17884,0.00985
4688.10731,0.01110
4690.03578,0.01462
4691.96425,0.02152
4693.89272,0.02500
4695.82119,0.01721
4697.74965,0.00876
4699.67812,0.01028
4701.60659,0.01324
4703.53506,0.01220
4705.46353,0.01440
4707.39200,0.01928
4709.32047,0.01523
4711.24893,0.00753
4713.17740,0.01113
4715.10587,0.01565
4717.03434,0.00787
4718.96281,-0.00171
4720.89128,-0.00010
4722.81975,0.00627
4724.74821,0.00635
4726.67668,0.00418
4728.60515,0.00260
4730.53362,-0.00254
4732.46209,-0.00998
4734.39056,-0.01311
4736.31903,-0.00810
4738.24750,0.00213
4740.17596,0.01182
4742.10443,0.01071
4744.03290,0.00264
4745.96137,0.00582
4747.88984,0.01593
4749.81831,0.02056
4751.74678,0.02093
4753.67524,0.01717
4755.60371,0.01290
4757.53218,0.01343
4759.46065,0.01321
4761.38912,0.00996
4763.31759,0.00986
4765.24606,0.01221
4767.17453,0.01294
4769.10299,0.01169
4771.03146,0.00899
4772.95993,0.00926
4774.88840,0.01481
4776.81687,0.01719
4778.74534,0.01082
4780.67381,0.00409
4782.60227,0.00686
4784.53074,0.01562
4786.45921,0.01860
4788.38768,0.01609
4790.31615,0.01563
4792.24462,0.01853
4794.17309,0.02566
4796.10156,0.03155
4798.03002,0.02567
4799.95849,0.01009
4801.88696,0.00070
4803.81543,0.00262
4805.74390,0.00517
4807.67237,0.00991
4809.60084,0.01428
4811.52930,0.00603
4813.45777,-0.00264
4815.38624,0.00518
4817.31471,0.01656
4819.24318,0.01570
4821.17165,0.01108
4823.10012,0.00899
4825.02859,0.01000
4826.95705,0.01442
4828.88552,0.01373
4830.81399,0.01028
4832.74246,0.01233
4834.67093,0.01066
4836.59940,-0.00237
4838.52787,-0.01012
4840.45633,-0.00080
4842.38480,0.01058
4844.31327,0.01118
4846.24174,0.00892
4848.17021,0.00997
4850.09868,0.00637
4852.02715,0.00181
4853.95562,0.00421
4855.88408,0.00134
4857.81255,-0.00484
4859.74102,-0.00193
4861.66949,0.00224
4863.59796,-0.00235
4865.52643,-0.01210
4867.45490,-0.01436
4869.38336,-0.00573
4871.31183,0.00251
4873.24030,0.00229
4875.16877,-0.00206
4877.09724,0.00218
4879.02571,0.01333
4880.95418,0.01346
4882.88265,0.00043
4884.81111,-0.00564
4886.73958,0.00854
4888.66805,0.02564
4890.59652,0.02126
4892.52499,0.00566
4894.45346,0.00030
4896.38193,0.00125
4898.31039,0.00125
4900.23886,0.00220
4902.16733,0.00579
4904.09580,0.01081
4906.02427,0.01473
4907.95274,0.01998
4909.88121,0.02607
4911.80967,0.02477
4913.73814,0.02066
4915.66661,0.01996
4917.59508,0.01520
4919.52355,0.01050
4921.45202,0.01291
4923.38049,0.00642
4925.30896,-0.01176
4927.23742,-0.01078
4929.16589,0.01339
4931.09436,0.03023
4933.02283,0.02658
4934.95130,0.01344
4936.87977,0.00515
4938.80824,0.00095
4940.73670,-0.00093
4942.66517,0.00026
4944.59364,0.00142
4946.52211,0.00232
4948.45058,0.00557
4950.37905,0.00917
4952.30752,0.01296
4954.23599,0.01518
4956.16445,0.01081
4958.09292,0.00982
4960.02139,0.02142
4961.94986,0.03334
4963.87833,0.03151
4965.80680,0.01876
4967.73527,0.01268
4969.66373,0.01599
4971.59220,0.01185
4973.52067,0.00102
4975.44914,-0.00327
4977.37761,-0.00820
4979.30608,-0.01503
4981.23455,-0.00944
4983.16302,0.00355
4985.09148,0.00594
4987.01995,0.00391
4988.94842,0.00659
4990.87689,0.00513
4992.80536,0.00412
4994.73383,0.01129
4996.66230,0.01873
4998.59076,0.02130
5000.51923,0.02340
5002.44770,0.02373
5004.37617,0.01360
5006.30464,0.00948
5008.23311,0.02368
5010.16158,0.03021
5012.09005,0.02031
5014.01851,0.01306
5015.94698,0.01747
5017.87545,0.02741
5019.80392,0.03037
5021.73239,0.02321
5023.66086,0.00987
5025.58933,0.00018
5027.51779,0.00156
5029.44626,0.00077
5031.37473,-0.00582
5033.30320,-0.00263
5035.23167,0.00909
5037.16014,0.01685
5039.08861,0.02058
5041.01708,0.02209
5042.94554,0.02248
5044.87401,0.03061
5046.80248,0.04131
5048.73095,0.03505
5050.65942,0.01718
5052.58789,0.00914
5054.51636,0.01507
5056.44482,0.02821
5058.37329,0.04151
5060.30176,0.04781
5062.23023,0.04066
5064.15870,0.02674
5066.08717,0.02155
5068.01564,0.02451
5069.94410,0.03225
5071.87257,0.03744
5073.80104,0.02317
5075.72951,0.00576
5077.65798,0.00705
5079.58645,0.00793
5081.51492,0.00306
5083.44339,0.00757
5085.37185,0.01741
5087.30032,0.02744
5089.22879,0.03009
5091.15726,0.02638
5093.08573,0.03370
5095.01420,0.04023
5096.94267,0.02924
5098.87113,0.01923
5100.79960,0.02087
5102.72807,0.02272
5104.65654,0.02286
5106.58501,0.02213
5108.51348,0.01599
5110.44195,0.00967
5112.37042,0.01275
5114.29888,0.02217
5116.22735,0.03308
5118.15582,0.04388
5120.08429,0.04944
5122.01276,0.04295
5123.94123,0.02599
5125.86970,0.01961
5127.79816,0.02319
5129.72663,0.01553
5131.65510,0.00679
5133.58357,0.00605
5135.51204,0.00067
5137.44051,-0.01391
5139.36898,-0.02659
5141.29745,-0.02634
5143.22591,-0.01998
5145.15438,-0.02070
5147.08285,-0.01560
5149.01132,0.00875
5150.93979,0.02615
5152.86826,0.02114
5154.79673,0.01126
5156.72519,0.01007
5158.65366,0.02086
5160.58213,0.03190
5162.51060,0.03075
5164.43907,0.02589
5166.36754,0.02424
5168.29601,0.02106
5170.22448,0.02043
5172.15294,0.02504
5174.08141,0.02562
5176.00988,0.02376
5177.93835,0.03149
5179.86682,0.04706
5181.79529,0.06333
5183.72376,0.07520
5185.65222,0.08060
5187.58069,0.08174
5189.50916,0.06843
5191.43763,0.04836
5193.36610,0.04573
5195.29457,0.05172
5197.22304,0.04735
5199.15151,0.03985
5201.07997,0.03817
5203.00844,0.03998
5204.93691,0.04941
5206.86538,0.05934
5208.79385,0.05334
5210.72232,0.03902
5212.65079,0.03503
5214.57925,0.04496
5216.50772,0.06038
5218.43619,0.07570
5220.36466,0.07513
5222.29313,0.05748
5224.22160,0.04240
5226.15007,0.03778
5228.07854,0.03565
5230.00700,0.03343
5231.93547,0.03879
5233.86394,0.03842
5235.79241,0.02856
5237.72088,0.02724
5239.64935,0.03396
5241.57782,0.04209
5243.50628,0.04199
5245.43475,0.03001
5247.36322,0.02682
5249.29169,0.03236
5251.22016,0.03097
5253.14863,0.03510
5255.07710,0.04525
5257.00556,0.04847
5258.93403,0.05219
5260.86250,0.06132
5262.79097,0.06978
5264.71944,0.06697
5266.64791,0.05676
5268.57638,0.05263
5270.50485,0.04602
5272.43331,0.03105
5274.36178,0.02135
5276.29025,0.02401
5278.21872,0.03349
5280.14719,0.04120
5282.07566,0.04460
5284.00413,0.05218
5285.93259,0.07021
5287.86106,0.08091
5289.78953,0.07086
5291.71800,0.06354
5293.64647,0.06839
5295.57494,0.05780
5297.50341,0.03236
5299.43188,0.02744
5301.36034,0.04087
5303.28881,0.04499
5305.21728,0.04534
5307.14575,0.05199
5309.07422,0.06610
5311.00269,0.06664
5312.93116,0.04068
5314.85962,0.02577
5316.78809,0.04177
5318.71656,0.05896
5320.64503,0.05726
5322.57350,0.05163
5324.50197,0.05525
5326.43044,0.05268
5328.35891,0.03984
5330.28737,0.03538
5332.21584,0.04322
5334.14431,0.05790
5336.07278,0.06925
5338.00125,0.06636
5339.92972,0.06332
5341.85819,0.08152
5343.78665,0.10778
5345.71512,0.09982
5347.64359,0.05994
5349.57206,0.02890
5351.50053,0.02804
5353.42900,0.05659
5355.35747,0.07335
5357.28594,0.05344
5359.21440,0.02180
5361.14287,0.01613
5363.07134,0.04356
5364.99981,0.05554
5366.92828,0.04359
5368.85675,0.05518
5370.78522,0.09014
5372.71368,0.11079
5374.64215,0.10388
5376.57062,0.07975
5378.49909,0.04972
5380.42756,0.02206
5382.35603,0.00390
5384.28450,0.00806
5386.21297,0.03957
5388.14143,0.06328
5390.06990,0.05666
5391.99837,0.03623
5393.92684,0.01656
5395.85531,0.00274
5397.78378,-0.00056
5399.71225,0.01456
5401.64071,0.03210
5403.56918,0.02688
5405.49765,0.02846
5407.42612,0.05942
5409.35459,0.08567
5411.28306,0.08502
5413.21153,0.07012
5415.13999,0.06951
5417.06846,0.08961
5418.99693,0.10718
5420.92540,0.09401
5422.85387,0.05850
5424.78234,0.04485
5426.71081,0.05911
5428.63928,0.06122
5430.56774,0.03753
5432.49621,0.03392
5434.42468,0.07133
5436.35315,0.09602
5438.28162,0.08520
5440.21009,0.08594
5442.13856,0.10324
5444.06702,0.08703
5445.99549,0.04651
5447.92396,0.04166
5449.85243,0.07088
5451.78090,0.08656
5453.70937,0.07900
5455.63784,0.06284
5457.56631,0.05102
5459.49477,0.05776
5461.42324,0.06944
5463.35171,0.07059
5465.28018,0.07729
5467.20865,0.08795
5469.13712,0.08575
5471.06559,0.07626
5472.99405,0.07691
5474.92252,0.08580
5476.85099,0.08947
5478.77946,0.08259
5480.70793,0.06844
5482.63640,0.06084
5484.56487,0.06315
5486.49334,0.07319
5488.42180,0.08165
5490.35027,0.06334
5492.27874,0.03000
5494.20721,0.02005
5496.13568,0.02545
5498.06415,0.02734
5499.99262,0.03773
5501.92108,0.05828
5503.84955,0.07320
5505.77802,0.07348
5507.70649,0.05583
5509.63496,0.04185
5511.56343,0.05474
5513.49190,0.07445
5515.42037,0.07638
5517.34883,0.07463
5519.27730,0.08371
5521.20577,0.09516
5523.13424,0.09394
5525.06271,0.08652
5526.99118,0.09333
5528.91965,0.10837
5530.84811,0.11175
5532.77658,0.09592
5534.70505,0.07490
5536.63352,0.06853
5538.56199,0.07288
5540.49046,0.07510
5542.41893,0.07444
5544.34740,0.06409
5546.27586,0.04554
5548.20433,0.04408
5550.13280,0.05823
5552.06127,0.07167
5553.98974,0.09187
5555.91821,0.11607
5557.84668,0.12320
5559.77514,0.11131
5561.70361,0.09492
5563.63208,0.08690
5565.56055,0.09393
5567.48902,0.09932
5569.41749,0.08604
5571.34596,0.06921
5573.27443,0.06385
5575.20289,0.06428
5577.13136,0.05950
5579.05983,0.05987
5580.98830,0.08463
5582.91677,0.10273
5584.84524,0.09495
5586.77371,0.09119
5588.70217,0.07517
5590.63064,0.03864
5592.55911,0.02268
5594.48758,0.02995
5596.41605,0.04605
5598.34452,0.06938
5600.27299,0.09121
5602.20145,0.09790
5604.12992,0.07467
5606.05839,0.03690
5607.98686,0.02318
5609.91533,0.02811
5611.84380,0.02638
5613.77227,0.02429
5615.70074,0.02343
5617.62920,0.01886
5619.55767,0.02483
5621.48614,0.04761
5623.41461,0.07350
5625.34308,0.07975
5627.27155,0.06123
5629.20002,0.05714
5631.12848,0.08016
5633.05695,0.09245
5634.98542,0.08851
5636.91389,0.09615
5638.84236,0.10884
5640.77083,0.10841
5642.69930,0.10470
5644.62777,0.10165
5646.55623,0.09063
5648.48470,0.08088
5650.41317,0.08443
5652.34164,0.09448
5654.27011,0.10616
5656.19858,0.10935
5658.12705,0.09950
5660.05551,0.09795
5661.98398,0.09382
5663.91245,0.06860
5665.84092,0.05397
5667.76939,0.06695
5669.69786,0.09179
5671.62633,0.09254
5673.55480,0.05475
5675.48326,0.04031
5677.41173,0.06562
5679.34020,0.06723
5681.26867,0.06159
5683.19714,0.08466
5685.12561,0.09962
5687.05408,0.09128
5688.98254,0.09959
5690.91101,0.12234
5692.83948,0.11601
5694.76795,0.08925
5696.69642,0.07048
5698.62489,0.06570
5700.55336,0.07600
5702.48183,0.09078
5704.41029,0.08292
5706.33876,0.05057
5708.26723,0.03320
5710.19570,0.05082
5712.12417,0.07996
5714.05264,0.08408
5715.98111,0.05314
5717.90957,0.03400
5719.83804,0.06209
5721.76651,0.08716
5723.69498,0.07598
5725.62345,0.06169
5727.55192,0.06374
5729.48039,0.08348
5731.40886,0.11717
5733.33732,0.14782
5735.26579,0.14417
5737.19426,0.10770
5739.12273,0.08065
5741.05120,0.07104
5742.97967,0.06060
5744.90814,0.03970
5746.83660,0.02731
5748.76507,0.03649
5750.69354,0.05062
5752.62201,0.07065
5754.55048,0.10297
5756.47895,0.12292
5758.40742,0.10461
5760.33588,0.06778
5762.26435,0.05380
5764.19282,0.06047
5766.12129,0.05932
5768.04976,0.03993
5769.97823,0.01200
5771.90670,0.00976
5773.83517,0.04420
5775.76363,0.07458
5777.69210,0.06642
5779.62057,0.03975
5781.54904,0.04601
5783.47751,0.08368
5785.40598,0.11564
5787.33445,0.11779
5789.26291,0.08517
5791.19138,0.05895
5793.11985,0.06204
5795.04832,0.06271
5796.97679,0.05545
5798.90526,0.05576
5800.83373,0.06446
5802.76220,0.08571
5804.69066,0.10397
5806.61913,0.09255
5808.54760,0.05739
5810.47607,0.03424
5812.40454,0.04468
5814.33301,0.05667
5816.26148,0.05075
5818.18994,0.04555
5820.11841,0.05341
5822.04688,0.07181
5823.97535,0.09403
5825.90382,0.11935
5827.83229,0.12753
5829.76076,0.10047
5831.68923,0.06974
5833.61769,0.06974
5835.54616,0.08542
5837.47463,0.09868
5839.40310,0.10767
5841.33157,0.08738
5843.26004,0.04389
5845.18851,0.03631
5847.11697,0.07484
5849.04544,0.10183
5850.97391,0.09710
5852.90238,0.09874
5854.83085,0.12004
5856.75932,0.14623
5858.68779,0.15715
5860.61626,0.13698
5862.54472,0.09157
5864.47319,0.05997
5866.40166,0.06452
5868.33013,0.08679
5870.25860,0.10603
5872.18707,0.11230
5874.11554,0.11938
5876.04400,0.14727
5877.97247,0.17048
5879.90094,0.15585
5881.82941,0.13213
5883.75788,0.12356
5885.68635,0.11980
5887.61482,0.11990
5889.54329,0.10990
5891.47175,0.08640
5893.40022,0.07567
5895.32869,0.09045
5897.25716,0.13033
5899.18563,0.17325
5901.11410,0.17242
5903.04257,0.12188
5904.97103,0.07889
5906.89950,0.07564
5908.82797,0.08176
5910.75644,0.07115
5912.68491,0.06709
5914.61338,0.09417
5916.54185,0.12723
5918.47032,0.12098
5920.39878,0.08725
5922.32725,0.07237
5924.25572,0.08646
5926.18419,0.10756
5928.11266,0.11859
5930.04113,0.11837
5931.96960,0.09558
5933.89806,0.06895
5935.82653,0.07776
5937.75500,0.09893
5939.68347,0.08877
5941.61194,0.05951
5943.54041,0.06685
5945.46888,0.08723
5947.39734,0.05286
5949.32581,0.01551
5951.25428,0.03988
5953.18275,0.06286
5955.11122,0.05103
5957.03969,0.03663
5958.96816,0.03542
5960.89663,0.05989
5962.82509,0.09203
5964.75356,0.10085
5966.68203,0.07942
5968.61050,0.05090
5970.53897,0.05835
5972.46744,0.08675
5974.39591,0.08098
5976.32437,0.04335
5978.25284,0.01954
5980.18131,0.03215
5982.10978,0.06402
5984.03825,0.09211
5985.96672,0.09982
5987.89519,0.09274
5989.82366,0.11583
5991.75212,0.15441
5993.68059,0.13604
5995.60906,0.07279
5997.53753,0.05490
5999.46600,0.09056
6001.39447,0.11530
6003.32294,0.11682
6005.25140,0.10919
6007.17987,0.08680
6009.10834,0.06366
6011.03681,0.03458
6012.96528,0.00255
6014.89375,-0.00402
6016.82222,0.02866
6018.75069,0.09142
6020.67915,0.10690
6022.60762,0.06412
6024.53609,0.06355
6026.46456,0.11527
6028.39303,0.13868
6030.32150,0.09964
6032.24997,0.05410
6034.17843,0.03800
6036.10690,0.02664
6038.03537,0.03449
6039.96384,0.08646
6041.89231,0.14624
6043.82078,0.17050
6045.74925,0.15298
6047.67772,0.11519
6049.60618,0.09505
6051.53465,0.09695
6053.46312,0.09436
6055.39159,0.09306
6057.32006,0.08393
6059.24853,0.07221
6061.17700,0.09313
6063.10546,0.10176
6065.03393,0.07819
6066.96240,0.07344
6068.89087,0.07106
6070.81934,0.05310
6072.74781,0.05013
6074.67628,0.06715
6076.60475,0.07562
6078.53321,0.05978
6080.46168,0.04812
6082.39015,0.07276
6084.31862,0.10099
6086.24709,0.07205
6088.17556,0.01164
6090.10403,0.01492
6092.03249,0.08139
6093.96096,0.09228
6095.88943,0.01250
6097.81790,-0.03035
6099.74637,0.01970
6101.67484,0.07007
6103.60331,0.05212
6105.53177,0.01440
6107.46024,0.02773
6109.38871,0.04424
6111.31718,0.00996
6113.24565,-0.00034
6115.17412,0.04323
6117.10259,0.08451
6119.03106,0.09346
6120.95952,0.08699
6122.88799,0.09635
6124.81646,0.13357
6126.74493,0.16287
6128.67340,0.13292
6130.60187,0.07075
6132.53034,0.06163
6134.45880,0.09945
6136.38727,0.11929
6138.31574,0.11160
6140.24421,0.08514
6142.17268,0.05470
6144.10115,0.05081
6146.02962,0.08138
6147.95809,0.13562
6149.88655,0.18072
6151.81502,0.16884
6153.74349,0.11288
6155.67196,0.07195
6157.60043,0.04428
6159.52890,0.01631
6161.45737,-0.01538
6163.38583,-0.05935
6165.31430,-0.06360
6167.24277,0.00529
6169.17124,0.09534
6171.09971,0.13248
6173.02818,0.10847
6174.95665,0.08718
6176.88512,0.07553
6178.81358,0.05865
6180.74205,0.05149
6182.67052,0.03550
6184.59899,0.02877
6186.52746,0.07265
6188.45593,0.10686
6190.38440,0.09087
6192.31286,0.08809
6194.24133,0.10268
6196.16980,0.09268
6198.09827,0.05027
6200.02674,0.02691
6201.95521,0.08323
6203.88368,0.15366
6205.81215,0.15169
6207.74061,0.13922
6209.66908,0.13675
6211.59755,0.09138
6213.52602,0.03254
6215.45449,0.02377
6217.38296,0.06446
6219.31143,0.09013
6221.23989,0.07892
6223.16836,0.06960
6225.09683,0.09030
6227.02530,0.11559
6228.95377,0.11155
6230.88224,0.07971
6232.81071,0.04765
6234.73918,0.03880
6236.66764,0.05009
6238.59611,0.07300
6240.52458,0.08492
6242.45305,0.08632
6244.38152,0.09538
6246.30999,0.07734
6248.23846,0.04472
6250.16692,0.05506
6252.09539,0.08555
6254.02386,0.10164
6255.95233,0.09853
6257.88080,0.07510
6259.80927,0.06449
6261.73774,0.07160
6263.66621,0.04782
6265.59467,0.00063
6267.52314,-0.00736
6269.45161,0.01781
6271.38008,0.06787
6273.30855,0.11233
6275.23702,0.07798
6277.16549,0.02916
6279.09395,0.03782
6281.02242,0.05848
6282.95089,0.06071
6284.87936,0.03716
6286.80783,-0.00072
6288.73630,-0.02082
6290.66477,-0.03112
6292.59323,-0.05060
6294.52170,-0.05431
6296.45017,-0.07200
6298.37864,-0.10606
6300.30711,-0.05561
6302.23558,0.05715
6304.16405,0.11228
6306.09252,0.13026
6308.02098,0.12122
6309.94945,0.05240
6311.87792,-0.00453
6313.80639,0.02142
6315.73486,0.08638
6317.66333,0.13742
6319.59180,0.17017
6321.52026,0.20002
6323.44873,0.22211
6325.37720,0.22109
6327.30567,0.20913
6329.23414,0.18281
6331.16261,0.13248
6333.09108,0.09397
6335.01955,0.09690
6336.94801,0.11685
6338.87648,0.09667
6340.80495,0.04195
6342.73342,0.03449
6344.66189,0.06495
6346.59036,0.02846
6348.51883,-0.05030
6350.44729,-0.03951
6352.37576,0.05915
6354.30423,0.13913
6356.23270,0.14826
6358.16117,0.08369
6360.08964,0.00564
6362.01811,0.00349
6363.94658,0.05960
6365.87504,0.08135
6367.80351,0.07584
6369.73198,0.08316
6371.66045,0.06399
6373.58892,0.02729
6375.51739,0.03540
6377.44586,0.07199
6379.37432,0.08530
6381.30279,0.05796
6383.23126,0.02825
6385.15973,0.04886
6387.08820,0.07769
6389.01667,0.08757
6390.94514,0.07685
6392.87361,0.03049
6394.80207,0.01850
6396.73054,0.04126
6398.65901,0.03794
6400.58748,0.05940
6402.51595,0.09186
6404.44442,0.06258
6406.37289,0.02692
6408.30135,0.03115
6410.22982,0.04686
6412.15829,0.07238
6414.08676,0.10386
6416.01523,0.11222
6417.94370,0.07925
6419.87217,0.04653
6421.80064,0.08826
6423.72910,0.16520
6425.65757,0.13039
6427.58604,0.00354
6429.51451,-0.03464
6431.44298,0.00874
6433.37145,-0.00813
6435.29992,-0.05237
6437.22838,-0.04601
6439.15685,-0.00553
6441.08532,0.04099
6443.01379,0.05864
6444.94226,0.03087
6446.87073,-0.00424
6448.79920,0.00165
6450.72766,0.05377
6452.65613,0.08548
6454.58460,0.06138
6456.51307,-0.01279
6458.44154,-0.06359
6460.37001,-0.05952
6462.29848,-0.08855
6464.22695,-0.12667
6466.15541,-0.05225
6468.08388,0.10377
6470.01235,0.18959
6471.94082,0.16827
6473.86929,0.11642
6475.79776,0.07880
6477.72623,0.05601
6479.65469,0.04199
6481.58316,0.06435
6483.51163,0.08650
6485.44010,0.06118
6487.36857,0.04890
6489.29704,0.08096
6491.22551,0.11369
6493.15398,0.12833
6495.08244,0.12688
6497.01091,0.13736
6498.93938,0.16408
6500.86785,0.13027
6502.79632,0.02865
6504.72479,-0.03522
6506.65326,-0.01065
6508.58172,0.05034
6510.51019,0.08783
6512.43866,0.13577
6514.36713,0.20367
6516.29560,0.22805
6518.22407,0.17799
6520.15254,0.10414
6522.08101,0.06428
6524.00947,0.04459
6525.93794,0.01734
6527.86641,-0.01294
6529.79488,-0.02380
6531.72335,0.03356
6533.65182,0.13477
6535.58029,0.19063
6537.50875,0.16989
6539.43722,0.11316
6541.36569,0.05738
6543.29416,0.01113
6545.22263,0.02319
6547.15110,0.08092
6549.07957,0.12778
6551.00804,0.19908
6552.93650,0.28957
6554.86497,0.29398
6556.79344,0.25521
6558.72191,0.26325
6560.65038,0.26502
6562.57885,0.21390
6564.50732,0.11372
6566.43578,0.02739
6568.36425,0.02255
6570.29272,0.06530
6572.22119,0.12031
6574.14966,0.13922
6576.07813,0.09899
6578.00660,0.06423
6579.93507,0.09026
6581.86353,0.15677
6583.79200,0.17813
6585.72047,0.13304
6587.64894,0.09409
6589.57741,0.08065
6591.50588,0.07496
6593.43435,0.05839
6595.36281,0.02887
6597.29128,0.03775
6599.21975,0.09502
6601.14822,0.16277
6603.07669,0.16818
6605.00516,0.08177
6606.93363,0.04325
6608.86210,0.15032
6610.79056,0.24419
6612.71903,0.19716
6614.64750,0.10288
6616.57597,0.03415
6618.50444,-0.02173
6620.43291,0.00018
6622.36138,0.10818
6624.28984,0.18271
6626.21831,0.16966
6628.14678,0.08956
6630.07525,0.02919
6632.00372,0.05164
6633.93219,0.07812
6635.86066,0.04677
6637.78912,-0.01811
6639.71759,-0.03005
6641.64606,0.01285
6643.57453,0.05134
6645.50300,0.07126
6647.43147,0.05153
6649.35994,-0.00832
6651.28841,-0.02847
6653.21687,0.04141
6655.14534,0.11956
6657.07381,0.10475
6659.00228,0.06863
6660.93075,0.06806
6662.85922,0.03758
6664.78769,-0.02243
6666.71615,-0.08735
6668.64462,-0.12671
6670.57309,-0.10591
6672.50156,-0.04272
6674.43003,0.08718
6676.35850,0.21746
6678.28697,0.17546
6680.21544,0.01211
6682.14390,-0.05109
6684.07237,0.01714
6686.00084,0.07170
6687.92931,0.07957
6689.85778,0.07699
6691.78625,0.08105
6693.71472,0.11439
6695.64318,0.17640
6697.57165,0.22246
6699.50012,0.16540
6701.42859,-0.00165
6703.35706,-0.14837
6705.28553,-0.18427
6707.21400,-0.15849
6709.14247,-0.11121
6711.07093,-0.01694
6712.99940,0.08948
6714.92787,0.11848
6716.85634,0.06177
6718.78481,0.00684
6720.71328,0.01016
6722.64175,0.05514
6724.57021,0.08626
6726.49868,0.08237
6728.42715,0.04997
6730.35562,-0.01932
6732.28409,-0.09226
6734.21256,-0.10951
6736.14103,-0.09647
6738.06950,-0.09475
6739.99796,-0.07755
6741.92643,-0.04314
6743.85490,0.02613
6745.78337,0.11753
6747.71184,0.11213
6749.64031,0.00393
6751.56878,-0.05141
6753.49724,-0.02854
6755.42571,-0.01751
6757.35418,-0.02260
6759.28265,-0.00279
6761.21112,0.06883
6763.13959,0.16270
6765.06806,0.17982
6766.99653,0.11713
6768.92499,0.06278
6770.85346,0.01450
6772.78193,-0.02613
6774.71040,-0.02179
6776.63887,0.00780
6778.56734,0.05849
6780.49581,0.11073
6782.42427,0.11752
6784.35274,0.08842
6786.28121,0.05143
6788.20968,0.04653
6790.13815,0.08379
6792.06662,0.11359
6793.99509,0.11624
6795.92355,0.09899
6797.85202,0.06755
6799.78049,0.06585
6801.70896,0.11248
6803.63743,0.13302
6805.56590,0.10794
6807.49437,0.09375
6809.42284,0.09173
6811.35130,0.11397
6813.27977,0.15168
6815.20824,0.15270
6817.13671,0.13761
6819.06518,0.11843
6820.99365,0.06062
6822.92212,-0.02015
6824.85058,-0.02713
6826.77905,0.06363
6828.70752,0.09142
6830.63599,-0.03174
6832.56446,-0.09987
6834.49293,-0.04198
6836.42140,0.02214
6838.34987,0.02241
6840.27833,-0.03166
6842.20680,-0.05987
6844.13527,0.02902
6846.06374,0.18070
6847.99221,0.26790
6849.92068,0.23475
6851.84915,0.16270
6853.77761,0.10229
6855.70608,-0.01164
6857.63455,-0.11894
6859.56302,-0.10430
6861.49149,-0.04603
6863.41996,-0.06484
6865.34843,-0.10527
6867.27690,-0.04236
6869.20536,0.06386
6871.13383,0.09939
6873.06230,0.08210
6874.99077,0.08166
6876.91924,0.12634
6878.84771,0.15326
6880.77618,0.11776
6882.70464,0.09822
6884.63311,0.09648
6886.56158,0.10661
6888.49005,0.17306
6890.41852,0.25167
6892.34699,0.30832
6894.27546,0.30354
6896.20393,0.15872
6898.13239,-0.03240
6900.06086,-0.09477
6901.98933,0.00906
6903.91780,0.19845
6905.84627,0.26244
6907.77474,0.16534
6909.70321,0.07390
6911.63167,0.06401
6913.56014,0.06312
6915.48861,0.04740
6917.41708,0.12580
6919.34555,0.25401
6921.27402,0.30941
6923.20249,0.29986
6925.13096,0.23507
6927.05942,0.16456
6928.98789,0.10851
6930.91636,0.05889
6932.84483,0.07284
6934.77330,0.09305
6936.70177,0.08469
6938.63024,0.11361
6940.55870,0.15723
6942.48717,0.15713
6944.41564,0.13081
6946.34411,0.10376
6948.27258,0.10831
6950.20105,0.16906
6952.12952,0.23213
6954.05799,0.17391
6955.98645,0.00636
6957.91492,-0.08512
6959.84339,-0.06482
6961.77186,-0.01566
6963.70033,0.01219
6965.62880,0.04901
6967.55727,0.14219
6969.48573,0.24548
6971.41420,0.22821
6973.34267,0.09577
6975.27114,0.05512
6977.19961,0.09804
6979.12808,0.07537
6981.05655,0.10173
6982.98501,0.18228
6984.91348,0.16204
6986.84195,0.15135
6988.77042,0.22326
6990.69889,0.24497
6992.62736,0.22211
6994.55583,0.20253
6996.48430,0.13636
6998.41276,0.04567
7000.34123,0.00740
7002.26970,-0.01653
7004.19817,-0.03306
7006.12664,-0.02814
7008.05511,-0.01759
7009.98358,-0.02813
7011.91204,-0.07681
7013.84051,-0.11558
7015.76898,-0.11241
7017.69745,-0.10219
7019.62592,-0.06017
7021.55439,0.00284
7023.48286,0.03008
7025.41133,0.04394
7027.33979,0.07681
7029.26826,0.08374
7031.19673,0.07426
7033.12520,0.06766
7035.05367,0.00547
7036.98214,-0.10081
7038.91061,-0.14523
7040.83907,-0.05237
7042.76754,0.08290
7044.69601,0.07685
7046.62448,-0.03654
7048.55295,-0.08551
7050.48142,-0.03852
7052.40989,-0.01476
7054.33836,0.00938
7056.26682,0.09660
7058.19529,0.16490
7060.12376,0.16972
7062.05223,0.16412
7063.98070,0.15254
7065.90917,0.11857
7067.83764,0.10536
7069.76610,0.13372
7071.69457,0.13681
7073.62304,0.08355
7075.55151,0.01279
7077.47998,-0.03182
7079.40845,0.03672
7081.33692,0.20672
7083.26539,0.27964
7085.19385,0.30208
7087.12232,0.33683
7089.05079,0.28280
7090.97926,0.17441
7092.90773,0.12494
7094.83620,0.15127
7096.76467,0.19401
7098.69313,0.22155
7100.62160,0.19139
7102.55007,0.08056
7104.47854,0.00096
7106.40701,0.04681
7108.33548,0.10230
7110.26395,0.08102
7112.19242,0.03009
7114.12088,-0.00626
7116.04935,0.00926
7117.97782,0.07487
7119.90629,0.03719
7121.83476,-0.00811
7123.76323,0.10574
7125.69170,0.17337
7127.62016,0.11110
7129.54863,0.11566
7131.47710,0.17255
7133.40557,0.13274
7135.33404,0.04651
7137.26251,0.03471
7139.19098,0.03342
7141.11944,0.02850
7143.04791,0.11984
7144.97638,0.16012
7146.90485,0.01515
7148.83332,-0.08488
7150.76179,-0.06775
7152.69026,-0.00100
7154.61873,0.11352
7156.54719,0.17365
7158.47566,0.17197
7160.40413,0.14123
7162.33260,0.04036
7164.26107,-0.00064
7166.18954,0.14278
7168.11801,0.28869
7170.04647,0.21763
7171.97494,-0.01598
7173.90341,-0.16815
7175.83188,-0.10956
7177.76035,0.02279
7179.68882,0.03120
7181.61729,0.06446
7183.54576,0.27022
7185.47422,0.39171
7187.40269,0.28518
7189.33116,0.04850
7191.25963,-0.15378
7193.18810,-0.14320
7195.11657,-0.04700
7197.04504,-0.03704
7198.97350,-0.00577
7200.90197,0.08137
7202.83044,0.10682
7204.75891,0.02636
7206.68738,-0.05936
7208.61585,-0.08546
7210.54432,-0.05830
7212.47279,-0.01762
7214.40125,-0.03732
7216.32972,-0.12014
7218.25819,-0.14319
7220.18666,-0.06679
7222.11513,0.00702
7224.04360,0.07318
7225.97207,0.15718
7227.90053,0.18795
7229.82900,0.13400
7231.75747,0.09479
7233.68594,0.02890
7235.61441,-0.02764
7237.54288,0.07837
7239.47135,0.15725
7241.39982,0.07105
7243.32828,0.02763
7245.25675,0.02141
7247.18522,-0.05999
7249.11369,-0.02700
7251.04216,0.18842
7252.97063,0.28738
7254.89910,0.17994
7256.82756,0.13579
7258.75603,0.17614
7260.68450,0.23784
7262.61297,0.26282
7264.54144,0.17923
7266.46991,0.08994
7268.39838,0.14476
7270.32685,0.16920
7272.25531,0.00742
7274.18378,-0.08580
7276.11225,-0.07741
7278.04072,-0.07497
7279.96919,-0.02888
7281.89766,0.05333
7283.82613,0.10408
7285.75459,0.11256
7287.68306,0.02335
7289.61153,-0.12081
7291.54000,-0.16268
7293.46847,-0.08653
7295.39694,0.00178
7297.32541,0.05584
7299.25387,0.02588
7301.18234,-0.05766
7303.11081,-0.05012
7305.03928,0.03249
7306.96775,0.09748
7308.89622,0.25284
7310.82469,0.29608
7312.75316,0.13234
7314.68162,0.05811
7316.61009,0.11089
7318.53856,0.04278
7320.46703,-0.06326
7322.39550,-0.08303
7324.32397,-0.10067
7326.25244,-0.07505
7328.18090,0.10002
7330.10937,0.38899
7332.03784,0.49855
7333.96631,0.40603
7335.89478,0.36866
7337.82325,0.38750
7339.75172,0.25710
7341.68019,0.04350
7343.60865,-0.09917
7345.53712,-0.20033
7347.46559,-0.11657
7349.39406,0.06981
7351.32253,0.09444
7353.25100,0.04134
7355.17947,0.09005
7357.10793,0.16938
7359.03640,0.07809
7360.96487,-0.09608
7362.89334,-0.08343
7364.82181,0.05253
7366.75028,0.14492
7368.67875,0.10328
7370.60722,-0.08106
7372.53568,-0.20814
7374.46415,-0.08837
7376.39262,0.13353
7378.32109,0.21469
7380.24956,0.26903
7382.17803,0.17979
7384.10650,-0.12722
7386.03496,-0.32653
7387.96343,-0.20555
7389.89190,0.00287
7391.82037,0.08064
7393.74884,0.09908
7395.67731,0.18336
7397.60578,0.25623
7399.53425,0.25848
7401.46271,0.23055
7403.39118,0.17887
7405.31965,0.07703
7407.24812,0.02569
7409.17659,0.07938
7411.10506,0.07636
7413.03353,0.04332
7414.96199,0.13659
7416.89046,0.27853
7418.81893,0.29188
7420.74740,0.19918
7422.67587,0.16092
7424.60434,0.15753
7426.53281,0.07946
7428.46128,-0.06961
7430.38974,-0.10222
7432.31821,-0.00144
7434.24668,-0.00167
7436.17515,-0.14678
7438.10362,-0.27465
7440.03209,-0.21357
7441.96056,-0.10356
7443.88902,-0.08620
7445.81749,0.03674
7447.74596,0.20837
7449.67443,0.22364
7451.60290,0.24923
7453.53137,0.28383
7455.45984,0.19737
7457.38831,0.15467
7459.31677,0.16518
7461.24524,0.11745
7463.17371,0.08278
7465.10218,0.06346
7467.03065,0.04376
7468.95912,0.14115
7470.88759,0.32446
7472.81605,0.38432
7474.74452,0.29411
7476.67299,0.19490
7478.60146,0.15936
7480.52993,0.17024
7482.45840,0.19761
7484.38687,0.23041
7486.31533,0.26174
7488.24380,0.20563
7490.17227,0.14854
7492.10074,0.31822
7494.02921,0.48581
7495.95768,0.42480
7497.88615,0.21755
