399.19301,1.56157
401.12148,0.79470
403.04995,0.27976
404.97842,0.08851
406.90689,-0.04192
408.83536,-0.06745
410.76382,0.07232
412.69229,0.07858
414.62076,-0.01318
416.54923,-0.01798
418.47770,0.06161
420.40617,0.16918
422.33464,0.28579
424.26311,0.40617
426.19157,0.44378
428.12004,0.41644
430.04851,0.35119
431.97698,0.21443
433.90545,0.09015
435.83392,0.07608
437.76239,0.12298
439.69085,0.14859
441.61932,0.17095
443.54779,0.20349
445.47626,0.22229
447.40473,0.24227
449.33320,0.25817
451.26167,0.22734
453.19013,0.15673
455.11860,0.15598
457.04707,0.21650
458.97554,0.20915
460.90401,0.14306
462.83248,0.07437
464.76095,0.04307
466.68942,0.09258
468.61788,0.19447
470.54635,0.44260
472.47482,1.49186
474.40329,2.66149
476.33176,1.65620
478.26023,0.45170
480.18870,0.06933
482.11716,0.05031
484.04563,0.08036
485.97410,0.12575
487.90257,0.15750
489.83104,0.17479
491.75951,0.18282
493.68798,0.16192
495.61645,0.13206
497.54491,0.13642
499.47338,0.13552
501.40185,0.10608
503.33032,0.07682
505.25879,0.07867
507.18726,0.10896
509.11573,0.13821
511.04419,0.15347
512.97266,0.15649
514.90113,0.14438
516.82960,0.11749
518.75807,0.11495
520.68654,0.15095
522.61501,0.18467
524.54348,0.16593
526.47194,0.11275
528.40041,0.10724
530.32888,0.13763
532.25735,0.13960
534.18582,0.13656
536.11429,0.16813
538.04276,0.18199
539.97122,0.16042
541.89969,0.13822
543.82816,0.11390
545.75663,0.09338
547.68510,0.10143
549.61357,0.14760
551.54204,0.30267
553.47051,0.45561
555.39897,0.36018
557.32744,0.17035
559.25591,0.10827
561.18438,0.10358
563.11285,0.13062
565.04132,0.16459
566.96979,0.13993
568.89825,0.08836
570.82672,0.06485
572.75519,0.05097
574.68366,0.03651
576.61213,0.03339
578.54060,0.04590
580.46907,0.08284
582.39754,0.12246
584.32600,0.12674
586.25447,0.09153
588.18294,0.07447
590.11141,0.10538
592.03988,0.13613
593.96835,0.13896
595.89682,0.13410
597.82528,0.12556
599.75375,0.10459
601.68222,0.09286
603.61069,0.10677
605.53916,0.11520
607.46763,0.10539
609.39610,0.11171
611.32456,0.12938
613.25303,0.12774
615.18150,0.12029
617.10997,0.12206
619.03844,0.12339
620.96691,0.11485
622.89538,0.09361
624.82385,0.07763
626.75231,0.09501
628.68078,0.12563
630.60925,0.12924
632.53772,0.11696
634.46619,0.11658
636.39466,0.12844
638.32313,0.13798
640.25159,0.14470
642.18006,0.15602
644.10853,0.16884
646.03700,0.17183
647.96547,0.15771
649.89394,0.13661
651.82241,0.11913
653.75088,0.11278
655.67934,0.12751
657.60781,0.14999
659.53628,0.15282
661.46475,0.13863
663.39322,0.12905
665.32169,0.12577
667.25016,0.12718
669.17862,0.13671
671.10709,0.13892
673.03556,0.13474
674.96403,0.12263
676.89250,0.09722
678.82097,0.08174
680.74944,0.09588
682.67791,0.11801
684.60637,0.12019
686.53484,0.09717
688.46331,0.07679
690.39178,0.08593
692.32025,0.11037
694.24872,0.12470
696.17719,0.12425
698.10565,0.11978
700.03412,0.11573
701.96259,0.10433
703.89106,0.08826
705.81953,0.09321
707.74800,0.13652
709.67647,0.20476
711.60494,0.24726
713.53340,0.21677
715.46187,0.15564
717.39034,0.13019
719.31881,0.13816
721.24728,0.14923
723.17575,0.15023
725.10422,0.15189
727.03268,0.15663
728.96115,0.14755
730.88962,0.12649
732.81809,0.11875
734.74656,0.12693
736.67503,0.13345
738.60350,0.13266
740.53197,0.12998
742.46043,0.13342
744.38890,0.14331
746.31737,0.14984
748.24584,0.14346
750.17431,0.13519
752.10278,0.13766
754.03125,0.14216
755.95971,0.13943
757.88818,0.13529
759.81665,0.13377
761.74512,0.12806
763.67359,0.13006
765.60206,0.14246
767.53053,0.14162
769.45900,0.13785
771.38746,0.14946
773.31593,0.15701
775.24440,0.15117
777.17287,0.13951
779.10134,0.12532
781.02981,0.12197
782.95828,0.13158
784.88674,0.14295
786.81521,0.15170
788.74368,0.15642
790.67215,0.15786
792.60062,0.15284
794.52909,0.14086
796.45756,0.12909
798.38602,0.11957
800.31449,0.11113
802.24296,0.10709
804.17143,0.10605
806.09990,0.10189
808.02837,0.10323
809.95684,0.12218
811.88531,0.14058
813.81377,0.13859
815.74224,0.13390
817.67071,0.13904
819.59918,0.14101
821.52765,0.14109
823.45612,0.15023
825.38459,0.15944
827.31305,0.15594
829.24152,0.14278
831.16999,0.12893
833.09846,0.12447
835.02693,0.12996
836.95540,0.13475
838.88387,0.13562
840.81234,0.14128
842.74080,0.15212
844.66927,0.15281
846.59774,0.14373
848.52621,0.14135
850.45468,0.14560
852.38315,0.14730
854.31162,0.14510
856.24008,0.14272
858.16855,0.14404
860.09702,0.14538
862.02549,0.14444
863.95396,0.14182
865.88243,0.13851
867.81090,0.14057
869.73937,0.14087
871.66783,0.13105
873.59630,0.12074
875.52477,0.11889
877.45324,0.12742
879.38171,0.14341
881.31018,0.15860
883.23865,0.16378
885.16711,0.15504
887.09558,0.13769
889.02405,0.12302
890.95252,0.12197
892.88099,0.13263
894.80946,0.14040
896.73793,0.13717
898.66640,0.13255
900.59486,0.13801
902.52333,0.14486
904.45180,0.14481
906.38027,0.14848
908.30874,0.15714
910.23721,0.15822
912.16568,0.15367
914.09414,0.15220
916.02261,0.14733
917.95108,0.13938
919.87955,0.13922
921.80802,0.14255
923.73649,0.14073
925.66496,0.13986
927.59343,0.14618
929.52189,0.15293
931.45036,0.15164
933.37883,0.14610
935.30730,0.14599
937.23577,0.14718
939.16424,0.14156
941.09271,0.13393
943.02117,0.13448
944.94964,0.14617
946.87811,0.16158
948.80658,0.16957
950.73505,0.16028
952.66352,0.14381
954.59199,0.14111
956.52045,0.14845
958.44892,0.15247
960.37739,0.14911
962.30586,0.14201
964.23433,0.13830
966.16280,0.13942
968.09127,0.14418
970.01974,0.14633
971.94820,0.14042
973.87667,0.13248
975.80514,0.13269
977.73361,0.14327
979.66208,0.15359
981.59055,0.15765
983.51902,0.16007
985.44748,0.16376
987.37595,0.17076
989.30442,0.17677
991.23289,0.17206
993.16136,0.15788
995.08983,0.14378
997.01830,0.13616
998.94677,0.14024
1000.87523,0.15155
1002.80370,0.15736
1004.73217,0.15942
1006.66064,0.16673
1008.58911,0.17436
1010.51758,0.17091
1012.44605,0.16031
1014.37451,0.15253
1016.30298,0.14740
1018.23145,0.14538
1020.15992,0.14735
1022.08839,0.15161
1024.01686,0.15625
1025.94533,0.15822
1027.87380,0.15744
1029.80226,0.15117
1031.73073,0.13657
1033.65920,0.12679
1035.58767,0.13348
1037.51614,0.14726
1039.44461,0.15411
1041.37308,0.15251
1043.30154,0.15135
1045.23001,0.15529
1047.15848,0.16176
1049.08695,0.16601
1051.01542,0.16598
1052.94389,0.16320
1054.87236,0.15869
1056.80083,0.15571
1058.72929,0.15338
1060.65776,0.15286
1062.58623,0.15784
1064.51470,0.15993
1066.44317,0.15630
1068.37164,0.15372
1070.30011,0.15581
1072.22857,0.16563
1074.15704,0.17757
1076.08551,0.18194
1078.01398,0.17932
1079.94245,0.17404
1081.87092,0.16535
1083.79939,0.15535
1085.72786,0.14822
1087.65632,0.14204
1089.58479,0.14022
1091.51326,0.14551
1093.44173,0.15021
1095.37020,0.15172
1097.29867,0.15351
1099.22714,0.15673
1101.15560,0.16224
1103.08407,0.16725
1105.01254,0.16176
1106.94101,0.14953
1108.86948,0.15276
1110.79795,0.17223
1112.72642,0.18155
1114.65489,0.17373
1116.58335,0.16352
1118.51182,0.15394
1120.44029,0.14319
1122.36876,0.13690
1124.29723,0.13865
1126.22570,0.14698
1128.15417,0.15593
1130.08263,0.15870
1132.01110,0.15716
1133.93957,0.15706
1135.86804,0.15660
1137.79651,0.15511
1139.72498,0.15812
1141.65345,0.16366
1143.58191,0.16612
1145.51038,0.16855
1147.43885,0.17108
1149.36732,0.16782
1151.29579,0.16461
1153.22426,0.16821
1155.15273,0.17362
1157.08120,0.17674
1159.00966,0.17433
1160.93813,0.16641
1162.86660,0.16134
1164.79507,0.16123
1166.72354,0.16135
1168.65201,0.15924
1170.58048,0.15684
1172.50894,0.15845
1174.43741,0.16317
1176.36588,0.16783
1178.29435,0.17031
1180.22282,0.16815
1182.15129,0.16342
1184.07976,0.16152
1186.00823,0.16377
1187.93669,0.16709
1189.86516,0.16953
1191.79363,0.16981
1193.72210,0.16709
1195.65057,0.16460
1197.57904,0.16563
1199.50751,0.16788
1201.43597,0.16841
1203.36444,0.16940
1205.29291,0.17088
1207.22138,0.16935
1209.14985,0.16562
1211.07832,0.16456
1213.00679,0.16806
1214.93526,0.16903
1216.86372,0.16412
1218.79219,0.16127
1220.72066,0.16228
1222.64913,0.16309
1224.57760,0.16310
1226.50607,0.16079
1228.43454,0.15804
1230.36300,0.16038
1232.29147,0.16349
1234.21994,0.16121
1236.14841,0.16013
1238.07688,0.16307
1240.00535,0.16206
1241.93382,0.15673
1243.86229,0.15305
1245.79075,0.15266
1247.71922,0.15606
1249.64769,0.16012
1251.57616,0.15900
1253.50463,0.15673
1255.43310,0.16108
1257.36157,0.16366
1259.29003,0.15454
1261.21850,0.14820
1263.14697,0.15504
1265.07544,0.16040
1267.00391,0.15619
1268.93238,0.15105
1270.86085,0.15299
1272.78932,0.15824
1274.71778,0.15814
1276.64625,0.15604
1278.57472,0.15858
1280.50319,0.16016
1282.43166,0.15834
1284.36013,0.15920
1286.28860,0.15877
1288.21706,0.15545
1290.14553,0.15796
1292.07400,0.16216
1294.00247,0.15932
1295.93094,0.15155
1297.85941,0.14170
1299.78788,0.12747
1301.71634,0.10516
1303.64481,0.08408
1305.57328,0.08976
1307.50175,0.12649
1309.43022,0.15975
1311.35869,0.17021
1313.28716,0.17044
1315.21563,0.16676
1317.14409,0.16338
1319.07256,0.16422
1321.00103,0.16456
1322.92950,0.16433
1324.85797,0.16038
1326.78644,0.15218
1328.71491,0.14890
1330.64337,0.14645
1332.57184,0.14534
1334.50031,0.15173
1336.42878,0.15512
1338.35725,0.15231
1340.28572,0.14593
1342.21419,0.14641
1344.14266,0.15449
1346.07112,0.14994
1347.99959,0.14152
1349.92806,0.14401
1351.85653,0.14599
1353.78500,0.14323
1355.71347,0.14270
1357.64194,0.14853
1359.57040,0.15644
1361.49887,0.16293
1363.42734,0.16606
1365.35581,0.16527
1367.28428,0.16622
1369.21275,0.16966
1371.14122,0.17193
1373.06969,0.17350
1374.99815,0.17511
1376.92662,0.17405
1378.85509,0.17246
1380.78356,0.17312
1382.71203,0.17567
1384.64050,0.18087
1386.56897,0.18546
1388.49743,0.18113
1390.42590,0.17427
1392.35437,0.17613
1394.28284,0.18186
1396.21131,0.18169
1398.13978,0.17945
1400.06825,0.17888
1401.99672,0.17753
1403.92518,0.17590
1405.85365,0.17705
1407.78212,0.18187
1409.71059,0.18692
1411.63906,0.18624
1413.56753,0.18048
1415.49600,0.17960
1417.42446,0.18695
1419.35293,0.19026
1421.28140,0.18559
1423.20987,0.18435
1425.13834,0.18512
1427.06681,0.18582
1428.99528,0.18793
1430.92375,0.18902
1432.85221,0.18925
1434.78068,0.19111
1436.70915,0.19139
1438.63762,0.18612
1440.56609,0.18236
1442.49456,0.18503
1444.42303,0.19008
1446.35149,0.19178
1448.27996,0.19029
1450.20843,0.18827
1452.13690,0.18665
1454.06537,0.18773
1455.99384,0.19484
1457.92231,0.19759
1459.85077,0.18913
1461.77924,0.18437
1463.70771,0.18372
1465.63618,0.18427
1467.56465,0.18646
1469.49312,0.19163
1471.42159,0.19877
1473.35006,0.20023
1475.27852,0.19501
1477.20699,0.19300
1479.13546,0.19494
1481.06393,0.19595
1482.99240,0.19317
1484.92087,0.18969
1486.84934,0.18915
1488.77780,0.19356
1490.70627,0.19574
1492.63474,0.19103
1494.56321,0.18884
1496.49168,0.19467
1498.42015,0.20125
1500.34862,0.20605
1502.27709,0.21961
1504.20555,0.23837
1506.13402,0.23975
1508.06249,0.20674
1509.99096,0.19290
1511.91943,0.19457
1513.84790,0.19758
1515.77637,0.19864
1517.70483,0.19812
1519.63330,0.20220
1521.56177,0.21047
1523.49024,0.21001
1525.41871,0.20476
1527.34718,0.20023
1529.27565,0.19691
1531.20412,0.19782
1533.13258,0.20156
1535.06105,0.20159
1536.98952,0.20436
1538.91799,0.21919
1540.84646,0.22844
1542.77493,0.21221
1544.70340,0.19774
1546.63186,0.19268
1548.56033,0.19481
1550.48880,0.19625
1552.41727,0.19505
1554.34574,0.19889
1556.27421,0.21153
1558.20268,0.22655
1560.13115,0.21161
1562.05961,0.19510
1563.98808,0.19181
1565.91655,0.19308
1567.84502,0.19543
1569.77349,0.19584
1571.70196,0.19673
1573.63043,0.20242
1575.55889,0.20472
1577.48736,0.19393
1579.41583,0.18358
1581.34430,0.17983
1583.27277,0.17946
1585.20124,0.17738
1587.12971,0.17270
1589.05818,0.17075
1590.98664,0.17363
1592.91511,0.17818
1594.84358,0.17991
1596.77205,0.17841
1598.70052,0.17770
1600.62899,0.17999
1602.55746,0.18374
1604.48592,0.18434
1606.41439,0.18241
1608.34286,0.18311
1610.27133,0.18535
1612.19980,0.18565
1614.12827,0.18771
1616.05674,0.19559
1617.98521,0.19913
1619.91367,0.19625
1621.84214,0.19777
1623.77061,0.20074
1625.69908,0.19911
1627.62755,0.19743
1629.55602,0.19755
1631.48449,0.19956
1633.41295,0.20526
1635.34142,0.21201
1637.26989,0.20808
1639.19836,0.19935
1641.12683,0.19401
1643.05530,0.19468
1644.98377,0.20670
1646.91223,0.22408
1648.84070,0.22293
1650.76917,0.21739
1652.69764,0.21941
1654.62611,0.21626
1656.55458,0.20856
1658.48305,0.20557
1660.41152,0.20870
1662.33998,0.21034
1664.26845,0.20214
1666.19692,0.19894
1668.12539,0.21112
1670.05386,0.22316
1671.98233,0.21837
1673.91080,0.21448
1675.83926,0.21268
1677.76773,0.20797
1679.69620,0.20772
1681.62467,0.21417
1683.55314,0.22074
1685.48161,0.21305
1687.41008,0.20477
1689.33855,0.20489
1691.26701,0.20540
1693.19548,0.20502
1695.12395,0.21133
1697.05242,0.22191
1698.98089,0.22241
1700.90936,0.21150
1702.83783,0.20277
1704.76629,0.19964
1706.69476,0.19605
1708.62323,0.19135
1710.55170,0.19024
1712.48017,0.19571
1714.40864,0.20667
1716.33711,0.21613
1718.26558,0.21120
1720.19404,0.19932
1722.12251,0.19410
1724.05098,0.19385
1725.97945,0.19341
1727.90792,0.19453
1729.83639,0.19976
1731.76486,0.20621
1733.69332,0.20831
1735.62179,0.20166
1737.55026,0.19627
1739.47873,0.19624
1741.40720,0.19748
1743.33567,0.19712
1745.26414,0.19671
1747.19261,0.19773
1749.12107,0.19947
1751.04954,0.19619
1752.97801,0.19011
1754.90648,0.18875
1756.83495,0.19170
1758.76342,0.19589
1760.69189,0.19997
1762.62035,0.19988
1764.54882,0.19582
1766.47729,0.19477
1768.40576,0.19710
1770.33423,0.20027
1772.26270,0.20105
1774.19117,0.19657
1776.11964,0.19387
1778.04810,0.19536
1779.97657,0.19617
1781.90504,0.19275
1783.83351,0.18987
1785.76198,0.19022
1787.69045,0.19207
1789.61892,0.19557
1791.54738,0.19833
1793.47585,0.19796
1795.40432,0.19770
1797.33279,0.19862
1799.26126,0.20118
1801.18973,0.20335
1803.11820,0.20071
1805.04666,0.19677
1806.97513,0.19636
1808.90360,0.19703
1810.83207,0.19522
1812.76054,0.19313
1814.68901,0.19374
1816.61748,0.19411
1818.54595,0.19070
1820.47441,0.18746
1822.40288,0.18971
1824.33135,0.19543
1826.25982,0.20014
1828.18829,0.20370
1830.11676,0.20213
1832.04523,0.19530
1833.97369,0.19276
1835.90216,0.19359
1837.83063,0.19206
1839.75910,0.19152
1841.68757,0.19717
1843.61604,0.20293
1845.54451,0.19993
1847.47298,0.19373
1849.40144,0.18828
1851.32991,0.18382
1853.25838,0.18320
1855.18685,0.18569
1857.11532,0.18705
1859.04379,0.18636
1860.97226,0.18550
1862.90072,0.18511
1864.82919,0.18763
1866.75766,0.19584
1868.68613,0.20303
1870.61460,0.20048
1872.54307,0.19369
1874.47154,0.18814
1876.40001,0.18616
1878.32847,0.18804
1880.25694,0.19046
1882.18541,0.19011
1884.11388,0.18884
1886.04235,0.18955
1887.97082,0.19023
1889.89929,0.18966
1891.82775,0.18976
1893.75622,0.19146
1895.68469,0.19345
1897.61316,0.19374
1899.54163,0.19377
1901.47010,0.19491
1903.39857,0.19400
1905.32704,0.19243
1907.25550,0.19531
1909.18397,0.19686
1911.11244,0.19339
1913.04091,0.19162
1914.96938,0.19160
1916.89785,0.19188
1918.82632,0.19417
1920.75478,0.19660
1922.68325,0.19720
1924.61172,0.19549
1926.54019,0.19306
1928.46866,0.19136
1930.39713,0.19027
1932.32560,0.18999
1934.25407,0.18892
1936.18253,0.18641
1938.11100,0.18496
1940.03947,0.18656
1941.96794,0.19040
1943.89641,0.19133
1945.82488,0.18796
1947.75335,0.18499
1949.68181,0.18474
1951.61028,0.18721
1953.53875,0.19011
1955.46722,0.19057
1957.39569,0.19017
1959.32416,0.19156
1961.25263,0.19285
1963.18110,0.19149
1965.10956,0.18938
1967.03803,0.18899
1968.96650,0.18926
1970.89497,0.18885
1972.82344,0.18873
1974.75191,0.19216
1976.68038,0.20089
1978.60884,0.20713
1980.53731,0.20254
1982.46578,0.19284
1984.39425,0.18830
1986.32272,0.19041
1988.25119,0.19335
1990.17966,0.19269
1992.10812,0.19022
1994.03659,0.18833
1995.96506,0.18572
1997.89353,0.18289
1999.82200,0.18348
2001.75047,0.18671
2003.67894,0.18842
2005.60741,0.18772
2007.53587,0.18678
2009.46434,0.18725
2011.39281,0.18742
2013.32128,0.18577
2015.24975,0.18398
2017.17822,0.18422
2019.10669,0.18662
2021.03515,0.19009
2022.96362,0.19267
2024.89209,0.19299
2026.82056,0.19209
2028.74903,0.19000
2030.67750,0.18693
2032.60597,0.18542
2034.53444,0.18645
2036.46290,0.18813
2038.39137,0.18918
2040.31984,0.18927
2042.24831,0.18824
2044.17678,0.18860
2046.10525,0.19073
2048.03372,0.19090
2049.96218,0.18864
2051.89065,0.18783
2053.81912,0.18952
2055.74759,0.18965
2057.67606,0.18738
2059.60453,0.18694
2061.53300,0.18955
2063.46147,0.19223
2065.38993,0.19327
2067.31840,0.19277
2069.24687,0.19004
2071.17534,0.18665
2073.10381,0.18539
2075.03228,0.18524
2076.96075,0.18615
2078.88921,0.18873
2080.81768,0.18942
2082.74615,0.18648
2084.67462,0.18385
2086.60309,0.18509
2088.53156,0.18849
2090.46003,0.19081
2092.38850,0.19205
2094.31696,0.19315
2096.24543,0.19283
2098.17390,0.18987
2100.10237,0.18658
2102.03084,0.18477
2103.95931,0.18405
2105.88778,0.18655
2107.81624,0.19145
2109.74471,0.19258
2111.67318,0.18918
2113.60165,0.18681
2115.53012,0.18805
2117.45859,0.18959
2119.38706,0.18877
2121.31553,0.18748
2123.24399,0.18855
2125.17246,0.19071
2127.10093,0.19006
2129.02940,0.18920
2130.95787,0.19167
2132.88634,0.19233
2134.81481,0.18953
2136.74327,0.18710
2138.67174,0.18620
2140.60021,0.18788
2142.52868,0.18967
2144.45715,0.18886
2146.38562,0.18867
2148.31409,0.18990
2150.24255,0.19062
2152.17102,0.19183
2154.09949,0.19393
2156.02796,0.19433
2157.95643,0.19298
2159.88490,0.19368
2161.81337,0.19603
2163.74184,0.19476
2165.67030,0.19000
2167.59877,0.18805
2169.52724,0.18968
2171.45571,0.18948
2173.38418,0.18647
2175.31265,0.18427
2177.24112,0.18438
2179.16958,0.18574
2181.09805,0.18783
2183.02652,0.18953
2184.95499,0.18928
2186.88346,0.18859
2188.81193,0.18950
2190.74040,0.19045
2192.66887,0.19006
2194.59733,0.18900
2196.52580,0.18734
2198.45427,0.18705
2200.38274,0.18907
2202.31121,0.19081
2204.23968,0.19281
2206.16815,0.19431
2208.09661,0.19195
2210.02508,0.18909
2211.95355,0.19008
2213.88202,0.19380
2215.81049,0.19779
2217.73896,0.19948
2219.66743,0.19751
2221.59590,0.19445
2223.52436,0.19322
2225.45283,0.19304
2227.38130,0.19205
2229.30977,0.18962
2231.23824,0.18844
2233.16671,0.19148
2235.09518,0.19440
2237.02364,0.19274
2238.95211,0.18852
2240.88058,0.18509
2242.80905,0.18656
2244.73752,0.19252
2246.66599,0.19581
2248.59446,0.19555
2250.52293,0.19662
2252.45139,0.19822
2254.37986,0.19680
2256.30833,0.19247
2258.23680,0.18818
2260.16527,0.18660
2262.09374,0.18649
2264.02221,0.18443
2265.95067,0.18193
2267.87914,0.18245
2269.80761,0.18461
2271.73608,0.18580
2273.66455,0.18643
2275.59302,0.18744
2277.52149,0.18935
2279.44996,0.19026
2281.37842,0.18791
2283.30689,0.18654
2285.23536,0.18802
2287.16383,0.18803
2289.09230,0.18750
2291.02077,0.19025
2292.94924,0.19484
2294.87770,0.19738
2296.80617,0.19593
2298.73464,0.19135
2300.66311,0.18714
2302.59158,0.18533
2304.52005,0.18537
2306.44852,0.18606
2308.37699,0.18518
2310.30545,0.18260
2312.23392,0.18036
2314.16239,0.17901
2316.09086,0.17937
2318.01933,0.18512
2319.94780,0.19129
2321.87627,0.18868
2323.80473,0.18361
2325.73320,0.17865
2327.66167,0.17161
2329.59014,0.16915
2331.51861,0.16744
2333.44708,0.15953
2335.37555,0.15212
2337.30401,0.15553
2339.23248,0.16923
2341.16095,0.17796
2343.08942,0.17793
2345.01789,0.18045
2346.94636,0.17986
2348.87483,0.17506
2350.80330,0.17861
2352.73176,0.19274
2354.66023,0.19759
2356.58870,0.18583
2358.51717,0.17177
2360.44564,0.16000
2362.37411,0.15938
2364.30258,0.17240
2366.23104,0.18441
2368.15951,0.18517
2370.08798,0.18317
2372.01645,0.18783
2373.94492,0.19204
2375.87339,0.18782
2377.80186,0.18286
2379.73033,0.18399
2381.65879,0.18659
2383.58726,0.18726
2385.51573,0.18723
2387.44420,0.18747
2389.37267,0.18729
2391.30114,0.18602
2393.22961,0.18383
2395.15807,0.18158
2397.08654,0.18282
2399.01501,0.18917
2400.94348,0.19562
2402.87195,0.19740
2404.80042,0.19453
2406.72889,0.19006
2408.65736,0.18740
2410.58582,0.18686
2412.51429,0.18778
2414.44276,0.19014
2416.37123,0.19153
2418.29970,0.19055
2420.22817,0.18968
2422.15664,0.19074
2424.08510,0.19232
2426.01357,0.19167
2427.94204,0.18916
2429.87051,0.18850
2431.79898,0.18908
2433.72745,0.18913
2435.65592,0.19087
2437.58439,0.19302
2439.51285,0.19326
2441.44132,0.19219
2443.36979,0.19115
2445.29826,0.19135
2447.22673,0.19266
2449.15520,0.19274
2451.08367,0.18671
2453.01213,0.17700
2454.94060,0.17517
2456.86907,0.18301
2458.79754,0.18944
2460.72601,0.19096
2462.65448,0.19188
2464.58295,0.19103
2466.51142,0.18857
2468.43988,0.18740
2470.36835,0.18755
2472.29682,0.18861
2474.22529,0.18859
2476.15376,0.18601
2478.08223,0.18338
2480.01070,0.18408
2481.93916,0.18682
2483.86763,0.18815
2485.79610,0.18969
2487.72457,0.19276
2489.65304,0.19387
2491.58151,0.19073
2493.50998,0.18656
2495.43844,0.18675
2497.36691,0.18949
2499.29538,0.18965
2501.22385,0.18891
2503.15232,0.18986
2505.08079,0.19170
2507.00926,0.19351
2508.93773,0.19458
2510.86619,0.19403
2512.79466,0.19256
2514.72313,0.19220
2516.65160,0.19249
2518.58007,0.19208
2520.50854,0.19095
2522.43701,0.18994
2524.36547,0.19047
2526.29394,0.19075
2528.22241,0.18784
2530.15088,0.18554
2532.07935,0.18791
2534.00782,0.19024
2535.93629,0.18883
2537.86476,0.18692
2539.79322,0.18676
2541.72169,0.18841
2543.65016,0.19158
2545.57863,0.19421
2547.50710,0.19574
2549.43557,0.19763
2551.36404,0.19834
2553.29250,0.19563
2555.22097,0.19151
2557.14944,0.18991
2559.07791,0.19184
2561.00638,0.19465
2562.93485,0.19553
2564.86332,0.19380
2566.79179,0.19014
2568.72025,0.18567
2570.64872,0.18367
2572.57719,0.18720
2574.50566,0.19283
2576.43413,0.19489
2578.36260,0.19372
2580.29107,0.19397
2582.21953,0.19603
2584.14800,0.19574
2586.07647,0.19298
2588.00494,0.19104
2589.93341,0.19072
2591.86188,0.19083
2593.79035,0.19077
2595.71882,0.19191
2597.64728,0.19525
2599.57575,0.19728
2601.50422,0.19472
2603.43269,0.19047
2605.36116,0.18832
2607.28963,0.18801
2609.21810,0.18695
2611.14656,0.18589
2613.07503,0.18910
2615.00350,0.19445
2616.93197,0.19623
2618.86044,0.19369
2620.78891,0.19033
2622.71738,0.19066
2624.64585,0.19382
2626.57431,0.19530
2628.50278,0.19440
2630.43125,0.19459
2632.35972,0.19638
2634.28819,0.19600
2636.21666,0.19374
2638.14513,0.19116
2640.07359,0.18792
2642.00206,0.18547
2643.93053,0.18584
2645.85900,0.18858
2647.78747,0.19027
2649.71594,0.19197
2651.64441,0.19714
2653.57288,0.20210
2655.50134,0.20221
2657.42981,0.19867
2659.35828,0.19498
2661.28675,0.19418
2663.21522,0.19674
2665.14369,0.19884
2667.07216,0.19831
2669.00062,0.19865
2670.92909,0.20207
2672.85756,0.20577
2674.78603,0.20546
2676.71450,0.20106
2678.64297,0.19713
2680.57144,0.19523
2682.49990,0.19496
2684.42837,0.19701
2686.35684,0.19891
2688.28531,0.19899
2690.21378,0.19898
2692.14225,0.19954
2694.07072,0.20048
2695.99919,0.19994
2697.92765,0.19734
2699.85612,0.19676
2701.78459,0.19919
2703.71306,0.20099
2705.64153,0.19962
2707.57000,0.19603
2709.49847,0.19378
2711.42693,0.19366
2713.35540,0.19480
2715.28387,0.19774
2717.21234,0.20095
2719.14081,0.20342
2721.06928,0.20561
2722.99775,0.20456
2724.92622,0.20082
2726.85468,0.19933
2728.78315,0.19942
2730.71162,0.20005
2732.64009,0.20255
2734.56856,0.20427
2736.49703,0.20437
2738.42550,0.20379
2740.35396,0.20022
2742.28243,0.19579
2744.21090,0.19524
2746.13937,0.19803
2748.06784,0.20127
2749.99631,0.20211
2751.92478,0.20058
2753.85325,0.19942
2755.78171,0.19831
2757.71018,0.19683
2759.63865,0.19838
2761.56712,0.20351
2763.49559,0.20684
2765.42406,0.20619
2767.35253,0.20699
2769.28099,0.21029
2771.20946,0.20964
2773.13793,0.20588
2775.06640,0.20434
2776.99487,0.20335
2778.92334,0.20128
2780.85181,0.20004
2782.78028,0.20012
2784.70874,0.20276
2786.63721,0.20939
2788.56568,0.21509
2790.49415,0.21381
2792.42262,0.20865
2794.35109,0.20547
2796.27956,0.20276
2798.20802,0.19964
2800.13649,0.20050
2802.06496,0.20475
2803.99343,0.20691
2805.92190,0.20646
2807.85037,0.20606
2809.77884,0.20418
2811.70731,0.20052
2813.63577,0.19813
2815.56424,0.19711
2817.49271,0.19766
2819.42118,0.20047
2821.34965,0.20236
2823.27812,0.20184
2825.20659,0.20199
2827.13505,0.20305
2829.06352,0.20360
2830.99199,0.20466
2832.92046,0.20652
2834.84893,0.20801
2836.77740,0.20661
2838.70587,0.20303
2840.63433,0.20310
2842.56280,0.20629
2844.49127,0.20522
2846.41974,0.20103
2848.34821,0.19958
2850.27668,0.19980
2852.20515,0.20117
2854.13362,0.20420
2856.06208,0.20656
2857.99055,0.20781
2859.91902,0.20828
2861.84749,0.20796
2863.77596,0.20726
2865.70443,0.20655
2867.63290,0.20687
2869.56136,0.20746
2871.48983,0.20568
2873.41830,0.20366
2875.34677,0.20451
2877.27524,0.20418
2879.20371,0.20040
2881.13218,0.19755
2883.06065,0.19748
2884.98911,0.19876
2886.91758,0.20115
2888.84605,0.20417
2890.77452,0.20678
2892.70299,0.20466
2894.63146,0.19600
2896.55993,0.19098
2898.48839,0.19389
2900.41686,0.19716
2902.34533,0.19627
2904.27380,0.18950
2906.20227,0.18307
2908.13074,0.18777
2910.05921,0.19896
2911.98768,0.20303
2913.91614,0.19192
2915.84461,0.17325
2917.77308,0.17145
2919.70155,0.18818
2921.63002,0.19956
2923.55849,0.19346
2925.48696,0.17032
2927.41542,0.15390
2929.34389,0.17061
2931.27236,0.19946
2933.20083,0.20643
2935.12930,0.18949
2937.05777,0.17098
2938.98624,0.17473
2940.91471,0.19171
2942.84317,0.19948
2944.77164,0.19432
2946.70011,0.17876
2948.62858,0.17062
2950.55705,0.18085
2952.48552,0.19183
2954.41399,0.19063
2956.34245,0.17379
2958.27092,0.16066
2960.19939,0.17597
2962.12786,0.20106
2964.05633,0.20973
2965.98480,0.20021
2967.91327,0.18448
2969.84174,0.18114
2971.77020,0.18946
2973.69867,0.19677
2975.62714,0.19515
2977.55561,0.18150
2979.48408,0.17569
2981.41255,0.18960
2983.34102,0.20371
2985.26948,0.20343
2987.19795,0.19126
2989.12642,0.18451
2991.05489,0.19359
2992.98336,0.20422
2994.91183,0.20508
2996.84030,0.19945
2998.76877,0.19707
3000.69723,0.20201
3002.62570,0.20710
3004.55417,0.20741
3006.48264,0.20131
3008.41111,0.18779
3010.33958,0.16415
3012.26805,0.12579
3014.19651,0.08151
3016.12498,0.05891
3018.05345,0.08566
3019.98192,0.14841
3021.91039,0.19934
3023.83886,0.21837
3025.76733,0.21430
3027.69579,0.20025
3029.62426,0.19583
3031.55273,0.20567
3033.48120,0.21455
3035.40967,0.21316
3037.33814,0.20506
3039.26661,0.20111
3041.19508,0.20160
3043.12354,0.19965
3045.05201,0.19590
3046.98048,0.19196
3048.90895,0.19437
3050.83742,0.20301
3052.76589,0.20628
3054.69436,0.19684
3056.62282,0.17960
3058.55129,0.17835
3060.47976,0.19850
3062.40823,0.21197
3064.33670,0.20077
3066.26517,0.17905
3068.19364,0.17788
3070.12211,0.19736
3072.05057,0.20799
3073.97904,0.19775
3075.90751,0.18103
3077.83598,0.18177
3079.76445,0.19818
3081.69292,0.20503
3083.62139,0.19250
3085.54985,0.18111
3087.47832,0.19155
3089.40679,0.20485
3091.33526,0.20053
3093.26373,0.18578
3095.19220,0.17899
3097.12067,0.19096
3099.04914,0.20481
3100.97760,0.20509
3102.90607,0.19414
3104.83454,0.18871
3106.76301,0.20014
3108.69148,0.20983
3110.61995,0.20070
3112.54842,0.18537
3114.47688,0.18684
3116.40535,0.19961
3118.33382,0.20233
3120.26229,0.19208
3122.19076,0.18384
3124.11923,0.19349
3126.04770,0.20997
3127.97617,0.21260
3129.90463,0.20284
3131.83310,0.19585
3133.76157,0.19897
3135.69004,0.20464
3137.61851,0.20204
3139.54698,0.19531
3141.47545,0.19803
3143.40391,0.20564
3145.33238,0.20684
3147.26085,0.20264
3149.18932,0.20053
3151.11779,0.20420
3153.04626,0.20848
3154.97473,0.20983
3156.90320,0.21098
3158.83166,0.21474
3160.76013,0.21583
3162.68860,0.21102
3164.61707,0.20836
3166.54554,0.21047
3168.47401,0.21228
3170.40248,0.21115
3172.33094,0.20882
3174.25941,0.21028
3176.18788,0.21682
3178.11635,0.22047
3180.04482,0.21667
3181.97329,0.21298
3183.90176,0.21595
3185.83022,0.21936
3187.75869,0.21256
3189.68716,0.20182
3191.61563,0.20274
3193.54410,0.21286
3195.47257,0.21555
3197.40104,0.20962
3199.32951,0.20956
3201.25797,0.21617
3203.18644,0.21780
3205.11491,0.21337
3207.04338,0.21156
3208.97185,0.21551
3210.90032,0.21905
3212.82879,0.21784
3214.75725,0.21568
3216.68572,0.21299
3218.61419,0.20774
3220.54266,0.20442
3222.47113,0.20642
3224.39960,0.21451
3226.32807,0.22374
3228.25654,0.22295
3230.18500,0.21274
3232.11347,0.20588
3234.04194,0.20801
3235.97041,0.21274
3237.89888,0.21445
3239.82735,0.21378
3241.75582,0.21041
3243.68428,0.20599
3245.61275,0.20735
3247.54122,0.21379
3249.46969,0.21592
3251.39816,0.21349
3253.32663,0.21347
3255.25510,0.21470
3257.18357,0.21448
3259.11203,0.21434
3261.04050,0.21412
3262.96897,0.21387
3264.89744,0.21233
3266.82591,0.20844
3268.75438,0.20781
3270.68285,0.21160
3272.61131,0.21197
3274.53978,0.20807
3276.46825,0.20702
3278.39672,0.21336
3280.32519,0.22319
3282.25366,0.22567
3284.18213,0.21919
3286.11060,0.21361
3288.03906,0.21329
3289.96753,0.21477
3291.89600,0.21469
3293.82447,0.21218
3295.75294,0.21005
3297.68141,0.20979
3299.60988,0.20639
3301.53834,0.20212
3303.46681,0.20499
3305.39528,0.20950
3307.32375,0.20932
3309.25222,0.21166
3311.18069,0.21680
3313.10916,0.21433
3315.03763,0.20846
3316.96609,0.20940
3318.89456,0.21168
3320.82303,0.21012
3322.75150,0.20968
3324.67997,0.21115
3326.60844,0.21224
3328.53691,0.21363
3330.46537,0.21481
3332.39384,0.21587
3334.32231,0.21654
3336.25078,0.21351
3338.17925,0.20734
3340.10772,0.20246
3342.03619,0.20222
3343.96466,0.20620
3345.89312,0.21098
3347.82159,0.21399
3349.75006,0.21414
3351.67853,0.21363
3353.60700,0.21378
3355.53547,0.21287
3357.46394,0.21139
3359.39240,0.21099
3361.32087,0.21194
3363.24934,0.21138
3365.17781,0.20976
3367.10628,0.21050
3369.03475,0.21121
3370.96322,0.21205
3372.89168,0.21581
3374.82015,0.22004
3376.74862,0.22195
3378.67709,0.22132
3380.60556,0.22154
3382.53403,0.22580
3384.46250,0.22775
3386.39097,0.22138
3388.31943,0.21154
3390.24790,0.20440
3392.17637,0.20336
3394.10484,0.20727
3396.03331,0.21226
3397.96178,0.21767
3399.89025,0.21956
3401.81871,0.21233
3403.74718,0.20158
3405.67565,0.19817
3407.60412,0.20257
3409.53259,0.20622
3411.46106,0.20573
3413.38953,0.20844
3415.31800,0.21607
3417.24646,0.22080
3419.17493,0.22077
3421.10340,0.21887
3423.03187,0.21588
3424.96034,0.21105
3426.88881,0.20467
3428.81728,0.19990
3430.74574,0.19936
3432.67421,0.20294
3434.60268,0.20710
3436.53115,0.20717
3438.45962,0.20380
3440.38809,0.20128
3442.31656,0.20217
3444.24503,0.20400
3446.17349,0.20084
3448.10196,0.19582
3450.03043,0.19654
3451.95890,0.19924
3453.88737,0.19899
3455.81584,0.19786
3457.74431,0.19912
3459.67277,0.20163
3461.60124,0.19962
3463.52971,0.19347
3465.45818,0.19147
3467.38665,0.19471
3469.31512,0.19703
3471.24359,0.19571
3473.17206,0.19309
3475.10052,0.19017
3477.02899,0.18669
3478.95746,0.18758
3480.88593,0.19294
3482.81440,0.19289
3484.74287,0.18675
3486.67134,0.18278
3488.59980,0.18235
3490.52827,0.18502
3492.45674,0.19054
3494.38521,0.19277
3496.31368,0.18960
3498.24215,0.18558
3500.17062,0.18275
3502.09909,0.18188
3504.02755,0.18123
3505.95602,0.17895
3507.88449,0.17971
3509.81296,0.18355
3511.74143,0.18153
3513.66990,0.17489
3515.59837,0.17390
3517.52683,0.17868
3519.45530,0.18278
3521.38377,0.18285
3523.31224,0.17599
3525.24071,0.16846
3527.16918,0.17019
3529.09765,0.17222
3531.02611,0.16477
3532.95458,0.15857
3534.88305,0.16395
3536.81152,0.17310
3538.73999,0.17309
3540.66846,0.16802
3542.59693,0.16576
3544.52540,0.16577
3546.45386,0.16693
3548.38233,0.16921
3550.31080,0.17312
3552.23927,0.17485
3554.16774,0.17077
3556.09621,0.16798
3558.02468,0.17093
3559.95314,0.17537
3561.88161,0.17827
3563.81008,0.18110
3565.73855,0.18289
3567.66702,0.18093
3569.59549,0.17580
3571.52396,0.16788
3573.45243,0.16111
3575.38089,0.15996
3577.30936,0.16078
3579.23783,0.15857
3581.16630,0.15362
3583.09477,0.15126
3585.02324,0.15473
3586.95171,0.15823
3588.88017,0.15597
3590.80864,0.15329
3592.73711,0.15221
3594.66558,0.15277
3596.59405,0.15748
3598.52252,0.16096
3600.45099,0.15794
3602.37946,0.15363
3604.30792,0.15172
3606.23639,0.15574
3608.16486,0.16533
3610.09333,0.16758
3612.02180,0.16114
3613.95027,0.15349
3615.87874,0.15109
3617.80720,0.15349
3619.73567,0.15215
3621.66414,0.14761
3623.59261,0.14676
3625.52108,0.15122
3627.44955,0.16133
3629.37802,0.16816
3631.30649,0.16035
3633.23495,0.15020
3635.16342,0.14535
3637.09189,0.14492
3639.02036,0.14381
3640.94883,0.14033
3642.87730,0.13892
3644.80577,0.14346
3646.73423,0.15344
3648.66270,0.16167
3650.59117,0.15553
3652.51964,0.14687
3654.44811,0.14583
3656.37658,0.14552
3658.30505,0.13847
3660.23352,0.13281
3662.16198,0.13090
3664.09045,0.12936
3666.01892,0.13207
3667.94739,0.13943
3669.87586,0.14350
3671.80433,0.14529
3673.73280,0.15072
3675.66126,0.14964
3677.58973,0.13960
3679.51820,0.13461
3681.44667,0.13404
3683.37514,0.13344
3685.30361,0.13267
3687.23208,0.13724
3689.16055,0.14402
3691.08901,0.13947
3693.01748,0.13276
3694.94595,0.13005
3696.87442,0.12878
3698.80289,0.13053
3700.73136,0.13389
3702.65983,0.13277
3704.58829,0.13029
3706.51676,0.13040
3708.44523,0.12987
3710.37370,0.13018
3712.30217,0.13523
3714.23064,0.13656
3716.15911,0.13265
3718.08757,0.12934
3720.01604,0.12953
3721.94451,0.13266
3723.87298,0.13700
3725.80145,0.13574
3727.72992,0.12794
3729.65839,0.12677
3731.58686,0.13618
3733.51532,0.14493
3735.44379,0.14697
3737.37226,0.14514
3739.30073,0.14132
3741.22920,0.14235
3743.15767,0.15144
3745.08614,0.16248
3747.01460,0.16668
3748.94307,0.17022
3750.87154,0.16623
3752.80001,0.14867
3754.72848,0.13759
3756.65695,0.13513
3758.58542,0.13521
3760.51389,0.13311
3762.44235,0.13127
3764.37082,0.13332
3766.29929,0.13635
3768.22776,0.13539
3770.15623,0.12983
3772.08470,0.12405
3774.01317,0.12025
3775.94163,0.11927
3777.87010,0.12340
3779.79857,0.12625
3781.72704,0.12360
3783.65551,0.12347
3785.58398,0.12588
3787.51245,0.12446
3789.44092,0.11986
3791.36938,0.11998
3793.29785,0.12688
3795.22632,0.13166
3797.15479,0.13114
3799.08326,0.13212
3801.01173,0.13469
3802.94020,0.13518
3804.86866,0.13640
3806.79713,0.13671
3808.72560,0.13181
3810.65407,0.12675
3812.58254,0.12592
3814.51101,0.12982
3816.43948,0.13381
3818.36795,0.13478
3820.29641,0.13833
3822.22488,0.14112
3824.15335,0.14063
3826.08182,0.13877
3828.01029,0.13205
3829.93876,0.12397
3831.86723,0.12125
3833.79569,0.12482
3835.72416,0.13314
3837.65263,0.14572
3839.58110,0.15036
3841.50957,0.14269
3843.43804,0.13661
3845.36651,0.13436
3847.29498,0.13318
3849.22344,0.13688
3851.15191,0.14804
3853.08038,0.15275
3855.00885,0.13098
3856.93732,0.11493
3858.86579,0.11401
3860.79426,0.12261
3862.72272,0.12987
3864.65119,0.12603
3866.57966,0.12349
3868.50813,0.13388
3870.43660,0.14520
3872.36507,0.14104
3874.29354,0.13218
3876.22200,0.12685
3878.15047,0.12580
3880.07894,0.12643
3882.00741,0.11954
3883.93588,0.11255
3885.86435,0.11511
3887.79282,0.11877
3889.72129,0.12213
3891.64975,0.12832
3893.57822,0.12916
3895.50669,0.12447
3897.43516,0.12216
3899.36363,0.12557
3901.29210,0.12705
3903.22057,0.12174
3905.14903,0.11785
3907.07750,0.11734
3909.00597,0.11704
3910.93444,0.11629
3912.86291,0.11754
3914.79138,0.12326
3916.71985,0.12872
3918.64832,0.12548
3920.57678,0.11729
3922.50525,0.11226
3924.43372,0.11021
3926.36219,0.10983
3928.29066,0.11020
3930.21913,0.10938
3932.14760,0.10816
3934.07606,0.10841
3936.00453,0.10991
3937.93300,0.11289
3939.86147,0.11861
3941.78994,0.12422
3943.71841,0.12396
3945.64688,0.11938
3947.57535,0.11466
3949.50381,0.11150
3951.43228,0.11033
3953.36075,0.10870
3955.28922,0.10735
3957.21769,0.10769
3959.14616,0.10633
3961.07463,0.10421
3963.00309,0.10774
3964.93156,0.11551
3966.86003,0.11856
3968.78850,0.11412
3970.71697,0.10822
3972.64544,0.10693
3974.57391,0.10826
3976.50238,0.10754
3978.43084,0.10710
3980.35931,0.10855
3982.28778,0.10920
3984.21625,0.10773
3986.14472,0.10310
3988.07319,0.10059
3990.00166,0.10500
3991.93012,0.10498
3993.85859,0.09563
3995.78706,0.09322
3997.71553,0.10296
3999.64400,0.10938
4001.57247,0.10665
4003.50094,0.10423
4005.42941,0.10392
4007.35787,0.10092
4009.28634,0.09608
4011.21481,0.09217
4013.14328,0.09106
4015.07175,0.09265
4017.00022,0.09628
4018.92869,0.10103
4020.85715,0.10392
4022.78562,0.10619
4024.71409,0.10999
4026.64256,0.11152
4028.57103,0.10943
4030.49950,0.10809
4032.42797,0.10737
4034.35644,0.10249
4036.28490,0.09688
4038.21337,0.09805
4040.14184,0.10058
4042.07031,0.09564
4043.99878,0.08894
4045.92725,0.08943
4047.85572,0.09512
4049.78418,0.09861
4051.71265,0.09700
4053.64112,0.09643
4055.56959,0.10038
4057.49806,0.10227
4059.42653,0.09985
4061.35500,0.09859
4063.28346,0.10064
4065.21193,0.10311
4067.14040,0.10255
4069.06887,0.09878
4070.99734,0.09673
4072.92581,0.09634
4074.85428,0.09377
4076.78275,0.09217
4078.71121,0.09325
4080.63968,0.09392
4082.56815,0.09193
4084.49662,0.08978
4086.42509,0.09233
4088.35356,0.09749
4090.28203,0.10130
4092.21049,0.10130
4094.13896,0.10054
4096.06743,0.10339
4097.99590,0.10322
4099.92437,0.09997
4101.85284,0.10244
4103.78131,0.10676
4105.70978,0.10130
4107.63824,0.08768
4109.56671,0.07975
4111.49518,0.08214
4113.42365,0.08958
4115.35212,0.09620
4117.28059,0.09659
4119.20906,0.09265
4121.13752,0.09113
4123.06599,0.09240
4124.99446,0.09209
4126.92293,0.09066
4128.85140,0.09082
4130.77987,0.08968
4132.70834,0.08585
4134.63681,0.08526
4136.56527,0.08798
4138.49374,0.08735
4140.42221,0.08627
4142.35068,0.08863
4144.27915,0.08894
4146.20762,0.08594
4148.13609,0.08271
4150.06455,0.08129
4151.99302,0.08405
4153.92149,0.08912
4155.84996,0.09238
4157.77843,0.09201
4159.70690,0.08942
4161.63537,0.08636
4163.56384,0.08229
4165.49230,0.07863
4167.42077,0.07758
4169.34924,0.07742
4171.27771,0.07595
4173.20618,0.07590
4175.13465,0.07718
4177.06312,0.07323
4178.99158,0.06583
4180.92005,0.06526
4182.84852,0.07246
4184.77699,0.07845
4186.70546,0.07883
4188.63393,0.07854
4190.56240,0.08278
4192.49087,0.08802
4194.41933,0.08926
4196.34780,0.08690
4198.27627,0.08056
4200.20474,0.07339
4202.13321,0.07193
4204.06168,0.07461
4205.99015,0.07524
4207.91861,0.07190
4209.84708,0.07137
4211.77555,0.07964
4213.70402,0.08735
4215.63249,0.08336
4217.56096,0.07373
4219.48943,0.06911
4221.41789,0.06786
4223.34636,0.06591
4225.27483,0.06750
4227.20330,0.07347
4229.13177,0.07364
4231.06024,0.06590
4232.98871,0.06230
4234.91718,0.06408
4236.84564,0.06325
4238.77411,0.06174
4240.70258,0.06344
4242.63105,0.06772
4244.55952,0.07369
4246.48799,0.07892
4248.41646,0.07716
4250.34492,0.06603
4252.27339,0.05545
4254.20186,0.05615
4256.13033,0.06609
4258.05880,0.07471
4259.98727,0.07558
4261.91574,0.07145
4263.84421,0.06403
4265.77267,0.05555
4267.70114,0.05787
4269.62961,0.06750
4271.55808,0.06667
4273.48655,0.05939
4275.41502,0.05599
4277.34349,0.05458
4279.27195,0.05461
4281.20042,0.05592
4283.12889,0.05681
4285.05736,0.05728
4286.98583,0.05741
4288.91430,0.05869
4290.84277,0.06168
4292.77124,0.06405
4294.69970,0.06676
4296.62817,0.06776
4298.55664,0.06080
4300.48511,0.05209
4302.41358,0.05239
4304.34205,0.05994
4306.27052,0.06653
4308.19898,0.06775
4310.12745,0.06353
4312.05592,0.05919
4313.98439,0.05975
4315.91286,0.05848
4317.84133,0.05052
4319.76980,0.04495
4321.69827,0.04569
4323.62673,0.04653
4325.55520,0.04688
4327.48367,0.05045
4329.41214,0.05451
4331.34061,0.05417
4333.26908,0.05191
4335.19755,0.05107
4337.12601,0.04807
4339.05448,0.04040
4340.98295,0.03413
4342.91142,0.03944
4344.83989,0.05143
4346.76836,0.05403
4348.69683,0.05160
4350.62530,0.05619
4352.55376,0.05992
4354.48223,0.05562
4356.41070,0.05079
4358.33917,0.04911
4360.26764,0.04942
4362.19611,0.04907
4364.12458,0.04465
4366.05304,0.04362
4367.98151,0.05051
4369.90998,0.05378
4371.83845,0.04781
4373.76692,0.04148
4375.69539,0.03849
4377.62386,0.03580
4379.55232,0.03636
4381.48079,0.04308
4383.40926,0.05221
4385.33773,0.05596
4387.26620,0.05150
4389.19467,0.04594
4391.12314,0.04352
4393.05161,0.04299
4394.98007,0.04343
4396.90854,0.04313
4398.83701,0.04348
4400.76548,0.04617
4402.69395,0.05021
4404.62242,0.05225
4406.55089,0.04822
4408.47935,0.04071
4410.40782,0.03438
4412.33629,0.03129
4414.26476,0.03165
4416.19323,0.03383
4418.12170,0.03668
4420.05017,0.03802
4421.97864,0.03369
4423.90710,0.02625
4425.83557,0.02496
4427.76404,0.02936
4429.69251,0.03478
4431.62098,0.03891
4433.54945,0.03865
4435.47792,0.03642
4437.40638,0.03367
4439.33485,0.03123
4441.26332,0.03252
4443.19179,0.03724
4445.12026,0.03768
4447.04873,0.03133
4448.97720,0.02797
4450.90567,0.02664
4452.83413,0.02033
4454.76260,0.01449
4456.69107,0.01592
4458.61954,0.02362
4460.54801,0.03237
4462.47648,0.03615
4464.40495,0.03159
4466.33341,0.02320
4468.26188,0.01898
4470.19035,0.02243
4472.11882,0.02861
4474.04729,0.03150
4475.97576,0.03171
4477.90423,0.03127
4479.83270,0.03416
4481.76116,0.03973
4483.68963,0.04029
4485.61810,0.03690
4487.54657,0.03351
4489.47504,0.02682
4491.40351,0.01896
4493.33198,0.01834
4495.26044,0.02452
4497.18891,0.02738
4499.11738,0.02522
4501.04585,0.02557
4502.97432,0.02582
4504.90279,0.02196
4506.83126,0.01926
4508.75973,0.01796
4510.68819,0.01338
4512.61666,0.01016
4514.54513,0.01499
4516.47360,0.02176
4518.40207,0.02331
4520.33054,0.02321
4522.25901,0.02352
4524.18747,0.02107
4526.11594,0.01655
4528.04441,0.01239
4529.97288,0.00968
4531.90135,0.00670
4533.82982,0.00484
4535.75829,0.01148
4537.68676,0.02344
4539.61522,0.02914
4541.54369,0.02549
4543.47216,0.01591
4545.40063,0.00608
4547.32910,0.00272
4549.25757,0.00671
4551.18604,0.01262
4553.11450,0.01343
4555.04297,0.00925
4556.97144,0.00922
4558.89991,0.01294
4560.82838,0.01486
4562.75685,0.01879
4564.68532,0.02352
4566.61378,0.02572
4568.54225,0.02738
4570.47072,0.02617
4572.39919,0.02449
4574.32766,0.02473
4576.25613,0.02186
4578.18460,0.01746
4580.11307,0.01711
4582.04153,0.02046
4583.97000,0.01745
4585.89847,0.00609
4587.82694,0.00378
4589.75541,0.01560
4591.68388,0.02509
4593.61235,0.02389
4595.54081,0.02114
4597.46928,0.02099
4599.39775,0.01891
4601.32622,0.01594
4603.25469,0.01225
4605.18316,0.01273
4607.11163,0.02084
4609.04010,0.02245
4610.96856,0.01875
4612.89703,0.02138
4614.82550,0.02109
4616.75397,0.01495
4618.68244,0.01300
4620.61091,0.01747
4622.53938,0.02381
4624.46784,0.02319
4626.39631,0.01451
4628.32478,0.00700
4630.25325,0.00466
4632.18172,0.00956
4634.11019,0.01692
4636.03866,0.01513
4637.96713,0.00651
4639.89559,-0.00092
4641.82406,-0.00135
4643.75253,0.00669
4645.68100,0.01204
4647.60947,0.00770
4649.53794,0.00178
4651.46641,0.00472
4653.39487,0.01697
4655.32334,0.02684
4657.25181,0.02381
4659.18028,0.01430
4661.10875,0.01160
4663.03722,0.01327
4664.96569,0.00700
4666.89416,-0.00403
4668.82262,-0.00504
4670.75109,0.00207
4672.67956,0.00869
4674.60803,0.01870
4676.53650,0.02513
4678.46497,0.01828
4680.39344,0.01225
4682.32190,0.01230
4684.25037,0.00700
4686.17884,0.00290
4688.10731,0.00923
4690.03578,0.01671
4691.96425,0.01757
4693.89272,0.01292
4695.82119,0.00450
4697.74965,-0.00401
4699.67812,-0.00693
4701.60659,0.00006
4703.53506,0.01486
4705.46353,0.02947
4707.39200,0.03622
4709.32047,0.03058
4711.24893,0.01681
4713.17740,0.00458
4715.10587,0.00223
4717.03434,0.00990
4718.96281,0.01515
4720.89128,0.01257
4722.81975,0.00503
4724.74821,-0.00464
4726.67668,-0.01049
4728.60515,-0.00819
4730.53362,0.00290
4732.46209,0.01277
4734.39056,0.00880
4736.31903,0.00176
4738.24750,0.00643
4740.17596,0.01447
4742.10443,0.01351
4744.03290,0.00146
4745.96137,-0.01054
4747.88984,-0.00658
4749.81831,0.00853
4751.74678,0.01804
4753.67524,0.01179
4755.60371,-0.00515
4757.53218,-0.01460
4759.46065,-0.01534
4761.38912,-0.01590
4763.31759,-0.01032
4765.24606,0.00637
4767.17453,0.02166
4769.10299,0.01875
4771.03146,0.00282
4772.95993,-0.00435
4774.88840,-0.00143
4776.81687,-0.00504
4778.74534,-0.01072
4780.67381,-0.00069
4782.60227,0.01586
4784.53074,0.01600
4786.45921,0.00324
4788.38768,-0.00238
4790.31615,0.00143
4792.24462,0.00447
4794.17309,0.00316
4796.10156,-0.00029
4798.03002,0.00189
4799.95849,0.01463
4801.88696,0.02123
4803.81543,0.00906
4805.74390,-0.00380
4807.67237,-0.00606
4809.60084,-0.00642
4811.52930,-0.00906
4813.45777,-0.01305
4815.38624,-0.01084
4817.31471,0.00261
4819.24318,0.01617
4821.17165,0.01847
4823.10012,0.01313
4825.02859,0.01230
4826.95705,0.01842
4828.88552,0.02258
4830.81399,0.02420
4832.74246,0.02393
4834.67093,0.01749
4836.59940,0.01109
4838.52787,0.00814
4840.45633,0.00109
4842.38480,-0.01043
4844.31327,-0.01300
4846.24174,-0.00201
4848.17021,0.00219
4850.09868,-0.00593
4852.02715,-0.00830
4853.95562,-0.00425
4855.88408,-0.00360
4857.81255,-0.00327
4859.74102,0.00157
4861.66949,0.00592
4863.59796,0.00365
4865.52643,0.00178
4867.45490,0.01066
4869.38336,0.01623
4871.31183,0.00809
4873.24030,0.00578
4875.16877,0.01214
4877.09724,0.01205
4879.02571,0.01051
4880.95418,0.01566
4882.88265,0.01442
4884.81111,-0.00217
4886.73958,-0.01791
4888.66805,-0.01921
4890.59652,-0.00967
4892.52499,0.00019
4894.45346,0.00156
4896.38193,0.00067
4898.31039,0.00427
4900.23886,0.00279
4902.16733,-0.00435
4904.09580,-0.00487
4906.02427,0.00068
4907.95274,0.00687
4909.88121,0.01215
4911.80967,0.01209
4913.73814,0.01527
4915.66661,0.02728
4917.59508,0.02853
4919.52355,0.01295
4921.45202,-0.00127
4923.38049,-0.00258
4925.30896,0.00258
4927.23742,0.00353
4929.16589,0.00167
4931.09436,-0.00329
4933.02283,-0.00242
4934.95130,0.02094
4936.87977,0.04687
4938.80824,0.05000
4940.73670,0.04011
4942.66517,0.02530
4944.59364,0.00642
4946.52211,0.00310
4948.45058,0.01628
4950.37905,0.02311
4952.30752,0.02405
4954.23599,0.02614
4956.16445,0.02238
4958.09292,0.00868
4960.02139,0.00146
4961.94986,0.01994
4963.87833,0.04079
4965.80680,0.03892
4967.73527,0.03517
4969.66373,0.03980
4971.59220,0.03218
4973.52067,0.01271
4975.44914,0.00003
4977.37761,-0.00236
4979.30608,0.00306
4981.23455,0.01524
4983.16302,0.02659
4985.09148,0.02307
4987.01995,0.00572
4988.94842,-0.00064
4990.87689,0.01200
4992.80536,0.02278
4994.73383,0.02097
4996.66230,0.01773
4998.59076,0.01931
5000.51923,0.01642
5002.44770,0.00863
5004.37617,0.00589
5006.30464,0.00694
5008.23311,0.00473
5010.16158,-0.00036
5012.09005,-0.00202
5014.01851,0.00267
5015.94698,0.01240
5017.87545,0.02611
5019.80392,0.03556
5021.73239,0.03263
5023.66086,0.02209
5025.58933,0.00776
5027.51779,-0.00482
5029.44626,-0.00227
5031.37473,0.01223
5033.30320,0.01888
5035.23167,0.01478
5037.16014,0.01210
5039.08861,0.01433
5041.01708,0.02223
5042.94554,0.02870
5044.87401,0.02193
5046.80248,0.00303
5048.73095,-0.01137
5050.65942,0.00154
5052.58789,0.02468
5054.51636,0.02322
5056.44482,0.01129
5058.37329,0.01431
5060.30176,0.02579
5062.23023,0.02973
5064.15870,0.02511
5066.08717,0.01677
5068.01564,0.00621
5069.94410,-0.00396
5071.87257,-0.00453
5073.80104,0.01374
5075.72951,0.03531
5077.65798,0.03900
5079.58645,0.03307
5081.51492,0.03327
5083.44339,0.03550
5085.37185,0.03218
5087.30032,0.03227
5089.22879,0.03803
5091.15726,0.03717
5093.08573,0.03393
5095.01420,0.02987
5096.94267,0.01473
5098.87113,0.00630
5100.79960,0.01466
5102.72807,0.01662
5104.65654,0.00685
5106.58501,-0.00566
5108.51348,-0.00757
5110.44195,0.00919
5112.37042,0.02433
5114.29888,0.02616
5116.22735,0.02146
5118.15582,0.01433
5120.08429,0.01809
5122.01276,0.03535
5123.94123,0.04422
5125.86970,0.03199
5127.79816,0.01550
5129.72663,0.01843
5131.65510,0.03315
5133.58357,0.03686
5135.51204,0.02950
5137.44051,0.02521
5139.36898,0.03234
5141.29745,0.04342
5143.22591,0.04186
5145.15438,0.02447
5147.08285,0.00586
5149.01132,-0.00520
5150.93979,-0.01008
5152.86826,0.00432
5154.79673,0.03819
5156.72519,0.05786
5158.65366,0.05101
5160.58213,0.04069
5162.51060,0.03510
5164.43907,0.03402
5166.36754,0.04364
5168.29601,0.05237
5170.22448,0.05303
5172.15294,0.05996
5174.08141,0.06485
5176.00988,0.05246
5177.93835,0.03998
5179.86682,0.03950
5181.79529,0.04110
5183.72376,0.03551
5185.65222,0.01949
5187.58069,0.00691
5189.50916,0.01422
5191.43763,0.03167
5193.36610,0.02907
5195.29457,0.00325
5197.22304,-0.00715
5199.15151,0.01394
5201.07997,0.03931
5203.00844,0.04756
5204.93691,0.03741
5206.86538,0.02383
5208.79385,0.02217
5210.72232,0.01845
5212.65079,0.00705
5214.57925,0.01103
5216.50772,0.02886
5218.43619,0.03524
5220.36466,0.03294
5222.29313,0.04084
5224.22160,0.05070
5226.15007,0.04467
5228.07854,0.04019
5230.00700,0.05060
5231.93547,0.06052
5233.86394,0.06565
5235.79241,0.06484
5237.72088,0.05367
5239.64935,0.04279
5241.57782,0.04102
5243.50628,0.04000
5245.43475,0.02994
5247.36322,0.02072
5249.29169,0.02363
5251.22016,0.03291
5253.14863,0.04889
5255.07710,0.06057
5257.00556,0.05563
5258.93403,0.05275
5260.86250,0.05381
5262.79097,0.05247
5264.71944,0.05566
5266.64791,0.04776
5268.57638,0.02660
5270.50485,0.01654
5272.43331,0.01365
5274.36178,0.00896
5276.29025,0.02122
5278.21872,0.04845
5280.14719,0.06647
5282.07566,0.06779
5284.00413,0.05786
5285.93259,0.04754
5287.86106,0.04501
5289.78953,0.04421
5291.71800,0.04810
5293.64647,0.06336
5295.57494,0.06833
5297.50341,0.06118
5299.43188,0.06055
5301.36034,0.04786
5303.28881,0.01902
5305.21728,0.00548
5307.14575,0.01897
5309.07422,0.04350
5311.00269,0.05344
5312.93116,0.05274
5314.85962,0.05055
5316.78809,0.04638
5318.71656,0.05258
5320.64503,0.05392
5322.57350,0.03190
5324.50197,0.01715
5326.43044,0.03387
5328.35891,0.05829
5330.28737,0.05884
5332.21584,0.04191
5334.14431,0.04119
5336.07278,0.05852
5338.00125,0.05915
5339.92972,0.04276
5341.85819,0.03693
5343.78665,0.03400
5345.71512,0.03202
5347.64359,0.04648
5349.57206,0.06055
5351.50053,0.06926
5353.42900,0.08763
5355.35747,0.09396
5357.28594,0.06840
5359.21440,0.03601
5361.14287,0.03135
5363.07134,0.04655
5364.99981,0.04088
5366.92828,0.02330
5368.85675,0.02282
5370.78522,0.02898
5372.71368,0.03227
5374.64215,0.03570
5376.57062,0.04301
5378.49909,0.05537
5380.42756,0.05670
5382.35603,0.05076
5384.28450,0.05710
5386.21297,0.06708
5388.14143,0.06732
5390.06990,0.06897
5391.99837,0.06699
5393.92684,0.05233
5395.85531,0.04228
5397.78378,0.03347
5399.71225,0.01647
5401.64071,0.01205
5403.56918,0.03107
5405.49765,0.06731
5407.42612,0.10702
5409.35459,0.12182
5411.28306,0.10150
5413.21153,0.07580
5415.13999,0.06604
5417.06846,0.06585
5418.99693,0.06572
5420.92540,0.06172
5422.85387,0.06784
5424.78234,0.08512
5426.71081,0.09412
5428.63928,0.09959
5430.56774,0.11354
5432.49621,0.11444
5434.42468,0.09526
5436.35315,0.08410
5438.28162,0.08481
5440.21009,0.07486
5442.13856,0.05058
5444.06702,0.02739
5445.99549,0.00755
5447.92396,0.00398
5449.85243,0.03660
5451.78090,0.07782
5453.70937,0.10474
5455.63784,0.11420
5457.56631,0.08757
5459.49477,0.04789
5461.42324,0.03798
5463.35171,0.06029
5465.28018,0.09981
5467.20865,0.12286
5469.13712,0.10809
5471.06559,0.08562
5472.99405,0.07130
5474.92252,0.05549
5476.85099,0.04994
5478.77946,0.05257
5480.70793,0.04787
5482.63640,0.04233
5484.56487,0.04217
5486.49334,0.04875
5488.42180,0.07062
5490.35027,0.09537
5492.27874,0.08392
5494.20721,0.05003
5496.13568,0.05275
5498.06415,0.07541
5499.99262,0.08059
5501.92108,0.08141
5503.84955,0.08458
5505.77802,0.07910
5507.70649,0.07430
5509.63496,0.08233
5511.56343,0.08854
5513.49190,0.08389
5515.42037,0.07889
5517.34883,0.07004
5519.27730,0.05398
5521.20577,0.05544
5523.13424,0.08741
5525.06271,0.11187
5526.99118,0.09875
5528.91965,0.07365
5530.84811,0.07201
5532.77658,0.08149
5534.70505,0.07578
5536.63352,0.07229
5538.56199,0.09877
5540.49046,0.14569
5542.41893,0.18075
5544.34740,0.18739
5546.27586,0.17007
5548.20433,0.14463
5550.13280,0.11213
5552.06127,0.06812
5553.98974,0.05284
5555.91821,0.08028
5557.84668,0.10365
5559.77514,0.10299
5561.70361,0.09586
5563.63208,0.08472
5565.56055,0.06075
5567.48902,0.03177
5569.41749,0.02510
5571.34596,0.05065
5573.27443,0.07371
5575.20289,0.06949
5577.13136,0.05114
5579.05983,0.04689
5580.98830,0.07845
5582.91677,0.10396
5584.84524,0.08894
5586.77371,0.06829
5588.70217,0.06689
5590.63064,0.07903
5592.55911,0.09400
5594.48758,0.09862
5596.41605,0.08798
5598.34452,0.07932
5600.27299,0.09048
5602.20145,0.10728
5604.12992,0.09874
5606.05839,0.07740
5607.98686,0.07972
5609.91533,0.09285
5611.84380,0.09363
5613.77227,0.09837
5615.70074,0.11951
5617.62920,0.14409
5619.55767,0.14382
5621.48614,0.10784
5623.41461,0.07562
5625.34308,0.08017
5627.27155,0.09999
5629.20002,0.09655
5631.12848,0.07381
5633.05695,0.06755
5634.98542,0.08091
5636.91389,0.08076
5638.84236,0.06166
5640.77083,0.05713
5642.69930,0.07749
5644.62777,0.09713
5646.55623,0.10274
5648.48470,0.10451
5650.41317,0.10747
5652.34164,0.09938
5654.27011,0.07411
5656.19858,0.03986
5658.12705,0.00880
5660.05551,0.00935
5661.98398,0.04926
5663.91245,0.08668
5665.84092,0.09477
5667.76939,0.08328
5669.69786,0.07767
5671.62633,0.09262
5673.55480,0.10035
5675.48326,0.07866
5677.41173,0.05526
5679.34020,0.06733
5681.26867,0.09622
5683.19714,0.10049
5685.12561,0.09703
5687.05408,0.10738
5688.98254,0.10277
5690.91101,0.08222
5692.83948,0.08105
5694.76795,0.09625
5696.69642,0.11515
5698.62489,0.12436
5700.55336,0.09870
5702.48183,0.07979
5704.41029,0.10203
5706.33876,0.11923
5708.26723,0.11614
5710.19570,0.10917
5712.12417,0.09390
5714.05264,0.07221
5715.98111,0.04699
5717.90957,0.01510
5719.83804,-0.00939
5721.76651,-0.00394
5723.69498,0.03063
5725.62345,0.06749
5727.55192,0.07368
5729.48039,0.05533
5731.40886,0.05690
5733.33732,0.06675
5735.26579,0.06129
5737.19426,0.06992
5739.12273,0.09119
5741.05120,0.08426
5742.97967,0.04584
5744.90814,0.02983
5746.83660,0.06686
5748.76507,0.11279
5750.69354,0.12866
5752.62201,0.11609
5754.55048,0.09762
5756.47895,0.10030
5758.40742,0.11975
5760.33588,0.12553
5762.26435,0.10606
5764.19282,0.09119
5766.12129,0.09096
5768.04976,0.07845
5769.97823,0.05369
5771.90670,0.04115
5773.83517,0.05944
5775.76363,0.08605
5777.69210,0.08134
5779.62057,0.07041
5781.54904,0.09104
5783.47751,0.11759
5785.40598,0.11219
5787.33445,0.08733
5789.26291,0.08412
5791.19138,0.09469
5793.11985,0.09862
5795.04832,0.09966
5796.97679,0.10469
5798.90526,0.13076
5800.83373,0.16128
5802.76220,0.15864
5804.69066,0.12966
5806.61913,0.10248
5808.54760,0.07844
5810.47607,0.04978
5812.40454,0.02554
5814.33301,0.01111
5816.26148,0.02052
5818.18994,0.06505
5820.11841,0.10354
5822.04688,0.11534
5823.97535,0.11892
5825.90382,0.11044
5827.83229,0.09771
5829.76076,0.09319
5831.68923,0.09726
5833.61769,0.10800
5835.54616,0.10733
5837.47463,0.08725
5839.40310,0.06901
5841.33157,0.07532
5843.26004,0.10239
5845.18851,0.12259
5847.11697,0.10464
5849.04544,0.06037
5850.97391,0.06108
5852.90238,0.10278
5854.83085,0.11363
5856.75932,0.09305
5858.68779,0.06623
5860.61626,0.02854
5862.54472,-0.00696
5864.47319,-0.02971
5866.40166,-0.01826
5868.33013,0.05080
5870.25860,0.12704
5872.18707,0.14723
5874.11554,0.10686
5876.04400,0.04649
5877.97247,0.03047
5879.90094,0.07462
5881.82941,0.11772
5883.75788,0.12466
5885.68635,0.12299
5887.61482,0.10982
5889.54329,0.07944
5891.47175,0.06439
5893.40022,0.06198
5895.32869,0.06473
5897.25716,0.07944
5899.18563,0.08743
5901.11410,0.09312
5903.04257,0.10988
5904.97103,0.09891
5906.89950,0.05343
5908.82797,0.03818
5910.75644,0.06682
5912.68491,0.07157
5914.61338,0.02856
5916.54185,0.01050
5918.47032,0.06607
5920.39878,0.12678
5922.32725,0.14989
5924.25572,0.17312
5926.18419,0.19802
5928.11266,0.20304
5930.04113,0.19567
5931.96960,0.18733
5933.89806,0.16297
5935.82653,0.10543
5937.75500,0.05253
5939.68347,0.05219
5941.61194,0.07712
5943.54041,0.07836
5945.46888,0.06371
5947.39734,0.03802
5949.32581,0.00040
5951.25428,-0.01334
5953.18275,0.01299
5955.11122,0.05736
5957.03969,0.09416
5958.96816,0.09905
5960.89663,0.08492
5962.82509,0.08917
5964.75356,0.09599
5966.68203,0.08088
5968.61050,0.05801
5970.53897,0.04482
5972.46744,0.04472
5974.39591,0.05225
5976.32437,0.06871
5978.25284,0.10402
5980.18131,0.11619
5982.10978,0.07183
5984.03825,0.03688
5985.96672,0.05477
5987.89519,0.10352
5989.82366,0.15027
5991.75212,0.13451
5993.68059,0.07428
5995.60906,0.05333
5997.53753,0.04871
5999.46600,0.01269
6001.39447,-0.00588
6003.32294,0.02815
6005.25140,0.07738
6007.17987,0.10805
6009.10834,0.11922
6011.03681,0.11918
6012.96528,0.11643
6014.89375,0.10989
6016.82222,0.08523
6018.75069,0.04410
6020.67915,0.03107
6022.60762,0.05009
6024.53609,0.05463
6026.46456,0.04808
6028.39303,0.07128
6030.32150,0.11816
6032.24997,0.13538
6034.17843,0.11591
6036.10690,0.12143
6038.03537,0.16023
6039.96384,0.16782
6041.89231,0.13325
6043.82078,0.10210
6045.74925,0.10570
6047.67772,0.12705
6049.60618,0.14194
6051.53465,0.14889
6053.46312,0.12984
6055.39159,0.08229
6057.32006,0.05937
6059.24853,0.05961
6061.17700,0.04845
6063.10546,0.06172
6065.03393,0.08544
6066.96240,0.06363
6068.89087,0.04884
6070.81934,0.08602
6072.74781,0.12206
6074.67628,0.12911
6076.60475,0.12418
6078.53321,0.10014
6080.46168,0.07873
6082.39015,0.10756
6084.31862,0.14218
6086.24709,0.12356
6088.17556,0.10419
6090.10403,0.12305
6092.03249,0.13628
6093.96096,0.11486
6095.88943,0.06407
6097.81790,0.02340
6099.74637,0.04654
6101.67484,0.09214
6103.60331,0.08577
6105.53177,0.04891
6107.46024,0.03174
6109.38871,0.06384
6111.31718,0.10155
6113.24565,0.06369
6115.17412,-0.00855
6117.10259,-0.03090
6119.03106,-0.00114
6120.95952,0.04144
6122.88799,0.06617
6124.81646,0.04430
6126.74493,0.01114
6128.67340,0.06558
6130.60187,0.15110
6132.53034,0.13594
6134.45880,0.09717
6136.38727,0.12502
6138.31574,0.14005
6140.24421,0.07956
6142.17268,0.01402
6144.10115,0.01058
6146.02962,0.04923
6147.95809,0.08901
6149.88655,0.11158
6151.81502,0.14059
6153.74349,0.16961
6155.67196,0.16188
6157.60043,0.14570
6159.52890,0.12877
6161.45737,0.11388
6163.38583,0.13146
6165.31430,0.14082
6167.24277,0.11883
6169.17124,0.11345
6171.09971,0.13168
6173.02818,0.11539
6174.95665,0.06058
6176.88512,0.06595
6178.81358,0.15889
6180.74205,0.22537
6182.67052,0.21443
6184.59899,0.18937
6186.52746,0.16826
6188.45593,0.11737
6190.38440,0.05532
6192.31286,0.02932
6194.24133,0.03301
6196.16980,0.03256
6198.09827,0.03037
6200.02674,0.04396
6201.95521,0.06027
6203.88368,0.04450
6205.81215,0.02292
6207.74061,0.04351
6209.66908,0.07553
6211.59755,0.09598
6213.52602,0.10836
6215.45449,0.13425
6217.38296,0.20273
6219.31143,0.25955
6221.23989,0.25459
6223.16836,0.20118
6225.09683,0.13619
6227.02530,0.09593
6228.95377,0.08959
6230.88224,0.10546
6232.81071,0.12180
6234.73918,0.11394
6236.66764,0.08415
6238.59611,0.06356
6240.52458,0.06597
6242.45305,0.08401
6244.38152,0.12272
6246.30999,0.17642
6248.23846,0.18086
6250.16692,0.09268
6252.09539,0.00821
6254.02386,0.00826
6255.95233,0.03639
6257.88080,0.03732
6259.80927,0.00860
6261.73774,-0.03443
6263.66621,-0.04798
6265.59467,0.02018
6267.52314,0.12666
6269.45161,0.17355
6271.38008,0.15550
6273.30855,0.12446
6275.23702,0.09080
6277.16549,0.03712
6279.09395,0.00633
6281.02242,0.03467
6282.95089,0.09191
6284.87936,0.11901
6286.80783,0.09468
6288.73630,0.05659
6290.66477,0.06433
6292.59323,0.11802
6294.52170,0.15457
6296.45017,0.15636
6298.37864,0.12448
6300.30711,0.05323
6302.23558,-0.01263
6304.16405,-0.03797
6306.09252,-0.03303
6308.02098,-0.00800
6309.94945,0.00928
6311.87792,0.00548
6313.80639,0.00730
6315.73486,0.05206
6317.66333,0.12682
6319.59180,0.18976
6321.52026,0.25653
6323.44873,0.28504
6325.37720,0.21110
6327.30567,0.10862
6329.23414,0.04205
6331.16261,-0.00002
6333.09108,-0.00531
6335.01955,0.03371
6336.94801,0.07881
6338.87648,0.10666
6340.80495,0.12412
6342.73342,0.10467
6344.66189,0.05300
6346.59036,0.03222
6348.51883,0.01801
6350.44729,-0.00880
6352.37576,0.03894
6354.30423,0.10533
6356.23270,0.08926
6358.16117,0.03763
6360.08964,0.01274
6362.01811,0.04214
6363.94658,0.13018
6365.87504,0.20683
6367.80351,0.22112
6369.73198,0.17077
6371.66045,0.07242
6373.58892,0.02126
6375.51739,0.05183
6377.44586,0.09717
6379.37432,0.13099
6381.30279,0.12362
6383.23126,0.07604
6385.15973,0.06739
6387.08820,0.07899
6389.01667,0.06621
6390.94514,0.06133
6392.87361,0.06750
6394.80207,0.05582
6396.73054,0.04813
6398.65901,0.06733
6400.58748,0.09604
6402.51595,0.12371
6404.44442,0.14596
6406.37289,0.12527
6408.30135,0.08950
6410.22982,0.09466
6412.15829,0.09273
6414.08676,0.07201
6416.01523,0.06598
6417.94370,0.07946
6419.87217,0.10404
6421.80064,0.11969
6423.72910,0.14242
6425.65757,0.16731
6427.58604,0.14959
6429.51451,0.09930
6431.44298,0.05899
6433.37145,0.01153
6435.29992,-0.04662
6437.22838,-0.04841
6439.15685,0.04202
6441.08532,0.15654
6443.01379,0.19172
6444.94226,0.15615
6446.87073,0.13175
6448.79920,0.10697
6450.72766,0.06868
6452.65613,0.02887
6454.58460,0.02070
6456.51307,0.04871
6458.44154,0.05683
6460.37001,0.02576
6462.29848,-0.01365
6464.22695,0.00329
6466.15541,0.08179
6468.08388,0.14062
6470.01235,0.16921
6471.94082,0.17668
6473.86929,0.12538
6475.79776,0.05447
6477.72623,0.04128
6479.65469,0.06008
6481.58316,0.04056
6483.51163,0.03177
6485.44010,0.06763
6487.36857,0.07550
6489.29704,0.03818
6491.22551,0.00814
6493.15398,0.01692
6495.08244,0.06000
6497.01091,0.10853
6498.93938,0.12735
6500.86785,0.13132
6502.79632,0.14314
6504.72479,0.12836
6506.65326,0.07270
6508.58172,0.01603
6510.51019,0.03542
6512.43866,0.11334
6514.36713,0.14243
6516.29560,0.12402
6518.22407,0.11509
6520.15254,0.11352
6522.08101,0.11218
6524.00947,0.12844
6525.93794,0.12217
6527.86641,0.07738
6529.79488,0.05112
6531.72335,0.04662
6533.65182,0.02675
6535.58029,0.00331
6537.50875,0.01760
6539.43722,0.05451
6541.36569,0.06943
6543.29416,0.06824
6545.22263,0.07684
6547.15110,0.04276
6549.07957,-0.01238
6551.00804,-0.00640
6552.93650,0.00691
6554.86497,-0.03883
6556.79344,-0.06211
6558.72191,0.01873
6560.65038,0.13379
6562.57885,0.18267
6564.50732,0.16262
6566.43578,0.14883
6568.36425,0.17671
6570.29272,0.14683
6572.22119,0.04186
6574.14966,0.01806
6576.07813,0.09847
6578.00660,0.11593
6579.93507,0.05280
6581.86353,0.04169
6583.79200,0.05456
6585.72047,0.01268
6587.64894,-0.05373
6589.57741,-0.05416
6591.50588,0.04163
6593.43435,0.07582
6595.36281,-0.02012
6597.29128,-0.09393
6599.21975,-0.11592
6601.14822,-0.06877
6603.07669,0.02907
6605.00516,0.04725
6606.93363,-0.01985
6608.86210,-0.09389
6610.79056,-0.12332
6612.71903,-0.08569
6614.64750,-0.01808
6616.57597,0.03438
6618.50444,0.06405
6620.43291,0.04638
6622.36138,-0.01709
6624.28984,-0.05192
6626.21831,0.00347
6628.14678,0.12217
6630.07525,0.19816
6632.00372,0.19549
6633.93219,0.18759
6635.86066,0.18605
6637.78912,0.14689
6639.71759,0.07283
6641.64606,0.00132
6643.57453,-0.00654
6645.50300,0.07405
6647.43147,0.14740
6649.35994,0.11021
6651.28841,0.03489
6653.21687,0.05254
6655.14534,0.10415
6657.07381,0.06289
6659.00228,0.04384
6660.93075,0.09012
6662.85922,0.07004
6664.78769,0.00648
6666.71615,-0.01899
6668.64462,0.02502
6670.57309,0.07701
6672.50156,0.03510
6674.43003,-0.03857
6676.35850,-0.04654
6678.28697,-0.04313
6680.21544,-0.09009
6682.14390,-0.13235
6684.07237,-0.09504
6686.00084,-0.02017
6687.92931,0.02363
6689.85778,0.05566
6691.78625,0.11351
6693.71472,0.17706
6695.64318,0.21415
6697.57165,0.19271
6699.50012,0.13826
6701.42859,0.09046
6703.35706,0.02794
6705.28553,-0.00678
6707.21400,0.03174
6709.14247,0.06520
6711.07093,0.03084
6712.99940,-0.01766
6714.92787,-0.00630
6716.85634,0.01578
6718.78481,-0.01868
6720.71328,-0.05042
6722.64175,-0.04645
6724.57021,-0.03414
6726.49868,0.00034
6728.42715,0.08104
6730.35562,0.14656
6732.28409,0.11317
6734.21256,0.02179
6736.14103,-0.04461
6738.06950,-0.04758
6739.99796,-0.03127
6741.92643,-0.04982
6743.85490,-0.02803
6745.78337,0.04868
6747.71184,0.10183
6749.64031,0.12830
6751.56878,0.10219
6753.49724,-0.03190
6755.42571,-0.13357
6757.35418,-0.04357
6759.28265,0.12083
6761.21112,0.13866
6763.13959,0.05428
6765.06806,0.02063
6766.99653,0.04173
6768.92499,0.07539
6770.85346,0.09417
6772.78193,0.05371
6774.71040,-0.03915
6776.63887,-0.10811
6778.56734,-0.07998
6780.49581,0.03228
6782.42427,0.12230
6784.35274,0.11037
6786.28121,0.03447
6788.20968,-0.02504
6790.13815,-0.04808
6792.06662,-0.05173
6793.99509,-0.06757
6795.92355,-0.09331
6797.85202,-0.07585
6799.78049,-0.04126
6801.70896,-0.07503
6803.63743,-0.14023
6805.56590,-0.12888
6807.49437,-0.06675
6809.42284,-0.00504
6811.35130,0.09067
6813.27977,0.20305
6815.20824,0.25655
6817.13671,0.20100
6819.06518,0.06828
6820.99365,-0.01873
6822.92212,0.04860
6824.85058,0.18998
6826.77905,0.24993
6828.70752,0.24871
6830.63599,0.20742
6832.56446,0.11893
6834.49293,0.05762
6836.42140,0.08059
6838.34987,0.14636
6840.27833,0.16684
6842.20680,0.13249
6844.13527,0.10355
6846.06374,0.09855
6847.99221,0.09319
6849.92068,0.08889
6851.84915,0.11922
6853.77761,0.13101
6855.70608,0.06917
6857.63455,0.03754
6859.56302,0.10315
6861.49149,0.18041
6863.41996,0.16762
6865.34843,0.09176
6867.27690,0.02874
6869.20536,-0.04828
6871.13383,-0.13079
6873.06230,-0.09148
6874.99077,0.01311
6876.91924,0.00056
6878.84771,-0.07991
6880.77618,-0.04859
6882.70464,0.03740
6884.63311,0.03978
6886.56158,0.01530
6888.49005,0.01768
6890.41852,0.01610
6892.34699,0.00262
6894.27546,-0.02266
6896.20393,-0.05444
6898.13239,-0.06867
6900.06086,-0.06621
6901.98933,-0.06479
6903.91780,-0.09293
6905.84627,-0.14401
6907.77474,-0.13761
6909.70321,-0.06032
6911.63167,0.06708
6913.56014,0.21396
6915.48861,0.27238
6917.41708,0.22127
6919.34555,0.15303
6921.27402,0.11345
6923.20249,0.08544
6925.13096,0.07516
6927.05942,0.07298
6928.98789,0.08949
6930.91636,0.13965
6932.84483,0.17976
6934.77330,0.21126
6936.70177,0.25901
6938.63024,0.29278
6940.55870,0.26700
6942.48717,0.19721
6944.41564,0.10248
6946.34411,0.01724
6948.27258,0.03201
6950.20105,0.11432
6952.12952,0.18828
6954.05799,0.17508
6955.98645,0.05437
6957.91492,-0.00746
6959.84339,-0.04410
6961.77186,-0.12370
6963.70033,-0.13102
6965.62880,-0.03448
6967.55727,0.10096
6969.48573,0.12370
6971.41420,0.00104
6973.34267,-0.07508
6975.27114,-0.03047
6977.19961,0.07497
6979.12808,0.15327
6981.05655,0.13159
6982.98501,0.05761
6984.91348,0.03467
6986.84195,0.08970
6988.77042,0.19907
6990.69889,0.27795
6992.62736,0.22380
6994.55583,0.11511
6996.48430,0.10564
6998.41276,0.15035
7000.34123,0.13822
7002.26970,0.07919
7004.19817,0.02903
7006.12664,0.02537
7008.05511,0.02719
7009.98358,0.01088
7011.91204,0.00184
7013.84051,0.02623
7015.76898,0.07678
7017.69745,0.12253
7019.62592,0.13040
7021.55439,0.06581
7023.48286,0.01191
7025.41133,0.07077
7027.33979,0.18884
7029.26826,0.23492
7031.19673,0.15756
7033.12520,0.05545
7035.05367,0.01114
7036.98214,0.01579
7038.91061,-0.00557
7040.83907,-0.09428
7042.76754,-0.14074
7044.69601,0.01495
7046.62448,0.16824
7048.55295,0.12732
7050.48142,0.08680
7052.40989,0.10128
7054.33836,0.04385
7056.26682,-0.06887
7058.19529,-0.14089
7060.12376,-0.10843
7062.05223,-0.05879
7063.98070,-0.05005
7065.90917,0.02159
7067.83764,0.12469
7069.76610,0.16284
7071.69457,0.16393
7073.62304,0.12374
7075.55151,0.03510
7077.47998,-0.06235
7079.40845,-0.13966
7081.33692,-0.16063
7083.26539,-0.15321
7085.19385,-0.11651
7087.12232,0.02803
7089.05079,0.22219
7090.97926,0.33685
7092.90773,0.36984
7094.83620,0.31690
7096.76467,0.20455
7098.69313,0.10295
7100.62160,-0.03059
7102.55007,-0.19461
7104.47854,-0.19219
7106.40701,0.02539
7108.33548,0.18077
7110.26395,0.14608
7112.19242,0.04074
7114.12088,-0.01613
7116.04935,-0.03171
7117.97782,-0.04524
7119.90629,-0.03779
7121.83476,-0.02910
7123.76323,-0.02352
7125.69170,0.05564
7127.62016,0.16718
7129.54863,0.18243
7131.47710,0.13719
7133.40557,0.12009
7135.33404,0.16685
7137.26251,0.23380
7139.19098,0.19618
7141.11944,0.06696
7143.04791,0.01532
7144.97638,0.10796
7146.90485,0.20690
7148.83332,0.20664
7150.76179,0.15249
7152.69026,0.02407
7154.61873,-0.11132
7156.54719,-0.10221
7158.47566,-0.01423
7160.40413,0.04122
7162.33260,0.05297
7164.26107,0.04049
7166.18954,0.05035
7168.11801,0.09989
7170.04647,0.07967
7171.97494,-0.08557
7173.90341,-0.25877
7175.83188,-0.25940
7177.76035,-0.06104
7179.68882,0.13574
7181.61729,0.15697
7183.54576,-0.02257
7185.47422,-0.23153
7187.40269,-0.24897
7189.33116,0.01598
7191.25963,0.32113
7193.18810,0.31401
7195.11657,0.14648
7197.04504,0.03824
7198.97350,0.01775
7200.90197,0.04939
7202.83044,0.09966
7204.75891,0.08637
7206.68738,-0.04587
7208.61585,-0.16446
7210.54432,-0.18510
7212.47279,-0.11881
7214.40125,-0.00178
7216.32972,0.13510
7218.25819,0.20539
7220.18666,0.20297
7222.11513,0.19678
7224.04360,0.18281
7225.97207,0.16825
7227.90053,0.14140
7229.82900,0.10854
7231.75747,0.11649
7233.68594,0.11803
7235.61441,0.08744
7237.54288,0.07930
7239.47135,0.09204
7241.39982,0.12548
7243.32828,0.19500
7245.25675,0.20719
7247.18522,0.14940
7249.11369,0.04560
7251.04216,-0.08101
7252.97063,-0.06740
7254.89910,0.06900
7256.82756,0.13038
7258.75603,0.15611
7260.68450,0.13548
7262.61297,0.09935
7264.54144,0.11887
7266.46991,0.05719
7268.39838,-0.07095
7270.32685,-0.10181
7272.25531,0.04606
7274.18378,0.12462
7276.11225,0.07872
7278.04072,0.11810
7279.96919,0.15660
7281.89766,0.05408
7283.82613,-0.00398
7285.75459,0.02008
7287.68306,0.11363
7289.61153,0.28712
7291.54000,0.42186
7293.46847,0.37380
7295.39694,0.18222
7297.32541,0.03291
7299.25387,0.00470
7301.18234,-0.00187
7303.11081,-0.06372
7305.03928,-0.16590
7306.96775,-0.22632
7308.89622,-0.10756
7310.82469,0.10092
7312.75316,0.15091
7314.68162,0.09010
7316.61009,0.12215
7318.53856,0.26199
7320.46703,0.30234
7322.39550,0.27322
7324.32397,0.27507
7326.25244,0.21706
7328.18090,0.03654
7330.10937,-0.07480
7332.03784,0.00162
7333.96631,0.01800
7335.89478,-0.03426
7337.82325,0.02916
7339.75172,0.17163
7341.68019,0.15662
7343.60865,0.14250
7345.53712,0.21598
7347.46559,0.20296
7349.39406,0.08704
7351.32253,-0.04048
7353.25100,-0.14667
7355.17947,-0.17803
7357.10793,-0.09932
7359.03640,0.03958
7360.96487,0.20499
7362.89334,0.37462
7364.82181,0.37947
7366.75028,0.17737
7368.67875,-0.00917
7370.60722,-0.02652
7372.53568,-0.00657
7374.46415,-0.01875
7376.39262,0.05127
7378.32109,0.16369
7380.24956,0.25723
7382.17803,0.35680
7384.10650,0.35136
7386.03496,0.19837
7387.96343,0.10243
7389.89190,0.12351
7391.82037,0.10622
7393.74884,0.00418
7395.67731,-0.04666
7397.60578,0.07663
7399.53425,0.24241
7401.46271,0.27101
7403.39118,0.10045
7405.31965,-0.08932
7407.24812,-0.08729
7409.17659,-0.00660
7411.10506,0.03897
7413.03353,0.06639
7414.96199,0.11653
7416.89046,0.13039
7418.81893,0.01662
7420.74740,0.07789
7422.67587,0.29156
7424.60434,0.24394
7426.53281,0.02778
7428.46128,-0.06886
7430.38974,0.04687
7432.31821,0.24387
7434.24668,0.30920
7436.17515,0.14960
7438.10362,-0.02290
7440.03209,-0.12199
7441.96056,-0.23091
7443.88902,-0.24764
7445.81749,-0.17891
7447.74596,-0.08836
7449.67443,0.04190
7451.60290,0.08131
7453.53137,-0.01963
7455.45984,-0.11807
7457.38831,-0.13505
7459.31677,-0.00983
7461.24524,0.11878
7463.17371,0.12671
7465.10218,0.16405
7467.03065,0.17059
7468.95912,0.03346
7470.88759,-0.10934
7472.81605,-0.07604
7474.74452,0.02510
7476.67299,0.02282
7478.60146,-0.03349
7480.52993,-0.02545
7482.45840,-0.01388
7484.38687,0.00866
7486.31533,0.03512
7488.24380,-0.06647
7490.17227,-0.19404
7492.10074,-0.16991
7494.02921,-0.04447
7495.95768,0.11812
7497.88615,0.25770
