399.19301,-0.69664
401.12148,0.19274
403.04995,0.25542
404.97842,0.30108
406.90689,0.34643
408.83536,0.36954
410.76382,0.31629
412.69229,0.19930
414.62076,0.18623
416.54923,0.21652
418.47770,0.05445
420.40617,-0.05757
422.33464,0.06848
424.26311,0.07664
426.19157,-0.02622
428.12004,0.00739
430.04851,0.17087
431.97698,0.25437
433.90545,0.19766
435.83392,0.15077
437.76239,0.17206
439.69085,0.20797
441.61932,0.20470
443.54779,0.18515
445.47626,0.18796
447.40473,0.18277
449.33320,0.17328
451.26167,0.18390
453.19013,0.18633
455.11860,0.18163
457.04707,0.17897
458.97554,0.16566
460.90401,0.14751
462.83248,0.11762
464.76095,0.08667
466.68942,0.07620
468.61788,0.10519
470.54635,0.19373
472.47482,0.30552
474.40329,0.34124
476.33176,0.31279
478.26023,0.26928
480.18870,0.19376
482.11716,0.10898
484.04563,0.07634
485.97410,0.11531
487.90257,0.15364
489.83104,0.15233
491.75951,0.17328
493.68798,0.20581
495.61645,0.17063
497.54491,0.11152
499.47338,0.10798
501.40185,0.12764
503.33032,0.13364
505.25879,0.14015
507.18726,0.15278
509.11573,0.17173
511.04419,0.19206
512.97266,0.18557
514.90113,0.14806
516.82960,0.10632
518.75807,0.07953
520.68654,0.08592
522.61501,0.11186
524.54348,0.11785
526.47194,0.10548
528.40041,0.10188
530.32888,0.10848
532.25735,0.11588
534.18582,0.11215
536.11429,0.09610
538.04276,0.08732
539.97122,0.09585
541.89969,0.11843
543.82816,0.13104
545.75663,0.11125
547.68510,0.08928
549.61357,0.07291
551.54204,0.04843
553.47051,0.05260
555.39897,0.09018
557.32744,0.11037
559.25591,0.09870
561.18438,0.07830
563.11285,0.06942
565.04132,0.09262
566.96979,0.13699
568.89825,0.16027
570.82672,0.14630
572.75519,0.10198
574.68366,0.06188
576.61213,0.06717
578.54060,0.09524
580.46907,0.11207
582.39754,0.11151
584.32600,0.09636
586.25447,0.09418
588.18294,0.11828
590.11141,0.13823
592.03988,0.14279
593.96835,0.13656
595.89682,0.11281
597.82528,0.10111
599.75375,0.12035
601.68222,0.13899
603.61069,0.14669
605.53916,0.13694
607.46763,0.10729
609.39610,0.09132
611.32456,0.10045
613.25303,0.11768
615.18150,0.12398
617.10997,0.11477
619.03844,0.11031
620.96691,0.12587
622.89538,0.13953
624.82385,0.13585
626.75231,0.13469
628.68078,0.13797
630.60925,0.14208
632.53772,0.15740
634.46619,0.15804
636.39466,0.12227
638.32313,0.08851
640.25159,0.09449
642.18006,0.11733
644.10853,0.12328
646.03700,0.12612
647.96547,0.14920
649.89394,0.17079
651.82241,0.16707
653.75088,0.15562
655.67934,0.14306
657.60781,0.12416
659.53628,0.11072
661.46475,0.11465
663.39322,0.13000
665.32169,0.14522
667.25016,0.15621
669.17862,0.15313
671.10709,0.13861
673.03556,0.12624
674.96403,0.12222
676.89250,0.12501
678.82097,0.11793
680.74944,0.10363
682.67791,0.10237
684.60637,0.11457
686.53484,0.13000
688.46331,0.14377
690.39178,0.14958
692.32025,0.14574
694.24872,0.13798
696.17719,0.12644
698.10565,0.12159
700.03412,0.13104
701.96259,0.13720
703.89106,0.13582
705.81953,0.13774
707.74800,0.13397
709.67647,0.10140
711.60494,0.07068
713.53340,0.09539
715.46187,0.13360
717.39034,0.13763
719.31881,0.12954
721.24728,0.12077
723.17575,0.11579
725.10422,0.11833
727.03268,0.11839
728.96115,0.11936
730.88962,0.13073
732.81809,0.14239
734.74656,0.14558
736.67503,0.15200
738.60350,0.16001
740.53197,0.15432
742.46043,0.13901
744.38890,0.12699
746.31737,0.11859
748.24584,0.11136
750.17431,0.11394
752.10278,0.13028
754.03125,0.14439
755.95971,0.14573
757.88818,0.14142
759.81665,0.13742
761.74512,0.13433
763.67359,0.13095
765.60206,0.13215
767.53053,0.14070
769.45900,0.14738
771.38746,0.14624
773.31593,0.14034
775.24440,0.13657
777.17287,0.13899
779.10134,0.15083
781.02981,0.16785
782.95828,0.17136
784.88674,0.15893
786.81521,0.14607
788.74368,0.14290
790.67215,0.14960
792.60062,0.15097
794.52909,0.14298
796.45756,0.14586
798.38602,0.15824
800.31449,0.15785
802.24296,0.14566
804.17143,0.13692
806.09990,0.12562
808.02837,0.11155
809.95684,0.11204
811.88531,0.12322
813.81377,0.13077
815.74224,0.13083
817.67071,0.12513
819.59918,0.11824
821.52765,0.11573
823.45612,0.12197
825.38459,0.13616
827.31305,0.15019
829.24152,0.15050
831.16999,0.14222
833.09846,0.13990
835.02693,0.13327
836.95540,0.11930
838.88387,0.11965
840.81234,0.13168
842.74080,0.13380
844.66927,0.13066
846.59774,0.13583
848.52621,0.14133
850.45468,0.14421
852.38315,0.14941
854.31162,0.15002
856.24008,0.15030
858.16855,0.16033
860.09702,0.16469
862.02549,0.15057
863.95396,0.13230
865.88243,0.12192
867.81090,0.11701
869.73937,0.11941
871.66783,0.12873
873.59630,0.13624
875.52477,0.14012
877.45324,0.14068
879.38171,0.14320
881.31018,0.15261
883.23865,0.15773
885.16711,0.15446
887.09558,0.14968
889.02405,0.14432
890.95252,0.14092
892.88099,0.13962
894.80946,0.13795
896.73793,0.14117
898.66640,0.14558
900.59486,0.14126
902.52333,0.13434
904.45180,0.13515
906.38027,0.14228
908.30874,0.14950
910.23721,0.15293
912.16568,0.15473
914.09414,0.15872
916.02261,0.15787
917.95108,0.14778
919.87955,0.13793
921.80802,0.13409
923.73649,0.13558
925.66496,0.14032
927.59343,0.14693
929.52189,0.15041
931.45036,0.14541
933.37883,0.14359
935.30730,0.15341
937.23577,0.15984
939.16424,0.15233
941.09271,0.14162
943.02117,0.13990
944.94964,0.14340
946.87811,0.14458
948.80658,0.14661
950.73505,0.15097
952.66352,0.15243
954.59199,0.15445
956.52045,0.16102
958.44892,0.16151
960.37739,0.15374
962.30586,0.14810
964.23433,0.14365
966.16280,0.13973
968.09127,0.14407
970.01974,0.15473
971.94820,0.15956
973.87667,0.15343
975.80514,0.14690
977.73361,0.14755
979.66208,0.15065
981.59055,0.15348
983.51902,0.15526
985.44748,0.15426
987.37595,0.15475
989.30442,0.15941
991.23289,0.15914
993.16136,0.14951
995.08983,0.14388
997.01830,0.14748
998.94677,0.14735
1000.87523,0.14423
1002.80370,0.14824
1004.73217,0.15615
1006.66064,0.16279
1008.58911,0.16473
1010.51758,0.15926
1012.44605,0.15101
1014.37451,0.14658
1016.30298,0.14803
1018.23145,0.15200
1020.15992,0.15759
1022.08839,0.16642
1024.01686,0.17285
1025.94533,0.17613
1027.87380,0.18111
1029.80226,0.17841
1031.73073,0.16611
1033.65920,0.15963
1035.58767,0.15863
1037.51614,0.15485
1039.44461,0.15245
1041.37308,0.15319
1043.30154,0.15385
1045.23001,0.15336
1047.15848,0.14879
1049.08695,0.14584
1051.01542,0.15121
1052.94389,0.15196
1054.87236,0.14514
1056.80083,0.14389
1058.72929,0.14526
1060.65776,0.14588
1062.58623,0.15340
1064.51470,0.16701
1066.44317,0.17693
1068.37164,0.17367
1070.30011,0.16095
1072.22857,0.15679
1074.15704,0.16411
1076.08551,0.16658
1078.01398,0.15966
1079.94245,0.15373
1081.87092,0.15452
1083.79939,0.15699
1085.72786,0.15395
1087.65632,0.15285
1089.58479,0.16059
1091.51326,0.16604
1093.44173,0.16472
1095.37020,0.16179
1097.29867,0.15872
1099.22714,0.15762
1101.15560,0.16050
1103.08407,0.16259
1105.01254,0.15844
1106.94101,0.15756
1108.86948,0.16788
1110.79795,0.17803
1112.72642,0.17814
1114.65489,0.17146
1116.58335,0.16353
1118.51182,0.15888
1120.44029,0.15956
1122.36876,0.15992
1124.29723,0.15784
1126.22570,0.16121
1128.15417,0.16736
1130.08263,0.16641
1132.01110,0.16282
1133.93957,0.16147
1135.86804,0.16005
1137.79651,0.16050
1139.72498,0.16218
1141.65345,0.16111
1143.58191,0.15864
1145.51038,0.15572
1147.43885,0.15138
1149.36732,0.14943
1151.29579,0.15321
1153.22426,0.15998
1155.15273,0.16615
1157.08120,0.17163
1159.00966,0.17736
1160.93813,0.18052
1162.86660,0.17762
1164.79507,0.17146
1166.72354,0.16895
1168.65201,0.17075
1170.58048,0.17238
1172.50894,0.17305
1174.43741,0.17302
1176.36588,0.17226
1178.29435,0.17128
1180.22282,0.16942
1182.15129,0.16697
1184.07976,0.16470
1186.00823,0.16262
1187.93669,0.16275
1189.86516,0.16595
1191.79363,0.16789
1193.72210,0.16700
1195.65057,0.16815
1197.57904,0.17249
1199.50751,0.17490
1201.43597,0.17469
1203.36444,0.17460
1205.29291,0.17356
1207.22138,0.17111
1209.14985,0.16924
1211.07832,0.16891
1213.00679,0.16944
1214.93526,0.17065
1216.86372,0.17132
1218.79219,0.16950
1220.72066,0.16768
1222.64913,0.16726
1224.57760,0.16569
1226.50607,0.16152
1228.43454,0.15531
1230.36300,0.15358
1232.29147,0.16092
1234.21994,0.16854
1236.14841,0.16966
1238.07688,0.16860
1240.00535,0.16821
1241.93382,0.16702
1243.86229,0.16469
1245.79075,0.16318
1247.71922,0.16484
1249.64769,0.16964
1251.57616,0.17393
1253.50463,0.17483
1255.43310,0.17331
1257.36157,0.17083
1259.29003,0.16760
1261.21850,0.16311
1263.14697,0.15810
1265.07544,0.15606
1267.00391,0.15961
1268.93238,0.16351
1270.86085,0.16408
1272.78932,0.16494
1274.71778,0.16553
1276.64625,0.16496
1278.57472,0.16429
1280.50319,0.16189
1282.43166,0.16252
1284.36013,0.17194
1286.28860,0.18205
1288.21706,0.18491
1290.14553,0.18252
1292.07400,0.17638
1294.00247,0.16978
1295.93094,0.16624
1297.85941,0.16461
1299.78788,0.16230
1301.71634,0.15455
1303.64481,0.14287
1305.57328,0.14236
1307.50175,0.15729
1309.43022,0.17135
1311.35869,0.17639
1313.28716,0.17488
1315.21563,0.17086
1317.14409,0.17118
1319.07256,0.17350
1321.00103,0.17224
1322.92950,0.17051
1324.85797,0.16836
1326.78644,0.16531
1328.71491,0.16557
1330.64337,0.16659
1332.57184,0.16707
1334.50031,0.16911
1336.42878,0.16994
1338.35725,0.16921
1340.28572,0.16772
1342.21419,0.16486
1344.14266,0.16236
1346.07112,0.16530
1347.99959,0.17132
1349.92806,0.17232
1351.85653,0.17115
1353.78500,0.16898
1355.71347,0.16522
1357.64194,0.16535
1359.57040,0.16868
1361.49887,0.17095
1363.42734,0.17130
1365.35581,0.17129
1367.28428,0.17226
1369.21275,0.17486
1371.14122,0.17774
1373.06969,0.18117
1374.99815,0.18532
1376.92662,0.18594
1378.85509,0.18352
1380.78356,0.18229
1382.71203,0.18430
1384.64050,0.18848
1386.56897,0.19300
1388.49743,0.19215
1390.42590,0.18371
1392.35437,0.17681
1394.28284,0.17998
1396.21131,0.19066
1398.13978,0.19562
1400.06825,0.18951
1401.99672,0.18269
1403.92518,0.18484
1405.85365,0.18928
1407.78212,0.18685
1409.71059,0.18348
1411.63906,0.18403
1413.56753,0.18697
1415.49600,0.19128
1417.42446,0.19537
1419.35293,0.19416
1421.28140,0.18843
1423.20987,0.18529
1425.13834,0.18541
1427.06681,0.18723
1428.99528,0.18989
1430.92375,0.18975
1432.85221,0.18813
1434.78068,0.18956
1436.70915,0.18938
1438.63762,0.18579
1440.56609,0.18563
1442.49456,0.18639
1444.42303,0.18426
1446.35149,0.18327
1448.27996,0.18578
1450.20843,0.18600
1452.13690,0.18417
1454.06537,0.18706
1455.99384,0.19769
1457.92231,0.20230
1459.85077,0.19528
1461.77924,0.19342
1463.70771,0.19718
1465.63618,0.19703
1467.56465,0.19005
1469.49312,0.18916
1471.42159,0.19895
1473.35006,0.20772
1475.27852,0.20445
1477.20699,0.19849
1479.13546,0.19503
1481.06393,0.19150
1482.99240,0.18720
1484.92087,0.18842
1486.84934,0.19769
1488.77780,0.20816
1490.70627,0.20872
1492.63474,0.20173
1494.56321,0.19697
1496.49168,0.19744
1498.42015,0.19994
1500.34862,0.19957
1502.27709,0.19809
1504.20555,0.20334
1506.13402,0.21937
1508.06249,0.22047
1509.99096,0.20524
1511.91943,0.19489
1513.84790,0.19371
1515.77637,0.20059
1517.70483,0.20641
1519.63330,0.20972
1521.56177,0.21509
1523.49024,0.21383
1525.41871,0.20356
1527.34718,0.19271
1529.27565,0.19012
1531.20412,0.19505
1533.13258,0.19830
1535.06105,0.19546
1536.98952,0.19730
1538.91799,0.20682
1540.84646,0.21449
1542.77493,0.21149
1544.70340,0.20202
1546.63186,0.19268
1548.56033,0.19158
1550.48880,0.19697
1552.41727,0.20095
1554.34574,0.20314
1556.27421,0.20956
1558.20268,0.21804
1560.13115,0.20506
1562.05961,0.19283
1563.98808,0.19017
1565.91655,0.19011
1567.84502,0.19170
1569.77349,0.19220
1571.70196,0.18805
1573.63043,0.18585
1575.55889,0.18697
1577.48736,0.18651
1579.41583,0.18650
1581.34430,0.18847
1583.27277,0.18821
1585.20124,0.18343
1587.12971,0.17969
1589.05818,0.18023
1590.98664,0.18145
1592.91511,0.18323
1594.84358,0.18451
1596.77205,0.18314
1598.70052,0.18274
1600.62899,0.18345
1602.55746,0.18352
1604.48592,0.18568
1606.41439,0.18930
1608.34286,0.19039
1610.27133,0.18924
1612.19980,0.18924
1614.12827,0.19257
1616.05674,0.19715
1617.98521,0.19585
1619.91367,0.19190
1621.84214,0.19106
1623.77061,0.19259
1625.69908,0.19420
1627.62755,0.19590
1629.55602,0.19767
1631.48449,0.20088
1633.41295,0.20770
1635.34142,0.21466
1637.26989,0.20845
1639.19836,0.19860
1641.12683,0.19726
1643.05530,0.20419
1644.98377,0.21739
1646.91223,0.22888
1648.84070,0.22541
1650.76917,0.22426
1652.69764,0.23288
1654.62611,0.22335
1656.55458,0.20783
1658.48305,0.20192
1660.41152,0.19999
1662.33998,0.19754
1664.26845,0.19508
1666.19692,0.19727
1668.12539,0.20606
1670.05386,0.21267
1671.98233,0.20986
1673.91080,0.20817
1675.83926,0.20939
1677.76773,0.21066
1679.69620,0.21355
1681.62467,0.22006
1683.55314,0.22452
1685.48161,0.21349
1687.41008,0.20293
1689.33855,0.19914
1691.26701,0.19860
1693.19548,0.20318
1695.12395,0.21294
1697.05242,0.21899
1698.98089,0.21886
1700.90936,0.21650
1702.83783,0.21329
1704.76629,0.21108
1706.69476,0.20464
1708.62323,0.19602
1710.55170,0.19261
1712.48017,0.19622
1714.40864,0.20732
1716.33711,0.21928
1718.26558,0.21130
1720.19404,0.19495
1722.12251,0.18741
1724.05098,0.18485
1725.97945,0.18390
1727.90792,0.18488
1729.83639,0.18844
1731.76486,0.19486
1733.69332,0.20143
1735.62179,0.20166
1737.55026,0.20034
1739.47873,0.20029
1741.40720,0.19991
1743.33567,0.19965
1745.26414,0.20062
1747.19261,0.20394
1749.12107,0.20482
1751.04954,0.19494
1752.97801,0.18477
1754.90648,0.18479
1756.83495,0.19050
1758.76342,0.19364
1760.69189,0.19381
1762.62035,0.19367
1764.54882,0.19260
1766.47729,0.19169
1768.40576,0.19308
1770.33423,0.19795
1772.26270,0.20334
1774.19117,0.20234
1776.11964,0.19787
1778.04810,0.19743
1779.97657,0.20013
1781.90504,0.19719
1783.83351,0.19142
1785.76198,0.19003
1787.69045,0.19077
1789.61892,0.19349
1791.54738,0.19980
1793.47585,0.20327
1795.40432,0.20088
1797.33279,0.19921
1799.26126,0.20054
1801.18973,0.20054
1803.11820,0.19687
1805.04666,0.19344
1806.97513,0.19284
1808.90360,0.19497
1810.83207,0.19753
1812.76054,0.19770
1814.68901,0.19665
1816.61748,0.19688
1818.54595,0.19707
1820.47441,0.19448
1822.40288,0.19247
1824.33135,0.19455
1826.25982,0.19674
1828.18829,0.19761
1830.11676,0.19806
1832.04523,0.19660
1833.97369,0.19543
1835.90216,0.19549
1837.83063,0.19460
1839.75910,0.19204
1841.68757,0.19248
1843.61604,0.19829
1845.54451,0.20004
1847.47298,0.19495
1849.40144,0.19088
1851.32991,0.18900
1853.25838,0.18806
1855.18685,0.18913
1857.11532,0.19203
1859.04379,0.19516
1860.97226,0.19663
1862.90072,0.19537
1864.82919,0.19570
1866.75766,0.20133
1868.68613,0.20454
1870.61460,0.19748
1872.54307,0.18940
1874.47154,0.18571
1876.40001,0.18472
1878.32847,0.18627
1880.25694,0.18926
1882.18541,0.19148
1884.11388,0.19237
1886.04235,0.19210
1887.97082,0.19234
1889.89929,0.19226
1891.82775,0.19043
1893.75622,0.19112
1895.68469,0.19445
1897.61316,0.19392
1899.54163,0.19034
1901.47010,0.18953
1903.39857,0.19052
1905.32704,0.19109
1907.25550,0.19223
1909.18397,0.19198
1911.11244,0.18997
1913.04091,0.18964
1914.96938,0.19064
1916.89785,0.19098
1918.82632,0.19093
1920.75478,0.19226
1922.68325,0.19482
1924.61172,0.19483
1926.54019,0.19117
1928.46866,0.18865
1930.39713,0.18947
1932.32560,0.18936
1934.25407,0.18779
1936.18253,0.18760
1938.11100,0.18801
1940.03947,0.18974
1941.96794,0.19239
1943.89641,0.19215
1945.82488,0.19149
1947.75335,0.19330
1949.68181,0.19461
1951.61028,0.19468
1953.53875,0.19439
1955.46722,0.19284
1957.39569,0.19186
1959.32416,0.19192
1961.25263,0.19057
1963.18110,0.18993
1965.10956,0.19191
1967.03803,0.19391
1968.96650,0.19369
1970.89497,0.19001
1972.82344,0.18616
1974.75191,0.18840
1976.68038,0.19340
1978.60884,0.19519
1980.53731,0.19490
1982.46578,0.19274
1984.39425,0.18972
1986.32272,0.18918
1988.25119,0.19015
1990.17966,0.19128
1992.10812,0.19260
1994.03659,0.19199
1995.96506,0.19042
1997.89353,0.19087
1999.82200,0.19119
2001.75047,0.18985
2003.67894,0.19067
2005.60741,0.19316
2007.53587,0.19294
2009.46434,0.19098
2011.39281,0.19036
2013.32128,0.19068
2015.24975,0.19090
2017.17822,0.19082
2019.10669,0.19019
2021.03515,0.19004
2022.96362,0.19064
2024.89209,0.19045
2026.82056,0.18968
2028.74903,0.18979
2030.67750,0.19142
2032.60597,0.19355
2034.53444,0.19335
2036.46290,0.19121
2038.39137,0.19062
2040.31984,0.19092
2042.24831,0.18940
2044.17678,0.18852
2046.10525,0.19072
2048.03372,0.19329
2049.96218,0.19362
2051.89065,0.19245
2053.81912,0.19177
2055.74759,0.19167
2057.67606,0.19211
2059.60453,0.19271
2061.53300,0.19294
2063.46147,0.19442
2065.38993,0.19519
2067.31840,0.19299
2069.24687,0.19148
2071.17534,0.19289
2073.10381,0.19485
2075.03228,0.19491
2076.96075,0.19322
2078.88921,0.19113
2080.81768,0.19048
2082.74615,0.19105
2084.67462,0.19002
2086.60309,0.18790
2088.53156,0.18849
2090.46003,0.19198
2092.38850,0.19324
2094.31696,0.19092
2096.24543,0.18889
2098.17390,0.18857
2100.10237,0.18913
2102.03084,0.18946
2103.95931,0.18921
2105.88778,0.19049
2107.81624,0.19300
2109.74471,0.19369
2111.67318,0.19415
2113.60165,0.19578
2115.53012,0.19498
2117.45859,0.19190
2119.38706,0.19152
2121.31553,0.19468
2123.24399,0.19679
2125.17246,0.19567
2127.10093,0.19312
2129.02940,0.19072
2130.95787,0.18964
2132.88634,0.19101
2134.81481,0.19428
2136.74327,0.19649
2138.67174,0.19581
2140.60021,0.19448
2142.52868,0.19405
2144.45715,0.19354
2146.38562,0.19328
2148.31409,0.19395
2150.24255,0.19466
2152.17102,0.19383
2154.09949,0.19150
2156.02796,0.19005
2157.95643,0.19123
2159.88490,0.19434
2161.81337,0.19767
2163.74184,0.19960
2165.67030,0.19811
2167.59877,0.19458
2169.52724,0.19320
2171.45571,0.19290
2173.38418,0.19089
2175.31265,0.18914
2177.24112,0.19050
2179.16958,0.19373
2181.09805,0.19600
2183.02652,0.19646
2184.95499,0.19440
2186.88346,0.19077
2188.81193,0.18901
2190.74040,0.19002
2192.66887,0.19199
2194.59733,0.19308
2196.52580,0.19336
2198.45427,0.19382
2200.38274,0.19246
2202.31121,0.18833
2204.23968,0.18626
2206.16815,0.18952
2208.09661,0.19502
2210.02508,0.19851
2211.95355,0.19758
2213.88202,0.19322
2215.81049,0.19009
2217.73896,0.19043
2219.66743,0.19189
2221.59590,0.19255
2223.52436,0.19258
2225.45283,0.19165
2227.38130,0.18972
2229.30977,0.18885
2231.23824,0.18979
2233.16671,0.19080
2235.09518,0.19146
2237.02364,0.19302
2238.95211,0.19499
2240.88058,0.19534
2242.80905,0.19446
2244.73752,0.19471
2246.66599,0.19578
2248.59446,0.19530
2250.52293,0.19424
2252.45139,0.19433
2254.37986,0.19412
2256.30833,0.19301
2258.23680,0.19204
2260.16527,0.19119
2262.09374,0.19068
2264.02221,0.19170
2265.95067,0.19299
2267.87914,0.19233
2269.80761,0.19155
2271.73608,0.19267
2273.66455,0.19389
2275.59302,0.19269
2277.52149,0.18954
2279.44996,0.18751
2281.37842,0.18869
2283.30689,0.19219
2285.23536,0.19446
2287.16383,0.19275
2289.09230,0.18949
2291.02077,0.18982
2292.94924,0.19277
2294.87770,0.19328
2296.80617,0.19238
2298.73464,0.19360
2300.66311,0.19457
2302.59158,0.19256
2304.52005,0.18941
2306.44852,0.18501
2308.37699,0.17937
2310.30545,0.17621
2312.23392,0.17594
2314.16239,0.17585
2316.09086,0.17655
2318.01933,0.18118
2319.94780,0.18602
2321.87627,0.18324
2323.80473,0.17260
2325.73320,0.16177
2327.66167,0.16127
2329.59014,0.16952
2331.51861,0.17442
2333.44708,0.17534
2335.37555,0.17509
2337.30401,0.17181
2339.23248,0.17446
2341.16095,0.18558
2343.08942,0.18513
2345.01789,0.17348
2346.94636,0.16879
2348.87483,0.16706
2350.80330,0.16497
2352.73176,0.16907
2354.66023,0.17309
2356.58870,0.15419
2358.51717,0.13099
2360.44564,0.14576
2362.37411,0.17385
2364.30258,0.17645
2366.23104,0.16724
2368.15951,0.16495
2370.08798,0.16673
2372.01645,0.16497
2373.94492,0.16739
2375.87339,0.17797
2377.80186,0.18381
2379.73033,0.18146
2381.65879,0.18121
2383.58726,0.18688
2385.51573,0.19271
2387.44420,0.19553
2389.37267,0.19646
2391.30114,0.19608
2393.22961,0.19520
2395.15807,0.19379
2397.08654,0.19238
2399.01501,0.19323
2400.94348,0.19488
2402.87195,0.19384
2404.80042,0.19216
2406.72889,0.19288
2408.65736,0.19338
2410.58582,0.19089
2412.51429,0.18781
2414.44276,0.18861
2416.37123,0.19142
2418.29970,0.19230
2420.22817,0.19319
2422.15664,0.19526
2424.08510,0.19667
2426.01357,0.19577
2427.94204,0.19362
2429.87051,0.19358
2431.79898,0.19507
2433.72745,0.19644
2435.65592,0.19773
2437.58439,0.19673
2439.51285,0.19374
2441.44132,0.19260
2443.36979,0.19454
2445.29826,0.19894
2447.22673,0.20060
2449.15520,0.19645
2451.08367,0.19357
2453.01213,0.19318
2454.94060,0.19235
2456.86907,0.19279
2458.79754,0.19267
2460.72601,0.19231
2462.65448,0.19352
2464.58295,0.19324
2466.51142,0.19099
2468.43988,0.19006
2470.36835,0.19194
2472.29682,0.19464
2474.22529,0.19648
2476.15376,0.19760
2478.08223,0.19704
2480.01070,0.19523
2481.93916,0.19497
2483.86763,0.19505
2485.79610,0.19413
2487.72457,0.19476
2489.65304,0.19589
2491.58151,0.19379
2493.50998,0.18966
2495.43844,0.18857
2497.36691,0.19106
2499.29538,0.19436
2501.22385,0.19863
2503.15232,0.20087
2505.08079,0.19792
2507.00926,0.19480
2508.93773,0.19526
2510.86619,0.19561
2512.79466,0.19451
2514.72313,0.19444
2516.65160,0.19554
2518.58007,0.19668
2520.50854,0.19583
2522.43701,0.19230
2524.36547,0.18938
2526.29394,0.18913
2528.22241,0.19037
2530.15088,0.19202
2532.07935,0.19268
2534.00782,0.19163
2535.93629,0.19145
2537.86476,0.19298
2539.79322,0.19422
2541.72169,0.19567
2543.65016,0.19750
2545.57863,0.19778
2547.50710,0.19585
2549.43557,0.19319
2551.36404,0.19302
2553.29250,0.19567
2555.22097,0.19747
2557.14944,0.19761
2559.07791,0.19769
2561.00638,0.19731
2562.93485,0.19468
2564.86332,0.19085
2566.79179,0.19007
2568.72025,0.19173
2570.64872,0.19261
2572.57719,0.19438
2574.50566,0.19763
2576.43413,0.19967
2578.36260,0.20039
2580.29107,0.19987
2582.21953,0.19635
2584.14800,0.19177
2586.07647,0.19166
2588.00494,0.19526
2589.93341,0.19623
2591.86188,0.19438
2593.79035,0.19340
2595.71882,0.19461
2597.64728,0.19750
2599.57575,0.20035
2601.50422,0.20148
2603.43269,0.19977
2605.36116,0.19686
2607.28963,0.19512
2609.21810,0.19520
2611.14656,0.19745
2613.07503,0.20011
2615.00350,0.20179
2616.93197,0.20392
2618.86044,0.20584
2620.78891,0.20441
2622.71738,0.19918
2624.64585,0.19500
2626.57431,0.19536
2628.50278,0.19798
2630.43125,0.19988
2632.35972,0.19926
2634.28819,0.19696
2636.21666,0.19559
2638.14513,0.19532
2640.07359,0.19565
2642.00206,0.19658
2643.93053,0.19594
2645.85900,0.19303
2647.78747,0.19269
2649.71594,0.19784
2651.64441,0.20499
2653.57288,0.20817
2655.50134,0.20482
2657.42981,0.19838
2659.35828,0.19352
2661.28675,0.19401
2663.21522,0.19817
2665.14369,0.20015
2667.07216,0.19990
2669.00062,0.20009
2670.92909,0.20103
2672.85756,0.20157
2674.78603,0.20166
2676.71450,0.20352
2678.64297,0.20558
2680.57144,0.20420
2682.49990,0.20047
2684.42837,0.19715
2686.35684,0.19581
2688.28531,0.19605
2690.21378,0.19616
2692.14225,0.19712
2694.07072,0.20059
2695.99919,0.20393
2697.92765,0.20354
2699.85612,0.20125
2701.78459,0.20110
2703.71306,0.20250
2705.64153,0.20240
2707.57000,0.20301
2709.49847,0.20573
2711.42693,0.20535
2713.35540,0.20282
2715.28387,0.20256
2717.21234,0.20355
2719.14081,0.20563
2721.06928,0.20689
2722.99775,0.20332
2724.92622,0.19796
2726.85468,0.19635
2728.78315,0.19772
2730.71162,0.19822
2732.64009,0.19811
2734.56856,0.20015
2736.49703,0.20253
2738.42550,0.20310
2740.35396,0.20396
2742.28243,0.20596
2744.21090,0.20763
2746.13937,0.20701
2748.06784,0.20451
2749.99631,0.20285
2751.92478,0.20304
2753.85325,0.20525
2755.78171,0.20719
2757.71018,0.20492
2759.63865,0.20280
2761.56712,0.20469
2763.49559,0.20371
2765.42406,0.20038
2767.35253,0.20247
2769.28099,0.20683
2771.20946,0.20663
2773.13793,0.20432
2775.06640,0.20537
2776.99487,0.20806
2778.92334,0.20904
2780.85181,0.20746
2782.78028,0.20465
2784.70874,0.20390
2786.63721,0.20503
2788.56568,0.20680
2790.49415,0.20931
2792.42262,0.21175
2794.35109,0.21411
2796.27956,0.21453
2798.20802,0.21014
2800.13649,0.20442
2802.06496,0.20303
2803.99343,0.20529
2805.92190,0.20718
2807.85037,0.20788
2809.77884,0.20816
2811.70731,0.20726
2813.63577,0.20633
2815.56424,0.20717
2817.49271,0.21040
2819.42118,0.21432
2821.34965,0.21364
2823.27812,0.20924
2825.20659,0.20874
2827.13505,0.21277
2829.06352,0.21464
2830.99199,0.21355
2832.92046,0.21346
2834.84893,0.21444
2836.77740,0.21509
2838.70587,0.21383
2840.63433,0.21082
2842.56280,0.20799
2844.49127,0.20465
2846.41974,0.20196
2848.34821,0.20308
2850.27668,0.20665
2852.20515,0.20948
2854.13362,0.21029
2856.06208,0.20868
2857.99055,0.20582
2859.91902,0.20542
2861.84749,0.20879
2863.77596,0.21120
2865.70443,0.21043
2867.63290,0.21002
2869.56136,0.21109
2871.48983,0.21236
2873.41830,0.21232
2875.34677,0.21027
2877.27524,0.20938
2879.20371,0.21200
2881.13218,0.21487
2883.06065,0.21398
2884.98911,0.21071
2886.91758,0.21007
2888.84605,0.21151
2890.77452,0.20931
2892.70299,0.20411
2894.63146,0.20132
2896.55993,0.20243
2898.48839,0.20452
2900.41686,0.20453
2902.34533,0.20300
2904.27380,0.20095
2906.20227,0.20009
2908.13074,0.20267
2910.05921,0.20514
2911.98768,0.20427
2913.91614,0.20147
2915.84461,0.19835
2917.77308,0.19773
2919.70155,0.20116
2921.63002,0.20594
2923.55849,0.20638
2925.48696,0.20210
2927.41542,0.20147
2929.34389,0.20600
2931.27236,0.20967
2933.20083,0.20835
2935.12930,0.20046
2937.05777,0.19262
2938.98624,0.19195
2940.91471,0.19434
2942.84317,0.19633
2944.77164,0.19736
2946.70011,0.19450
2948.62858,0.19316
2950.55705,0.19779
2952.48552,0.20204
2954.41399,0.20184
2956.34245,0.19669
2958.27092,0.19343
2960.19939,0.20026
2962.12786,0.21016
2964.05633,0.21388
2965.98480,0.20979
2967.91327,0.20214
2969.84174,0.19982
2971.77020,0.20355
2973.69867,0.20887
2975.62714,0.21241
2977.55561,0.21109
2979.48408,0.20803
2981.41255,0.20740
2983.34102,0.21100
2985.26948,0.21472
2987.19795,0.20979
2989.12642,0.20240
2991.05489,0.20359
2992.98336,0.21090
2994.91183,0.21818
2996.84030,0.21905
2998.76877,0.21488
3000.69723,0.21330
3002.62570,0.21184
3004.55417,0.20845
3006.48264,0.20594
3008.41111,0.20358
3010.33958,0.19721
3012.26805,0.18070
3014.19651,0.15457
3016.12498,0.13452
3018.05345,0.14546
3019.98192,0.18279
3021.91039,0.20862
3023.83886,0.21051
3025.76733,0.20721
3027.69579,0.20922
3029.62426,0.21172
3031.55273,0.20935
3033.48120,0.20686
3035.40967,0.20836
3037.33814,0.20934
3039.26661,0.21080
3041.19508,0.21660
3043.12354,0.22117
3045.05201,0.21570
3046.98048,0.20388
3048.90895,0.20099
3050.83742,0.20917
3052.76589,0.21499
3054.69436,0.21088
3056.62282,0.20274
3058.55129,0.20350
3060.47976,0.21461
3062.40823,0.22197
3064.33670,0.21607
3066.26517,0.20588
3068.19364,0.20478
3070.12211,0.20994
3072.05057,0.21290
3073.97904,0.21045
3075.90751,0.20493
3077.83598,0.20546
3079.76445,0.21125
3081.69292,0.21501
3083.62139,0.21298
3085.54985,0.20598
3087.47832,0.20562
3089.40679,0.21093
3091.33526,0.20877
3093.26373,0.19948
3095.19220,0.19577
3097.12067,0.20428
3099.04914,0.21302
3100.97760,0.20969
3102.90607,0.19753
3104.83454,0.19341
3106.76301,0.20337
3108.69148,0.21066
3110.61995,0.20834
3112.54842,0.20712
3114.47688,0.21135
3116.40535,0.21480
3118.33382,0.21364
3120.26229,0.20974
3122.19076,0.20746
3124.11923,0.21022
3126.04770,0.21420
3127.97617,0.21206
3129.90463,0.20477
3131.83310,0.20244
3133.76157,0.20781
3135.69004,0.21316
3137.61851,0.21242
3139.54698,0.21043
3141.47545,0.21502
3143.40391,0.21877
3145.33238,0.21419
3147.26085,0.20936
3149.18932,0.21109
3151.11779,0.21638
3153.04626,0.22156
3154.97473,0.22351
3156.90320,0.21957
3158.83166,0.21289
3160.76013,0.20975
3162.68860,0.21218
3164.61707,0.21706
3166.54554,0.22218
3168.47401,0.22435
3170.40248,0.21837
3172.33094,0.20991
3174.25941,0.21040
3176.18788,0.21792
3178.11635,0.22262
3180.04482,0.22157
3181.97329,0.21895
3183.90176,0.21881
3185.83022,0.21892
3187.75869,0.21584
3189.68716,0.21313
3191.61563,0.21558
3193.54410,0.22202
3195.47257,0.22587
3197.40104,0.22317
3199.32951,0.22094
3201.25797,0.22239
3203.18644,0.22023
3205.11491,0.21609
3207.04338,0.21512
3208.97185,0.21317
3210.90032,0.20975
3212.82879,0.21159
3214.75725,0.21682
3216.68572,0.21690
3218.61419,0.21510
3220.54266,0.21737
3222.47113,0.21878
3224.39960,0.21519
3226.32807,0.21198
3228.25654,0.21116
3230.18500,0.20921
3232.11347,0.21182
3234.04194,0.22138
3235.97041,0.22598
3237.89888,0.21861
3239.82735,0.20805
3241.75582,0.20348
3243.68428,0.20396
3245.61275,0.20806
3247.54122,0.21589
3249.46969,0.22378
3251.39816,0.22506
3253.32663,0.21721
3255.25510,0.20873
3257.18357,0.20846
3259.11203,0.21276
3261.04050,0.21605
3262.96897,0.21748
3264.89744,0.21583
3266.82591,0.21404
3268.75438,0.21279
3270.68285,0.20883
3272.61131,0.20583
3274.53978,0.20799
3276.46825,0.21190
3278.39672,0.21192
3280.32519,0.21090
3282.25366,0.21230
3284.18213,0.21226
3286.11060,0.21128
3288.03906,0.21172
3289.96753,0.21094
3291.89600,0.20846
3293.82447,0.20687
3295.75294,0.20784
3297.68141,0.21078
3299.60988,0.21031
3301.53834,0.20557
3303.46681,0.20452
3305.39528,0.20904
3307.32375,0.21186
3309.25222,0.20828
3311.18069,0.20540
3313.10916,0.20971
3315.03763,0.21556
3316.96609,0.21814
3318.89456,0.21796
3320.82303,0.21834
3322.75150,0.21930
3324.67997,0.21751
3326.60844,0.21685
3328.53691,0.21843
3330.46537,0.21393
3332.39384,0.20630
3334.32231,0.20904
3336.25078,0.21610
3338.17925,0.21490
3340.10772,0.21199
3342.03619,0.21254
3343.96466,0.21282
3345.89312,0.21031
3347.82159,0.20789
3349.75006,0.21100
3351.67853,0.21584
3353.60700,0.21666
3355.53547,0.21404
3357.46394,0.21102
3359.39240,0.21099
3361.32087,0.21082
3363.24934,0.20652
3365.17781,0.20397
3367.10628,0.20768
3369.03475,0.21086
3370.96322,0.21032
3372.89168,0.21229
3374.82015,0.21654
3376.74862,0.21966
3378.67709,0.22182
3380.60556,0.22056
3382.53403,0.21792
3384.46250,0.21708
3386.39097,0.21612
3388.31943,0.21702
3390.24790,0.22214
3392.17637,0.22730
3394.10484,0.22774
3396.03331,0.22528
3397.96178,0.22097
3399.89025,0.21380
3401.81871,0.21005
3403.74718,0.21209
3405.67565,0.21606
3407.60412,0.22126
3409.53259,0.22139
3411.46106,0.21440
3413.38953,0.21196
3415.31800,0.21666
3417.24646,0.21995
3419.17493,0.21953
3421.10340,0.22048
3423.03187,0.22017
3424.96034,0.20964
3426.88881,0.19895
3428.81728,0.20199
3430.74574,0.21071
3432.67421,0.21485
3434.60268,0.21233
3436.53115,0.20405
3438.45962,0.19628
3440.38809,0.19485
3442.31656,0.20125
3444.24503,0.20868
3446.17349,0.20928
3448.10196,0.20454
3450.03043,0.19714
3451.95890,0.19165
3453.88737,0.19353
3455.81584,0.19906
3457.74431,0.20296
3459.67277,0.20467
3461.60124,0.20357
3463.52971,0.19957
3465.45818,0.19546
3467.38665,0.19568
3469.31512,0.20043
3471.24359,0.20162
3473.17206,0.19453
3475.10052,0.18697
3477.02899,0.18556
3478.95746,0.18670
3480.88593,0.18725
3482.81440,0.18877
3484.74287,0.19271
3486.67134,0.19811
3488.59980,0.20031
3490.52827,0.19614
3492.45674,0.19202
3494.38521,0.19303
3496.31368,0.19184
3498.24215,0.18809
3500.17062,0.19068
3502.09909,0.19539
3504.02755,0.19547
3505.95602,0.19269
3507.88449,0.18682
3509.81296,0.17955
3511.74143,0.17675
3513.66990,0.17550
3515.59837,0.17095
3517.52683,0.16981
3519.45530,0.17435
3521.38377,0.17624
3523.31224,0.17455
3525.24071,0.17440
3527.16918,0.17723
3529.09765,0.17934
3531.02611,0.17588
3532.95458,0.17273
3534.88305,0.17732
3536.81152,0.18170
3538.73999,0.17728
3540.66846,0.17147
3542.59693,0.17195
3544.52540,0.17879
3546.45386,0.18454
3548.38233,0.17990
3550.31080,0.17155
3552.23927,0.16927
3554.16774,0.16800
3556.09621,0.16347
3558.02468,0.16239
3559.95314,0.16795
3561.88161,0.17509
3563.81008,0.17950
3565.73855,0.18183
3567.66702,0.18083
3569.59549,0.17563
3571.52396,0.16873
3573.45243,0.16326
3575.38089,0.16180
3577.30936,0.15981
3579.23783,0.15616
3581.16630,0.15724
3583.09477,0.16061
3585.02324,0.16167
3586.95171,0.16363
3588.88017,0.16273
3590.80864,0.15762
3592.73711,0.15713
3594.66558,0.15751
3596.59405,0.15207
3598.52252,0.14876
3600.45099,0.14997
3602.37946,0.15041
3604.30792,0.15237
3606.23639,0.16050
3608.16486,0.16858
3610.09333,0.16432
3612.02180,0.15658
3613.95027,0.15521
3615.87874,0.15592
3617.80720,0.15869
3619.73567,0.16162
3621.66414,0.15717
3623.59261,0.14938
3625.52108,0.14370
3627.44955,0.14384
3629.37802,0.15026
3631.30649,0.15198
3633.23495,0.14724
3635.16342,0.14120
3637.09189,0.13947
3639.02036,0.14303
3640.94883,0.14572
3642.87730,0.14614
3644.80577,0.14939
3646.73423,0.15508
3648.66270,0.16073
3650.59117,0.16053
3652.51964,0.15330
3654.44811,0.14729
3656.37658,0.14210
3658.30505,0.13665
3660.23352,0.13402
3662.16198,0.13359
3664.09045,0.13441
3666.01892,0.13745
3667.94739,0.14181
3669.87586,0.14425
3671.80433,0.14575
3673.73280,0.14919
3675.66126,0.14787
3677.58973,0.13885
3679.51820,0.13421
3681.44667,0.13603
3683.37514,0.13794
3685.30361,0.13530
3687.23208,0.13289
3689.16055,0.13774
3691.08901,0.14340
3693.01748,0.14283
3694.94595,0.14000
3696.87442,0.13751
3698.80289,0.13699
3700.73136,0.13725
3702.65983,0.13567
3704.58829,0.13522
3706.51676,0.13717
3708.44523,0.14093
3710.37370,0.14956
3712.30217,0.15428
3714.23064,0.14772
3716.15911,0.14183
3718.08757,0.13996
3720.01604,0.14200
3721.94451,0.14537
3723.87298,0.14229
3725.80145,0.13420
3727.72992,0.12778
3729.65839,0.12335
3731.58686,0.12272
3733.51532,0.12990
3735.44379,0.13626
3737.37226,0.13310
3739.30073,0.13174
3741.22920,0.13643
3743.15767,0.14433
3745.08614,0.14910
3747.01460,0.14671
3748.94307,0.14553
3750.87154,0.14764
3752.80001,0.14334
3754.72848,0.13825
3756.65695,0.14071
3758.58542,0.14550
3760.51389,0.14334
3762.44235,0.13702
3764.37082,0.13227
3766.29929,0.13072
3768.22776,0.13307
3770.15623,0.13709
3772.08470,0.13703
3774.01317,0.13342
3775.94163,0.13054
3777.87010,0.13018
3779.79857,0.13203
3781.72704,0.13487
3783.65551,0.13560
3785.58398,0.13082
3787.51245,0.12629
3789.44092,0.12628
3791.36938,0.12580
3793.29785,0.12427
3795.22632,0.12411
3797.15479,0.12377
3799.08326,0.12444
3801.01173,0.13137
3802.94020,0.13849
3804.86866,0.13925
3806.79713,0.13634
3808.72560,0.12936
3810.65407,0.12419
3812.58254,0.12321
3814.51101,0.12592
3816.43948,0.13253
3818.36795,0.14218
3820.29641,0.15178
3822.22488,0.14582
3824.15335,0.13185
3826.08182,0.12779
3828.01029,0.13179
3829.93876,0.13635
3831.86723,0.13940
3833.79569,0.14203
3835.72416,0.14163
3837.65263,0.13574
3839.58110,0.13174
3841.50957,0.13211
3843.43804,0.12885
3845.36651,0.12387
3847.29498,0.12285
3849.22344,0.12540
3851.15191,0.13227
3853.08038,0.14158
3855.00885,0.13807
3856.93732,0.12886
3858.86579,0.12100
3860.79426,0.11872
3862.72272,0.12542
3864.65119,0.12966
3866.57966,0.12770
3868.50813,0.12994
3870.43660,0.13465
3872.36507,0.13344
3874.29354,0.12654
3876.22200,0.12036
3878.15047,0.12007
3880.07894,0.12190
3882.00741,0.11991
3883.93588,0.12021
3885.86435,0.12519
3887.79282,0.12525
3889.72129,0.12498
3891.64975,0.13126
3893.57822,0.13192
3895.50669,0.12555
3897.43516,0.12188
3899.36363,0.11976
3901.29210,0.11806
3903.22057,0.12113
3905.14903,0.12416
3907.07750,0.12348
3909.00597,0.12112
3910.93444,0.11687
3912.86291,0.11254
3914.79138,0.10981
3916.71985,0.11009
3918.64832,0.11540
3920.57678,0.11897
3922.50525,0.11616
3924.43372,0.11130
3926.36219,0.10746
3928.29066,0.10555
3930.21913,0.10696
3932.14760,0.11072
3934.07606,0.11346
3936.00453,0.11427
3937.93300,0.11308
3939.86147,0.10796
3941.78994,0.10269
3943.71841,0.10543
3945.64688,0.11240
3947.57535,0.11511
3949.50381,0.11408
3951.43228,0.11492
3953.36075,0.11805
3955.28922,0.11927
3957.21769,0.11791
3959.14616,0.11478
3961.07463,0.10930
3963.00309,0.10438
3964.93156,0.10561
3966.86003,0.11260
3968.78850,0.11638
3970.71697,0.11184
3972.64544,0.10726
3974.57391,0.10904
3976.50238,0.11325
3978.43084,0.11553
3980.35931,0.11231
3982.28778,0.10585
3984.21625,0.10434
3986.14472,0.10746
3988.07319,0.10901
3990.00166,0.10756
3991.93012,0.10633
3993.85859,0.10765
3995.78706,0.10978
3997.71553,0.11002
3999.64400,0.10963
4001.57247,0.10916
4003.50094,0.10686
4005.42941,0.10594
4007.35787,0.10926
4009.28634,0.11381
4011.21481,0.11509
4013.14328,0.11124
4015.07175,0.10559
4017.00022,0.10336
4018.92869,0.10437
4020.85715,0.10308
4022.78562,0.09923
4024.71409,0.09811
4026.64256,0.09991
4028.57103,0.10208
4030.49950,0.10645
4032.42797,0.11160
4034.35644,0.10928
4036.28490,0.09983
4038.21337,0.09413
4040.14184,0.09714
4042.07031,0.10399
4043.99878,0.10680
4045.92725,0.10285
4047.85572,0.09830
4049.78418,0.09892
4051.71265,0.10072
4053.64112,0.09854
4055.56959,0.09681
4057.49806,0.09820
4059.42653,0.09825
4061.35500,0.09734
4063.28346,0.09715
4065.21193,0.09505
4067.14040,0.09133
4069.06887,0.08956
4070.99734,0.09154
4072.92581,0.09711
4074.85428,0.10177
4076.78275,0.10102
4078.71121,0.09931
4080.63968,0.10069
4082.56815,0.10047
4084.49662,0.09784
4086.42509,0.10000
4088.35356,0.10331
4090.28203,0.09722
4092.21049,0.08866
4094.13896,0.08881
4096.06743,0.09128
4097.99590,0.08762
4099.92437,0.08443
4101.85284,0.08822
4103.78131,0.09146
4105.70978,0.08886
4107.63824,0.08781
4109.56671,0.09154
4111.49518,0.09618
4113.42365,0.09913
4115.35212,0.09827
4117.28059,0.09425
4119.20906,0.09018
4121.13752,0.08871
4123.06599,0.08908
4124.99446,0.08938
4126.92293,0.09038
4128.85140,0.08956
4130.77987,0.08563
4132.70834,0.08463
4134.63681,0.08815
4136.56527,0.09000
4138.49374,0.08777
4140.42221,0.08434
4142.35068,0.08396
4144.27915,0.08733
4146.20762,0.08790
4148.13609,0.08496
4150.06455,0.08552
4151.99302,0.08920
4153.92149,0.08966
4155.84996,0.08317
4157.77843,0.07253
4159.70690,0.06677
4161.63537,0.06972
4163.56384,0.07556
4165.49230,0.08021
4167.42077,0.08410
4169.34924,0.08669
4171.27771,0.08718
4173.20618,0.08657
4175.13465,0.08569
4177.06312,0.08282
4178.99158,0.07791
4180.92005,0.07568
4182.84852,0.07710
4184.77699,0.07973
4186.70546,0.08139
4188.63393,0.07820
4190.56240,0.07475
4192.49087,0.07779
4194.41933,0.08438
4196.34780,0.08990
4198.27627,0.08916
4200.20474,0.08275
4202.13321,0.07739
4204.06168,0.07321
4205.99015,0.07053
4207.91861,0.06987
4209.84708,0.06774
4211.77555,0.06639
4213.70402,0.06692
4215.63249,0.06523
4217.56096,0.06453
4219.48943,0.07040
4221.41789,0.07804
4223.34636,0.08012
4225.27483,0.07819
4227.20330,0.07446
4229.13177,0.07026
4231.06024,0.07011
4232.98871,0.07434
4234.91718,0.07694
4236.84564,0.07229
4238.77411,0.06506
4240.70258,0.06291
4242.63105,0.06557
4244.55952,0.06972
4246.48799,0.07180
4248.41646,0.07169
4250.34492,0.07270
4252.27339,0.07315
4254.20186,0.07102
4256.13033,0.07150
4258.05880,0.07401
4259.98727,0.07240
4261.91574,0.07082
4263.84421,0.07352
4265.77267,0.07340
4267.70114,0.06415
4269.62961,0.05300
4271.55808,0.05137
4273.48655,0.05738
4275.41502,0.06001
4277.34349,0.05928
4279.27195,0.06325
4281.20042,0.06805
4283.12889,0.06510
4285.05736,0.05832
4286.98583,0.05799
4288.91430,0.06258
4290.84277,0.06323
4292.77124,0.05929
4294.69970,0.05514
4296.62817,0.05697
4298.55664,0.06482
4300.48511,0.06881
4302.41358,0.06818
4304.34205,0.06979
4306.27052,0.06949
4308.19898,0.06312
4310.12745,0.05902
4312.05592,0.05996
4313.98439,0.05878
4315.91286,0.05400
4317.84133,0.04862
4319.76980,0.04446
4321.69827,0.04208
4323.62673,0.03993
4325.55520,0.04067
4327.48367,0.04671
4329.41214,0.05050
4331.34061,0.04614
4333.26908,0.03952
4335.19755,0.04012
4337.12601,0.04550
4339.05448,0.04570
4340.98295,0.04200
4342.91142,0.04299
4344.83989,0.04942
4346.76836,0.05429
4348.69683,0.05538
4350.62530,0.05325
4352.55376,0.04749
4354.48223,0.04075
4356.41070,0.03625
4358.33917,0.03648
4360.26764,0.03985
4362.19611,0.04292
4364.12458,0.04011
4366.05304,0.02945
4367.98151,0.02492
4369.90998,0.03446
4371.83845,0.04683
4373.76692,0.05345
4375.69539,0.05509
4377.62386,0.05170
4379.55232,0.04738
4381.48079,0.04842
4383.40926,0.05083
4385.33773,0.04961
4387.26620,0.04383
4389.19467,0.03526
4391.12314,0.03087
4393.05161,0.03430
4394.98007,0.04057
4396.90854,0.04375
4398.83701,0.04371
4400.76548,0.04114
4402.69395,0.03786
4404.62242,0.03946
4406.55089,0.04702
4408.47935,0.05286
4410.40782,0.04896
4412.33629,0.03937
4414.26476,0.03402
4416.19323,0.03314
4418.12170,0.03379
4420.05017,0.03839
4421.97864,0.04129
4423.90710,0.03805
4425.83557,0.04001
4427.76404,0.04821
4429.69251,0.05141
4431.62098,0.04679
4433.54945,0.03839
4435.47792,0.03548
4437.40638,0.04040
4439.33485,0.04282
4441.26332,0.03739
4443.19179,0.03117
4445.12026,0.03096
4447.04873,0.03300
4448.97720,0.03489
4450.90567,0.03778
4452.83413,0.03742
4454.76260,0.03244
4456.69107,0.02612
4458.61954,0.02248
4460.54801,0.02381
4462.47648,0.02812
4464.40495,0.03153
4466.33341,0.02900
4468.26188,0.02084
4470.19035,0.01421
4472.11882,0.01264
4474.04729,0.01178
4475.97576,0.01027
4477.90423,0.01310
4479.83270,0.01744
4481.76116,0.01967
4483.68963,0.02417
4485.61810,0.02881
4487.54657,0.02787
4489.47504,0.02571
4491.40351,0.02869
4493.33198,0.03339
4495.26044,0.03308
4497.18891,0.02742
4499.11738,0.02141
4501.04585,0.01815
4502.97432,0.01588
4504.90279,0.01616
4506.83126,0.02048
4508.75973,0.02396
4510.68819,0.02379
4512.61666,0.02201
4514.54513,0.01985
4516.47360,0.01911
4518.40207,0.02075
4520.33054,0.01842
4522.25901,0.01025
4524.18747,0.00473
4526.11594,0.00749
4528.04441,0.01506
4529.97288,0.01537
4531.90135,0.00747
4533.82982,0.00629
4535.75829,0.01533
4537.68676,0.02178
4539.61522,0.01699
4541.54369,0.00890
4543.47216,0.01040
4545.40063,0.02136
4547.32910,0.02819
4549.25757,0.02586
4551.18604,0.02257
4553.11450,0.02215
4555.04297,0.02496
4556.97144,0.02903
4558.89991,0.02977
4560.82838,0.02619
4562.75685,0.02222
4564.68532,0.01854
4566.61378,0.00918
4568.54225,0.00192
4570.47072,0.00803
4572.39919,0.01729
4574.32766,0.01796
4576.25613,0.01693
4578.18460,0.02596
4580.11307,0.03552
4582.04153,0.03034
4583.97000,0.02192
4585.89847,0.02298
4587.82694,0.02765
4589.75541,0.02849
4591.68388,0.02249
4593.61235,0.01353
4595.54081,0.00969
4597.46928,0.00915
4599.39775,0.00476
4601.32622,-0.00072
4603.25469,-0.00326
4605.18316,-0.00472
4607.11163,-0.00398
4609.04010,0.00622
4610.96856,0.02359
4612.89703,0.03060
4614.82550,0.02746
4616.75397,0.02543
4618.68244,0.01626
4620.61091,-0.00100
4622.53938,-0.01092
4624.46784,-0.01020
4626.39631,-0.01055
4628.32478,-0.01543
4630.25325,-0.01297
4632.18172,-0.00225
4634.11019,0.00443
4636.03866,0.00417
4637.96713,-0.00006
4639.89559,-0.00061
4641.82406,0.00832
4643.75253,0.01741
4645.68100,0.02164
4647.60947,0.02445
4649.53794,0.02394
4651.46641,0.01935
4653.39487,0.01587
4655.32334,0.01736
4657.25181,0.02021
4659.18028,0.01949
4661.10875,0.01272
4663.03722,0.00332
4664.96569,0.00228
4666.89416,0.00897
4668.82262,0.01428
4670.75109,0.01981
4672.67956,0.02755
4674.60803,0.03188
4676.53650,0.03168
4678.46497,0.03123
4680.39344,0.02924
4682.32190,0.02035
4684.25037,0.00651
4686.17884,-0.00453
4688.10731,-0.01003
4690.03578,-0.00783
4691.96425,0.00251
4693.89272,0.01246
4695.82119,0.01578
4697.74965,0.01467
4699.67812,0.01357
4701.60659,0.01335
4703.53506,0.01080
4705.46353,0.00534
4707.39200,0.00220
4709.32047,0.00554
4711.24893,0.01382
4713.17740,0.01836
4715.10587,0.01182
4717.03434,0.00580
4718.96281,0.00695
4720.89128,0.00171
4722.81975,-0.00843
4724.74821,-0.00920
4726.67668,-0.00529
4728.60515,-0.00639
4730.53362,-0.00535
4732.46209,0.00009
4734.39056,0.00501
4736.31903,0.01324
4738.24750,0.02084
4740.17596,0.01972
4742.10443,0.01484
4744.03290,0.00891
4745.96137,-0.00120
4747.88984,-0.00809
4749.81831,-0.00831
4751.74678,-0.00585
4753.67524,0.00350
4755.60371,0.01567
4757.53218,0.01685
4759.46065,0.00806
4761.38912,0.00295
4763.31759,0.00264
4765.24606,-0.00136
4767.17453,-0.00396
4769.10299,0.00565
4771.03146,0.01796
4772.95993,0.01727
4774.88840,0.00875
4776.81687,0.00345
4778.74534,0.00217
4780.67381,0.00246
4782.60227,0.00248
4784.53074,-0.00182
4786.45921,-0.00912
4788.38768,-0.01191
4790.31615,-0.00286
4792.24462,0.02142
4794.17309,0.04469
4796.10156,0.03938
4798.03002,0.00891
4799.95849,-0.01370
4801.88696,-0.01280
4803.81543,-0.00037
4805.74390,0.00476
4807.67237,-0.00119
4809.60084,-0.00266
4811.52930,0.00589
4813.45777,0.01597
4815.38624,0.01763
4817.31471,0.00845
4819.24318,-0.00022
4821.17165,0.00108
4823.10012,0.01211
4825.02859,0.02405
4826.95705,0.02422
4828.88552,0.01545
4830.81399,0.01567
4832.74246,0.02015
4834.67093,0.01276
4836.59940,0.00489
4838.52787,0.00663
4840.45633,0.01152
4842.38480,0.01467
4844.31327,0.01142
4846.24174,0.00616
4848.17021,0.00940
4850.09868,0.01582
4852.02715,0.01197
4853.95562,0.00097
4855.88408,-0.00211
4857.81255,0.00220
4859.74102,0.00295
4861.66949,0.00264
4863.59796,0.00241
4865.52643,0.00004
4867.45490,0.00655
4869.38336,0.02047
4871.31183,0.02346
4873.24030,0.01757
4875.16877,0.01759
4877.09724,0.01932
4879.02571,0.01271
4880.95418,0.00611
4882.88265,0.01637
4884.81111,0.03115
4886.73958,0.02578
4888.66805,0.00909
4890.59652,-0.00352
4892.52499,-0.01106
4894.45346,-0.01253
4896.38193,-0.00800
4898.31039,0.00146
4900.23886,0.00694
4902.16733,0.00272
4904.09580,0.00484
4906.02427,0.01920
4907.95274,0.02658
4909.88121,0.02671
4911.80967,0.03251
4913.73814,0.03292
4915.66661,0.01885
4917.59508,0.00716
4919.52355,0.00443
4921.45202,0.00109
4923.38049,0.00039
4925.30896,0.00378
4927.23742,0.00158
4929.16589,-0.00719
4931.09436,-0.01161
4933.02283,-0.00183
4934.95130,0.01416
4936.87977,0.01434
4938.80824,-0.00050
4940.73670,0.00298
4942.66517,0.02370
4944.59364,0.02662
4946.52211,0.01848
4948.45058,0.01717
4950.37905,0.00928
4952.30752,-0.00465
4954.23599,-0.00870
4956.16445,-0.00533
4958.09292,0.00444
4960.02139,0.02319
4961.94986,0.03401
4963.87833,0.02940
4965.80680,0.02509
4967.73527,0.02524
4969.66373,0.02442
4971.59220,0.02763
4973.52067,0.02830
4975.44914,0.01898
4977.37761,0.01491
4979.30608,0.02089
4981.23455,0.03145
4983.16302,0.03631
4985.09148,0.01951
4987.01995,-0.00412
4988.94842,-0.00881
4990.87689,0.00169
4992.80536,0.01413
4994.73383,0.01764
4996.66230,0.00868
4998.59076,0.00644
5000.51923,0.01506
5002.44770,0.01693
5004.37617,0.01307
5006.30464,0.01654
5008.23311,0.02575
5010.16158,0.02912
5012.09005,0.01980
5014.01851,0.00424
5015.94698,0.00103
5017.87545,0.01055
5019.80392,0.01895
5021.73239,0.02614
5023.66086,0.02701
5025.58933,0.02204
5027.51779,0.02106
5029.44626,0.01826
5031.37473,0.01586
5033.30320,0.02169
5035.23167,0.02837
5037.16014,0.03536
5039.08861,0.04315
5041.01708,0.04576
5042.94554,0.04471
5044.87401,0.03652
5046.80248,0.02016
5048.73095,0.00259
5050.65942,-0.00480
5052.58789,0.00656
5054.51636,0.01934
5056.44482,0.02214
5058.37329,0.02355
5060.30176,0.02712
5062.23023,0.03487
5064.15870,0.04244
5066.08717,0.03932
5068.01564,0.03258
5069.94410,0.03723
5071.87257,0.04477
5073.80104,0.04110
5075.72951,0.02220
5077.65798,-0.01199
5079.58645,-0.03378
5081.51492,-0.01845
5083.44339,0.00930
5085.37185,0.02457
5087.30032,0.03137
5089.22879,0.03882
5091.15726,0.04960
5093.08573,0.05735
5095.01420,0.05239
5096.94267,0.03481
5098.87113,0.01874
5100.79960,0.01631
5102.72807,0.01833
5104.65654,0.01392
5106.58501,0.01258
5108.51348,0.01474
5110.44195,0.01111
5112.37042,0.01210
5114.29888,0.02446
5116.22735,0.03907
5118.15582,0.04998
5120.08429,0.05471
5122.01276,0.05083
5123.94123,0.04033
5125.86970,0.02649
5127.79816,0.01949
5129.72663,0.02887
5131.65510,0.03949
5133.58357,0.04207
5135.51204,0.04486
5137.44051,0.05186
5139.36898,0.06110
5141.29745,0.06129
5143.22591,0.04502
5145.15438,0.01971
5147.08285,0.00764
5149.01132,0.02253
5150.93979,0.04588
5152.86826,0.05125
5154.79673,0.03809
5156.72519,0.03264
5158.65366,0.04570
5160.58213,0.05878
5162.51060,0.05636
5164.43907,0.03952
5166.36754,0.02356
5168.29601,0.01764
5170.22448,0.02467
5172.15294,0.04327
5174.08141,0.05396
5176.00988,0.04896
5177.93835,0.04272
5179.86682,0.03843
5181.79529,0.03575
5183.72376,0.04041
5185.65222,0.04651
5187.58069,0.04101
5189.50916,0.02889
5191.43763,0.02337
5193.36610,0.02526
5195.29457,0.03206
5197.22304,0.04274
5199.15151,0.05446
5201.07997,0.05336
5203.00844,0.03268
5204.93691,0.01404
5206.86538,0.01708
5208.79385,0.03161
5210.72232,0.03704
5212.65079,0.03536
5214.57925,0.03478
5216.50772,0.03108
5218.43619,0.02992
5220.36466,0.04539
5222.29313,0.07073
5224.22160,0.08095
5226.15007,0.06277
5228.07854,0.03760
5230.00700,0.02959
5231.93547,0.03633
5233.86394,0.03914
5235.79241,0.02995
5237.72088,0.02289
5239.64935,0.02915
5241.57782,0.03811
5243.50628,0.04180
5245.43475,0.04791
5247.36322,0.05244
5249.29169,0.05137
5251.22016,0.05742
5253.14863,0.06262
5255.07710,0.05219
5257.00556,0.03718
5258.93403,0.02834
5260.86250,0.02936
5262.79097,0.04444
5264.71944,0.06459
5266.64791,0.07140
5268.57638,0.06291
5270.50485,0.05857
5272.43331,0.05788
5274.36178,0.04054
5276.29025,0.02069
5278.21872,0.02019
5280.14719,0.02991
5282.07566,0.04123
5284.00413,0.05448
5285.93259,0.06060
5287.86106,0.04795
5289.78953,0.01590
5291.71800,-0.00900
5293.64647,0.00526
5295.57494,0.04956
5297.50341,0.08309
5299.43188,0.07717
5301.36034,0.05984
5303.28881,0.06202
5305.21728,0.06304
5307.14575,0.05133
5309.07422,0.05194
5311.00269,0.06784
5312.93116,0.06865
5314.85962,0.04729
5316.78809,0.02515
5318.71656,0.01417
5320.64503,0.01997
5322.57350,0.04520
5324.50197,0.07343
5326.43044,0.08460
5328.35891,0.07925
5330.28737,0.07285
5332.21584,0.06754
5334.14431,0.05113
5336.07278,0.03185
5338.00125,0.03787
5339.92972,0.07085
5341.85819,0.10354
5343.78665,0.11851
5345.71512,0.10151
5347.64359,0.07061
5349.57206,0.06275
5351.50053,0.08493
5353.42900,0.11203
5355.35747,0.11403
5357.28594,0.08903
5359.21440,0.05589
5361.14287,0.02753
5363.07134,0.01527
5364.99981,0.03172
5366.92828,0.05705
5368.85675,0.06268
5370.78522,0.05324
5372.71368,0.04286
5374.64215,0.03818
5376.57062,0.04611
5378.49909,0.06505
5380.42756,0.08592
5382.35603,0.10325
5384.28450,0.11848
5386.21297,0.13027
5388.14143,0.13007
5390.06990,0.12106
5391.99837,0.10663
5393.92684,0.08675
5395.85531,0.06911
5397.78378,0.06606
5399.71225,0.07360
5401.64071,0.07164
5403.56918,0.05827
5405.49765,0.05213
5407.42612,0.06111
5409.35459,0.07652
5411.28306,0.08371
5413.21153,0.07595
5415.13999,0.07579
5417.06846,0.08851
5418.99693,0.09214
5420.92540,0.08411
5422.85387,0.07258
5424.78234,0.06686
5426.71081,0.06977
5428.63928,0.07033
5430.56774,0.07229
5432.49621,0.08889
5434.42468,0.10509
5436.35315,0.09770
5438.28162,0.08504
5440.21009,0.08208
5442.13856,0.08047
5444.06702,0.07835
5445.99549,0.06985
5447.92396,0.05622
5449.85243,0.05658
5451.78090,0.07124
5453.70937,0.07950
5455.63784,0.06950
5457.56631,0.05830
5459.49477,0.05875
5461.42324,0.05834
5463.35171,0.06139
5465.28018,0.07278
5467.20865,0.07837
5469.13712,0.06410
5471.06559,0.05023
5472.99405,0.05788
5474.92252,0.06000
5476.85099,0.05315
5478.77946,0.06422
5480.70793,0.08240
5482.63640,0.08199
5484.56487,0.06924
5486.49334,0.07681
5488.42180,0.08575
5490.35027,0.07736
5492.27874,0.08891
5494.20721,0.10115
5496.13568,0.08132
5498.06415,0.06669
5499.99262,0.07249
5501.92108,0.07221
5503.84955,0.06174
5505.77802,0.04868
5507.70649,0.03940
5509.63496,0.04697
5511.56343,0.06611
5513.49190,0.07475
5515.42037,0.07780
5517.34883,0.09986
5519.27730,0.11789
5521.20577,0.10111
5523.13424,0.07004
5525.06271,0.05260
5526.99118,0.05628
5528.91965,0.08377
5530.84811,0.11735
5532.77658,0.11795
5534.70505,0.08093
5536.63352,0.05195
5538.56199,0.05502
5540.49046,0.07130
5542.41893,0.09960
5544.34740,0.12501
5546.27586,0.11677
5548.20433,0.09118
5550.13280,0.07615
5552.06127,0.07395
5553.98974,0.08931
5555.91821,0.11735
5557.84668,0.12485
5559.77514,0.10944
5561.70361,0.10422
5563.63208,0.10901
5565.56055,0.09728
5567.48902,0.06967
5569.41749,0.04992
5571.34596,0.03995
5573.27443,0.04308
5575.20289,0.06190
5577.13136,0.07519
5579.05983,0.07862
5580.98830,0.07302
5582.91677,0.06223
5584.84524,0.06998
5586.77371,0.08619
5588.70217,0.06605
5590.63064,0.01819
5592.55911,-0.00157
5594.48758,0.02132
5596.41605,0.05953
5598.34452,0.08276
5600.27299,0.09683
5602.20145,0.12191
5604.12992,0.13403
5606.05839,0.11044
5607.98686,0.07775
5609.91533,0.07402
5611.84380,0.08666
5613.77227,0.06962
5615.70074,0.04052
5617.62920,0.03965
5619.55767,0.05708
5621.48614,0.07541
5623.41461,0.08816
5625.34308,0.09195
5627.27155,0.08578
5629.20002,0.07527
5631.12848,0.07275
5633.05695,0.07314
5634.98542,0.06548
5636.91389,0.06154
5638.84236,0.07132
5640.77083,0.06811
5642.69930,0.04832
5644.62777,0.04823
5646.55623,0.06796
5648.48470,0.08093
5650.41317,0.07410
5652.34164,0.04807
5654.27011,0.03773
5656.19858,0.06388
5658.12705,0.08380
5660.05551,0.07075
5661.98398,0.07416
5663.91245,0.11114
5665.84092,0.11288
5667.76939,0.07164
5669.69786,0.05897
5671.62633,0.07836
5673.55480,0.07762
5675.48326,0.06539
5677.41173,0.06664
5679.34020,0.06539
5681.26867,0.05446
5683.19714,0.04022
5685.12561,0.04015
5687.05408,0.06314
5688.98254,0.07048
5690.91101,0.05303
5692.83948,0.05848
5694.76795,0.08781
5696.69642,0.09969
5698.62489,0.09503
5700.55336,0.09127
5702.48183,0.07570
5704.41029,0.06613
5706.33876,0.07520
5708.26723,0.07499
5710.19570,0.06901
5712.12417,0.06354
5714.05264,0.04982
5715.98111,0.04424
5717.90957,0.05008
5719.83804,0.04535
5721.76651,0.03124
5723.69498,0.03690
5725.62345,0.06275
5727.55192,0.09078
5729.48039,0.11726
5731.40886,0.12869
5733.33732,0.11708
5735.26579,0.09842
5737.19426,0.10403
5739.12273,0.13349
5741.05120,0.12961
5742.97967,0.08253
5744.90814,0.05662
5746.83660,0.07160
5748.76507,0.08378
5750.69354,0.07478
5752.62201,0.05886
5754.55048,0.03408
5756.47895,0.02718
5758.40742,0.05888
5760.33588,0.08408
5762.26435,0.07202
5764.19282,0.04764
5766.12129,0.04600
5768.04976,0.07412
5769.97823,0.11466
5771.90670,0.14327
5773.83517,0.14430
5775.76363,0.14747
5777.69210,0.17246
5779.62057,0.17371
5781.54904,0.13741
5783.47751,0.11002
5785.40598,0.10656
5787.33445,0.09745
5789.26291,0.06601
5791.19138,0.04266
5793.11985,0.04601
5795.04832,0.05165
5796.97679,0.04800
5798.90526,0.04363
5800.83373,0.05077
5802.76220,0.07257
5804.69066,0.09880
5806.61913,0.10564
5808.54760,0.08098
5810.47607,0.05905
5812.40454,0.06048
5814.33301,0.06961
5816.26148,0.07630
5818.18994,0.07538
5820.11841,0.07012
5822.04688,0.06998
5823.97535,0.07695
5825.90382,0.09488
5827.83229,0.10644
5829.76076,0.07651
5831.68923,0.02816
5833.61769,0.00318
5835.54616,-0.00033
5837.47463,0.01393
5839.40310,0.04442
5841.33157,0.05924
5843.26004,0.04263
5845.18851,0.04767
5847.11697,0.08891
5849.04544,0.09785
5850.97391,0.05978
5852.90238,0.02948
5854.83085,0.03049
5856.75932,0.04870
5858.68779,0.05036
5860.61626,0.03868
5862.54472,0.05200
5864.47319,0.07484
5866.40166,0.06720
5868.33013,0.04958
5870.25860,0.05084
5872.18707,0.06301
5874.11554,0.07926
5876.04400,0.09066
5877.97247,0.07875
5879.90094,0.06569
5881.82941,0.07499
5883.75788,0.07972
5885.68635,0.08636
5887.61482,0.11350
5889.54329,0.12010
5891.47175,0.10926
5893.40022,0.12077
5895.32869,0.11487
5897.25716,0.07257
5899.18563,0.04519
5901.11410,0.03565
5903.04257,0.03136
5904.97103,0.04785
5906.89950,0.08003
5908.82797,0.10750
5910.75644,0.11097
5912.68491,0.11580
5914.61338,0.15448
5916.54185,0.18543
5918.47032,0.16016
5920.39878,0.09534
5922.32725,0.03958
5924.25572,0.02936
5926.18419,0.05752
5928.11266,0.07734
5930.04113,0.08352
5931.96960,0.10399
5933.89806,0.12873
5935.82653,0.14407
5937.75500,0.15325
5939.68347,0.13840
5941.61194,0.08606
5943.54041,0.03580
5945.46888,0.03204
5947.39734,0.06080
5949.32581,0.09809
5951.25428,0.12958
5953.18275,0.12916
5955.11122,0.12340
5957.03969,0.16155
5958.96816,0.19475
5960.89663,0.16255
5962.82509,0.10981
5964.75356,0.06899
5966.68203,0.03809
5968.61050,0.04626
5970.53897,0.08436
5972.46744,0.10706
5974.39591,0.09979
5976.32437,0.07309
5978.25284,0.07623
5980.18131,0.11440
5982.10978,0.11924
5984.03825,0.06260
5985.96672,-0.00236
5987.89519,0.00097
5989.82366,0.06701
5991.75212,0.13139
5993.68059,0.15324
5995.60906,0.12181
5997.53753,0.07506
5999.46600,0.05924
6001.39447,0.07963
6003.32294,0.11294
6005.25140,0.12341
6007.17987,0.08561
6009.10834,0.03063
6011.03681,0.01234
6012.96528,0.01855
6014.89375,0.02626
6016.82222,0.07033
6018.75069,0.13936
6020.67915,0.14176
6022.60762,0.10168
6024.53609,0.10629
6026.46456,0.14342
6028.39303,0.15029
6030.32150,0.09446
6032.24997,0.05001
6034.17843,0.07992
6036.10690,0.10936
6038.03537,0.10337
6039.96384,0.11559
6041.89231,0.11949
6043.82078,0.09070
6045.74925,0.08204
6047.67772,0.09628
6049.60618,0.08948
6051.53465,0.06410
6053.46312,0.08098
6055.39159,0.15780
6057.32006,0.20239
6059.24853,0.17854
6061.17700,0.12623
6063.10546,0.06856
6065.03393,0.05525
6066.96240,0.09607
6068.89087,0.14046
6070.81934,0.13895
6072.74781,0.10039
6074.67628,0.08492
6076.60475,0.09642
6078.53321,0.08119
6080.46168,0.04856
6082.39015,0.04663
6084.31862,0.07126
6086.24709,0.11567
6088.17556,0.16069
6090.10403,0.18095
6092.03249,0.19134
6093.96096,0.15276
6095.88943,0.05135
6097.81790,-0.02496
6099.74637,-0.03575
6101.67484,-0.00657
6103.60331,0.03335
6105.53177,0.03949
6107.46024,0.00703
6109.38871,-0.00033
6111.31718,0.01821
6113.24565,0.03164
6115.17412,0.04691
6117.10259,0.04559
6119.03106,0.01738
6120.95952,0.00637
6122.88799,0.04691
6124.81646,0.09188
6126.74493,0.10664
6128.67340,0.13235
6130.60187,0.16068
6132.53034,0.14859
6134.45880,0.13144
6136.38727,0.14546
6138.31574,0.14068
6140.24421,0.09309
6142.17268,0.06523
6144.10115,0.07972
6146.02962,0.09317
6147.95809,0.06933
6149.88655,0.02521
6151.81502,0.00814
6153.74349,0.02138
6155.67196,0.04826
6157.60043,0.07820
6159.52890,0.09416
6161.45737,0.09423
6163.38583,0.06207
6165.31430,0.00643
6167.24277,0.01767
6169.17124,0.11225
6171.09971,0.17035
6173.02818,0.14943
6174.95665,0.15718
6176.88512,0.18344
6178.81358,0.11957
6180.74205,0.00437
6182.67052,-0.02159
6184.59899,0.06188
6186.52746,0.14589
6188.45593,0.16147
6190.38440,0.14535
6192.31286,0.13143
6194.24133,0.11269
6196.16980,0.09029
6198.09827,0.06087
6200.02674,0.03239
6201.95521,0.03348
6203.88368,0.04603
6205.81215,0.04436
6207.74061,0.06594
6209.66908,0.11184
6211.59755,0.12147
6213.52602,0.10709
6215.45449,0.10944
6217.38296,0.11343
6219.31143,0.10597
6221.23989,0.10205
6223.16836,0.09740
6225.09683,0.08225
6227.02530,0.08765
6228.95377,0.11222
6230.88224,0.12529
6232.81071,0.11600
6234.73918,0.08670
6236.66764,0.05680
6238.59611,0.04054
6240.52458,0.04928
6242.45305,0.07610
6244.38152,0.10015
6246.30999,0.09023
6248.23846,0.03301
6250.16692,0.00177
6252.09539,0.05329
6254.02386,0.12600
6255.95233,0.15022
6257.88080,0.13205
6259.80927,0.12130
6261.73774,0.13055
6263.66621,0.14207
6265.59467,0.14020
6267.52314,0.09118
6269.45161,0.00681
6271.38008,-0.03689
6273.30855,-0.01726
6275.23702,0.00718
6277.16549,0.00784
6279.09395,0.02815
6281.02242,0.05819
6282.95089,0.06675
6284.87936,0.07882
6286.80783,0.09166
6288.73630,0.09498
6290.66477,0.09448
6292.59323,0.07338
6294.52170,0.02767
6296.45017,-0.01507
6298.37864,0.00036
6300.30711,0.06084
6302.23558,0.07869
6304.16405,0.09566
6306.09252,0.16356
6308.02098,0.16816
6309.94945,0.09211
6311.87792,0.05835
6313.80639,0.07733
6315.73486,0.06936
6317.66333,0.04275
6319.59180,0.09942
6321.52026,0.22213
6323.44873,0.23904
6325.37720,0.13803
6327.30567,0.05682
6329.23414,0.05105
6331.16261,0.07097
6333.09108,0.05935
6335.01955,0.03325
6336.94801,0.01843
6338.87648,-0.00213
6340.80495,-0.02862
6342.73342,-0.03665
6344.66189,0.01103
6346.59036,0.09214
6348.51883,0.12386
6350.44729,0.11619
6352.37576,0.11746
6354.30423,0.10523
6356.23270,0.05862
6358.16117,0.01993
6360.08964,0.03178
6362.01811,0.06213
6363.94658,0.05771
6365.87504,0.04463
6367.80351,0.07571
6369.73198,0.10834
6371.66045,0.07635
6373.58892,-0.00749
6375.51739,-0.03481
6377.44586,0.03409
6379.37432,0.12085
6381.30279,0.15259
6383.23126,0.12664
6385.15973,0.11986
6387.08820,0.13820
6389.01667,0.11390
6390.94514,0.04823
6392.87361,-0.00926
6394.80207,-0.03408
6396.73054,-0.00960
6398.65901,0.07473
6400.58748,0.12620
6402.51595,0.05939
6404.44442,-0.02765
6406.37289,-0.03619
6408.30135,0.00165
6410.22982,0.04074
6412.15829,0.08276
6414.08676,0.12690
6416.01523,0.16285
6417.94370,0.17156
6419.87217,0.13484
6421.80064,0.05936
6423.72910,0.00954
6425.65757,0.04813
6427.58604,0.11564
6429.51451,0.13964
6431.44298,0.13568
6433.37145,0.12524
6435.29992,0.09911
6437.22838,0.07521
6439.15685,0.09138
6441.08532,0.12348
6443.01379,0.09164
6444.94226,0.00717
6446.87073,0.00773
6448.79920,0.10157
6450.72766,0.15439
6452.65613,0.09811
6454.58460,0.01281
6456.51307,0.00079
6458.44154,0.05733
6460.37001,0.08853
6462.29848,0.08015
6464.22695,0.07576
6466.15541,0.05345
6468.08388,-0.00509
6470.01235,-0.04148
6471.94082,-0.00141
6473.86929,0.06792
6475.79776,0.11544
6477.72623,0.16515
6479.65469,0.18601
6481.58316,0.11268
6483.51163,0.03862
6485.44010,0.07149
6487.36857,0.11589
6489.29704,0.09197
6491.22551,0.05262
6493.15398,0.03444
6495.08244,0.06291
6497.01091,0.11201
6498.93938,0.13905
6500.86785,0.14469
6502.79632,0.11661
6504.72479,0.10792
6506.65326,0.15796
6508.58172,0.20111
6510.51019,0.18143
6512.43866,0.13681
6514.36713,0.12693
6516.29560,0.13152
6518.22407,0.08957
6520.15254,0.01267
6522.08101,-0.02241
6524.00947,0.00940
6525.93794,0.04569
6527.86641,0.04861
6529.79488,0.07724
6531.72335,0.14117
6533.65182,0.16258
6535.58029,0.13417
6537.50875,0.08370
6539.43722,0.03737
6541.36569,0.04383
6543.29416,0.06414
6545.22263,0.07791
6547.15110,0.17434
6549.07957,0.30127
6551.00804,0.25980
6552.93650,0.06940
6554.86497,-0.08107
6556.79344,-0.11528
6558.72191,-0.05557
6560.65038,0.04074
6562.57885,0.10013
6564.50732,0.10789
6566.43578,0.09606
6568.36425,0.04860
6570.29272,-0.01805
6572.22119,0.00025
6574.14966,0.14407
6576.07813,0.26464
6578.00660,0.19940
6579.93507,0.02446
6581.86353,-0.07922
6583.79200,-0.07961
6585.72047,-0.06837
6587.64894,-0.04725
6589.57741,0.02068
6591.50588,0.09351
6593.43435,0.15389
6595.36281,0.18856
6597.29128,0.18015
6599.21975,0.13184
6601.14822,0.06383
6603.07669,0.03082
6605.00516,0.01286
6606.93363,-0.01350
6608.86210,0.01099
6610.79056,0.09641
6612.71903,0.17572
6614.64750,0.20643
6616.57597,0.15960
6618.50444,0.05721
6620.43291,0.00411
6622.36138,0.06977
6624.28984,0.20347
6626.21831,0.23966
6628.14678,0.13243
6630.07525,0.02578
6632.00372,-0.00064
6633.93219,0.00623
6635.86066,0.02134
6637.78912,0.04553
6639.71759,0.06790
6641.64606,0.03100
6643.57453,-0.00633
6645.50300,0.09007
6647.43147,0.19368
6649.35994,0.14600
6651.28841,0.07450
6653.21687,0.09370
6655.14534,0.12284
6657.07381,0.05228
6659.00228,-0.06436
6660.93075,-0.09331
6662.85922,-0.03745
6664.78769,-0.00707
6666.71615,-0.02791
6668.64462,-0.01157
6670.57309,0.10501
6672.50156,0.18836
6674.43003,0.11617
6676.35850,0.06336
6678.28697,0.12390
6680.21544,0.18825
6682.14390,0.20805
6684.07237,0.21902
6686.00084,0.23409
6687.92931,0.21981
6689.85778,0.16545
6691.78625,0.11633
6693.71472,0.10077
6695.64318,0.12965
6697.57165,0.18125
6699.50012,0.20448
6701.42859,0.18191
6703.35706,0.12041
6705.28553,0.09017
6707.21400,0.12912
6709.14247,0.14503
6711.07093,0.11561
6712.99940,0.09355
6714.92787,0.07526
6716.85634,0.08815
6718.78481,0.17637
6720.71328,0.22166
6722.64175,0.12787
6724.57021,0.02705
6726.49868,-0.02321
6728.42715,-0.07329
6730.35562,-0.08356
6732.28409,-0.02900
6734.21256,0.02018
6736.14103,0.04075
6738.06950,0.07890
6739.99796,0.15306
6741.92643,0.19758
6743.85490,0.16194
6745.78337,0.11730
6747.71184,0.08470
6749.64031,0.02841
6751.56878,0.01708
6753.49724,0.07226
6755.42571,0.06045
6757.35418,-0.01609
6759.28265,-0.00639
6761.21112,0.08347
6763.13959,0.06957
6765.06806,-0.02540
6766.99653,-0.02613
6768.92499,0.07525
6770.85346,0.15539
6772.78193,0.18893
6774.71040,0.17828
6776.63887,0.06674
6778.56734,-0.06443
6780.49581,-0.09691
6782.42427,-0.04990
6784.35274,-0.00756
6786.28121,-0.01041
6788.20968,0.01136
6790.13815,0.11419
6792.06662,0.20617
6793.99509,0.21654
6795.92355,0.18600
6797.85202,0.14514
6799.78049,0.12451
6801.70896,0.15679
6803.63743,0.20063
6805.56590,0.19252
6807.49437,0.16695
6809.42284,0.14966
6811.35130,0.09057
6813.27977,-0.01434
6815.20824,-0.07579
6817.13671,-0.03787
6819.06518,0.05090
6820.99365,0.08747
6822.92212,0.01906
6824.85058,-0.04232
6826.77905,-0.01143
6828.70752,0.02413
6830.63599,0.01628
6832.56446,0.05794
6834.49293,0.16610
6836.42140,0.19642
6838.34987,0.08230
6840.27833,-0.01798
6842.20680,0.00020
6844.13527,0.05400
6846.06374,0.05353
6847.99221,-0.00196
6849.92068,-0.07250
6851.84915,-0.03203
6853.77761,0.10383
6855.70608,0.13803
6857.63455,0.00320
6859.56302,-0.11538
6861.49149,-0.05943
6863.41996,0.06601
6865.34843,0.09943
6867.27690,0.11096
6869.20536,0.11170
6871.13383,0.08544
6873.06230,0.09878
6874.99077,0.07994
6876.91924,-0.02786
6878.84771,-0.10510
6880.77618,-0.10287
6882.70464,-0.09330
6884.63311,-0.07829
6886.56158,-0.04252
6888.49005,-0.01161
6890.41852,0.00852
6892.34699,0.05738
6894.27546,0.09501
6896.20393,0.10913
6898.13239,0.18762
6900.06086,0.26879
6901.98933,0.25282
6903.91780,0.15575
6905.84627,0.05178
6907.77474,0.02503
6909.70321,0.07437
6911.63167,0.15996
6913.56014,0.20643
6915.48861,0.13466
6917.41708,0.03153
6919.34555,0.02829
6921.27402,0.02522
6923.20249,-0.03488
6925.13096,-0.04275
6927.05942,-0.00628
6928.98789,0.06206
6930.91636,0.15683
6932.84483,0.13680
6934.77330,0.03097
6936.70177,-0.00789
6938.63024,0.02139
6940.55870,0.10907
6942.48717,0.20624
6944.41564,0.21922
6946.34411,0.15499
6948.27258,0.08941
6950.20105,0.08023
6952.12952,0.07251
6954.05799,-0.03591
6955.98645,-0.13533
6957.91492,-0.08786
6959.84339,-0.02942
6961.77186,-0.01041
6963.70033,0.01904
6965.62880,0.02250
6967.55727,0.00579
6969.48573,0.04627
6971.41420,0.14975
6973.34267,0.24846
6975.27114,0.21718
6977.19961,0.03879
6979.12808,-0.07751
6981.05655,-0.01300
6982.98501,0.12551
6984.91348,0.16174
6986.84195,0.11774
6988.77042,0.05460
6990.69889,-0.02400
6992.62736,-0.00823
6994.55583,0.13317
6996.48430,0.24225
6998.41276,0.16724
7000.34123,0.01423
7002.26970,-0.06860
7004.19817,-0.10551
7006.12664,-0.09754
7008.05511,0.01076
7009.98358,0.13229
7011.91204,0.18383
7013.84051,0.18838
7015.76898,0.11212
7017.69745,-0.01597
7019.62592,-0.07268
7021.55439,-0.08491
7023.48286,-0.08277
7025.41133,-0.01087
7027.33979,0.07466
7029.26826,0.10932
7031.19673,0.11082
7033.12520,0.12477
7035.05367,0.13923
7036.98214,0.06829
7038.91061,-0.01009
7040.83907,0.01733
7042.76754,0.09859
7044.69601,0.14194
7046.62448,0.14096
7048.55295,0.10745
7050.48142,0.04744
7052.40989,0.01975
7054.33836,0.08993
7056.26682,0.15983
7058.19529,0.12602
7060.12376,0.10939
7062.05223,0.20573
7063.98070,0.26234
7065.90917,0.21047
7067.83764,0.20220
7069.76610,0.21162
7071.69457,0.19115
7073.62304,0.17313
7075.55151,0.08959
7077.47998,0.02438
7079.40845,0.04487
7081.33692,0.01377
7083.26539,-0.05132
7085.19385,-0.01138
7087.12232,0.07371
7089.05079,0.11706
7090.97926,0.10335
7092.90773,0.03866
7094.83620,0.01385
7096.76467,0.12851
7098.69313,0.26669
7100.62160,0.23252
7102.55007,0.15194
7104.47854,0.19573
7106.40701,0.30294
7108.33548,0.35010
7110.26395,0.35858
7112.19242,0.32566
7114.12088,0.21517
7116.04935,0.05896
7117.97782,-0.06267
7119.90629,-0.05356
7121.83476,0.00412
7123.76323,0.01190
7125.69170,0.05923
7127.62016,0.15572
7129.54863,0.20790
7131.47710,0.22614
7133.40557,0.19622
7135.33404,0.13126
7137.26251,0.05241
7139.19098,-0.05371
7141.11944,-0.08991
7143.04791,-0.07121
7144.97638,-0.10893
7146.90485,-0.06030
7148.83332,0.10383
7150.76179,0.17125
7152.69026,0.11388
7154.61873,0.05000
7156.54719,0.00876
7158.47566,-0.01115
7160.40413,0.01130
7162.33260,0.07297
7164.26107,0.13438
7166.18954,0.14920
7168.11801,0.17391
7170.04647,0.21965
7171.97494,0.15234
7173.90341,0.07974
7175.83188,0.13414
7177.76035,0.14119
7179.68882,0.03329
7181.61729,0.00256
7183.54576,0.10480
7185.47422,0.19167
7187.40269,0.22464
7189.33116,0.22150
7191.25963,0.19670
7193.18810,0.15833
7195.11657,0.04558
7197.04504,-0.06973
7198.97350,-0.05492
7200.90197,-0.03448
7202.83044,-0.12239
7204.75891,-0.16792
7206.68738,-0.05486
7208.61585,0.01520
7210.54432,-0.02589
7212.47279,-0.07586
7214.40125,-0.05988
7216.32972,0.04947
7218.25819,0.22265
7220.18666,0.25752
7222.11513,0.18508
7224.04360,0.12705
7225.97207,0.13402
7227.90053,0.18944
7229.82900,0.21414
7231.75747,0.21223
7233.68594,0.18213
7235.61441,0.09468
7237.54288,0.01788
7239.47135,0.00381
7241.39982,0.01202
7243.32828,0.02540
7245.25675,0.04187
7247.18522,0.09020
7249.11369,0.24222
7251.04216,0.46527
7252.97063,0.47165
7254.89910,0.26957
7256.82756,0.24862
7258.75603,0.29782
7260.68450,0.18321
7262.61297,0.00113
7264.54144,-0.03341
7266.46991,-0.03001
7268.39838,-0.02781
7270.32685,0.10183
7272.25531,0.30037
7274.18378,0.33555
7276.11225,0.24229
7278.04072,0.17634
7279.96919,0.19487
7281.89766,0.18362
7283.82613,0.15504
7285.75459,0.19485
7287.68306,0.23364
7289.61153,0.21138
7291.54000,0.21794
7293.46847,0.19829
7295.39694,0.01297
7297.32541,-0.15046
7299.25387,-0.13646
7301.18234,-0.07270
7303.11081,-0.10388
7305.03928,-0.22739
7306.96775,-0.32869
7308.89622,-0.29570
7310.82469,-0.17683
7312.75316,-0.04217
7314.68162,0.15278
7316.61009,0.33865
7318.53856,0.35289
7320.46703,0.25074
7322.39550,0.05273
7324.32397,-0.15057
7326.25244,-0.15875
7328.18090,-0.01101
7330.10937,0.09971
7332.03784,0.06073
7333.96631,-0.04052
7335.89478,-0.10716
7337.82325,-0.14342
7339.75172,-0.08657
7341.68019,0.04293
7343.60865,0.03272
7345.53712,-0.02902
7347.46559,-0.02500
7349.39406,0.01831
7351.32253,0.14411
7353.25100,0.28739
7355.17947,0.31217
7357.10793,0.31564
7359.03640,0.41391
7360.96487,0.53661
7362.89334,0.46702
7364.82181,0.13232
7366.75028,-0.11365
7368.67875,-0.08613
7370.60722,0.02820
7372.53568,0.14413
7374.46415,0.34839
7376.39262,0.47486
7378.32109,0.34062
7380.24956,0.18472
7382.17803,0.07566
7384.10650,-0.10082
7386.03496,-0.16235
7387.96343,0.06408
7389.89190,0.25753
7391.82037,0.27647
7393.74884,0.23767
7395.67731,0.25614
7397.60578,0.35122
7399.53425,0.35740
7401.46271,0.21195
7403.39118,0.03586
7405.31965,-0.01981
7407.24812,-0.02114
7409.17659,-0.09959
7411.10506,-0.08594
7413.03353,0.11165
7414.96199,0.25724
7416.89046,0.15787
7418.81893,-0.14064
7420.74740,-0.22911
7422.67587,-0.10513
7424.60434,-0.10342
7426.53281,-0.15520
7428.46128,-0.13197
7430.38974,-0.07293
7432.31821,-0.02233
7434.24668,-0.00813
7436.17515,0.01143
7438.10362,0.05236
7440.03209,-0.04260
7441.96056,-0.18605
7443.88902,-0.13426
7445.81749,0.05051
7447.74596,0.21413
7449.67443,0.30780
7451.60290,0.30605
7453.53137,0.19554
7455.45984,0.05309
7457.38831,0.05113
7459.31677,0.31828
7461.24524,0.52127
7463.17371,0.35869
7465.10218,0.19760
7467.03065,0.29762
7468.95912,0.45171
7470.88759,0.47550
7472.81605,0.43436
7474.74452,0.36170
7476.67299,0.19852
7478.60146,0.07986
7480.52993,0.12339
7482.45840,0.20257
7484.38687,0.20724
7486.31533,0.14664
7488.24380,0.05290
7490.17227,-0.03638
7492.10074,-0.07297
7494.02921,0.00788
7495.95768,0.16832
7497.88615,0.31876
