399.19301,3.66499
401.12148,0.40718
403.04995,0.35238
404.97842,0.42197
406.90689,0.36410
408.83536,0.25692
410.76382,0.16792
412.69229,0.10257
414.62076,0.02483
416.54923,-0.06805
418.47770,-0.07889
420.40617,0.02915
422.33464,-0.01003
424.26311,-0.11486
426.19157,-0.03917
428.12004,0.11670
430.04851,0.15696
431.97698,0.02784
433.90545,-0.12967
435.83392,-0.15594
437.76239,-0.06452
439.69085,0.02478
441.61932,0.05653
443.54779,0.07073
445.47626,0.10753
447.40473,0.14632
449.33320,0.12240
451.26167,0.06100
453.19013,0.01678
455.11860,0.00719
457.04707,0.06999
458.97554,0.16121
460.90401,0.16459
462.83248,0.11666
464.76095,0.08694
466.68942,0.07765
468.61788,0.08412
470.54635,0.15276
472.47482,0.38648
474.40329,0.53950
476.33176,0.34733
478.26023,0.20516
480.18870,0.12153
482.11716,0.05432
484.04563,0.06523
485.97410,0.08596
487.90257,0.05599
489.83104,0.05634
491.75951,0.11928
493.68798,0.16725
495.61645,0.13294
497.54491,0.05964
499.47338,0.01221
501.40185,-0.02214
503.33032,-0.01742
505.25879,0.03422
507.18726,0.06034
509.11573,0.04973
511.04419,0.05021
512.97266,0.06426
514.90113,0.07330
516.82960,0.06550
518.75807,0.06620
520.68654,0.10052
522.61501,0.12074
524.54348,0.10741
526.47194,0.11568
528.40041,0.15367
530.32888,0.17489
532.25735,0.16188
534.18582,0.13080
536.11429,0.08918
538.04276,0.06015
539.97122,0.08142
541.89969,0.14759
543.82816,0.19006
545.75663,0.13421
547.68510,0.03416
549.61357,0.02518
551.54204,0.15673
553.47051,0.28854
555.39897,0.26305
557.32744,0.17580
559.25591,0.17150
561.18438,0.19236
563.11285,0.18030
565.04132,0.15779
566.96979,0.14513
568.89825,0.14219
570.82672,0.12833
572.75519,0.09552
574.68366,0.06595
576.61213,0.06042
578.54060,0.08732
580.46907,0.12576
582.39754,0.14041
584.32600,0.13903
586.25447,0.13319
588.18294,0.12959
590.11141,0.13235
592.03988,0.12870
593.96835,0.13597
595.89682,0.16514
597.82528,0.18467
599.75375,0.17663
601.68222,0.15702
603.61069,0.12359
605.53916,0.07668
607.46763,0.06260
609.39610,0.08456
611.32456,0.10402
613.25303,0.12059
615.18150,0.13103
617.10997,0.11113
619.03844,0.08578
620.96691,0.09557
622.89538,0.11160
624.82385,0.10022
626.75231,0.09853
628.68078,0.12657
630.60925,0.14149
632.53772,0.13440
634.46619,0.13319
636.39466,0.13737
638.32313,0.13189
640.25159,0.12302
642.18006,0.12890
644.10853,0.14700
646.03700,0.15830
647.96547,0.15774
649.89394,0.15275
651.82241,0.14031
653.75088,0.12582
655.67934,0.11534
657.60781,0.10190
659.53628,0.09592
661.46475,0.11288
663.39322,0.14001
665.32169,0.15397
667.25016,0.14305
669.17862,0.11470
671.10709,0.11383
673.03556,0.12846
674.96403,0.13368
676.89250,0.12756
678.82097,0.11840
680.74944,0.11876
682.67791,0.12934
684.60637,0.13469
686.53484,0.14119
688.46331,0.15589
690.39178,0.15920
692.32025,0.15178
694.24872,0.15595
696.17719,0.17054
698.10565,0.17388
700.03412,0.15481
701.96259,0.12838
703.89106,0.11290
705.81953,0.11081
707.74800,0.11554
709.67647,0.11477
711.60494,0.11315
713.53340,0.12425
715.46187,0.13490
717.39034,0.13461
719.31881,0.13815
721.24728,0.14563
723.17575,0.14589
725.10422,0.14612
727.03268,0.14729
728.96115,0.14571
730.88962,0.14578
732.81809,0.14200
734.74656,0.13002
736.67503,0.12286
738.60350,0.12861
740.53197,0.13685
742.46043,0.14110
744.38890,0.14912
746.31737,0.16039
748.24584,0.16329
750.17431,0.15956
752.10278,0.15387
754.03125,0.14394
755.95971,0.14062
757.88818,0.14714
759.81665,0.15058
761.74512,0.14893
763.67359,0.15018
765.60206,0.15246
767.53053,0.14516
769.45900,0.13649
771.38746,0.14014
773.31593,0.14629
775.24440,0.14431
777.17287,0.13759
779.10134,0.12367
781.02981,0.10922
782.95828,0.11418
784.88674,0.13666
786.81521,0.15581
788.74368,0.14228
790.67215,0.10177
792.60062,0.08557
794.52909,0.10462
796.45756,0.12256
798.38602,0.13205
800.31449,0.14414
802.24296,0.14835
804.17143,0.14023
806.09990,0.13696
808.02837,0.14525
809.95684,0.16005
811.88531,0.17627
813.81377,0.17635
815.74224,0.15208
817.67071,0.13136
819.59918,0.13321
821.52765,0.14151
823.45612,0.14134
825.38459,0.13822
827.31305,0.14444
829.24152,0.15348
831.16999,0.14962
833.09846,0.14187
835.02693,0.14508
836.95540,0.14726
838.88387,0.13963
840.81234,0.13494
842.74080,0.13489
844.66927,0.13147
846.59774,0.13191
848.52621,0.13797
850.45468,0.13584
852.38315,0.12977
854.31162,0.13228
856.24008,0.13488
858.16855,0.13337
860.09702,0.13852
862.02549,0.14608
863.95396,0.14475
865.88243,0.13966
867.81090,0.14171
869.73937,0.14998
871.66783,0.15354
873.59630,0.15053
875.52477,0.14742
877.45324,0.14135
879.38171,0.13054
881.31018,0.12842
883.23865,0.13862
885.16711,0.14907
887.09558,0.15796
889.02405,0.16646
890.95252,0.16909
892.88099,0.16262
894.80946,0.15389
896.73793,0.14981
898.66640,0.14227
900.59486,0.13201
902.52333,0.12937
904.45180,0.13191
906.38027,0.13476
908.30874,0.13843
910.23721,0.14564
912.16568,0.15055
914.09414,0.14540
916.02261,0.13928
917.95108,0.14100
919.87955,0.14463
921.80802,0.14378
923.73649,0.14010
925.66496,0.13883
927.59343,0.14398
929.52189,0.15332
931.45036,0.16055
933.37883,0.16075
935.30730,0.15476
937.23577,0.15061
939.16424,0.15006
941.09271,0.14367
943.02117,0.12978
944.94964,0.12606
946.87811,0.12962
948.80658,0.11976
950.73505,0.11672
952.66352,0.13846
954.59199,0.16219
956.52045,0.16963
958.44892,0.16191
960.37739,0.15156
962.30586,0.14894
964.23433,0.14948
966.16280,0.14996
968.09127,0.15271
970.01974,0.15382
971.94820,0.15198
973.87667,0.15328
975.80514,0.15341
977.73361,0.14783
979.66208,0.14540
981.59055,0.14870
983.51902,0.15495
985.44748,0.16064
987.37595,0.15802
989.30442,0.15097
991.23289,0.14947
993.16136,0.15188
995.08983,0.15260
997.01830,0.15272
998.94677,0.15572
1000.87523,0.15902
1002.80370,0.15616
1004.73217,0.14975
1006.66064,0.15135
1008.58911,0.16261
1010.51758,0.17334
1012.44605,0.17702
1014.37451,0.17273
1016.30298,0.15942
1018.23145,0.14541
1020.15992,0.14596
1022.08839,0.15867
1024.01686,0.16776
1025.94533,0.17252
1027.87380,0.18229
1029.80226,0.19072
1031.73073,0.18390
1033.65920,0.16576
1035.58767,0.15382
1037.51614,0.15681
1039.44461,0.16403
1041.37308,0.16656
1043.30154,0.16623
1045.23001,0.15833
1047.15848,0.14681
1049.08695,0.14784
1051.01542,0.15793
1052.94389,0.16210
1054.87236,0.15988
1056.80083,0.15978
1058.72929,0.16400
1060.65776,0.16815
1062.58623,0.17101
1064.51470,0.17523
1066.44317,0.17817
1068.37164,0.17451
1070.30011,0.17038
1072.22857,0.17086
1074.15704,0.17087
1076.08551,0.17311
1078.01398,0.17741
1079.94245,0.17342
1081.87092,0.16313
1083.79939,0.15824
1085.72786,0.16032
1087.65632,0.16084
1089.58479,0.15929
1091.51326,0.16247
1093.44173,0.16524
1095.37020,0.16085
1097.29867,0.15744
1099.22714,0.16240
1101.15560,0.16790
1103.08407,0.16472
1105.01254,0.15927
1106.94101,0.15862
1108.86948,0.16235
1110.79795,0.16878
1112.72642,0.17389
1114.65489,0.17788
1116.58335,0.17578
1118.51182,0.16685
1120.44029,0.16168
1122.36876,0.15775
1124.29723,0.14955
1126.22570,0.14309
1128.15417,0.14620
1130.08263,0.15349
1132.01110,0.15568
1133.93957,0.15541
1135.86804,0.15610
1137.79651,0.15849
1139.72498,0.15950
1141.65345,0.15663
1143.58191,0.15469
1145.51038,0.15624
1147.43885,0.16206
1149.36732,0.17100
1151.29579,0.17483
1153.22426,0.17057
1155.15273,0.16656
1157.08120,0.16643
1159.00966,0.16543
1160.93813,0.16482
1162.86660,0.16726
1164.79507,0.16824
1166.72354,0.16814
1168.65201,0.16895
1170.58048,0.16848
1172.50894,0.17045
1174.43741,0.17344
1176.36588,0.17078
1178.29435,0.16543
1180.22282,0.16245
1182.15129,0.16233
1184.07976,0.16457
1186.00823,0.16871
1187.93669,0.16899
1189.86516,0.16338
1191.79363,0.15994
1193.72210,0.16176
1195.65057,0.16455
1197.57904,0.16459
1199.50751,0.16267
1201.43597,0.16153
1203.36444,0.16271
1205.29291,0.16719
1207.22138,0.17273
1209.14985,0.17642
1211.07832,0.17904
1213.00679,0.18128
1214.93526,0.17832
1216.86372,0.16875
1218.79219,0.16309
1220.72066,0.16570
1222.64913,0.16710
1224.57760,0.16490
1226.50607,0.16507
1228.43454,0.16658
1230.36300,0.16768
1232.29147,0.16917
1234.21994,0.16818
1236.14841,0.16556
1238.07688,0.16734
1240.00535,0.17251
1241.93382,0.17465
1243.86229,0.17403
1245.79075,0.17432
1247.71922,0.17413
1249.64769,0.17049
1251.57616,0.16609
1253.50463,0.16614
1255.43310,0.16994
1257.36157,0.17236
1259.29003,0.16799
1261.21850,0.16012
1263.14697,0.16129
1265.07544,0.17083
1267.00391,0.17472
1268.93238,0.17035
1270.86085,0.16863
1272.78932,0.17315
1274.71778,0.17461
1276.64625,0.17139
1278.57472,0.17165
1280.50319,0.17296
1282.43166,0.17119
1284.36013,0.17109
1286.28860,0.17136
1288.21706,0.17040
1290.14553,0.17150
1292.07400,0.17185
1294.00247,0.16965
1295.93094,0.16743
1297.85941,0.16545
1299.78788,0.16209
1301.71634,0.15467
1303.64481,0.14577
1305.57328,0.14751
1307.50175,0.16243
1309.43022,0.17502
1311.35869,0.17831
1313.28716,0.17646
1315.21563,0.17230
1317.14409,0.17112
1319.07256,0.17175
1321.00103,0.16919
1322.92950,0.16777
1324.85797,0.16794
1326.78644,0.16580
1328.71491,0.16472
1330.64337,0.16450
1332.57184,0.16473
1334.50031,0.16916
1336.42878,0.17403
1338.35725,0.17558
1340.28572,0.17433
1342.21419,0.17686
1344.14266,0.18257
1346.07112,0.18111
1347.99959,0.17493
1349.92806,0.16989
1351.85653,0.16611
1353.78500,0.16470
1355.71347,0.16529
1357.64194,0.16637
1359.57040,0.16619
1361.49887,0.16776
1363.42734,0.17118
1365.35581,0.17317
1367.28428,0.17743
1369.21275,0.18201
1371.14122,0.18078
1373.06969,0.17611
1374.99815,0.17423
1376.92662,0.17653
1378.85509,0.18071
1380.78356,0.18311
1382.71203,0.18113
1384.64050,0.17999
1386.56897,0.18532
1388.49743,0.19033
1390.42590,0.19001
1392.35437,0.19087
1394.28284,0.19308
1396.21131,0.19284
1398.13978,0.18923
1400.06825,0.18406
1401.99672,0.18181
1403.92518,0.18049
1405.85365,0.17885
1407.78212,0.17983
1409.71059,0.18062
1411.63906,0.17863
1413.56753,0.17773
1415.49600,0.18205
1417.42446,0.19078
1419.35293,0.19565
1421.28140,0.19227
1423.20987,0.18684
1425.13834,0.18199
1427.06681,0.18156
1428.99528,0.18577
1430.92375,0.18757
1432.85221,0.18328
1434.78068,0.17763
1436.70915,0.17479
1438.63762,0.17645
1440.56609,0.17998
1442.49456,0.18267
1444.42303,0.18549
1446.35149,0.19101
1448.27996,0.19676
1450.20843,0.19806
1452.13690,0.19650
1454.06537,0.19551
1455.99384,0.19815
1457.92231,0.20324
1459.85077,0.20163
1461.77924,0.19971
1463.70771,0.19910
1465.63618,0.19431
1467.56465,0.19030
1469.49312,0.19357
1471.42159,0.20295
1473.35006,0.20796
1475.27852,0.20100
1477.20699,0.19449
1479.13546,0.19178
1481.06393,0.18897
1482.99240,0.18667
1484.92087,0.19035
1486.84934,0.19996
1488.77780,0.20471
1490.70627,0.19686
1492.63474,0.19011
1494.56321,0.19266
1496.49168,0.20108
1498.42015,0.20135
1500.34862,0.19199
1502.27709,0.18812
1504.20555,0.19485
1506.13402,0.20876
1508.06249,0.20980
1509.99096,0.20115
1511.91943,0.19714
1513.84790,0.19722
1515.77637,0.20117
1517.70483,0.20655
1519.63330,0.21091
1521.56177,0.21286
1523.49024,0.21210
1525.41871,0.21179
1527.34718,0.20599
1529.27565,0.19904
1531.20412,0.20032
1533.13258,0.20471
1535.06105,0.20571
1536.98952,0.21171
1538.91799,0.22673
1540.84646,0.23164
1542.77493,0.22000
1544.70340,0.21005
1546.63186,0.20080
1548.56033,0.19576
1550.48880,0.19431
1552.41727,0.19424
1554.34574,0.19920
1556.27421,0.21357
1558.20268,0.23122
1560.13115,0.21350
1562.05961,0.19190
1563.98808,0.18694
1565.91655,0.19004
1567.84502,0.19523
1569.77349,0.19695
1571.70196,0.19447
1573.63043,0.19572
1575.55889,0.19871
1577.48736,0.19558
1579.41583,0.19122
1581.34430,0.18754
1583.27277,0.18336
1585.20124,0.17940
1587.12971,0.17693
1589.05818,0.17777
1590.98664,0.17886
1592.91511,0.17779
1594.84358,0.17758
1596.77205,0.17881
1598.70052,0.18029
1600.62899,0.18190
1602.55746,0.18129
1604.48592,0.17926
1606.41439,0.18098
1608.34286,0.18415
1610.27133,0.18387
1612.19980,0.18508
1614.12827,0.19219
1616.05674,0.20225
1617.98521,0.20624
1619.91367,0.20521
1621.84214,0.20509
1623.77061,0.20333
1625.69908,0.20056
1627.62755,0.19902
1629.55602,0.19676
1631.48449,0.19695
1633.41295,0.20443
1635.34142,0.21389
1637.26989,0.20625
1639.19836,0.19821
1641.12683,0.19911
1643.05530,0.20199
1644.98377,0.20910
1646.91223,0.21727
1648.84070,0.21252
1650.76917,0.20955
1652.69764,0.21794
1654.62611,0.21861
1656.55458,0.20826
1658.48305,0.20407
1660.41152,0.21069
1662.33998,0.21912
1664.26845,0.21363
1666.19692,0.20909
1668.12539,0.21713
1670.05386,0.22264
1671.98233,0.21785
1673.91080,0.21523
1675.83926,0.21136
1677.76773,0.20719
1679.69620,0.21132
1681.62467,0.22317
1683.55314,0.23349
1685.48161,0.22694
1687.41008,0.21504
1689.33855,0.20712
1691.26701,0.20376
1693.19548,0.20743
1695.12395,0.21511
1697.05242,0.21690
1698.98089,0.21416
1700.90936,0.21225
1702.83783,0.20792
1704.76629,0.20410
1706.69476,0.20277
1708.62323,0.20290
1710.55170,0.20385
1712.48017,0.20462
1714.40864,0.20687
1716.33711,0.21082
1718.26558,0.20370
1720.19404,0.19210
1722.12251,0.18905
1724.05098,0.19206
1725.97945,0.19510
1727.90792,0.19641
1729.83639,0.19805
1731.76486,0.20043
1733.69332,0.20048
1735.62179,0.19700
1737.55026,0.19622
1739.47873,0.19833
1741.40720,0.20016
1743.33567,0.20009
1745.26414,0.20116
1747.19261,0.20473
1749.12107,0.20412
1751.04954,0.19496
1752.97801,0.18863
1754.90648,0.19140
1756.83495,0.19762
1758.76342,0.20151
1760.69189,0.20349
1762.62035,0.20078
1764.54882,0.19482
1766.47729,0.19293
1768.40576,0.19602
1770.33423,0.20266
1772.26270,0.20836
1774.19117,0.20473
1776.11964,0.19774
1778.04810,0.19490
1779.97657,0.19501
1781.90504,0.19505
1783.83351,0.19424
1785.76198,0.19126
1787.69045,0.19028
1789.61892,0.19507
1791.54738,0.20102
1793.47585,0.20365
1795.40432,0.20298
1797.33279,0.19961
1799.26126,0.19660
1801.18973,0.19504
1803.11820,0.19271
1805.04666,0.19213
1806.97513,0.19504
1808.90360,0.19869
1810.83207,0.19938
1812.76054,0.19578
1814.68901,0.19206
1816.61748,0.19373
1818.54595,0.20415
1820.47441,0.21452
1822.40288,0.21110
1824.33135,0.19922
1826.25982,0.19398
1828.18829,0.19610
1830.11676,0.19922
1832.04523,0.19910
1833.97369,0.19710
1835.90216,0.19618
1837.83063,0.19576
1839.75910,0.19543
1841.68757,0.19741
1843.61604,0.20018
1845.54451,0.19829
1847.47298,0.19454
1849.40144,0.19251
1851.32991,0.19196
1853.25838,0.19217
1855.18685,0.19154
1857.11532,0.19013
1859.04379,0.18902
1860.97226,0.18868
1862.90072,0.18884
1864.82919,0.18989
1866.75766,0.19428
1868.68613,0.20031
1870.61460,0.19979
1872.54307,0.19346
1874.47154,0.18717
1876.40001,0.18364
1878.32847,0.18449
1880.25694,0.18754
1882.18541,0.18772
1884.11388,0.18623
1886.04235,0.18750
1887.97082,0.19078
1889.89929,0.19098
1891.82775,0.18828
1893.75622,0.18919
1895.68469,0.19271
1897.61316,0.19467
1899.54163,0.19501
1901.47010,0.19301
1903.39857,0.19103
1905.32704,0.19215
1907.25550,0.19335
1909.18397,0.19272
1911.11244,0.19239
1913.04091,0.19272
1914.96938,0.19333
1916.89785,0.19416
1918.82632,0.19314
1920.75478,0.19018
1922.68325,0.18782
1924.61172,0.18797
1926.54019,0.19028
1928.46866,0.19234
1930.39713,0.19288
1932.32560,0.19253
1934.25407,0.19201
1936.18253,0.19084
1938.11100,0.18912
1940.03947,0.18978
1941.96794,0.19360
1943.89641,0.19404
1945.82488,0.18890
1947.75335,0.18487
1949.68181,0.18489
1951.61028,0.18683
1953.53875,0.18985
1955.46722,0.19276
1957.39569,0.19291
1959.32416,0.19167
1961.25263,0.19183
1963.18110,0.19353
1965.10956,0.19549
1967.03803,0.19345
1968.96650,0.18847
1970.89497,0.18795
1972.82344,0.19131
1974.75191,0.19076
1976.68038,0.18164
1978.60884,0.17356
1980.53731,0.17799
1982.46578,0.18541
1984.39425,0.18603
1986.32272,0.18758
1988.25119,0.19291
1990.17966,0.19557
1992.10812,0.19438
1994.03659,0.19296
1995.96506,0.19236
1997.89353,0.19214
1999.82200,0.19241
2001.75047,0.19255
2003.67894,0.19178
2005.60741,0.19050
2007.53587,0.19023
2009.46434,0.19112
2011.39281,0.19262
2013.32128,0.19446
2015.24975,0.19553
2017.17822,0.19438
2019.10669,0.19074
2021.03515,0.18864
2022.96362,0.19023
2024.89209,0.19217
2026.82056,0.19344
2028.74903,0.19441
2030.67750,0.19402
2032.60597,0.19302
2034.53444,0.19311
2036.46290,0.19381
2038.39137,0.19322
2040.31984,0.19153
2042.24831,0.19079
2044.17678,0.19183
2046.10525,0.19251
2048.03372,0.19090
2049.96218,0.18926
2051.89065,0.19039
2053.81912,0.19320
2055.74759,0.19379
2057.67606,0.19179
2059.60453,0.19104
2061.53300,0.19083
2063.46147,0.18941
2065.38993,0.18999
2067.31840,0.19298
2069.24687,0.19413
2071.17534,0.19203
2073.10381,0.19010
2075.03228,0.19113
2076.96075,0.19306
2078.88921,0.19405
2080.81768,0.19469
2082.74615,0.19442
2084.67462,0.19339
2086.60309,0.19337
2088.53156,0.19455
2090.46003,0.19456
2092.38850,0.19261
2094.31696,0.19032
2096.24543,0.18867
2098.17390,0.18894
2100.10237,0.19086
2102.03084,0.19212
2103.95931,0.19196
2105.88778,0.19130
2107.81624,0.19075
2109.74471,0.18963
2111.67318,0.18931
2113.60165,0.19162
2115.53012,0.19418
2117.45859,0.19481
2119.38706,0.19407
2121.31553,0.19302
2123.24399,0.19285
2125.17246,0.19385
2127.10093,0.19481
2129.02940,0.19431
2130.95787,0.19393
2132.88634,0.19420
2134.81481,0.18937
2136.74327,0.18166
2138.67174,0.18210
2140.60021,0.18806
2142.52868,0.19012
2144.45715,0.19082
2146.38562,0.19398
2148.31409,0.19596
2150.24255,0.19414
2152.17102,0.19065
2154.09949,0.18849
2156.02796,0.18838
2157.95643,0.19048
2159.88490,0.19417
2161.81337,0.19676
2163.74184,0.19724
2165.67030,0.19688
2167.59877,0.19564
2169.52724,0.19377
2171.45571,0.19267
2173.38418,0.19234
2175.31265,0.19293
2177.24112,0.19468
2179.16958,0.19688
2181.09805,0.19835
2183.02652,0.19691
2184.95499,0.19433
2186.88346,0.19472
2188.81193,0.19661
2190.74040,0.19607
2192.66887,0.19278
2194.59733,0.18986
2196.52580,0.18909
2198.45427,0.18916
2200.38274,0.18992
2202.31121,0.19135
2204.23968,0.19241
2206.16815,0.19406
2208.09661,0.19496
2210.02508,0.19279
2211.95355,0.19107
2213.88202,0.19258
2215.81049,0.19472
2217.73896,0.19405
2219.66743,0.19028
2221.59590,0.18773
2223.52436,0.18933
2225.45283,0.19163
2227.38130,0.19137
2229.30977,0.19113
2231.23824,0.19415
2233.16671,0.19742
2235.09518,0.19545
2237.02364,0.19148
2238.95211,0.19149
2240.88058,0.19209
2242.80905,0.19187
2244.73752,0.19403
2246.66599,0.19551
2248.59446,0.19395
2250.52293,0.19293
2252.45139,0.19328
2254.37986,0.19321
2256.30833,0.19411
2258.23680,0.19504
2260.16527,0.19423
2262.09374,0.19397
2264.02221,0.19343
2265.95067,0.19239
2267.87914,0.19283
2269.80761,0.19215
2271.73608,0.18983
2273.66455,0.18884
2275.59302,0.19008
2277.52149,0.19285
2279.44996,0.19465
2281.37842,0.19562
2283.30689,0.19746
2285.23536,0.19699
2287.16383,0.19265
2289.09230,0.18782
2291.02077,0.18427
2292.94924,0.18090
2294.87770,0.17914
2296.80617,0.18137
2298.73464,0.18447
2300.66311,0.18725
2302.59158,0.19073
2304.52005,0.19077
2306.44852,0.18715
2308.37699,0.18474
2310.30545,0.18374
2312.23392,0.18284
2314.16239,0.18307
2316.09086,0.18384
2318.01933,0.18304
2319.94780,0.18005
2321.87627,0.17542
2323.80473,0.17124
2325.73320,0.17022
2327.66167,0.16881
2329.59014,0.16760
2331.51861,0.17377
2333.44708,0.17861
2335.37555,0.17803
2337.30401,0.17912
2339.23248,0.17942
2341.16095,0.17993
2343.08942,0.17896
2345.01789,0.17359
2346.94636,0.17262
2348.87483,0.17546
2350.80330,0.17738
2352.73176,0.17848
2354.66023,0.18049
2356.58870,0.17638
2358.51717,0.15234
2360.44564,0.13249
2362.37411,0.15182
2364.30258,0.18270
2366.23104,0.19647
2368.15951,0.19570
2370.08798,0.18920
2372.01645,0.18643
2373.94492,0.18288
2375.87339,0.17890
2377.80186,0.18228
2379.73033,0.18834
2381.65879,0.18948
2383.58726,0.18837
2385.51573,0.18900
2387.44420,0.19047
2389.37267,0.19325
2391.30114,0.19795
2393.22961,0.19998
2395.15807,0.19667
2397.08654,0.19282
2399.01501,0.19276
2400.94348,0.19496
2402.87195,0.19517
2404.80042,0.19225
2406.72889,0.19008
2408.65736,0.19093
2410.58582,0.19366
2412.51429,0.19563
2414.44276,0.19511
2416.37123,0.19439
2418.29970,0.19457
2420.22817,0.19496
2422.15664,0.19547
2424.08510,0.19435
2426.01357,0.19214
2427.94204,0.19277
2429.87051,0.19627
2431.79898,0.19769
2433.72745,0.19495
2435.65592,0.19183
2437.58439,0.19172
2439.51285,0.19322
2441.44132,0.19309
2443.36979,0.19136
2445.29826,0.19085
2447.22673,0.19299
2449.15520,0.19657
2451.08367,0.20122
2453.01213,0.20637
2454.94060,0.20498
2456.86907,0.19533
2458.79754,0.18923
2460.72601,0.19026
2462.65448,0.19139
2464.58295,0.19143
2466.51142,0.19196
2468.43988,0.19236
2470.36835,0.19202
2472.29682,0.19297
2474.22529,0.19580
2476.15376,0.19785
2478.08223,0.19776
2480.01070,0.19491
2481.93916,0.19190
2483.86763,0.19131
2485.79610,0.19019
2487.72457,0.18868
2489.65304,0.18914
2491.58151,0.18970
2493.50998,0.19104
2495.43844,0.19449
2497.36691,0.19601
2499.29538,0.19463
2501.22385,0.19382
2503.15232,0.19419
2505.08079,0.19387
2507.00926,0.19280
2508.93773,0.19291
2510.86619,0.19375
2512.79466,0.19385
2514.72313,0.19520
2516.65160,0.19812
2518.58007,0.19879
2520.50854,0.19722
2522.43701,0.19682
2524.36547,0.19727
2526.29394,0.19700
2528.22241,0.19627
2530.15088,0.19554
2532.07935,0.19500
2534.00782,0.19487
2535.93629,0.19576
2537.86476,0.19642
2539.79322,0.19447
2541.72169,0.19307
2543.65016,0.19465
2545.57863,0.19416
2547.50710,0.19046
2549.43557,0.18872
2551.36404,0.18998
2553.29250,0.19157
2555.22097,0.19230
2557.14944,0.19248
2559.07791,0.19231
2561.00638,0.19151
2562.93485,0.19015
2564.86332,0.18944
2566.79179,0.18979
2568.72025,0.19063
2570.64872,0.19304
2572.57719,0.19685
2574.50566,0.19965
2576.43413,0.20119
2578.36260,0.20229
2580.29107,0.20207
2582.21953,0.19893
2584.14800,0.19433
2586.07647,0.19245
2588.00494,0.19345
2589.93341,0.19405
2591.86188,0.19396
2593.79035,0.19546
2595.71882,0.19757
2597.64728,0.19708
2599.57575,0.19536
2601.50422,0.19541
2603.43269,0.19671
2605.36116,0.19815
2607.28963,0.20042
2609.21810,0.20411
2611.14656,0.20742
2613.07503,0.20736
2615.00350,0.20366
2616.93197,0.20062
2618.86044,0.20077
2620.78891,0.20088
2622.71738,0.19907
2624.64585,0.19737
2626.57431,0.19692
2628.50278,0.19706
2630.43125,0.19758
2632.35972,0.19847
2634.28819,0.19942
2636.21666,0.20013
2638.14513,0.20002
2640.07359,0.19970
2642.00206,0.19961
2643.93053,0.19886
2645.85900,0.19657
2647.78747,0.19265
2649.71594,0.19046
2651.64441,0.19408
2653.57288,0.19969
2655.50134,0.19934
2657.42981,0.19624
2659.35828,0.19847
2661.28675,0.20206
2663.21522,0.20069
2665.14369,0.19815
2667.07216,0.19965
2669.00062,0.20420
2670.92909,0.20682
2672.85756,0.20458
2674.78603,0.19989
2676.71450,0.19622
2678.64297,0.19393
2680.57144,0.19292
2682.49990,0.19418
2684.42837,0.19594
2686.35684,0.19596
2688.28531,0.19490
2690.21378,0.19404
2692.14225,0.19522
2694.07072,0.19891
2695.99919,0.20257
2697.92765,0.20347
2699.85612,0.20162
2701.78459,0.19913
2703.71306,0.19785
2705.64153,0.19830
2707.57000,0.19932
2709.49847,0.20103
2711.42693,0.20275
2713.35540,0.20237
2715.28387,0.20200
2717.21234,0.20338
2719.14081,0.20463
2721.06928,0.20441
2722.99775,0.20365
2724.92622,0.20370
2726.85468,0.20332
2728.78315,0.20191
2730.71162,0.20119
2732.64009,0.20189
2734.56856,0.20290
2736.49703,0.20202
2738.42550,0.19970
2740.35396,0.19998
2742.28243,0.20202
2744.21090,0.20173
2746.13937,0.20084
2748.06784,0.20169
2749.99631,0.20321
2751.92478,0.20434
2753.85325,0.20487
2755.78171,0.20594
2757.71018,0.20896
2759.63865,0.21196
2761.56712,0.21187
2763.49559,0.20976
2765.42406,0.20763
2767.35253,0.20602
2769.28099,0.20634
2771.20946,0.20920
2773.13793,0.21026
2775.06640,0.20673
2776.99487,0.20433
2778.92334,0.20686
2780.85181,0.21123
2782.78028,0.21341
2784.70874,0.21199
2786.63721,0.20929
2788.56568,0.20762
2790.49415,0.20659
2792.42262,0.20710
2794.35109,0.21097
2796.27956,0.21468
2798.20802,0.21349
2800.13649,0.20868
2802.06496,0.20509
2803.99343,0.20466
2805.92190,0.20587
2807.85037,0.20734
2809.77884,0.20843
2811.70731,0.20926
2813.63577,0.20927
2815.56424,0.20900
2817.49271,0.20987
2819.42118,0.20952
2821.34965,0.20726
2823.27812,0.20590
2825.20659,0.20609
2827.13505,0.20754
2829.06352,0.20987
2830.99199,0.21062
2832.92046,0.20896
2834.84893,0.20825
2836.77740,0.21160
2838.70587,0.21610
2840.63433,0.21578
2842.56280,0.21124
2844.49127,0.20676
2846.41974,0.20430
2848.34821,0.20464
2850.27668,0.20620
2852.20515,0.20651
2854.13362,0.20645
2856.06208,0.20845
2857.99055,0.21149
2859.91902,0.21290
2861.84749,0.21314
2863.77596,0.21339
2865.70443,0.21230
2867.63290,0.21107
2869.56136,0.21156
2871.48983,0.21063
2873.41830,0.20933
2875.34677,0.21151
2877.27524,0.21484
2879.20371,0.21702
2881.13218,0.21682
2883.06065,0.21323
2884.98911,0.21057
2886.91758,0.21078
2888.84605,0.21015
2890.77452,0.20867
2892.70299,0.20800
2894.63146,0.20902
2896.55993,0.21358
2898.48839,0.21792
2900.41686,0.21633
2902.34533,0.21051
2904.27380,0.20476
2906.20227,0.20166
2908.13074,0.20250
2910.05921,0.20491
2911.98768,0.20496
2913.91614,0.20115
2915.84461,0.19671
2917.77308,0.19631
2919.70155,0.19962
2921.63002,0.20358
2923.55849,0.20463
2925.48696,0.20140
2927.41542,0.20196
2929.34389,0.20901
2931.27236,0.21004
2933.20083,0.20264
2935.12930,0.19632
2937.05777,0.19432
2938.98624,0.19721
2940.91471,0.20139
2942.84317,0.20171
2944.77164,0.19805
2946.70011,0.19181
2948.62858,0.19143
2950.55705,0.20116
2952.48552,0.20875
2954.41399,0.20733
2956.34245,0.20144
2958.27092,0.19809
2960.19939,0.20284
2962.12786,0.21039
2964.05633,0.21264
2965.98480,0.20783
2967.91327,0.20115
2969.84174,0.20144
2971.77020,0.20519
2973.69867,0.20662
2975.62714,0.20841
2977.55561,0.20836
2979.48408,0.20702
2981.41255,0.20891
2983.34102,0.21150
2985.26948,0.21214
2987.19795,0.20901
2989.12642,0.20594
2991.05489,0.20886
2992.98336,0.21067
2994.91183,0.20845
2996.84030,0.20803
2998.76877,0.21007
3000.69723,0.21503
3002.62570,0.22044
3004.55417,0.22095
3006.48264,0.21598
3008.41111,0.20814
3010.33958,0.19876
3012.26805,0.18382
3014.19651,0.15934
3016.12498,0.13909
3018.05345,0.14894
3019.98192,0.18356
3021.91039,0.20841
3023.83886,0.21266
3025.76733,0.21088
3027.69579,0.21099
3029.62426,0.21256
3031.55273,0.21482
3033.48120,0.21511
3035.40967,0.21330
3037.33814,0.21218
3039.26661,0.21098
3041.19508,0.20955
3043.12354,0.20954
3045.05201,0.20866
3046.98048,0.20563
3048.90895,0.20402
3050.83742,0.20506
3052.76589,0.20590
3054.69436,0.20498
3056.62282,0.20310
3058.55129,0.20392
3060.47976,0.20836
3062.40823,0.20973
3064.33670,0.20156
3066.26517,0.19087
3068.19364,0.19215
3070.12211,0.20250
3072.05057,0.21076
3073.97904,0.21188
3075.90751,0.20521
3077.83598,0.20219
3079.76445,0.20851
3081.69292,0.21341
3083.62139,0.20707
3085.54985,0.19509
3087.47832,0.19409
3089.40679,0.20478
3091.33526,0.20888
3093.26373,0.19814
3095.19220,0.19059
3097.12067,0.19786
3099.04914,0.20651
3100.97760,0.20872
3102.90607,0.20431
3104.83454,0.19855
3106.76301,0.20017
3108.69148,0.20555
3110.61995,0.20595
3112.54842,0.20142
3114.47688,0.20168
3116.40535,0.20765
3118.33382,0.20954
3120.26229,0.20648
3122.19076,0.20413
3124.11923,0.20642
3126.04770,0.21204
3127.97617,0.21461
3129.90463,0.21255
3131.83310,0.21203
3133.76157,0.21624
3135.69004,0.21864
3137.61851,0.21616
3139.54698,0.21464
3141.47545,0.21476
3143.40391,0.21355
3145.33238,0.21161
3147.26085,0.20897
3149.18932,0.20603
3151.11779,0.20470
3153.04626,0.20625
3154.97473,0.21173
3156.90320,0.21979
3158.83166,0.22414
3160.76013,0.22265
3162.68860,0.22139
3164.61707,0.22290
3166.54554,0.22263
3168.47401,0.21930
3170.40248,0.21975
3172.33094,0.22371
3174.25941,0.22127
3176.18788,0.21403
3178.11635,0.21276
3180.04482,0.21788
3181.97329,0.22284
3183.90176,0.22409
3185.83022,0.22104
3187.75869,0.21728
3189.68716,0.21417
3191.61563,0.21178
3193.54410,0.21515
3195.47257,0.22267
3197.40104,0.22570
3199.32951,0.22443
3201.25797,0.22574
3203.18644,0.22649
3205.11491,0.22008
3207.04338,0.21458
3208.97185,0.21715
3210.90032,0.21989
3212.82879,0.21874
3214.75725,0.21946
3216.68572,0.22218
3218.61419,0.21937
3220.54266,0.21310
3222.47113,0.21253
3224.39960,0.21324
3226.32807,0.21079
3228.25654,0.21249
3230.18500,0.21729
3232.11347,0.21856
3234.04194,0.21975
3235.97041,0.22403
3237.89888,0.22550
3239.82735,0.22184
3241.75582,0.21784
3243.68428,0.21709
3245.61275,0.22035
3247.54122,0.22523
3249.46969,0.22696
3251.39816,0.22489
3253.32663,0.22223
3255.25510,0.21885
3257.18357,0.21665
3259.11203,0.21849
3261.04050,0.21932
3262.96897,0.21651
3264.89744,0.21459
3266.82591,0.21500
3268.75438,0.21469
3270.68285,0.21162
3272.61131,0.20761
3274.53978,0.20742
3276.46825,0.21034
3278.39672,0.21135
3280.32519,0.21184
3282.25366,0.21248
3284.18213,0.21219
3286.11060,0.21381
3288.03906,0.21607
3289.96753,0.21493
3291.89600,0.21034
3293.82447,0.20828
3295.75294,0.21279
3297.68141,0.21640
3299.60988,0.21409
3301.53834,0.21116
3303.46681,0.21101
3305.39528,0.21327
3307.32375,0.21599
3309.25222,0.21519
3311.18069,0.21023
3313.10916,0.20596
3315.03763,0.20656
3316.96609,0.21027
3318.89456,0.21195
3320.82303,0.21016
3322.75150,0.20787
3324.67997,0.20829
3326.60844,0.21116
3328.53691,0.21267
3330.46537,0.21227
3332.39384,0.21241
3334.32231,0.21342
3336.25078,0.21467
3338.17925,0.21504
3340.10772,0.21408
3342.03619,0.21296
3343.96466,0.21463
3345.89312,0.22033
3347.82159,0.22542
3349.75006,0.22637
3351.67853,0.22303
3353.60700,0.21992
3355.53547,0.22232
3357.46394,0.22612
3359.39240,0.22800
3361.32087,0.22935
3363.24934,0.22947
3365.17781,0.22674
3367.10628,0.22292
3369.03475,0.22176
3370.96322,0.22131
3372.89168,0.21993
3374.82015,0.21955
3376.74862,0.21962
3378.67709,0.21832
3380.60556,0.21591
3382.53403,0.21600
3384.46250,0.21967
3386.39097,0.22067
3388.31943,0.21445
3390.24790,0.20743
3392.17637,0.20600
3394.10484,0.21009
3396.03331,0.21793
3397.96178,0.22270
3399.89025,0.21823
3401.81871,0.20882
3403.74718,0.20298
3405.67565,0.20366
3407.60412,0.20850
3409.53259,0.21220
3411.46106,0.21113
3413.38953,0.20877
3415.31800,0.20792
3417.24646,0.20842
3419.17493,0.21117
3421.10340,0.21399
3423.03187,0.21349
3424.96034,0.21112
3426.88881,0.20991
3428.81728,0.21117
3430.74574,0.21378
3432.67421,0.21354
3434.60268,0.20896
3436.53115,0.20661
3438.45962,0.21057
3440.38809,0.21139
3442.31656,0.20374
3444.24503,0.19797
3446.17349,0.19932
3448.10196,0.20219
3450.03043,0.20197
3451.95890,0.20024
3453.88737,0.19862
3455.81584,0.19691
3457.74431,0.19877
3459.67277,0.20504
3461.60124,0.21178
3463.52971,0.21419
3465.45818,0.20836
3467.38665,0.20117
3469.31512,0.20144
3471.24359,0.20414
3473.17206,0.20273
3475.10052,0.20209
3477.02899,0.20523
3478.95746,0.20625
3480.88593,0.20383
3482.81440,0.20054
3484.74287,0.19832
3486.67134,0.19812
3488.59980,0.19491
3490.52827,0.18843
3492.45674,0.18563
3494.38521,0.18504
3496.31368,0.18184
3498.24215,0.18063
3500.17062,0.18514
3502.09909,0.18847
3504.02755,0.18331
3505.95602,0.17502
3507.88449,0.17517
3509.81296,0.18367
3511.74143,0.18880
3513.66990,0.18859
3515.59837,0.18930
3517.52683,0.18845
3519.45530,0.18240
3521.38377,0.17626
3523.31224,0.17501
3525.24071,0.17731
3527.16918,0.17889
3529.09765,0.17783
3531.02611,0.17451
3532.95458,0.17093
3534.88305,0.16886
3536.81152,0.16585
3538.73999,0.16471
3540.66846,0.17094
3542.59693,0.17765
3544.52540,0.17889
3546.45386,0.17810
3548.38233,0.17503
3550.31080,0.17134
3552.23927,0.17231
3554.16774,0.17557
3556.09621,0.17583
3558.02468,0.17101
3559.95314,0.16479
3561.88161,0.16543
3563.81008,0.17148
3565.73855,0.17553
3567.66702,0.17221
3569.59549,0.16543
3571.52396,0.16482
3573.45243,0.16551
3575.38089,0.15987
3577.30936,0.15474
3579.23783,0.15380
3581.16630,0.15182
3583.09477,0.15061
3585.02324,0.15103
3586.95171,0.14758
3588.88017,0.14229
3590.80864,0.14335
3592.73711,0.14925
3594.66558,0.15575
3596.59405,0.15938
3598.52252,0.15761
3600.45099,0.15013
3602.37946,0.14516
3604.30792,0.14950
3606.23639,0.15472
3608.16486,0.15274
3610.09333,0.15277
3612.02180,0.15763
3613.95027,0.15969
3615.87874,0.15997
3617.80720,0.16032
3619.73567,0.16052
3621.66414,0.15944
3623.59261,0.15562
3625.52108,0.15297
3627.44955,0.15615
3629.37802,0.15812
3631.30649,0.14817
3633.23495,0.13801
3635.16342,0.13699
3637.09189,0.14450
3639.02036,0.15155
3640.94883,0.15260
3642.87730,0.14987
3644.80577,0.14774
3646.73423,0.15134
3648.66270,0.16025
3650.59117,0.15958
3652.51964,0.15437
3654.44811,0.15193
3656.37658,0.14714
3658.30505,0.14073
3660.23352,0.13819
3662.16198,0.13866
3664.09045,0.13974
3666.01892,0.13957
3667.94739,0.13880
3669.87586,0.14008
3671.80433,0.14571
3673.73280,0.15686
3675.66126,0.16435
3677.58973,0.15491
3679.51820,0.14452
3681.44667,0.13864
3683.37514,0.13501
3685.30361,0.13511
3687.23208,0.14039
3689.16055,0.14700
3691.08901,0.14557
3693.01748,0.13875
3694.94595,0.13288
3696.87442,0.12750
3698.80289,0.12405
3700.73136,0.12430
3702.65983,0.12530
3704.58829,0.12809
3706.51676,0.13451
3708.44523,0.14176
3710.37370,0.14586
3712.30217,0.14224
3714.23064,0.13604
3716.15911,0.13211
3718.08757,0.13016
3720.01604,0.13261
3721.94451,0.13785
3723.87298,0.13882
3725.80145,0.13469
3727.72992,0.13220
3729.65839,0.13458
3731.58686,0.13701
3733.51532,0.13527
3735.44379,0.13452
3737.37226,0.13694
3739.30073,0.13524
3741.22920,0.13144
3743.15767,0.13368
3745.08614,0.14288
3747.01460,0.14901
3748.94307,0.15535
3750.87154,0.15785
3752.80001,0.14862
3754.72848,0.14331
3756.65695,0.14392
3758.58542,0.14286
3760.51389,0.13748
3762.44235,0.13349
3764.37082,0.13381
3766.29929,0.13471
3768.22776,0.13350
3770.15623,0.13384
3772.08470,0.13520
3774.01317,0.13344
3775.94163,0.12979
3777.87010,0.12943
3779.79857,0.13122
3781.72704,0.12928
3783.65551,0.12793
3785.58398,0.12928
3787.51245,0.12801
3789.44092,0.12419
3791.36938,0.12342
3793.29785,0.12783
3795.22632,0.13477
3797.15479,0.14144
3799.08326,0.14674
3801.01173,0.14762
3802.94020,0.14260
3804.86866,0.13975
3806.79713,0.13546
3808.72560,0.12751
3810.65407,0.12410
3812.58254,0.12617
3814.51101,0.13235
3816.43948,0.13920
3818.36795,0.14103
3820.29641,0.13863
3822.22488,0.13237
3824.15335,0.12847
3826.08182,0.13042
3828.01029,0.13360
3829.93876,0.13379
3831.86723,0.13243
3833.79569,0.12904
3835.72416,0.12636
3837.65263,0.13408
3839.58110,0.14462
3841.50957,0.13992
3843.43804,0.12904
3845.36651,0.12335
3847.29498,0.12155
3849.22344,0.12190
3851.15191,0.12629
3853.08038,0.13299
3855.00885,0.12934
3856.93732,0.12181
3858.86579,0.11849
3860.79426,0.12116
3862.72272,0.13170
3864.65119,0.14198
3866.57966,0.14275
3868.50813,0.14046
3870.43660,0.13429
3872.36507,0.12480
3874.29354,0.12315
3876.22200,0.12870
3878.15047,0.13699
3880.07894,0.14247
3882.00741,0.13531
3883.93588,0.12638
3885.86435,0.12172
3887.79282,0.11690
3889.72129,0.11576
3891.64975,0.11716
3893.57822,0.11647
3895.50669,0.11961
3897.43516,0.13026
3899.36363,0.13940
3901.29210,0.13673
3903.22057,0.13227
3905.14903,0.13224
3907.07750,0.12676
3909.00597,0.11449
3910.93444,0.10365
3912.86291,0.10233
3914.79138,0.10852
3916.71985,0.11405
3918.64832,0.11608
3920.57678,0.11570
3922.50525,0.11221
3924.43372,0.10726
3926.36219,0.10646
3928.29066,0.11190
3930.21913,0.11832
3932.14760,0.12149
3934.07606,0.12312
3936.00453,0.12473
3937.93300,0.12576
3939.86147,0.12426
3941.78994,0.11925
3943.71841,0.11361
3945.64688,0.11210
3947.57535,0.11633
3949.50381,0.12097
3951.43228,0.11978
3953.36075,0.11717
3955.28922,0.11920
3957.21769,0.12125
3959.14616,0.11649
3961.07463,0.10877
3963.00309,0.10528
3964.93156,0.10652
3966.86003,0.10936
3968.78850,0.11328
3970.71697,0.11707
3972.64544,0.11730
3974.57391,0.11401
3976.50238,0.10852
3978.43084,0.10191
3980.35931,0.09688
3982.28778,0.09688
3984.21625,0.10322
3986.14472,0.10902
3988.07319,0.10756
3990.00166,0.10531
3991.93012,0.10851
3993.85859,0.11141
3995.78706,0.10988
3997.71553,0.10755
3999.64400,0.10764
4001.57247,0.10699
4003.50094,0.10324
4005.42941,0.10154
4007.35787,0.10333
4009.28634,0.10213
4011.21481,0.09599
4013.14328,0.09210
4015.07175,0.09464
4017.00022,0.09796
4018.92869,0.09720
4020.85715,0.09452
4022.78562,0.09405
4024.71409,0.09778
4026.64256,0.10343
4028.57103,0.10521
4030.49950,0.10289
4032.42797,0.10158
4034.35644,0.10089
4036.28490,0.09840
4038.21337,0.09631
4040.14184,0.09667
4042.07031,0.09892
4043.99878,0.10108
4045.92725,0.10176
4047.85572,0.10201
4049.78418,0.10211
4051.71265,0.10072
4053.64112,0.09836
4055.56959,0.09712
4057.49806,0.09702
4059.42653,0.09773
4061.35500,0.09950
4063.28346,0.09997
4065.21193,0.09988
4067.14040,0.09991
4069.06887,0.09698
4070.99734,0.09431
4072.92581,0.09698
4074.85428,0.10230
4076.78275,0.10324
4078.71121,0.09917
4080.63968,0.09503
4082.56815,0.09250
4084.49662,0.09262
4086.42509,0.09616
4088.35356,0.10067
4090.28203,0.10229
4092.21049,0.10160
4094.13896,0.10037
4096.06743,0.09693
4097.99590,0.09593
4099.92437,0.10222
4101.85284,0.10735
4103.78131,0.10357
4105.70978,0.09600
4107.63824,0.09105
4109.56671,0.09083
4111.49518,0.09390
4113.42365,0.09576
4115.35212,0.09538
4117.28059,0.09239
4119.20906,0.08587
4121.13752,0.08138
4123.06599,0.08551
4124.99446,0.09481
4126.92293,0.10225
4128.85140,0.10748
4130.77987,0.10823
4132.70834,0.10082
4134.63681,0.09188
4136.56527,0.08771
4138.49374,0.08493
4140.42221,0.08216
4142.35068,0.08232
4144.27915,0.08456
4146.20762,0.08426
4148.13609,0.08297
4150.06455,0.08625
4151.99302,0.09078
4153.92149,0.09044
4155.84996,0.08664
4157.77843,0.08292
4159.70690,0.07909
4161.63537,0.07558
4163.56384,0.07189
4165.49230,0.06881
4167.42077,0.07350
4169.34924,0.08252
4171.27771,0.08470
4173.20618,0.08045
4175.13465,0.07489
4177.06312,0.07078
4178.99158,0.07007
4180.92005,0.07345
4182.84852,0.07773
4184.77699,0.07856
4186.70546,0.07652
4188.63393,0.07281
4190.56240,0.06951
4192.49087,0.07264
4194.41933,0.08004
4196.34780,0.08177
4198.27627,0.07417
4200.20474,0.06458
4202.13321,0.06363
4204.06168,0.07030
4205.99015,0.07712
4207.91861,0.08153
4209.84708,0.08214
4211.77555,0.07803
4213.70402,0.07392
4215.63249,0.07492
4217.56096,0.07895
4219.48943,0.08265
4221.41789,0.08249
4223.34636,0.07707
4225.27483,0.07053
4227.20330,0.06731
4229.13177,0.07002
4231.06024,0.07369
4232.98871,0.07536
4234.91718,0.07812
4236.84564,0.07920
4238.77411,0.07767
4240.70258,0.07758
4242.63105,0.07974
4244.55952,0.07880
4246.48799,0.07231
4248.41646,0.06570
4250.34492,0.06392
4252.27339,0.06871
4254.20186,0.07362
4256.13033,0.07155
4258.05880,0.06775
4259.98727,0.06682
4261.91574,0.06849
4263.84421,0.07139
4265.77267,0.07034
4267.70114,0.06673
4269.62961,0.06538
4271.55808,0.06539
4273.48655,0.06794
4275.41502,0.07319
4277.34349,0.07828
4279.27195,0.07930
4281.20042,0.07466
4283.12889,0.06996
4285.05736,0.06533
4286.98583,0.05754
4288.91430,0.05117
4290.84277,0.05065
4292.77124,0.05647
4294.69970,0.06250
4296.62817,0.06345
4298.55664,0.06633
4300.48511,0.07232
4302.41358,0.07187
4304.34205,0.06483
4306.27052,0.05657
4308.19898,0.05081
4310.12745,0.04865
4312.05592,0.04832
4313.98439,0.05129
4315.91286,0.05471
4317.84133,0.05420
4319.76980,0.05309
4321.69827,0.05187
4323.62673,0.04674
4325.55520,0.04342
4327.48367,0.05021
4329.41214,0.05897
4331.34061,0.05873
4333.26908,0.05451
4335.19755,0.05264
4337.12601,0.05033
4339.05448,0.04999
4340.98295,0.05481
4342.91142,0.05639
4344.83989,0.04976
4346.76836,0.04265
4348.69683,0.04167
4350.62530,0.04201
4352.55376,0.03846
4354.48223,0.03233
4356.41070,0.02773
4358.33917,0.03136
4360.26764,0.04158
4362.19611,0.04844
4364.12458,0.04967
4366.05304,0.04984
4367.98151,0.04892
4369.90998,0.04450
4371.83845,0.04022
4373.76692,0.03950
4375.69539,0.03941
4377.62386,0.04120
4379.55232,0.04969
4381.48079,0.05661
4383.40926,0.05035
4385.33773,0.03731
4387.26620,0.03082
4389.19467,0.03119
4391.12314,0.03234
4393.05161,0.03421
4394.98007,0.03739
4396.90854,0.03994
4398.83701,0.04027
4400.76548,0.03986
4402.69395,0.04186
4404.62242,0.04441
4406.55089,0.04332
4408.47935,0.03924
4410.40782,0.03741
4412.33629,0.03752
4414.26476,0.03463
4416.19323,0.03225
4418.12170,0.03143
4420.05017,0.02565
4421.97864,0.01879
4423.90710,0.01916
4425.83557,0.02525
4427.76404,0.03045
4429.69251,0.03143
4431.62098,0.03007
4433.54945,0.02881
4435.47792,0.03029
4437.40638,0.03722
4439.33485,0.04450
4441.26332,0.04470
4443.19179,0.03981
4445.12026,0.03673
4447.04873,0.03809
4448.97720,0.03709
4450.90567,0.02877
4452.83413,0.02224
4454.76260,0.02406
4456.69107,0.02759
4458.61954,0.02768
4460.54801,0.02810
4462.47648,0.02872
4464.40495,0.02460
4466.33341,0.01904
4468.26188,0.01771
4470.19035,0.01988
4472.11882,0.02034
4474.04729,0.01840
4475.97576,0.01690
4477.90423,0.01466
4479.83270,0.00958
4481.76116,0.00383
4483.68963,0.00314
4485.61810,0.00800
4487.54657,0.01585
4489.47504,0.02508
4491.40351,0.03419
4493.33198,0.04269
4495.26044,0.04361
4497.18891,0.03283
4499.11738,0.02142
4501.04585,0.01871
4502.97432,0.01700
4504.90279,0.01137
4506.83126,0.01556
4508.75973,0.03110
4510.68819,0.03373
4512.61666,0.02100
4514.54513,0.01875
4516.47360,0.02786
4518.40207,0.03067
4520.33054,0.02711
4522.25901,0.02271
4524.18747,0.01707
4526.11594,0.01335
4528.04441,0.01645
4529.97288,0.02216
4531.90135,0.02552
4533.82982,0.02705
4535.75829,0.02534
4537.68676,0.02248
4539.61522,0.02244
4541.54369,0.01765
4543.47216,0.00428
4545.40063,-0.00154
4547.32910,0.00719
4549.25757,0.01496
4551.18604,0.01413
4553.11450,0.01074
4555.04297,0.00975
4556.97144,0.01290
4558.89991,0.01827
4560.82838,0.02111
4562.75685,0.01899
4564.68532,0.01587
4566.61378,0.01734
4568.54225,0.01911
4570.47072,0.01665
4572.39919,0.01444
4574.32766,0.01476
4576.25613,0.01221
4578.18460,0.00321
4580.11307,-0.00535
4582.04153,-0.00443
4583.97000,0.00768
4585.89847,0.02404
4587.82694,0.03047
4589.75541,0.02479
4591.68388,0.01869
4593.61235,0.01519
4595.54081,0.01174
4597.46928,0.01046
4599.39775,0.01116
4601.32622,0.01153
4603.25469,0.01410
4605.18316,0.01948
4607.11163,0.02108
4609.04010,0.02054
4610.96856,0.02311
4612.89703,0.02095
4614.82550,0.00913
4616.75397,-0.00278
4618.68244,-0.00465
4620.61091,0.00320
4622.53938,0.01188
4624.46784,0.01467
4626.39631,0.01263
4628.32478,0.01084
4630.25325,0.01211
4632.18172,0.01256
4634.11019,0.01012
4636.03866,0.00978
4637.96713,0.01181
4639.89559,0.01368
4641.82406,0.01321
4643.75253,0.00625
4645.68100,-0.00051
4647.60947,0.00297
4649.53794,0.01137
4651.46641,0.01383
4653.39487,0.01050
4655.32334,0.00960
4657.25181,0.00852
4659.18028,0.00196
4661.10875,-0.00316
4663.03722,-0.00366
4664.96569,0.00292
4666.89416,0.01112
4668.82262,0.00637
4670.75109,0.00040
4672.67956,0.00314
4674.60803,0.00413
4676.53650,0.00612
4678.46497,0.00953
4680.39344,0.00527
4682.32190,-0.00225
4684.25037,-0.00380
4686.17884,0.00059
4688.10731,0.00889
4690.03578,0.01956
4691.96425,0.02658
4693.89272,0.02517
4695.82119,0.01735
4697.74965,0.01210
4699.67812,0.01332
4701.60659,0.01581
4703.53506,0.01737
4705.46353,0.01687
4707.39200,0.01508
4709.32047,0.01230
4711.24893,0.00631
4713.17740,0.00369
4715.10587,0.00963
4717.03434,0.01498
4718.96281,0.00815
4720.89128,-0.00169
4722.81975,0.00329
4724.74821,0.01014
4726.67668,0.00003
4728.60515,-0.01503
4730.53362,-0.02083
4732.46209,-0.01801
4734.39056,-0.00989
4736.31903,-0.00133
4738.24750,0.00498
4740.17596,0.01253
4742.10443,0.01849
4744.03290,0.01231
4745.96137,-0.00266
4747.88984,-0.00637
4749.81831,0.00468
4751.74678,0.00914
4753.67524,0.00384
4755.60371,0.00181
4757.53218,0.00430
4759.46065,0.01156
4761.38912,0.01499
4763.31759,0.00306
4765.24606,-0.00623
4767.17453,0.00327
4769.10299,0.01314
4771.03146,0.01076
4772.95993,0.00672
4774.88840,0.00556
4776.81687,0.00686
4778.74534,0.00842
4780.67381,0.00362
4782.60227,-0.00028
4784.53074,0.00583
4786.45921,0.01164
4788.38768,0.00969
4790.31615,0.01103
4792.24462,0.02014
4794.17309,0.02612
4796.10156,0.02491
4798.03002,0.02207
4799.95849,0.02016
4801.88696,0.01545
4803.81543,0.00522
4805.74390,-0.00283
4807.67237,-0.00368
4809.60084,-0.00199
4811.52930,0.00013
4813.45777,0.00462
4815.38624,0.01430
4817.31471,0.02167
4819.24318,0.01824
4821.17165,0.01401
4823.10012,0.01308
4825.02859,0.00675
4826.95705,0.00343
4828.88552,0.01707
4830.81399,0.03031
4832.74246,0.02479
4834.67093,0.01644
4836.59940,0.01363
4838.52787,0.00500
4840.45633,-0.00235
4842.38480,0.00263
4844.31327,0.01471
4846.24174,0.02388
4848.17021,0.02349
4850.09868,0.01778
4852.02715,0.01088
4853.95562,0.00267
4855.88408,0.00060
4857.81255,0.00670
4859.74102,0.01328
4861.66949,0.01299
4863.59796,0.00967
4865.52643,0.01376
4867.45490,0.01947
4869.38336,0.01525
4871.31183,0.00752
4873.24030,0.00268
4875.16877,-0.00251
4877.09724,0.00239
4879.02571,0.01846
4880.95418,0.02626
4882.88265,0.02368
4884.81111,0.01759
4886.73958,0.01087
4888.66805,0.01045
4890.59652,0.01619
4892.52499,0.01326
4894.45346,-0.00003
4896.38193,-0.00091
4898.31039,0.01548
4900.23886,0.02644
4902.16733,0.02470
4904.09580,0.02743
4906.02427,0.03431
4907.95274,0.02669
4909.88121,0.01033
4911.80967,0.00306
4913.73814,0.00705
4915.66661,0.01106
4917.59508,0.00542
4919.52355,-0.00504
4921.45202,-0.01265
4923.38049,-0.01506
4925.30896,-0.00494
4927.23742,0.01708
4929.16589,0.03421
4931.09436,0.03395
4933.02283,0.02313
4934.95130,0.01795
4936.87977,0.01736
4938.80824,0.01521
4940.73670,0.01522
4942.66517,0.01183
4944.59364,-0.00049
4946.52211,-0.00726
4948.45058,-0.00294
4950.37905,-0.00244
4952.30752,-0.00583
4954.23599,-0.00791
4956.16445,-0.01142
4958.09292,-0.01025
4960.02139,-0.00471
4961.94986,-0.00271
4963.87833,-0.00601
4965.80680,-0.00793
4967.73527,0.00075
4969.66373,0.01493
4971.59220,0.02232
4973.52067,0.01843
4975.44914,0.01264
4977.37761,0.01140
4979.30608,0.00796
4981.23455,0.00426
4983.16302,-0.00050
4985.09148,-0.00967
4987.01995,-0.01100
4988.94842,0.00017
4990.87689,0.01254
4992.80536,0.01638
4994.73383,0.01688
4996.66230,0.01829
4998.59076,0.01735
5000.51923,0.02751
5002.44770,0.04644
5004.37617,0.04824
5006.30464,0.03486
5008.23311,0.02184
5010.16158,0.01852
5012.09005,0.02735
5014.01851,0.03300
5015.94698,0.02859
5017.87545,0.02452
5019.80392,0.02923
5021.73239,0.04098
5023.66086,0.05149
5025.58933,0.05130
5027.51779,0.04180
5029.44626,0.03950
5031.37473,0.04082
5033.30320,0.03116
5035.23167,0.02061
5037.16014,0.02141
5039.08861,0.02405
5041.01708,0.01517
5042.94554,0.00563
5044.87401,0.00977
5046.80248,0.01477
5048.73095,0.00250
5050.65942,-0.01518
5052.58789,-0.01830
5054.51636,-0.00484
5056.44482,0.02314
5058.37329,0.04850
5060.30176,0.05022
5062.23023,0.03254
5064.15870,0.01493
5066.08717,0.01524
5068.01564,0.02877
5069.94410,0.03562
5071.87257,0.02989
5073.80104,0.01782
5075.72951,0.00554
5077.65798,-0.00293
5079.58645,-0.00427
5081.51492,-0.00057
5083.44339,0.00610
5085.37185,0.01608
5087.30032,0.02187
5089.22879,0.02184
5091.15726,0.02670
5093.08573,0.03371
5095.01420,0.02872
5096.94267,0.01260
5098.87113,0.00037
5100.79960,0.00705
5102.72807,0.02968
5104.65654,0.04019
5106.58501,0.03301
5108.51348,0.03500
5110.44195,0.05136
5112.37042,0.06162
5114.29888,0.05100
5116.22735,0.03224
5118.15582,0.02839
5120.08429,0.03707
5122.01276,0.04071
5123.94123,0.03573
5125.86970,0.02571
5127.79816,0.01505
5129.72663,0.01813
5131.65510,0.03227
5133.58357,0.04329
5135.51204,0.05421
5137.44051,0.05613
5139.36898,0.03443
5141.29745,0.00588
5143.22591,-0.00790
5145.15438,-0.00446
5147.08285,0.01285
5149.01132,0.02819
5150.93979,0.02946
5152.86826,0.02514
5154.79673,0.01145
5156.72519,-0.00190
5158.65366,0.01482
5160.58213,0.04754
5162.51060,0.06422
5164.43907,0.05285
5166.36754,0.02949
5168.29601,0.01800
5170.22448,0.01307
5172.15294,0.00472
5174.08141,-0.00045
5176.00988,0.00471
5177.93835,0.01692
5179.86682,0.02963
5181.79529,0.04465
5183.72376,0.05543
5185.65222,0.04527
5187.58069,0.01639
5189.50916,-0.00366
5191.43763,-0.00099
5193.36610,0.00977
5195.29457,0.01821
5197.22304,0.02230
5199.15151,0.02545
5201.07997,0.04182
5203.00844,0.06235
5204.93691,0.06053
5206.86538,0.03576
5208.79385,0.01692
5210.72232,0.02443
5212.65079,0.05444
5214.57925,0.07306
5216.50772,0.05456
5218.43619,0.02856
5220.36466,0.02424
5222.29313,0.02663
5224.22160,0.02197
5226.15007,0.01314
5228.07854,0.01288
5230.00700,0.01756
5231.93547,0.02229
5233.86394,0.03423
5235.79241,0.04419
5237.72088,0.04997
5239.64935,0.05145
5241.57782,0.04955
5243.50628,0.06178
5245.43475,0.07895
5247.36322,0.08191
5249.29169,0.07242
5251.22016,0.05094
5253.14863,0.03547
5255.07710,0.04736
5257.00556,0.06498
5258.93403,0.05729
5260.86250,0.03313
5262.79097,0.02334
5264.71944,0.03103
5266.64791,0.02954
5268.57638,0.02911
5270.50485,0.04208
5272.43331,0.04002
5274.36178,0.02949
5276.29025,0.04547
5278.21872,0.07296
5280.14719,0.07713
5282.07566,0.05955
5284.00413,0.04122
5285.93259,0.03680
5287.86106,0.04487
5289.78953,0.05818
5291.71800,0.07169
5293.64647,0.07076
5295.57494,0.06026
5297.50341,0.05974
5299.43188,0.06384
5301.36034,0.06286
5303.28881,0.06690
5305.21728,0.08669
5307.14575,0.10943
5309.07422,0.10921
5311.00269,0.09093
5312.93116,0.07984
5314.85962,0.07619
5316.78809,0.06236
5318.71656,0.05303
5320.64503,0.06165
5322.57350,0.05554
5324.50197,0.01942
5326.43044,-0.00322
5328.35891,0.01576
5330.28737,0.03609
5332.21584,0.05097
5334.14431,0.07041
5336.07278,0.05265
5338.00125,0.00654
5339.92972,-0.00385
5341.85819,0.01020
5343.78665,0.01940
5345.71512,0.04252
5347.64359,0.06484
5349.57206,0.05405
5351.50053,0.03225
5353.42900,0.03035
5355.35747,0.04355
5357.28594,0.05665
5359.21440,0.06394
5361.14287,0.07273
5363.07134,0.08967
5364.99981,0.09773
5366.92828,0.08432
5368.85675,0.05770
5370.78522,0.02777
5372.71368,0.00754
5374.64215,0.01313
5376.57062,0.04419
5378.49909,0.07067
5380.42756,0.08063
5382.35603,0.07436
5384.28450,0.04905
5386.21297,0.04191
5388.14143,0.07260
5390.06990,0.09849
5391.99837,0.09878
5393.92684,0.07960
5395.85531,0.06445
5397.78378,0.06956
5399.71225,0.08210
5401.64071,0.09429
5403.56918,0.09807
5405.49765,0.07918
5407.42612,0.05944
5409.35459,0.07144
5411.28306,0.09824
5413.21153,0.09938
5415.13999,0.07019
5417.06846,0.04206
5418.99693,0.04067
5420.92540,0.05988
5422.85387,0.07200
5424.78234,0.07235
5426.71081,0.07142
5428.63928,0.07462
5430.56774,0.09324
5432.49621,0.11534
5434.42468,0.10694
5436.35315,0.06663
5438.28162,0.03173
5440.21009,0.02638
5442.13856,0.04986
5444.06702,0.09085
5445.99549,0.12762
5447.92396,0.12812
5449.85243,0.09744
5451.78090,0.06579
5453.70937,0.05949
5455.63784,0.09109
5457.56631,0.14331
5459.49477,0.17522
5461.42324,0.16592
5463.35171,0.13609
5465.28018,0.10870
5467.20865,0.09281
5469.13712,0.08978
5471.06559,0.09987
5472.99405,0.12799
5474.92252,0.14705
5476.85099,0.12316
5478.77946,0.08498
5480.70793,0.06687
5482.63640,0.06005
5484.56487,0.05514
5486.49334,0.06439
5488.42180,0.08229
5490.35027,0.09953
5492.27874,0.11041
5494.20721,0.09849
5496.13568,0.07311
5498.06415,0.05201
5499.99262,0.03436
5501.92108,0.03009
5503.84955,0.05419
5505.77802,0.08332
5507.70649,0.09478
5509.63496,0.09563
5511.56343,0.08822
5513.49190,0.07947
5515.42037,0.07891
5517.34883,0.08106
5519.27730,0.08142
5521.20577,0.08368
5523.13424,0.08825
5525.06271,0.08767
5526.99118,0.08284
5528.91965,0.08221
5530.84811,0.08847
5532.77658,0.10530
5534.70505,0.12027
5536.63352,0.11132
5538.56199,0.08747
5540.49046,0.07170
5542.41893,0.08159
5544.34740,0.10809
5546.27586,0.11989
5548.20433,0.11505
5550.13280,0.10703
5552.06127,0.10904
5553.98974,0.12300
5555.91821,0.12092
5557.84668,0.09473
5559.77514,0.07755
5561.70361,0.08067
5563.63208,0.07527
5565.56055,0.05199
5567.48902,0.04477
5569.41749,0.06524
5571.34596,0.08072
5573.27443,0.07994
5575.20289,0.07535
5577.13136,0.06945
5579.05983,0.07142
5580.98830,0.08235
5582.91677,0.08759
5584.84524,0.08802
5586.77371,0.09638
5588.70217,0.10601
5590.63064,0.08708
5592.55911,0.06284
5594.48758,0.08025
5596.41605,0.10474
5598.34452,0.09328
5600.27299,0.07545
5602.20145,0.07503
5604.12992,0.07626
5606.05839,0.08104
5607.98686,0.09073
5609.91533,0.08619
5611.84380,0.07189
5613.77227,0.07474
5615.70074,0.09602
5617.62920,0.09491
5619.55767,0.06710
5621.48614,0.06268
5623.41461,0.08493
5625.34308,0.10247
5627.27155,0.10546
5629.20002,0.10263
5631.12848,0.09923
5633.05695,0.08767
5634.98542,0.07580
5636.91389,0.07974
5638.84236,0.09769
5640.77083,0.11333
5642.69930,0.10572
5644.62777,0.07872
5646.55623,0.05789
5648.48470,0.04379
5650.41317,0.03298
5652.34164,0.03964
5654.27011,0.05017
5656.19858,0.03787
5658.12705,0.01286
5660.05551,0.00957
5661.98398,0.02093
5663.91245,0.00557
5665.84092,-0.00561
5667.76939,0.03383
5669.69786,0.07064
5671.62633,0.06878
5673.55480,0.07247
5675.48326,0.08857
5677.41173,0.08407
5679.34020,0.05544
5681.26867,0.03384
5683.19714,0.04089
5685.12561,0.07088
5687.05408,0.10273
5688.98254,0.10265
5690.91101,0.07728
5692.83948,0.07207
5694.76795,0.08727
5696.69642,0.10001
5698.62489,0.11332
5700.55336,0.12026
5702.48183,0.11425
5704.41029,0.10951
5706.33876,0.11258
5708.26723,0.11505
5710.19570,0.10789
5712.12417,0.09658
5714.05264,0.08500
5715.98111,0.06898
5717.90957,0.05575
5719.83804,0.07183
5721.76651,0.09991
5723.69498,0.10055
5725.62345,0.09627
5727.55192,0.09462
5729.48039,0.08679
5731.40886,0.08418
5733.33732,0.07756
5735.26579,0.07355
5737.19426,0.09179
5739.12273,0.11580
5741.05120,0.10482
5742.97967,0.05823
5744.90814,0.02382
5746.83660,0.03109
5748.76507,0.06507
5750.69354,0.08699
5752.62201,0.09362
5754.55048,0.11795
5756.47895,0.13186
5758.40742,0.10695
5760.33588,0.08691
5762.26435,0.08614
5764.19282,0.08245
5766.12129,0.07676
5768.04976,0.08304
5769.97823,0.09900
5771.90670,0.07934
5773.83517,0.01860
5775.76363,-0.02511
5777.69210,-0.02508
5779.62057,0.00572
5781.54904,0.05167
5783.47751,0.08389
5785.40598,0.07386
5787.33445,0.05197
5789.26291,0.05122
5791.19138,0.05450
5793.11985,0.06193
5795.04832,0.07871
5796.97679,0.08797
5798.90526,0.10200
5800.83373,0.13055
5802.76220,0.14136
5804.69066,0.12393
5806.61913,0.09803
5808.54760,0.08056
5810.47607,0.08176
5812.40454,0.09199
5814.33301,0.10811
5816.26148,0.13153
5818.18994,0.14575
5820.11841,0.14804
5822.04688,0.13145
5823.97535,0.09814
5825.90382,0.08324
5827.83229,0.08939
5829.76076,0.09052
5831.68923,0.08697
5833.61769,0.08680
5835.54616,0.07061
5837.47463,0.04156
5839.40310,0.02820
5841.33157,0.02236
5843.26004,0.01345
5845.18851,0.03540
5847.11697,0.09016
5849.04544,0.10568
5850.97391,0.07036
5852.90238,0.05375
5854.83085,0.05959
5856.75932,0.06859
5858.68779,0.08696
5860.61626,0.12233
5862.54472,0.16497
5864.47319,0.18917
5866.40166,0.18636
5868.33013,0.16339
5870.25860,0.13944
5872.18707,0.13634
5874.11554,0.14082
5876.04400,0.12367
5877.97247,0.09625
5879.90094,0.08721
5881.82941,0.08294
5883.75788,0.05705
5885.68635,0.02240
5887.61482,0.01071
5889.54329,0.01342
5891.47175,0.01151
5893.40022,0.02453
5895.32869,0.04793
5897.25716,0.05680
5899.18563,0.06927
5901.11410,0.09152
5903.04257,0.08796
5904.97103,0.06568
5906.89950,0.05224
5908.82797,0.05366
5910.75644,0.07822
5912.68491,0.10553
5914.61338,0.12299
5916.54185,0.13371
5918.47032,0.10646
5920.39878,0.05184
5922.32725,0.03002
5924.25572,0.05317
5926.18419,0.08692
5928.11266,0.09571
5930.04113,0.08094
5931.96960,0.07449
5933.89806,0.07684
5935.82653,0.07820
5937.75500,0.07351
5939.68347,0.05093
5941.61194,0.05074
5943.54041,0.08325
5945.46888,0.07847
5947.39734,0.02976
5949.32581,0.01336
5951.25428,0.07209
5953.18275,0.13409
5955.11122,0.14584
5957.03969,0.17142
5958.96816,0.23518
5960.89663,0.25068
5962.82509,0.20478
5964.75356,0.17345
5966.68203,0.16274
5968.61050,0.12761
5970.53897,0.06060
5972.46744,0.00981
5974.39591,0.04003
5976.32437,0.10884
5978.25284,0.13030
5980.18131,0.11461
5982.10978,0.10145
5984.03825,0.10375
5985.96672,0.08946
5987.89519,0.04534
5989.82366,0.03856
5991.75212,0.07043
5993.68059,0.07638
5995.60906,0.05429
5997.53753,0.02450
5999.46600,0.00138
6001.39447,0.04928
6003.32294,0.16955
6005.25140,0.22408
6007.17987,0.17008
6009.10834,0.12003
6011.03681,0.12182
6012.96528,0.13905
6014.89375,0.14107
6016.82222,0.11252
6018.75069,0.07589
6020.67915,0.06653
6022.60762,0.06585
6024.53609,0.07314
6026.46456,0.10293
6028.39303,0.12490
6030.32150,0.13151
6032.24997,0.14361
6034.17843,0.13351
6036.10690,0.09119
6038.03537,0.05404
6039.96384,0.01679
6041.89231,-0.01782
6043.82078,0.01742
6045.74925,0.11159
6047.67772,0.15520
6049.60618,0.12139
6051.53465,0.08199
6053.46312,0.05690
6055.39159,0.04072
6057.32006,0.05075
6059.24853,0.08582
6061.17700,0.12864
6063.10546,0.14095
6065.03393,0.11602
6066.96240,0.09422
6068.89087,0.07657
6070.81934,0.05482
6072.74781,0.04009
6074.67628,0.03725
6076.60475,0.02231
6078.53321,0.00297
6080.46168,0.04671
6082.39015,0.11917
6084.31862,0.14390
6086.24709,0.13312
6088.17556,0.10855
6090.10403,0.07462
6092.03249,0.03350
6093.96096,-0.01128
6095.88943,-0.03182
6097.81790,-0.01617
6099.74637,-0.00530
6101.67484,-0.00434
6103.60331,0.00963
6105.53177,0.01869
6107.46024,0.03653
6109.38871,0.07335
6111.31718,0.08223
6113.24565,0.06687
6115.17412,0.09362
6117.10259,0.17032
6119.03106,0.20930
6120.95952,0.17505
6122.88799,0.13004
6124.81646,0.09695
6126.74493,0.05948
6128.67340,0.02091
6130.60187,0.01934
6132.53034,0.05302
6134.45880,0.06449
6136.38727,0.05375
6138.31574,0.07748
6140.24421,0.11638
6142.17268,0.10402
6144.10115,0.07125
6146.02962,0.05781
6147.95809,0.05274
6149.88655,0.05691
6151.81502,0.03891
6153.74349,0.00543
6155.67196,0.02322
6157.60043,0.07944
6159.52890,0.10852
6161.45737,0.07908
6163.38583,0.05429
6165.31430,0.09461
6167.24277,0.13786
6169.17124,0.14934
6171.09971,0.14232
6173.02818,0.10540
6174.95665,0.08763
6176.88512,0.12839
6178.81358,0.15902
6180.74205,0.13812
6182.67052,0.11029
6184.59899,0.10348
6186.52746,0.11086
6188.45593,0.13194
6190.38440,0.13691
6192.31286,0.09159
6194.24133,0.03555
6196.16980,0.03678
6198.09827,0.08442
6200.02674,0.11729
6201.95521,0.12363
6203.88368,0.11395
6205.81215,0.11774
6207.74061,0.13602
6209.66908,0.07386
6211.59755,-0.04276
6213.52602,-0.04028
6215.45449,0.05702
6217.38296,0.12943
6219.31143,0.14948
6221.23989,0.12058
6223.16836,0.08585
6225.09683,0.10072
6227.02530,0.11387
6228.95377,0.10217
6230.88224,0.12874
6232.81071,0.17448
6234.73918,0.15792
6236.66764,0.11281
6238.59611,0.09267
6240.52458,0.06345
6242.45305,0.02421
6244.38152,0.01418
6246.30999,0.01871
6248.23846,0.05085
6250.16692,0.12721
6252.09539,0.17358
6254.02386,0.14472
6255.95233,0.09757
6257.88080,0.08770
6259.80927,0.09167
6261.73774,0.06540
6263.66621,0.04116
6265.59467,0.06135
6267.52314,0.07357
6269.45161,0.05329
6271.38008,0.05952
6273.30855,0.12202
6275.23702,0.17941
6277.16549,0.17342
6279.09395,0.15395
6281.02242,0.12440
6282.95089,0.09660
6284.87936,0.12942
6286.80783,0.14133
6288.73630,0.08300
6290.66477,0.03302
6292.59323,-0.00357
6294.52170,-0.05149
6296.45017,-0.05806
6298.37864,-0.01291
6300.30711,0.03762
6302.23558,0.06658
6304.16405,0.07310
6306.09252,0.06588
6308.02098,0.04868
6309.94945,0.05355
6311.87792,0.09321
6313.80639,0.13062
6315.73486,0.16296
6317.66333,0.18065
6319.59180,0.15801
6321.52026,0.11387
6323.44873,0.05748
6325.37720,0.00084
6327.30567,0.01048
6329.23414,0.09097
6331.16261,0.14272
6333.09108,0.11964
6335.01955,0.05618
6336.94801,0.00977
6338.87648,0.02856
6340.80495,0.08353
6342.73342,0.09726
6344.66189,0.08213
6346.59036,0.08740
6348.51883,0.08470
6350.44729,0.07960
6352.37576,0.10758
6354.30423,0.11026
6356.23270,0.06377
6358.16117,0.03987
6360.08964,0.06394
6362.01811,0.07447
6363.94658,0.07043
6365.87504,0.11078
6367.80351,0.19924
6369.73198,0.27762
6371.66045,0.30349
6373.58892,0.25614
6375.51739,0.16363
6377.44586,0.10240
6379.37432,0.09021
6381.30279,0.08308
6383.23126,0.05284
6385.15973,0.04240
6387.08820,0.09229
6389.01667,0.13627
6390.94514,0.12685
6392.87361,0.10953
6394.80207,0.10336
6396.73054,0.08460
6398.65901,0.06736
6400.58748,0.06776
6402.51595,0.05094
6404.44442,0.00239
6406.37289,0.01098
6408.30135,0.08383
6410.22982,0.10130
6412.15829,0.08289
6414.08676,0.06753
6416.01523,0.00862
6417.94370,-0.03758
6419.87217,0.02771
6421.80064,0.13275
6423.72910,0.16608
6425.65757,0.14623
6427.58604,0.14583
6429.51451,0.14198
6431.44298,0.07425
6433.37145,-0.02351
6435.29992,-0.06793
6437.22838,-0.04168
6439.15685,0.00276
6441.08532,0.04451
6443.01379,0.11474
6444.94226,0.15656
6446.87073,0.12601
6448.79920,0.09805
6450.72766,0.12161
6452.65613,0.15044
6454.58460,0.14031
6456.51307,0.11063
6458.44154,0.05962
6460.37001,-0.00487
6462.29848,-0.02542
6464.22695,-0.00967
6466.15541,0.01949
6468.08388,0.08297
6470.01235,0.14109
6471.94082,0.13914
6473.86929,0.13463
6475.79776,0.16974
6477.72623,0.20272
6479.65469,0.22298
6481.58316,0.22710
6483.51163,0.20450
6485.44010,0.18373
6487.36857,0.15254
6489.29704,0.07507
6491.22551,0.00391
6493.15398,0.02949
6495.08244,0.09031
6497.01091,0.06405
6498.93938,-0.01221
6500.86785,-0.03782
6502.79632,0.01673
6504.72479,0.13681
6506.65326,0.24743
6508.58172,0.26180
6510.51019,0.20570
6512.43866,0.16272
6514.36713,0.14833
6516.29560,0.11054
6518.22407,0.07011
6520.15254,0.08824
6522.08101,0.13386
6524.00947,0.14455
6525.93794,0.10059
6527.86641,0.03936
6529.79488,0.03382
6531.72335,0.07801
6533.65182,0.10741
6535.58029,0.14541
6537.50875,0.20449
6539.43722,0.21253
6541.36569,0.14478
6543.29416,0.07242
6545.22263,0.03662
6547.15110,0.00957
6549.07957,-0.00104
6551.00804,-0.00714
6552.93650,-0.04311
6554.86497,-0.03109
6556.79344,0.09468
6558.72191,0.23569
6560.65038,0.24113
6562.57885,0.12365
6564.50732,0.02867
6566.43578,0.05322
6568.36425,0.14729
6570.29272,0.18199
6572.22119,0.11745
6574.14966,0.02024
6576.07813,-0.06454
6578.00660,-0.07027
6579.93507,0.02030
6581.86353,0.10387
6583.79200,0.15029
6585.72047,0.16592
6587.64894,0.14838
6589.57741,0.12800
6591.50588,0.09076
6593.43435,0.06194
6595.36281,0.10429
6597.29128,0.12927
6599.21975,0.07525
6601.14822,0.01800
6603.07669,-0.01623
6605.00516,-0.05458
6606.93363,-0.07174
6608.86210,-0.04198
6610.79056,0.03557
6612.71903,0.09051
6614.64750,0.09263
6616.57597,0.12561
6618.50444,0.13775
6620.43291,0.08067
6622.36138,0.05525
6624.28984,0.06217
6626.21831,0.05570
6628.14678,0.07931
6630.07525,0.09989
6632.00372,0.07320
6633.93219,0.07077
6635.86066,0.11692
6637.78912,0.15155
6639.71759,0.10459
6641.64606,0.02937
6643.57453,0.04778
6645.50300,0.08073
6647.43147,0.05809
6649.35994,0.11809
6651.28841,0.19704
6653.21687,0.14689
6655.14534,0.04862
6657.07381,0.02631
6659.00228,0.03427
6660.93075,0.01694
6662.85922,0.02149
6664.78769,0.06699
6666.71615,0.08280
6668.64462,0.04437
6670.57309,0.04739
6672.50156,0.11765
6674.43003,0.18219
6676.35850,0.17506
6678.28697,0.07276
6680.21544,-0.00303
6682.14390,0.02252
6684.07237,0.06758
6686.00084,0.10682
6687.92931,0.15678
6689.85778,0.16838
6691.78625,0.11363
6693.71472,0.04221
6695.64318,0.03130
6697.57165,0.07993
6699.50012,0.12300
6701.42859,0.19574
6703.35706,0.30439
6705.28553,0.31939
6707.21400,0.18456
6709.14247,0.03695
6711.07093,0.00905
6712.99940,0.05151
6714.92787,0.06122
6716.85634,0.04418
6718.78481,0.06920
6720.71328,0.12140
6722.64175,0.13869
6724.57021,0.10817
6726.49868,0.09015
6728.42715,0.15497
6730.35562,0.24180
6732.28409,0.18603
6734.21256,0.03559
6736.14103,-0.01721
6738.06950,0.01324
6739.99796,0.04146
6741.92643,0.07959
6743.85490,0.11508
6745.78337,0.10059
6747.71184,0.04812
6749.64031,0.03257
6751.56878,0.04784
6753.49724,0.05698
6755.42571,0.07134
6757.35418,0.06454
6759.28265,0.03563
6761.21112,0.04449
6763.13959,0.08952
6765.06806,0.12061
6766.99653,0.13206
6768.92499,0.14155
6770.85346,0.14026
6772.78193,0.10763
6774.71040,0.05016
6776.63887,0.01835
6778.56734,0.07486
6780.49581,0.18691
6782.42427,0.27345
6784.35274,0.31057
6786.28121,0.30633
6788.20968,0.28113
6790.13815,0.20534
6792.06662,0.06586
6793.99509,-0.01701
6795.92355,-0.03609
6797.85202,-0.05608
6799.78049,-0.04186
6801.70896,0.04644
6803.63743,0.11156
6805.56590,0.05909
6807.49437,-0.02736
6809.42284,-0.06582
6811.35130,-0.06340
6813.27977,-0.06913
6815.20824,-0.06136
6817.13671,0.00473
6819.06518,0.10463
6820.99365,0.21678
6822.92212,0.24690
6824.85058,0.17722
6826.77905,0.14849
6828.70752,0.13462
6830.63599,0.07962
6832.56446,0.07085
6834.49293,0.15041
6836.42140,0.25700
6838.34987,0.27043
6840.27833,0.16427
6842.20680,0.04925
6844.13527,0.00109
6846.06374,0.00320
6847.99221,0.03446
6849.92068,0.09189
6851.84915,0.18027
6853.77761,0.26773
6855.70608,0.25229
6857.63455,0.16305
6859.56302,0.13425
6861.49149,0.11944
6863.41996,0.07375
6865.34843,0.07419
6867.27690,0.15376
6869.20536,0.24182
6871.13383,0.29280
6873.06230,0.28576
6874.99077,0.19122
6876.91924,0.09810
6878.84771,0.09026
6880.77618,0.15092
6882.70464,0.20010
6884.63311,0.15985
6886.56158,0.05120
6888.49005,-0.03672
6890.41852,-0.06466
6892.34699,-0.05053
6894.27546,-0.04620
6896.20393,-0.02986
6898.13239,0.06779
6900.06086,0.12632
6901.98933,0.01818
6903.91780,-0.12134
6905.84627,-0.11334
6907.77474,-0.01128
6909.70321,0.06996
6911.63167,0.11434
6913.56014,0.13623
6915.48861,0.09877
6917.41708,0.00899
6919.34555,-0.02152
6921.27402,-0.00273
6923.20249,-0.03341
6925.13096,-0.06752
6927.05942,-0.09054
6928.98789,-0.14284
6930.91636,-0.17024
6932.84483,-0.08577
6934.77330,0.03785
6936.70177,0.07227
6938.63024,-0.00692
6940.55870,-0.07088
6942.48717,-0.00729
6944.41564,0.10629
6946.34411,0.19391
6948.27258,0.18265
6950.20105,0.12776
6952.12952,0.10597
6954.05799,0.07732
6955.98645,0.05030
6957.91492,0.05689
6959.84339,0.09146
6961.77186,0.12315
6963.70033,0.13029
6965.62880,0.13535
6967.55727,0.11932
6969.48573,0.08741
6971.41420,0.10130
6973.34267,0.11344
6975.27114,0.01898
6977.19961,-0.06325
6979.12808,-0.02807
6981.05655,0.05214
6982.98501,0.12900
6984.91348,0.14831
6986.84195,0.12793
6988.77042,0.07397
6990.69889,-0.04103
6992.62736,-0.05723
6994.55583,0.04749
6996.48430,0.08400
6998.41276,-0.00496
7000.34123,-0.08504
7002.26970,-0.09584
7004.19817,-0.05205
7006.12664,0.00694
7008.05511,0.02130
7009.98358,0.02884
7011.91204,0.01040
7013.84051,-0.06982
7015.76898,-0.07483
7017.69745,0.01613
7019.62592,0.07543
7021.55439,0.07380
7023.48286,0.08637
7025.41133,0.05432
7027.33979,-0.07186
7029.26826,-0.11551
7031.19673,-0.04396
7033.12520,0.00789
7035.05367,0.02505
7036.98214,0.03008
7038.91061,0.00775
7040.83907,-0.01655
7042.76754,0.02561
7044.69601,0.00142
7046.62448,-0.12003
7048.55295,-0.08000
7050.48142,0.04834
7052.40989,0.08485
7054.33836,0.12716
7056.26682,0.23111
7058.19529,0.27801
7060.12376,0.21783
7062.05223,0.13957
7063.98070,0.08565
7065.90917,-0.01602
7067.83764,-0.18290
7069.76610,-0.30583
7071.69457,-0.27731
7073.62304,-0.11881
7075.55151,0.04878
7077.47998,0.10899
7079.40845,0.07236
7081.33692,0.04099
7083.26539,-0.02178
7085.19385,-0.12832
7087.12232,-0.16694
7089.05079,-0.12336
7090.97926,-0.09488
7092.90773,-0.08572
7094.83620,-0.01903
7096.76467,0.07586
7098.69313,0.07079
7100.62160,0.01229
7102.55007,0.03284
7104.47854,0.08125
7106.40701,0.05670
7108.33548,0.00874
7110.26395,0.00998
7112.19242,0.01990
7114.12088,0.04731
7116.04935,0.18603
7117.97782,0.35089
7119.90629,0.29863
7121.83476,0.11033
7123.76323,-0.04308
7125.69170,-0.03854
7127.62016,0.15619
7129.54863,0.30198
7131.47710,0.24765
7133.40557,0.14053
7135.33404,0.09591
7137.26251,0.07331
7139.19098,0.08557
7141.11944,0.22353
7143.04791,0.42449
7144.97638,0.45583
7146.90485,0.25533
7148.83332,0.04294
7150.76179,-0.06409
7152.69026,-0.05507
7154.61873,0.03525
7156.54719,0.15832
7158.47566,0.22751
7160.40413,0.18381
7162.33260,0.12823
7164.26107,0.10108
7166.18954,0.06466
7168.11801,0.02858
7170.04647,-0.07500
7171.97494,-0.13856
7173.90341,-0.02205
7175.83188,0.05674
7177.76035,-0.01873
7179.68882,-0.03789
7181.61729,-0.04013
7183.54576,-0.18099
7185.47422,-0.27559
7187.40269,-0.22364
7189.33116,-0.17710
7191.25963,-0.21317
7193.18810,-0.18346
7195.11657,-0.04244
7197.04504,0.06890
7198.97350,0.09585
7200.90197,0.06780
7202.83044,-0.01296
7204.75891,-0.05671
7206.68738,0.00342
7208.61585,0.02739
7210.54432,0.01846
7212.47279,0.05977
7214.40125,0.15235
7216.32972,0.17820
7218.25819,0.06832
7220.18666,-0.00899
7222.11513,-0.03873
7224.04360,-0.10925
7225.97207,-0.08450
7227.90053,0.09416
7229.82900,0.18051
7231.75747,0.08518
7233.68594,0.04367
7235.61441,0.11166
7237.54288,0.23572
7239.47135,0.35273
7241.39982,0.36704
7243.32828,0.28268
7245.25675,0.21322
7247.18522,0.11820
7249.11369,-0.08133
7251.04216,-0.27750
7252.97063,-0.19490
7254.89910,0.10839
7256.82756,0.25543
7258.75603,0.28691
7260.68450,0.37007
7262.61297,0.41491
7264.54144,0.26514
7266.46991,0.12361
7268.39838,0.05775
7270.32685,-0.06210
7272.25531,-0.22336
7274.18378,-0.18346
7276.11225,0.00559
7278.04072,0.07953
7279.96919,-0.09204
7281.89766,-0.27775
7283.82613,-0.19983
7285.75459,0.05218
7287.68306,0.21917
7289.61153,0.22609
7291.54000,0.23532
7293.46847,0.23846
7295.39694,0.13690
7297.32541,0.06267
7299.25387,0.00309
7301.18234,-0.15701
7303.11081,-0.28291
7305.03928,-0.14997
7306.96775,0.20838
7308.89622,0.49463
7310.82469,0.50132
7312.75316,0.40432
7314.68162,0.32949
7316.61009,0.27608
7318.53856,0.21536
7320.46703,0.11481
7322.39550,0.01759
7324.32397,-0.00776
7326.25244,0.07687
7328.18090,0.30271
7330.10937,0.47606
7332.03784,0.40611
7333.96631,0.25710
7335.89478,0.18801
7337.82325,0.19266
7339.75172,0.14338
7341.68019,0.15686
7343.60865,0.32140
7345.53712,0.35522
7347.46559,0.11529
7349.39406,-0.10714
7351.32253,-0.03462
7353.25100,0.17322
7355.17947,0.20065
7357.10793,-0.02580
7359.03640,-0.20234
7360.96487,-0.01041
7362.89334,0.26161
7364.82181,0.23347
7366.75028,-0.05787
7368.67875,-0.29672
7370.60722,-0.29933
7372.53568,-0.15542
7374.46415,0.00132
7376.39262,-0.06468
7378.32109,-0.19828
7380.24956,-0.22017
7382.17803,-0.20517
7384.10650,-0.11743
7386.03496,0.01779
7387.96343,0.04134
7389.89190,0.07787
7391.82037,0.20131
7393.74884,0.16497
7395.67731,-0.00898
7397.60578,-0.06502
7399.53425,-0.01044
7401.46271,0.03968
7403.39118,-0.03663
7405.31965,-0.12782
7407.24812,-0.05065
7409.17659,0.03638
7411.10506,0.05301
7413.03353,0.13538
7414.96199,0.24733
7416.89046,0.26881
7418.81893,0.26601
7420.74740,0.24999
7422.67587,0.18004
7424.60434,0.13619
7426.53281,0.13828
7428.46128,0.16096
7430.38974,0.20002
7432.31821,0.19131
7434.24668,0.07450
7436.17515,0.00093
7438.10362,0.04732
7440.03209,0.12762
7441.96056,0.21546
7443.88902,0.32442
7445.81749,0.45528
7447.74596,0.47062
7449.67443,0.24270
7451.60290,-0.05260
7453.53137,-0.11895
7455.45984,-0.01909
7457.38831,0.11910
7459.31677,0.21493
7461.24524,0.16623
7463.17371,0.11845
7465.10218,0.18612
7467.03065,0.26781
7468.95912,0.24173
7470.88759,0.13367
7472.81605,-0.00826
7474.74452,-0.14971
7476.67299,-0.17661
7478.60146,-0.10074
7480.52993,-0.03944
7482.45840,-0.03102
7484.38687,-0.07750
7486.31533,-0.06504
7488.24380,0.02358
7490.17227,0.06563
7492.10074,0.05807
7494.02921,0.09893
7495.95768,0.20990
7497.88615,0.35467
