399.19301,0.10466
401.12148,0.11068
403.04995,0.08215
404.97842,0.22209
406.90689,0.28540
408.83536,0.21224
410.76382,0.19391
412.69229,0.17884
414.62076,0.04351
416.54923,-0.05647
418.47770,-0.12736
420.40617,-0.22773
422.33464,-0.15202
424.26311,-0.03093
426.19157,-0.05088
428.12004,-0.06318
430.04851,0.09301
431.97698,0.17768
433.90545,0.03951
435.83392,-0.03439
437.76239,-0.02363
439.69085,-0.07714
441.61932,-0.10476
443.54779,-0.02200
445.47626,0.00058
447.40473,0.01686
449.33320,0.09339
451.26167,0.11930
453.19013,0.08296
455.11860,0.06815
457.04707,0.03940
458.97554,-0.00296
460.90401,0.07553
462.83248,0.16138
464.76095,0.11960
466.68942,0.08352
468.61788,0.15105
470.54635,0.55987
472.47482,3.04093
474.40329,6.42094
476.33176,4.33085
478.26023,1.22554
480.18870,0.14160
482.11716,0.03875
484.04563,0.01252
485.97410,0.03410
487.90257,0.07600
489.83104,0.09446
491.75951,0.10347
493.68798,0.13424
495.61645,0.16227
497.54491,0.15321
499.47338,0.11484
501.40185,0.06075
503.33032,0.00139
505.25879,0.00267
507.18726,0.04276
509.11573,0.03499
511.04419,0.01061
512.97266,0.01768
514.90113,0.03907
516.82960,0.04032
518.75807,0.03868
520.68654,0.04782
522.61501,0.04942
524.54348,0.05590
526.47194,0.09336
528.40041,0.12293
530.32888,0.12029
532.25735,0.12171
534.18582,0.12045
536.11429,0.10723
538.04276,0.11616
539.97122,0.13432
541.89969,0.12164
543.82816,0.10187
545.75663,0.10793
547.68510,0.10974
549.61357,0.09794
551.54204,0.08881
553.47051,0.08103
555.39897,0.09317
557.32744,0.11426
559.25591,0.10924
561.18438,0.10992
563.11285,0.13536
565.04132,0.13919
566.96979,0.09823
568.89825,0.06982
570.82672,0.10053
572.75519,0.12587
574.68366,0.10646
576.61213,0.10085
578.54060,0.11568
580.46907,0.11309
582.39754,0.10094
584.32600,0.09022
586.25447,0.08182
588.18294,0.09543
590.11141,0.12289
592.03988,0.12327
593.96835,0.10705
595.89682,0.11853
597.82528,0.14206
599.75375,0.15259
601.68222,0.16607
603.61069,0.17142
605.53916,0.14615
607.46763,0.12933
609.39610,0.13484
611.32456,0.12171
613.25303,0.10723
615.18150,0.12886
617.10997,0.15086
619.03844,0.14410
620.96691,0.12996
622.89538,0.12150
624.82385,0.11761
626.75231,0.11232
628.68078,0.10686
630.60925,0.10813
632.53772,0.10816
634.46619,0.11521
636.39466,0.12994
638.32313,0.13150
640.25159,0.13221
642.18006,0.14144
644.10853,0.14786
646.03700,0.16263
647.96547,0.18358
649.89394,0.18053
651.82241,0.15759
653.75088,0.13288
655.67934,0.10829
657.60781,0.10747
659.53628,0.12839
661.46475,0.13211
663.39322,0.12570
665.32169,0.12241
667.25016,0.09724
669.17862,0.06724
671.10709,0.08463
673.03556,0.11125
674.96403,0.12734
676.89250,0.12407
678.82097,0.10960
680.74944,0.10254
682.67791,0.10164
684.60637,0.10140
686.53484,0.10203
688.46331,0.11032
690.39178,0.13251
692.32025,0.15505
694.24872,0.15899
696.17719,0.14236
698.10565,0.12651
700.03412,0.12552
701.96259,0.12535
703.89106,0.12270
705.81953,0.12471
707.74800,0.12822
709.67647,0.13709
711.60494,0.14738
713.53340,0.14697
715.46187,0.14686
717.39034,0.15417
719.31881,0.15370
721.24728,0.13933
723.17575,0.12509
725.10422,0.12021
727.03268,0.11808
728.96115,0.12145
730.88962,0.13480
732.81809,0.14191
734.74656,0.13649
736.67503,0.13588
738.60350,0.14223
740.53197,0.14468
742.46043,0.14995
744.38890,0.15493
746.31737,0.14432
748.24584,0.12890
750.17431,0.12481
752.10278,0.13390
754.03125,0.15213
755.95971,0.16373
757.88818,0.15473
759.81665,0.13947
761.74512,0.13417
763.67359,0.13439
765.60206,0.13327
767.53053,0.12818
769.45900,0.12770
771.38746,0.13569
773.31593,0.13645
775.24440,0.12884
777.17287,0.12218
779.10134,0.11734
781.02981,0.12280
782.95828,0.13749
784.88674,0.14286
786.81521,0.13525
788.74368,0.12869
790.67215,0.13682
792.60062,0.15926
794.52909,0.17551
796.45756,0.16737
798.38602,0.14538
800.31449,0.13151
802.24296,0.12969
804.17143,0.12667
806.09990,0.12309
808.02837,0.12804
809.95684,0.13060
811.88531,0.12972
813.81377,0.13493
815.74224,0.13352
817.67071,0.12626
819.59918,0.13140
821.52765,0.14473
823.45612,0.15151
825.38459,0.15141
827.31305,0.15272
829.24152,0.15735
831.16999,0.16166
833.09846,0.15618
835.02693,0.13345
836.95540,0.10929
838.88387,0.10952
840.81234,0.12456
842.74080,0.12619
844.66927,0.12360
846.59774,0.13616
848.52621,0.14936
850.45468,0.14750
852.38315,0.14093
854.31162,0.13793
856.24008,0.13518
858.16855,0.13872
860.09702,0.14472
862.02549,0.14014
863.95396,0.13423
865.88243,0.13233
867.81090,0.12364
869.73937,0.11784
871.66783,0.12983
873.59630,0.14580
875.52477,0.14868
877.45324,0.14686
879.38171,0.15183
881.31018,0.15582
883.23865,0.15533
885.16711,0.15562
887.09558,0.15419
889.02405,0.15269
890.95252,0.15399
892.88099,0.15041
894.80946,0.13947
896.73793,0.13262
898.66640,0.13606
900.59486,0.14270
902.52333,0.14650
904.45180,0.14668
906.38027,0.14070
908.30874,0.13221
910.23721,0.13552
912.16568,0.14993
914.09414,0.15744
916.02261,0.15538
917.95108,0.15357
919.87955,0.15213
921.80802,0.15053
923.73649,0.14999
925.66496,0.14738
927.59343,0.14243
929.52189,0.13784
931.45036,0.14083
933.37883,0.15172
935.30730,0.15676
937.23577,0.15333
939.16424,0.15313
941.09271,0.15488
943.02117,0.14829
944.94964,0.13779
946.87811,0.13379
948.80658,0.14009
950.73505,0.14805
952.66352,0.14827
954.59199,0.14906
956.52045,0.15396
958.44892,0.15644
960.37739,0.15860
962.30586,0.16148
964.23433,0.16100
966.16280,0.15911
968.09127,0.16156
970.01974,0.16252
971.94820,0.15451
973.87667,0.14467
975.80514,0.14146
977.73361,0.14331
979.66208,0.14499
981.59055,0.14729
983.51902,0.15152
985.44748,0.15464
987.37595,0.15740
989.30442,0.15824
991.23289,0.15631
993.16136,0.15893
995.08983,0.16635
997.01830,0.17122
998.94677,0.17177
1000.87523,0.17131
1002.80370,0.17009
1004.73217,0.16655
1006.66064,0.16221
1008.58911,0.15747
1010.51758,0.15127
1012.44605,0.14578
1014.37451,0.14318
1016.30298,0.14083
1018.23145,0.14206
1020.15992,0.15329
1022.08839,0.16146
1024.01686,0.15102
1025.94533,0.13451
1027.87380,0.12999
1029.80226,0.13506
1031.73073,0.14259
1033.65920,0.14854
1035.58767,0.14854
1037.51614,0.15006
1039.44461,0.15921
1041.37308,0.16643
1043.30154,0.16558
1045.23001,0.16145
1047.15848,0.15838
1049.08695,0.15701
1051.01542,0.15752
1052.94389,0.15765
1054.87236,0.15418
1056.80083,0.15223
1058.72929,0.15627
1060.65776,0.15735
1062.58623,0.15379
1064.51470,0.15972
1066.44317,0.17214
1068.37164,0.17738
1070.30011,0.17856
1072.22857,0.17414
1074.15704,0.16416
1076.08551,0.16303
1078.01398,0.16924
1079.94245,0.16926
1081.87092,0.16235
1083.79939,0.15588
1085.72786,0.15242
1087.65632,0.15392
1089.58479,0.15895
1091.51326,0.16060
1093.44173,0.16131
1095.37020,0.16454
1097.29867,0.16797
1099.22714,0.16829
1101.15560,0.16189
1103.08407,0.15420
1105.01254,0.15435
1106.94101,0.16084
1108.86948,0.16592
1110.79795,0.16662
1112.72642,0.16391
1114.65489,0.15763
1116.58335,0.14939
1118.51182,0.14537
1120.44029,0.14835
1122.36876,0.15510
1124.29723,0.16290
1126.22570,0.16953
1128.15417,0.16997
1130.08263,0.15977
1132.01110,0.14763
1133.93957,0.14768
1135.86804,0.15797
1137.79651,0.16536
1139.72498,0.16851
1141.65345,0.17334
1143.58191,0.17465
1145.51038,0.17103
1147.43885,0.16996
1149.36732,0.17083
1151.29579,0.16937
1153.22426,0.16736
1155.15273,0.16768
1157.08120,0.16761
1159.00966,0.16749
1160.93813,0.17320
1162.86660,0.17908
1164.79507,0.17591
1166.72354,0.17154
1168.65201,0.17171
1170.58048,0.16913
1172.50894,0.16537
1174.43741,0.16475
1176.36588,0.16193
1178.29435,0.15767
1180.22282,0.15879
1182.15129,0.16150
1184.07976,0.16158
1186.00823,0.16415
1187.93669,0.17039
1189.86516,0.17370
1191.79363,0.17041
1193.72210,0.16656
1195.65057,0.16825
1197.57904,0.17272
1199.50751,0.17446
1201.43597,0.17283
1203.36444,0.17191
1205.29291,0.17031
1207.22138,0.16334
1209.14985,0.15722
1211.07832,0.16044
1213.00679,0.17016
1214.93526,0.17642
1216.86372,0.17408
1218.79219,0.17080
1220.72066,0.17187
1222.64913,0.17347
1224.57760,0.17613
1226.50607,0.17863
1228.43454,0.17633
1230.36300,0.17314
1232.29147,0.17374
1234.21994,0.17552
1236.14841,0.17654
1238.07688,0.17736
1240.00535,0.17726
1241.93382,0.17501
1243.86229,0.17187
1245.79075,0.17014
1247.71922,0.16911
1249.64769,0.16973
1251.57616,0.17058
1253.50463,0.16638
1255.43310,0.16071
1257.36157,0.15907
1259.29003,0.16136
1261.21850,0.16465
1263.14697,0.16588
1265.07544,0.16563
1267.00391,0.16568
1268.93238,0.16915
1270.86085,0.17516
1272.78932,0.17772
1274.71778,0.17596
1276.64625,0.17345
1278.57472,0.17190
1280.50319,0.17052
1282.43166,0.17170
1284.36013,0.17613
1286.28860,0.17596
1288.21706,0.17154
1290.14553,0.17027
1292.07400,0.16946
1294.00247,0.16763
1295.93094,0.16750
1297.85941,0.16650
1299.78788,0.16287
1301.71634,0.15495
1303.64481,0.14440
1305.57328,0.14468
1307.50175,0.15916
1309.43022,0.17180
1311.35869,0.17625
1313.28716,0.17770
1315.21563,0.17700
1317.14409,0.17619
1319.07256,0.17618
1321.00103,0.17421
1322.92950,0.17097
1324.85797,0.16756
1326.78644,0.16615
1328.71491,0.16857
1330.64337,0.16951
1332.57184,0.16878
1334.50031,0.17148
1336.42878,0.17341
1338.35725,0.17113
1340.28572,0.16854
1342.21419,0.17767
1344.14266,0.20212
1346.07112,0.21731
1347.99959,0.20364
1349.92806,0.17930
1351.85653,0.16725
1353.78500,0.16498
1355.71347,0.16398
1357.64194,0.16538
1359.57040,0.17054
1361.49887,0.17626
1363.42734,0.17587
1365.35581,0.17253
1367.28428,0.17409
1369.21275,0.17528
1371.14122,0.17310
1373.06969,0.17425
1374.99815,0.17702
1376.92662,0.17756
1378.85509,0.17834
1380.78356,0.17642
1382.71203,0.17240
1384.64050,0.17318
1386.56897,0.17981
1388.49743,0.18302
1390.42590,0.18093
1392.35437,0.18259
1394.28284,0.18537
1396.21131,0.18009
1398.13978,0.17511
1400.06825,0.18058
1401.99672,0.18709
1403.92518,0.18756
1405.85365,0.18662
1407.78212,0.18736
1409.71059,0.18858
1411.63906,0.18714
1413.56753,0.18429
1415.49600,0.18792
1417.42446,0.19843
1419.35293,0.20158
1421.28140,0.19244
1423.20987,0.18587
1425.13834,0.18480
1427.06681,0.18430
1428.99528,0.18412
1430.92375,0.18552
1432.85221,0.18749
1434.78068,0.18940
1436.70915,0.18772
1438.63762,0.18227
1440.56609,0.17793
1442.49456,0.17794
1444.42303,0.18467
1446.35149,0.19187
1448.27996,0.19187
1450.20843,0.18828
1452.13690,0.18997
1454.06537,0.20021
1455.99384,0.21559
1457.92231,0.21717
1459.85077,0.20376
1461.77924,0.19672
1463.70771,0.19559
1465.63618,0.19429
1467.56465,0.19344
1469.49312,0.19995
1471.42159,0.21364
1473.35006,0.21991
1475.27852,0.21135
1477.20699,0.20153
1479.13546,0.19528
1481.06393,0.19251
1482.99240,0.19111
1484.92087,0.19082
1486.84934,0.19480
1488.77780,0.20007
1490.70627,0.19661
1492.63474,0.19191
1494.56321,0.19477
1496.49168,0.20231
1498.42015,0.20455
1500.34862,0.19959
1502.27709,0.19548
1504.20555,0.19719
1506.13402,0.20846
1508.06249,0.22020
1509.99096,0.21472
1511.91943,0.20393
1513.84790,0.19939
1515.77637,0.20325
1517.70483,0.20501
1519.63330,0.20280
1521.56177,0.20752
1523.49024,0.21261
1525.41871,0.20962
1527.34718,0.20325
1529.27565,0.19915
1531.20412,0.20050
1533.13258,0.20273
1535.06105,0.20021
1536.98952,0.20056
1538.91799,0.21216
1540.84646,0.22992
1542.77493,0.22363
1544.70340,0.20728
1546.63186,0.19975
1548.56033,0.20052
1550.48880,0.19980
1552.41727,0.19555
1554.34574,0.19595
1556.27421,0.20625
1558.20268,0.22395
1560.13115,0.21615
1562.05961,0.20068
1563.98808,0.19593
1565.91655,0.19426
1567.84502,0.19365
1569.77349,0.19283
1571.70196,0.19236
1573.63043,0.19803
1575.55889,0.20690
1577.48736,0.20264
1579.41583,0.19008
1581.34430,0.18259
1583.27277,0.17899
1585.20124,0.17660
1587.12971,0.17676
1589.05818,0.18052
1590.98664,0.18498
1592.91511,0.18530
1594.84358,0.18239
1596.77205,0.18144
1598.70052,0.18226
1600.62899,0.18236
1602.55746,0.18285
1604.48592,0.18417
1606.41439,0.18530
1608.34286,0.18931
1610.27133,0.19496
1612.19980,0.19544
1614.12827,0.19371
1616.05674,0.19635
1617.98521,0.19826
1619.91367,0.19626
1621.84214,0.19747
1623.77061,0.19889
1625.69908,0.19466
1627.62755,0.19129
1629.55602,0.19088
1631.48449,0.19181
1633.41295,0.19806
1635.34142,0.21151
1637.26989,0.21477
1639.19836,0.20848
1641.12683,0.20677
1643.05530,0.21049
1644.98377,0.21830
1646.91223,0.22447
1648.84070,0.22054
1650.76917,0.21752
1652.69764,0.22026
1654.62611,0.21663
1656.55458,0.20851
1658.48305,0.20489
1660.41152,0.20674
1662.33998,0.20946
1664.26845,0.20771
1666.19692,0.20811
1668.12539,0.21537
1670.05386,0.22149
1671.98233,0.21871
1673.91080,0.21522
1675.83926,0.21207
1677.76773,0.20916
1679.69620,0.20889
1681.62467,0.21325
1683.55314,0.22223
1685.48161,0.22040
1687.41008,0.21195
1689.33855,0.20621
1691.26701,0.20201
1693.19548,0.20371
1695.12395,0.21239
1697.05242,0.22006
1698.98089,0.22083
1700.90936,0.21670
1702.83783,0.21342
1704.76629,0.21113
1706.69476,0.20457
1708.62323,0.19742
1710.55170,0.19420
1712.48017,0.19504
1714.40864,0.20326
1716.33711,0.21613
1718.26558,0.21356
1720.19404,0.20058
1722.12251,0.19223
1724.05098,0.18836
1725.97945,0.18823
1727.90792,0.19051
1729.83639,0.19379
1731.76486,0.19842
1733.69332,0.20232
1735.62179,0.19859
1737.55026,0.19526
1739.47873,0.19761
1741.40720,0.19946
1743.33567,0.19788
1745.26414,0.19813
1747.19261,0.20214
1749.12107,0.20654
1751.04954,0.20358
1752.97801,0.19626
1754.90648,0.19474
1756.83495,0.19800
1758.76342,0.19947
1760.69189,0.19926
1762.62035,0.19753
1764.54882,0.19440
1766.47729,0.19429
1768.40576,0.19834
1770.33423,0.20529
1772.26270,0.20786
1774.19117,0.20039
1776.11964,0.19551
1778.04810,0.19662
1779.97657,0.19727
1781.90504,0.19603
1783.83351,0.19569
1785.76198,0.19349
1787.69045,0.19162
1789.61892,0.19593
1791.54738,0.20307
1793.47585,0.20257
1795.40432,0.19679
1797.33279,0.19450
1799.26126,0.19585
1801.18973,0.19552
1803.11820,0.19151
1805.04666,0.18836
1806.97513,0.18794
1808.90360,0.19072
1810.83207,0.19649
1812.76054,0.19816
1814.68901,0.19455
1816.61748,0.19721
1818.54595,0.21642
1820.47441,0.23790
1822.40288,0.23679
1824.33135,0.21638
1826.25982,0.20310
1828.18829,0.20418
1830.11676,0.20454
1832.04523,0.19926
1833.97369,0.19591
1835.90216,0.19585
1837.83063,0.19587
1839.75910,0.19570
1841.68757,0.19745
1843.61604,0.19884
1845.54451,0.19635
1847.47298,0.19358
1849.40144,0.19245
1851.32991,0.19057
1853.25838,0.18895
1855.18685,0.18935
1857.11532,0.18942
1859.04379,0.18857
1860.97226,0.18775
1862.90072,0.18824
1864.82919,0.19333
1866.75766,0.20163
1868.68613,0.20393
1870.61460,0.19851
1872.54307,0.19558
1874.47154,0.19577
1876.40001,0.19466
1878.32847,0.19223
1880.25694,0.19118
1882.18541,0.19274
1884.11388,0.19567
1886.04235,0.19829
1887.97082,0.20046
1889.89929,0.20044
1891.82775,0.19746
1893.75622,0.19431
1895.68469,0.19211
1897.61316,0.19104
1899.54163,0.19093
1901.47010,0.19216
1903.39857,0.19419
1905.32704,0.19538
1907.25550,0.19547
1909.18397,0.19399
1911.11244,0.19121
1913.04091,0.18841
1914.96938,0.18742
1916.89785,0.18968
1918.82632,0.19169
1920.75478,0.19124
1922.68325,0.19141
1924.61172,0.19307
1926.54019,0.19482
1928.46866,0.19481
1930.39713,0.19358
1932.32560,0.19418
1934.25407,0.19581
1936.18253,0.19559
1938.11100,0.19468
1940.03947,0.19608
1941.96794,0.19906
1943.89641,0.20003
1945.82488,0.19848
1947.75335,0.19623
1949.68181,0.19332
1951.61028,0.19043
1953.53875,0.18979
1955.46722,0.18970
1957.39569,0.18794
1959.32416,0.18734
1961.25263,0.18909
1963.18110,0.19077
1965.10956,0.19214
1967.03803,0.19370
1968.96650,0.19384
1970.89497,0.19259
1972.82344,0.19240
1974.75191,0.19249
1976.68038,0.19007
1978.60884,0.18800
1980.53731,0.18914
1982.46578,0.19089
1984.39425,0.19073
1986.32272,0.18911
1988.25119,0.18978
1990.17966,0.19528
1992.10812,0.20069
1994.03659,0.20027
1995.96506,0.19628
1997.89353,0.19118
1999.82200,0.18584
2001.75047,0.18496
2003.67894,0.18933
2005.60741,0.19240
2007.53587,0.19096
2009.46434,0.18905
2011.39281,0.18972
2013.32128,0.19303
2015.24975,0.19807
2017.17822,0.20082
2019.10669,0.19859
2021.03515,0.19568
2022.96362,0.19417
2024.89209,0.18983
2026.82056,0.18545
2028.74903,0.18678
2030.67750,0.18867
2032.60597,0.18742
2034.53444,0.18792
2036.46290,0.19169
2038.39137,0.19527
2040.31984,0.19660
2042.24831,0.19483
2044.17678,0.19099
2046.10525,0.18935
2048.03372,0.19070
2049.96218,0.19144
2051.89065,0.19110
2053.81912,0.19241
2055.74759,0.19398
2057.67606,0.19221
2059.60453,0.18934
2061.53300,0.18955
2063.46147,0.19330
2065.38993,0.19714
2067.31840,0.19655
2069.24687,0.19296
2071.17534,0.19114
2073.10381,0.19166
2075.03228,0.19291
2076.96075,0.19403
2078.88921,0.19438
2080.81768,0.19497
2082.74615,0.19553
2084.67462,0.19372
2086.60309,0.19099
2088.53156,0.19056
2090.46003,0.19230
2092.38850,0.19373
2094.31696,0.19382
2096.24543,0.19425
2098.17390,0.19442
2100.10237,0.19149
2102.03084,0.18774
2103.95931,0.18798
2105.88778,0.19147
2107.81624,0.19363
2109.74471,0.19254
2111.67318,0.19108
2113.60165,0.19140
2115.53012,0.19114
2117.45859,0.19022
2119.38706,0.19135
2121.31553,0.19259
2123.24399,0.19192
2125.17246,0.19164
2127.10093,0.19180
2129.02940,0.19132
2130.95787,0.19162
2132.88634,0.19312
2134.81481,0.19309
2136.74327,0.19040
2138.67174,0.18855
2140.60021,0.18914
2142.52868,0.18992
2144.45715,0.19016
2146.38562,0.19046
2148.31409,0.19130
2150.24255,0.19290
2152.17102,0.19348
2154.09949,0.19291
2156.02796,0.19287
2157.95643,0.19209
2159.88490,0.19164
2161.81337,0.19325
2163.74184,0.19440
2165.67030,0.19514
2167.59877,0.19681
2169.52724,0.19738
2171.45571,0.19580
2173.38418,0.19438
2175.31265,0.19491
2177.24112,0.19569
2179.16958,0.19524
2181.09805,0.19511
2183.02652,0.19675
2184.95499,0.19781
2186.88346,0.19525
2188.81193,0.19101
2190.74040,0.18925
2192.66887,0.19024
2194.59733,0.19197
2196.52580,0.19335
2198.45427,0.19265
2200.38274,0.19035
2202.31121,0.19115
2204.23968,0.19478
2206.16815,0.19603
2208.09661,0.19462
2210.02508,0.19377
2211.95355,0.19480
2213.88202,0.19635
2215.81049,0.19581
2217.73896,0.19379
2219.66743,0.19340
2221.59590,0.19426
2223.52436,0.19422
2225.45283,0.19305
2227.38130,0.19052
2229.30977,0.18878
2231.23824,0.19144
2233.16671,0.19602
2235.09518,0.19712
2237.02364,0.19547
2238.95211,0.19531
2240.88058,0.19589
2242.80905,0.19465
2244.73752,0.19384
2246.66599,0.19511
2248.59446,0.19446
2250.52293,0.18962
2252.45139,0.18640
2254.37986,0.18870
2256.30833,0.19158
2258.23680,0.19253
2260.16527,0.19394
2262.09374,0.19516
2264.02221,0.19428
2265.95067,0.19293
2267.87914,0.19213
2269.80761,0.18987
2271.73608,0.18870
2273.66455,0.19147
2275.59302,0.19405
2277.52149,0.19398
2279.44996,0.19204
2281.37842,0.18893
2283.30689,0.18858
2285.23536,0.19151
2287.16383,0.19264
2289.09230,0.19131
2291.02077,0.19020
2292.94924,0.19129
2294.87770,0.19421
2296.80617,0.19211
2298.73464,0.18553
2300.66311,0.18462
2302.59158,0.18708
2304.52005,0.18653
2306.44852,0.18582
2308.37699,0.18651
2310.30545,0.18686
2312.23392,0.18680
2314.16239,0.18807
2316.09086,0.18931
2318.01933,0.18589
2319.94780,0.17819
2321.87627,0.17024
2323.80473,0.16223
2325.73320,0.15566
2327.66167,0.15523
2329.59014,0.15961
2331.51861,0.16592
2333.44708,0.17043
2335.37555,0.17013
2337.30401,0.16870
2339.23248,0.16407
2341.16095,0.15825
2343.08942,0.16166
2345.01789,0.17019
2346.94636,0.17487
2348.87483,0.17680
2350.80330,0.17912
2352.73176,0.18283
2354.66023,0.18301
2356.58870,0.17073
2358.51717,0.15034
2360.44564,0.13898
2362.37411,0.13723
2364.30258,0.13692
2366.23104,0.15466
2368.15951,0.18515
2370.08798,0.19181
2372.01645,0.18129
2373.94492,0.17775
2375.87339,0.18080
2377.80186,0.18322
2379.73033,0.18355
2381.65879,0.18445
2383.58726,0.18647
2385.51573,0.18889
2387.44420,0.19209
2389.37267,0.19413
2391.30114,0.19397
2393.22961,0.19385
2395.15807,0.19420
2397.08654,0.19441
2399.01501,0.19494
2400.94348,0.19520
2402.87195,0.19394
2404.80042,0.19192
2406.72889,0.19075
2408.65736,0.19020
2410.58582,0.18978
2412.51429,0.18954
2414.44276,0.18832
2416.37123,0.18589
2418.29970,0.18599
2420.22817,0.19052
2422.15664,0.19547
2424.08510,0.19860
2426.01357,0.19929
2427.94204,0.19635
2429.87051,0.19248
2431.79898,0.19113
2433.72745,0.19236
2435.65592,0.19352
2437.58439,0.19332
2439.51285,0.19340
2441.44132,0.19383
2443.36979,0.19322
2445.29826,0.19398
2447.22673,0.19765
2449.15520,0.20046
2451.08367,0.20069
2453.01213,0.19919
2454.94060,0.19662
2456.86907,0.19415
2458.79754,0.19209
2460.72601,0.19154
2462.65448,0.19347
2464.58295,0.19603
2466.51142,0.19729
2468.43988,0.19688
2470.36835,0.19593
2472.29682,0.19616
2474.22529,0.19629
2476.15376,0.19494
2478.08223,0.19378
2480.01070,0.19413
2481.93916,0.19534
2483.86763,0.19541
2485.79610,0.19436
2487.72457,0.19360
2489.65304,0.19253
2491.58151,0.19030
2493.50998,0.18774
2495.43844,0.18695
2497.36691,0.18973
2499.29538,0.19455
2501.22385,0.19665
2503.15232,0.19495
2505.08079,0.19291
2507.00926,0.19241
2508.93773,0.19405
2510.86619,0.19780
2512.79466,0.20131
2514.72313,0.20195
2516.65160,0.20035
2518.58007,0.19959
2520.50854,0.19943
2522.43701,0.19765
2524.36547,0.19573
2526.29394,0.19484
2528.22241,0.19440
2530.15088,0.19435
2532.07935,0.19486
2534.00782,0.19718
2535.93629,0.20001
2537.86476,0.20081
2539.79322,0.20014
2541.72169,0.19831
2543.65016,0.19541
2545.57863,0.19416
2547.50710,0.19636
2549.43557,0.19842
2551.36404,0.19777
2553.29250,0.19752
2555.22097,0.19867
2557.14944,0.19913
2559.07791,0.19928
2561.00638,0.19900
2562.93485,0.19853
2564.86332,0.20038
2566.79179,0.20249
2568.72025,0.19948
2570.64872,0.19357
2572.57719,0.19248
2574.50566,0.19556
2576.43413,0.19729
2578.36260,0.19816
2580.29107,0.19954
2582.21953,0.19815
2584.14800,0.19455
2586.07647,0.19477
2588.00494,0.19776
2589.93341,0.19888
2591.86188,0.19935
2593.79035,0.20047
2595.71882,0.20015
2597.64728,0.19798
2599.57575,0.19687
2601.50422,0.19732
2603.43269,0.19688
2605.36116,0.19490
2607.28963,0.19302
2609.21810,0.19275
2611.14656,0.19387
2613.07503,0.19556
2615.00350,0.19748
2616.93197,0.19874
2618.86044,0.19860
2620.78891,0.19787
2622.71738,0.19764
2624.64585,0.19871
2626.57431,0.19963
2628.50278,0.19890
2630.43125,0.19907
2632.35972,0.19974
2634.28819,0.19830
2636.21666,0.19707
2638.14513,0.19714
2640.07359,0.19612
2642.00206,0.19470
2643.93053,0.19553
2645.85900,0.19794
2647.78747,0.19835
2649.71594,0.19665
2651.64441,0.19762
2653.57288,0.20103
2655.50134,0.20147
2657.42981,0.19890
2659.35828,0.19686
2661.28675,0.19628
2663.21522,0.19811
2665.14369,0.20180
2667.07216,0.20182
2669.00062,0.19748
2670.92909,0.19424
2672.85756,0.19329
2674.78603,0.19453
2676.71450,0.19845
2678.64297,0.20197
2680.57144,0.20349
2682.49990,0.20422
2684.42837,0.20312
2686.35684,0.20008
2688.28531,0.19820
2690.21378,0.19932
2692.14225,0.20179
2694.07072,0.20241
2695.99919,0.20055
2697.92765,0.19845
2699.85612,0.19697
2701.78459,0.19534
2703.71306,0.19468
2705.64153,0.19579
2707.57000,0.19785
2709.49847,0.20117
2711.42693,0.20457
2713.35540,0.20548
2715.28387,0.20454
2717.21234,0.20270
2719.14081,0.19881
2721.06928,0.19520
2722.99775,0.19422
2724.92622,0.19516
2726.85468,0.19990
2728.78315,0.20605
2730.71162,0.20683
2732.64009,0.20394
2734.56856,0.20372
2736.49703,0.20592
2738.42550,0.20625
2740.35396,0.20578
2742.28243,0.20791
2744.21090,0.20896
2746.13937,0.20570
2748.06784,0.20260
2749.99631,0.20122
2751.92478,0.20049
2753.85325,0.20305
2755.78171,0.20699
2757.71018,0.20704
2759.63865,0.20414
2761.56712,0.20122
2763.49559,0.19978
2765.42406,0.20178
2767.35253,0.20432
2769.28099,0.20304
2771.20946,0.20048
2773.13793,0.20093
2775.06640,0.20290
2776.99487,0.20463
2778.92334,0.20787
2780.85181,0.20943
2782.78028,0.20598
2784.70874,0.20355
2786.63721,0.20692
2788.56568,0.21093
2790.49415,0.21129
2792.42262,0.21137
2794.35109,0.21303
2796.27956,0.21460
2798.20802,0.21357
2800.13649,0.20918
2802.06496,0.20644
2803.99343,0.20872
2805.92190,0.21243
2807.85037,0.21451
2809.77884,0.21512
2811.70731,0.21285
2813.63577,0.20901
2815.56424,0.20985
2817.49271,0.21489
2819.42118,0.21671
2821.34965,0.21358
2823.27812,0.20907
2825.20659,0.20623
2827.13505,0.20728
2829.06352,0.21099
2830.99199,0.21248
2832.92046,0.21085
2834.84893,0.21069
2836.77740,0.21181
2838.70587,0.20995
2840.63433,0.20677
2842.56280,0.20600
2844.49127,0.20637
2846.41974,0.20587
2848.34821,0.20617
2850.27668,0.20795
2852.20515,0.21022
2854.13362,0.21298
2856.06208,0.21280
2857.99055,0.20726
2859.91902,0.20391
2861.84749,0.20798
2863.77596,0.21128
2865.70443,0.20889
2867.63290,0.20665
2869.56136,0.20682
2871.48983,0.20833
2873.41830,0.21172
2875.34677,0.21462
2877.27524,0.21411
2879.20371,0.21037
2881.13218,0.20577
2883.06065,0.20393
2884.98911,0.20739
2886.91758,0.21334
2888.84605,0.21596
2890.77452,0.21371
2892.70299,0.20775
2894.63146,0.20135
2896.55993,0.20003
2898.48839,0.20290
2900.41686,0.20387
2902.34533,0.20085
2904.27380,0.19868
2906.20227,0.20450
2908.13074,0.21473
2910.05921,0.21729
2911.98768,0.21273
2913.91614,0.20725
2915.84461,0.20092
2917.77308,0.19837
2919.70155,0.20147
2921.63002,0.20604
2923.55849,0.20888
2925.48696,0.20800
2927.41542,0.20828
2929.34389,0.21012
2931.27236,0.20605
2933.20083,0.20028
2935.12930,0.19822
2937.05777,0.19735
2938.98624,0.20025
2940.91471,0.20519
2942.84317,0.20569
2944.77164,0.20150
2946.70011,0.19686
2948.62858,0.19808
2950.55705,0.20341
2952.48552,0.20566
2954.41399,0.20169
2956.34245,0.19308
2958.27092,0.18969
2960.19939,0.19683
2962.12786,0.20662
2964.05633,0.21330
2965.98480,0.21424
2967.91327,0.21003
2969.84174,0.21117
2971.77020,0.21775
2973.69867,0.21908
2975.62714,0.21234
2977.55561,0.20223
2979.48408,0.19909
2981.41255,0.20427
2983.34102,0.20587
2985.26948,0.19848
2987.19795,0.19002
2989.12642,0.19196
2991.05489,0.20402
2992.98336,0.21398
2994.91183,0.21613
2996.84030,0.21524
2998.76877,0.21423
3000.69723,0.21324
3002.62570,0.21267
3004.55417,0.21063
3006.48264,0.20461
3008.41111,0.19893
3010.33958,0.19537
3012.26805,0.18125
3014.19651,0.15395
3016.12498,0.13804
3018.05345,0.15517
3019.98192,0.18954
3021.91039,0.21091
3023.83886,0.21452
3025.76733,0.20970
3027.69579,0.20698
3029.62426,0.21395
3031.55273,0.22334
3033.48120,0.22286
3035.40967,0.21517
3037.33814,0.21069
3039.26661,0.21030
3041.19508,0.21173
3043.12354,0.21359
3045.05201,0.21092
3046.98048,0.20443
3048.90895,0.20169
3050.83742,0.20441
3052.76589,0.20874
3054.69436,0.21100
3056.62282,0.20872
3058.55129,0.20892
3060.47976,0.21569
3062.40823,0.21738
3064.33670,0.20841
3066.26517,0.19921
3068.19364,0.20073
3070.12211,0.20891
3072.05057,0.21397
3073.97904,0.21223
3075.90751,0.20486
3077.83598,0.20171
3079.76445,0.20709
3081.69292,0.21058
3083.62139,0.20230
3085.54985,0.19187
3087.47832,0.19734
3089.40679,0.20852
3091.33526,0.20868
3093.26373,0.20349
3095.19220,0.20149
3097.12067,0.20554
3099.04914,0.21312
3100.97760,0.21663
3102.90607,0.21257
3104.83454,0.21056
3106.76301,0.21683
3108.69148,0.22091
3110.61995,0.21479
3112.54842,0.20661
3114.47688,0.20830
3116.40535,0.21485
3118.33382,0.21698
3120.26229,0.21501
3122.19076,0.21020
3124.11923,0.20834
3126.04770,0.20984
3127.97617,0.20554
3129.90463,0.19921
3131.83310,0.20222
3133.76157,0.21000
3135.69004,0.21340
3137.61851,0.21528
3139.54698,0.21796
3141.47545,0.21799
3143.40391,0.21689
3145.33238,0.21934
3147.26085,0.22259
3149.18932,0.22346
3151.11779,0.22183
3153.04626,0.21463
3154.97473,0.20668
3156.90320,0.20839
3158.83166,0.21633
3160.76013,0.21911
3162.68860,0.21868
3164.61707,0.22225
3166.54554,0.22415
3168.47401,0.22226
3170.40248,0.22385
3172.33094,0.22322
3174.25941,0.21628
3176.18788,0.21439
3178.11635,0.21839
3180.04482,0.22049
3181.97329,0.22189
3183.90176,0.22365
3185.83022,0.22068
3187.75869,0.21373
3189.68716,0.20950
3191.61563,0.20845
3193.54410,0.20996
3195.47257,0.21291
3197.40104,0.21444
3199.32951,0.21774
3201.25797,0.22349
3203.18644,0.22607
3205.11491,0.22375
3207.04338,0.22162
3208.97185,0.22212
3210.90032,0.22157
3212.82879,0.22035
3214.75725,0.22051
3216.68572,0.21925
3218.61419,0.21693
3220.54266,0.21687
3222.47113,0.21748
3224.39960,0.21661
3226.32807,0.21607
3228.25654,0.21797
3230.18500,0.22129
3232.11347,0.22415
3234.04194,0.22622
3235.97041,0.22563
3237.89888,0.22300
3239.82735,0.22314
3241.75582,0.22303
3243.68428,0.21695
3245.61275,0.21013
3247.54122,0.20756
3249.46969,0.21016
3251.39816,0.21665
3253.32663,0.21890
3255.25510,0.21808
3257.18357,0.22085
3259.11203,0.22134
3261.04050,0.21635
3262.96897,0.21230
3264.89744,0.21271
3266.82591,0.21602
3268.75438,0.22024
3270.68285,0.22284
3272.61131,0.22110
3274.53978,0.21687
3276.46825,0.21366
3278.39672,0.21209
3280.32519,0.21148
3282.25366,0.21153
3284.18213,0.21164
3286.11060,0.21071
3288.03906,0.21158
3289.96753,0.21602
3291.89600,0.21650
3293.82447,0.21034
3295.75294,0.20828
3297.68141,0.21351
3299.60988,0.21698
3301.53834,0.21620
3303.46681,0.21416
3305.39528,0.21022
3307.32375,0.20395
3309.25222,0.19969
3311.18069,0.20072
3313.10916,0.20318
3315.03763,0.20409
3316.96609,0.20486
3318.89456,0.20738
3320.82303,0.21082
3322.75150,0.21090
3324.67997,0.20665
3326.60844,0.20118
3328.53691,0.19950
3330.46537,0.20612
3332.39384,0.21655
3334.32231,0.21896
3336.25078,0.21218
3338.17925,0.20968
3340.10772,0.21577
3342.03619,0.22039
3343.96466,0.21874
3345.89312,0.21419
3347.82159,0.21096
3349.75006,0.21104
3351.67853,0.21137
3353.60700,0.21094
3355.53547,0.21264
3357.46394,0.21394
3359.39240,0.21281
3361.32087,0.21096
3363.24934,0.20779
3365.17781,0.20592
3367.10628,0.21111
3369.03475,0.22063
3370.96322,0.22938
3372.89168,0.23542
3374.82015,0.23244
3376.74862,0.22259
3378.67709,0.21706
3380.60556,0.21609
3382.53403,0.21438
3384.46250,0.21296
3386.39097,0.21394
3388.31943,0.21738
3390.24790,0.22214
3392.17637,0.22220
3394.10484,0.21729
3396.03331,0.21717
3397.96178,0.22118
3399.89025,0.22203
3401.81871,0.22054
3403.74718,0.21807
3405.67565,0.21524
3407.60412,0.21494
3409.53259,0.21507
3411.46106,0.21301
3413.38953,0.21343
3415.31800,0.21654
3417.24646,0.21691
3419.17493,0.21652
3421.10340,0.21663
3423.03187,0.21117
3424.96034,0.20366
3426.88881,0.20155
3428.81728,0.20142
3430.74574,0.20181
3432.67421,0.20505
3434.60268,0.20768
3436.53115,0.20712
3438.45962,0.20394
3440.38809,0.20222
3442.31656,0.20489
3444.24503,0.20663
3446.17349,0.20441
3448.10196,0.20056
3450.03043,0.19683
3451.95890,0.19537
3453.88737,0.19755
3455.81584,0.20233
3457.74431,0.20775
3459.67277,0.21177
3461.60124,0.21327
3463.52971,0.21320
3465.45818,0.21115
3467.38665,0.20875
3469.31512,0.21080
3471.24359,0.21263
3473.17206,0.20677
3475.10052,0.19734
3477.02899,0.19235
3478.95746,0.19162
3480.88593,0.19074
3482.81440,0.19062
3484.74287,0.19088
3486.67134,0.18958
3488.59980,0.18978
3490.52827,0.19301
3492.45674,0.19576
3494.38521,0.19455
3496.31368,0.19155
3498.24215,0.18844
3500.17062,0.18392
3502.09909,0.18200
3504.02755,0.18401
3505.95602,0.18713
3507.88449,0.19081
3509.81296,0.19105
3511.74143,0.18621
3513.66990,0.18141
3515.59837,0.18003
3517.52683,0.18064
3519.45530,0.18094
3521.38377,0.18043
3523.31224,0.17751
3525.24071,0.17562
3527.16918,0.17929
3529.09765,0.18072
3531.02611,0.17537
3532.95458,0.17140
3534.88305,0.17408
3536.81152,0.17854
3538.73999,0.17770
3540.66846,0.17696
3542.59693,0.18414
3544.52540,0.19321
3546.45386,0.19213
3548.38233,0.18197
3550.31080,0.17412
3552.23927,0.17059
3554.16774,0.16587
3556.09621,0.16001
3558.02468,0.15699
3559.95314,0.15881
3561.88161,0.16262
3563.81008,0.16533
3565.73855,0.17109
3567.66702,0.17750
3569.59549,0.17347
3571.52396,0.16677
3573.45243,0.16642
3575.38089,0.16735
3577.30936,0.16310
3579.23783,0.15876
3581.16630,0.15611
3583.09477,0.15352
3585.02324,0.15480
3586.95171,0.16122
3588.88017,0.16561
3590.80864,0.16228
3592.73711,0.15708
3594.66558,0.15645
3596.59405,0.16008
3598.52252,0.16484
3600.45099,0.16581
3602.37946,0.16051
3604.30792,0.15793
3606.23639,0.16460
3608.16486,0.17245
3610.09333,0.16972
3612.02180,0.16242
3613.95027,0.15645
3615.87874,0.15179
3617.80720,0.15498
3619.73567,0.16417
3621.66414,0.16293
3623.59261,0.15720
3625.52108,0.15630
3627.44955,0.15665
3629.37802,0.15303
3631.30649,0.15093
3633.23495,0.15420
3635.16342,0.15716
3637.09189,0.15419
3639.02036,0.14831
3640.94883,0.14325
3642.87730,0.13893
3644.80577,0.13902
3646.73423,0.14826
3648.66270,0.15959
3650.59117,0.15357
3652.51964,0.14462
3654.44811,0.14500
3656.37658,0.14750
3658.30505,0.14398
3660.23352,0.13696
3662.16198,0.13147
3664.09045,0.13139
3666.01892,0.13610
3667.94739,0.14105
3669.87586,0.14179
3671.80433,0.13979
3673.73280,0.14100
3675.66126,0.14534
3677.58973,0.14679
3679.51820,0.14247
3681.44667,0.13640
3683.37514,0.13418
3685.30361,0.13642
3687.23208,0.14309
3689.16055,0.15406
3691.08901,0.15227
3693.01748,0.13953
3694.94595,0.13346
3696.87442,0.13359
3698.80289,0.13437
3700.73136,0.13467
3702.65983,0.13246
3704.58829,0.12851
3706.51676,0.12719
3708.44523,0.13195
3710.37370,0.14234
3712.30217,0.14422
3714.23064,0.13517
3716.15911,0.13116
3718.08757,0.13643
3720.01604,0.14423
3721.94451,0.14696
3723.87298,0.14521
3725.80145,0.14156
3727.72992,0.13701
3729.65839,0.13186
3731.58686,0.12808
3733.51532,0.12866
3735.44379,0.13396
3737.37226,0.14160
3739.30073,0.14560
3741.22920,0.14715
3743.15767,0.14664
3745.08614,0.14097
3747.01460,0.14254
3748.94307,0.15494
3750.87154,0.16072
3752.80001,0.14672
3754.72848,0.13658
3756.65695,0.13969
3758.58542,0.14778
3760.51389,0.14633
3762.44235,0.13813
3764.37082,0.13167
3766.29929,0.12775
3768.22776,0.12939
3770.15623,0.13255
3772.08470,0.13137
3774.01317,0.13142
3775.94163,0.13195
3777.87010,0.13032
3779.79857,0.13083
3781.72704,0.13248
3783.65551,0.13110
3785.58398,0.12860
3787.51245,0.12795
3789.44092,0.12877
3791.36938,0.13048
3793.29785,0.13295
3795.22632,0.13441
3797.15479,0.13657
3799.08326,0.14159
3801.01173,0.14169
3802.94020,0.13516
3804.86866,0.13446
3806.79713,0.13427
3808.72560,0.12852
3810.65407,0.12712
3812.58254,0.13151
3814.51101,0.13378
3816.43948,0.13017
3818.36795,0.12990
3820.29641,0.13827
3822.22488,0.14257
3824.15335,0.13612
3826.08182,0.13085
3828.01029,0.12884
3829.93876,0.12694
3831.86723,0.12694
3833.79569,0.13065
3835.72416,0.13906
3837.65263,0.15101
3839.58110,0.15193
3841.50957,0.14029
3843.43804,0.13042
3845.36651,0.12735
3847.29498,0.12797
3849.22344,0.12842
3851.15191,0.13122
3853.08038,0.14049
3855.00885,0.13906
3856.93732,0.13198
3858.86579,0.13134
3860.79426,0.13164
3862.72272,0.12758
3864.65119,0.12191
3866.57966,0.12164
3868.50813,0.12679
3870.43660,0.13285
3872.36507,0.13092
3874.29354,0.11933
3876.22200,0.10878
3878.15047,0.10664
3880.07894,0.11235
3882.00741,0.12039
3883.93588,0.12143
3885.86435,0.11630
3887.79282,0.11167
3889.72129,0.11077
3891.64975,0.11467
3893.57822,0.11782
3895.50669,0.11545
3897.43516,0.11338
3899.36363,0.11707
3901.29210,0.12552
3903.22057,0.13154
3905.14903,0.12669
3907.07750,0.11692
3909.00597,0.11168
3910.93444,0.10888
3912.86291,0.10720
3914.79138,0.11016
3916.71985,0.11675
3918.64832,0.12211
3920.57678,0.12365
3922.50525,0.12207
3924.43372,0.12017
3926.36219,0.11874
3928.29066,0.11813
3930.21913,0.11894
3932.14760,0.11822
3934.07606,0.11499
3936.00453,0.11186
3937.93300,0.11081
3939.86147,0.11246
3941.78994,0.11437
3943.71841,0.11676
3945.64688,0.12063
3947.57535,0.11949
3949.50381,0.11318
3951.43228,0.11121
3953.36075,0.11010
3955.28922,0.10417
3957.21769,0.09901
3959.14616,0.09717
3961.07463,0.09695
3963.00309,0.09939
3964.93156,0.10352
3966.86003,0.10582
3968.78850,0.10633
3970.71697,0.10815
3972.64544,0.10874
3974.57391,0.10321
3976.50238,0.09546
3978.43084,0.09545
3980.35931,0.10339
3982.28778,0.10562
3984.21625,0.09952
3986.14472,0.09947
3988.07319,0.10716
3990.00166,0.11228
3991.93012,0.11225
3993.85859,0.11006
3995.78706,0.10719
3997.71553,0.10508
3999.64400,0.10587
4001.57247,0.10709
4003.50094,0.10493
4005.42941,0.10066
4007.35787,0.09833
4009.28634,0.10206
4011.21481,0.10827
4013.14328,0.10972
4015.07175,0.10547
4017.00022,0.09989
4018.92869,0.09751
4020.85715,0.09645
4022.78562,0.09556
4024.71409,0.09719
4026.64256,0.09981
4028.57103,0.10019
4030.49950,0.09756
4032.42797,0.09552
4034.35644,0.09863
4036.28490,0.10505
4038.21337,0.10781
4040.14184,0.10467
4042.07031,0.10026
4043.99878,0.09844
4045.92725,0.09835
4047.85572,0.09773
4049.78418,0.09816
4051.71265,0.10018
4053.64112,0.10192
4055.56959,0.10402
4057.49806,0.10502
4059.42653,0.10165
4061.35500,0.09695
4063.28346,0.09344
4065.21193,0.08833
4067.14040,0.08490
4069.06887,0.08761
4070.99734,0.09347
4072.92581,0.09870
4074.85428,0.10157
4076.78275,0.10089
4078.71121,0.09671
4080.63968,0.09294
4082.56815,0.09358
4084.49662,0.09655
4086.42509,0.09814
4088.35356,0.09712
4090.28203,0.09380
4092.21049,0.09153
4094.13896,0.09243
4096.06743,0.09177
4097.99590,0.08538
4099.92437,0.07886
4101.85284,0.08068
4103.78131,0.08849
4105.70978,0.09399
4107.63824,0.09416
4109.56671,0.08927
4111.49518,0.08335
4113.42365,0.08009
4115.35212,0.07854
4117.28059,0.08023
4119.20906,0.08779
4121.13752,0.09729
4123.06599,0.10239
4124.99446,0.10258
4126.92293,0.10237
4128.85140,0.10317
4130.77987,0.09965
4132.70834,0.09063
4134.63681,0.08435
4136.56527,0.08481
4138.49374,0.08612
4140.42221,0.08568
4142.35068,0.08623
4144.27915,0.08710
4146.20762,0.08861
4148.13609,0.09121
4150.06455,0.09076
4151.99302,0.08624
4153.92149,0.07939
4155.84996,0.07406
4157.77843,0.07845
4159.70690,0.08945
4161.63537,0.09222
4163.56384,0.08680
4165.49230,0.08453
4167.42077,0.08568
4169.34924,0.08344
4171.27771,0.07828
4173.20618,0.07911
4175.13465,0.08632
4177.06312,0.08632
4178.99158,0.07922
4180.92005,0.07793
4182.84852,0.07872
4184.77699,0.07604
4186.70546,0.07994
4188.63393,0.09022
4190.56240,0.08818
4192.49087,0.07483
4194.41933,0.07191
4196.34780,0.07833
4198.27627,0.07750
4200.20474,0.07015
4202.13321,0.06758
4204.06168,0.07166
4205.99015,0.07821
4207.91861,0.08234
4209.84708,0.08179
4211.77555,0.08142
4213.70402,0.07940
4215.63249,0.07082
4217.56096,0.06447
4219.48943,0.06457
4221.41789,0.06219
4223.34636,0.05597
4225.27483,0.05447
4227.20330,0.06007
4229.13177,0.06567
4231.06024,0.06539
4232.98871,0.06483
4234.91718,0.07072
4236.84564,0.07739
4238.77411,0.08161
4240.70258,0.08471
4242.63105,0.08172
4244.55952,0.07321
4246.48799,0.06594
4248.41646,0.06407
4250.34492,0.06742
4252.27339,0.06985
4254.20186,0.06821
4256.13033,0.06677
4258.05880,0.07014
4259.98727,0.07769
4261.91574,0.08302
4263.84421,0.08004
4265.77267,0.06955
4267.70114,0.06047
4269.62961,0.05892
4271.55808,0.06033
4273.48655,0.05956
4275.41502,0.05785
4277.34349,0.05968
4279.27195,0.06278
4281.20042,0.05945
4283.12889,0.05416
4285.05736,0.05226
4286.98583,0.04935
4288.91430,0.04823
4290.84277,0.05079
4292.77124,0.05026
4294.69970,0.04818
4296.62817,0.05272
4298.55664,0.06024
4300.48511,0.05986
4302.41358,0.05159
4304.34205,0.04557
4306.27052,0.04790
4308.19898,0.05098
4310.12745,0.04870
4312.05592,0.04801
4313.98439,0.05052
4315.91286,0.04910
4317.84133,0.04508
4319.76980,0.04623
4321.69827,0.04945
4323.62673,0.04738
4325.55520,0.04341
4327.48367,0.04397
4329.41214,0.04834
4331.34061,0.05251
4333.26908,0.05546
4335.19755,0.05685
4337.12601,0.05557
4339.05448,0.05434
4340.98295,0.05300
4342.91142,0.04845
4344.83989,0.04635
4346.76836,0.05039
4348.69683,0.05553
4350.62530,0.05569
4352.55376,0.04897
4354.48223,0.04317
4356.41070,0.04327
4358.33917,0.04375
4360.26764,0.04204
4362.19611,0.04014
4364.12458,0.03956
4366.05304,0.04151
4367.98151,0.04364
4369.90998,0.04228
4371.83845,0.03741
4373.76692,0.03348
4375.69539,0.03507
4377.62386,0.03698
4379.55232,0.03640
4381.48079,0.04018
4383.40926,0.04594
4385.33773,0.04913
4387.26620,0.05406
4389.19467,0.05681
4391.12314,0.05069
4393.05161,0.04657
4394.98007,0.05053
4396.90854,0.05123
4398.83701,0.04747
4400.76548,0.04647
4402.69395,0.04440
4404.62242,0.03988
4406.55089,0.04137
4408.47935,0.04941
4410.40782,0.05658
4412.33629,0.05910
4414.26476,0.05754
4416.19323,0.05244
4418.12170,0.04428
4420.05017,0.03318
4421.97864,0.02298
4423.90710,0.02269
4425.83557,0.02793
4427.76404,0.02926
4429.69251,0.03114
4431.62098,0.03470
4433.54945,0.03625
4435.47792,0.03713
4437.40638,0.03611
4439.33485,0.03312
4441.26332,0.03281
4443.19179,0.03313
4445.12026,0.02944
4447.04873,0.02552
4448.97720,0.02696
4450.90567,0.03279
4452.83413,0.03789
4454.76260,0.03878
4456.69107,0.03395
4458.61954,0.02598
4460.54801,0.02247
4462.47648,0.02667
4464.40495,0.03185
4466.33341,0.03090
4468.26188,0.02616
4470.19035,0.02239
4472.11882,0.01913
4474.04729,0.01769
4475.97576,0.02125
4477.90423,0.02703
4479.83270,0.03112
4481.76116,0.03298
4483.68963,0.03485
4485.61810,0.03606
4487.54657,0.02856
4489.47504,0.01608
4491.40351,0.01387
4493.33198,0.02060
4495.26044,0.02463
4497.18891,0.02231
4499.11738,0.01525
4501.04585,0.01135
4502.97432,0.01388
4504.90279,0.01359
4506.83126,0.00566
4508.75973,-0.00085
4510.68819,0.00067
4512.61666,0.00085
4514.54513,-0.00346
4516.47360,0.00150
4518.40207,0.01813
4520.33054,0.02860
4522.25901,0.02199
4524.18747,0.00994
4526.11594,0.00464
4528.04441,0.00921
4529.97288,0.01802
4531.90135,0.01719
4533.82982,0.01060
4535.75829,0.01195
4537.68676,0.01728
4539.61522,0.01748
4541.54369,0.01124
4543.47216,0.00685
4545.40063,0.01142
4547.32910,0.01794
4549.25757,0.01948
4551.18604,0.01420
4553.11450,0.00720
4555.04297,0.00726
4556.97144,0.01014
4558.89991,0.00863
4560.82838,0.00365
4562.75685,0.00612
4564.68532,0.01983
4566.61378,0.02589
4568.54225,0.01546
4570.47072,0.00277
4572.39919,-0.00079
4574.32766,0.00349
4576.25613,0.01206
4578.18460,0.02187
4580.11307,0.02664
4582.04153,0.02043
4583.97000,0.00826
4585.89847,0.00419
4587.82694,0.00581
4589.75541,0.00064
4591.68388,-0.00732
4593.61235,-0.00952
4595.54081,-0.00507
4597.46928,0.00383
4599.39775,0.01260
4601.32622,0.01671
4603.25469,0.01624
4605.18316,0.01567
4607.11163,0.01296
4609.04010,0.00396
4610.96856,-0.00419
4612.89703,-0.00642
4614.82550,-0.00302
4616.75397,0.00959
4618.68244,0.02667
4620.61091,0.03355
4622.53938,0.02718
4624.46784,0.01788
4626.39631,0.01180
4628.32478,0.01060
4630.25325,0.01291
4632.18172,0.01312
4634.11019,0.01230
4636.03866,0.01454
4637.96713,0.01797
4639.89559,0.01942
4641.82406,0.01820
4643.75253,0.01655
4645.68100,0.01421
4647.60947,0.00575
4649.53794,-0.00503
4651.46641,-0.00396
4653.39487,0.00565
4655.32334,0.00811
4657.25181,0.00759
4659.18028,0.01050
4661.10875,0.01006
4663.03722,0.01133
4664.96569,0.01528
4666.89416,0.00939
4668.82262,-0.00131
4670.75109,-0.00254
4672.67956,0.00521
4674.60803,0.01349
4676.53650,0.01596
4678.46497,0.00824
4680.39344,-0.00145
4682.32190,0.00071
4684.25037,0.00899
4686.17884,0.01197
4688.10731,0.00839
4690.03578,0.00217
4691.96425,-0.00023
4693.89272,0.00074
4695.82119,-0.00053
4697.74965,-0.00313
4699.67812,-0.00031
4701.60659,0.00486
4703.53506,0.00404
4705.46353,-0.00023
4707.39200,-0.00361
4709.32047,-0.00203
4711.24893,0.00785
4713.17740,0.02092
4715.10587,0.02592
4717.03434,0.01983
4718.96281,0.01226
4720.89128,0.00370
4722.81975,-0.00403
4724.74821,-0.00192
4726.67668,0.00359
4728.60515,0.00616
4730.53362,0.01021
4732.46209,0.01567
4734.39056,0.01870
4736.31903,0.01660
4738.24750,0.00900
4740.17596,0.00111
4742.10443,-0.00415
4744.03290,-0.00923
4745.96137,-0.00876
4747.88984,0.00092
4749.81831,0.00983
4751.74678,0.01221
4753.67524,0.01292
4755.60371,0.01154
4757.53218,0.00338
4759.46065,-0.00262
4761.38912,0.00589
4763.31759,0.01839
4765.24606,0.01901
4767.17453,0.01399
4769.10299,0.01405
4771.03146,0.01592
4772.95993,0.01207
4774.88840,0.00174
4776.81687,-0.00829
4778.74534,-0.00710
4780.67381,0.00818
4782.60227,0.02177
4784.53074,0.02123
4786.45921,0.01696
4788.38768,0.02062
4790.31615,0.02630
4792.24462,0.02193
4794.17309,0.00825
4796.10156,-0.00208
4798.03002,-0.00338
4799.95849,0.00043
4801.88696,0.00393
4803.81543,0.00541
4805.74390,0.00722
4807.67237,0.00515
4809.60084,0.00154
4811.52930,0.00679
4813.45777,0.01316
4815.38624,0.00701
4817.31471,-0.00482
4819.24318,-0.00813
4821.17165,-0.00715
4823.10012,-0.00368
4825.02859,0.01014
4826.95705,0.01925
4828.88552,0.01304
4830.81399,0.00478
4832.74246,-0.00267
4834.67093,-0.00387
4836.59940,0.00996
4838.52787,0.01926
4840.45633,0.00939
4842.38480,-0.00112
4844.31327,0.00251
4846.24174,0.01397
4848.17021,0.02432
4850.09868,0.02999
4852.02715,0.03154
4853.95562,0.02952
4855.88408,0.02133
4857.81255,0.01446
4859.74102,0.01535
4861.66949,0.00893
4863.59796,-0.00961
4865.52643,-0.01921
4867.45490,-0.00966
4869.38336,0.00454
4871.31183,0.00652
4873.24030,-0.00149
4875.16877,-0.00432
4877.09724,-0.00050
4879.02571,0.00097
4880.95418,-0.00063
4882.88265,0.00109
4884.81111,0.00642
4886.73958,0.00738
4888.66805,0.00361
4890.59652,0.00131
4892.52499,0.00205
4894.45346,0.00014
4896.38193,-0.00735
4898.31039,-0.00902
4900.23886,0.00197
4902.16733,0.01315
4904.09580,0.01252
4906.02427,0.00295
4907.95274,-0.00781
4909.88121,-0.01356
4911.80967,-0.01002
4913.73814,0.00045
4915.66661,0.00984
4917.59508,0.00518
4919.52355,-0.00563
4921.45202,-0.00685
4923.38049,-0.00600
4925.30896,-0.00824
4927.23742,-0.01012
4929.16589,-0.00937
4931.09436,-0.00456
4933.02283,0.00071
4934.95130,0.00307
4936.87977,-0.00147
4938.80824,-0.00380
4940.73670,0.01113
4942.66517,0.02345
4944.59364,0.01300
4946.52211,-0.00107
4948.45058,-0.00620
4950.37905,-0.00838
4952.30752,0.00069
4954.23599,0.02370
4956.16445,0.03711
4958.09292,0.02590
4960.02139,0.00795
4961.94986,0.00236
4963.87833,-0.00423
4965.80680,-0.01634
4967.73527,-0.01188
4969.66373,-0.00004
4971.59220,-0.00313
4973.52067,-0.00585
4975.44914,0.00383
4977.37761,0.01435
4979.30608,0.02514
4981.23455,0.03306
4983.16302,0.02516
4985.09148,0.00980
4987.01995,0.00296
4988.94842,0.00129
4990.87689,-0.00247
4992.80536,-0.00414
4994.73383,-0.00224
4996.66230,-0.00108
4998.59076,0.00090
5000.51923,0.00320
5002.44770,0.00162
5004.37617,0.00292
5006.30464,0.02102
5008.23311,0.05037
5010.16158,0.06408
5012.09005,0.05746
5014.01851,0.05015
5015.94698,0.04574
5017.87545,0.04066
5019.80392,0.03358
5021.73239,0.02332
5023.66086,0.01255
5025.58933,0.00269
5027.51779,0.00095
5029.44626,0.01071
5031.37473,0.01701
5033.30320,0.01172
5035.23167,0.00443
5037.16014,0.00017
5039.08861,0.00637
5041.01708,0.02596
5042.94554,0.03834
5044.87401,0.03531
5046.80248,0.02922
5048.73095,0.02504
5050.65942,0.01991
5052.58789,0.01279
5054.51636,0.00784
5056.44482,0.00826
5058.37329,0.01099
5060.30176,0.01545
5062.23023,0.01870
5064.15870,0.01396
5066.08717,0.00329
5068.01564,-0.00806
5069.94410,-0.01089
5071.87257,0.00390
5073.80104,0.02762
5075.72951,0.04465
5077.65798,0.04818
5079.58645,0.04458
5081.51492,0.04582
5083.44339,0.04875
5085.37185,0.04130
5087.30032,0.02796
5089.22879,0.02661
5091.15726,0.03662
5093.08573,0.04040
5095.01420,0.04413
5096.94267,0.05618
5098.87113,0.05313
5100.79960,0.03341
5102.72807,0.02131
5104.65654,0.01871
5106.58501,0.02584
5108.51348,0.03830
5110.44195,0.03831
5112.37042,0.03348
5114.29888,0.03021
5116.22735,0.02088
5118.15582,0.01963
5120.08429,0.02990
5122.01276,0.03857
5123.94123,0.03704
5125.86970,0.02102
5127.79816,0.00803
5129.72663,0.01129
5131.65510,0.01512
5133.58357,0.01402
5135.51204,0.01419
5137.44051,0.01099
5139.36898,0.01024
5141.29745,0.02104
5143.22591,0.02845
5145.15438,0.02710
5147.08285,0.03404
5149.01132,0.03910
5150.93979,0.02765
5152.86826,0.01903
5154.79673,0.01580
5156.72519,0.00894
5158.65366,0.00983
5160.58213,0.02290
5162.51060,0.03550
5164.43907,0.03169
5166.36754,0.02294
5168.29601,0.02754
5170.22448,0.04150
5172.15294,0.05665
5174.08141,0.06155
5176.00988,0.05098
5177.93835,0.03435
5179.86682,0.02446
5181.79529,0.02425
5183.72376,0.02242
5185.65222,0.01713
5187.58069,0.01748
5189.50916,0.02115
5191.43763,0.01856
5193.36610,0.01187
5195.29457,0.01112
5197.22304,0.01328
5199.15151,0.02295
5201.07997,0.04240
5203.00844,0.05012
5204.93691,0.04463
5206.86538,0.03449
5208.79385,0.02048
5210.72232,0.02392
5212.65079,0.04468
5214.57925,0.04860
5216.50772,0.03965
5218.43619,0.05055
5220.36466,0.06197
5222.29313,0.04899
5224.22160,0.03398
5226.15007,0.02872
5228.07854,0.01891
5230.00700,0.01572
5231.93547,0.03266
5233.86394,0.03996
5235.79241,0.03686
5237.72088,0.05505
5239.64935,0.07207
5241.57782,0.05511
5243.50628,0.02532
5245.43475,0.01780
5247.36322,0.02866
5249.29169,0.03904
5251.22016,0.04533
5253.14863,0.05710
5255.07710,0.07478
5257.00556,0.07583
5258.93403,0.06412
5260.86250,0.06545
5262.79097,0.07509
5264.71944,0.07721
5266.64791,0.07506
5268.57638,0.07035
5270.50485,0.05732
5272.43331,0.03425
5274.36178,0.01547
5276.29025,0.01902
5278.21872,0.03992
5280.14719,0.06092
5282.07566,0.06719
5284.00413,0.05810
5285.93259,0.05310
5287.86106,0.06153
5289.78953,0.07283
5291.71800,0.06889
5293.64647,0.05312
5295.57494,0.04865
5297.50341,0.04706
5299.43188,0.03146
5301.36034,0.01901
5303.28881,0.02333
5305.21728,0.03124
5307.14575,0.04054
5309.07422,0.05933
5311.00269,0.07120
5312.93116,0.06656
5314.85962,0.05738
5316.78809,0.04628
5318.71656,0.03638
5320.64503,0.02726
5322.57350,0.01364
5324.50197,0.01373
5326.43044,0.03309
5328.35891,0.04200
5330.28737,0.03165
5332.21584,0.01818
5334.14431,0.00753
5336.07278,0.00512
5338.00125,0.02689
5339.92972,0.06635
5341.85819,0.08763
5343.78665,0.08454
5345.71512,0.07532
5347.64359,0.06123
5349.57206,0.04706
5351.50053,0.05478
5353.42900,0.07639
5355.35747,0.08476
5357.28594,0.08296
5359.21440,0.08387
5361.14287,0.08539
5363.07134,0.07448
5364.99981,0.06092
5366.92828,0.07061
5368.85675,0.08338
5370.78522,0.07079
5372.71368,0.05391
5374.64215,0.04582
5376.57062,0.02793
5378.49909,0.01518
5380.42756,0.02461
5382.35603,0.04040
5384.28450,0.04636
5386.21297,0.04325
5388.14143,0.04385
5390.06990,0.04259
5391.99837,0.02504
5393.92684,0.00613
5395.85531,0.01195
5397.78378,0.03369
5399.71225,0.06455
5401.64071,0.09213
5403.56918,0.08812
5405.49765,0.05841
5407.42612,0.03825
5409.35459,0.04416
5411.28306,0.06512
5413.21153,0.08980
5415.13999,0.10171
5417.06846,0.09009
5418.99693,0.07240
5420.92540,0.06239
5422.85387,0.05478
5424.78234,0.04690
5426.71081,0.04039
5428.63928,0.03545
5430.56774,0.04802
5432.49621,0.07051
5434.42468,0.07815
5436.35315,0.08653
5438.28162,0.09782
5440.21009,0.09174
5442.13856,0.08594
5444.06702,0.08365
5445.99549,0.06025
5447.92396,0.04251
5449.85243,0.05222
5451.78090,0.05589
5453.70937,0.05178
5455.63784,0.06545
5457.56631,0.08094
5459.49477,0.07864
5461.42324,0.08220
5463.35171,0.09335
5465.28018,0.09905
5467.20865,0.09870
5469.13712,0.09131
5471.06559,0.08087
5472.99405,0.06352
5474.92252,0.02953
5476.85099,-0.00795
5478.77946,-0.00467
5480.70793,0.04378
5482.63640,0.08613
5484.56487,0.08884
5486.49334,0.07419
5488.42180,0.08274
5490.35027,0.11675
5492.27874,0.14679
5494.20721,0.14845
5496.13568,0.12347
5498.06415,0.08953
5499.99262,0.05444
5501.92108,0.03617
5503.84955,0.04901
5505.77802,0.07859
5507.70649,0.10109
5509.63496,0.10062
5511.56343,0.08150
5513.49190,0.05251
5515.42037,0.02805
5517.34883,0.03456
5519.27730,0.05492
5521.20577,0.05997
5523.13424,0.06700
5525.06271,0.08474
5526.99118,0.10632
5528.91965,0.10913
5530.84811,0.07615
5532.77658,0.04844
5534.70505,0.05631
5536.63352,0.08327
5538.56199,0.09457
5540.49046,0.08579
5542.41893,0.08487
5544.34740,0.08727
5546.27586,0.07905
5548.20433,0.06659
5550.13280,0.04522
5552.06127,0.03269
5553.98974,0.05577
5555.91821,0.08271
5557.84668,0.07186
5559.77514,0.03695
5561.70361,0.02329
5563.63208,0.04937
5565.56055,0.08569
5567.48902,0.09843
5569.41749,0.08691
5571.34596,0.07171
5573.27443,0.05393
5575.20289,0.04302
5577.13136,0.06176
5579.05983,0.08758
5580.98830,0.08648
5582.91677,0.07161
5584.84524,0.06706
5586.77371,0.07242
5588.70217,0.09231
5590.63064,0.11217
5592.55911,0.11124
5594.48758,0.10157
5596.41605,0.09315
5598.34452,0.08851
5600.27299,0.08807
5602.20145,0.08301
5604.12992,0.06710
5606.05839,0.05221
5607.98686,0.04886
5609.91533,0.05218
5611.84380,0.06272
5613.77227,0.06947
5615.70074,0.06117
5617.62920,0.06860
5619.55767,0.11008
5621.48614,0.13554
5623.41461,0.11967
5625.34308,0.10600
5627.27155,0.11582
5629.20002,0.12523
5631.12848,0.11263
5633.05695,0.09069
5634.98542,0.08499
5636.91389,0.10050
5638.84236,0.12209
5640.77083,0.12454
5642.69930,0.10585
5644.62777,0.07780
5646.55623,0.03735
5648.48470,-0.00030
5650.41317,-0.00272
5652.34164,0.03333
5654.27011,0.07164
5656.19858,0.08931
5658.12705,0.09628
5660.05551,0.09376
5661.98398,0.09488
5663.91245,0.10786
5665.84092,0.10859
5667.76939,0.11281
5669.69786,0.13561
5671.62633,0.14084
5673.55480,0.11579
5675.48326,0.08603
5677.41173,0.06993
5679.34020,0.07689
5681.26867,0.10025
5683.19714,0.10625
5685.12561,0.08548
5687.05408,0.06340
5688.98254,0.06690
5690.91101,0.08944
5692.83948,0.09527
5694.76795,0.08832
5696.69642,0.07025
5698.62489,0.03389
5700.55336,0.03413
5702.48183,0.06184
5704.41029,0.04457
5706.33876,0.01355
5708.26723,0.02308
5710.19570,0.06450
5712.12417,0.11225
5714.05264,0.11894
5715.98111,0.07649
5717.90957,0.04757
5719.83804,0.05174
5721.76651,0.05353
5723.69498,0.04841
5725.62345,0.05424
5727.55192,0.07392
5729.48039,0.10108
5731.40886,0.11357
5733.33732,0.10046
5735.26579,0.09301
5737.19426,0.11103
5739.12273,0.13138
5741.05120,0.13250
5742.97967,0.10121
5744.90814,0.06236
5746.83660,0.07329
5748.76507,0.11923
5750.69354,0.11333
5752.62201,0.05304
5754.55048,0.01159
5756.47895,0.00282
5758.40742,0.01871
5760.33588,0.07000
5762.26435,0.12013
5764.19282,0.10134
5766.12129,0.05156
5768.04976,0.04297
5769.97823,0.04886
5771.90670,0.04328
5773.83517,0.03874
5775.76363,0.03777
5777.69210,0.04009
5779.62057,0.03840
5781.54904,0.02771
5783.47751,0.01857
5785.40598,0.02415
5787.33445,0.05199
5789.26291,0.08723
5791.19138,0.09336
5793.11985,0.06684
5795.04832,0.04490
5796.97679,0.03923
5798.90526,0.02993
5800.83373,0.03257
5802.76220,0.05615
5804.69066,0.05371
5806.61913,0.01910
5808.54760,0.00752
5810.47607,0.03726
5812.40454,0.06209
5814.33301,0.05476
5816.26148,0.04871
5818.18994,0.06089
5820.11841,0.07931
5822.04688,0.08641
5823.97535,0.07463
5825.90382,0.05231
5827.83229,0.02929
5829.76076,0.02121
5831.68923,0.03157
5833.61769,0.04641
5835.54616,0.06514
5837.47463,0.07919
5839.40310,0.06008
5841.33157,0.03300
5843.26004,0.04674
5845.18851,0.08681
5847.11697,0.11651
5849.04544,0.11717
5850.97391,0.11415
5852.90238,0.14646
5854.83085,0.17005
5856.75932,0.12745
5858.68779,0.05598
5860.61626,0.02042
5862.54472,0.03726
5864.47319,0.07489
5866.40166,0.10340
5868.33013,0.12769
5870.25860,0.13826
5872.18707,0.11970
5874.11554,0.08702
5876.04400,0.07007
5877.97247,0.07849
5879.90094,0.09456
5881.82941,0.10373
5883.75788,0.10126
5885.68635,0.07681
5887.61482,0.04774
5889.54329,0.06646
5891.47175,0.11383
5893.40022,0.12103
5895.32869,0.08360
5897.25716,0.03794
5899.18563,0.01038
5901.11410,0.03099
5903.04257,0.09646
5904.97103,0.12629
5906.89950,0.09548
5908.82797,0.07026
5910.75644,0.07163
5912.68491,0.05231
5914.61338,0.01796
5916.54185,0.02950
5918.47032,0.07258
5920.39878,0.09157
5922.32725,0.08604
5924.25572,0.06603
5926.18419,0.05222
5928.11266,0.06423
5930.04113,0.07979
5931.96960,0.09269
5933.89806,0.09606
5935.82653,0.07911
5937.75500,0.07539
5939.68347,0.08310
5941.61194,0.07378
5943.54041,0.06434
5945.46888,0.06546
5947.39734,0.06290
5949.32581,0.07826
5951.25428,0.12067
5953.18275,0.13694
5955.11122,0.13254
5957.03969,0.12869
5958.96816,0.08860
5960.89663,0.06281
5962.82509,0.08662
5964.75356,0.09127
5966.68203,0.09008
5968.61050,0.10820
5970.53897,0.10600
5972.46744,0.09699
5974.39591,0.10157
5976.32437,0.09520
5978.25284,0.06703
5980.18131,0.04449
5982.10978,0.05742
5984.03825,0.07185
5985.96672,0.06264
5987.89519,0.05405
5989.82366,0.03955
5991.75212,0.02629
5993.68059,0.02181
5995.60906,0.01533
5997.53753,0.02685
5999.46600,0.04939
6001.39447,0.05809
6003.32294,0.04918
6005.25140,0.04147
6007.17987,0.05755
6009.10834,0.07872
6011.03681,0.07969
6012.96528,0.05771
6014.89375,0.03107
6016.82222,0.03872
6018.75069,0.08178
6020.67915,0.11750
6022.60762,0.13311
6024.53609,0.13471
6026.46456,0.12795
6028.39303,0.10981
6030.32150,0.08450
6032.24997,0.08331
6034.17843,0.12078
6036.10690,0.16887
6038.03537,0.15597
6039.96384,0.08154
6041.89231,0.04898
6043.82078,0.08982
6045.74925,0.11893
6047.67772,0.08962
6049.60618,0.05314
6051.53465,0.07216
6053.46312,0.11336
6055.39159,0.09727
6057.32006,0.04577
6059.24853,0.06323
6061.17700,0.13910
6063.10546,0.16854
6065.03393,0.12637
6066.96240,0.06997
6068.89087,0.03602
6070.81934,0.04556
6072.74781,0.07660
6074.67628,0.06272
6076.60475,0.00999
6078.53321,-0.02158
6080.46168,-0.00222
6082.39015,0.05063
6084.31862,0.06167
6086.24709,0.03123
6088.17556,0.04086
6090.10403,0.06683
6092.03249,0.06064
6093.96096,0.04825
6095.88943,0.05548
6097.81790,0.05727
6099.74637,0.04132
6101.67484,0.05813
6103.60331,0.10815
6105.53177,0.10921
6107.46024,0.06004
6109.38871,0.05336
6111.31718,0.09073
6113.24565,0.09709
6115.17412,0.07682
6117.10259,0.09600
6119.03106,0.14426
6120.95952,0.14487
6122.88799,0.11887
6124.81646,0.09491
6126.74493,0.07189
6128.67340,0.08556
6130.60187,0.11190
6132.53034,0.08496
6134.45880,0.05324
6136.38727,0.06431
6138.31574,0.05801
6140.24421,0.04286
6142.17268,0.07652
6144.10115,0.10536
6146.02962,0.10627
6147.95809,0.13071
6149.88655,0.16306
6151.81502,0.14541
6153.74349,0.09608
6155.67196,0.06738
6157.60043,0.04410
6159.52890,0.02055
6161.45737,0.02610
6163.38583,0.05982
6165.31430,0.12660
6167.24277,0.19278
6169.17124,0.18977
6171.09971,0.13622
6173.02818,0.10813
6174.95665,0.11814
6176.88512,0.12556
6178.81358,0.11819
6180.74205,0.11647
6182.67052,0.12618
6184.59899,0.10862
6186.52746,0.04101
6188.45593,-0.00964
6190.38440,0.02884
6192.31286,0.11816
6194.24133,0.13895
6196.16980,0.08060
6198.09827,0.06062
6200.02674,0.07410
6201.95521,0.06927
6203.88368,0.06566
6205.81215,0.07457
6207.74061,0.10525
6209.66908,0.14503
6211.59755,0.12961
6213.52602,0.08048
6215.45449,0.06712
6217.38296,0.09102
6219.31143,0.11256
6221.23989,0.09081
6223.16836,0.05631
6225.09683,0.05571
6227.02530,0.05723
6228.95377,0.06816
6230.88224,0.10819
6232.81071,0.12860
6234.73918,0.10436
6236.66764,0.07364
6238.59611,0.05376
6240.52458,0.05073
6242.45305,0.08149
6244.38152,0.11785
6246.30999,0.12716
6248.23846,0.12231
6250.16692,0.09728
6252.09539,0.02459
6254.02386,-0.04725
6255.95233,-0.04405
6257.88080,0.01066
6259.80927,0.04756
6261.73774,0.06050
6263.66621,0.08447
6265.59467,0.11312
6267.52314,0.10296
6269.45161,0.05881
6271.38008,0.00158
6273.30855,-0.03037
6275.23702,0.00609
6277.16549,0.06953
6279.09395,0.11167
6281.02242,0.12937
6282.95089,0.11283
6284.87936,0.06687
6286.80783,0.06163
6288.73630,0.12831
6290.66477,0.16563
6292.59323,0.12871
6294.52170,0.09385
6296.45017,0.07378
6298.37864,0.07076
6300.30711,0.11014
6302.23558,0.16970
6304.16405,0.20701
6306.09252,0.19596
6308.02098,0.15179
6309.94945,0.12567
6311.87792,0.13169
6313.80639,0.12794
6315.73486,0.08974
6317.66333,0.06488
6319.59180,0.06079
6321.52026,0.03073
6323.44873,0.00203
6325.37720,0.00097
6327.30567,0.01299
6329.23414,0.04809
6331.16261,0.08386
6333.09108,0.08275
6335.01955,0.07219
6336.94801,0.07655
6338.87648,0.06655
6340.80495,0.04550
6342.73342,0.06620
6344.66189,0.12419
6346.59036,0.15574
6348.51883,0.13640
6350.44729,0.10106
6352.37576,0.08614
6354.30423,0.08452
6356.23270,0.06701
6358.16117,0.03265
6360.08964,0.01536
6362.01811,0.01946
6363.94658,0.00756
6365.87504,-0.01154
6367.80351,0.00076
6369.73198,0.04608
6371.66045,0.09693
6373.58892,0.10631
6375.51739,0.09697
6377.44586,0.12551
6379.37432,0.15276
6381.30279,0.13112
6383.23126,0.09368
6385.15973,0.09524
6387.08820,0.11118
6389.01667,0.12114
6390.94514,0.17346
6392.87361,0.21692
6394.80207,0.13853
6396.73054,0.08388
6398.65901,0.16464
6400.58748,0.22911
6402.51595,0.15640
6404.44442,0.05846
6406.37289,0.03807
6408.30135,0.04824
6410.22982,0.05298
6412.15829,0.06505
6414.08676,0.05463
6416.01523,0.02598
6417.94370,0.01301
6419.87217,0.01753
6421.80064,0.04011
6423.72910,0.09452
6425.65757,0.14452
6427.58604,0.13271
6429.51451,0.10993
6431.44298,0.13636
6433.37145,0.14920
6435.29992,0.08210
6437.22838,-0.00945
6439.15685,0.00919
6441.08532,0.10461
6443.01379,0.13630
6444.94226,0.08809
6446.87073,0.04988
6448.79920,0.05243
6450.72766,0.06489
6452.65613,0.06834
6454.58460,0.08389
6456.51307,0.10025
6458.44154,0.08661
6460.37001,0.06524
6462.29848,0.01691
6464.22695,-0.03995
6466.15541,0.00193
6468.08388,0.10666
6470.01235,0.17305
6471.94082,0.19533
6473.86929,0.17196
6475.79776,0.12556
6477.72623,0.11564
6479.65469,0.14389
6481.58316,0.17639
6483.51163,0.13825
6485.44010,0.01531
6487.36857,-0.06110
6489.29704,-0.03784
6491.22551,-0.00094
6493.15398,-0.00471
6495.08244,-0.01277
6497.01091,0.04797
6498.93938,0.15481
6500.86785,0.19871
6502.79632,0.13101
6504.72479,0.03400
6506.65326,0.00380
6508.58172,0.02585
6510.51019,0.01000
6512.43866,-0.04318
6514.36713,-0.04525
6516.29560,0.00852
6518.22407,0.03837
6520.15254,0.05228
6522.08101,0.11582
6524.00947,0.15731
6525.93794,0.07635
6527.86641,-0.03550
6529.79488,-0.06167
6531.72335,-0.01867
6533.65182,0.02292
6535.58029,0.05560
6537.50875,0.09881
6539.43722,0.13562
6541.36569,0.13248
6543.29416,0.08378
6545.22263,0.05114
6547.15110,0.05647
6549.07957,0.04212
6551.00804,0.03939
6552.93650,0.11147
6554.86497,0.14990
6556.79344,0.08536
6558.72191,-0.01126
6560.65038,-0.09361
6562.57885,-0.12167
6564.50732,-0.07023
6566.43578,-0.01342
6568.36425,0.00986
6570.29272,0.01848
6572.22119,0.01551
6574.14966,0.05915
6576.07813,0.12764
6578.00660,0.11527
6579.93507,0.03911
6581.86353,-0.01124
6583.79200,-0.01714
6585.72047,0.00881
6587.64894,0.06139
6589.57741,0.09755
6591.50588,0.06075
6593.43435,-0.04534
6595.36281,-0.10262
6597.29128,-0.07311
6599.21975,-0.03736
6601.14822,-0.00819
6603.07669,0.00442
6605.00516,0.00133
6606.93363,0.02048
6608.86210,0.05550
6610.79056,0.07252
6612.71903,0.07317
6614.64750,0.08700
6616.57597,0.10191
6618.50444,0.08747
6620.43291,0.08130
6622.36138,0.12350
6624.28984,0.14027
6626.21831,0.05680
6628.14678,-0.06219
6630.07525,-0.09638
6632.00372,-0.04286
6633.93219,-0.00691
6635.86066,-0.03234
6637.78912,-0.04596
6639.71759,0.00425
6641.64606,0.05970
6643.57453,0.08361
6645.50300,0.09483
6647.43147,0.10071
6649.35994,0.08558
6651.28841,0.05604
6653.21687,0.05112
6655.14534,0.08258
6657.07381,0.13098
6659.00228,0.14267
6660.93075,0.08441
6662.85922,0.01482
6664.78769,0.02464
6666.71615,0.14961
6668.64462,0.29720
6670.57309,0.33729
6672.50156,0.22731
6674.43003,0.05180
6676.35850,-0.01936
6678.28697,0.07046
6680.21544,0.19222
6682.14390,0.21060
6684.07237,0.16263
6686.00084,0.15865
6687.92931,0.18755
6689.85778,0.16723
6691.78625,0.09827
6693.71472,0.03542
6695.64318,0.00803
6697.57165,0.00422
6699.50012,-0.00185
6701.42859,-0.01731
6703.35706,-0.02088
6705.28553,0.00849
6707.21400,0.04053
6709.14247,0.09633
6711.07093,0.15035
6712.99940,0.11192
6714.92787,0.05560
6716.85634,0.10578
6718.78481,0.20774
6720.71328,0.23436
6722.64175,0.16724
6724.57021,0.10387
6726.49868,0.08731
6728.42715,0.07062
6730.35562,0.06960
6732.28409,0.11570
6734.21256,0.14882
6736.14103,0.12214
6738.06950,0.05791
6739.99796,-0.00544
6741.92643,-0.00774
6743.85490,0.05986
6745.78337,0.11595
6747.71184,0.14047
6749.64031,0.13459
6751.56878,0.10312
6753.49724,0.08852
6755.42571,0.07240
6757.35418,0.04452
6759.28265,0.04870
6761.21112,0.10202
6763.13959,0.14463
6765.06806,0.15019
6766.99653,0.14214
6768.92499,0.12409
6770.85346,0.11413
6772.78193,0.08354
6774.71040,-0.01195
6776.63887,-0.07306
6778.56734,-0.00947
6780.49581,0.10711
6782.42427,0.16988
6784.35274,0.13826
6786.28121,0.10236
6788.20968,0.13816
6790.13815,0.16848
6792.06662,0.13287
6793.99509,0.08845
6795.92355,0.06591
6797.85202,0.03690
6799.78049,-0.00106
6801.70896,0.02566
6803.63743,0.05798
6805.56590,-0.01710
6807.49437,-0.07365
6809.42284,-0.03619
6811.35130,0.03589
6813.27977,0.07685
6815.20824,0.06224
6817.13671,0.05100
6819.06518,0.10261
6820.99365,0.16124
6822.92212,0.11838
6824.85058,0.00194
6826.77905,-0.06003
6828.70752,-0.03393
6830.63599,0.06036
6832.56446,0.14225
6834.49293,0.18578
6836.42140,0.21445
6838.34987,0.19701
6840.27833,0.14622
6842.20680,0.08888
6844.13527,0.03006
6846.06374,0.01798
6847.99221,0.05301
6849.92068,0.07159
6851.84915,0.03228
6853.77761,-0.06587
6855.70608,-0.12167
6857.63455,-0.04401
6859.56302,0.03118
6861.49149,-0.00641
6863.41996,-0.08515
6865.34843,-0.08759
6867.27690,-0.00078
6869.20536,0.10332
6871.13383,0.14661
6873.06230,0.10428
6874.99077,0.06138
6876.91924,0.04280
6878.84771,-0.00295
6880.77618,-0.05484
6882.70464,-0.07277
6884.63311,-0.03792
6886.56158,0.04087
6888.49005,0.08452
6890.41852,0.05083
6892.34699,0.01886
6894.27546,0.06698
6896.20393,0.16481
6898.13239,0.24279
6900.06086,0.27541
6901.98933,0.27849
6903.91780,0.25790
6905.84627,0.25328
6907.77474,0.27206
6909.70321,0.22041
6911.63167,0.10989
6913.56014,0.06347
6915.48861,0.07333
6917.41708,0.09828
6919.34555,0.15500
6921.27402,0.10716
6923.20249,-0.05556
6925.13096,-0.11772
6927.05942,-0.05935
6928.98789,-0.03101
6930.91636,-0.05806
6932.84483,-0.06924
6934.77330,-0.06827
6936.70177,-0.05075
6938.63024,-0.00529
6940.55870,0.02959
6942.48717,0.05765
6944.41564,0.12976
6946.34411,0.23158
6948.27258,0.33577
6950.20105,0.39520
6952.12952,0.33944
6954.05799,0.21658
6955.98645,0.15530
6957.91492,0.14945
6959.84339,0.15406
6961.77186,0.18486
6963.70033,0.18726
6965.62880,0.10516
6967.55727,0.01236
6969.48573,0.03585
6971.41420,0.08257
6973.34267,-0.05675
6975.27114,-0.21723
6977.19961,-0.12934
6979.12808,0.03503
6981.05655,0.15465
6982.98501,0.23178
6984.91348,0.14963
6986.84195,-0.03150
6988.77042,-0.12409
6990.69889,-0.07525
6992.62736,0.04156
6994.55583,0.12304
6996.48430,0.18326
6998.41276,0.23878
7000.34123,0.21489
7002.26970,0.11009
7004.19817,-0.03487
7006.12664,-0.14538
7008.05511,-0.14081
7009.98358,-0.09470
7011.91204,-0.07950
7013.84051,-0.06223
7015.76898,-0.03249
7017.69745,-0.05613
7019.62592,-0.05957
7021.55439,0.08160
7023.48286,0.21103
7025.41133,0.18079
7027.33979,0.10520
7029.26826,0.03908
7031.19673,0.00242
7033.12520,-0.00168
7035.05367,-0.01126
7036.98214,0.03427
7038.91061,0.15069
7040.83907,0.23044
7042.76754,0.15097
7044.69601,0.04627
7046.62448,0.09627
7048.55295,0.10242
7050.48142,0.01122
7052.40989,-0.00285
7054.33836,0.01421
7056.26682,-0.03905
7058.19529,-0.11969
7060.12376,-0.15098
7062.05223,-0.09467
7063.98070,0.04291
7065.90917,0.16397
7067.83764,0.14668
7069.76610,0.01239
7071.69457,-0.00098
7073.62304,0.10192
7075.55151,0.16784
7077.47998,0.16733
7079.40845,0.06954
7081.33692,0.00961
7083.26539,0.07925
7085.19385,0.10294
7087.12232,0.08907
7089.05079,0.10650
7090.97926,0.09169
7092.90773,0.04279
7094.83620,0.00962
7096.76467,-0.00698
7098.69313,0.03444
7100.62160,0.07374
7102.55007,0.01677
7104.47854,-0.05198
7106.40701,-0.05567
7108.33548,-0.04275
7110.26395,0.00522
7112.19242,0.07302
7114.12088,0.03415
7116.04935,-0.05871
7117.97782,-0.07284
7119.90629,-0.03306
7121.83476,0.03627
7123.76323,0.10290
7125.69170,0.12975
7127.62016,0.13548
7129.54863,0.11892
7131.47710,0.11487
7133.40557,0.13570
7135.33404,0.09598
7137.26251,-0.02365
7139.19098,-0.15176
7141.11944,-0.19821
7143.04791,-0.10054
7144.97638,0.05266
7146.90485,0.09814
7148.83332,0.08527
7150.76179,0.09154
7152.69026,0.11642
7154.61873,0.15938
7156.54719,0.16120
7158.47566,0.10275
7160.40413,0.05707
7162.33260,0.08206
7164.26107,0.08941
7166.18954,0.00190
7168.11801,-0.04849
7170.04647,0.02409
7171.97494,0.13046
7173.90341,0.23223
7175.83188,0.28716
7177.76035,0.23600
7179.68882,0.19132
7181.61729,0.27005
7183.54576,0.31977
7185.47422,0.15950
7187.40269,0.00084
7189.33116,0.05082
7191.25963,0.25489
7193.18810,0.35493
7195.11657,0.29536
7197.04504,0.15790
7198.97350,0.05703
7200.90197,0.06952
7202.83044,0.15182
7204.75891,0.18589
7206.68738,0.04180
7208.61585,-0.06265
7210.54432,-0.01475
7212.47279,0.02485
7214.40125,0.00489
7216.32972,0.03135
7218.25819,0.12527
7220.18666,0.13858
7222.11513,0.08391
7224.04360,0.12183
7225.97207,0.27855
7227.90053,0.32795
7229.82900,0.21179
7231.75747,0.06175
7233.68594,-0.00804
7235.61441,0.02328
7237.54288,0.04864
7239.47135,0.00741
7241.39982,-0.04652
7243.32828,-0.12268
7245.25675,-0.14948
7247.18522,-0.00946
7249.11369,0.21307
7251.04216,0.25011
7252.97063,0.01827
7254.89910,-0.09671
7256.82756,-0.05436
7258.75603,-0.07766
7260.68450,-0.14800
7262.61297,-0.10500
7264.54144,0.00472
7266.46991,0.12235
7268.39838,0.19970
7270.32685,0.14492
7272.25531,0.06962
7274.18378,0.10688
7276.11225,0.19567
7278.04072,0.27234
7279.96919,0.21148
7281.89766,0.12853
7283.82613,0.18139
7285.75459,0.19883
7287.68306,0.05709
7289.61153,-0.11255
7291.54000,-0.12655
7293.46847,-0.05242
7295.39694,-0.04499
7297.32541,-0.05892
7299.25387,-0.03358
7301.18234,-0.03713
7303.11081,-0.04836
7305.03928,0.06149
7306.96775,0.26624
7308.89622,0.35436
7310.82469,0.20686
7312.75316,-0.03010
7314.68162,-0.25470
7316.61009,-0.23829
7318.53856,0.11072
7320.46703,0.36088
7322.39550,0.37699
7324.32397,0.39562
7326.25244,0.46446
7328.18090,0.37384
7330.10937,0.12153
7332.03784,0.01908
7333.96631,0.07058
7335.89478,0.14722
7337.82325,0.26156
7339.75172,0.31674
7341.68019,0.13336
7343.60865,0.01813
7345.53712,0.02885
7347.46559,-0.01038
7349.39406,0.01007
7351.32253,0.13034
7353.25100,0.18181
7355.17947,0.13944
7357.10793,0.02156
7359.03640,-0.03127
7360.96487,0.04863
7362.89334,0.06963
7364.82181,0.07846
7366.75028,0.02529
7368.67875,-0.03542
7370.60722,0.12573
7372.53568,0.30557
7374.46415,0.24656
7376.39262,-0.00565
7378.32109,-0.21640
7380.24956,-0.30105
7382.17803,-0.19030
7384.10650,-0.00690
7386.03496,0.02815
7387.96343,-0.00814
7389.89190,0.09501
7391.82037,0.23394
7393.74884,0.23837
7395.67731,0.14244
7397.60578,0.04440
7399.53425,0.03088
7401.46271,0.12996
7403.39118,0.17838
7405.31965,0.07671
7407.24812,0.01221
7409.17659,0.02126
7411.10506,0.03723
7413.03353,0.08465
7414.96199,0.16899
7416.89046,0.18240
7418.81893,0.04408
7420.74740,-0.01087
7422.67587,0.03688
7424.60434,-0.01122
7426.53281,-0.07914
7428.46128,-0.03256
7430.38974,0.02847
7432.31821,-0.08770
7434.24668,-0.17293
7436.17515,-0.05919
7438.10362,0.09100
7440.03209,0.15223
7441.96056,0.09608
7443.88902,0.02281
7445.81749,0.08502
7447.74596,0.17716
7449.67443,0.17965
7451.60290,0.07368
7453.53137,-0.08427
7455.45984,-0.09349
7457.38831,0.06655
7459.31677,0.29705
7461.24524,0.40892
7463.17371,0.29883
7465.10218,0.12141
7467.03065,-0.01986
7468.95912,-0.06164
7470.88759,0.09470
7472.81605,0.23876
7474.74452,0.13856
7476.67299,-0.06887
7478.60146,-0.10299
7480.52993,0.11524
7482.45840,0.24362
7484.38687,0.21833
7486.31533,0.16453
7488.24380,0.10826
7490.17227,0.17960
7492.10074,0.23147
7494.02921,0.15845
7495.95768,0.10719
7497.88615,0.07553
