399.19301,2.22571
401.12148,0.43889
403.04995,0.41049
404.97842,0.40281
406.90689,0.24432
408.83536,-0.02812
410.76382,-0.26869
412.69229,-0.27162
414.62076,-0.13975
416.54923,-0.06360
418.47770,-0.07904
420.40617,-0.08871
422.33464,-0.00446
424.26311,0.05415
426.19157,0.02134
428.12004,-0.06594
430.04851,-0.14268
431.97698,-0.10857
433.90545,-0.00123
435.83392,0.07313
437.76239,0.12548
439.69085,0.14400
441.61932,0.11560
443.54779,0.05675
445.47626,0.02256
447.40473,0.09282
449.33320,0.22376
451.26167,0.24620
453.19013,0.15178
455.11860,0.07901
457.04707,0.08653
458.97554,0.07171
460.90401,0.01632
462.83248,0.05060
464.76095,0.15189
466.68942,0.16679
468.61788,0.11649
470.54635,0.11832
472.47482,0.17969
474.40329,0.17678
476.33176,0.11361
478.26023,0.10481
480.18870,0.13646
482.11716,0.16984
484.04563,0.15709
485.97410,0.10311
487.90257,0.08339
489.83104,0.09893
491.75951,0.09286
493.68798,0.10902
495.61645,0.14402
497.54491,0.12688
499.47338,0.11683
501.40185,0.12563
503.33032,0.07845
505.25879,0.03206
507.18726,0.05584
509.11573,0.10039
511.04419,0.11729
512.97266,0.11173
514.90113,0.09515
516.82960,0.07739
518.75807,0.04972
520.68654,0.02104
522.61501,0.01675
524.54348,0.03884
526.47194,0.08161
528.40041,0.14381
530.32888,0.17753
532.25735,0.13664
534.18582,0.10001
536.11429,0.12568
538.04276,0.13779
539.97122,0.11993
541.89969,0.11673
543.82816,0.13252
545.75663,0.14871
547.68510,0.13836
549.61357,0.09528
551.54204,0.02099
553.47051,-0.04083
555.39897,-0.00457
557.32744,0.07898
559.25591,0.10921
561.18438,0.11349
563.11285,0.11824
565.04132,0.12535
566.96979,0.15585
568.89825,0.19257
570.82672,0.19448
572.75519,0.15626
574.68366,0.10188
576.61213,0.05882
578.54060,0.05099
580.46907,0.09029
582.39754,0.14702
584.32600,0.15802
586.25447,0.11513
588.18294,0.07811
590.11141,0.08258
592.03988,0.10515
593.96835,0.11083
595.89682,0.09609
597.82528,0.08067
599.75375,0.08344
601.68222,0.11355
603.61069,0.14666
605.53916,0.14395
607.46763,0.11242
609.39610,0.08016
611.32456,0.05966
613.25303,0.05707
615.18150,0.07624
617.10997,0.10348
619.03844,0.11010
620.96691,0.10110
622.89538,0.11063
624.82385,0.13765
626.75231,0.14390
628.68078,0.12600
630.60925,0.12365
632.53772,0.13716
634.46619,0.13381
636.39466,0.11643
638.32313,0.11168
640.25159,0.12561
642.18006,0.13835
644.10853,0.13187
646.03700,0.11057
647.96547,0.08859
649.89394,0.07398
651.82241,0.07504
653.75088,0.09224
655.67934,0.11068
657.60781,0.12432
659.53628,0.13988
661.46475,0.15231
663.39322,0.15610
665.32169,0.15543
667.25016,0.14575
669.17862,0.13102
671.10709,0.14102
673.03556,0.15981
674.96403,0.16535
676.89250,0.15728
678.82097,0.14512
680.74944,0.12783
682.67791,0.11370
684.60637,0.11747
686.53484,0.13331
688.46331,0.14265
690.39178,0.14280
692.32025,0.13464
694.24872,0.11931
696.17719,0.11079
698.10565,0.11618
700.03412,0.12657
701.96259,0.12779
703.89106,0.12558
705.81953,0.13301
707.74800,0.13590
709.67647,0.13449
711.60494,0.15075
713.53340,0.17066
715.46187,0.16600
717.39034,0.15078
719.31881,0.14691
721.24728,0.15063
723.17575,0.15223
725.10422,0.14821
727.03268,0.14462
728.96115,0.14386
730.88962,0.14200
732.81809,0.13599
734.74656,0.12370
736.67503,0.11338
738.60350,0.11147
740.53197,0.11955
742.46043,0.13257
744.38890,0.13300
746.31737,0.12319
748.24584,0.12256
750.17431,0.12868
752.10278,0.12891
754.03125,0.12767
755.95971,0.13281
757.88818,0.13912
759.81665,0.14582
761.74512,0.15164
763.67359,0.14648
765.60206,0.13260
767.53053,0.11903
769.45900,0.11347
771.38746,0.11634
773.31593,0.11923
775.24440,0.12405
777.17287,0.12858
779.10134,0.12363
781.02981,0.11278
782.95828,0.10459
784.88674,0.10971
786.81521,0.12626
788.74368,0.13747
790.67215,0.14731
792.60062,0.15944
794.52909,0.15838
796.45756,0.14737
798.38602,0.13912
800.31449,0.13763
802.24296,0.13770
804.17143,0.13125
806.09990,0.12754
808.02837,0.13118
809.95684,0.13635
811.88531,0.14002
813.81377,0.14074
815.74224,0.14364
817.67071,0.14404
819.59918,0.12977
821.52765,0.11449
823.45612,0.11641
825.38459,0.12391
827.31305,0.12502
829.24152,0.13211
831.16999,0.15208
833.09846,0.16473
835.02693,0.15692
836.95540,0.14482
838.88387,0.13718
840.81234,0.13408
842.74080,0.13772
844.66927,0.14152
846.59774,0.13759
848.52621,0.12891
850.45468,0.12718
852.38315,0.13334
854.31162,0.13915
856.24008,0.14347
858.16855,0.14913
860.09702,0.15226
862.02549,0.14760
863.95396,0.14405
865.88243,0.14874
867.81090,0.15990
869.73937,0.17602
871.66783,0.18290
873.59630,0.16842
875.52477,0.15010
877.45324,0.14611
879.38171,0.14694
881.31018,0.14680
883.23865,0.15122
885.16711,0.15543
887.09558,0.15749
889.02405,0.15925
890.95252,0.15393
892.88099,0.14560
894.80946,0.14514
896.73793,0.14653
898.66640,0.14273
900.59486,0.14069
902.52333,0.14359
904.45180,0.14305
906.38027,0.13812
908.30874,0.13724
910.23721,0.14346
912.16568,0.15021
914.09414,0.14878
916.02261,0.14213
917.95108,0.13829
919.87955,0.13832
921.80802,0.14019
923.73649,0.14388
925.66496,0.14822
927.59343,0.15112
929.52189,0.15354
931.45036,0.15421
933.37883,0.15286
935.30730,0.15506
937.23577,0.15931
939.16424,0.15517
941.09271,0.14580
943.02117,0.14329
944.94964,0.14550
946.87811,0.14596
948.80658,0.14527
950.73505,0.14484
952.66352,0.14296
954.59199,0.14145
956.52045,0.14297
958.44892,0.14471
960.37739,0.14359
962.30586,0.14109
964.23433,0.14557
966.16280,0.15389
968.09127,0.15439
970.01974,0.14753
971.94820,0.13725
973.87667,0.12980
975.80514,0.13363
977.73361,0.14237
979.66208,0.14047
981.59055,0.13279
983.51902,0.13469
985.44748,0.14570
987.37595,0.15527
989.30442,0.15389
991.23289,0.14635
993.16136,0.14619
995.08983,0.15096
997.01830,0.15026
998.94677,0.14825
1000.87523,0.14885
1002.80370,0.14937
1004.73217,0.15036
1006.66064,0.14990
1008.58911,0.15000
1010.51758,0.15355
1012.44605,0.15861
1014.37451,0.16425
1016.30298,0.16578
1018.23145,0.15861
1020.15992,0.15104
1022.08839,0.15506
1024.01686,0.16215
1025.94533,0.15777
1027.87380,0.14578
1029.80226,0.13840
1031.73073,0.14366
1033.65920,0.15711
1035.58767,0.16308
1037.51614,0.15620
1039.44461,0.15063
1041.37308,0.15642
1043.30154,0.16523
1045.23001,0.16308
1047.15848,0.15234
1049.08695,0.14577
1051.01542,0.14497
1052.94389,0.14469
1054.87236,0.14276
1056.80083,0.14518
1058.72929,0.15760
1060.65776,0.17399
1062.58623,0.18218
1064.51470,0.17576
1066.44317,0.16561
1068.37164,0.16565
1070.30011,0.17281
1072.22857,0.17464
1074.15704,0.16602
1076.08551,0.15324
1078.01398,0.14461
1079.94245,0.14023
1081.87092,0.13623
1083.79939,0.13813
1085.72786,0.15191
1087.65632,0.16649
1089.58479,0.16718
1091.51326,0.15882
1093.44173,0.15540
1095.37020,0.15675
1097.29867,0.15921
1099.22714,0.16600
1101.15560,0.17006
1103.08407,0.16521
1105.01254,0.15901
1106.94101,0.15618
1108.86948,0.15945
1110.79795,0.16669
1112.72642,0.17067
1114.65489,0.17350
1116.58335,0.17427
1118.51182,0.16589
1120.44029,0.15786
1122.36876,0.16284
1124.29723,0.17180
1126.22570,0.16912
1128.15417,0.15642
1130.08263,0.14959
1132.01110,0.15605
1133.93957,0.16835
1135.86804,0.17403
1137.79651,0.16714
1139.72498,0.15497
1141.65345,0.14925
1143.58191,0.15137
1145.51038,0.15152
1147.43885,0.14974
1149.36732,0.15432
1151.29579,0.16174
1153.22426,0.16311
1155.15273,0.15750
1157.08120,0.15536
1159.00966,0.16221
1160.93813,0.16892
1162.86660,0.16984
1164.79507,0.16738
1166.72354,0.16339
1168.65201,0.16139
1170.58048,0.16313
1172.50894,0.16354
1174.43741,0.16114
1176.36588,0.16178
1178.29435,0.16753
1180.22282,0.17103
1182.15129,0.16722
1184.07976,0.16238
1186.00823,0.16068
1187.93669,0.15947
1189.86516,0.16238
1191.79363,0.17239
1193.72210,0.17778
1195.65057,0.17329
1197.57904,0.17100
1199.50751,0.17467
1201.43597,0.17640
1203.36444,0.17370
1205.29291,0.17006
1207.22138,0.16716
1209.14985,0.16384
1211.07832,0.16163
1213.00679,0.16373
1214.93526,0.16741
1216.86372,0.16744
1218.79219,0.16690
1220.72066,0.17031
1222.64913,0.17449
1224.57760,0.17467
1226.50607,0.16937
1228.43454,0.16314
1230.36300,0.16268
1232.29147,0.16761
1234.21994,0.17138
1236.14841,0.17133
1238.07688,0.17136
1240.00535,0.17138
1241.93382,0.16912
1243.86229,0.16934
1245.79075,0.17113
1247.71922,0.16873
1249.64769,0.16584
1251.57616,0.16310
1253.50463,0.15764
1255.43310,0.15542
1257.36157,0.15955
1259.29003,0.16449
1261.21850,0.16592
1263.14697,0.16568
1265.07544,0.16533
1267.00391,0.16260
1268.93238,0.16094
1270.86085,0.16578
1272.78932,0.17157
1274.71778,0.17068
1276.64625,0.16594
1278.57472,0.16492
1280.50319,0.16648
1282.43166,0.16539
1284.36013,0.16573
1286.28860,0.16931
1288.21706,0.17115
1290.14553,0.17037
1292.07400,0.16911
1294.00247,0.16972
1295.93094,0.17087
1297.85941,0.17017
1299.78788,0.16758
1301.71634,0.15994
1303.64481,0.14873
1305.57328,0.14881
1307.50175,0.16440
1309.43022,0.17587
1311.35869,0.17428
1313.28716,0.17037
1315.21563,0.16826
1317.14409,0.16632
1319.07256,0.16670
1321.00103,0.17076
1322.92950,0.17461
1324.85797,0.17308
1326.78644,0.16949
1328.71491,0.16932
1330.64337,0.17010
1332.57184,0.17078
1334.50031,0.17165
1336.42878,0.17024
1338.35725,0.17022
1340.28572,0.17125
1342.21419,0.16594
1344.14266,0.16014
1346.07112,0.15847
1347.99959,0.15965
1349.92806,0.16442
1351.85653,0.16723
1353.78500,0.16471
1355.71347,0.16211
1357.64194,0.16414
1359.57040,0.17149
1361.49887,0.18033
1363.42734,0.18407
1365.35581,0.18201
1367.28428,0.18091
1369.21275,0.18135
1371.14122,0.18035
1373.06969,0.17876
1374.99815,0.17453
1376.92662,0.16943
1378.85509,0.16860
1380.78356,0.16862
1382.71203,0.16783
1384.64050,0.17043
1386.56897,0.17511
1388.49743,0.17572
1390.42590,0.17604
1392.35437,0.18377
1394.28284,0.19587
1396.21131,0.20200
1398.13978,0.19996
1400.06825,0.19313
1401.99672,0.18698
1403.92518,0.18306
1405.85365,0.17846
1407.78212,0.17507
1409.71059,0.17634
1411.63906,0.18067
1413.56753,0.18496
1415.49600,0.18986
1417.42446,0.19502
1419.35293,0.19694
1421.28140,0.19640
1423.20987,0.19443
1425.13834,0.19009
1427.06681,0.18772
1428.99528,0.18889
1430.92375,0.18908
1432.85221,0.18826
1434.78068,0.19066
1436.70915,0.18978
1438.63762,0.17992
1440.56609,0.17640
1442.49456,0.18208
1444.42303,0.18772
1446.35149,0.18716
1448.27996,0.18080
1450.20843,0.17661
1452.13690,0.18046
1454.06537,0.19213
1455.99384,0.21282
1457.92231,0.22460
1459.85077,0.21151
1461.77924,0.20417
1463.70771,0.20602
1465.63618,0.20315
1467.56465,0.19785
1469.49312,0.20047
1471.42159,0.20801
1473.35006,0.21169
1475.27852,0.20625
1477.20699,0.19780
1479.13546,0.19309
1481.06393,0.19234
1482.99240,0.19164
1484.92087,0.19129
1486.84934,0.19569
1488.77780,0.20572
1490.70627,0.20626
1492.63474,0.19891
1494.56321,0.20170
1496.49168,0.21261
1498.42015,0.21250
1500.34862,0.20202
1502.27709,0.19853
1504.20555,0.20872
1506.13402,0.22940
1508.06249,0.22703
1509.99096,0.20811
1511.91943,0.19942
1513.84790,0.20126
1515.77637,0.21006
1517.70483,0.21798
1519.63330,0.22597
1521.56177,0.23521
1523.49024,0.22651
1525.41871,0.20880
1527.34718,0.19751
1529.27565,0.19233
1531.20412,0.19380
1533.13258,0.20109
1535.06105,0.20278
1536.98952,0.20591
1538.91799,0.22757
1540.84646,0.25275
1542.77493,0.24278
1544.70340,0.22090
1546.63186,0.20143
1548.56033,0.19279
1550.48880,0.19477
1552.41727,0.20090
1554.34574,0.20919
1556.27421,0.22187
1558.20268,0.23689
1560.13115,0.22245
1562.05961,0.20452
1563.98808,0.20141
1565.91655,0.20231
1567.84502,0.20164
1569.77349,0.19593
1571.70196,0.18688
1573.63043,0.18648
1575.55889,0.19657
1577.48736,0.20237
1579.41583,0.19668
1581.34430,0.18889
1583.27277,0.18315
1585.20124,0.17988
1587.12971,0.17796
1589.05818,0.17891
1590.98664,0.18148
1592.91511,0.18211
1594.84358,0.18145
1596.77205,0.18006
1598.70052,0.17921
1600.62899,0.18037
1602.55746,0.18168
1604.48592,0.18252
1606.41439,0.18306
1608.34286,0.18176
1610.27133,0.18005
1612.19980,0.18236
1614.12827,0.19219
1616.05674,0.20640
1617.98521,0.20531
1619.91367,0.19703
1621.84214,0.20028
1623.77061,0.20714
1625.69908,0.20573
1627.62755,0.20026
1629.55602,0.19469
1631.48449,0.19378
1633.41295,0.20342
1635.34142,0.22362
1637.26989,0.22543
1639.19836,0.21066
1641.12683,0.20285
1643.05530,0.20578
1644.98377,0.21949
1646.91223,0.23461
1648.84070,0.23104
1650.76917,0.22540
1652.69764,0.22602
1654.62611,0.21573
1656.55458,0.20416
1658.48305,0.20006
1660.41152,0.20425
1662.33998,0.21167
1664.26845,0.20901
1666.19692,0.20359
1668.12539,0.20691
1670.05386,0.21316
1671.98233,0.21201
1673.91080,0.20941
1675.83926,0.20563
1677.76773,0.20141
1679.69620,0.20236
1681.62467,0.21005
1683.55314,0.22035
1685.48161,0.21910
1687.41008,0.21492
1689.33855,0.21427
1691.26701,0.21152
1693.19548,0.21108
1695.12395,0.21914
1697.05242,0.23027
1698.98089,0.23577
1700.90936,0.23286
1702.83783,0.22702
1704.76629,0.22140
1706.69476,0.20853
1708.62323,0.19530
1710.55170,0.19129
1712.48017,0.19635
1714.40864,0.20809
1716.33711,0.21872
1718.26558,0.21188
1720.19404,0.19769
1722.12251,0.19090
1724.05098,0.18763
1725.97945,0.18515
1727.90792,0.18701
1729.83639,0.19362
1731.76486,0.20012
1733.69332,0.20138
1735.62179,0.19633
1737.55026,0.19268
1739.47873,0.19407
1741.40720,0.19908
1743.33567,0.20287
1745.26414,0.20666
1747.19261,0.21141
1749.12107,0.21169
1751.04954,0.20472
1752.97801,0.19731
1754.90648,0.19362
1756.83495,0.19250
1758.76342,0.19309
1760.69189,0.19475
1762.62035,0.19301
1764.54882,0.18934
1766.47729,0.18997
1768.40576,0.19536
1770.33423,0.20699
1772.26270,0.21838
1774.19117,0.21189
1776.11964,0.19991
1778.04810,0.19690
1779.97657,0.19803
1781.90504,0.19574
1783.83351,0.19354
1785.76198,0.19297
1787.69045,0.19268
1789.61892,0.19544
1791.54738,0.20080
1793.47585,0.20346
1795.40432,0.20314
1797.33279,0.20262
1799.26126,0.20333
1801.18973,0.20178
1803.11820,0.19472
1805.04666,0.18965
1806.97513,0.19117
1808.90360,0.19626
1810.83207,0.19824
1812.76054,0.19335
1814.68901,0.18802
1816.61748,0.18669
1818.54595,0.18046
1820.47441,0.16973
1822.40288,0.17704
1824.33135,0.19701
1826.25982,0.20178
1828.18829,0.20103
1830.11676,0.20236
1832.04523,0.19590
1833.97369,0.18911
1835.90216,0.18766
1837.83063,0.18966
1839.75910,0.19363
1841.68757,0.19836
1843.61604,0.19948
1845.54451,0.19693
1847.47298,0.19584
1849.40144,0.19397
1851.32991,0.19086
1853.25838,0.19042
1855.18685,0.19188
1857.11532,0.19068
1859.04379,0.18751
1860.97226,0.18734
1862.90072,0.19015
1864.82919,0.19435
1866.75766,0.20065
1868.68613,0.20248
1870.61460,0.19575
1872.54307,0.19022
1874.47154,0.18961
1876.40001,0.19153
1878.32847,0.19256
1880.25694,0.19192
1882.18541,0.19088
1884.11388,0.18901
1886.04235,0.18689
1887.97082,0.18740
1889.89929,0.18941
1891.82775,0.18932
1893.75622,0.18922
1895.68469,0.19052
1897.61316,0.19045
1899.54163,0.18862
1901.47010,0.18725
1903.39857,0.18729
1905.32704,0.18848
1907.25550,0.18938
1909.18397,0.18891
1911.11244,0.18794
1913.04091,0.18759
1914.96938,0.19028
1916.89785,0.19629
1918.82632,0.19998
1920.75478,0.19977
1922.68325,0.19682
1924.61172,0.19073
1926.54019,0.18570
1928.46866,0.18362
1930.39713,0.18510
1932.32560,0.18979
1934.25407,0.19230
1936.18253,0.19124
1938.11100,0.19039
1940.03947,0.19221
1941.96794,0.19597
1943.89641,0.19681
1945.82488,0.19269
1947.75335,0.18762
1949.68181,0.18503
1951.61028,0.18569
1953.53875,0.18798
1955.46722,0.18934
1957.39569,0.18898
1959.32416,0.18756
1961.25263,0.18536
1963.18110,0.18344
1965.10956,0.18418
1967.03803,0.18621
1968.96650,0.18626
1970.89497,0.18650
1972.82344,0.18809
1974.75191,0.18887
1976.68038,0.18956
1978.60884,0.19197
1980.53731,0.19290
1982.46578,0.19044
1984.39425,0.18946
1986.32272,0.19105
1988.25119,0.19140
1990.17966,0.19007
1992.10812,0.18921
1994.03659,0.18900
1995.96506,0.18850
1997.89353,0.18756
1999.82200,0.18590
2001.75047,0.18519
2003.67894,0.18829
2005.60741,0.19307
2007.53587,0.19380
2009.46434,0.19106
2011.39281,0.19026
2013.32128,0.19228
2015.24975,0.19355
2017.17822,0.19123
2019.10669,0.18753
2021.03515,0.18658
2022.96362,0.18773
2024.89209,0.18798
2026.82056,0.18684
2028.74903,0.18707
2030.67750,0.19031
2032.60597,0.19293
2034.53444,0.19188
2036.46290,0.19018
2038.39137,0.19054
2040.31984,0.19134
2042.24831,0.19042
2044.17678,0.18966
2046.10525,0.19091
2048.03372,0.19126
2049.96218,0.18964
2051.89065,0.18780
2053.81912,0.18682
2055.74759,0.18741
2057.67606,0.18858
2059.60453,0.18942
2061.53300,0.19031
2063.46147,0.19137
2065.38993,0.19192
2067.31840,0.19133
2069.24687,0.18955
2071.17534,0.18722
2073.10381,0.18756
2075.03228,0.19126
2076.96075,0.19298
2078.88921,0.19081
2080.81768,0.18790
2082.74615,0.18576
2084.67462,0.18462
2086.60309,0.18516
2088.53156,0.18795
2090.46003,0.19120
2092.38850,0.19161
2094.31696,0.18967
2096.24543,0.18873
2098.17390,0.18967
2100.10237,0.19055
2102.03084,0.19109
2103.95931,0.19182
2105.88778,0.19132
2107.81624,0.19022
2109.74471,0.18999
2111.67318,0.18985
2113.60165,0.18929
2115.53012,0.18887
2117.45859,0.18866
2119.38706,0.18724
2121.31553,0.18419
2123.24399,0.18279
2125.17246,0.18679
2127.10093,0.19264
2129.02940,0.19280
2130.95787,0.18864
2132.88634,0.18766
2134.81481,0.19107
2136.74327,0.19355
2138.67174,0.19234
2140.60021,0.18978
2142.52868,0.18957
2144.45715,0.19202
2146.38562,0.19168
2148.31409,0.18731
2150.24255,0.18526
2152.17102,0.18647
2154.09949,0.18680
2156.02796,0.18700
2157.95643,0.18906
2159.88490,0.19186
2161.81337,0.19414
2163.74184,0.19359
2165.67030,0.19060
2167.59877,0.18908
2169.52724,0.18843
2171.45571,0.18737
2173.38418,0.18763
2175.31265,0.18973
2177.24112,0.19215
2179.16958,0.19260
2181.09805,0.19283
2183.02652,0.19447
2184.95499,0.19415
2186.88346,0.19263
2188.81193,0.19367
2190.74040,0.19523
2192.66887,0.19430
2194.59733,0.19200
2196.52580,0.18967
2198.45427,0.18747
2200.38274,0.18573
2202.31121,0.18583
2204.23968,0.18838
2206.16815,0.19045
2208.09661,0.18870
2210.02508,0.18427
2211.95355,0.18256
2213.88202,0.18422
2215.81049,0.18489
2217.73896,0.18459
2219.66743,0.18411
2221.59590,0.18334
2223.52436,0.18394
2225.45283,0.18615
2227.38130,0.18868
2229.30977,0.19156
2231.23824,0.19492
2233.16671,0.19650
2235.09518,0.19472
2237.02364,0.19209
2238.95211,0.19235
2240.88058,0.19401
2242.80905,0.19441
2244.73752,0.19371
2246.66599,0.19138
2248.59446,0.18939
2250.52293,0.19016
2252.45139,0.19272
2254.37986,0.19481
2256.30833,0.19514
2258.23680,0.19526
2260.16527,0.19487
2262.09374,0.19205
2264.02221,0.19044
2265.95067,0.19085
2267.87914,0.18889
2269.80761,0.18874
2271.73608,0.19333
2273.66455,0.19565
2275.59302,0.19582
2277.52149,0.19738
2279.44996,0.19710
2281.37842,0.19429
2283.30689,0.19162
2285.23536,0.19120
2287.16383,0.19386
2289.09230,0.19642
2291.02077,0.19472
2292.94924,0.18942
2294.87770,0.18614
2296.80617,0.18755
2298.73464,0.19143
2300.66311,0.19635
2302.59158,0.19959
2304.52005,0.19907
2306.44852,0.19715
2308.37699,0.19728
2310.30545,0.20179
2312.23392,0.20980
2314.16239,0.21577
2316.09086,0.21290
2318.01933,0.20315
2319.94780,0.19826
2321.87627,0.20084
2323.80473,0.20089
2325.73320,0.19715
2327.66167,0.19797
2329.59014,0.20508
2331.51861,0.20890
2333.44708,0.20894
2335.37555,0.21806
2337.30401,0.22728
2339.23248,0.21810
2341.16095,0.20104
2343.08942,0.19288
2345.01789,0.19631
2346.94636,0.20191
2348.87483,0.20055
2350.80330,0.19854
2352.73176,0.20610
2354.66023,0.21688
2356.58870,0.21842
2358.51717,0.22811
2360.44564,0.24763
2362.37411,0.23697
2364.30258,0.20007
2366.23104,0.18202
2368.15951,0.18828
2370.08798,0.19719
2372.01645,0.19970
2373.94492,0.19994
2375.87339,0.19918
2377.80186,0.19759
2379.73033,0.19851
2381.65879,0.19899
2383.58726,0.19596
2385.51573,0.19273
2387.44420,0.19161
2389.37267,0.19218
2391.30114,0.19202
2393.22961,0.18982
2395.15807,0.18901
2397.08654,0.19102
2399.01501,0.19202
2400.94348,0.18994
2402.87195,0.18822
2404.80042,0.18982
2406.72889,0.19335
2408.65736,0.19675
2410.58582,0.19866
2412.51429,0.19797
2414.44276,0.19480
2416.37123,0.19084
2418.29970,0.18921
2420.22817,0.19076
2422.15664,0.19128
2424.08510,0.18945
2426.01357,0.18927
2427.94204,0.19111
2429.87051,0.19198
2431.79898,0.19082
2433.72745,0.18957
2435.65592,0.19060
2437.58439,0.19354
2439.51285,0.19420
2441.44132,0.19039
2443.36979,0.18661
2445.29826,0.18562
2447.22673,0.18669
2449.15520,0.18925
2451.08367,0.18856
2453.01213,0.18298
2454.94060,0.18067
2456.86907,0.18573
2458.79754,0.19197
2460.72601,0.19294
2462.65448,0.18890
2464.58295,0.18579
2466.51142,0.18641
2468.43988,0.18774
2470.36835,0.18911
2472.29682,0.19351
2474.22529,0.19948
2476.15376,0.20138
2478.08223,0.19840
2480.01070,0.19464
2481.93916,0.19258
2483.86763,0.19152
2485.79610,0.19035
2487.72457,0.18943
2489.65304,0.18873
2491.58151,0.18757
2493.50998,0.18878
2495.43844,0.19373
2497.36691,0.19704
2499.29538,0.19640
2501.22385,0.19462
2503.15232,0.19284
2505.08079,0.19177
2507.00926,0.19191
2508.93773,0.19223
2510.86619,0.19264
2512.79466,0.19419
2514.72313,0.19630
2516.65160,0.19729
2518.58007,0.19514
2520.50854,0.19020
2522.43701,0.18699
2524.36547,0.18774
2526.29394,0.18981
2528.22241,0.19187
2530.15088,0.19364
2532.07935,0.19365
2534.00782,0.19308
2535.93629,0.19301
2537.86476,0.19271
2539.79322,0.19194
2541.72169,0.19083
2543.65016,0.19089
2545.57863,0.19219
2547.50710,0.19417
2549.43557,0.19634
2551.36404,0.19588
2553.29250,0.19299
2555.22097,0.19251
2557.14944,0.19641
2559.07791,0.19967
2561.00638,0.19687
2562.93485,0.19206
2564.86332,0.19228
2566.79179,0.19464
2568.72025,0.19510
2570.64872,0.19585
2572.57719,0.19634
2574.50566,0.19517
2576.43413,0.19407
2578.36260,0.19410
2580.29107,0.19571
2582.21953,0.19832
2584.14800,0.20010
2586.07647,0.19979
2588.00494,0.19819
2589.93341,0.19760
2591.86188,0.19775
2593.79035,0.19750
2595.71882,0.19744
2597.64728,0.19558
2599.57575,0.19137
2601.50422,0.18869
2603.43269,0.19030
2605.36116,0.19480
2607.28963,0.19759
2609.21810,0.19747
2611.14656,0.19671
2613.07503,0.19541
2615.00350,0.19301
2616.93197,0.19192
2618.86044,0.19499
2620.78891,0.19967
2622.71738,0.20220
2624.64585,0.20380
2626.57431,0.20451
2628.50278,0.20209
2630.43125,0.19957
2632.35972,0.20002
2634.28819,0.20037
2636.21666,0.19949
2638.14513,0.19906
2640.07359,0.19777
2642.00206,0.19386
2643.93053,0.18974
2645.85900,0.18896
2647.78747,0.18999
2649.71594,0.19013
2651.64441,0.19107
2653.57288,0.19443
2655.50134,0.19664
2657.42981,0.19423
2659.35828,0.19194
2661.28675,0.19523
2663.21522,0.20073
2665.14369,0.20278
2667.07216,0.20165
2669.00062,0.20085
2670.92909,0.20026
2672.85756,0.19872
2674.78603,0.19788
2676.71450,0.19924
2678.64297,0.20295
2680.57144,0.20582
2682.49990,0.20443
2684.42837,0.20022
2686.35684,0.19631
2688.28531,0.19353
2690.21378,0.19369
2692.14225,0.19786
2694.07072,0.20136
2695.99919,0.20165
2697.92765,0.19972
2699.85612,0.19663
2701.78459,0.19504
2703.71306,0.19589
2705.64153,0.19835
2707.57000,0.20015
2709.49847,0.19969
2711.42693,0.19815
2713.35540,0.19778
2715.28387,0.19962
2717.21234,0.20087
2719.14081,0.20028
2721.06928,0.20048
2722.99775,0.20199
2724.92622,0.20247
2726.85468,0.20166
2728.78315,0.20253
2730.71162,0.20402
2732.64009,0.20298
2734.56856,0.20184
2736.49703,0.20079
2738.42550,0.19720
2740.35396,0.19540
2742.28243,0.19863
2744.21090,0.20331
2746.13937,0.20664
2748.06784,0.20727
2749.99631,0.20431
2751.92478,0.20125
2753.85325,0.20157
2755.78171,0.20138
2757.71018,0.19870
2759.63865,0.19794
2761.56712,0.20181
2763.49559,0.20881
2765.42406,0.21261
2767.35253,0.20919
2769.28099,0.20307
2771.20946,0.20174
2773.13793,0.20601
2775.06640,0.20822
2776.99487,0.20537
2778.92334,0.20200
2780.85181,0.20099
2782.78028,0.20327
2784.70874,0.20639
2786.63721,0.20540
2788.56568,0.20263
2790.49415,0.20205
2792.42262,0.20160
2794.35109,0.20198
2796.27956,0.20409
2798.20802,0.20540
2800.13649,0.20692
2802.06496,0.20873
2803.99343,0.20797
2805.92190,0.20591
2807.85037,0.20544
2809.77884,0.20607
2811.70731,0.20614
2813.63577,0.20508
2815.56424,0.20507
2817.49271,0.20855
2819.42118,0.21148
2821.34965,0.20809
2823.27812,0.20294
2825.20659,0.20306
2827.13505,0.20566
2829.06352,0.20682
2830.99199,0.20777
2832.92046,0.20950
2834.84893,0.20927
2836.77740,0.20620
2838.70587,0.20529
2840.63433,0.20510
2842.56280,0.20093
2844.49127,0.19795
2846.41974,0.20008
2848.34821,0.20310
2850.27668,0.20470
2852.20515,0.20703
2854.13362,0.20795
2856.06208,0.20461
2857.99055,0.20301
2859.91902,0.20533
2861.84749,0.20554
2863.77596,0.20322
2865.70443,0.20198
2867.63290,0.20295
2869.56136,0.20604
2871.48983,0.20911
2873.41830,0.20924
2875.34677,0.20623
2877.27524,0.20191
2879.20371,0.20010
2881.13218,0.20192
2883.06065,0.20190
2884.98911,0.19781
2886.91758,0.19478
2888.84605,0.19703
2890.77452,0.20448
2892.70299,0.21109
2894.63146,0.20895
2896.55993,0.20282
2898.48839,0.20182
2900.41686,0.20283
2902.34533,0.20074
2904.27380,0.19719
2906.20227,0.19650
2908.13074,0.20130
2910.05921,0.20785
2911.98768,0.20888
2913.91614,0.20433
2915.84461,0.19996
2917.77308,0.19959
2919.70155,0.20209
2921.63002,0.20216
2923.55849,0.19941
2925.48696,0.19679
2927.41542,0.19719
2929.34389,0.20195
2931.27236,0.20568
2933.20083,0.20590
2935.12930,0.20375
2937.05777,0.20039
2938.98624,0.20048
2940.91471,0.20462
2942.84317,0.20718
2944.77164,0.20403
2946.70011,0.19758
2948.62858,0.19582
2950.55705,0.20033
2952.48552,0.20300
2954.41399,0.19979
2956.34245,0.19273
2958.27092,0.18840
2960.19939,0.19215
2962.12786,0.19970
2964.05633,0.20589
2965.98480,0.20704
2967.91327,0.20398
2969.84174,0.20329
2971.77020,0.20287
2973.69867,0.19971
2975.62714,0.19800
2977.55561,0.19793
2979.48408,0.20138
2981.41255,0.20947
2983.34102,0.21231
2985.26948,0.20583
2987.19795,0.19894
2989.12642,0.20116
2991.05489,0.20932
2992.98336,0.21366
2994.91183,0.21504
2996.84030,0.21338
2998.76877,0.20637
3000.69723,0.20168
3002.62570,0.20321
3004.55417,0.20634
3006.48264,0.20844
3008.41111,0.20736
3010.33958,0.19871
3012.26805,0.18008
3014.19651,0.15503
3016.12498,0.13872
3018.05345,0.15085
3019.98192,0.18341
3021.91039,0.20747
3023.83886,0.21547
3025.76733,0.21374
3027.69579,0.20947
3029.62426,0.21180
3031.55273,0.21663
3033.48120,0.21596
3035.40967,0.21125
3037.33814,0.20731
3039.26661,0.20813
3041.19508,0.21130
3043.12354,0.21219
3045.05201,0.21040
3046.98048,0.20819
3048.90895,0.20962
3050.83742,0.21364
3052.76589,0.21430
3054.69436,0.21063
3056.62282,0.20626
3058.55129,0.20651
3060.47976,0.21146
3062.40823,0.21428
3064.33670,0.20875
3066.26517,0.19803
3068.19364,0.19598
3070.12211,0.20250
3072.05057,0.20522
3073.97904,0.20138
3075.90751,0.19717
3077.83598,0.20164
3079.76445,0.21027
3081.69292,0.21143
3083.62139,0.20427
3085.54985,0.19696
3087.47832,0.19816
3089.40679,0.20319
3091.33526,0.20435
3093.26373,0.20161
3095.19220,0.19902
3097.12067,0.20268
3099.04914,0.21052
3100.97760,0.21183
3102.90607,0.20257
3104.83454,0.19590
3106.76301,0.20073
3108.69148,0.20655
3110.61995,0.20384
3112.54842,0.19814
3114.47688,0.20001
3116.40535,0.20605
3118.33382,0.20583
3120.26229,0.20068
3122.19076,0.19910
3124.11923,0.20487
3126.04770,0.21214
3127.97617,0.21333
3129.90463,0.20849
3131.83310,0.20434
3133.76157,0.20735
3135.69004,0.21251
3137.61851,0.20997
3139.54698,0.20622
3141.47545,0.20956
3143.40391,0.21085
3145.33238,0.20665
3147.26085,0.20615
3149.18932,0.21161
3151.11779,0.21716
3153.04626,0.21837
3154.97473,0.21685
3156.90320,0.21486
3158.83166,0.21246
3160.76013,0.21507
3162.68860,0.22273
3164.61707,0.22332
3166.54554,0.21657
3168.47401,0.21409
3170.40248,0.21754
3172.33094,0.21962
3174.25941,0.21507
3176.18788,0.20889
3178.11635,0.20960
3180.04482,0.21546
3181.97329,0.22011
3183.90176,0.22389
3185.83022,0.22723
3187.75869,0.22432
3189.68716,0.21583
3191.61563,0.21204
3193.54410,0.21542
3195.47257,0.21717
3197.40104,0.21388
3199.32951,0.21168
3201.25797,0.21387
3203.18644,0.21615
3205.11491,0.21406
3207.04338,0.21207
3208.97185,0.21289
3210.90032,0.21127
3212.82879,0.20951
3214.75725,0.21113
3216.68572,0.21313
3218.61419,0.21464
3220.54266,0.21612
3222.47113,0.21872
3224.39960,0.22058
3226.32807,0.21831
3228.25654,0.21519
3230.18500,0.21463
3232.11347,0.21549
3234.04194,0.21519
3235.97041,0.21127
3237.89888,0.20757
3239.82735,0.21032
3241.75582,0.21746
3243.68428,0.22549
3245.61275,0.23101
3247.54122,0.22848
3249.46969,0.22021
3251.39816,0.21397
3253.32663,0.21312
3255.25510,0.21427
3257.18357,0.21196
3259.11203,0.20676
3261.04050,0.20241
3262.96897,0.19936
3264.89744,0.19949
3266.82591,0.20406
3268.75438,0.20950
3270.68285,0.21287
3272.61131,0.21460
3274.53978,0.21581
3276.46825,0.21567
3278.39672,0.21420
3280.32519,0.21131
3282.25366,0.20897
3284.18213,0.21163
3286.11060,0.21637
3288.03906,0.21745
3289.96753,0.21257
3291.89600,0.20450
3293.82447,0.20192
3295.75294,0.20718
3297.68141,0.21135
3299.60988,0.21010
3301.53834,0.21053
3303.46681,0.21350
3305.39528,0.21322
3307.32375,0.21135
3309.25222,0.20959
3311.18069,0.20434
3313.10916,0.19859
3315.03763,0.19991
3316.96609,0.20732
3318.89456,0.21508
3320.82303,0.22043
3322.75150,0.22072
3324.67997,0.21441
3326.60844,0.20626
3328.53691,0.20408
3330.46537,0.21058
3332.39384,0.22028
3334.32231,0.22605
3336.25078,0.22407
3338.17925,0.21530
3340.10772,0.20772
3342.03619,0.20729
3343.96466,0.21065
3345.89312,0.21272
3347.82159,0.21434
3349.75006,0.21961
3351.67853,0.22649
3353.60700,0.22816
3355.53547,0.22439
3357.46394,0.22149
3359.39240,0.22065
3361.32087,0.21694
3363.24934,0.21299
3365.17781,0.21591
3367.10628,0.22105
3369.03475,0.22145
3370.96322,0.22026
3372.89168,0.21954
3374.82015,0.21570
3376.74862,0.21198
3378.67709,0.21495
3380.60556,0.21847
3382.53403,0.21637
3384.46250,0.21432
3386.39097,0.21268
3388.31943,0.20796
3390.24790,0.20651
3392.17637,0.21269
3394.10484,0.21912
3396.03331,0.21702
3397.96178,0.20868
3399.89025,0.20390
3401.81871,0.20174
3403.74718,0.19824
3405.67565,0.19876
3407.60412,0.20361
3409.53259,0.20696
3411.46106,0.20885
3413.38953,0.21222
3415.31800,0.21328
3417.24646,0.21022
3419.17493,0.20946
3421.10340,0.21254
3423.03187,0.21269
3424.96034,0.20751
3426.88881,0.20423
3428.81728,0.20357
3430.74574,0.19994
3432.67421,0.19678
3434.60268,0.19710
3436.53115,0.19824
3438.45962,0.19819
3440.38809,0.19692
3442.31656,0.19948
3444.24503,0.20831
3446.17349,0.21523
3448.10196,0.21193
3450.03043,0.20179
3451.95890,0.19434
3453.88737,0.19316
3455.81584,0.19676
3457.74431,0.20206
3459.67277,0.20269
3461.60124,0.19612
3463.52971,0.18971
3465.45818,0.18963
3467.38665,0.19339
3469.31512,0.19681
3471.24359,0.19458
3473.17206,0.18487
3475.10052,0.17851
3477.02899,0.18326
3478.95746,0.19248
3480.88593,0.19557
3482.81440,0.19122
3484.74287,0.19056
3486.67134,0.19774
3488.59980,0.20102
3490.52827,0.19401
3492.45674,0.18757
3494.38521,0.18601
3496.31368,0.18366
3498.24215,0.18322
3500.17062,0.18791
3502.09909,0.19073
3504.02755,0.18718
3505.95602,0.18422
3507.88449,0.18447
3509.81296,0.18678
3511.74143,0.18824
3513.66990,0.18211
3515.59837,0.17403
3517.52683,0.17227
3519.45530,0.17447
3521.38377,0.17875
3523.31224,0.18297
3525.24071,0.18196
3527.16918,0.17634
3529.09765,0.17115
3531.02611,0.16978
3532.95458,0.17273
3534.88305,0.17826
3536.81152,0.18165
3538.73999,0.17925
3540.66846,0.17545
3542.59693,0.17740
3544.52540,0.18421
3546.45386,0.18498
3548.38233,0.17594
3550.31080,0.16696
3552.23927,0.16327
3554.16774,0.16106
3556.09621,0.15700
3558.02468,0.15290
3559.95314,0.15092
3561.88161,0.15464
3563.81008,0.16610
3565.73855,0.18048
3567.66702,0.18567
3569.59549,0.17738
3571.52396,0.16801
3573.45243,0.16098
3575.38089,0.15575
3577.30936,0.15509
3579.23783,0.15692
3581.16630,0.15959
3583.09477,0.16528
3585.02324,0.17284
3586.95171,0.17673
3588.88017,0.17098
3590.80864,0.16431
3592.73711,0.16273
3594.66558,0.16025
3596.59405,0.15505
3598.52252,0.15376
3600.45099,0.15550
3602.37946,0.15540
3604.30792,0.15724
3606.23639,0.16551
3608.16486,0.17360
3610.09333,0.17399
3612.02180,0.17172
3613.95027,0.17010
3615.87874,0.16940
3617.80720,0.16792
3619.73567,0.16195
3621.66414,0.15411
3623.59261,0.14938
3625.52108,0.14841
3627.44955,0.14969
3629.37802,0.15370
3631.30649,0.15942
3633.23495,0.15956
3635.16342,0.15271
3637.09189,0.14662
3639.02036,0.14485
3640.94883,0.14316
3642.87730,0.14098
3644.80577,0.14226
3646.73423,0.15124
3648.66270,0.16972
3650.59117,0.17487
3652.51964,0.16175
3654.44811,0.15329
3656.37658,0.15187
3658.30505,0.14858
3660.23352,0.14251
3662.16198,0.13768
3664.09045,0.13558
3666.01892,0.13826
3667.94739,0.14593
3669.87586,0.14700
3671.80433,0.14033
3673.73280,0.14468
3675.66126,0.15191
3677.58973,0.14689
3679.51820,0.14114
3681.44667,0.13766
3683.37514,0.13701
3685.30361,0.14106
3687.23208,0.14750
3689.16055,0.15115
3691.08901,0.14554
3693.01748,0.13555
3694.94595,0.12871
3696.87442,0.12682
3698.80289,0.13005
3700.73136,0.13580
3702.65983,0.13617
3704.58829,0.13040
3706.51676,0.12882
3708.44523,0.13430
3710.37370,0.14093
3712.30217,0.14558
3714.23064,0.14735
3716.15911,0.14692
3718.08757,0.14769
3720.01604,0.14765
3721.94451,0.14424
3723.87298,0.14090
3725.80145,0.13696
3727.72992,0.13232
3729.65839,0.13085
3731.58686,0.13570
3733.51532,0.15020
3735.44379,0.15773
3737.37226,0.14527
3739.30073,0.13954
3741.22920,0.14968
3743.15767,0.16679
3745.08614,0.16983
3747.01460,0.15608
3748.94307,0.15002
3750.87154,0.15315
3752.80001,0.15001
3754.72848,0.14311
3756.65695,0.13879
3758.58542,0.13476
3760.51389,0.13020
3762.44235,0.12841
3764.37082,0.12763
3766.29929,0.12431
3768.22776,0.12423
3770.15623,0.12998
3772.08470,0.13191
3774.01317,0.13114
3775.94163,0.13336
3777.87010,0.13532
3779.79857,0.13042
3781.72704,0.12450
3783.65551,0.12558
3785.58398,0.12713
3787.51245,0.12372
3789.44092,0.12068
3791.36938,0.12219
3793.29785,0.12780
3795.22632,0.13404
3797.15479,0.13745
3799.08326,0.14026
3801.01173,0.14368
3802.94020,0.14286
3804.86866,0.14184
3806.79713,0.14024
3808.72560,0.13403
3810.65407,0.12904
3812.58254,0.12884
3814.51101,0.13380
3816.43948,0.13569
3818.36795,0.13034
3820.29641,0.12915
3822.22488,0.12751
3824.15335,0.12587
3826.08182,0.13329
3828.01029,0.14058
3829.93876,0.13705
3831.86723,0.12727
3833.79569,0.12230
3835.72416,0.13044
3837.65263,0.14740
3839.58110,0.15321
3841.50957,0.14486
3843.43804,0.13603
3845.36651,0.12999
3847.29498,0.12778
3849.22344,0.13096
3851.15191,0.13585
3853.08038,0.13610
3855.00885,0.13425
3856.93732,0.13088
3858.86579,0.12570
3860.79426,0.12506
3862.72272,0.13053
3864.65119,0.13327
3866.57966,0.12874
3868.50813,0.12648
3870.43660,0.13242
3872.36507,0.13631
3874.29354,0.13154
3876.22200,0.12748
3878.15047,0.12940
3880.07894,0.12625
3882.00741,0.11295
3883.93588,0.10785
3885.86435,0.11691
3887.79282,0.12667
3889.72129,0.13021
3891.64975,0.13001
3893.57822,0.12687
3895.50669,0.12541
3897.43516,0.12731
3899.36363,0.13162
3901.29210,0.13826
3903.22057,0.14094
3905.14903,0.13639
3907.07750,0.12990
3909.00597,0.12500
3910.93444,0.12107
3912.86291,0.11669
3914.79138,0.11679
3916.71985,0.12236
3918.64832,0.12262
3920.57678,0.11761
3922.50525,0.11722
3924.43372,0.11950
3926.36219,0.11823
3928.29066,0.11468
3930.21913,0.11143
3932.14760,0.11118
3934.07606,0.11355
3936.00453,0.11598
3937.93300,0.11693
3939.86147,0.11642
3941.78994,0.11864
3943.71841,0.12088
3945.64688,0.11770
3947.57535,0.11312
3949.50381,0.11057
3951.43228,0.10858
3953.36075,0.10619
3955.28922,0.10656
3957.21769,0.10990
3959.14616,0.11146
3961.07463,0.11114
3963.00309,0.11165
3964.93156,0.11230
3966.86003,0.11201
3968.78850,0.11143
3970.71697,0.10945
3972.64544,0.10484
3974.57391,0.10193
3976.50238,0.10367
3978.43084,0.10682
3980.35931,0.10987
3982.28778,0.10910
3984.21625,0.09988
3986.14472,0.08920
3988.07319,0.08887
3990.00166,0.10008
3991.93012,0.10910
3993.85859,0.10462
3995.78706,0.09448
3997.71553,0.09235
3999.64400,0.09827
4001.57247,0.10300
4003.50094,0.10516
4005.42941,0.10743
4007.35787,0.10448
4009.28634,0.09683
4011.21481,0.09475
4013.14328,0.09704
4015.07175,0.09605
4017.00022,0.09386
4018.92869,0.09393
4020.85715,0.09647
4022.78562,0.10051
4024.71409,0.10342
4026.64256,0.10454
4028.57103,0.10320
4030.49950,0.09717
4032.42797,0.08920
4034.35644,0.08630
4036.28490,0.09140
4038.21337,0.10105
4040.14184,0.10870
4042.07031,0.11159
4043.99878,0.11119
4045.92725,0.10783
4047.85572,0.10410
4049.78418,0.10123
4051.71265,0.09464
4053.64112,0.08702
4055.56959,0.08700
4057.49806,0.09181
4059.42653,0.09338
4061.35500,0.09356
4063.28346,0.09663
4065.21193,0.10008
4067.14040,0.09991
4069.06887,0.09541
4070.99734,0.09120
4072.92581,0.09248
4074.85428,0.09580
4076.78275,0.09509
4078.71121,0.09145
4080.63968,0.08795
4082.56815,0.08691
4084.49662,0.08985
4086.42509,0.09512
4088.35356,0.09963
4090.28203,0.10207
4092.21049,0.10203
4094.13896,0.09669
4096.06743,0.08858
4097.99590,0.08578
4099.92437,0.08954
4101.85284,0.09573
4103.78131,0.10101
4105.70978,0.10271
4107.63824,0.09943
4109.56671,0.09495
4111.49518,0.09320
4113.42365,0.09412
4115.35212,0.09659
4117.28059,0.09804
4119.20906,0.09691
4121.13752,0.09437
4123.06599,0.09340
4124.99446,0.09479
4126.92293,0.09726
4128.85140,0.10128
4130.77987,0.10388
4132.70834,0.09909
4134.63681,0.08980
4136.56527,0.08771
4138.49374,0.09307
4140.42221,0.09347
4142.35068,0.08712
4144.27915,0.08445
4146.20762,0.08726
4148.13609,0.08787
4150.06455,0.08709
4151.99302,0.08776
4153.92149,0.08496
4155.84996,0.07933
4157.77843,0.07777
4159.70690,0.07965
4161.63537,0.07989
4163.56384,0.07880
4165.49230,0.08013
4167.42077,0.08492
4169.34924,0.08857
4171.27771,0.08852
4173.20618,0.08955
4175.13465,0.09304
4177.06312,0.09304
4178.99158,0.08837
4180.92005,0.08504
4182.84852,0.08403
4184.77699,0.08254
4186.70546,0.08003
4188.63393,0.07967
4190.56240,0.08573
4192.49087,0.08845
4194.41933,0.07997
4196.34780,0.07361
4198.27627,0.07442
4200.20474,0.07484
4202.13321,0.07592
4204.06168,0.07897
4205.99015,0.08085
4207.91861,0.07836
4209.84708,0.07339
4211.77555,0.07320
4213.70402,0.07495
4215.63249,0.07145
4217.56096,0.06981
4219.48943,0.07389
4221.41789,0.07449
4223.34636,0.07170
4225.27483,0.07032
4227.20330,0.07097
4229.13177,0.07322
4231.06024,0.07182
4232.98871,0.07017
4234.91718,0.07447
4236.84564,0.07924
4238.77411,0.08313
4240.70258,0.08789
4242.63105,0.08713
4244.55952,0.08042
4246.48799,0.07547
4248.41646,0.07256
4250.34492,0.06928
4252.27339,0.06762
4254.20186,0.06867
4256.13033,0.07137
4258.05880,0.07358
4259.98727,0.07251
4261.91574,0.06586
4263.84421,0.05771
4265.77267,0.05505
4267.70114,0.05548
4269.62961,0.05434
4271.55808,0.05724
4273.48655,0.06781
4275.41502,0.07475
4277.34349,0.07256
4279.27195,0.07150
4281.20042,0.07317
4283.12889,0.07196
4285.05736,0.06728
4286.98583,0.05944
4288.91430,0.05392
4290.84277,0.05557
4292.77124,0.06148
4294.69970,0.06960
4296.62817,0.07463
4298.55664,0.07014
4300.48511,0.06572
4302.41358,0.06905
4304.34205,0.06998
4306.27052,0.06404
4308.19898,0.05582
4310.12745,0.04929
4312.05592,0.04966
4313.98439,0.05679
4315.91286,0.06166
4317.84133,0.05842
4319.76980,0.05537
4321.69827,0.05834
4323.62673,0.06119
4325.55520,0.06124
4327.48367,0.05839
4329.41214,0.05369
4331.34061,0.05163
4333.26908,0.05265
4335.19755,0.05307
4337.12601,0.05162
4339.05448,0.05033
4340.98295,0.05008
4342.91142,0.04891
4344.83989,0.04710
4346.76836,0.04952
4348.69683,0.05160
4350.62530,0.04601
4352.55376,0.04094
4354.48223,0.03946
4356.41070,0.03657
4358.33917,0.03827
4360.26764,0.04885
4362.19611,0.05860
4364.12458,0.05541
4366.05304,0.04279
4367.98151,0.03568
4369.90998,0.03799
4371.83845,0.03814
4373.76692,0.03108
4375.69539,0.02586
4377.62386,0.02403
4379.55232,0.02502
4381.48079,0.03490
4383.40926,0.04636
4385.33773,0.04959
4387.26620,0.04807
4389.19467,0.04591
4391.12314,0.04349
4393.05161,0.04060
4394.98007,0.03739
4396.90854,0.03492
4398.83701,0.03537
4400.76548,0.03873
4402.69395,0.04166
4404.62242,0.04227
4406.55089,0.04021
4408.47935,0.03800
4410.40782,0.03891
4412.33629,0.04069
4414.26476,0.04064
4416.19323,0.03868
4418.12170,0.03463
4420.05017,0.03103
4421.97864,0.02963
4423.90710,0.03035
4425.83557,0.03616
4427.76404,0.04090
4429.69251,0.03413
4431.62098,0.02511
4433.54945,0.02672
4435.47792,0.03067
4437.40638,0.02667
4439.33485,0.01995
4441.26332,0.01652
4443.19179,0.01732
4445.12026,0.02391
4447.04873,0.03145
4448.97720,0.03130
4450.90567,0.02607
4452.83413,0.02493
4454.76260,0.02793
4456.69107,0.02959
4458.61954,0.03003
4460.54801,0.03143
4462.47648,0.03323
4464.40495,0.03499
4466.33341,0.03601
4468.26188,0.03570
4470.19035,0.03082
4472.11882,0.02295
4474.04729,0.02275
4475.97576,0.02757
4477.90423,0.02966
4479.83270,0.03547
4481.76116,0.04402
4483.68963,0.04158
4485.61810,0.02597
4487.54657,0.01232
4489.47504,0.01190
4491.40351,0.02314
4493.33198,0.03725
4495.26044,0.04215
4497.18891,0.03660
4499.11738,0.03198
4501.04585,0.03200
4502.97432,0.03072
4504.90279,0.02818
4506.83126,0.03083
4508.75973,0.03584
4510.68819,0.03195
4512.61666,0.01854
4514.54513,0.00711
4516.47360,0.00809
4518.40207,0.01892
4520.33054,0.02900
4522.25901,0.02971
4524.18747,0.01824
4526.11594,0.00363
4528.04441,-0.00480
4529.97288,-0.00370
4531.90135,0.01129
4533.82982,0.03187
4535.75829,0.04163
4537.68676,0.03916
4539.61522,0.02973
4541.54369,0.01699
4543.47216,0.00931
4545.40063,0.00873
4547.32910,0.01035
4549.25757,0.01776
4551.18604,0.03035
4553.11450,0.03175
4555.04297,0.01857
4556.97144,0.00575
4558.89991,0.00178
4560.82838,0.00474
4562.75685,0.00642
4564.68532,0.00295
4566.61378,-0.00062
4568.54225,-0.00005
4570.47072,0.00304
4572.39919,0.00440
4574.32766,0.00522
4576.25613,0.00629
4578.18460,0.00572
4580.11307,0.00399
4582.04153,0.00068
4583.97000,0.00047
4585.89847,0.00452
4587.82694,0.00207
4589.75541,-0.00062
4591.68388,0.01264
4593.61235,0.02991
4595.54081,0.03034
4597.46928,0.01695
4599.39775,0.01049
4601.32622,0.01496
4603.25469,0.01574
4605.18316,0.01191
4607.11163,0.00842
4609.04010,0.01083
4610.96856,0.02165
4612.89703,0.02475
4614.82550,0.01196
4616.75397,-0.00263
4618.68244,-0.00491
4620.61091,0.00335
4622.53938,0.01270
4624.46784,0.01672
4626.39631,0.01851
4628.32478,0.02412
4630.25325,0.02470
4632.18172,0.01737
4634.11019,0.00951
4636.03866,-0.00008
4637.96713,-0.00894
4639.89559,-0.01038
4641.82406,-0.00444
4643.75253,-0.00117
4645.68100,-0.00530
4647.60947,-0.00645
4649.53794,-0.00072
4651.46641,0.00657
4653.39487,0.01322
4655.32334,0.01681
4657.25181,0.01938
4659.18028,0.02435
4661.10875,0.02435
4663.03722,0.01783
4664.96569,0.01063
4666.89416,0.00338
4668.82262,0.00264
4670.75109,0.01249
4672.67956,0.01961
4674.60803,0.01575
4676.53650,0.00826
4678.46497,0.00289
4680.39344,0.00459
4682.32190,0.01344
4684.25037,0.02176
4686.17884,0.02691
4688.10731,0.02529
4690.03578,0.01655
4691.96425,0.00911
4693.89272,0.00668
4695.82119,0.00783
4697.74965,0.01274
4699.67812,0.01563
4701.60659,0.00773
4703.53506,-0.00253
4705.46353,-0.00210
4707.39200,0.00496
4709.32047,0.00737
4711.24893,0.00461
4713.17740,0.00392
4715.10587,0.00221
4717.03434,-0.00078
4718.96281,0.00634
4720.89128,0.01946
4722.81975,0.02028
4724.74821,0.00962
4726.67668,0.00482
4728.60515,0.00530
4730.53362,0.00172
4732.46209,0.00281
4734.39056,0.01137
4736.31903,0.01574
4738.24750,0.01576
4740.17596,0.01770
4742.10443,0.02291
4744.03290,0.02738
4745.96137,0.02481
4747.88984,0.02141
4749.81831,0.02622
4751.74678,0.02606
4753.67524,0.01240
4755.60371,0.00592
4757.53218,0.01465
4759.46065,0.01890
4761.38912,0.01291
4763.31759,0.00763
4765.24606,0.00869
4767.17453,0.01027
4769.10299,0.00229
4771.03146,-0.00830
4772.95993,-0.00952
4774.88840,0.00059
4776.81687,0.01292
4778.74534,0.01123
4780.67381,0.00114
4782.60227,-0.00536
4784.53074,-0.00888
4786.45921,-0.00631
4788.38768,0.00064
4790.31615,0.00399
4792.24462,-0.00033
4794.17309,-0.00561
4796.10156,-0.00253
4798.03002,-0.00021
4799.95849,-0.00991
4801.88696,-0.01566
4803.81543,-0.00428
4805.74390,0.00071
4807.67237,-0.01163
4809.60084,-0.02032
4811.52930,-0.01474
4813.45777,0.00358
4815.38624,0.02666
4817.31471,0.03918
4819.24318,0.03198
4821.17165,0.01094
4823.10012,-0.00565
4825.02859,-0.00482
4826.95705,0.00526
4828.88552,0.00864
4830.81399,0.00606
4832.74246,0.00944
4834.67093,0.02087
4836.59940,0.02721
4838.52787,0.02210
4840.45633,0.01742
4842.38480,0.01394
4844.31327,0.00659
4846.24174,0.00177
4848.17021,0.00185
4850.09868,0.01322
4852.02715,0.03493
4853.95562,0.04262
4855.88408,0.02993
4857.81255,0.01396
4859.74102,-0.00002
4861.66949,-0.01161
4863.59796,-0.00495
4865.52643,0.01660
4867.45490,0.03139
4869.38336,0.03496
4871.31183,0.02121
4873.24030,-0.00059
4875.16877,-0.00266
4877.09724,0.00572
4879.02571,0.00454
4880.95418,-0.00140
4882.88265,0.00270
4884.81111,0.02047
4886.73958,0.03145
4888.66805,0.02452
4890.59652,0.01360
4892.52499,0.00841
4894.45346,0.00729
4896.38193,0.00362
4898.31039,-0.00367
4900.23886,-0.00536
4902.16733,0.00295
4904.09580,0.01153
4906.02427,0.01001
4907.95274,0.00543
4909.88121,0.00790
4911.80967,0.01362
4913.73814,0.01523
4915.66661,0.01584
4917.59508,0.01833
4919.52355,0.01923
4921.45202,0.01978
4923.38049,0.01924
4925.30896,0.01396
4927.23742,0.00266
4929.16589,-0.01207
4931.09436,-0.01868
4933.02283,-0.01411
4934.95130,-0.00994
4936.87977,-0.00545
4938.80824,0.00935
4940.73670,0.02288
4942.66517,0.01531
4944.59364,-0.00440
4946.52211,-0.01281
4948.45058,-0.00254
4950.37905,0.01572
4952.30752,0.02137
4954.23599,0.01071
4956.16445,0.00498
4958.09292,0.01118
4960.02139,0.01700
4961.94986,0.01359
4963.87833,0.00946
4965.80680,0.01622
4967.73527,0.02322
4969.66373,0.02258
4971.59220,0.02444
4973.52067,0.03122
4975.44914,0.02907
4977.37761,0.01246
4979.30608,-0.00364
4981.23455,-0.00524
4983.16302,0.00690
4985.09148,0.02043
4987.01995,0.02583
4988.94842,0.02266
4990.87689,0.01958
4992.80536,0.02101
4994.73383,0.02328
4996.66230,0.03120
4998.59076,0.04078
5000.51923,0.03811
5002.44770,0.01922
5004.37617,-0.00024
5006.30464,-0.00022
5008.23311,0.01103
5010.16158,0.01814
5012.09005,0.02388
5014.01851,0.03159
5015.94698,0.03141
5017.87545,0.02142
5019.80392,0.01621
5021.73239,0.02559
5023.66086,0.03974
5025.58933,0.03692
5027.51779,0.02228
5029.44626,0.01993
5031.37473,0.02995
5033.30320,0.03836
5035.23167,0.03458
5037.16014,0.02297
5039.08861,0.01599
5041.01708,0.01509
5042.94554,0.02161
5044.87401,0.03052
5046.80248,0.02698
5048.73095,0.01442
5050.65942,0.01044
5052.58789,0.02136
5054.51636,0.03027
5056.44482,0.02554
5058.37329,0.02243
5060.30176,0.02686
5062.23023,0.03052
5064.15870,0.03002
5066.08717,0.01769
5068.01564,-0.00003
5069.94410,-0.00742
5071.87257,-0.00998
5073.80104,-0.01292
5075.72951,-0.00901
5077.65798,0.00005
5079.58645,0.00447
5081.51492,0.00562
5083.44339,0.01331
5085.37185,0.02595
5087.30032,0.03201
5089.22879,0.02711
5091.15726,0.01960
5093.08573,0.02212
5095.01420,0.03471
5096.94267,0.03836
5098.87113,0.02722
5100.79960,0.02098
5102.72807,0.02621
5104.65654,0.02686
5106.58501,0.02023
5108.51348,0.02167
5110.44195,0.02682
5112.37042,0.02943
5114.29888,0.03411
5116.22735,0.03351
5118.15582,0.02826
5120.08429,0.03073
5122.01276,0.04249
5123.94123,0.04542
5125.86970,0.03236
5127.79816,0.02096
5129.72663,0.02137
5131.65510,0.02946
5133.58357,0.03754
5135.51204,0.04361
5137.44051,0.04621
5139.36898,0.04359
5141.29745,0.03919
5143.22591,0.02983
5145.15438,0.01814
5147.08285,0.01808
5149.01132,0.02530
5150.93979,0.01926
5152.86826,0.00557
5154.79673,0.00542
5156.72519,0.01190
5158.65366,0.01198
5160.58213,0.01602
5162.51060,0.02924
5164.43907,0.04259
5166.36754,0.05871
5168.29601,0.08143
5170.22448,0.09049
5172.15294,0.08214
5174.08141,0.08206
5176.00988,0.07761
5177.93835,0.05336
5179.86682,0.03342
5181.79529,0.02289
5183.72376,0.02144
5185.65222,0.03868
5187.58069,0.04841
5189.50916,0.03343
5191.43763,0.01632
5193.36610,0.01324
5195.29457,0.01975
5197.22304,0.02656
5199.15151,0.02907
5201.07997,0.03035
5203.00844,0.03216
5204.93691,0.02972
5206.86538,0.03014
5208.79385,0.04717
5210.72232,0.05832
5212.65079,0.04263
5214.57925,0.02198
5216.50772,0.02322
5218.43619,0.03561
5220.36466,0.03783
5222.29313,0.03765
5224.22160,0.03435
5226.15007,0.01863
5228.07854,0.01347
5230.00700,0.02089
5231.93547,0.02454
5233.86394,0.03521
5235.79241,0.04951
5237.72088,0.04909
5239.64935,0.04219
5241.57782,0.04277
5243.50628,0.04824
5245.43475,0.05037
5247.36322,0.04526
5249.29169,0.05036
5251.22016,0.07162
5253.14863,0.07388
5255.07710,0.05074
5257.00556,0.02864
5258.93403,0.02097
5260.86250,0.03302
5262.79097,0.04326
5264.71944,0.03456
5266.64791,0.03188
5268.57638,0.03875
5270.50485,0.04531
5272.43331,0.06184
5274.36178,0.07634
5276.29025,0.06845
5278.21872,0.05730
5280.14719,0.06039
5282.07566,0.06883
5284.00413,0.06705
5285.93259,0.05062
5287.86106,0.04617
5289.78953,0.06328
5291.71800,0.06910
5293.64647,0.05779
5295.57494,0.05482
5297.50341,0.06247
5299.43188,0.07752
5301.36034,0.09752
5303.28881,0.10102
5305.21728,0.06904
5307.14575,0.02238
5309.07422,0.00822
5311.00269,0.02061
5312.93116,0.02992
5314.85962,0.03965
5316.78809,0.04797
5318.71656,0.05023
5320.64503,0.05367
5322.57350,0.05844
5324.50197,0.05863
5326.43044,0.05550
5328.35891,0.04564
5330.28737,0.03169
5332.21584,0.04345
5334.14431,0.07176
5336.07278,0.06590
5338.00125,0.03299
5339.92972,0.01713
5341.85819,0.01671
5343.78665,0.01873
5345.71512,0.03130
5347.64359,0.04757
5349.57206,0.05195
5351.50053,0.05476
5353.42900,0.06528
5355.35747,0.06726
5357.28594,0.06898
5359.21440,0.08134
5361.14287,0.08676
5363.07134,0.07648
5364.99981,0.06551
5366.92828,0.07071
5368.85675,0.07555
5370.78522,0.06335
5372.71368,0.06063
5374.64215,0.07996
5376.57062,0.09392
5378.49909,0.08748
5380.42756,0.07856
5382.35603,0.08847
5384.28450,0.10534
5386.21297,0.09065
5388.14143,0.05033
5390.06990,0.02136
5391.99837,0.01589
5393.92684,0.02618
5395.85531,0.03484
5397.78378,0.04652
5399.71225,0.06749
5401.64071,0.06900
5403.56918,0.04514
5405.49765,0.02806
5407.42612,0.01257
5409.35459,-0.01366
5411.28306,-0.01126
5413.21153,0.03036
5415.13999,0.05548
5417.06846,0.05808
5418.99693,0.06223
5420.92540,0.06500
5422.85387,0.05643
5424.78234,0.04170
5426.71081,0.03956
5428.63928,0.04801
5430.56774,0.05020
5432.49621,0.04759
5434.42468,0.05165
5436.35315,0.06428
5438.28162,0.06397
5440.21009,0.04707
5442.13856,0.04161
5444.06702,0.05626
5445.99549,0.06352
5447.92396,0.05575
5449.85243,0.05370
5451.78090,0.05781
5453.70937,0.05992
5455.63784,0.05645
5457.56631,0.04699
5459.49477,0.04320
5461.42324,0.05312
5463.35171,0.07147
5465.28018,0.08944
5467.20865,0.10245
5469.13712,0.10326
5471.06559,0.09936
5472.99405,0.10623
5474.92252,0.11032
5476.85099,0.08766
5478.77946,0.05724
5480.70793,0.05825
5482.63640,0.08017
5484.56487,0.08313
5486.49334,0.07796
5488.42180,0.09456
5490.35027,0.12111
5492.27874,0.12533
5494.20721,0.10471
5496.13568,0.08524
5498.06415,0.07019
5499.99262,0.05109
5501.92108,0.03682
5503.84955,0.03552
5505.77802,0.04512
5507.70649,0.06354
5509.63496,0.08503
5511.56343,0.09588
5513.49190,0.08364
5515.42037,0.06458
5517.34883,0.06159
5519.27730,0.06830
5521.20577,0.07291
5523.13424,0.07646
5525.06271,0.08273
5526.99118,0.08671
5528.91965,0.08099
5530.84811,0.06302
5532.77658,0.03778
5534.70505,0.02555
5536.63352,0.03838
5538.56199,0.05145
5540.49046,0.04674
5542.41893,0.04248
5544.34740,0.04639
5546.27586,0.05662
5548.20433,0.08684
5550.13280,0.11492
5552.06127,0.10097
5553.98974,0.07416
5555.91821,0.07963
5557.84668,0.09804
5559.77514,0.10512
5561.70361,0.10378
5563.63208,0.09489
5565.56055,0.09589
5567.48902,0.11998
5569.41749,0.12278
5571.34596,0.09036
5573.27443,0.08282
5575.20289,0.10102
5577.13136,0.08983
5579.05983,0.05628
5580.98830,0.04388
5582.91677,0.06783
5584.84524,0.09527
5586.77371,0.09834
5588.70217,0.09313
5590.63064,0.10072
5592.55911,0.10927
5594.48758,0.09594
5596.41605,0.06138
5598.34452,0.03296
5600.27299,0.02671
5602.20145,0.03408
5604.12992,0.04745
5606.05839,0.07084
5607.98686,0.08098
5609.91533,0.04649
5611.84380,0.01144
5613.77227,0.01878
5615.70074,0.03463
5617.62920,0.03891
5619.55767,0.04724
5621.48614,0.07070
5623.41461,0.08764
5625.34308,0.07861
5627.27155,0.07769
5629.20002,0.09689
5631.12848,0.10876
5633.05695,0.12079
5634.98542,0.12230
5636.91389,0.09531
5638.84236,0.07972
5640.77083,0.08135
5642.69930,0.08085
5644.62777,0.09739
5646.55623,0.10672
5648.48470,0.06857
5650.41317,0.02891
5652.34164,0.03702
5654.27011,0.06717
5656.19858,0.08467
5658.12705,0.08325
5660.05551,0.06877
5661.98398,0.06418
5663.91245,0.07214
5665.84092,0.07294
5667.76939,0.07476
5669.69786,0.08592
5671.62633,0.08730
5673.55480,0.07186
5675.48326,0.06753
5677.41173,0.08007
5679.34020,0.08944
5681.26867,0.10002
5683.19714,0.10151
5685.12561,0.08897
5687.05408,0.09259
5688.98254,0.12237
5690.91101,0.14610
5692.83948,0.13905
5694.76795,0.12220
5696.69642,0.11570
5698.62489,0.10994
5700.55336,0.10900
5702.48183,0.12006
5704.41029,0.11772
5706.33876,0.09010
5708.26723,0.07852
5710.19570,0.10375
5712.12417,0.12233
5714.05264,0.12505
5715.98111,0.12757
5717.90957,0.09148
5719.83804,0.03485
5721.76651,0.02683
5723.69498,0.04838
5725.62345,0.05365
5727.55192,0.05471
5729.48039,0.07607
5731.40886,0.10195
5733.33732,0.09253
5735.26579,0.04430
5737.19426,0.02246
5739.12273,0.05001
5741.05120,0.06434
5742.97967,0.06235
5744.90814,0.07204
5746.83660,0.05868
5748.76507,0.03725
5750.69354,0.05318
5752.62201,0.06243
5754.55048,0.04861
5756.47895,0.04606
5758.40742,0.06251
5760.33588,0.09713
5762.26435,0.11375
5764.19282,0.08313
5766.12129,0.05145
5768.04976,0.05389
5769.97823,0.07484
5771.90670,0.09630
5773.83517,0.10486
5775.76363,0.10003
5777.69210,0.08665
5779.62057,0.07494
5781.54904,0.07347
5783.47751,0.07558
5785.40598,0.08087
5787.33445,0.07485
5789.26291,0.06133
5791.19138,0.07289
5793.11985,0.10446
5795.04832,0.14254
5796.97679,0.15638
5798.90526,0.12567
5800.83373,0.10124
5802.76220,0.10023
5804.69066,0.09372
5806.61913,0.09382
5808.54760,0.09759
5810.47607,0.06928
5812.40454,0.03746
5814.33301,0.05893
5816.26148,0.09365
5818.18994,0.07326
5820.11841,0.02419
5822.04688,0.00971
5823.97535,0.02588
5825.90382,0.03082
5827.83229,0.01867
5829.76076,0.02026
5831.68923,0.05713
5833.61769,0.10918
5835.54616,0.13145
5837.47463,0.12001
5839.40310,0.09328
5841.33157,0.04634
5843.26004,0.01636
5845.18851,0.04953
5847.11697,0.07975
5849.04544,0.03648
5850.97391,-0.01306
5852.90238,-0.00007
5854.83085,0.02888
5856.75932,0.03954
5858.68779,0.06462
5860.61626,0.08371
5862.54472,0.06364
5864.47319,0.05336
5866.40166,0.06660
5868.33013,0.06803
5870.25860,0.06906
5872.18707,0.09399
5874.11554,0.13175
5876.04400,0.13768
5877.97247,0.10036
5879.90094,0.07232
5881.82941,0.07191
5883.75788,0.09534
5885.68635,0.12943
5887.61482,0.11939
5889.54329,0.07666
5891.47175,0.06675
5893.40022,0.09359
5895.32869,0.11001
5897.25716,0.09113
5899.18563,0.05607
5901.11410,0.03088
5903.04257,0.04281
5904.97103,0.08314
5906.89950,0.10382
5908.82797,0.07349
5910.75644,0.04076
5912.68491,0.07644
5914.61338,0.12345
5916.54185,0.11000
5918.47032,0.08788
5920.39878,0.09933
5922.32725,0.11034
5924.25572,0.11701
5926.18419,0.12861
5928.11266,0.12092
5930.04113,0.09559
5931.96960,0.06707
5933.89806,0.03975
5935.82653,0.02666
5937.75500,0.03565
5939.68347,0.04948
5941.61194,0.05435
5943.54041,0.05252
5945.46888,0.04569
5947.39734,0.05573
5949.32581,0.10583
5951.25428,0.16562
5953.18275,0.16829
5955.11122,0.13010
5957.03969,0.12162
5958.96816,0.12594
5960.89663,0.11208
5962.82509,0.10857
5964.75356,0.10812
5966.68203,0.08943
5968.61050,0.07518
5970.53897,0.07998
5972.46744,0.10287
5974.39591,0.12391
5976.32437,0.10559
5978.25284,0.07457
5980.18131,0.08274
5982.10978,0.12102
5984.03825,0.12123
5985.96672,0.08330
5987.89519,0.08973
5989.82366,0.14041
5991.75212,0.16357
5993.68059,0.12281
5995.60906,0.06659
5997.53753,0.06419
5999.46600,0.10452
6001.39447,0.14178
6003.32294,0.14768
6005.25140,0.12035
6007.17987,0.07424
6009.10834,0.03633
6011.03681,0.02196
6012.96528,0.05015
6014.89375,0.10862
6016.82222,0.12497
6018.75069,0.09631
6020.67915,0.08247
6022.60762,0.07319
6024.53609,0.04708
6026.46456,0.03386
6028.39303,0.06130
6030.32150,0.09826
6032.24997,0.08831
6034.17843,0.06783
6036.10690,0.10001
6038.03537,0.11952
6039.96384,0.09829
6041.89231,0.08973
6043.82078,0.08476
6045.74925,0.07649
6047.67772,0.06889
6049.60618,0.04530
6051.53465,0.03692
6053.46312,0.06708
6055.39159,0.11269
6057.32006,0.15639
6059.24853,0.15374
6061.17700,0.09285
6063.10546,0.05921
6065.03393,0.08372
6066.96240,0.11640
6068.89087,0.14862
6070.81934,0.18917
6072.74781,0.19558
6074.67628,0.14263
6076.60475,0.09964
6078.53321,0.09561
6080.46168,0.09077
6082.39015,0.09162
6084.31862,0.10979
6086.24709,0.13680
6088.17556,0.15286
6090.10403,0.12247
6092.03249,0.08812
6093.96096,0.11385
6095.88943,0.14336
6097.81790,0.12374
6099.74637,0.10078
6101.67484,0.09161
6103.60331,0.05930
6105.53177,0.01344
6107.46024,0.00456
6109.38871,0.03721
6111.31718,0.06499
6113.24565,0.07749
6115.17412,0.07705
6117.10259,0.05883
6119.03106,0.06340
6120.95952,0.10185
6122.88799,0.12038
6124.81646,0.11183
6126.74493,0.08683
6128.67340,0.03721
6130.60187,0.00856
6132.53034,0.03137
6134.45880,0.06227
6136.38727,0.09114
6138.31574,0.13941
6140.24421,0.18175
6142.17268,0.16957
6144.10115,0.13049
6146.02962,0.11305
6147.95809,0.10004
6149.88655,0.08653
6151.81502,0.08452
6153.74349,0.08371
6155.67196,0.07183
6157.60043,0.05275
6159.52890,0.03984
6161.45737,0.02696
6163.38583,0.03405
6165.31430,0.07457
6167.24277,0.07126
6169.17124,0.02830
6171.09971,0.03283
6173.02818,0.06763
6174.95665,0.07050
6176.88512,0.05685
6178.81358,0.07344
6180.74205,0.08522
6182.67052,0.02687
6184.59899,-0.01976
6186.52746,0.02377
6188.45593,0.07205
6190.38440,0.06490
6192.31286,0.05626
6194.24133,0.06754
6196.16980,0.07530
6198.09827,0.06303
6200.02674,0.05546
6201.95521,0.08870
6203.88368,0.14607
6205.81215,0.17362
6207.74061,0.17538
6209.66908,0.16268
6211.59755,0.11592
6213.52602,0.06418
6215.45449,0.04513
6217.38296,0.05067
6219.31143,0.06622
6221.23989,0.11258
6223.16836,0.15994
6225.09683,0.15371
6227.02530,0.15636
6228.95377,0.17736
6230.88224,0.11641
6232.81071,0.00594
6234.73918,-0.00586
6236.66764,0.06712
6238.59611,0.09130
6240.52458,0.03652
6242.45305,0.00896
6244.38152,0.06307
6246.30999,0.11273
6248.23846,0.08357
6250.16692,0.03661
6252.09539,0.04492
6254.02386,0.05573
6255.95233,0.03533
6257.88080,0.01321
6259.80927,0.00524
6261.73774,-0.00131
6263.66621,-0.00104
6265.59467,0.05688
6267.52314,0.13154
6269.45161,0.14898
6271.38008,0.13006
6273.30855,0.09990
6275.23702,0.06747
6277.16549,0.03853
6279.09395,0.05080
6281.02242,0.10112
6282.95089,0.12508
6284.87936,0.10245
6286.80783,0.05712
6288.73630,0.00974
6290.66477,-0.00286
6292.59323,0.04809
6294.52170,0.09977
6296.45017,0.10109
6298.37864,0.10828
6300.30711,0.13219
6302.23558,0.10299
6304.16405,0.04754
6306.09252,0.05295
6308.02098,0.11040
6309.94945,0.16331
6311.87792,0.18150
6313.80639,0.15383
6315.73486,0.10684
6317.66333,0.09341
6319.59180,0.13411
6321.52026,0.20406
6323.44873,0.23251
6325.37720,0.19202
6327.30567,0.15964
6329.23414,0.17470
6331.16261,0.18047
6333.09108,0.15112
6335.01955,0.09483
6336.94801,0.01365
6338.87648,-0.01557
6340.80495,0.04168
6342.73342,0.07638
6344.66189,0.07828
6346.59036,0.13222
6348.51883,0.20736
6350.44729,0.23013
6352.37576,0.19217
6354.30423,0.15277
6356.23270,0.14381
6358.16117,0.14574
6360.08964,0.15751
6362.01811,0.15508
6363.94658,0.11327
6365.87504,0.08007
6367.80351,0.08102
6369.73198,0.07616
6371.66045,0.03867
6373.58892,0.02097
6375.51739,0.05993
6377.44586,0.08290
6379.37432,0.05706
6381.30279,0.01112
6383.23126,-0.04251
6385.15973,-0.07958
6387.08820,-0.07077
6389.01667,-0.06194
6390.94514,-0.07497
6392.87361,-0.04461
6394.80207,0.02309
6396.73054,0.07689
6398.65901,0.11073
6400.58748,0.10713
6402.51595,0.06909
6404.44442,0.04133
6406.37289,0.06185
6408.30135,0.09706
6410.22982,0.10215
6412.15829,0.10177
6414.08676,0.11703
6416.01523,0.10851
6417.94370,0.05746
6419.87217,0.03705
6421.80064,0.04410
6423.72910,0.00033
6425.65757,-0.06203
6427.58604,-0.07104
6429.51451,-0.05004
6431.44298,-0.02144
6433.37145,0.02982
6435.29992,0.11029
6437.22838,0.17438
6439.15685,0.16692
6441.08532,0.13706
6443.01379,0.10145
6444.94226,0.04253
6446.87073,0.01286
6448.79920,0.02999
6450.72766,0.03199
6452.65613,-0.01987
6454.58460,-0.08288
6456.51307,-0.11109
6458.44154,-0.09242
6460.37001,-0.03730
6462.29848,0.06632
6464.22695,0.16735
6466.15541,0.13467
6468.08388,-0.00329
6470.01235,-0.06439
6471.94082,-0.01553
6473.86929,0.02954
6475.79776,0.05318
6477.72623,0.11557
6479.65469,0.16154
6481.58316,0.09095
6483.51163,-0.02534
6485.44010,-0.07794
6487.36857,-0.06854
6489.29704,-0.02184
6491.22551,0.03764
6493.15398,0.09057
6495.08244,0.13413
6497.01091,0.17553
6498.93938,0.21901
6500.86785,0.20339
6502.79632,0.09690
6504.72479,0.03123
6506.65326,0.06189
6508.58172,0.10154
6510.51019,0.12297
6512.43866,0.12693
6514.36713,0.10050
6516.29560,0.11521
6518.22407,0.17474
6520.15254,0.20582
6522.08101,0.19321
6524.00947,0.16460
6525.93794,0.19550
6527.86641,0.24856
6529.79488,0.18013
6531.72335,0.03129
6533.65182,-0.04594
6535.58029,-0.05849
6537.50875,-0.04707
6539.43722,0.02516
6541.36569,0.10027
6543.29416,0.13464
6545.22263,0.17806
6547.15110,0.18399
6549.07957,0.11985
6551.00804,0.06471
6552.93650,0.05494
6554.86497,0.07382
6556.79344,0.11133
6558.72191,0.12329
6560.65038,0.10119
6562.57885,0.07587
6564.50732,0.06212
6566.43578,0.08143
6568.36425,0.12987
6570.29272,0.14005
6572.22119,0.05846
6574.14966,-0.02108
6576.07813,0.04137
6578.00660,0.18463
6579.93507,0.23421
6581.86353,0.17932
6583.79200,0.10557
6585.72047,0.05836
6587.64894,0.05129
6589.57741,0.08252
6591.50588,0.11682
6593.43435,0.12302
6595.36281,0.13113
6597.29128,0.14493
6599.21975,0.13940
6601.14822,0.15159
6603.07669,0.18249
6605.00516,0.17259
6606.93363,0.11004
6608.86210,0.04199
6610.79056,0.01131
6612.71903,0.00249
6614.64750,0.00800
6616.57597,0.04575
6618.50444,0.04797
6620.43291,-0.01127
6622.36138,-0.01142
6624.28984,0.07918
6626.21831,0.12904
6628.14678,0.07651
6630.07525,0.02054
6632.00372,0.03591
6633.93219,0.05053
6635.86066,0.03136
6637.78912,0.02335
6639.71759,0.04099
6641.64606,0.07472
6643.57453,0.10400
6645.50300,0.09624
6647.43147,0.04982
6649.35994,0.01666
6651.28841,0.05750
6653.21687,0.11458
6655.14534,0.07019
6657.07381,0.00868
6659.00228,0.06191
6660.93075,0.10310
6662.85922,0.05375
6664.78769,0.01643
6666.71615,0.07121
6668.64462,0.18895
6670.57309,0.24844
6672.50156,0.15587
6674.43003,0.03123
6676.35850,0.02975
6678.28697,0.10147
6680.21544,0.17534
6682.14390,0.24231
6684.07237,0.25038
6686.00084,0.16850
6687.92931,0.10107
6689.85778,0.10035
6691.78625,0.04677
6693.71472,-0.04653
6695.64318,-0.06209
6697.57165,0.01230
6699.50012,0.08858
6701.42859,0.15003
6703.35706,0.21979
6705.28553,0.26251
6707.21400,0.23440
6709.14247,0.13272
6711.07093,0.05588
6712.99940,0.08333
6714.92787,0.08921
6716.85634,-0.03661
6718.78481,-0.12597
6720.71328,-0.03289
6722.64175,0.09268
6724.57021,0.07283
6726.49868,-0.02927
6728.42715,-0.09701
6730.35562,-0.11262
6732.28409,-0.05234
6734.21256,0.08154
6736.14103,0.16860
6738.06950,0.16494
6739.99796,0.12221
6741.92643,0.04438
6743.85490,-0.01164
6745.78337,-0.01297
6747.71184,0.01930
6749.64031,0.08100
6751.56878,0.10399
6753.49724,0.07172
6755.42571,0.06918
6757.35418,0.08087
6759.28265,0.04225
6761.21112,0.01502
6763.13959,0.05889
6765.06806,0.10889
6766.99653,0.15457
6768.92499,0.17661
6770.85346,0.11854
6772.78193,0.08088
6774.71040,0.15899
6776.63887,0.23610
6778.56734,0.19306
6780.49581,0.08112
6782.42427,0.01646
6784.35274,0.06107
6786.28121,0.13691
6788.20968,0.15705
6790.13815,0.10295
6792.06662,0.02481
6793.99509,0.05026
6795.92355,0.13721
6797.85202,0.10621
6799.78049,-0.00291
6801.70896,0.01170
6803.63743,0.12486
6805.56590,0.10923
6807.49437,0.00362
6809.42284,-0.03392
6811.35130,-0.05484
6813.27977,-0.13279
6815.20824,-0.15613
6817.13671,-0.10638
6819.06518,-0.05542
6820.99365,0.00620
6822.92212,0.05747
6824.85058,0.06922
6826.77905,0.05774
6828.70752,0.04868
6830.63599,0.10552
6832.56446,0.16145
6834.49293,0.14354
6836.42140,0.13913
6838.34987,0.14299
6840.27833,0.08192
6842.20680,0.01531
6844.13527,-0.02341
6846.06374,-0.04836
6847.99221,-0.02621
6849.92068,0.08479
6851.84915,0.16862
6853.77761,0.17286
6855.70608,0.17934
6857.63455,0.15318
6859.56302,0.09502
6861.49149,0.12127
6863.41996,0.18983
6865.34843,0.18212
6867.27690,0.18295
6869.20536,0.26092
6871.13383,0.30130
6873.06230,0.25382
6874.99077,0.19701
6876.91924,0.19539
6878.84771,0.22115
6880.77618,0.15914
6882.70464,0.02203
6884.63311,-0.05002
6886.56158,-0.01508
6888.49005,0.05173
6890.41852,0.06619
6892.34699,0.01650
6894.27546,-0.01535
6896.20393,0.05200
6898.13239,0.14951
6900.06086,0.13086
6901.98933,0.03855
6903.91780,-0.02216
6905.84627,-0.03772
6907.77474,-0.00273
6909.70321,0.06138
6911.63167,0.06132
6913.56014,0.00894
6915.48861,0.01458
6917.41708,0.09073
6919.34555,0.17494
6921.27402,0.22123
6923.20249,0.27301
6925.13096,0.31970
6927.05942,0.25569
6928.98789,0.10351
6930.91636,0.02989
6932.84483,0.07425
6934.77330,0.13551
6936.70177,0.16449
6938.63024,0.15717
6940.55870,0.14238
6942.48717,0.11798
6944.41564,0.05254
6946.34411,0.01820
6948.27258,0.04322
6950.20105,0.04742
6952.12952,0.05607
6954.05799,0.12038
6955.98645,0.14904
6957.91492,0.09413
6959.84339,0.05454
6961.77186,0.03359
6963.70033,-0.00558
6965.62880,-0.01730
6967.55727,0.02716
6969.48573,0.12867
6971.41420,0.26934
6973.34267,0.37223
6975.27114,0.38260
6977.19961,0.29812
6979.12808,0.15161
6981.05655,0.06532
6982.98501,0.13025
6984.91348,0.24814
6986.84195,0.25609
6988.77042,0.15060
6990.69889,0.10131
6992.62736,0.10076
6994.55583,0.02343
6996.48430,-0.07830
6998.41276,-0.11816
7000.34123,-0.14408
7002.26970,-0.18683
7004.19817,-0.20483
7006.12664,-0.15608
7008.05511,-0.03374
7009.98358,0.07280
7011.91204,0.12030
7013.84051,0.15807
7015.76898,0.21964
7017.69745,0.28145
7019.62592,0.25973
7021.55439,0.13571
7023.48286,0.01433
7025.41133,-0.06373
7027.33979,-0.12140
7029.26826,-0.05428
7031.19673,0.10272
7033.12520,0.13521
7035.05367,0.06723
7036.98214,0.00491
7038.91061,-0.09196
7040.83907,-0.18348
7042.76754,-0.20569
7044.69601,-0.18493
7046.62448,-0.07493
7048.55295,0.07534
7050.48142,0.09166
7052.40989,0.05537
7054.33836,0.11358
7056.26682,0.17156
7058.19529,0.16462
7060.12376,0.19426
7062.05223,0.21217
7063.98070,0.12225
7065.90917,-0.01188
7067.83764,-0.06949
7069.76610,-0.03056
7071.69457,-0.03873
7073.62304,-0.14913
7075.55151,-0.16306
7077.47998,0.02096
7079.40845,0.19104
7081.33692,0.06579
7083.26539,-0.07389
7085.19385,0.00735
7087.12232,0.04225
7089.05079,-0.08690
7090.97926,-0.13364
7092.90773,-0.01354
7094.83620,0.09262
7096.76467,0.07659
7098.69313,-0.00572
7100.62160,-0.05929
7102.55007,-0.02121
7104.47854,0.08189
7106.40701,0.09243
7108.33548,0.00860
7110.26395,0.01788
7112.19242,0.10355
7114.12088,0.13413
7116.04935,0.15134
7117.97782,0.25096
7119.90629,0.34663
7121.83476,0.34964
7123.76323,0.27314
7125.69170,0.14067
7127.62016,0.02795
7129.54863,0.02800
7131.47710,0.06692
7133.40557,0.04016
7135.33404,0.06992
7137.26251,0.22719
7139.19098,0.32876
7141.11944,0.23184
7143.04791,0.07336
7144.97638,0.00439
7146.90485,-0.00299
7148.83332,-0.03553
7150.76179,-0.11750
7152.69026,-0.15721
7154.61873,-0.03482
7156.54719,0.10902
7158.47566,0.13257
7160.40413,0.07522
7162.33260,0.02553
7164.26107,0.03522
7166.18954,0.04525
7168.11801,-0.01599
7170.04647,-0.17612
7171.97494,-0.34870
7173.90341,-0.31248
7175.83188,-0.06343
7177.76035,0.12850
7179.68882,0.16786
7181.61729,0.13426
7183.54576,0.02957
7185.47422,-0.04330
7187.40269,-0.08681
7189.33116,-0.12356
7191.25963,-0.01854
7193.18810,0.14317
7195.11657,0.15774
7197.04504,0.07255
7198.97350,0.03127
7200.90197,0.08067
7202.83044,0.15201
7204.75891,0.14688
7206.68738,0.13296
7208.61585,0.22578
7210.54432,0.31228
7212.47279,0.28971
7214.40125,0.19187
7216.32972,0.08867
7218.25819,0.02288
7220.18666,-0.00402
7222.11513,0.05918
7224.04360,0.17020
7225.97207,0.17587
7227.90053,0.06688
7229.82900,-0.04666
7231.75747,-0.08669
7233.68594,-0.08479
7235.61441,-0.10726
7237.54288,-0.08114
7239.47135,0.10014
7241.39982,0.34962
7243.32828,0.36534
7245.25675,0.10471
7247.18522,-0.15591
7249.11369,-0.26505
7251.04216,-0.18093
7252.97063,-0.05380
7254.89910,0.00026
7256.82756,0.06059
7258.75603,0.14928
7260.68450,0.19708
7262.61297,0.17609
7264.54144,0.17291
7266.46991,0.17877
7268.39838,0.15885
7270.32685,0.10907
7272.25531,0.07661
7274.18378,0.11608
7276.11225,0.13960
7278.04072,0.15437
7279.96919,0.22214
7281.89766,0.17806
7283.82613,-0.00417
7285.75459,-0.09334
7287.68306,-0.02310
7289.61153,0.12256
7291.54000,0.19799
7293.46847,0.12546
7295.39694,-0.00061
7297.32541,-0.12913
7299.25387,-0.19195
7301.18234,-0.12857
7303.11081,0.03360
7305.03928,0.25042
7306.96775,0.40363
7308.89622,0.31080
7310.82469,0.08227
7312.75316,-0.03577
7314.68162,-0.10064
7316.61009,-0.18345
7318.53856,-0.13619
7320.46703,0.08613
7322.39550,0.27669
7324.32397,0.29299
7326.25244,0.26383
7328.18090,0.24176
7330.10937,0.12060
7332.03784,0.03572
7333.96631,0.10278
7335.89478,0.17685
7337.82325,0.12958
7339.75172,-0.06916
7341.68019,-0.19920
7343.60865,-0.16101
7345.53712,-0.04363
7347.46559,0.08270
7349.39406,0.12537
7351.32253,0.18552
7353.25100,0.28925
7355.17947,0.27116
7357.10793,0.12673
7359.03640,0.04998
7360.96487,0.12104
7362.89334,0.25065
7364.82181,0.33692
7366.75028,0.31355
7368.67875,0.26713
7370.60722,0.25232
7372.53568,0.23109
7374.46415,0.27500
7376.39262,0.38235
7378.32109,0.40225
7380.24956,0.38992
7382.17803,0.34138
7384.10650,0.22893
7386.03496,0.08834
7387.96343,-0.03421
7389.89190,-0.07871
7391.82037,-0.08053
7393.74884,-0.09757
7395.67731,-0.13154
7397.60578,-0.09877
7399.53425,0.04229
7401.46271,0.17994
7403.39118,0.22544
7405.31965,0.12939
7407.24812,0.00578
7409.17659,0.03069
7411.10506,0.15784
7413.03353,0.20074
7414.96199,0.11645
7416.89046,0.06950
7418.81893,0.27306
7420.74740,0.49099
7422.67587,0.41342
7424.60434,0.18437
7426.53281,-0.04054
7428.46128,-0.09936
7430.38974,0.06659
7432.31821,0.10070
7434.24668,0.02710
7436.17515,0.13302
7438.10362,0.24854
7440.03209,0.14634
7441.96056,-0.04609
7443.88902,-0.09241
7445.81749,-0.01707
7447.74596,0.02429
7449.67443,-0.02114
7451.60290,-0.02869
7453.53137,0.09219
7455.45984,0.16988
7457.38831,0.19406
7459.31677,0.24647
7461.24524,0.24340
7463.17371,0.16674
7465.10218,0.14336
7467.03065,0.10212
7468.95912,0.01696
7470.88759,0.02647
7472.81605,-0.00821
7474.74452,-0.22829
7476.67299,-0.33332
7478.60146,-0.03070
7480.52993,0.43745
7482.45840,0.53485
7484.38687,0.28847
7486.31533,0.12883
7488.24380,0.10122
7490.17227,-0.00742
7492.10074,-0.11180
7494.02921,-0.11375
7495.95768,-0.07669
7497.88615,0.02031
