399.19301,2.41950
401.12148,0.90497
403.04995,0.61651
404.97842,0.34395
406.90689,0.00813
408.83536,-0.20741
410.76382,-0.18561
412.69229,-0.09281
414.62076,-0.02292
416.54923,0.16726
418.47770,0.44234
420.40617,0.35564
422.33464,0.07876
424.26311,-0.00783
426.19157,0.02709
428.12004,-0.01691
430.04851,-0.07117
431.97698,-0.01571
433.90545,0.05186
435.83392,0.11864
437.76239,0.21128
439.69085,0.24408
441.61932,0.12310
443.54779,-0.06087
445.47626,-0.14362
447.40473,-0.14071
449.33320,-0.06521
451.26167,0.03841
453.19013,0.07113
455.11860,0.04821
457.04707,0.07477
458.97554,0.14912
460.90401,0.14414
462.83248,0.07945
464.76095,0.04738
466.68942,0.00569
468.61788,-0.07028
470.54635,-0.09953
472.47482,-0.03941
474.40329,0.08240
476.33176,0.11098
478.26023,0.08443
480.18870,0.09558
482.11716,0.15321
484.04563,0.22089
485.97410,0.24024
487.90257,0.21989
489.83104,0.18928
491.75951,0.13183
493.68798,0.08609
495.61645,0.09257
497.54491,0.09720
499.47338,0.06704
501.40185,0.06282
503.33032,0.08817
505.25879,0.08275
507.18726,0.06789
509.11573,0.08384
511.04419,0.11263
512.97266,0.10734
514.90113,0.05142
516.82960,0.01384
518.75807,0.06043
520.68654,0.14297
522.61501,0.18240
524.54348,0.14508
526.47194,0.08460
528.40041,0.06809
530.32888,0.09024
532.25735,0.11988
534.18582,0.14048
536.11429,0.16861
538.04276,0.17249
539.97122,0.11734
541.89969,0.06424
543.82816,0.07896
545.75663,0.13248
547.68510,0.16492
549.61357,0.16962
551.54204,0.14812
553.47051,0.11513
555.39897,0.09287
557.32744,0.07501
559.25591,0.07864
561.18438,0.10287
563.11285,0.11870
565.04132,0.12381
566.96979,0.11005
568.89825,0.09447
570.82672,0.11014
572.75519,0.13066
574.68366,0.12434
576.61213,0.10827
578.54060,0.10359
580.46907,0.08738
582.39754,0.05237
584.32600,0.04684
586.25447,0.07443
588.18294,0.08968
590.11141,0.09412
592.03988,0.11691
593.96835,0.14091
595.89682,0.12719
597.82528,0.09887
599.75375,0.10401
601.68222,0.13199
603.61069,0.13941
605.53916,0.11020
607.46763,0.08127
609.39610,0.09331
611.32456,0.12328
613.25303,0.12523
615.18150,0.10309
617.10997,0.09395
619.03844,0.09651
620.96691,0.09320
622.89538,0.09787
624.82385,0.11334
626.75231,0.12027
628.68078,0.10918
630.60925,0.09634
632.53772,0.10442
634.46619,0.12825
636.39466,0.13677
638.32313,0.12397
640.25159,0.12280
642.18006,0.13703
644.10853,0.13630
646.03700,0.12636
647.96547,0.12763
649.89394,0.13144
651.82241,0.12162
653.75088,0.10816
655.67934,0.10140
657.60781,0.09832
659.53628,0.10619
661.46475,0.12100
663.39322,0.13240
665.32169,0.13960
667.25016,0.13475
669.17862,0.13025
671.10709,0.14450
673.03556,0.15865
674.96403,0.15662
676.89250,0.12500
678.82097,0.09601
680.74944,0.10275
682.67791,0.11946
684.60637,0.12538
686.53484,0.12937
688.46331,0.13442
690.39178,0.14092
692.32025,0.14871
694.24872,0.14690
696.17719,0.13843
698.10565,0.14184
700.03412,0.14964
701.96259,0.14506
703.89106,0.14031
705.81953,0.15128
707.74800,0.16872
709.67647,0.17973
711.60494,0.18202
713.53340,0.17297
715.46187,0.16073
717.39034,0.15051
719.31881,0.13372
721.24728,0.12052
723.17575,0.12402
725.10422,0.13644
727.03268,0.14362
728.96115,0.13846
730.88962,0.13253
732.81809,0.13345
734.74656,0.13296
736.67503,0.13359
738.60350,0.13837
740.53197,0.13754
742.46043,0.13734
744.38890,0.14661
746.31737,0.15125
748.24584,0.15067
750.17431,0.15395
752.10278,0.15307
754.03125,0.15575
755.95971,0.17025
757.88818,0.17171
759.81665,0.15266
761.74512,0.13349
763.67359,0.12230
765.60206,0.12032
767.53053,0.13199
769.45900,0.14660
771.38746,0.14591
773.31593,0.13298
775.24440,0.11992
777.17287,0.11640
779.10134,0.12677
781.02981,0.14036
782.95828,0.14808
784.88674,0.14557
786.81521,0.13290
788.74368,0.12293
790.67215,0.12473
792.60062,0.13075
794.52909,0.13125
796.45756,0.13059
798.38602,0.13537
800.31449,0.13959
802.24296,0.13144
804.17143,0.11542
806.09990,0.11576
808.02837,0.13635
809.95684,0.15200
811.88531,0.14990
813.81377,0.13872
815.74224,0.13029
817.67071,0.12855
819.59918,0.12867
821.52765,0.12781
823.45612,0.12916
825.38459,0.13241
827.31305,0.13072
829.24152,0.12330
831.16999,0.11806
833.09846,0.12110
835.02693,0.13022
836.95540,0.13792
838.88387,0.14112
840.81234,0.14107
842.74080,0.13982
844.66927,0.13700
846.59774,0.13563
848.52621,0.14334
850.45468,0.15392
852.38315,0.15433
854.31162,0.14301
856.24008,0.12717
858.16855,0.12194
860.09702,0.13608
862.02549,0.14936
863.95396,0.14361
865.88243,0.13281
867.81090,0.13541
869.73937,0.14683
871.66783,0.14233
873.59630,0.12099
875.52477,0.11072
877.45324,0.11527
879.38171,0.11595
881.31018,0.11219
883.23865,0.11688
885.16711,0.12558
887.09558,0.13467
889.02405,0.14867
890.95252,0.15553
892.88099,0.14948
894.80946,0.14243
896.73793,0.14401
898.66640,0.15326
900.59486,0.16160
902.52333,0.16308
904.45180,0.16130
906.38027,0.16113
908.30874,0.15823
910.23721,0.15453
912.16568,0.15988
914.09414,0.16689
916.02261,0.16449
917.95108,0.15646
919.87955,0.14922
921.80802,0.14689
923.73649,0.14958
925.66496,0.15280
927.59343,0.15186
929.52189,0.14751
931.45036,0.14518
933.37883,0.14709
935.30730,0.15137
937.23577,0.15275
939.16424,0.14872
941.09271,0.14237
943.02117,0.14028
944.94964,0.14626
946.87811,0.15356
948.80658,0.15547
950.73505,0.15338
952.66352,0.15016
954.59199,0.14541
956.52045,0.13921
958.44892,0.13743
960.37739,0.14340
962.30586,0.15023
964.23433,0.15364
966.16280,0.15561
968.09127,0.15152
970.01974,0.14293
971.94820,0.14421
973.87667,0.15361
975.80514,0.15711
977.73361,0.15446
979.66208,0.14831
981.59055,0.14035
983.51902,0.13880
985.44748,0.14383
987.37595,0.14647
989.30442,0.14332
991.23289,0.13820
993.16136,0.13563
995.08983,0.13748
997.01830,0.13739
998.94677,0.13309
1000.87523,0.13492
1002.80370,0.14441
1004.73217,0.15713
1006.66064,0.16900
1008.58911,0.16957
1010.51758,0.15830
1012.44605,0.14221
1014.37451,0.12727
1016.30298,0.12455
1018.23145,0.13226
1020.15992,0.14132
1022.08839,0.15141
1024.01686,0.15625
1025.94533,0.15389
1027.87380,0.15183
1029.80226,0.15336
1031.73073,0.15382
1033.65920,0.14968
1035.58767,0.14698
1037.51614,0.14632
1039.44461,0.14582
1041.37308,0.14800
1043.30154,0.15212
1045.23001,0.15686
1047.15848,0.16032
1049.08695,0.16039
1051.01542,0.15842
1052.94389,0.16317
1054.87236,0.17261
1056.80083,0.16874
1058.72929,0.15109
1060.65776,0.13997
1062.58623,0.14731
1064.51470,0.16119
1066.44317,0.16979
1068.37164,0.17615
1070.30011,0.17695
1072.22857,0.17259
1074.15704,0.16869
1076.08551,0.16394
1078.01398,0.16244
1079.94245,0.16306
1081.87092,0.16251
1083.79939,0.16797
1085.72786,0.17495
1087.65632,0.16949
1089.58479,0.15693
1091.51326,0.15466
1093.44173,0.15943
1095.37020,0.15933
1097.29867,0.15874
1099.22714,0.16110
1101.15560,0.16245
1103.08407,0.15923
1105.01254,0.15282
1106.94101,0.15098
1108.86948,0.15588
1110.79795,0.16233
1112.72642,0.16608
1114.65489,0.16571
1116.58335,0.15949
1118.51182,0.15178
1120.44029,0.15184
1122.36876,0.15803
1124.29723,0.16197
1126.22570,0.16113
1128.15417,0.15960
1130.08263,0.15802
1132.01110,0.15586
1133.93957,0.15801
1135.86804,0.16032
1137.79651,0.15805
1139.72498,0.15859
1141.65345,0.16191
1143.58191,0.16068
1145.51038,0.15702
1147.43885,0.15890
1149.36732,0.16635
1151.29579,0.17244
1153.22426,0.17462
1155.15273,0.17447
1157.08120,0.17319
1159.00966,0.17101
1160.93813,0.17032
1162.86660,0.17268
1164.79507,0.17396
1166.72354,0.17280
1168.65201,0.17101
1170.58048,0.16597
1172.50894,0.15703
1174.43741,0.15295
1176.36588,0.15906
1178.29435,0.16490
1180.22282,0.16186
1182.15129,0.15619
1184.07976,0.15341
1186.00823,0.15104
1187.93669,0.15099
1189.86516,0.15759
1191.79363,0.16605
1193.72210,0.16928
1195.65057,0.16966
1197.57904,0.17084
1199.50751,0.17025
1201.43597,0.16813
1203.36444,0.16670
1205.29291,0.16653
1207.22138,0.16826
1209.14985,0.17313
1211.07832,0.17882
1213.00679,0.17691
1214.93526,0.16865
1216.86372,0.16397
1218.79219,0.16551
1220.72066,0.16766
1222.64913,0.16506
1224.57760,0.16137
1226.50607,0.16026
1228.43454,0.16115
1230.36300,0.16550
1232.29147,0.17111
1234.21994,0.17227
1236.14841,0.16918
1238.07688,0.16719
1240.00535,0.16676
1241.93382,0.16535
1243.86229,0.16606
1245.79075,0.17014
1247.71922,0.17399
1249.64769,0.17556
1251.57616,0.17285
1253.50463,0.16760
1255.43310,0.16578
1257.36157,0.16733
1259.29003,0.16706
1261.21850,0.16272
1263.14697,0.15867
1265.07544,0.16035
1267.00391,0.16472
1268.93238,0.16877
1270.86085,0.17518
1272.78932,0.17938
1274.71778,0.17697
1276.64625,0.17331
1278.57472,0.17054
1280.50319,0.16551
1282.43166,0.16010
1284.36013,0.15868
1286.28860,0.16110
1288.21706,0.16606
1290.14553,0.17079
1292.07400,0.17069
1294.00247,0.16625
1295.93094,0.16220
1297.85941,0.16269
1299.78788,0.16551
1301.71634,0.16126
1303.64481,0.14910
1305.57328,0.14499
1307.50175,0.15662
1309.43022,0.16915
1311.35869,0.17199
1313.28716,0.17042
1315.21563,0.16860
1317.14409,0.16579
1319.07256,0.16345
1321.00103,0.16368
1322.92950,0.16522
1324.85797,0.16533
1326.78644,0.16522
1328.71491,0.16636
1330.64337,0.16357
1332.57184,0.16055
1334.50031,0.16665
1336.42878,0.17581
1338.35725,0.17915
1340.28572,0.17370
1342.21419,0.16132
1344.14266,0.15013
1346.07112,0.14784
1347.99959,0.15687
1349.92806,0.16619
1351.85653,0.16672
1353.78500,0.16438
1355.71347,0.16354
1357.64194,0.16620
1359.57040,0.17293
1361.49887,0.17860
1363.42734,0.18050
1365.35581,0.18172
1367.28428,0.18213
1369.21275,0.17858
1371.14122,0.17673
1373.06969,0.18322
1374.99815,0.18858
1376.92662,0.18421
1378.85509,0.17923
1380.78356,0.17900
1382.71203,0.18103
1384.64050,0.18438
1386.56897,0.18747
1388.49743,0.18480
1390.42590,0.17940
1392.35437,0.17990
1394.28284,0.18953
1396.21131,0.20034
1398.13978,0.19862
1400.06825,0.18725
1401.99672,0.18176
1403.92518,0.18443
1405.85365,0.18572
1407.78212,0.18367
1409.71059,0.18413
1411.63906,0.18597
1413.56753,0.18713
1415.49600,0.19221
1417.42446,0.20248
1419.35293,0.20348
1421.28140,0.19223
1423.20987,0.18707
1425.13834,0.18674
1427.06681,0.18553
1428.99528,0.18644
1430.92375,0.18852
1432.85221,0.19069
1434.78068,0.19698
1436.70915,0.20249
1438.63762,0.19638
1440.56609,0.18600
1442.49456,0.17990
1444.42303,0.18185
1446.35149,0.18836
1448.27996,0.19013
1450.20843,0.18848
1452.13690,0.19314
1454.06537,0.20401
1455.99384,0.21463
1457.92231,0.21118
1459.85077,0.19742
1461.77924,0.19260
1463.70771,0.19652
1465.63618,0.19665
1467.56465,0.19035
1469.49312,0.19080
1471.42159,0.19861
1473.35006,0.20344
1475.27852,0.20165
1477.20699,0.19723
1479.13546,0.19443
1481.06393,0.19375
1482.99240,0.19240
1484.92087,0.19684
1486.84934,0.20895
1488.77780,0.21554
1490.70627,0.20509
1492.63474,0.19321
1494.56321,0.19296
1496.49168,0.20075
1498.42015,0.20241
1500.34862,0.19525
1502.27709,0.19358
1504.20555,0.20586
1506.13402,0.23023
1508.06249,0.23480
1509.99096,0.21853
1511.91943,0.20682
1513.84790,0.20495
1515.77637,0.21023
1517.70483,0.21290
1519.63330,0.21824
1521.56177,0.23032
1523.49024,0.22981
1525.41871,0.21896
1527.34718,0.20783
1529.27565,0.20110
1531.20412,0.20257
1533.13258,0.20938
1535.06105,0.21127
1536.98952,0.21466
1538.91799,0.23177
1540.84646,0.24650
1542.77493,0.23292
1544.70340,0.21322
1546.63186,0.20127
1548.56033,0.20104
1550.48880,0.20435
1552.41727,0.20387
1554.34574,0.20369
1556.27421,0.21406
1558.20268,0.23443
1560.13115,0.21915
1562.05961,0.19842
1563.98808,0.19178
1565.91655,0.18888
1567.84502,0.19262
1569.77349,0.19894
1571.70196,0.19586
1573.63043,0.19514
1575.55889,0.20159
1577.48736,0.19669
1579.41583,0.18500
1581.34430,0.18206
1583.27277,0.18348
1585.20124,0.18404
1587.12971,0.18435
1589.05818,0.18325
1590.98664,0.18199
1592.91511,0.18252
1594.84358,0.18285
1596.77205,0.18157
1598.70052,0.17884
1600.62899,0.17805
1602.55746,0.18295
1604.48592,0.18898
1606.41439,0.18969
1608.34286,0.18796
1610.27133,0.18817
1612.19980,0.19062
1614.12827,0.19856
1616.05674,0.20936
1617.98521,0.20555
1619.91367,0.19756
1621.84214,0.20085
1623.77061,0.20882
1625.69908,0.20959
1627.62755,0.20212
1629.55602,0.19378
1631.48449,0.19417
1633.41295,0.20462
1635.34142,0.21983
1637.26989,0.21728
1639.19836,0.20433
1641.12683,0.19775
1643.05530,0.19912
1644.98377,0.21183
1646.91223,0.22769
1648.84070,0.22482
1650.76917,0.22548
1652.69764,0.24304
1654.62611,0.23650
1656.55458,0.21529
1658.48305,0.20572
1660.41152,0.20400
1662.33998,0.20351
1664.26845,0.20018
1666.19692,0.20138
1668.12539,0.21253
1670.05386,0.22214
1671.98233,0.21865
1673.91080,0.21445
1675.83926,0.20980
1677.76773,0.20655
1679.69620,0.21219
1681.62467,0.22735
1683.55314,0.24332
1685.48161,0.23326
1687.41008,0.21574
1689.33855,0.20559
1691.26701,0.19836
1693.19548,0.19995
1695.12395,0.21280
1697.05242,0.22224
1698.98089,0.21847
1700.90936,0.20971
1702.83783,0.20723
1704.76629,0.21197
1706.69476,0.21038
1708.62323,0.20089
1710.55170,0.19656
1712.48017,0.20031
1714.40864,0.21264
1716.33711,0.22878
1718.26558,0.22186
1720.19404,0.19954
1722.12251,0.18662
1724.05098,0.18155
1725.97945,0.18034
1727.90792,0.18375
1729.83639,0.19158
1731.76486,0.20216
1733.69332,0.21203
1735.62179,0.21135
1737.55026,0.20895
1739.47873,0.20872
1741.40720,0.20489
1743.33567,0.20123
1745.26414,0.20136
1747.19261,0.20478
1749.12107,0.20972
1751.04954,0.20706
1752.97801,0.19839
1754.90648,0.19479
1756.83495,0.19687
1758.76342,0.19973
1760.69189,0.20214
1762.62035,0.20136
1764.54882,0.19733
1766.47729,0.19756
1768.40576,0.20363
1770.33423,0.21107
1772.26270,0.21112
1774.19117,0.20061
1776.11964,0.19145
1778.04810,0.18846
1779.97657,0.19072
1781.90504,0.19355
1783.83351,0.19346
1785.76198,0.18970
1787.69045,0.18656
1789.61892,0.19195
1791.54738,0.20148
1793.47585,0.20099
1795.40432,0.19481
1797.33279,0.19201
1799.26126,0.19400
1801.18973,0.19619
1803.11820,0.19351
1805.04666,0.19079
1806.97513,0.19094
1808.90360,0.19179
1810.83207,0.19202
1812.76054,0.19260
1814.68901,0.19482
1816.61748,0.19834
1818.54595,0.20100
1820.47441,0.19984
1822.40288,0.19727
1824.33135,0.19600
1826.25982,0.19681
1828.18829,0.20108
1830.11676,0.20049
1832.04523,0.19261
1833.97369,0.18838
1835.90216,0.18919
1837.83063,0.19160
1839.75910,0.19374
1841.68757,0.19616
1843.61604,0.19835
1845.54451,0.19739
1847.47298,0.19458
1849.40144,0.19292
1851.32991,0.19303
1853.25838,0.19309
1855.18685,0.19122
1857.11532,0.18829
1859.04379,0.18739
1860.97226,0.18948
1862.90072,0.19146
1864.82919,0.19357
1866.75766,0.19868
1868.68613,0.20229
1870.61460,0.19847
1872.54307,0.19181
1874.47154,0.18633
1876.40001,0.18342
1878.32847,0.18328
1880.25694,0.18495
1882.18541,0.18728
1884.11388,0.18868
1886.04235,0.18949
1887.97082,0.19207
1889.89929,0.19478
1891.82775,0.19527
1893.75622,0.19598
1895.68469,0.19480
1897.61316,0.19038
1899.54163,0.18789
1901.47010,0.18744
1903.39857,0.18749
1905.32704,0.18890
1907.25550,0.18965
1909.18397,0.18810
1911.11244,0.18569
1913.04091,0.18514
1914.96938,0.18724
1916.89785,0.18974
1918.82632,0.19077
1920.75478,0.19166
1922.68325,0.19219
1924.61172,0.19016
1926.54019,0.18926
1928.46866,0.19114
1930.39713,0.19152
1932.32560,0.19004
1934.25407,0.18795
1936.18253,0.18629
1938.11100,0.18776
1940.03947,0.19185
1941.96794,0.19556
1943.89641,0.19559
1945.82488,0.19168
1947.75335,0.18886
1949.68181,0.18896
1951.61028,0.18891
1953.53875,0.18893
1955.46722,0.18936
1957.39569,0.18784
1959.32416,0.18642
1961.25263,0.18813
1963.18110,0.19085
1965.10956,0.19159
1967.03803,0.19035
1968.96650,0.18961
1970.89497,0.19042
1972.82344,0.19006
1974.75191,0.18836
1976.68038,0.18756
1978.60884,0.18743
1980.53731,0.18856
1982.46578,0.18989
1984.39425,0.18839
1986.32272,0.18634
1988.25119,0.18655
1990.17966,0.18775
1992.10812,0.18908
1994.03659,0.19063
1995.96506,0.19172
1997.89353,0.19171
1999.82200,0.19118
2001.75047,0.19041
2003.67894,0.18890
2005.60741,0.18876
2007.53587,0.19032
2009.46434,0.18974
2011.39281,0.18721
2013.32128,0.18730
2015.24975,0.19146
2017.17822,0.19501
2019.10669,0.19326
2021.03515,0.18922
2022.96362,0.18705
2024.89209,0.18651
2026.82056,0.18744
2028.74903,0.18974
2030.67750,0.19136
2032.60597,0.19084
2034.53444,0.18891
2036.46290,0.18782
2038.39137,0.18815
2040.31984,0.18935
2042.24831,0.19082
2044.17678,0.19119
2046.10525,0.19049
2048.03372,0.18953
2049.96218,0.19044
2051.89065,0.19290
2053.81912,0.19286
2055.74759,0.19203
2057.67606,0.19309
2059.60453,0.19320
2061.53300,0.19252
2063.46147,0.19403
2065.38993,0.19571
2067.31840,0.19518
2069.24687,0.19397
2071.17534,0.19148
2073.10381,0.18829
2075.03228,0.18778
2076.96075,0.18849
2078.88921,0.18777
2080.81768,0.18728
2082.74615,0.18740
2084.67462,0.18655
2086.60309,0.18624
2088.53156,0.18996
2090.46003,0.19693
2092.38850,0.20067
2094.31696,0.19879
2096.24543,0.19516
2098.17390,0.19134
2100.10237,0.18719
2102.03084,0.18544
2103.95931,0.18764
2105.88778,0.19005
2107.81624,0.19032
2109.74471,0.18886
2111.67318,0.18506
2113.60165,0.18193
2115.53012,0.18313
2117.45859,0.18652
2119.38706,0.18844
2121.31553,0.18893
2123.24399,0.18979
2125.17246,0.19025
2127.10093,0.18891
2129.02940,0.18836
2130.95787,0.19220
2132.88634,0.19742
2134.81481,0.19764
2136.74327,0.19365
2138.67174,0.19076
2140.60021,0.19011
2142.52868,0.18974
2144.45715,0.18917
2146.38562,0.19006
2148.31409,0.19280
2150.24255,0.19534
2152.17102,0.19537
2154.09949,0.19274
2156.02796,0.19001
2157.95643,0.18863
2159.88490,0.18936
2161.81337,0.19182
2163.74184,0.19259
2165.67030,0.19166
2167.59877,0.19172
2169.52724,0.19253
2171.45571,0.19244
2173.38418,0.19135
2175.31265,0.19214
2177.24112,0.19504
2179.16958,0.19541
2181.09805,0.19237
2183.02652,0.19083
2184.95499,0.19243
2186.88346,0.19385
2188.81193,0.19342
2190.74040,0.19101
2192.66887,0.18845
2194.59733,0.18915
2196.52580,0.19152
2198.45427,0.19172
2200.38274,0.18995
2202.31121,0.18859
2204.23968,0.18933
2206.16815,0.19103
2208.09661,0.19058
2210.02508,0.18869
2211.95355,0.18861
2213.88202,0.18941
2215.81049,0.18976
2217.73896,0.19163
2219.66743,0.19453
2221.59590,0.19439
2223.52436,0.19014
2225.45283,0.18620
2227.38130,0.18623
2229.30977,0.18774
2231.23824,0.18803
2233.16671,0.18935
2235.09518,0.19224
2237.02364,0.19421
2238.95211,0.19518
2240.88058,0.19572
2242.80905,0.19560
2244.73752,0.19523
2246.66599,0.19419
2248.59446,0.19267
2250.52293,0.19182
2252.45139,0.19009
2254.37986,0.18880
2256.30833,0.19131
2258.23680,0.19380
2260.16527,0.19344
2262.09374,0.19343
2264.02221,0.19448
2265.95067,0.19428
2267.87914,0.19202
2269.80761,0.18978
2271.73608,0.18963
2273.66455,0.19140
2275.59302,0.19276
2277.52149,0.19145
2279.44996,0.18853
2281.37842,0.18747
2283.30689,0.18971
2285.23536,0.19113
2287.16383,0.18861
2289.09230,0.18564
2291.02077,0.18460
2292.94924,0.18590
2294.87770,0.18993
2296.80617,0.19407
2298.73464,0.19705
2300.66311,0.19831
2302.59158,0.19695
2304.52005,0.19777
2306.44852,0.20354
2308.37699,0.20647
2310.30545,0.20167
2312.23392,0.19602
2314.16239,0.19540
2316.09086,0.19748
2318.01933,0.20001
2319.94780,0.20490
2321.87627,0.20820
2323.80473,0.20254
2325.73320,0.19783
2327.66167,0.20341
2329.59014,0.20836
2331.51861,0.20624
2333.44708,0.20439
2335.37555,0.21351
2337.30401,0.23351
2339.23248,0.24059
2341.16095,0.23186
2343.08942,0.22780
2345.01789,0.22384
2346.94636,0.21487
2348.87483,0.20695
2350.80330,0.20343
2352.73176,0.20482
2354.66023,0.20948
2356.58870,0.22371
2358.51717,0.23930
2360.44564,0.23465
2362.37411,0.21951
2364.30258,0.21036
2366.23104,0.21021
2368.15951,0.21348
2370.08798,0.21217
2372.01645,0.20708
2373.94492,0.20198
2375.87339,0.20020
2377.80186,0.20085
2379.73033,0.19802
2381.65879,0.19362
2383.58726,0.19260
2385.51573,0.19414
2387.44420,0.19473
2389.37267,0.19212
2391.30114,0.18930
2393.22961,0.18865
2395.15807,0.18850
2397.08654,0.18944
2399.01501,0.19122
2400.94348,0.19157
2402.87195,0.19082
2404.80042,0.18890
2406.72889,0.18637
2408.65736,0.18733
2410.58582,0.19084
2412.51429,0.19232
2414.44276,0.19228
2416.37123,0.19216
2418.29970,0.19194
2420.22817,0.19175
2422.15664,0.19047
2424.08510,0.18770
2426.01357,0.18561
2427.94204,0.18631
2429.87051,0.18981
2431.79898,0.19213
2433.72745,0.19003
2435.65592,0.18820
2437.58439,0.19011
2439.51285,0.19154
2441.44132,0.19011
2443.36979,0.18964
2445.29826,0.19110
2447.22673,0.19024
2449.15520,0.18904
2451.08367,0.19157
2453.01213,0.19345
2454.94060,0.19198
2456.86907,0.19024
2458.79754,0.18945
2460.72601,0.18966
2462.65448,0.18954
2464.58295,0.18782
2466.51142,0.18765
2468.43988,0.19033
2470.36835,0.19238
2472.29682,0.19167
2474.22529,0.18912
2476.15376,0.18747
2478.08223,0.19020
2480.01070,0.19686
2481.93916,0.20079
2483.86763,0.19786
2485.79610,0.19233
2487.72457,0.18959
2489.65304,0.19038
2491.58151,0.19279
2493.50998,0.19456
2495.43844,0.19447
2497.36691,0.19430
2499.29538,0.19563
2501.22385,0.19669
2503.15232,0.19542
2505.08079,0.19372
2507.00926,0.19321
2508.93773,0.19161
2510.86619,0.18924
2512.79466,0.18669
2514.72313,0.18333
2516.65160,0.18205
2518.58007,0.18413
2520.50854,0.18732
2522.43701,0.19012
2524.36547,0.19246
2526.29394,0.19309
2528.22241,0.19165
2530.15088,0.19138
2532.07935,0.19312
2534.00782,0.19418
2535.93629,0.19396
2537.86476,0.19376
2539.79322,0.19453
2541.72169,0.19501
2543.65016,0.19267
2545.57863,0.19030
2547.50710,0.19141
2549.43557,0.19245
2551.36404,0.19263
2553.29250,0.19585
2555.22097,0.20051
2557.14944,0.20129
2559.07791,0.19791
2561.00638,0.19609
2562.93485,0.19729
2564.86332,0.19640
2566.79179,0.19404
2568.72025,0.19470
2570.64872,0.19639
2572.57719,0.19637
2574.50566,0.19540
2576.43413,0.19504
2578.36260,0.19404
2580.29107,0.18991
2582.21953,0.18624
2584.14800,0.18684
2586.07647,0.18999
2588.00494,0.19271
2589.93341,0.19209
2591.86188,0.18896
2593.79035,0.18801
2595.71882,0.19003
2597.64728,0.19221
2599.57575,0.19336
2601.50422,0.19377
2603.43269,0.19435
2605.36116,0.19630
2607.28963,0.19804
2609.21810,0.19680
2611.14656,0.19357
2613.07503,0.19155
2615.00350,0.19204
2616.93197,0.19383
2618.86044,0.19451
2620.78891,0.19393
2622.71738,0.19536
2624.64585,0.19809
2626.57431,0.19751
2628.50278,0.19551
2630.43125,0.19532
2632.35972,0.19397
2634.28819,0.19142
2636.21666,0.19229
2638.14513,0.19535
2640.07359,0.19663
2642.00206,0.19773
2643.93053,0.19982
2645.85900,0.20026
2647.78747,0.19846
2649.71594,0.19667
2651.64441,0.19670
2653.57288,0.19773
2655.50134,0.19775
2657.42981,0.19650
2659.35828,0.19554
2661.28675,0.19611
2663.21522,0.19624
2665.14369,0.19432
2667.07216,0.19437
2669.00062,0.19744
2670.92909,0.19867
2672.85756,0.19775
2674.78603,0.19696
2676.71450,0.19712
2678.64297,0.19903
2680.57144,0.20152
2682.49990,0.20282
2684.42837,0.20205
2686.35684,0.20002
2688.28531,0.19815
2690.21378,0.19643
2692.14225,0.19654
2694.07072,0.19831
2695.99919,0.19877
2697.92765,0.19747
2699.85612,0.19518
2701.78459,0.19477
2703.71306,0.19718
2705.64153,0.19919
2707.57000,0.19891
2709.49847,0.19658
2711.42693,0.19585
2713.35540,0.19788
2715.28387,0.19942
2717.21234,0.20083
2719.14081,0.20260
2721.06928,0.20200
2722.99775,0.19913
2724.92622,0.19755
2726.85468,0.19738
2728.78315,0.19698
2730.71162,0.19805
2732.64009,0.20174
2734.56856,0.20578
2736.49703,0.20844
2738.42550,0.20869
2740.35396,0.20415
2742.28243,0.19743
2744.21090,0.19667
2746.13937,0.20122
2748.06784,0.20302
2749.99631,0.20180
2751.92478,0.19993
2753.85325,0.19770
2755.78171,0.19795
2757.71018,0.20100
2759.63865,0.20370
2761.56712,0.20438
2763.49559,0.20494
2765.42406,0.20652
2767.35253,0.20856
2769.28099,0.21127
2771.20946,0.21182
2773.13793,0.21016
2775.06640,0.21036
2776.99487,0.21107
2778.92334,0.20912
2780.85181,0.20638
2782.78028,0.20662
2784.70874,0.20945
2786.63721,0.21120
2788.56568,0.21007
2790.49415,0.20794
2792.42262,0.20657
2794.35109,0.20575
2796.27956,0.20636
2798.20802,0.20756
2800.13649,0.20692
2802.06496,0.20707
2803.99343,0.20963
2805.92190,0.21120
2807.85037,0.21155
2809.77884,0.21124
2811.70731,0.20934
2813.63577,0.20934
2815.56424,0.21335
2817.49271,0.21662
2819.42118,0.21439
2821.34965,0.20829
2823.27812,0.20464
2825.20659,0.20503
2827.13505,0.20600
2829.06352,0.20748
2830.99199,0.21041
2832.92046,0.21258
2834.84893,0.21331
2836.77740,0.21503
2838.70587,0.21624
2840.63433,0.21369
2842.56280,0.20887
2844.49127,0.20543
2846.41974,0.20598
2848.34821,0.20793
2850.27668,0.20727
2852.20515,0.20546
2854.13362,0.20518
2856.06208,0.20643
2857.99055,0.20779
2859.91902,0.20791
2861.84749,0.20688
2863.77596,0.20579
2865.70443,0.20415
2867.63290,0.20309
2869.56136,0.20468
2871.48983,0.20649
2873.41830,0.20565
2875.34677,0.20428
2877.27524,0.20440
2879.20371,0.20327
2881.13218,0.20046
2883.06065,0.19937
2884.98911,0.20238
2886.91758,0.20948
2888.84605,0.21503
2890.77452,0.21403
2892.70299,0.21064
2894.63146,0.20748
2896.55993,0.20206
2898.48839,0.19769
2900.41686,0.19795
2902.34533,0.20121
2904.27380,0.20360
2906.20227,0.20304
2908.13074,0.20313
2910.05921,0.20438
2911.98768,0.20405
2913.91614,0.20209
2915.84461,0.19729
2917.77308,0.19183
2919.70155,0.19043
2921.63002,0.19145
2923.55849,0.19146
2925.48696,0.18982
2927.41542,0.19070
2929.34389,0.19747
2931.27236,0.20226
2933.20083,0.20093
2935.12930,0.19895
2937.05777,0.19888
2938.98624,0.20166
2940.91471,0.20571
2942.84317,0.20772
2944.77164,0.20296
2946.70011,0.19018
2948.62858,0.18166
2950.55705,0.18646
2952.48552,0.19697
2954.41399,0.20023
2956.34245,0.19242
2958.27092,0.18694
2960.19939,0.19448
2962.12786,0.20603
2964.05633,0.21145
2965.98480,0.20831
2967.91327,0.20257
2969.84174,0.20454
2971.77020,0.20970
2973.69867,0.21081
2975.62714,0.20848
2977.55561,0.20358
2979.48408,0.20242
2981.41255,0.20774
2983.34102,0.21315
2985.26948,0.21223
2987.19795,0.20530
2989.12642,0.20427
2991.05489,0.21325
2992.98336,0.21972
2994.91183,0.22040
2996.84030,0.22159
2998.76877,0.22062
3000.69723,0.21490
3002.62570,0.20991
3004.55417,0.20725
3006.48264,0.20330
3008.41111,0.20020
3010.33958,0.19786
3012.26805,0.18663
3014.19651,0.16379
3016.12498,0.14460
3018.05345,0.15007
3019.98192,0.17644
3021.91039,0.19846
3023.83886,0.20729
3025.76733,0.20869
3027.69579,0.20784
3029.62426,0.20888
3031.55273,0.21111
3033.48120,0.21348
3035.40967,0.21412
3037.33814,0.20905
3039.26661,0.20235
3041.19508,0.20217
3043.12354,0.20939
3045.05201,0.21489
3046.98048,0.21313
3048.90895,0.21080
3050.83742,0.21131
3052.76589,0.21136
3054.69436,0.20796
3056.62282,0.20324
3058.55129,0.20478
3060.47976,0.21196
3062.40823,0.21654
3064.33670,0.21178
3066.26517,0.20251
3068.19364,0.20307
3070.12211,0.20942
3072.05057,0.20903
3073.97904,0.20425
3075.90751,0.20055
3077.83598,0.20072
3079.76445,0.20586
3081.69292,0.20932
3083.62139,0.20093
3085.54985,0.18914
3087.47832,0.19167
3089.40679,0.20459
3091.33526,0.21391
3093.26373,0.21128
3095.19220,0.20357
3097.12067,0.20352
3099.04914,0.20706
3100.97760,0.20703
3102.90607,0.20182
3104.83454,0.19666
3106.76301,0.19786
3108.69148,0.20157
3110.61995,0.20154
3112.54842,0.20054
3114.47688,0.20578
3116.40535,0.21078
3118.33382,0.20940
3120.26229,0.20783
3122.19076,0.20963
3124.11923,0.21439
3126.04770,0.21792
3127.97617,0.21772
3129.90463,0.21580
3131.83310,0.21456
3133.76157,0.21424
3135.69004,0.21252
3137.61851,0.21059
3139.54698,0.21205
3141.47545,0.21613
3143.40391,0.21799
3145.33238,0.21605
3147.26085,0.21200
3149.18932,0.20914
3151.11779,0.21199
3153.04626,0.21643
3154.97473,0.21586
3156.90320,0.21536
3158.83166,0.22012
3160.76013,0.22461
3162.68860,0.22415
3164.61707,0.22356
3166.54554,0.22530
3168.47401,0.22386
3170.40248,0.21978
3172.33094,0.21662
3174.25941,0.21275
3176.18788,0.21171
3178.11635,0.21944
3180.04482,0.22897
3181.97329,0.22827
3183.90176,0.22100
3185.83022,0.21771
3187.75869,0.21698
3189.68716,0.21425
3191.61563,0.21263
3193.54410,0.21472
3195.47257,0.21742
3197.40104,0.21803
3199.32951,0.21576
3201.25797,0.21177
3203.18644,0.21127
3205.11491,0.21519
3207.04338,0.21813
3208.97185,0.21992
3210.90032,0.22182
3212.82879,0.22091
3214.75725,0.21748
3216.68572,0.21551
3218.61419,0.21713
3220.54266,0.21930
3222.47113,0.21867
3224.39960,0.21503
3226.32807,0.21064
3228.25654,0.21075
3230.18500,0.21505
3232.11347,0.21823
3234.04194,0.22016
3235.97041,0.22285
3237.89888,0.22313
3239.82735,0.21926
3241.75582,0.21683
3243.68428,0.21849
3245.61275,0.22039
3247.54122,0.21888
3249.46969,0.21376
3251.39816,0.20914
3253.32663,0.20731
3255.25510,0.20730
3257.18357,0.21157
3259.11203,0.21855
3261.04050,0.21958
3262.96897,0.21423
3264.89744,0.20896
3266.82591,0.20435
3268.75438,0.19978
3270.68285,0.20026
3272.61131,0.20728
3274.53978,0.21342
3276.46825,0.21240
3278.39672,0.20937
3280.32519,0.21300
3282.25366,0.21785
3284.18213,0.21540
3286.11060,0.20856
3288.03906,0.20464
3289.96753,0.20968
3291.89600,0.21671
3293.82447,0.21411
3295.75294,0.20824
3297.68141,0.20773
3299.60988,0.21043
3301.53834,0.21421
3303.46681,0.21538
3305.39528,0.21088
3307.32375,0.20584
3309.25222,0.20323
3311.18069,0.20144
3313.10916,0.20347
3315.03763,0.20864
3316.96609,0.20945
3318.89456,0.20732
3320.82303,0.20921
3322.75150,0.21288
3324.67997,0.21421
3326.60844,0.21579
3328.53691,0.22044
3330.46537,0.22445
3332.39384,0.22408
3334.32231,0.22166
3336.25078,0.21797
3338.17925,0.21433
3340.10772,0.21642
3342.03619,0.22202
3343.96466,0.22005
3345.89312,0.21166
3347.82159,0.21034
3349.75006,0.21424
3351.67853,0.21353
3353.60700,0.21162
3355.53547,0.21192
3357.46394,0.21318
3359.39240,0.21550
3361.32087,0.21749
3363.24934,0.21949
3365.17781,0.22075
3367.10628,0.21910
3369.03475,0.21887
3370.96322,0.22059
3372.89168,0.21890
3374.82015,0.21408
3376.74862,0.20909
3378.67709,0.20924
3380.60556,0.21656
3382.53403,0.22209
3384.46250,0.22288
3386.39097,0.22292
3388.31943,0.21967
3390.24790,0.21555
3392.17637,0.21420
3394.10484,0.21158
3396.03331,0.20995
3397.96178,0.21096
3399.89025,0.20850
3401.81871,0.20427
3403.74718,0.20591
3405.67565,0.21249
3407.60412,0.21737
3409.53259,0.21801
3411.46106,0.21407
3413.38953,0.20880
3415.31800,0.20796
3417.24646,0.21198
3419.17493,0.21725
3421.10340,0.21805
3423.03187,0.21310
3424.96034,0.21041
3426.88881,0.21326
3428.81728,0.21284
3430.74574,0.20428
3432.67421,0.19498
3434.60268,0.19017
3436.53115,0.18980
3438.45962,0.19509
3440.38809,0.20275
3442.31656,0.20556
3444.24503,0.20426
3446.17349,0.20707
3448.10196,0.21284
3450.03043,0.21123
3451.95890,0.20287
3453.88737,0.19561
3455.81584,0.19362
3457.74431,0.19527
3459.67277,0.19476
3461.60124,0.19221
3463.52971,0.19171
3465.45818,0.19141
3467.38665,0.19063
3469.31512,0.19321
3471.24359,0.19709
3473.17206,0.19679
3475.10052,0.19605
3477.02899,0.19944
3478.95746,0.20085
3480.88593,0.19429
3482.81440,0.18625
3484.74287,0.18776
3486.67134,0.19450
3488.59980,0.19477
3490.52827,0.19072
3492.45674,0.18898
3494.38521,0.18865
3496.31368,0.18819
3498.24215,0.18895
3500.17062,0.19368
3502.09909,0.19888
3504.02755,0.19681
3505.95602,0.19230
3507.88449,0.19223
3509.81296,0.19148
3511.74143,0.18767
3513.66990,0.18496
3515.59837,0.18308
3517.52683,0.18200
3519.45530,0.18186
3521.38377,0.18050
3523.31224,0.17984
3525.24071,0.17883
3527.16918,0.17460
3529.09765,0.17214
3531.02611,0.17220
3532.95458,0.17092
3534.88305,0.16901
3536.81152,0.16965
3538.73999,0.17229
3540.66846,0.17406
3542.59693,0.17608
3544.52540,0.17810
3546.45386,0.17711
3548.38233,0.17288
3550.31080,0.17019
3552.23927,0.17195
3554.16774,0.17219
3556.09621,0.16732
3558.02468,0.16333
3559.95314,0.16555
3561.88161,0.16954
3563.81008,0.16937
3565.73855,0.16987
3567.66702,0.17305
3569.59549,0.16960
3571.52396,0.16504
3573.45243,0.16688
3575.38089,0.17053
3577.30936,0.17253
3579.23783,0.17372
3581.16630,0.17012
3583.09477,0.16188
3585.02324,0.15708
3586.95171,0.16177
3588.88017,0.16796
3590.80864,0.16595
3592.73711,0.16136
3594.66558,0.15903
3596.59405,0.15768
3598.52252,0.15759
3600.45099,0.15988
3602.37946,0.16226
3604.30792,0.16348
3606.23639,0.16207
3608.16486,0.15869
3610.09333,0.15896
3612.02180,0.16367
3613.95027,0.16560
3615.87874,0.16266
3617.80720,0.16442
3619.73567,0.16706
3621.66414,0.15789
3623.59261,0.14891
3625.52108,0.14861
3627.44955,0.15243
3629.37802,0.15430
3631.30649,0.15449
3633.23495,0.15507
3635.16342,0.15150
3637.09189,0.14439
3639.02036,0.14101
3640.94883,0.14101
3642.87730,0.14232
3644.80577,0.15132
3646.73423,0.17064
3648.66270,0.18260
3650.59117,0.16735
3652.51964,0.15081
3654.44811,0.14381
3656.37658,0.14182
3658.30505,0.13988
3660.23352,0.13637
3662.16198,0.13306
3664.09045,0.13446
3666.01892,0.14087
3667.94739,0.14703
3669.87586,0.14914
3671.80433,0.14874
3673.73280,0.15402
3675.66126,0.15952
3677.58973,0.15158
3679.51820,0.14119
3681.44667,0.13218
3683.37514,0.12690
3685.30361,0.12977
3687.23208,0.13723
3689.16055,0.14194
3691.08901,0.13940
3693.01748,0.13331
3694.94595,0.12868
3696.87442,0.12783
3698.80289,0.13296
3700.73136,0.14176
3702.65983,0.14244
3704.58829,0.13261
3706.51676,0.12759
3708.44523,0.13548
3710.37370,0.14648
3712.30217,0.14303
3714.23064,0.13438
3716.15911,0.13248
3718.08757,0.13512
3720.01604,0.14015
3721.94451,0.14312
3723.87298,0.13788
3725.80145,0.13234
3727.72992,0.13426
3729.65839,0.14035
3731.58686,0.14931
3733.51532,0.15410
3735.44379,0.14279
3737.37226,0.13035
3739.30073,0.13436
3741.22920,0.14693
3743.15767,0.15858
3745.08614,0.15740
3747.01460,0.14371
3748.94307,0.14015
3750.87154,0.15396
3752.80001,0.15649
3754.72848,0.14512
3756.65695,0.13560
3758.58542,0.12935
3760.51389,0.12793
3762.44235,0.12966
3764.37082,0.13096
3766.29929,0.13245
3768.22776,0.13594
3770.15623,0.13847
3772.08470,0.13515
3774.01317,0.13127
3775.94163,0.13218
3777.87010,0.13776
3779.79857,0.14290
3781.72704,0.14045
3783.65551,0.13359
3785.58398,0.12817
3787.51245,0.12565
3789.44092,0.12511
3791.36938,0.12561
3793.29785,0.12742
3795.22632,0.13122
3797.15479,0.13359
3799.08326,0.13319
3801.01173,0.13359
3802.94020,0.13347
3804.86866,0.13471
3806.79713,0.13796
3808.72560,0.13426
3810.65407,0.12607
3812.58254,0.12247
3814.51101,0.12401
3816.43948,0.12729
3818.36795,0.13369
3820.29641,0.14308
3822.22488,0.14242
3824.15335,0.13487
3826.08182,0.13215
3828.01029,0.13108
3829.93876,0.13141
3831.86723,0.13685
3833.79569,0.14303
3835.72416,0.14713
3837.65263,0.15283
3839.58110,0.15549
3841.50957,0.14906
3843.43804,0.13733
3845.36651,0.12783
3847.29498,0.12511
3849.22344,0.12779
3851.15191,0.13581
3853.08038,0.14530
3855.00885,0.13573
3856.93732,0.12435
3858.86579,0.12399
3860.79426,0.12909
3862.72272,0.13279
3864.65119,0.13120
3866.57966,0.12921
3868.50813,0.13070
3870.43660,0.13079
3872.36507,0.12586
3874.29354,0.12075
3876.22200,0.11714
3878.15047,0.11442
3880.07894,0.11336
3882.00741,0.11415
3883.93588,0.11751
3885.86435,0.11912
3887.79282,0.11728
3889.72129,0.12319
3891.64975,0.13319
3893.57822,0.13073
3895.50669,0.12292
3897.43516,0.12089
3899.36363,0.12580
3901.29210,0.13322
3903.22057,0.13797
3905.14903,0.13516
3907.07750,0.12419
3909.00597,0.11236
3910.93444,0.10722
3912.86291,0.11080
3914.79138,0.11600
3916.71985,0.11706
3918.64832,0.11657
3920.57678,0.11585
3922.50525,0.11503
3924.43372,0.11637
3926.36219,0.11901
3928.29066,0.12114
3930.21913,0.12017
3932.14760,0.11335
3934.07606,0.10480
3936.00453,0.10263
3937.93300,0.11009
3939.86147,0.12137
3941.78994,0.12556
3943.71841,0.11817
3945.64688,0.10783
3947.57535,0.10364
3949.50381,0.10624
3951.43228,0.10900
3953.36075,0.10979
3955.28922,0.11244
3957.21769,0.11537
3959.14616,0.11486
3961.07463,0.11228
3963.00309,0.11300
3964.93156,0.11593
3966.86003,0.11426
3968.78850,0.11046
3970.71697,0.11001
3972.64544,0.11197
3974.57391,0.11197
3976.50238,0.10682
3978.43084,0.10016
3980.35931,0.09825
3982.28778,0.10188
3984.21625,0.10514
3986.14472,0.10358
3988.07319,0.10075
3990.00166,0.10066
3991.93012,0.10198
3993.85859,0.10096
3995.78706,0.09656
3997.71553,0.09441
3999.64400,0.09746
4001.57247,0.10152
4003.50094,0.10452
4005.42941,0.10481
4007.35787,0.10249
4009.28634,0.10054
4011.21481,0.09823
4013.14328,0.09734
4015.07175,0.10266
4017.00022,0.11215
4018.92869,0.11679
4020.85715,0.11242
4022.78562,0.10445
4024.71409,0.09747
4026.64256,0.09476
4028.57103,0.09797
4030.49950,0.10139
4032.42797,0.10259
4034.35644,0.10512
4036.28490,0.10684
4038.21337,0.10523
4040.14184,0.10183
4042.07031,0.09929
4043.99878,0.10071
4045.92725,0.10215
4047.85572,0.10108
4049.78418,0.10003
4051.71265,0.09511
4053.64112,0.08823
4055.56959,0.08968
4057.49806,0.09998
4059.42653,0.10756
4061.35500,0.10362
4063.28346,0.09365
4065.21193,0.08648
4067.14040,0.08398
4069.06887,0.08764
4070.99734,0.09592
4072.92581,0.10027
4074.85428,0.09887
4076.78275,0.09930
4078.71121,0.10088
4080.63968,0.09694
4082.56815,0.09248
4084.49662,0.09354
4086.42509,0.09492
4088.35356,0.09340
4090.28203,0.09074
4092.21049,0.08840
4094.13896,0.08743
4096.06743,0.08655
4097.99590,0.08498
4099.92437,0.08693
4101.85284,0.09536
4103.78131,0.10387
4105.70978,0.10614
4107.63824,0.10473
4109.56671,0.10317
4111.49518,0.09940
4113.42365,0.09207
4115.35212,0.08658
4117.28059,0.08514
4119.20906,0.08443
4121.13752,0.08585
4123.06599,0.09222
4124.99446,0.09785
4126.92293,0.09494
4128.85140,0.08738
4130.77987,0.08380
4132.70834,0.08435
4134.63681,0.08471
4136.56527,0.08326
4138.49374,0.08089
4140.42221,0.07879
4142.35068,0.08068
4144.27915,0.08891
4146.20762,0.09475
4148.13609,0.08914
4150.06455,0.08123
4151.99302,0.08142
4153.92149,0.08308
4155.84996,0.08064
4157.77843,0.08065
4159.70690,0.08786
4161.63537,0.09751
4163.56384,0.09945
4165.49230,0.09165
4167.42077,0.08653
4169.34924,0.08853
4171.27771,0.08685
4173.20618,0.08128
4175.13465,0.07901
4177.06312,0.07632
4178.99158,0.07013
4180.92005,0.06690
4182.84852,0.07103
4184.77699,0.07757
4186.70546,0.08112
4188.63393,0.08274
4190.56240,0.08038
4192.49087,0.06915
4194.41933,0.05738
4196.34780,0.05899
4198.27627,0.07122
4200.20474,0.07912
4202.13321,0.07657
4204.06168,0.07003
4205.99015,0.06781
4207.91861,0.06951
4209.84708,0.06795
4211.77555,0.06430
4213.70402,0.06425
4215.63249,0.06494
4217.56096,0.06491
4219.48943,0.06602
4221.41789,0.06580
4223.34636,0.06800
4225.27483,0.07470
4227.20330,0.07781
4229.13177,0.07565
4231.06024,0.06928
4232.98871,0.06135
4234.91718,0.05903
4236.84564,0.06106
4238.77411,0.06322
4240.70258,0.06630
4242.63105,0.07318
4244.55952,0.08241
4246.48799,0.08346
4248.41646,0.07358
4250.34492,0.06494
4252.27339,0.06351
4254.20186,0.06532
4256.13033,0.06659
4258.05880,0.06497
4259.98727,0.06224
4261.91574,0.06290
4263.84421,0.06812
4265.77267,0.07400
4267.70114,0.07357
4269.62961,0.06557
4271.55808,0.05889
4273.48655,0.05905
4275.41502,0.06047
4277.34349,0.06041
4279.27195,0.06111
4281.20042,0.06349
4283.12889,0.06746
4285.05736,0.06873
4286.98583,0.06771
4288.91430,0.06659
4290.84277,0.06242
4292.77124,0.06045
4294.69970,0.06527
4296.62817,0.06820
4298.55664,0.06168
4300.48511,0.05366
4302.41358,0.05478
4304.34205,0.05961
4306.27052,0.05997
4308.19898,0.05868
4310.12745,0.06020
4312.05592,0.06176
4313.98439,0.05871
4315.91286,0.05378
4317.84133,0.04979
4319.76980,0.04469
4321.69827,0.03937
4323.62673,0.03821
4325.55520,0.04397
4327.48367,0.05270
4329.41214,0.05622
4331.34061,0.05204
4333.26908,0.04655
4335.19755,0.04769
4337.12601,0.05502
4339.05448,0.06222
4340.98295,0.06572
4342.91142,0.06421
4344.83989,0.05725
4346.76836,0.05007
4348.69683,0.05044
4350.62530,0.05287
4352.55376,0.04527
4354.48223,0.03305
4356.41070,0.03135
4358.33917,0.04179
4360.26764,0.05378
4362.19611,0.05938
4364.12458,0.05848
4366.05304,0.05457
4367.98151,0.04880
4369.90998,0.04170
4371.83845,0.03819
4373.76692,0.04068
4375.69539,0.04282
4377.62386,0.03918
4379.55232,0.03559
4381.48079,0.03851
4383.40926,0.04129
4385.33773,0.03769
4387.26620,0.03392
4389.19467,0.03660
4391.12314,0.04375
4393.05161,0.04888
4394.98007,0.04960
4396.90854,0.04764
4398.83701,0.04480
4400.76548,0.04455
4402.69395,0.04597
4404.62242,0.04542
4406.55089,0.04679
4408.47935,0.05036
4410.40782,0.04896
4412.33629,0.04461
4414.26476,0.04089
4416.19323,0.03489
4418.12170,0.03036
4420.05017,0.03090
4421.97864,0.03533
4423.90710,0.04180
4425.83557,0.04478
4427.76404,0.04283
4429.69251,0.04359
4431.62098,0.04872
4433.54945,0.04767
4435.47792,0.04087
4437.40638,0.03712
4439.33485,0.03583
4441.26332,0.03741
4443.19179,0.03946
4445.12026,0.03692
4447.04873,0.03307
4448.97720,0.02958
4450.90567,0.02716
4452.83413,0.02748
4454.76260,0.02333
4456.69107,0.01486
4458.61954,0.01435
4460.54801,0.02224
4462.47648,0.02778
4464.40495,0.02710
4466.33341,0.02486
4468.26188,0.02132
4470.19035,0.01798
4472.11882,0.02480
4474.04729,0.03535
4475.97576,0.03281
4477.90423,0.02487
4479.83270,0.02574
4481.76116,0.02910
4483.68963,0.02628
4485.61810,0.02156
4487.54657,0.02022
4489.47504,0.01497
4491.40351,0.00511
4493.33198,0.00632
4495.26044,0.01662
4497.18891,0.02106
4499.11738,0.01988
4501.04585,0.02023
4502.97432,0.02320
4504.90279,0.02599
4506.83126,0.02570
4508.75973,0.02304
4510.68819,0.02258
4512.61666,0.02381
4514.54513,0.02438
4516.47360,0.02694
4518.40207,0.02882
4520.33054,0.02407
4522.25901,0.01818
4524.18747,0.01868
4526.11594,0.02177
4528.04441,0.02226
4529.97288,0.01983
4531.90135,0.01587
4533.82982,0.01024
4535.75829,0.00683
4537.68676,0.01324
4539.61522,0.02378
4541.54369,0.02874
4543.47216,0.02968
4545.40063,0.02676
4547.32910,0.02171
4549.25757,0.01826
4551.18604,0.01052
4553.11450,0.00281
4555.04297,0.00824
4556.97144,0.01555
4558.89991,0.01011
4560.82838,0.00657
4562.75685,0.01171
4564.68532,0.01117
4566.61378,0.00911
4568.54225,0.01436
4570.47072,0.01908
4572.39919,0.01833
4574.32766,0.01350
4576.25613,0.00599
4578.18460,-0.00254
4580.11307,-0.00549
4582.04153,0.00120
4583.97000,0.00862
4585.89847,0.00977
4587.82694,0.01036
4589.75541,0.01351
4591.68388,0.01255
4593.61235,0.00823
4595.54081,0.00933
4597.46928,0.01419
4599.39775,0.01401
4601.32622,0.00713
4603.25469,-0.00190
4605.18316,-0.00755
4607.11163,-0.00687
4609.04010,-0.00169
4610.96856,0.00375
4612.89703,0.00864
4614.82550,0.01332
4616.75397,0.01257
4618.68244,0.00378
4620.61091,-0.00607
4622.53938,-0.00638
4624.46784,0.00167
4626.39631,0.00927
4628.32478,0.01690
4630.25325,0.02017
4632.18172,0.01422
4634.11019,0.01017
4636.03866,0.01214
4637.96713,0.01004
4639.89559,0.00064
4641.82406,-0.00534
4643.75253,0.00223
4645.68100,0.01747
4647.60947,0.02629
4649.53794,0.02369
4651.46641,0.01594
4653.39487,0.01004
4655.32334,0.01010
4657.25181,0.01673
4659.18028,0.01594
4661.10875,0.00009
4663.03722,-0.01033
4664.96569,-0.00641
4666.89416,-0.00374
4668.82262,-0.00871
4670.75109,-0.00967
4672.67956,0.00077
4674.60803,0.01340
4676.53650,0.02017
4678.46497,0.02139
4680.39344,0.02244
4682.32190,0.02428
4684.25037,0.02015
4686.17884,0.01526
4688.10731,0.01266
4690.03578,0.00435
4691.96425,0.00045
4693.89272,0.00764
4695.82119,0.00959
4697.74965,0.00389
4699.67812,-0.00205
4701.60659,-0.01207
4703.53506,-0.02134
4705.46353,-0.01297
4707.39200,0.01161
4709.32047,0.02701
4711.24893,0.02561
4713.17740,0.02294
4715.10587,0.02036
4717.03434,0.01323
4718.96281,0.00545
4720.89128,0.00258
4722.81975,0.00436
4724.74821,0.00486
4726.67668,0.00386
4728.60515,0.00073
4730.53362,-0.00746
4732.46209,-0.01582
4734.39056,-0.01398
4736.31903,0.00173
4738.24750,0.01597
4740.17596,0.01230
4742.10443,0.00111
4744.03290,0.00152
4745.96137,0.01080
4747.88984,0.01418
4749.81831,0.00777
4751.74678,-0.00127
4753.67524,-0.00336
4755.60371,0.00508
4757.53218,0.01437
4759.46065,0.01818
4761.38912,0.02084
4763.31759,0.02000
4765.24606,0.01412
4767.17453,0.00981
4769.10299,0.00935
4771.03146,0.00930
4772.95993,0.00491
4774.88840,0.00256
4776.81687,0.01035
4778.74534,0.01882
4780.67381,0.01699
4782.60227,0.00745
4784.53074,0.00003
4786.45921,-0.00259
4788.38768,0.00176
4790.31615,0.01478
4792.24462,0.02226
4794.17309,0.01797
4796.10156,0.00903
4798.03002,-0.00360
4799.95849,-0.01468
4801.88696,-0.01200
4803.81543,0.00270
4805.74390,0.00865
4807.67237,0.00192
4809.60084,0.00219
4811.52930,0.01215
4813.45777,0.01928
4815.38624,0.01420
4817.31471,-0.00335
4819.24318,-0.01263
4821.17165,0.00231
4823.10012,0.02456
4825.02859,0.02618
4826.95705,0.01425
4828.88552,0.01328
4830.81399,0.01659
4832.74246,0.01683
4834.67093,0.01663
4836.59940,0.00867
4838.52787,-0.00573
4840.45633,-0.01415
4842.38480,-0.00662
4844.31327,0.00197
4846.24174,-0.01052
4848.17021,-0.02124
4850.09868,-0.00502
4852.02715,0.01258
4853.95562,0.01209
4855.88408,0.00891
4857.81255,0.01332
4859.74102,0.01773
4861.66949,0.01310
4863.59796,0.00366
4865.52643,0.00026
4867.45490,0.00243
4869.38336,0.00079
4871.31183,-0.00006
4873.24030,0.00611
4875.16877,0.00638
4877.09724,-0.00151
4879.02571,-0.00942
4880.95418,-0.01578
4882.88265,-0.00907
4884.81111,0.00883
4886.73958,0.01351
4888.66805,0.00142
4890.59652,-0.01015
4892.52499,-0.00918
4894.45346,0.00692
4896.38193,0.02814
4898.31039,0.03554
4900.23886,0.02293
4902.16733,0.00679
4904.09580,-0.00483
4906.02427,-0.01861
4907.95274,-0.02451
4909.88121,-0.01500
4911.80967,0.00197
4913.73814,0.01966
4915.66661,0.02673
4917.59508,0.02358
4919.52355,0.02154
4921.45202,0.02108
4923.38049,0.02269
4925.30896,0.01945
4927.23742,0.00723
4929.16589,0.00506
4931.09436,0.01819
4933.02283,0.03006
4934.95130,0.03398
4936.87977,0.03631
4938.80824,0.03936
4940.73670,0.03756
4942.66517,0.03108
4944.59364,0.02990
4946.52211,0.03614
4948.45058,0.03269
4950.37905,0.01823
4952.30752,0.00760
4954.23599,-0.00237
4956.16445,-0.01085
4958.09292,-0.01295
4960.02139,-0.00922
4961.94986,0.00274
4963.87833,0.01462
4965.80680,0.01819
4967.73527,0.01350
4969.66373,0.00797
4971.59220,0.00838
4973.52067,0.01020
4975.44914,0.01301
4977.37761,0.01907
4979.30608,0.02750
4981.23455,0.03320
4983.16302,0.02195
4985.09148,0.00184
4987.01995,0.00130
4988.94842,0.01628
4990.87689,0.01980
4992.80536,0.01696
4994.73383,0.02836
4996.66230,0.03586
4998.59076,0.01837
5000.51923,-0.00121
5002.44770,-0.00102
5004.37617,0.01195
5006.30464,0.02069
5008.23311,0.01974
5010.16158,0.01500
5012.09005,0.01231
5014.01851,0.01053
5015.94698,0.00574
5017.87545,0.00742
5019.80392,0.01682
5021.73239,0.01680
5023.66086,0.00885
5025.58933,0.00374
5027.51779,0.00300
5029.44626,0.01152
5031.37473,0.02281
5033.30320,0.02133
5035.23167,0.01263
5037.16014,0.00465
5039.08861,-0.00434
5041.01708,-0.00187
5042.94554,0.01810
5044.87401,0.03451
5046.80248,0.03517
5048.73095,0.03024
5050.65942,0.02392
5052.58789,0.01419
5054.51636,0.00343
5056.44482,0.00030
5058.37329,0.01158
5060.30176,0.02648
5062.23023,0.02737
5064.15870,0.01211
5066.08717,-0.00214
5068.01564,0.00134
5069.94410,0.02310
5071.87257,0.04600
5073.80104,0.04705
5075.72951,0.02810
5077.65798,0.01023
5079.58645,0.00542
5081.51492,0.01510
5083.44339,0.03164
5085.37185,0.03369
5087.30032,0.01749
5089.22879,0.00801
5091.15726,0.00848
5093.08573,0.00901
5095.01420,0.01931
5096.94267,0.04055
5098.87113,0.05078
5100.79960,0.04435
5102.72807,0.04236
5104.65654,0.04201
5106.58501,0.02709
5108.51348,0.01521
5110.44195,0.02605
5112.37042,0.04712
5114.29888,0.06075
5116.22735,0.06113
5118.15582,0.04685
5120.08429,0.02819
5122.01276,0.02670
5123.94123,0.04392
5125.86970,0.05237
5127.79816,0.05175
5129.72663,0.06194
5131.65510,0.05767
5133.58357,0.03006
5135.51204,0.02202
5137.44051,0.03530
5139.36898,0.04126
5141.29745,0.03532
5143.22591,0.01055
5145.15438,-0.02200
5147.08285,-0.03517
5149.01132,-0.02577
5150.93979,-0.00335
5152.86826,0.01382
5154.79673,0.02413
5156.72519,0.04244
5158.65366,0.05760
5160.58213,0.05528
5162.51060,0.04605
5164.43907,0.04046
5166.36754,0.03900
5168.29601,0.04427
5170.22448,0.04939
5172.15294,0.05095
5174.08141,0.06161
5176.00988,0.06824
5177.93835,0.05606
5179.86682,0.04898
5181.79529,0.05596
5183.72376,0.05747
5185.65222,0.04899
5187.58069,0.03728
5189.50916,0.02568
5191.43763,0.01673
5193.36610,0.01257
5195.29457,0.01461
5197.22304,0.02471
5199.15151,0.03684
5201.07997,0.04748
5203.00844,0.05851
5204.93691,0.05671
5206.86538,0.04023
5208.79385,0.02370
5210.72232,0.01138
5212.65079,0.00979
5214.57925,0.02357
5216.50772,0.05502
5218.43619,0.09214
5220.36466,0.10502
5222.29313,0.09505
5224.22160,0.07964
5226.15007,0.05902
5228.07854,0.04287
5230.00700,0.03020
5231.93547,0.00364
5233.86394,-0.01921
5235.79241,-0.00771
5237.72088,0.02813
5239.64935,0.05430
5241.57782,0.06168
5243.50628,0.07317
5245.43475,0.09600
5247.36322,0.09681
5249.29169,0.07014
5251.22016,0.05476
5253.14863,0.05171
5255.07710,0.04251
5257.00556,0.03396
5258.93403,0.03702
5260.86250,0.04832
5262.79097,0.05307
5264.71944,0.04235
5266.64791,0.03817
5268.57638,0.05539
5270.50485,0.06620
5272.43331,0.04983
5274.36178,0.02531
5276.29025,0.02024
5278.21872,0.03459
5280.14719,0.04372
5282.07566,0.04118
5284.00413,0.04313
5285.93259,0.04934
5287.86106,0.04486
5289.78953,0.03711
5291.71800,0.03850
5293.64647,0.04365
5295.57494,0.04396
5297.50341,0.03983
5299.43188,0.04087
5301.36034,0.04970
5303.28881,0.05114
5305.21728,0.03844
5307.14575,0.03736
5309.07422,0.05303
5311.00269,0.06227
5312.93116,0.06650
5314.85962,0.06261
5316.78809,0.04120
5318.71656,0.01859
5320.64503,0.00954
5322.57350,0.01203
5324.50197,0.02814
5326.43044,0.05040
5328.35891,0.07043
5330.28737,0.08604
5332.21584,0.07684
5334.14431,0.04322
5336.07278,0.02035
5338.00125,0.02964
5339.92972,0.04511
5341.85819,0.02958
5343.78665,0.00367
5345.71512,0.00976
5347.64359,0.02992
5349.57206,0.03199
5351.50053,0.02373
5353.42900,0.02480
5355.35747,0.03783
5357.28594,0.03892
5359.21440,0.03240
5361.14287,0.03934
5363.07134,0.05091
5364.99981,0.06059
5366.92828,0.06456
5368.85675,0.05289
5370.78522,0.03856
5372.71368,0.03692
5374.64215,0.04766
5376.57062,0.06644
5378.49909,0.07546
5380.42756,0.07725
5382.35603,0.09453
5384.28450,0.10640
5386.21297,0.08896
5388.14143,0.07363
5390.06990,0.06734
5391.99837,0.05830
5393.92684,0.05036
5395.85531,0.04560
5397.78378,0.05354
5399.71225,0.07225
5401.64071,0.08221
5403.56918,0.08186
5405.49765,0.07518
5407.42612,0.06759
5409.35459,0.06184
5411.28306,0.03456
5413.21153,0.00407
5415.13999,0.02612
5417.06846,0.06972
5418.99693,0.08584
5420.92540,0.08156
5422.85387,0.07563
5424.78234,0.06498
5426.71081,0.05754
5428.63928,0.06535
5430.56774,0.06660
5432.49621,0.05461
5434.42468,0.04720
5436.35315,0.04748
5438.28162,0.06243
5440.21009,0.08264
5442.13856,0.07630
5444.06702,0.05231
5445.99549,0.03825
5447.92396,0.03365
5449.85243,0.02765
5451.78090,0.02372
5453.70937,0.03691
5455.63784,0.06225
5457.56631,0.06812
5459.49477,0.06589
5461.42324,0.08765
5463.35171,0.11233
5465.28018,0.12859
5467.20865,0.14208
5469.13712,0.13271
5471.06559,0.10193
5472.99405,0.07703
5474.92252,0.05757
5476.85099,0.04134
5478.77946,0.04561
5480.70793,0.05931
5482.63640,0.06560
5484.56487,0.06758
5486.49334,0.06692
5488.42180,0.06638
5490.35027,0.06086
5492.27874,0.05219
5494.20721,0.05438
5496.13568,0.05339
5498.06415,0.04995
5499.99262,0.05364
5501.92108,0.04902
5503.84955,0.05729
5505.77802,0.09954
5507.70649,0.12028
5509.63496,0.08546
5511.56343,0.04635
5513.49190,0.03534
5515.42037,0.03980
5517.34883,0.05153
5519.27730,0.06921
5521.20577,0.09549
5523.13424,0.11825
5525.06271,0.11257
5526.99118,0.09492
5528.91965,0.08748
5530.84811,0.08589
5532.77658,0.08408
5534.70505,0.07005
5536.63352,0.05024
5538.56199,0.05040
5540.49046,0.06647
5542.41893,0.08111
5544.34740,0.08395
5546.27586,0.07665
5548.20433,0.07798
5550.13280,0.08888
5552.06127,0.10051
5553.98974,0.10739
5555.91821,0.10334
5557.84668,0.09701
5559.77514,0.09086
5561.70361,0.07679
5563.63208,0.06622
5565.56055,0.06522
5567.48902,0.06096
5569.41749,0.06960
5571.34596,0.09898
5573.27443,0.10372
5575.20289,0.06589
5577.13136,0.03689
5579.05983,0.04191
5580.98830,0.05154
5582.91677,0.05682
5584.84524,0.06681
5586.77371,0.06725
5588.70217,0.05340
5590.63064,0.04108
5592.55911,0.04840
5594.48758,0.07175
5596.41605,0.08976
5598.34452,0.09641
5600.27299,0.09812
5602.20145,0.09821
5604.12992,0.10084
5606.05839,0.09350
5607.98686,0.05970
5609.91533,0.04323
5611.84380,0.07931
5613.77227,0.09774
5615.70074,0.06680
5617.62920,0.05944
5619.55767,0.09219
5621.48614,0.12006
5623.41461,0.13542
5625.34308,0.13370
5627.27155,0.09871
5629.20002,0.06533
5631.12848,0.06938
5633.05695,0.08636
5634.98542,0.09989
5636.91389,0.11485
5638.84236,0.11985
5640.77083,0.11020
5642.69930,0.10383
5644.62777,0.11612
5646.55623,0.12712
5648.48470,0.11187
5650.41317,0.08006
5652.34164,0.05815
5654.27011,0.07118
5656.19858,0.11661
5658.12705,0.15098
5660.05551,0.13442
5661.98398,0.08923
5663.91245,0.06004
5665.84092,0.06663
5667.76939,0.09571
5669.69786,0.09985
5671.62633,0.07524
5673.55480,0.06914
5675.48326,0.09727
5677.41173,0.12203
5679.34020,0.11402
5681.26867,0.09981
5683.19714,0.08908
5685.12561,0.07215
5687.05408,0.06474
5688.98254,0.07380
5690.91101,0.08917
5692.83948,0.08746
5694.76795,0.05878
5696.69642,0.04502
5698.62489,0.07726
5700.55336,0.11300
5702.48183,0.10988
5704.41029,0.08964
5706.33876,0.07669
5708.26723,0.07067
5710.19570,0.06680
5712.12417,0.05453
5714.05264,0.05233
5715.98111,0.07317
5717.90957,0.09222
5719.83804,0.10949
5721.76651,0.11996
5723.69498,0.10795
5725.62345,0.10272
5727.55192,0.12298
5729.48039,0.13058
5731.40886,0.10398
5733.33732,0.08808
5735.26579,0.11045
5737.19426,0.12373
5739.12273,0.10483
5741.05120,0.08244
5742.97967,0.06920
5744.90814,0.06338
5746.83660,0.06395
5748.76507,0.07329
5750.69354,0.08731
5752.62201,0.09389
5754.55048,0.09095
5756.47895,0.09650
5758.40742,0.10609
5760.33588,0.09570
5762.26435,0.07850
5764.19282,0.05963
5766.12129,0.02497
5768.04976,0.00892
5769.97823,0.03123
5771.90670,0.05509
5773.83517,0.07559
5775.76363,0.11194
5777.69210,0.14181
5779.62057,0.14393
5781.54904,0.13062
5783.47751,0.12038
5785.40598,0.10915
5787.33445,0.09959
5789.26291,0.09379
5791.19138,0.06124
5793.11985,0.02098
5795.04832,0.01959
5796.97679,0.03113
5798.90526,0.02866
5800.83373,0.05203
5802.76220,0.10321
5804.69066,0.12665
5806.61913,0.11922
5808.54760,0.11801
5810.47607,0.12349
5812.40454,0.12167
5814.33301,0.11753
5816.26148,0.10589
5818.18994,0.08459
5820.11841,0.08134
5822.04688,0.09971
5823.97535,0.11670
5825.90382,0.12027
5827.83229,0.09565
5829.76076,0.04467
5831.68923,0.01188
5833.61769,0.03590
5835.54616,0.08929
5837.47463,0.11752
5839.40310,0.11488
5841.33157,0.09491
5843.26004,0.07055
5845.18851,0.06527
5847.11697,0.08435
5849.04544,0.09599
5850.97391,0.07272
5852.90238,0.04194
5854.83085,0.03097
5856.75932,0.05149
5858.68779,0.07745
5860.61626,0.06661
5862.54472,0.05625
5864.47319,0.06921
5866.40166,0.06671
5868.33013,0.03528
5870.25860,-0.00014
5872.18707,0.00657
5874.11554,0.05691
5876.04400,0.09653
5877.97247,0.08096
5879.90094,0.03283
5881.82941,0.00920
5883.75788,0.00958
5885.68635,0.03231
5887.61482,0.08829
5889.54329,0.12668
5891.47175,0.13300
5893.40022,0.13467
5895.32869,0.11421
5897.25716,0.05025
5899.18563,-0.01934
5901.11410,-0.01432
5903.04257,0.06225
5904.97103,0.11070
5906.89950,0.09295
5908.82797,0.06882
5910.75644,0.08263
5912.68491,0.09159
5914.61338,0.08163
5916.54185,0.08594
5918.47032,0.09037
5920.39878,0.08128
5922.32725,0.09381
5924.25572,0.13769
5926.18419,0.16215
5928.11266,0.13038
5930.04113,0.07844
5931.96960,0.05293
5933.89806,0.04366
5935.82653,0.04039
5937.75500,0.05738
5939.68347,0.06785
5941.61194,0.04424
5943.54041,0.02244
5945.46888,0.04016
5947.39734,0.07091
5949.32581,0.08413
5951.25428,0.10070
5953.18275,0.11593
5955.11122,0.09370
5957.03969,0.06427
5958.96816,0.06506
5960.89663,0.07824
5962.82509,0.06658
5964.75356,0.03369
5966.68203,0.02197
5968.61050,0.04192
5970.53897,0.09311
5972.46744,0.14681
5974.39591,0.13928
5976.32437,0.10456
5978.25284,0.09335
5980.18131,0.09047
5982.10978,0.08477
5984.03825,0.07005
5985.96672,0.03401
5987.89519,-0.01195
5989.82366,-0.02316
5991.75212,0.02900
5993.68059,0.09719
5995.60906,0.12043
5997.53753,0.11738
5999.46600,0.10668
6001.39447,0.09582
6003.32294,0.11709
6005.25140,0.14095
6007.17987,0.12500
6009.10834,0.10233
6011.03681,0.10062
6012.96528,0.12379
6014.89375,0.16143
6016.82222,0.14882
6018.75069,0.07283
6020.67915,0.03519
6022.60762,0.04180
6024.53609,0.03917
6026.46456,0.05906
6028.39303,0.09291
6030.32150,0.09124
6032.24997,0.06813
6034.17843,0.02845
6036.10690,-0.00774
6038.03537,-0.01034
6039.96384,-0.01481
6041.89231,0.00013
6043.82078,0.06566
6045.74925,0.09588
6047.67772,0.07381
6049.60618,0.09318
6051.53465,0.14230
6053.46312,0.16494
6055.39159,0.18848
6057.32006,0.19939
6059.24853,0.15346
6061.17700,0.09329
6063.10546,0.08005
6065.03393,0.09767
6066.96240,0.11431
6068.89087,0.10024
6070.81934,0.05369
6072.74781,0.05478
6074.67628,0.10863
6076.60475,0.14004
6078.53321,0.12475
6080.46168,0.09188
6082.39015,0.10692
6084.31862,0.15082
6086.24709,0.14621
6088.17556,0.09821
6090.10403,0.04313
6092.03249,0.00726
6093.96096,0.01423
6095.88943,0.03531
6097.81790,0.04464
6099.74637,0.05635
6101.67484,0.06971
6103.60331,0.10617
6105.53177,0.17407
6107.46024,0.20443
6109.38871,0.14767
6111.31718,0.06491
6113.24565,0.03250
6115.17412,0.02908
6117.10259,0.02310
6119.03106,0.02502
6120.95952,0.02607
6122.88799,0.03216
6124.81646,0.06503
6126.74493,0.08707
6128.67340,0.06070
6130.60187,0.04480
6132.53034,0.07475
6134.45880,0.09287
6136.38727,0.07558
6138.31574,0.04581
6140.24421,0.02758
6142.17268,0.05119
6144.10115,0.09369
6146.02962,0.11266
6147.95809,0.09383
6149.88655,0.06410
6151.81502,0.08177
6153.74349,0.10220
6155.67196,0.09476
6157.60043,0.09967
6159.52890,0.10326
6161.45737,0.09760
6163.38583,0.09025
6165.31430,0.08712
6167.24277,0.08878
6169.17124,0.09331
6171.09971,0.08102
6173.02818,0.04166
6174.95665,0.03274
6176.88512,0.06325
6178.81358,0.08035
6180.74205,0.07756
6182.67052,0.06237
6184.59899,0.04425
6186.52746,0.06791
6188.45593,0.14642
6190.38440,0.19840
6192.31286,0.14748
6194.24133,0.06714
6196.16980,0.06876
6198.09827,0.10842
6200.02674,0.12882
6201.95521,0.13342
6203.88368,0.12575
6205.81215,0.12612
6207.74061,0.13759
6209.66908,0.13984
6211.59755,0.12131
6213.52602,0.07987
6215.45449,0.02128
6217.38296,-0.00845
6219.31143,-0.01620
6221.23989,-0.04616
6223.16836,-0.06150
6225.09683,-0.02338
6227.02530,0.05041
6228.95377,0.11720
6230.88224,0.14332
6232.81071,0.13853
6234.73918,0.13249
6236.66764,0.12551
6238.59611,0.10083
6240.52458,0.09009
6242.45305,0.13741
6244.38152,0.18692
6246.30999,0.16240
6248.23846,0.08108
6250.16692,0.01817
6252.09539,0.03535
6254.02386,0.08395
6255.95233,0.08131
6257.88080,0.03544
6259.80927,0.01164
6261.73774,0.01568
6263.66621,0.00455
6265.59467,-0.00617
6267.52314,0.01208
6269.45161,0.01432
6271.38008,-0.00306
6273.30855,0.01937
6275.23702,0.07483
6277.16549,0.09445
6279.09395,0.06967
6281.02242,0.05081
6282.95089,0.08342
6284.87936,0.14450
6286.80783,0.18388
6288.73630,0.18586
6290.66477,0.17580
6292.59323,0.16630
6294.52170,0.10513
6296.45017,0.00863
6298.37864,-0.02089
6300.30711,0.02528
6302.23558,0.05960
6304.16405,0.08000
6306.09252,0.11347
6308.02098,0.09098
6309.94945,0.02205
6311.87792,0.00005
6313.80639,0.00311
6315.73486,-0.03058
6317.66333,-0.05648
6319.59180,-0.02092
6321.52026,0.05842
6323.44873,0.12905
6325.37720,0.14000
6327.30567,0.09956
6329.23414,0.05622
6331.16261,0.02736
6333.09108,0.01036
6335.01955,0.01379
6336.94801,0.04153
6338.87648,0.06204
6340.80495,0.04725
6342.73342,0.02436
6344.66189,-0.00192
6346.59036,-0.03164
6348.51883,-0.02785
6350.44729,0.00956
6352.37576,0.04728
6354.30423,0.06457
6356.23270,0.06418
6358.16117,0.03698
6360.08964,0.00256
6362.01811,0.01777
6363.94658,0.06865
6365.87504,0.11632
6367.80351,0.15602
6369.73198,0.13069
6371.66045,0.03559
6373.58892,0.01450
6375.51739,0.10011
6377.44586,0.15649
6379.37432,0.13329
6381.30279,0.08170
6383.23126,0.04424
6385.15973,0.02217
6387.08820,0.02470
6389.01667,0.05749
6390.94514,0.10296
6392.87361,0.16927
6394.80207,0.22400
6396.73054,0.21404
6398.65901,0.18118
6400.58748,0.17189
6402.51595,0.18771
6404.44442,0.19301
6406.37289,0.13935
6408.30135,0.06113
6410.22982,0.05802
6412.15829,0.10539
6414.08676,0.10055
6416.01523,0.05650
6417.94370,0.04110
6419.87217,0.08538
6421.80064,0.13134
6423.72910,0.09053
6425.65757,0.00672
6427.58604,0.00093
6429.51451,0.06402
6431.44298,0.10574
6433.37145,0.08531
6435.29992,0.06572
6437.22838,0.09136
6439.15685,0.09383
6441.08532,0.05464
6443.01379,0.01039
6444.94226,-0.02085
6446.87073,0.02076
6448.79920,0.10471
6450.72766,0.14561
6452.65613,0.16423
6454.58460,0.15534
6456.51307,0.10457
6458.44154,0.10113
6460.37001,0.16130
6462.29848,0.16970
6464.22695,0.12005
6466.15541,0.10076
6468.08388,0.06844
6470.01235,0.01056
6471.94082,0.03061
6473.86929,0.07585
6475.79776,0.06299
6477.72623,0.05523
6479.65469,0.07715
6481.58316,0.07734
6483.51163,0.04810
6485.44010,0.00298
6487.36857,-0.05300
6489.29704,-0.09204
6491.22551,-0.05913
6493.15398,0.03338
6495.08244,0.09568
6497.01091,0.13153
6498.93938,0.16246
6500.86785,0.13400
6502.79632,0.07357
6504.72479,0.06085
6506.65326,0.06139
6508.58172,0.04266
6510.51019,0.00764
6512.43866,-0.02696
6514.36713,-0.02751
6516.29560,-0.01676
6518.22407,-0.00670
6520.15254,0.02395
6522.08101,0.06660
6524.00947,0.07829
6525.93794,0.05061
6527.86641,0.05783
6529.79488,0.09256
6531.72335,0.06944
6533.65182,0.00938
6535.58029,0.00654
6537.50875,0.04663
6539.43722,0.04599
6541.36569,0.02685
6543.29416,0.05647
6545.22263,0.10991
6547.15110,0.14623
6549.07957,0.17199
6551.00804,0.14959
6552.93650,0.04080
6554.86497,-0.06372
6556.79344,-0.06651
6558.72191,-0.00134
6560.65038,0.04532
6562.57885,0.04451
6564.50732,0.02769
6566.43578,-0.00400
6568.36425,-0.03795
6570.29272,-0.00881
6572.22119,0.04912
6574.14966,0.08040
6576.07813,0.12577
6578.00660,0.17278
6579.93507,0.17545
6581.86353,0.16939
6583.79200,0.14846
6585.72047,0.07814
6587.64894,0.04244
6589.57741,0.08367
6591.50588,0.12185
6593.43435,0.12586
6595.36281,0.16504
6597.29128,0.22710
6599.21975,0.20282
6601.14822,0.11331
6603.07669,0.08369
6605.00516,0.11520
6606.93363,0.12941
6608.86210,0.07685
6610.79056,0.01473
6612.71903,0.04157
6614.64750,0.13310
6616.57597,0.18907
6618.50444,0.17321
6620.43291,0.11517
6622.36138,0.09069
6624.28984,0.12876
6626.21831,0.16503
6628.14678,0.18482
6630.07525,0.18827
6632.00372,0.15462
6633.93219,0.13388
6635.86066,0.18340
6637.78912,0.19618
6639.71759,0.11145
6641.64606,0.06443
6643.57453,0.11403
6645.50300,0.18440
6647.43147,0.17162
6649.35994,0.07124
6651.28841,-0.03280
6653.21687,-0.06385
6655.14534,0.00925
6657.07381,0.10240
6659.00228,0.12940
6660.93075,0.11822
6662.85922,0.08666
6664.78769,0.07156
6666.71615,0.13252
6668.64462,0.21403
6670.57309,0.23457
6672.50156,0.23159
6674.43003,0.19250
6676.35850,0.08682
6678.28697,-0.00173
6680.21544,-0.02417
6682.14390,-0.04587
6684.07237,-0.06905
6686.00084,-0.01121
6687.92931,0.09481
6689.85778,0.13075
6691.78625,0.06936
6693.71472,-0.01266
6695.64318,-0.03073
6697.57165,0.01289
6699.50012,0.03288
6701.42859,0.02228
6703.35706,0.04074
6705.28553,0.11602
6707.21400,0.18092
6709.14247,0.15827
6711.07093,0.10892
6712.99940,0.07728
6714.92787,0.01681
6716.85634,-0.06500
6718.78481,-0.10375
6720.71328,-0.04308
6722.64175,0.06554
6724.57021,0.09616
6726.49868,0.08457
6728.42715,0.06700
6730.35562,-0.02015
6732.28409,-0.06886
6734.21256,0.05790
6736.14103,0.18867
6738.06950,0.13272
6739.99796,0.01416
6741.92643,0.00467
6743.85490,0.09214
6745.78337,0.13531
6747.71184,0.07323
6749.64031,0.04236
6751.56878,0.06933
6753.49724,0.01884
6755.42571,-0.06896
6757.35418,-0.09489
6759.28265,-0.03766
6761.21112,0.06173
6763.13959,0.11012
6765.06806,0.10269
6766.99653,0.05830
6768.92499,-0.00910
6770.85346,-0.04935
6772.78193,-0.05632
6774.71040,-0.09267
6776.63887,-0.11385
6778.56734,-0.03857
6780.49581,0.07115
6782.42427,0.17943
6784.35274,0.25143
6786.28121,0.19248
6788.20968,0.07313
6790.13815,0.01682
6792.06662,0.00590
6793.99509,0.03012
6795.92355,0.08780
6797.85202,0.14026
6799.78049,0.21964
6801.70896,0.32314
6803.63743,0.34077
6805.56590,0.24105
6807.49437,0.12562
6809.42284,0.07535
6811.35130,0.10122
6813.27977,0.13596
6815.20824,0.15016
6817.13671,0.17177
6819.06518,0.17123
6820.99365,0.13927
6822.92212,0.09327
6824.85058,0.03967
6826.77905,0.01936
6828.70752,0.08356
6830.63599,0.14324
6832.56446,0.12116
6834.49293,0.11880
6836.42140,0.11948
6838.34987,0.01817
6840.27833,-0.10062
6842.20680,-0.10370
6844.13527,-0.03637
6846.06374,-0.03314
6847.99221,-0.06190
6849.92068,-0.04587
6851.84915,-0.04273
6853.77761,-0.04715
6855.70608,0.01724
6857.63455,0.09805
6859.56302,0.08689
6861.49149,0.02438
6863.41996,0.00882
6865.34843,0.06628
6867.27690,0.11975
6869.20536,0.11782
6871.13383,0.14982
6873.06230,0.21975
6874.99077,0.17006
6876.91924,0.02629
6878.84771,-0.01939
6880.77618,0.06783
6882.70464,0.16625
6884.63311,0.21753
6886.56158,0.18859
6888.49005,0.13116
6890.41852,0.11042
6892.34699,0.09390
6894.27546,0.04562
6896.20393,0.02216
6898.13239,0.06487
6900.06086,0.09182
6901.98933,0.05077
6903.91780,-0.03481
6905.84627,-0.07312
6907.77474,-0.01671
6909.70321,0.06731
6911.63167,0.13339
6913.56014,0.18309
6915.48861,0.19471
6917.41708,0.13575
6919.34555,0.08241
6921.27402,0.11648
6923.20249,0.16601
6925.13096,0.14580
6927.05942,0.02992
6928.98789,-0.10901
6930.91636,-0.13743
6932.84483,-0.03131
6934.77330,0.11832
6936.70177,0.25993
6938.63024,0.34648
6940.55870,0.29207
6942.48717,0.11266
6944.41564,-0.01367
6946.34411,0.04360
6948.27258,0.19368
6950.20105,0.21364
6952.12952,0.09481
6954.05799,-0.02674
6955.98645,-0.14527
6957.91492,-0.19124
6959.84339,-0.08562
6961.77186,-0.00682
6963.70033,-0.02036
6965.62880,-0.01847
6967.55727,-0.04208
6969.48573,-0.12895
6971.41420,-0.17048
6973.34267,-0.15801
6975.27114,-0.09263
6977.19961,0.06552
6979.12808,0.19470
6981.05655,0.23270
6982.98501,0.23522
6984.91348,0.24996
6986.84195,0.26355
6988.77042,0.25307
6990.69889,0.21391
6992.62736,0.15660
6994.55583,0.10472
6996.48430,0.08186
6998.41276,0.07093
7000.34123,0.04219
7002.26970,0.07450
7004.19817,0.14545
7006.12664,0.13637
7008.05511,0.07049
7009.98358,0.04704
7011.91204,0.06208
7013.84051,0.03482
7015.76898,-0.02758
7017.69745,-0.02335
7019.62592,0.03917
7021.55439,0.06333
7023.48286,0.02205
7025.41133,-0.00779
7027.33979,0.10144
7029.26826,0.27407
7031.19673,0.22730
7033.12520,0.07063
7035.05367,-0.00160
7036.98214,-0.02843
7038.91061,-0.06324
7040.83907,-0.12637
7042.76754,-0.14670
7044.69601,-0.06183
7046.62448,-0.01215
7048.55295,-0.06699
7050.48142,-0.11689
7052.40989,-0.03445
7054.33836,0.09641
7056.26682,0.10023
7058.19529,0.08467
7060.12376,0.16037
7062.05223,0.22990
7063.98070,0.24494
7065.90917,0.23849
7067.83764,0.26883
7069.76610,0.25026
7071.69457,0.11831
7073.62304,0.04039
7075.55151,0.02189
7077.47998,0.01466
7079.40845,0.02295
7081.33692,0.02530
7083.26539,0.05242
7085.19385,0.09183
7087.12232,0.10248
7089.05079,0.04795
7090.97926,-0.00875
7092.90773,0.03309
7094.83620,0.09558
7096.76467,0.09492
7098.69313,0.04419
7100.62160,-0.06021
7102.55007,-0.13058
7104.47854,-0.15245
7106.40701,-0.13928
7108.33548,-0.05581
7110.26395,0.08259
7112.19242,0.17632
7114.12088,0.18710
7116.04935,0.19357
7117.97782,0.18989
7119.90629,0.09810
7121.83476,-0.00656
7123.76323,-0.10360
7125.69170,-0.22143
7127.62016,-0.25034
7129.54863,-0.10776
7131.47710,0.12407
7133.40557,0.20664
7135.33404,0.11299
7137.26251,0.06830
7139.19098,0.10290
7141.11944,0.02422
7143.04791,-0.09026
7144.97638,-0.03378
7146.90485,0.10362
7148.83332,0.09280
7150.76179,-0.01988
7152.69026,-0.03411
7154.61873,0.03313
7156.54719,0.02017
7158.47566,0.00777
7160.40413,0.05769
7162.33260,0.09935
7164.26107,0.09355
7166.18954,0.06267
7168.11801,0.11218
7170.04647,0.25333
7171.97494,0.23947
7173.90341,0.06101
7175.83188,-0.04738
7177.76035,-0.06302
7179.68882,-0.06396
7181.61729,-0.04659
7183.54576,-0.05668
7185.47422,-0.04630
7187.40269,0.03808
7189.33116,0.13288
7191.25963,0.17869
7193.18810,0.08125
7195.11657,-0.05751
7197.04504,-0.03601
7198.97350,0.06739
7200.90197,0.12509
7202.83044,0.12666
7204.75891,0.03055
7206.68738,-0.05179
7208.61585,-0.00521
7210.54432,0.13320
7212.47279,0.26085
7214.40125,0.24140
7216.32972,0.15135
7218.25819,0.15577
7220.18666,0.10131
7222.11513,-0.03532
7224.04360,-0.09139
7225.97207,-0.01890
7227.90053,0.06671
7229.82900,0.09464
7231.75747,0.07759
7233.68594,0.08106
7235.61441,0.15071
7237.54288,0.22627
7239.47135,0.24526
7241.39982,0.13943
7243.32828,-0.06888
7245.25675,-0.09804
7247.18522,0.06106
7249.11369,0.22484
7251.04216,0.28260
7252.97063,0.22329
7254.89910,0.13936
7256.82756,0.16097
7258.75603,0.30729
7260.68450,0.46020
7262.61297,0.50163
7264.54144,0.48501
7266.46991,0.44945
7268.39838,0.42041
7270.32685,0.35447
7272.25531,0.13444
7274.18378,-0.09964
7276.11225,-0.12575
7278.04072,0.03100
7279.96919,0.23482
7281.89766,0.25681
7283.82613,0.17140
7285.75459,0.13374
7287.68306,0.17038
7289.61153,0.23645
7291.54000,0.25150
7293.46847,0.16640
7295.39694,-0.01655
7297.32541,-0.17199
7299.25387,-0.14887
7301.18234,-0.00073
7303.11081,0.10313
7305.03928,0.14849
7306.96775,0.23823
7308.89622,0.33126
7310.82469,0.36236
7312.75316,0.35625
7314.68162,0.33116
7316.61009,0.32198
7318.53856,0.36084
7320.46703,0.40904
7322.39550,0.41425
7324.32397,0.29790
7326.25244,0.13755
7328.18090,0.13726
7330.10937,0.23228
7332.03784,0.18190
7333.96631,0.04763
7335.89478,-0.09423
7337.82325,-0.23517
7339.75172,-0.27254
7341.68019,-0.12754
7343.60865,0.06196
7345.53712,0.21974
7347.46559,0.14337
7349.39406,-0.03839
7351.32253,0.06533
7353.25100,0.29258
7355.17947,0.37659
7357.10793,0.35295
7359.03640,0.30244
7360.96487,0.27476
7362.89334,0.22838
7364.82181,0.17062
7366.75028,0.12060
7368.67875,0.00477
7370.60722,-0.06218
7372.53568,0.08015
7374.46415,0.36803
7376.39262,0.44308
7378.32109,0.30198
7380.24956,0.26845
7382.17803,0.33041
7384.10650,0.22176
7386.03496,-0.07492
7387.96343,-0.16594
7389.89190,0.02449
7391.82037,0.22524
7393.74884,0.31751
7395.67731,0.27672
7397.60578,0.18528
7399.53425,0.12223
7401.46271,0.03688
7403.39118,-0.08347
7405.31965,-0.07326
7407.24812,0.08096
7409.17659,0.20078
7411.10506,0.22988
7413.03353,0.13625
7414.96199,-0.03041
7416.89046,-0.05106
7418.81893,0.16900
7420.74740,0.19865
7422.67587,0.02429
7424.60434,-0.03621
7426.53281,-0.03399
7428.46128,-0.05624
7430.38974,-0.06834
7432.31821,0.02244
7434.24668,0.15428
7436.17515,0.11187
7438.10362,-0.05872
7440.03209,-0.10819
7441.96056,-0.00801
7443.88902,0.08298
7445.81749,0.12649
7447.74596,0.24795
7449.67443,0.35881
7451.60290,0.30856
7453.53137,0.28112
7455.45984,0.32195
7457.38831,0.37477
7459.31677,0.48709
7461.24524,0.52577
7463.17371,0.35066
7465.10218,0.15795
7467.03065,0.16699
7468.95912,0.25490
7470.88759,0.23126
7472.81605,0.09849
7474.74452,0.01949
7476.67299,0.07174
7478.60146,0.16952
7480.52993,0.26372
7482.45840,0.31596
7484.38687,0.22317
7486.31533,0.06124
7488.24380,-0.04075
7490.17227,-0.12285
7492.10074,-0.24019
7494.02921,-0.24548
7495.95768,-0.12667
7497.88615,-0.06270
