399.19301,1.03351
401.12148,0.38249
403.04995,0.27176
404.97842,0.22837
406.90689,0.21905
408.83536,0.20332
410.76382,0.04924
412.69229,-0.16866
414.62076,-0.22170
416.54923,-0.10376
418.47770,0.10803
420.40617,0.21539
422.33464,0.18676
424.26311,0.11007
426.19157,0.01323
428.12004,-0.03995
430.04851,-0.09082
431.97698,-0.18641
433.90545,-0.20933
435.83392,-0.11181
437.76239,-0.04098
439.69085,-0.07597
441.61932,-0.12954
443.54779,-0.12859
445.47626,-0.05888
447.40473,0.07093
449.33320,0.14889
451.26167,0.13581
453.19013,0.11156
455.11860,0.07700
457.04707,0.02931
458.97554,0.03581
460.90401,0.08006
462.83248,0.11488
464.76095,0.12738
466.68942,0.12657
468.61788,0.14822
470.54635,0.18838
472.47482,0.19835
474.40329,0.14375
476.33176,0.06016
478.26023,0.03335
480.18870,0.06812
482.11716,0.05928
484.04563,-0.00478
485.97410,-0.01189
487.90257,0.04574
489.83104,0.11138
491.75951,0.16199
493.68798,0.21506
495.61645,0.23529
497.54491,0.17228
499.47338,0.10080
501.40185,0.09588
503.33032,0.11416
505.25879,0.11366
507.18726,0.09609
509.11573,0.09829
511.04419,0.15414
512.97266,0.18368
514.90113,0.14225
516.82960,0.11021
518.75807,0.12488
520.68654,0.12707
522.61501,0.12331
524.54348,0.14286
526.47194,0.12616
528.40041,0.08259
530.32888,0.07677
532.25735,0.08161
534.18582,0.06588
536.11429,0.05880
538.04276,0.07739
539.97122,0.09754
541.89969,0.11311
543.82816,0.13019
545.75663,0.12538
547.68510,0.11077
549.61357,0.02694
551.54204,-0.36871
553.47051,-0.81440
555.39897,-0.67814
557.32744,-0.18007
559.25591,0.06554
561.18438,0.11059
563.11285,0.12538
565.04132,0.10814
566.96979,0.09649
568.89825,0.07929
570.82672,0.05778
572.75519,0.08080
574.68366,0.12374
576.61213,0.13085
578.54060,0.12080
580.46907,0.10352
582.39754,0.07710
584.32600,0.07493
586.25447,0.09586
588.18294,0.12019
590.11141,0.13930
592.03988,0.13749
593.96835,0.13073
595.89682,0.15005
597.82528,0.16799
599.75375,0.14078
601.68222,0.09754
603.61069,0.08778
605.53916,0.08815
607.46763,0.08143
609.39610,0.09570
611.32456,0.12723
613.25303,0.13993
615.18150,0.11762
617.10997,0.08664
619.03844,0.08906
620.96691,0.11797
622.89538,0.13153
624.82385,0.12625
626.75231,0.11867
628.68078,0.11194
630.60925,0.09480
632.53772,0.06691
634.46619,0.05622
636.39466,0.07490
638.32313,0.11445
640.25159,0.13785
642.18006,0.12815
644.10853,0.13148
646.03700,0.15039
647.96547,0.14563
649.89394,0.12448
651.82241,0.12029
653.75088,0.11898
655.67934,0.10953
657.60781,0.12042
659.53628,0.13715
661.46475,0.13183
663.39322,0.11950
665.32169,0.11061
667.25016,0.10083
669.17862,0.09944
671.10709,0.11830
673.03556,0.14398
674.96403,0.16832
676.89250,0.17701
678.82097,0.16032
680.74944,0.13650
682.67791,0.12614
684.60637,0.13045
686.53484,0.14189
688.46331,0.14728
690.39178,0.13901
692.32025,0.12862
694.24872,0.12553
696.17719,0.11739
698.10565,0.11059
700.03412,0.12327
701.96259,0.14256
703.89106,0.15457
705.81953,0.15726
707.74800,0.14832
709.67647,0.14136
711.60494,0.14522
713.53340,0.14256
715.46187,0.12887
717.39034,0.12247
719.31881,0.13131
721.24728,0.14542
723.17575,0.15199
725.10422,0.14210
727.03268,0.12225
728.96115,0.11812
730.88962,0.12826
732.81809,0.12633
734.74656,0.11752
736.67503,0.11974
738.60350,0.12245
740.53197,0.11858
742.46043,0.11657
744.38890,0.11643
746.31737,0.12242
748.24584,0.13819
750.17431,0.14828
752.10278,0.14596
754.03125,0.14038
755.95971,0.12901
757.88818,0.12177
759.81665,0.13071
761.74512,0.13863
763.67359,0.14295
765.60206,0.15276
767.53053,0.16087
769.45900,0.16071
771.38746,0.15478
773.31593,0.15056
775.24440,0.14563
777.17287,0.13329
779.10134,0.12334
781.02981,0.12263
782.95828,0.12149
784.88674,0.11872
786.81521,0.12291
788.74368,0.13431
790.67215,0.14623
792.60062,0.15645
794.52909,0.16631
796.45756,0.17107
798.38602,0.16283
800.31449,0.14612
802.24296,0.13274
804.17143,0.12447
806.09990,0.12199
808.02837,0.12282
809.95684,0.12272
811.88531,0.12233
813.81377,0.11977
815.74224,0.11852
817.67071,0.11726
819.59918,0.11224
821.52765,0.11356
823.45612,0.12138
825.38459,0.12195
827.31305,0.11546
829.24152,0.11300
831.16999,0.11774
833.09846,0.12259
835.02693,0.12207
836.95540,0.12566
838.88387,0.13657
840.81234,0.13946
842.74080,0.12914
844.66927,0.11841
846.59774,0.11634
848.52621,0.12339
850.45468,0.13345
852.38315,0.13659
854.31162,0.13356
856.24008,0.13242
858.16855,0.13428
860.09702,0.13284
862.02549,0.12928
863.95396,0.12991
865.88243,0.13548
867.81090,0.14491
869.73937,0.15400
871.66783,0.15631
873.59630,0.14862
875.52477,0.13785
877.45324,0.13703
879.38171,0.14269
881.31018,0.14380
883.23865,0.14699
885.16711,0.15473
887.09558,0.15356
889.02405,0.14486
890.95252,0.14430
892.88099,0.15123
894.80946,0.14951
896.73793,0.14008
898.66640,0.13759
900.59486,0.14324
902.52333,0.15161
904.45180,0.15748
906.38027,0.15405
908.30874,0.14685
910.23721,0.14688
912.16568,0.15012
914.09414,0.14749
916.02261,0.14100
917.95108,0.13970
919.87955,0.14132
921.80802,0.14052
923.73649,0.14235
925.66496,0.14504
927.59343,0.14606
929.52189,0.14571
931.45036,0.13885
933.37883,0.13378
935.30730,0.14155
937.23577,0.15397
939.16424,0.16166
941.09271,0.16217
943.02117,0.15831
944.94964,0.15598
946.87811,0.15683
948.80658,0.16147
950.73505,0.16572
952.66352,0.16544
954.59199,0.15906
956.52045,0.14580
958.44892,0.13610
960.37739,0.13598
962.30586,0.13808
964.23433,0.13785
966.16280,0.13476
968.09127,0.12927
970.01974,0.12623
971.94820,0.13305
973.87667,0.14671
975.80514,0.15364
977.73361,0.15194
979.66208,0.14825
981.59055,0.14457
983.51902,0.14577
985.44748,0.15047
987.37595,0.15080
989.30442,0.14946
991.23289,0.15161
993.16136,0.15135
995.08983,0.14585
997.01830,0.14672
998.94677,0.15633
1000.87523,0.16346
1002.80370,0.16211
1004.73217,0.15673
1006.66064,0.15522
1008.58911,0.15396
1010.51758,0.14925
1012.44605,0.14781
1014.37451,0.15126
1016.30298,0.15310
1018.23145,0.14929
1020.15992,0.14609
1022.08839,0.14644
1024.01686,0.14765
1025.94533,0.15738
1027.87380,0.17578
1029.80226,0.18200
1031.73073,0.17003
1033.65920,0.16012
1035.58767,0.15999
1037.51614,0.15868
1039.44461,0.14972
1041.37308,0.13945
1043.30154,0.13658
1045.23001,0.14160
1047.15848,0.15067
1049.08695,0.15654
1051.01542,0.15435
1052.94389,0.15044
1054.87236,0.15133
1056.80083,0.15229
1058.72929,0.15113
1060.65776,0.15393
1062.58623,0.15904
1064.51470,0.16155
1066.44317,0.16322
1068.37164,0.16608
1070.30011,0.16878
1072.22857,0.16991
1074.15704,0.17123
1076.08551,0.17448
1078.01398,0.16988
1079.94245,0.15155
1081.87092,0.13617
1083.79939,0.13345
1085.72786,0.13688
1087.65632,0.13961
1089.58479,0.14267
1091.51326,0.15391
1093.44173,0.16701
1095.37020,0.17091
1097.29867,0.16734
1099.22714,0.16016
1101.15560,0.15631
1103.08407,0.16032
1105.01254,0.16589
1106.94101,0.16521
1108.86948,0.15819
1110.79795,0.15722
1112.72642,0.16479
1114.65489,0.16934
1116.58335,0.16975
1118.51182,0.16904
1120.44029,0.16852
1122.36876,0.16393
1124.29723,0.15172
1126.22570,0.14590
1128.15417,0.15099
1130.08263,0.15171
1132.01110,0.14565
1133.93957,0.14229
1135.86804,0.14526
1137.79651,0.15039
1139.72498,0.15341
1141.65345,0.15750
1143.58191,0.16564
1145.51038,0.17234
1147.43885,0.17070
1149.36732,0.16534
1151.29579,0.16259
1153.22426,0.16108
1155.15273,0.16290
1157.08120,0.16800
1159.00966,0.17257
1160.93813,0.17467
1162.86660,0.17453
1164.79507,0.17488
1166.72354,0.17456
1168.65201,0.17300
1170.58048,0.17100
1172.50894,0.16738
1174.43741,0.16391
1176.36588,0.16163
1178.29435,0.16223
1180.22282,0.16852
1182.15129,0.17410
1184.07976,0.17313
1186.00823,0.16971
1187.93669,0.16612
1189.86516,0.16244
1191.79363,0.16078
1193.72210,0.16120
1195.65057,0.16210
1197.57904,0.16299
1199.50751,0.16453
1201.43597,0.16656
1203.36444,0.16781
1205.29291,0.16790
1207.22138,0.16775
1209.14985,0.16797
1211.07832,0.16776
1213.00679,0.16694
1214.93526,0.16480
1216.86372,0.15975
1218.79219,0.15530
1220.72066,0.15584
1222.64913,0.15847
1224.57760,0.16002
1226.50607,0.16259
1228.43454,0.16829
1230.36300,0.17565
1232.29147,0.17946
1234.21994,0.17687
1236.14841,0.17343
1238.07688,0.17406
1240.00535,0.17731
1241.93382,0.17788
1243.86229,0.17219
1245.79075,0.16525
1247.71922,0.16192
1249.64769,0.16050
1251.57616,0.15968
1253.50463,0.16100
1255.43310,0.16598
1257.36157,0.17192
1259.29003,0.17327
1261.21850,0.17054
1263.14697,0.17046
1265.07544,0.17428
1267.00391,0.17786
1268.93238,0.17760
1270.86085,0.17425
1272.78932,0.17247
1274.71778,0.17331
1276.64625,0.17530
1278.57472,0.17486
1280.50319,0.16892
1282.43166,0.16449
1284.36013,0.16759
1286.28860,0.17249
1288.21706,0.17481
1290.14553,0.17572
1292.07400,0.17456
1294.00247,0.17231
1295.93094,0.17099
1297.85941,0.16976
1299.78788,0.16547
1301.71634,0.15479
1303.64481,0.14198
1305.57328,0.14014
1307.50175,0.15306
1309.43022,0.16562
1311.35869,0.16869
1313.28716,0.16975
1315.21563,0.17385
1317.14409,0.17740
1319.07256,0.17513
1321.00103,0.16944
1322.92950,0.16829
1324.85797,0.17026
1326.78644,0.17011
1328.71491,0.16992
1330.64337,0.16925
1332.57184,0.16806
1334.50031,0.17003
1336.42878,0.17295
1338.35725,0.17292
1340.28572,0.16692
1342.21419,0.16027
1344.14266,0.15810
1346.07112,0.15806
1347.99959,0.16149
1349.92806,0.16616
1351.85653,0.16846
1353.78500,0.17057
1355.71347,0.17339
1357.64194,0.17564
1359.57040,0.17729
1361.49887,0.18080
1363.42734,0.18413
1365.35581,0.18318
1367.28428,0.18060
1369.21275,0.17884
1371.14122,0.18057
1373.06969,0.18780
1374.99815,0.19175
1376.92662,0.18467
1378.85509,0.17666
1380.78356,0.17485
1382.71203,0.17715
1384.64050,0.18090
1386.56897,0.18427
1388.49743,0.18497
1390.42590,0.18425
1392.35437,0.18602
1394.28284,0.19232
1396.21131,0.19827
1398.13978,0.19744
1400.06825,0.19051
1401.99672,0.18349
1403.92518,0.18073
1405.85365,0.17980
1407.78212,0.17918
1409.71059,0.17974
1411.63906,0.17852
1413.56753,0.17745
1415.49600,0.18277
1417.42446,0.19422
1419.35293,0.19963
1421.28140,0.19285
1423.20987,0.18615
1425.13834,0.18393
1427.06681,0.18500
1428.99528,0.18738
1430.92375,0.18820
1432.85221,0.18747
1434.78068,0.18973
1436.70915,0.19324
1438.63762,0.18843
1440.56609,0.18037
1442.49456,0.17605
1444.42303,0.17677
1446.35149,0.18068
1448.27996,0.18229
1450.20843,0.18172
1452.13690,0.18758
1454.06537,0.20378
1455.99384,0.22952
1457.92231,0.23595
1459.85077,0.21187
1461.77924,0.20007
1463.70771,0.20209
1465.63618,0.19966
1467.56465,0.19175
1469.49312,0.19366
1471.42159,0.20601
1473.35006,0.21264
1475.27852,0.20392
1477.20699,0.19505
1479.13546,0.19246
1481.06393,0.19296
1482.99240,0.19282
1484.92087,0.19496
1486.84934,0.20320
1488.77780,0.21420
1490.70627,0.21653
1492.63474,0.21154
1494.56321,0.20959
1496.49168,0.21023
1498.42015,0.20279
1500.34862,0.18924
1502.27709,0.18439
1504.20555,0.19487
1506.13402,0.22505
1508.06249,0.24102
1509.99096,0.22124
1511.91943,0.20506
1513.84790,0.20285
1515.77637,0.21377
1517.70483,0.22829
1519.63330,0.23668
1521.56177,0.23686
1523.49024,0.22719
1525.41871,0.21686
1527.34718,0.20787
1529.27565,0.20312
1531.20412,0.20505
1533.13258,0.20726
1535.06105,0.20405
1536.98952,0.20485
1538.91799,0.21727
1540.84646,0.22778
1542.77493,0.21883
1544.70340,0.20759
1546.63186,0.20044
1548.56033,0.19931
1550.48880,0.19886
1552.41727,0.19913
1554.34574,0.20771
1556.27421,0.22533
1558.20268,0.24476
1560.13115,0.22683
1562.05961,0.20365
1563.98808,0.19666
1565.91655,0.19677
1567.84502,0.20240
1569.77349,0.20755
1571.70196,0.20304
1573.63043,0.19949
1575.55889,0.19917
1577.48736,0.18960
1579.41583,0.17844
1581.34430,0.17549
1583.27277,0.17658
1585.20124,0.17662
1587.12971,0.17611
1589.05818,0.17673
1590.98664,0.17928
1592.91511,0.18408
1594.84358,0.18700
1596.77205,0.18328
1598.70052,0.17804
1600.62899,0.17678
1602.55746,0.17743
1604.48592,0.18098
1606.41439,0.18822
1608.34286,0.19203
1610.27133,0.19089
1612.19980,0.19169
1614.12827,0.19523
1616.05674,0.19703
1617.98521,0.19361
1619.91367,0.19322
1621.84214,0.19980
1623.77061,0.20251
1625.69908,0.19559
1627.62755,0.19164
1629.55602,0.19471
1631.48449,0.19941
1633.41295,0.20469
1635.34142,0.21537
1637.26989,0.22106
1639.19836,0.21340
1641.12683,0.20530
1643.05530,0.20526
1644.98377,0.21501
1646.91223,0.22546
1648.84070,0.22579
1650.76917,0.22733
1652.69764,0.23047
1654.62611,0.21826
1656.55458,0.20540
1658.48305,0.20028
1660.41152,0.20320
1662.33998,0.20836
1664.26845,0.20507
1666.19692,0.20221
1668.12539,0.20955
1670.05386,0.21811
1671.98233,0.21528
1673.91080,0.21043
1675.83926,0.20722
1677.76773,0.20700
1679.69620,0.21204
1681.62467,0.22120
1683.55314,0.22857
1685.48161,0.22140
1687.41008,0.21277
1689.33855,0.20880
1691.26701,0.20706
1693.19548,0.21192
1695.12395,0.22560
1697.05242,0.24190
1698.98089,0.24762
1700.90936,0.23123
1702.83783,0.21502
1704.76629,0.21405
1706.69476,0.21300
1708.62323,0.20315
1710.55170,0.19426
1712.48017,0.19489
1714.40864,0.20791
1716.33711,0.22398
1718.26558,0.21659
1720.19404,0.19944
1722.12251,0.19224
1724.05098,0.18859
1725.97945,0.18690
1727.90792,0.19075
1729.83639,0.19822
1731.76486,0.20674
1733.69332,0.21050
1735.62179,0.20291
1737.55026,0.19841
1739.47873,0.19980
1741.40720,0.20135
1743.33567,0.20196
1745.26414,0.20389
1747.19261,0.20830
1749.12107,0.21254
1751.04954,0.20916
1752.97801,0.20063
1754.90648,0.19748
1756.83495,0.20040
1758.76342,0.20260
1760.69189,0.20397
1762.62035,0.20400
1764.54882,0.19925
1766.47729,0.19577
1768.40576,0.19876
1770.33423,0.20633
1772.26270,0.20957
1774.19117,0.20238
1776.11964,0.19568
1778.04810,0.19572
1779.97657,0.19841
1781.90504,0.19735
1783.83351,0.19365
1785.76198,0.19048
1787.69045,0.19080
1789.61892,0.19740
1791.54738,0.20507
1793.47585,0.20435
1795.40432,0.20105
1797.33279,0.20103
1799.26126,0.20195
1801.18973,0.20127
1803.11820,0.19747
1805.04666,0.19372
1806.97513,0.19249
1808.90360,0.19183
1810.83207,0.19184
1812.76054,0.19216
1814.68901,0.19135
1816.61748,0.18948
1818.54595,0.18666
1820.47441,0.18537
1822.40288,0.18945
1824.33135,0.19688
1826.25982,0.19871
1828.18829,0.19608
1830.11676,0.19425
1832.04523,0.19146
1833.97369,0.18904
1835.90216,0.18805
1837.83063,0.18734
1839.75910,0.18761
1841.68757,0.19167
1843.61604,0.19820
1845.54451,0.19861
1847.47298,0.19387
1849.40144,0.19124
1851.32991,0.19119
1853.25838,0.19011
1855.18685,0.18674
1857.11532,0.18354
1859.04379,0.18254
1860.97226,0.18447
1862.90072,0.18820
1864.82919,0.19429
1866.75766,0.20356
1868.68613,0.20750
1870.61460,0.20075
1872.54307,0.19332
1874.47154,0.18983
1876.40001,0.18948
1878.32847,0.19057
1880.25694,0.19149
1882.18541,0.19246
1884.11388,0.19356
1886.04235,0.19445
1887.97082,0.19595
1889.89929,0.19632
1891.82775,0.19359
1893.75622,0.18990
1895.68469,0.18699
1897.61316,0.18735
1899.54163,0.19057
1901.47010,0.19225
1903.39857,0.19121
1905.32704,0.19013
1907.25550,0.18974
1909.18397,0.18938
1911.11244,0.19029
1913.04091,0.19097
1914.96938,0.19069
1916.89785,0.19164
1918.82632,0.19161
1920.75478,0.19125
1922.68325,0.19375
1924.61172,0.19374
1926.54019,0.18995
1928.46866,0.18827
1930.39713,0.18863
1932.32560,0.18842
1934.25407,0.18812
1936.18253,0.18722
1938.11100,0.18560
1940.03947,0.18638
1941.96794,0.18952
1943.89641,0.19054
1945.82488,0.18941
1947.75335,0.18871
1949.68181,0.18870
1951.61028,0.18865
1953.53875,0.18788
1955.46722,0.18670
1957.39569,0.18615
1959.32416,0.18688
1961.25263,0.18871
1963.18110,0.18951
1965.10956,0.18838
1967.03803,0.18742
1968.96650,0.18818
1970.89497,0.19120
1972.82344,0.19466
1974.75191,0.19661
1976.68038,0.19703
1978.60884,0.19519
1980.53731,0.19192
1982.46578,0.18945
1984.39425,0.19033
1986.32272,0.19357
1988.25119,0.19470
1990.17966,0.19390
1992.10812,0.19280
1994.03659,0.19121
1995.96506,0.19035
1997.89353,0.19159
1999.82200,0.19267
2001.75047,0.19028
2003.67894,0.18709
2005.60741,0.18581
2007.53587,0.18513
2009.46434,0.18556
2011.39281,0.18621
2013.32128,0.18576
2015.24975,0.18740
2017.17822,0.19072
2019.10669,0.19144
2021.03515,0.19008
2022.96362,0.18910
2024.89209,0.18910
2026.82056,0.18978
2028.74903,0.19011
2030.67750,0.19082
2032.60597,0.19223
2034.53444,0.19088
2036.46290,0.18868
2038.39137,0.18943
2040.31984,0.18909
2042.24831,0.18748
2044.17678,0.18836
2046.10525,0.19027
2048.03372,0.19191
2049.96218,0.19283
2051.89065,0.19236
2053.81912,0.19196
2055.74759,0.19222
2057.67606,0.19171
2059.60453,0.18931
2061.53300,0.18639
2063.46147,0.18606
2065.38993,0.18793
2067.31840,0.18964
2069.24687,0.19017
2071.17534,0.18963
2073.10381,0.18941
2075.03228,0.18979
2076.96075,0.19042
2078.88921,0.19069
2080.81768,0.19144
2082.74615,0.19305
2084.67462,0.19230
2086.60309,0.19091
2088.53156,0.19249
2090.46003,0.19394
2092.38850,0.19344
2094.31696,0.19298
2096.24543,0.19223
2098.17390,0.19066
2100.10237,0.19044
2102.03084,0.19192
2103.95931,0.19297
2105.88778,0.19319
2107.81624,0.19265
2109.74471,0.19116
2111.67318,0.19031
2113.60165,0.19066
2115.53012,0.19087
2117.45859,0.19019
2119.38706,0.19027
2121.31553,0.19267
2123.24399,0.19463
2125.17246,0.19513
2127.10093,0.19554
2129.02940,0.19480
2130.95787,0.19270
2132.88634,0.19050
2134.81481,0.19001
2136.74327,0.19093
2138.67174,0.19002
2140.60021,0.18830
2142.52868,0.18958
2144.45715,0.19163
2146.38562,0.19069
2148.31409,0.18977
2150.24255,0.19207
2152.17102,0.19372
2154.09949,0.19212
2156.02796,0.19123
2157.95643,0.19280
2159.88490,0.19384
2161.81337,0.19338
2163.74184,0.19350
2165.67030,0.19387
2167.59877,0.19245
2169.52724,0.19113
2171.45571,0.19096
2173.38418,0.18929
2175.31265,0.18630
2177.24112,0.18506
2179.16958,0.18692
2181.09805,0.18971
2183.02652,0.19044
2184.95499,0.18919
2186.88346,0.18778
2188.81193,0.18718
2190.74040,0.18693
2192.66887,0.18704
2194.59733,0.18803
2196.52580,0.18829
2198.45427,0.18873
2200.38274,0.19170
2202.31121,0.19363
2204.23968,0.19146
2206.16815,0.18867
2208.09661,0.18805
2210.02508,0.18918
2211.95355,0.19163
2213.88202,0.19261
2215.81049,0.19144
2217.73896,0.19199
2219.66743,0.19506
2221.59590,0.19832
2223.52436,0.19882
2225.45283,0.19523
2227.38130,0.19077
2229.30977,0.18843
2231.23824,0.18727
2233.16671,0.18689
2235.09518,0.18817
2237.02364,0.19043
2238.95211,0.19277
2240.88058,0.19402
2242.80905,0.19387
2244.73752,0.19266
2246.66599,0.19080
2248.59446,0.18925
2250.52293,0.18842
2252.45139,0.18754
2254.37986,0.18598
2256.30833,0.18621
2258.23680,0.18848
2260.16527,0.19015
2262.09374,0.19206
2264.02221,0.19528
2265.95067,0.19679
2267.87914,0.19365
2269.80761,0.18957
2271.73608,0.18869
2273.66455,0.18808
2275.59302,0.18533
2277.52149,0.18417
2279.44996,0.18596
2281.37842,0.18743
2283.30689,0.18889
2285.23536,0.19214
2287.16383,0.19450
2289.09230,0.19322
2291.02077,0.19099
2292.94924,0.18974
2294.87770,0.18984
2296.80617,0.19371
2298.73464,0.19648
2300.66311,0.19371
2302.59158,0.19168
2304.52005,0.19272
2306.44852,0.19268
2308.37699,0.19149
2310.30545,0.19185
2312.23392,0.19465
2314.16239,0.19875
2316.09086,0.20400
2318.01933,0.20980
2319.94780,0.20967
2321.87627,0.20215
2323.80473,0.19784
2325.73320,0.20134
2327.66167,0.21000
2329.59014,0.21934
2331.51861,0.21867
2333.44708,0.21001
2335.37555,0.20949
2337.30401,0.21765
2339.23248,0.22615
2341.16095,0.23500
2343.08942,0.23699
2345.01789,0.22470
2346.94636,0.21491
2348.87483,0.21421
2350.80330,0.21504
2352.73176,0.21761
2354.66023,0.23136
2356.58870,0.25932
2358.51717,0.27467
2360.44564,0.25489
2362.37411,0.22530
2364.30258,0.20454
2366.23104,0.19845
2368.15951,0.20758
2370.08798,0.21126
2372.01645,0.20211
2373.94492,0.19689
2375.87339,0.20083
2377.80186,0.20185
2379.73033,0.19637
2381.65879,0.19150
2383.58726,0.19164
2385.51573,0.19405
2387.44420,0.19428
2389.37267,0.19209
2391.30114,0.19001
2393.22961,0.18986
2395.15807,0.19045
2397.08654,0.19113
2399.01501,0.19273
2400.94348,0.19268
2402.87195,0.19159
2404.80042,0.19367
2406.72889,0.19601
2408.65736,0.19434
2410.58582,0.19190
2412.51429,0.19127
2414.44276,0.19040
2416.37123,0.18902
2418.29970,0.18915
2420.22817,0.19034
2422.15664,0.18956
2424.08510,0.18775
2426.01357,0.18893
2427.94204,0.19215
2429.87051,0.19412
2431.79898,0.19502
2433.72745,0.19477
2435.65592,0.19293
2437.58439,0.19233
2439.51285,0.19430
2441.44132,0.19721
2443.36979,0.19913
2445.29826,0.19857
2447.22673,0.19612
2449.15520,0.19427
2451.08367,0.19117
2453.01213,0.18428
2454.94060,0.18110
2456.86907,0.18429
2458.79754,0.18550
2460.72601,0.18521
2462.65448,0.18930
2464.58295,0.19400
2466.51142,0.19320
2468.43988,0.18883
2470.36835,0.18631
2472.29682,0.18757
2474.22529,0.19024
2476.15376,0.19195
2478.08223,0.19204
2480.01070,0.18972
2481.93916,0.18679
2483.86763,0.18589
2485.79610,0.18654
2487.72457,0.18691
2489.65304,0.18739
2491.58151,0.18889
2493.50998,0.18971
2495.43844,0.18931
2497.36691,0.19004
2499.29538,0.19186
2501.22385,0.19190
2503.15232,0.19142
2505.08079,0.19313
2507.00926,0.19490
2508.93773,0.19472
2510.86619,0.19380
2512.79466,0.19326
2514.72313,0.19300
2516.65160,0.19277
2518.58007,0.19346
2520.50854,0.19628
2522.43701,0.19838
2524.36547,0.19667
2526.29394,0.19440
2528.22241,0.19442
2530.15088,0.19429
2532.07935,0.19370
2534.00782,0.19453
2535.93629,0.19440
2537.86476,0.19244
2539.79322,0.19237
2541.72169,0.19430
2543.65016,0.19419
2545.57863,0.19081
2547.50710,0.18774
2549.43557,0.18758
2551.36404,0.18810
2553.29250,0.18743
2555.22097,0.18738
2557.14944,0.18831
2559.07791,0.18881
2561.00638,0.19173
2562.93485,0.19721
2564.86332,0.19806
2566.79179,0.19368
2568.72025,0.19027
2570.64872,0.19072
2572.57719,0.19328
2574.50566,0.19337
2576.43413,0.19184
2578.36260,0.19233
2580.29107,0.19353
2582.21953,0.19371
2584.14800,0.19374
2586.07647,0.19429
2588.00494,0.19435
2589.93341,0.19586
2591.86188,0.19890
2593.79035,0.19682
2595.71882,0.19183
2597.64728,0.19137
2599.57575,0.19116
2601.50422,0.18815
2603.43269,0.18867
2605.36116,0.19420
2607.28963,0.19850
2609.21810,0.19781
2611.14656,0.19521
2613.07503,0.19488
2615.00350,0.19728
2616.93197,0.19846
2618.86044,0.19599
2620.78891,0.19321
2622.71738,0.19105
2624.64585,0.18987
2626.57431,0.19243
2628.50278,0.19651
2630.43125,0.19878
2632.35972,0.19810
2634.28819,0.19552
2636.21666,0.19481
2638.14513,0.19588
2640.07359,0.19699
2642.00206,0.19856
2643.93053,0.19951
2645.85900,0.19871
2647.78747,0.19840
2649.71594,0.20055
2651.64441,0.20163
2653.57288,0.19850
2655.50134,0.19448
2657.42981,0.19322
2659.35828,0.19440
2661.28675,0.19660
2663.21522,0.19870
2665.14369,0.19798
2667.07216,0.19382
2669.00062,0.19100
2670.92909,0.19346
2672.85756,0.19708
2674.78603,0.19670
2676.71450,0.19582
2678.64297,0.19843
2680.57144,0.20029
2682.49990,0.19798
2684.42837,0.19744
2686.35684,0.20092
2688.28531,0.20057
2690.21378,0.19544
2692.14225,0.19252
2694.07072,0.19363
2695.99919,0.19611
2697.92765,0.19799
2699.85612,0.19842
2701.78459,0.19776
2703.71306,0.19701
2705.64153,0.19607
2707.57000,0.19523
2709.49847,0.19639
2711.42693,0.19938
2713.35540,0.20102
2715.28387,0.20000
2717.21234,0.19774
2719.14081,0.19545
2721.06928,0.19306
2722.99775,0.19159
2724.92622,0.19404
2726.85468,0.19896
2728.78315,0.20126
2730.71162,0.20171
2732.64009,0.20460
2734.56856,0.20752
2736.49703,0.20585
2738.42550,0.20199
2740.35396,0.20063
2742.28243,0.20132
2744.21090,0.20054
2746.13937,0.19815
2748.06784,0.19774
2749.99631,0.20038
2751.92478,0.20266
2753.85325,0.20369
2755.78171,0.20404
2757.71018,0.20060
2759.63865,0.19610
2761.56712,0.19697
2763.49559,0.20146
2765.42406,0.20310
2767.35253,0.20003
2769.28099,0.19811
2771.20946,0.19993
2773.13793,0.20156
2775.06640,0.20284
2776.99487,0.20477
2778.92334,0.20510
2780.85181,0.20393
2782.78028,0.20430
2784.70874,0.20588
2786.63721,0.20552
2788.56568,0.20250
2790.49415,0.19983
2792.42262,0.20050
2794.35109,0.20278
2796.27956,0.20296
2798.20802,0.20085
2800.13649,0.20030
2802.06496,0.20361
2803.99343,0.20736
2805.92190,0.20793
2807.85037,0.20625
2809.77884,0.20515
2811.70731,0.20441
2813.63577,0.20289
2815.56424,0.20419
2817.49271,0.20809
2819.42118,0.20961
2821.34965,0.21005
2823.27812,0.21260
2825.20659,0.21536
2827.13505,0.21519
2829.06352,0.21200
2830.99199,0.20784
2832.92046,0.20540
2834.84893,0.20672
2836.77740,0.21031
2838.70587,0.21280
2840.63433,0.21195
2842.56280,0.20872
2844.49127,0.20665
2846.41974,0.20803
2848.34821,0.21082
2850.27668,0.20979
2852.20515,0.20493
2854.13362,0.20261
2856.06208,0.20460
2857.99055,0.20568
2859.91902,0.20491
2861.84749,0.20566
2863.77596,0.20641
2865.70443,0.20524
2867.63290,0.20386
2869.56136,0.20368
2871.48983,0.20458
2873.41830,0.20546
2875.34677,0.20649
2877.27524,0.20763
2879.20371,0.20690
2881.13218,0.20377
2883.06065,0.20056
2884.98911,0.19945
2886.91758,0.19906
2888.84605,0.19677
2890.77452,0.19368
2892.70299,0.19382
2894.63146,0.19821
2896.55993,0.20308
2898.48839,0.20548
2900.41686,0.20641
2902.34533,0.20540
2904.27380,0.20112
2906.20227,0.19992
2908.13074,0.20622
2910.05921,0.21121
2911.98768,0.20821
2913.91614,0.20178
2915.84461,0.19862
2917.77308,0.20189
2919.70155,0.20690
2921.63002,0.20709
2923.55849,0.20209
2925.48696,0.19404
2927.41542,0.18997
2929.34389,0.19652
2931.27236,0.20726
2933.20083,0.21070
2935.12930,0.20462
2937.05777,0.19689
2938.98624,0.19631
2940.91471,0.20156
2942.84317,0.20547
2944.77164,0.20561
2946.70011,0.20290
2948.62858,0.20105
2950.55705,0.20372
2952.48552,0.20935
2954.41399,0.21165
2956.34245,0.20441
2958.27092,0.19594
2960.19939,0.19876
2962.12786,0.20694
2964.05633,0.20972
2965.98480,0.20554
2967.91327,0.20121
2969.84174,0.20377
2971.77020,0.20806
2973.69867,0.20927
2975.62714,0.20809
2977.55561,0.20357
2979.48408,0.20153
2981.41255,0.20515
2983.34102,0.20700
2985.26948,0.20443
2987.19795,0.20173
2989.12642,0.20205
2991.05489,0.20519
2992.98336,0.20904
2994.91183,0.21139
2996.84030,0.21070
2998.76877,0.20967
3000.69723,0.21265
3002.62570,0.21508
3004.55417,0.21098
3006.48264,0.20524
3008.41111,0.20225
3010.33958,0.19740
3012.26805,0.18517
3014.19651,0.16403
3016.12498,0.14432
3018.05345,0.14957
3019.98192,0.17757
3021.91039,0.19808
3023.83886,0.20603
3025.76733,0.21219
3027.69579,0.21431
3029.62426,0.21258
3031.55273,0.21327
3033.48120,0.21619
3035.40967,0.21624
3037.33814,0.21422
3039.26661,0.21332
3041.19508,0.21286
3043.12354,0.21468
3045.05201,0.21697
3046.98048,0.21445
3048.90895,0.21107
3050.83742,0.20946
3052.76589,0.20858
3054.69436,0.20754
3056.62282,0.20289
3058.55129,0.20141
3060.47976,0.20801
3062.40823,0.21240
3064.33670,0.20653
3066.26517,0.19719
3068.19364,0.19916
3070.12211,0.21047
3072.05057,0.21630
3073.97904,0.21209
3075.90751,0.20486
3077.83598,0.20425
3079.76445,0.20876
3081.69292,0.20881
3083.62139,0.20019
3085.54985,0.19241
3087.47832,0.19853
3089.40679,0.20830
3091.33526,0.20463
3093.26373,0.19289
3095.19220,0.19039
3097.12067,0.20036
3099.04914,0.20719
3100.97760,0.20438
3102.90607,0.20017
3104.83454,0.20189
3106.76301,0.21042
3108.69148,0.21645
3110.61995,0.21095
3112.54842,0.20272
3114.47688,0.20514
3116.40535,0.21019
3118.33382,0.20847
3120.26229,0.20519
3122.19076,0.20365
3124.11923,0.20718
3126.04770,0.21590
3127.97617,0.22077
3129.90463,0.21740
3131.83310,0.21148
3133.76157,0.20723
3135.69004,0.20399
3137.61851,0.20129
3139.54698,0.20095
3141.47545,0.20441
3143.40391,0.20871
3145.33238,0.21357
3147.26085,0.22020
3149.18932,0.22427
3151.11779,0.22409
3153.04626,0.22268
3154.97473,0.22048
3156.90320,0.21783
3158.83166,0.21726
3160.76013,0.21695
3162.68860,0.21473
3164.61707,0.21195
3166.54554,0.21021
3168.47401,0.21040
3170.40248,0.21156
3172.33094,0.21658
3174.25941,0.22584
3176.18788,0.22978
3178.11635,0.22384
3180.04482,0.21478
3181.97329,0.21184
3183.90176,0.21771
3185.83022,0.22280
3187.75869,0.21909
3189.68716,0.21425
3191.61563,0.21671
3193.54410,0.22191
3195.47257,0.22296
3197.40104,0.22258
3199.32951,0.22343
3201.25797,0.22209
3203.18644,0.21738
3205.11491,0.21076
3207.04338,0.20694
3208.97185,0.21106
3210.90032,0.21876
3212.82879,0.22147
3214.75725,0.21768
3216.68572,0.21225
3218.61419,0.20908
3220.54266,0.20854
3222.47113,0.20999
3224.39960,0.21045
3226.32807,0.20704
3228.25654,0.20341
3230.18500,0.20549
3232.11347,0.21326
3234.04194,0.22001
3235.97041,0.21960
3237.89888,0.21542
3239.82735,0.21402
3241.75582,0.21287
3243.68428,0.20833
3245.61275,0.20592
3247.54122,0.20867
3249.46969,0.20996
3251.39816,0.20797
3253.32663,0.20971
3255.25510,0.21423
3257.18357,0.21338
3259.11203,0.20777
3261.04050,0.20479
3262.96897,0.20666
3264.89744,0.21004
3266.82591,0.21365
3268.75438,0.21875
3270.68285,0.22313
3272.61131,0.22113
3274.53978,0.21608
3276.46825,0.21469
3278.39672,0.21492
3280.32519,0.21614
3282.25366,0.21768
3284.18213,0.21712
3286.11060,0.21401
3288.03906,0.20942
3289.96753,0.20787
3291.89600,0.21014
3293.82447,0.21382
3295.75294,0.21773
3297.68141,0.21719
3299.60988,0.21133
3301.53834,0.20755
3303.46681,0.20669
3305.39528,0.20458
3307.32375,0.20228
3309.25222,0.20219
3311.18069,0.20700
3313.10916,0.21470
3315.03763,0.21984
3316.96609,0.22290
3318.89456,0.22447
3320.82303,0.22249
3322.75150,0.21925
3324.67997,0.21733
3326.60844,0.21424
3328.53691,0.21030
3330.46537,0.20891
3332.39384,0.20986
3334.32231,0.21399
3336.25078,0.22120
3338.17925,0.22353
3340.10772,0.21594
3342.03619,0.20653
3343.96466,0.20392
3345.89312,0.20514
3347.82159,0.20784
3349.75006,0.21191
3351.67853,0.21031
3353.60700,0.20617
3355.53547,0.20872
3357.46394,0.21199
3359.39240,0.21110
3361.32087,0.21230
3363.24934,0.21597
3365.17781,0.21786
3367.10628,0.21869
3369.03475,0.21691
3370.96322,0.21205
3372.89168,0.21051
3374.82015,0.21237
3376.74862,0.21299
3378.67709,0.21228
3380.60556,0.20919
3382.53403,0.20649
3384.46250,0.20932
3386.39097,0.21351
3388.31943,0.21456
3390.24790,0.21306
3392.17637,0.21098
3394.10484,0.21052
3396.03331,0.21166
3397.96178,0.21563
3399.89025,0.21858
3401.81871,0.21240
3403.74718,0.20485
3405.67565,0.20725
3407.60412,0.21238
3409.53259,0.21274
3411.46106,0.20968
3413.38953,0.20706
3415.31800,0.20972
3417.24646,0.21422
3419.17493,0.21374
3421.10340,0.20966
3423.03187,0.20894
3424.96034,0.21147
3426.88881,0.21083
3428.81728,0.20743
3430.74574,0.20437
3432.67421,0.20206
3434.60268,0.20301
3436.53115,0.20610
3438.45962,0.20560
3440.38809,0.20346
3442.31656,0.20473
3444.24503,0.20780
3446.17349,0.20968
3448.10196,0.20748
3450.03043,0.20162
3451.95890,0.19796
3453.88737,0.19784
3455.81584,0.19635
3457.74431,0.19439
3459.67277,0.19624
3461.60124,0.19886
3463.52971,0.19758
3465.45818,0.19273
3467.38665,0.18814
3469.31512,0.18583
3471.24359,0.18546
3473.17206,0.18818
3475.10052,0.19447
3477.02899,0.19933
3478.95746,0.19766
3480.88593,0.19168
3482.81440,0.18441
3484.74287,0.17831
3486.67134,0.17593
3488.59980,0.17652
3490.52827,0.17822
3492.45674,0.17844
3494.38521,0.17743
3496.31368,0.17891
3498.24215,0.18218
3500.17062,0.18226
3502.09909,0.18033
3504.02755,0.18162
3505.95602,0.18311
3507.88449,0.18181
3509.81296,0.18063
3511.74143,0.17967
3513.66990,0.17709
3515.59837,0.17350
3517.52683,0.17145
3519.45530,0.17508
3521.38377,0.18234
3523.31224,0.18402
3525.24071,0.17960
3527.16918,0.17507
3529.09765,0.17186
3531.02611,0.17157
3532.95458,0.17443
3534.88305,0.17810
3536.81152,0.18022
3538.73999,0.17980
3540.66846,0.17970
3542.59693,0.18036
3544.52540,0.17957
3546.45386,0.17896
3548.38233,0.17593
3550.31080,0.16832
3552.23927,0.16228
3554.16774,0.16256
3556.09621,0.16488
3558.02468,0.16426
3559.95314,0.16481
3561.88161,0.16961
3563.81008,0.17663
3565.73855,0.18441
3567.66702,0.18163
3569.59549,0.16871
3571.52396,0.16148
3573.45243,0.16062
3575.38089,0.16321
3577.30936,0.16640
3579.23783,0.16405
3581.16630,0.15825
3583.09477,0.15787
3585.02324,0.16427
3586.95171,0.17331
3588.88017,0.17617
3590.80864,0.17154
3592.73711,0.16747
3594.66558,0.16696
3596.59405,0.16609
3598.52252,0.16243
3600.45099,0.15821
3602.37946,0.15527
3604.30792,0.15544
3606.23639,0.15894
3608.16486,0.16385
3610.09333,0.16827
3612.02180,0.17079
3613.95027,0.16686
3615.87874,0.15958
3617.80720,0.15767
3619.73567,0.15600
3621.66414,0.15138
3623.59261,0.14958
3625.52108,0.15131
3627.44955,0.16082
3629.37802,0.17130
3631.30649,0.16576
3633.23495,0.15816
3635.16342,0.15316
3637.09189,0.15120
3639.02036,0.15400
3640.94883,0.15453
3642.87730,0.15181
3644.80577,0.15463
3646.73423,0.16474
3648.66270,0.17065
3650.59117,0.15815
3652.51964,0.14727
3654.44811,0.14809
3656.37658,0.15050
3658.30505,0.14394
3660.23352,0.13631
3662.16198,0.13424
3664.09045,0.13604
3666.01892,0.14016
3667.94739,0.14503
3669.87586,0.14485
3671.80433,0.14078
3673.73280,0.14699
3675.66126,0.15958
3677.58973,0.15566
3679.51820,0.14691
3681.44667,0.14433
3683.37514,0.14373
3685.30361,0.14325
3687.23208,0.14406
3689.16055,0.14362
3691.08901,0.13952
3693.01748,0.13766
3694.94595,0.13811
3696.87442,0.13594
3698.80289,0.13406
3700.73136,0.13765
3702.65983,0.14100
3704.58829,0.14041
3706.51676,0.14155
3708.44523,0.14820
3710.37370,0.15688
3712.30217,0.15127
3714.23064,0.13675
3716.15911,0.13155
3718.08757,0.13430
3720.01604,0.13556
3721.94451,0.13398
3723.87298,0.13618
3725.80145,0.13919
3727.72992,0.14074
3729.65839,0.14706
3731.58686,0.15850
3733.51532,0.16305
3735.44379,0.14797
3737.37226,0.13164
3739.30073,0.13000
3741.22920,0.13611
3743.15767,0.15011
3745.08614,0.16795
3747.01460,0.17347
3748.94307,0.17899
3750.87154,0.18127
3752.80001,0.16116
3754.72848,0.14525
3756.65695,0.14266
3758.58542,0.13975
3760.51389,0.13059
3762.44235,0.12589
3764.37082,0.12780
3766.29929,0.13060
3768.22776,0.13260
3770.15623,0.13461
3772.08470,0.13235
3774.01317,0.12538
3775.94163,0.12220
3777.87010,0.12697
3779.79857,0.13046
3781.72704,0.12859
3783.65551,0.12531
3785.58398,0.12089
3787.51245,0.11940
3789.44092,0.12220
3791.36938,0.12517
3793.29785,0.12509
3795.22632,0.12459
3797.15479,0.12869
3799.08326,0.13532
3801.01173,0.13720
3802.94020,0.13535
3804.86866,0.13912
3806.79713,0.13977
3808.72560,0.12956
3810.65407,0.12256
3812.58254,0.12570
3814.51101,0.13680
3816.43948,0.14788
3818.36795,0.15197
3820.29641,0.15335
3822.22488,0.14745
3824.15335,0.13845
3826.08182,0.13373
3828.01029,0.12897
3829.93876,0.12311
3831.86723,0.12128
3833.79569,0.12582
3835.72416,0.13515
3837.65263,0.14677
3839.58110,0.15286
3841.50957,0.14845
3843.43804,0.13853
3845.36651,0.12838
3847.29498,0.12028
3849.22344,0.11771
3851.15191,0.12580
3853.08038,0.14094
3855.00885,0.13820
3856.93732,0.12750
3858.86579,0.12627
3860.79426,0.13520
3862.72272,0.14456
3864.65119,0.14184
3866.57966,0.13347
3868.50813,0.13086
3870.43660,0.13276
3872.36507,0.13265
3874.29354,0.12890
3876.22200,0.12496
3878.15047,0.12639
3880.07894,0.13137
3882.00741,0.13393
3883.93588,0.13548
3885.86435,0.13023
3887.79282,0.11698
3889.72129,0.10740
3891.64975,0.10587
3893.57822,0.11444
3895.50669,0.12479
3897.43516,0.12912
3899.36363,0.12965
3901.29210,0.13428
3903.22057,0.13986
3905.14903,0.13230
3907.07750,0.11772
3909.00597,0.11080
3910.93444,0.11093
3912.86291,0.11091
3914.79138,0.10957
3916.71985,0.11475
3918.64832,0.12445
3920.57678,0.12577
3922.50525,0.12081
3924.43372,0.11455
3926.36219,0.10855
3928.29066,0.10865
3930.21913,0.11548
3932.14760,0.12084
3934.07606,0.12022
3936.00453,0.11834
3937.93300,0.11710
3939.86147,0.11582
3941.78994,0.11602
3943.71841,0.11508
3945.64688,0.10940
3947.57535,0.10574
3949.50381,0.10798
3951.43228,0.11062
3953.36075,0.10992
3955.28922,0.10633
3957.21769,0.10566
3959.14616,0.10911
3961.07463,0.10809
3963.00309,0.10397
3964.93156,0.10489
3966.86003,0.10963
3968.78850,0.11667
3970.71697,0.12140
3972.64544,0.11657
3974.57391,0.10971
3976.50238,0.11006
3978.43084,0.11335
3980.35931,0.11217
3982.28778,0.10764
3984.21625,0.10381
3986.14472,0.10061
3988.07319,0.10041
3990.00166,0.10344
3991.93012,0.10390
3993.85859,0.09902
3995.78706,0.09509
3997.71553,0.09664
3999.64400,0.09784
4001.57247,0.09551
4003.50094,0.09217
4005.42941,0.09131
4007.35787,0.09563
4009.28634,0.10203
4011.21481,0.10536
4013.14328,0.10531
4015.07175,0.10232
4017.00022,0.09614
4018.92869,0.09196
4020.85715,0.09461
4022.78562,0.10129
4024.71409,0.10649
4026.64256,0.10556
4028.57103,0.10099
4030.49950,0.09989
4032.42797,0.10074
4034.35644,0.09747
4036.28490,0.09046
4038.21337,0.08560
4040.14184,0.08772
4042.07031,0.09421
4043.99878,0.09896
4045.92725,0.09902
4047.85572,0.09620
4049.78418,0.09570
4051.71265,0.09804
4053.64112,0.09988
4055.56959,0.10047
4057.49806,0.09733
4059.42653,0.09155
4061.35500,0.08922
4063.28346,0.08959
4065.21193,0.09089
4067.14040,0.09396
4069.06887,0.09568
4070.99734,0.09353
4072.92581,0.09057
4074.85428,0.09148
4076.78275,0.09488
4078.71121,0.09758
4080.63968,0.10057
4082.56815,0.10108
4084.49662,0.09814
4086.42509,0.09723
4088.35356,0.09603
4090.28203,0.09340
4092.21049,0.09568
4094.13896,0.09958
4096.06743,0.09881
4097.99590,0.09433
4099.92437,0.09040
4101.85284,0.08986
4103.78131,0.09086
4105.70978,0.09054
4107.63824,0.08824
4109.56671,0.08418
4111.49518,0.08125
4113.42365,0.08278
4115.35212,0.08653
4117.28059,0.09001
4119.20906,0.09204
4121.13752,0.09016
4123.06599,0.08764
4124.99446,0.08965
4126.92293,0.09676
4128.85140,0.10395
4130.77987,0.10344
4132.70834,0.09659
4134.63681,0.09226
4136.56527,0.09365
4138.49374,0.09679
4140.42221,0.09543
4142.35068,0.09015
4144.27915,0.09019
4146.20762,0.09567
4148.13609,0.09767
4150.06455,0.09400
4151.99302,0.08847
4153.92149,0.08659
4155.84996,0.08933
4157.77843,0.09209
4159.70690,0.09224
4161.63537,0.09012
4163.56384,0.08752
4165.49230,0.08404
4167.42077,0.07858
4169.34924,0.07569
4171.27771,0.07703
4173.20618,0.07825
4175.13465,0.08194
4177.06312,0.08832
4178.99158,0.08744
4180.92005,0.08111
4182.84852,0.07858
4184.77699,0.07585
4186.70546,0.07039
4188.63393,0.06965
4190.56240,0.07523
4192.49087,0.08027
4194.41933,0.07970
4196.34780,0.07566
4198.27627,0.07395
4200.20474,0.07691
4202.13321,0.08071
4204.06168,0.08123
4205.99015,0.08015
4207.91861,0.08074
4209.84708,0.08039
4211.77555,0.07335
4213.70402,0.06221
4215.63249,0.05742
4217.56096,0.06367
4219.48943,0.07434
4221.41789,0.08068
4223.34636,0.08066
4225.27483,0.07482
4227.20330,0.06774
4229.13177,0.06743
4231.06024,0.07108
4232.98871,0.07035
4234.91718,0.06543
4236.84564,0.06242
4238.77411,0.06381
4240.70258,0.06684
4242.63105,0.06948
4244.55952,0.07127
4246.48799,0.07295
4248.41646,0.07360
4250.34492,0.07152
4252.27339,0.06845
4254.20186,0.06321
4256.13033,0.05634
4258.05880,0.05430
4259.98727,0.05588
4261.91574,0.05582
4263.84421,0.05599
4265.77267,0.05975
4267.70114,0.06727
4269.62961,0.07176
4271.55808,0.06735
4273.48655,0.06365
4275.41502,0.06585
4277.34349,0.06368
4279.27195,0.05681
4281.20042,0.05484
4283.12889,0.05931
4285.05736,0.06383
4286.98583,0.06288
4288.91430,0.05968
4290.84277,0.06032
4292.77124,0.06551
4294.69970,0.07152
4296.62817,0.07191
4298.55664,0.06553
4300.48511,0.05877
4302.41358,0.05674
4304.34205,0.05821
4306.27052,0.05762
4308.19898,0.05547
4310.12745,0.05547
4312.05592,0.05580
4313.98439,0.05670
4315.91286,0.06112
4317.84133,0.06446
4319.76980,0.05906
4321.69827,0.05123
4323.62673,0.05019
4325.55520,0.05075
4327.48367,0.04920
4329.41214,0.04899
4331.34061,0.04763
4333.26908,0.04486
4335.19755,0.04671
4337.12601,0.05077
4339.05448,0.05079
4340.98295,0.04652
4342.91142,0.04013
4344.83989,0.03669
4346.76836,0.04145
4348.69683,0.05180
4350.62530,0.05764
4352.55376,0.05510
4354.48223,0.05241
4356.41070,0.05267
4358.33917,0.04980
4360.26764,0.04593
4362.19611,0.04799
4364.12458,0.05609
4366.05304,0.06152
4367.98151,0.05466
4369.90998,0.04460
4371.83845,0.04494
4373.76692,0.04661
4375.69539,0.04126
4377.62386,0.03867
4379.55232,0.04161
4381.48079,0.04188
4383.40926,0.03729
4385.33773,0.03298
4387.26620,0.03148
4389.19467,0.02936
4391.12314,0.03085
4393.05161,0.03808
4394.98007,0.04196
4396.90854,0.04110
4398.83701,0.03833
4400.76548,0.03268
4402.69395,0.02598
4404.62242,0.02761
4406.55089,0.03791
4408.47935,0.03776
4410.40782,0.02734
4412.33629,0.02720
4414.26476,0.03334
4416.19323,0.03405
4418.12170,0.03214
4420.05017,0.02916
4421.97864,0.02772
4423.90710,0.03034
4425.83557,0.03359
4427.76404,0.03384
4429.69251,0.03000
4431.62098,0.02549
4433.54945,0.02367
4435.47792,0.02323
4437.40638,0.02248
4439.33485,0.02504
4441.26332,0.03225
4443.19179,0.03792
4445.12026,0.03769
4447.04873,0.03294
4448.97720,0.02970
4450.90567,0.03287
4452.83413,0.03795
4454.76260,0.03712
4456.69107,0.02886
4458.61954,0.01775
4460.54801,0.01685
4462.47648,0.02920
4464.40495,0.03594
4466.33341,0.03033
4468.26188,0.02569
4470.19035,0.03019
4472.11882,0.03464
4474.04729,0.02985
4475.97576,0.02536
4477.90423,0.02804
4479.83270,0.03253
4481.76116,0.03318
4483.68963,0.02629
4485.61810,0.01786
4487.54657,0.01870
4489.47504,0.02748
4491.40351,0.03072
4493.33198,0.02313
4495.26044,0.01657
4497.18891,0.01341
4499.11738,0.00705
4501.04585,0.00878
4502.97432,0.02331
4504.90279,0.03096
4506.83126,0.02546
4508.75973,0.01998
4510.68819,0.02090
4512.61666,0.02349
4514.54513,0.01799
4516.47360,0.00639
4518.40207,0.00115
4520.33054,0.00354
4522.25901,0.01008
4524.18747,0.02032
4526.11594,0.02673
4528.04441,0.02374
4529.97288,0.01957
4531.90135,0.01712
4533.82982,0.01166
4535.75829,0.00812
4537.68676,0.00923
4539.61522,0.01027
4541.54369,0.01055
4543.47216,0.01293
4545.40063,0.01634
4547.32910,0.01664
4549.25757,0.01554
4551.18604,0.01738
4553.11450,0.02148
4555.04297,0.02184
4556.97144,0.01756
4558.89991,0.01764
4560.82838,0.02355
4562.75685,0.02303
4564.68532,0.01371
4566.61378,0.01163
4568.54225,0.01752
4570.47072,0.01837
4572.39919,0.01920
4574.32766,0.02546
4576.25613,0.02797
4578.18460,0.02226
4580.11307,0.01469
4582.04153,0.01273
4583.97000,0.01649
4585.89847,0.02132
4587.82694,0.02188
4589.75541,0.01391
4591.68388,0.00324
4593.61235,-0.00152
4595.54081,-0.00378
4597.46928,-0.00207
4599.39775,0.00753
4601.32622,0.01359
4603.25469,0.01487
4605.18316,0.02029
4607.11163,0.02590
4609.04010,0.02987
4610.96856,0.03433
4612.89703,0.03289
4614.82550,0.02255
4616.75397,0.01511
4618.68244,0.01907
4620.61091,0.02604
4622.53938,0.03031
4624.46784,0.03269
4626.39631,0.02755
4628.32478,0.01275
4630.25325,0.00281
4632.18172,0.01090
4634.11019,0.02741
4636.03866,0.03264
4637.96713,0.02082
4639.89559,0.00561
4641.82406,0.00261
4643.75253,0.01296
4645.68100,0.02709
4647.60947,0.02976
4649.53794,0.01793
4651.46641,0.00775
4653.39487,0.00519
4655.32334,0.00121
4657.25181,-0.00411
4659.18028,-0.00228
4661.10875,0.00278
4663.03722,0.00431
4664.96569,0.00962
4666.89416,0.01685
4668.82262,0.01746
4670.75109,0.02061
4672.67956,0.02531
4674.60803,0.01860
4676.53650,0.01170
4678.46497,0.01375
4680.39344,0.01142
4682.32190,0.00259
4684.25037,-0.00406
4686.17884,-0.00498
4688.10731,0.00505
4690.03578,0.02061
4691.96425,0.02528
4693.89272,0.02072
4695.82119,0.01524
4697.74965,0.01196
4699.67812,0.01646
4701.60659,0.01891
4703.53506,0.00859
4705.46353,-0.00445
4707.39200,-0.01137
4709.32047,-0.01312
4711.24893,-0.01230
4713.17740,-0.01223
4715.10587,-0.01284
4717.03434,-0.00991
4718.96281,-0.00365
4720.89128,-0.00016
4722.81975,-0.00183
4724.74821,-0.00171
4726.67668,0.00852
4728.60515,0.02593
4730.53362,0.03498
4732.46209,0.02448
4734.39056,0.00571
4736.31903,-0.00177
4738.24750,0.00289
4740.17596,0.00165
4742.10443,-0.00728
4744.03290,-0.00562
4745.96137,0.00709
4747.88984,0.01930
4749.81831,0.02812
4751.74678,0.03176
4753.67524,0.02418
4755.60371,0.01380
4757.53218,0.01480
4759.46065,0.01968
4761.38912,0.01695
4763.31759,0.00642
4765.24606,-0.00444
4767.17453,-0.01119
4769.10299,-0.01566
4771.03146,-0.01332
4772.95993,-0.00528
4774.88840,-0.00656
4776.81687,-0.01594
4778.74534,-0.01419
4780.67381,-0.00325
4782.60227,0.00296
4784.53074,0.00304
4786.45921,0.00311
4788.38768,0.01143
4790.31615,0.02229
4792.24462,0.02533
4794.17309,0.02170
4796.10156,0.01567
4798.03002,0.00815
4799.95849,-0.00218
4801.88696,-0.01054
4803.81543,-0.01349
4805.74390,-0.01471
4807.67237,-0.01304
4809.60084,-0.00662
4811.52930,0.00028
4813.45777,0.00555
4815.38624,0.00940
4817.31471,0.01442
4819.24318,0.01796
4821.17165,0.01300
4823.10012,0.01167
4825.02859,0.02017
4826.95705,0.01880
4828.88552,0.00608
4830.81399,-0.00355
4832.74246,-0.00822
4834.67093,-0.00627
4836.59940,0.00025
4838.52787,-0.00037
4840.45633,-0.00245
4842.38480,0.00873
4844.31327,0.01960
4846.24174,0.01488
4848.17021,0.00860
4850.09868,0.00749
4852.02715,0.00129
4853.95562,0.00066
4855.88408,0.02145
4857.81255,0.04379
4859.74102,0.04085
4861.66949,0.02382
4863.59796,0.01601
4865.52643,0.01701
4867.45490,0.01374
4869.38336,-0.00162
4871.31183,-0.01623
4873.24030,-0.01197
4875.16877,-0.00172
4877.09724,-0.00175
4879.02571,-0.00526
4880.95418,-0.00738
4882.88265,-0.00392
4884.81111,0.00533
4886.73958,0.00859
4888.66805,0.00885
4890.59652,0.01594
4892.52499,0.02094
4894.45346,0.01590
4896.38193,0.01124
4898.31039,0.01884
4900.23886,0.02724
4902.16733,0.01697
4904.09580,-0.00109
4906.02427,-0.00808
4907.95274,-0.01139
4909.88121,-0.01076
4911.80967,0.00541
4913.73814,0.01789
4915.66661,0.00792
4917.59508,0.00031
4919.52355,0.01185
4921.45202,0.01918
4923.38049,0.01452
4925.30896,0.01667
4927.23742,0.02163
4929.16589,0.01895
4931.09436,0.01605
4933.02283,0.00675
4934.95130,-0.00650
4936.87977,-0.00325
4938.80824,0.00587
4940.73670,0.01238
4942.66517,0.02739
4944.59364,0.04024
4946.52211,0.04244
4948.45058,0.03817
4950.37905,0.02657
4952.30752,0.01242
4954.23599,0.00082
4956.16445,-0.00300
4958.09292,0.00165
4960.02139,0.00590
4961.94986,0.00718
4963.87833,0.00742
4965.80680,0.01038
4967.73527,0.01364
4969.66373,0.01063
4971.59220,0.00710
4973.52067,0.00438
4975.44914,-0.00048
4977.37761,-0.00367
4979.30608,-0.00798
4981.23455,-0.01056
4983.16302,0.00058
4985.09148,0.01735
4987.01995,0.01959
4988.94842,0.00968
4990.87689,0.00316
4992.80536,0.00411
4994.73383,0.01670
4996.66230,0.03612
4998.59076,0.04537
5000.51923,0.04678
5002.44770,0.04207
5004.37617,0.02301
5006.30464,0.00786
5008.23311,0.01827
5010.16158,0.03940
5012.09005,0.04602
5014.01851,0.03248
5015.94698,0.01314
5017.87545,0.00585
5019.80392,0.00321
5021.73239,-0.00385
5023.66086,-0.00241
5025.58933,0.01530
5027.51779,0.03944
5029.44626,0.05237
5031.37473,0.05070
5033.30320,0.04204
5035.23167,0.02920
5037.16014,0.02063
5039.08861,0.01867
5041.01708,0.01713
5042.94554,0.02055
5044.87401,0.02742
5046.80248,0.03065
5048.73095,0.03528
5050.65942,0.04370
5052.58789,0.04864
5054.51636,0.04492
5056.44482,0.03618
5058.37329,0.02660
5060.30176,0.01387
5062.23023,0.00101
5064.15870,0.00048
5066.08717,0.01269
5068.01564,0.02408
5069.94410,0.02973
5071.87257,0.03215
5073.80104,0.03679
5075.72951,0.03566
5077.65798,0.02115
5079.58645,0.01651
5081.51492,0.02958
5083.44339,0.04511
5085.37185,0.05617
5087.30032,0.05536
5089.22879,0.04358
5091.15726,0.03469
5093.08573,0.03412
5095.01420,0.03387
5096.94267,0.03103
5098.87113,0.02688
5100.79960,0.01994
5102.72807,0.01347
5104.65654,0.00506
5106.58501,-0.00780
5108.51348,-0.00910
5110.44195,0.00621
5112.37042,0.02080
5114.29888,0.02643
5116.22735,0.02521
5118.15582,0.01740
5120.08429,0.00536
5122.01276,0.00190
5123.94123,0.01262
5125.86970,0.02226
5127.79816,0.02608
5129.72663,0.03262
5131.65510,0.03732
5133.58357,0.03682
5135.51204,0.03960
5137.44051,0.04437
5139.36898,0.04608
5141.29745,0.04701
5143.22591,0.04068
5145.15438,0.02331
5147.08285,0.01193
5149.01132,0.02026
5150.93979,0.03369
5152.86826,0.03512
5154.79673,0.03718
5156.72519,0.05108
5158.65366,0.05791
5160.58213,0.04757
5162.51060,0.03902
5164.43907,0.04403
5166.36754,0.04785
5168.29601,0.04861
5170.22448,0.05593
5172.15294,0.05484
5174.08141,0.03835
5176.00988,0.02079
5177.93835,0.01168
5179.86682,0.00701
5181.79529,-0.00338
5183.72376,-0.00809
5185.65222,0.00333
5187.58069,0.01795
5189.50916,0.03352
5191.43763,0.05006
5193.36610,0.05637
5195.29457,0.04681
5197.22304,0.02585
5199.15151,0.01196
5201.07997,0.01391
5203.00844,0.01575
5204.93691,0.01374
5206.86538,0.02409
5208.79385,0.04004
5210.72232,0.03939
5212.65079,0.03025
5214.57925,0.02433
5216.50772,0.01346
5218.43619,0.00093
5220.36466,0.00287
5222.29313,0.00652
5224.22160,0.00170
5226.15007,0.01728
5228.07854,0.04491
5230.00700,0.05086
5231.93547,0.05303
5233.86394,0.05772
5235.79241,0.05285
5237.72088,0.04884
5239.64935,0.04598
5241.57782,0.03642
5243.50628,0.02316
5245.43475,0.01837
5247.36322,0.02353
5249.29169,0.02401
5251.22016,0.02518
5253.14863,0.03121
5255.07710,0.02414
5257.00556,0.01641
5258.93403,0.03231
5260.86250,0.04957
5262.79097,0.04901
5264.71944,0.05797
5266.64791,0.08248
5268.57638,0.09050
5270.50485,0.06779
5272.43331,0.04084
5274.36178,0.03177
5276.29025,0.02990
5278.21872,0.03301
5280.14719,0.03753
5282.07566,0.03203
5284.00413,0.02504
5285.93259,0.02805
5287.86106,0.04151
5289.78953,0.05574
5291.71800,0.05359
5293.64647,0.04258
5295.57494,0.05026
5297.50341,0.07581
5299.43188,0.09214
5301.36034,0.08749
5303.28881,0.06959
5305.21728,0.05409
5307.14575,0.06150
5309.07422,0.07686
5311.00269,0.06840
5312.93116,0.05454
5314.85962,0.05100
5316.78809,0.04592
5318.71656,0.04370
5320.64503,0.05038
5322.57350,0.04746
5324.50197,0.02790
5326.43044,0.02317
5328.35891,0.04445
5330.28737,0.05779
5332.21584,0.05585
5334.14431,0.05732
5336.07278,0.05810
5338.00125,0.05299
5339.92972,0.05676
5341.85819,0.07106
5343.78665,0.08039
5345.71512,0.06608
5347.64359,0.05417
5349.57206,0.07803
5351.50053,0.10809
5353.42900,0.09792
5355.35747,0.06710
5357.28594,0.05968
5359.21440,0.06946
5361.14287,0.06985
5363.07134,0.05885
5364.99981,0.07180
5366.92828,0.09507
5368.85675,0.08084
5370.78522,0.05912
5372.71368,0.07501
5374.64215,0.10366
5376.57062,0.11072
5378.49909,0.10433
5380.42756,0.08159
5382.35603,0.04471
5384.28450,0.02581
5386.21297,0.02687
5388.14143,0.02425
5390.06990,0.02446
5391.99837,0.02654
5393.92684,0.02153
5395.85531,0.03100
5397.78378,0.06243
5399.71225,0.08403
5401.64071,0.07856
5403.56918,0.07240
5405.49765,0.08948
5407.42612,0.09931
5409.35459,0.08659
5411.28306,0.09135
5413.21153,0.11262
5415.13999,0.10072
5417.06846,0.06864
5418.99693,0.04959
5420.92540,0.05072
5422.85387,0.06413
5424.78234,0.07085
5426.71081,0.07400
5428.63928,0.06876
5430.56774,0.04129
5432.49621,0.04076
5434.42468,0.07970
5436.35315,0.09727
5438.28162,0.09567
5440.21009,0.10460
5442.13856,0.10290
5444.06702,0.08240
5445.99549,0.05859
5447.92396,0.04073
5449.85243,0.03327
5451.78090,0.03260
5453.70937,0.04259
5455.63784,0.06567
5457.56631,0.08310
5459.49477,0.08807
5461.42324,0.09917
5463.35171,0.10615
5465.28018,0.09279
5467.20865,0.06976
5469.13712,0.04578
5471.06559,0.04689
5472.99405,0.07005
5474.92252,0.06913
5476.85099,0.04486
5478.77946,0.02681
5480.70793,0.01888
5482.63640,0.02479
5484.56487,0.04799
5486.49334,0.09045
5488.42180,0.11994
5490.35027,0.09608
5492.27874,0.05842
5494.20721,0.05491
5496.13568,0.06664
5498.06415,0.08243
5499.99262,0.09520
5501.92108,0.08162
5503.84955,0.04587
5505.77802,0.03007
5507.70649,0.05162
5509.63496,0.06816
5511.56343,0.05618
5513.49190,0.03405
5515.42037,0.02850
5517.34883,0.04267
5519.27730,0.04763
5521.20577,0.03309
5523.13424,0.02887
5525.06271,0.06131
5526.99118,0.10323
5528.91965,0.11229
5530.84811,0.09195
5532.77658,0.06362
5534.70505,0.04467
5536.63352,0.05430
5538.56199,0.06985
5540.49046,0.06702
5542.41893,0.07537
5544.34740,0.09905
5546.27586,0.09767
5548.20433,0.07659
5550.13280,0.06682
5552.06127,0.06230
5553.98974,0.07020
5555.91821,0.10454
5557.84668,0.12893
5559.77514,0.10934
5561.70361,0.06774
5563.63208,0.04681
5565.56055,0.05339
5567.48902,0.06111
5569.41749,0.05463
5571.34596,0.04137
5573.27443,0.03937
5575.20289,0.04193
5577.13136,0.03728
5579.05983,0.04544
5580.98830,0.07042
5582.91677,0.08967
5584.84524,0.08484
5586.77371,0.05092
5588.70217,0.01576
5590.63064,0.01529
5592.55911,0.05042
5594.48758,0.09473
5596.41605,0.11916
5598.34452,0.12450
5600.27299,0.12354
5602.20145,0.11517
5604.12992,0.09790
5606.05839,0.07200
5607.98686,0.04638
5609.91533,0.03329
5611.84380,0.03743
5613.77227,0.05307
5615.70074,0.06102
5617.62920,0.05469
5619.55767,0.04784
5621.48614,0.06207
5623.41461,0.09604
5625.34308,0.11486
5627.27155,0.11090
5629.20002,0.09537
5631.12848,0.07141
5633.05695,0.05781
5634.98542,0.05100
5636.91389,0.04124
5638.84236,0.04926
5640.77083,0.07041
5642.69930,0.08757
5644.62777,0.10862
5646.55623,0.12263
5648.48470,0.11469
5650.41317,0.09047
5652.34164,0.05139
5654.27011,0.01559
5656.19858,-0.00146
5658.12705,0.01402
5660.05551,0.06678
5661.98398,0.10180
5663.91245,0.08765
5665.84092,0.06078
5667.76939,0.04158
5669.69786,0.03292
5671.62633,0.03121
5673.55480,0.02432
5675.48326,0.02902
5677.41173,0.05263
5679.34020,0.07181
5681.26867,0.09282
5683.19714,0.12998
5685.12561,0.15717
5687.05408,0.13770
5688.98254,0.09851
5690.91101,0.08292
5692.83948,0.06837
5694.76795,0.05991
5696.69642,0.09751
5698.62489,0.14028
5700.55336,0.13153
5702.48183,0.09971
5704.41029,0.08287
5706.33876,0.08070
5708.26723,0.07954
5710.19570,0.09271
5712.12417,0.13218
5714.05264,0.15548
5715.98111,0.13780
5717.90957,0.09546
5719.83804,0.05649
5721.76651,0.05051
5723.69498,0.07330
5725.62345,0.10385
5727.55192,0.12529
5729.48039,0.12344
5731.40886,0.09247
5733.33732,0.04594
5735.26579,0.02619
5737.19426,0.05633
5739.12273,0.08082
5741.05120,0.06220
5742.97967,0.05398
5744.90814,0.06931
5746.83660,0.06720
5748.76507,0.06794
5750.69354,0.09141
5752.62201,0.09467
5754.55048,0.07586
5756.47895,0.07856
5758.40742,0.11128
5760.33588,0.12825
5762.26435,0.09266
5764.19282,0.05378
5766.12129,0.06198
5768.04976,0.08478
5769.97823,0.08439
5771.90670,0.06670
5773.83517,0.05247
5775.76363,0.04825
5777.69210,0.05007
5779.62057,0.04569
5781.54904,0.03060
5783.47751,0.04007
5785.40598,0.09242
5787.33445,0.13395
5789.26291,0.12737
5791.19138,0.09050
5793.11985,0.04770
5795.04832,0.02451
5796.97679,0.03400
5798.90526,0.06355
5800.83373,0.09114
5802.76220,0.08838
5804.69066,0.04742
5806.61913,0.01901
5808.54760,0.03047
5810.47607,0.05748
5812.40454,0.09147
5814.33301,0.11967
5816.26148,0.12846
5818.18994,0.11763
5820.11841,0.08370
5822.04688,0.05500
5823.97535,0.06683
5825.90382,0.09277
5827.83229,0.09716
5829.76076,0.08113
5831.68923,0.07492
5833.61769,0.10275
5835.54616,0.12290
5837.47463,0.09448
5839.40310,0.05116
5841.33157,0.02814
5843.26004,0.04012
5845.18851,0.08738
5847.11697,0.12735
5849.04544,0.13984
5850.97391,0.15257
5852.90238,0.15848
5854.83085,0.14236
5856.75932,0.12736
5858.68779,0.11081
5860.61626,0.06280
5862.54472,0.01815
5864.47319,0.02776
5866.40166,0.05461
5868.33013,0.05410
5870.25860,0.04891
5872.18707,0.05901
5874.11554,0.08160
5876.04400,0.11458
5877.97247,0.13566
5879.90094,0.14714
5881.82941,0.16567
5883.75788,0.16414
5885.68635,0.14578
5887.61482,0.13362
5889.54329,0.13634
5891.47175,0.15518
5893.40022,0.15914
5895.32869,0.13800
5897.25716,0.12115
5899.18563,0.11229
5901.11410,0.09024
5903.04257,0.06318
5904.97103,0.03549
5906.89950,0.03481
5908.82797,0.10639
5910.75644,0.16657
5912.68491,0.14347
5914.61338,0.09775
5916.54185,0.09300
5918.47032,0.11354
5920.39878,0.08627
5922.32725,0.03594
5924.25572,0.04292
5926.18419,0.07416
5928.11266,0.06949
5930.04113,0.05212
5931.96960,0.03555
5933.89806,-0.00390
5935.82653,-0.01175
5937.75500,0.05436
5939.68347,0.11365
5941.61194,0.10387
5943.54041,0.08060
5945.46888,0.10561
5947.39734,0.14709
5949.32581,0.15718
5951.25428,0.11930
5953.18275,0.07429
5955.11122,0.07897
5957.03969,0.09808
5958.96816,0.07494
5960.89663,0.03722
5962.82509,0.01450
5964.75356,-0.01426
5966.68203,-0.01999
5968.61050,0.02999
5970.53897,0.08160
5972.46744,0.11390
5974.39591,0.14176
5976.32437,0.12843
5978.25284,0.08900
5980.18131,0.07028
5982.10978,0.04409
5984.03825,0.02861
5985.96672,0.07786
5987.89519,0.10484
5989.82366,0.05476
5991.75212,0.01990
5993.68059,0.04249
5995.60906,0.08040
5997.53753,0.09360
5999.46600,0.08030
6001.39447,0.06707
6003.32294,0.07611
6005.25140,0.07213
6007.17987,0.01856
6009.10834,-0.02188
6011.03681,-0.00100
6012.96528,0.04964
6014.89375,0.09275
6016.82222,0.10086
6018.75069,0.08243
6020.67915,0.07393
6022.60762,0.08052
6024.53609,0.09502
6026.46456,0.10983
6028.39303,0.09977
6030.32150,0.06422
6032.24997,0.03890
6034.17843,0.03718
6036.10690,0.05649
6038.03537,0.07371
6039.96384,0.05761
6041.89231,0.03689
6043.82078,0.06734
6045.74925,0.12720
6047.67772,0.14811
6049.60618,0.11196
6051.53465,0.05780
6053.46312,0.02359
6055.39159,0.01541
6057.32006,0.01869
6059.24853,0.03890
6061.17700,0.09632
6063.10546,0.15826
6065.03393,0.15833
6066.96240,0.12497
6068.89087,0.11316
6070.81934,0.10427
6072.74781,0.07513
6074.67628,0.05063
6076.60475,0.06211
6078.53321,0.09541
6080.46168,0.10732
6082.39015,0.08411
6084.31862,0.04729
6086.24709,0.02578
6088.17556,0.02752
6090.10403,0.01099
6092.03249,-0.02458
6093.96096,-0.00450
6095.88943,0.07115
6097.81790,0.13264
6099.74637,0.15970
6101.67484,0.14299
6103.60331,0.08750
6105.53177,0.07025
6107.46024,0.11629
6109.38871,0.13203
6111.31718,0.10863
6113.24565,0.11519
6115.17412,0.12319
6117.10259,0.09005
6119.03106,0.03843
6120.95952,0.02228
6122.88799,0.07010
6124.81646,0.13969
6126.74493,0.12991
6128.67340,0.05189
6130.60187,0.02660
6132.53034,0.03291
6134.45880,0.02650
6136.38727,0.05692
6138.31574,0.08714
6140.24421,0.04097
6142.17268,-0.00932
6144.10115,0.00539
6146.02962,0.02442
6147.95809,0.04047
6149.88655,0.09497
6151.81502,0.16493
6153.74349,0.17784
6155.67196,0.13767
6157.60043,0.10586
6159.52890,0.08653
6161.45737,0.08045
6163.38583,0.09463
6165.31430,0.11787
6167.24277,0.14090
6169.17124,0.15276
6171.09971,0.15661
6173.02818,0.13994
6174.95665,0.10563
6176.88512,0.09683
6178.81358,0.12247
6180.74205,0.14207
6182.67052,0.11248
6184.59899,0.03998
6186.52746,0.00262
6188.45593,0.08896
6190.38440,0.21054
6192.31286,0.21523
6194.24133,0.12831
6196.16980,0.05179
6198.09827,0.02809
6200.02674,0.03991
6201.95521,0.07105
6203.88368,0.09218
6205.81215,0.07489
6207.74061,0.07354
6209.66908,0.08063
6211.59755,0.02987
6213.52602,-0.01189
6215.45449,-0.01326
6217.38296,-0.00182
6219.31143,0.04584
6221.23989,0.10497
6223.16836,0.13519
6225.09683,0.13746
6227.02530,0.11193
6228.95377,0.08800
6230.88224,0.09611
6232.81071,0.12495
6234.73918,0.13595
6236.66764,0.11259
6238.59611,0.10438
6240.52458,0.11787
6242.45305,0.10259
6244.38152,0.09647
6246.30999,0.12461
6248.23846,0.11965
6250.16692,0.08045
6252.09539,0.07028
6254.02386,0.06543
6255.95233,0.03367
6257.88080,0.01127
6259.80927,0.00972
6261.73774,0.02120
6263.66621,0.03264
6265.59467,0.05592
6267.52314,0.10848
6269.45161,0.10885
6271.38008,0.05092
6273.30855,0.03308
6275.23702,0.05218
6277.16549,0.02643
6279.09395,0.00957
6281.02242,0.05274
6282.95089,0.08693
6284.87936,0.09179
6286.80783,0.09506
6288.73630,0.08554
6290.66477,0.07815
6292.59323,0.08107
6294.52170,0.05145
6296.45017,0.00161
6298.37864,0.00807
6300.30711,0.08392
6302.23558,0.11883
6304.16405,0.06490
6306.09252,0.04984
6308.02098,0.09305
6309.94945,0.08022
6311.87792,0.02485
6313.80639,0.00496
6315.73486,-0.03498
6317.66333,-0.09655
6319.59180,-0.04331
6321.52026,0.08014
6323.44873,0.08534
6325.37720,-0.01419
6327.30567,-0.09722
6329.23414,-0.10666
6331.16261,-0.06588
6333.09108,-0.03429
6335.01955,-0.02215
6336.94801,-0.00387
6338.87648,0.01304
6340.80495,-0.00106
6342.73342,-0.00399
6344.66189,0.05961
6346.59036,0.15268
6348.51883,0.20243
6350.44729,0.15839
6352.37576,0.07798
6354.30423,0.06840
6356.23270,0.09076
6358.16117,0.08734
6360.08964,0.06123
6362.01811,0.03971
6363.94658,0.04925
6365.87504,0.07614
6367.80351,0.09184
6369.73198,0.09979
6371.66045,0.10559
6373.58892,0.09614
6375.51739,0.09237
6377.44586,0.10157
6379.37432,0.08145
6381.30279,0.02865
6383.23126,-0.01713
6385.15973,-0.02794
6387.08820,-0.01343
6389.01667,0.02340
6390.94514,0.09776
6392.87361,0.18077
6394.80207,0.19441
6396.73054,0.13843
6398.65901,0.06444
6400.58748,0.00304
6402.51595,-0.01725
6404.44442,-0.00796
6406.37289,-0.00827
6408.30135,-0.01555
6410.22982,0.01178
6412.15829,0.08725
6414.08676,0.14872
6416.01523,0.14735
6417.94370,0.11736
6419.87217,0.08725
6421.80064,0.06731
6423.72910,0.07336
6425.65757,0.05327
6427.58604,-0.00876
6429.51451,-0.02522
6431.44298,0.02036
6433.37145,0.02479
6435.29992,-0.01968
6437.22838,0.00896
6439.15685,0.11268
6441.08532,0.15411
6443.01379,0.11053
6444.94226,0.08316
6446.87073,0.11028
6448.79920,0.10530
6450.72766,0.02693
6452.65613,-0.05670
6454.58460,-0.07094
6456.51307,-0.01230
6458.44154,0.02782
6460.37001,0.00245
6462.29848,-0.01956
6464.22695,0.00172
6466.15541,0.04649
6468.08388,0.10286
6470.01235,0.12686
6471.94082,0.06746
6473.86929,0.00342
6475.79776,0.00105
6477.72623,0.02057
6479.65469,0.05593
6481.58316,0.11705
6483.51163,0.15995
6485.44010,0.14798
6487.36857,0.10334
6489.29704,0.07588
6491.22551,0.07395
6493.15398,0.07643
6495.08244,0.06705
6497.01091,0.05802
6498.93938,0.07828
6500.86785,0.08719
6502.79632,0.05131
6504.72479,0.05171
6506.65326,0.07504
6508.58172,0.03192
6510.51019,-0.01245
6512.43866,0.03506
6514.36713,0.10820
6516.29560,0.11528
6518.22407,0.06239
6520.15254,0.02037
6522.08101,0.00444
6524.00947,0.00363
6525.93794,0.02659
6527.86641,0.04030
6529.79488,0.03787
6531.72335,0.06438
6533.65182,0.12746
6535.58029,0.17433
6537.50875,0.12776
6539.43722,0.02605
6541.36569,0.00243
6543.29416,0.03176
6545.22263,0.05003
6547.15110,0.10378
6549.07957,0.16313
6551.00804,0.16048
6552.93650,0.11886
6554.86497,0.06942
6556.79344,0.02045
6558.72191,-0.03029
6560.65038,-0.03703
6562.57885,0.01059
6564.50732,-0.00226
6566.43578,-0.06723
6568.36425,-0.04131
6570.29272,0.06569
6572.22119,0.12797
6574.14966,0.08474
6576.07813,0.00787
6578.00660,-0.02908
6579.93507,-0.01863
6581.86353,0.00729
6583.79200,-0.00949
6585.72047,-0.05158
6587.64894,-0.04892
6589.57741,0.00765
6591.50588,0.08755
6593.43435,0.17173
6595.36281,0.22139
6597.29128,0.20972
6599.21975,0.17024
6601.14822,0.11177
6603.07669,0.05381
6605.00516,0.06656
6606.93363,0.12983
6608.86210,0.16606
6610.79056,0.18926
6612.71903,0.21243
6614.64750,0.19964
6616.57597,0.15148
6618.50444,0.08555
6620.43291,0.05604
6622.36138,0.05471
6624.28984,0.00695
6626.21831,-0.03910
6628.14678,-0.01793
6630.07525,0.01469
6632.00372,0.02425
6633.93219,0.04267
6635.86066,0.06750
6637.78912,0.10139
6639.71759,0.12019
6641.64606,0.08684
6643.57453,0.06467
6645.50300,0.10210
6647.43147,0.12281
6649.35994,0.08944
6651.28841,0.08357
6653.21687,0.12338
6655.14534,0.13933
6657.07381,0.11959
6659.00228,0.10192
6660.93075,0.13665
6662.85922,0.17776
6664.78769,0.14242
6666.71615,0.08424
6668.64462,0.05791
6670.57309,0.02900
6672.50156,-0.01265
6674.43003,-0.01603
6676.35850,-0.02931
6678.28697,-0.06868
6680.21544,-0.04194
6682.14390,0.01422
6684.07237,0.06370
6686.00084,0.13688
6687.92931,0.16600
6689.85778,0.09570
6691.78625,0.00775
6693.71472,-0.03722
6695.64318,-0.04523
6697.57165,-0.00252
6699.50012,0.10339
6701.42859,0.20661
6703.35706,0.21313
6705.28553,0.15678
6707.21400,0.11162
6709.14247,0.04889
6711.07093,0.00759
6712.99940,0.04895
6714.92787,0.09724
6716.85634,0.09043
6718.78481,0.06585
6720.71328,0.03223
6722.64175,0.00442
6724.57021,-0.00550
6726.49868,0.01728
6728.42715,0.09967
6730.35562,0.14325
6732.28409,0.10466
6734.21256,0.07692
6736.14103,0.08063
6738.06950,0.08150
6739.99796,0.03610
6741.92643,0.00041
6743.85490,0.08531
6745.78337,0.18426
6747.71184,0.14354
6749.64031,0.05501
6751.56878,0.09564
6753.49724,0.17768
6755.42571,0.14968
6757.35418,0.06398
6759.28265,0.03343
6761.21112,0.08504
6763.13959,0.14637
6765.06806,0.12600
6766.99653,0.03776
6768.92499,0.01224
6770.85346,0.07651
6772.78193,0.12696
6774.71040,0.09874
6776.63887,0.01700
6778.56734,-0.04382
6780.49581,-0.07652
6782.42427,-0.09553
6784.35274,-0.06644
6786.28121,0.03481
6788.20968,0.15124
6790.13815,0.17967
6792.06662,0.07027
6793.99509,-0.03749
6795.92355,-0.05651
6797.85202,-0.06494
6799.78049,-0.03961
6801.70896,0.05577
6803.63743,0.07463
6805.56590,-0.03233
6807.49437,-0.10229
6809.42284,-0.07682
6811.35130,-0.03267
6813.27977,0.00993
6815.20824,0.07803
6817.13671,0.08613
6819.06518,0.00812
6820.99365,-0.02908
6822.92212,0.03527
6824.85058,0.08976
6826.77905,0.08099
6828.70752,0.03847
6830.63599,-0.01965
6832.56446,-0.01774
6834.49293,0.04704
6836.42140,0.05856
6838.34987,0.00641
6840.27833,0.01392
6842.20680,0.11613
6844.13527,0.17198
6846.06374,0.06353
6847.99221,-0.04234
6849.92068,-0.00397
6851.84915,0.01129
6853.77761,-0.03145
6855.70608,-0.00411
6857.63455,0.07637
6859.56302,0.09962
6861.49149,0.08472
6863.41996,0.07544
6865.34843,0.05807
6867.27690,0.07838
6869.20536,0.15589
6871.13383,0.19907
6873.06230,0.15061
6874.99077,0.08095
6876.91924,0.05206
6878.84771,0.03270
6880.77618,-0.01244
6882.70464,-0.06663
6884.63311,-0.09657
6886.56158,-0.08796
6888.49005,-0.03029
6890.41852,0.06741
6892.34699,0.15356
6894.27546,0.19766
6896.20393,0.21107
6898.13239,0.16932
6900.06086,0.11041
6901.98933,0.10414
6903.91780,0.09749
6905.84627,0.07445
6907.77474,0.12031
6909.70321,0.19316
6911.63167,0.19630
6913.56014,0.12634
6915.48861,0.07028
6917.41708,0.05249
6919.34555,0.05948
6921.27402,0.10350
6923.20249,0.10813
6925.13096,0.08089
6927.05942,0.09388
6928.98789,0.08391
6930.91636,-0.00265
6932.84483,-0.04849
6934.77330,-0.05166
6936.70177,-0.11284
6938.63024,-0.18059
6940.55870,-0.16276
6942.48717,-0.10002
6944.41564,-0.06108
6946.34411,0.00085
6948.27258,0.08237
6950.20105,0.07609
6952.12952,-0.01025
6954.05799,-0.08502
6955.98645,-0.06046
6957.91492,0.03548
6959.84339,0.09745
6961.77186,0.12590
6963.70033,0.15181
6965.62880,0.16714
6967.55727,0.14339
6969.48573,0.05430
6971.41420,-0.07829
6973.34267,-0.12719
6975.27114,-0.01734
6977.19961,0.08364
6979.12808,0.11741
6981.05655,0.16589
6982.98501,0.22473
6984.91348,0.25212
6986.84195,0.23072
6988.77042,0.17294
6990.69889,0.11609
6992.62736,0.06311
6994.55583,0.02400
6996.48430,0.02300
6998.41276,0.03770
7000.34123,0.06121
7002.26970,0.08536
7004.19817,0.07649
7006.12664,0.04477
7008.05511,-0.00667
7009.98358,-0.04564
7011.91204,-0.01635
7013.84051,0.03896
7015.76898,0.05435
7017.69745,0.06351
7019.62592,0.09121
7021.55439,0.14720
7023.48286,0.15358
7025.41133,0.07058
7027.33979,0.06234
7029.26826,0.11969
7031.19673,0.09158
7033.12520,0.05333
7035.05367,0.06264
7036.98214,0.06716
7038.91061,0.05291
7040.83907,0.00718
7042.76754,-0.07535
7044.69601,-0.07794
7046.62448,0.02771
7048.55295,0.11405
7050.48142,0.13072
7052.40989,0.10269
7054.33836,0.09099
7056.26682,0.17119
7058.19529,0.26258
7060.12376,0.21491
7062.05223,0.10086
7063.98070,0.06570
7065.90917,0.11734
7067.83764,0.12176
7069.76610,0.01343
7071.69457,-0.05687
7073.62304,0.02656
7075.55151,0.15398
7077.47998,0.22053
7079.40845,0.18624
7081.33692,0.17250
7083.26539,0.28065
7085.19385,0.30698
7087.12232,0.17564
7089.05079,0.07751
7090.97926,0.10307
7092.90773,0.12773
7094.83620,0.06575
7096.76467,-0.05219
7098.69313,-0.10066
7100.62160,-0.07641
7102.55007,-0.09191
7104.47854,-0.10132
7106.40701,-0.06784
7108.33548,-0.06230
7110.26395,-0.08947
7112.19242,-0.08432
7114.12088,-0.04280
7116.04935,0.01420
7117.97782,0.09754
7119.90629,0.11804
7121.83476,0.08835
7123.76323,0.06739
7125.69170,0.02359
7127.62016,0.00475
7129.54863,0.02716
7131.47710,0.00903
7133.40557,-0.05476
7135.33404,-0.08218
7137.26251,-0.05407
7139.19098,-0.01622
7141.11944,0.00847
7143.04791,0.00482
7144.97638,-0.03544
7146.90485,-0.05886
7148.83332,-0.01274
7150.76179,0.06529
7152.69026,0.13006
7154.61873,0.20252
7156.54719,0.26944
7158.47566,0.28607
7160.40413,0.29228
7162.33260,0.26849
7164.26107,0.13895
7166.18954,0.05209
7168.11801,0.18948
7170.04647,0.34382
7171.97494,0.26218
7173.90341,0.05337
7175.83188,-0.04457
7177.76035,0.05634
7179.68882,0.10490
7181.61729,0.01733
7183.54576,0.01236
7185.47422,0.01505
7187.40269,-0.02123
7189.33116,0.11065
7191.25963,0.35997
7193.18810,0.43179
7195.11657,0.31876
7197.04504,0.20084
7198.97350,0.13808
7200.90197,0.13328
7202.83044,0.17242
7204.75891,0.14358
7206.68738,0.03893
7208.61585,-0.01882
7210.54432,-0.01466
7212.47279,0.04578
7214.40125,0.10687
7216.32972,0.12427
7218.25819,0.12671
7220.18666,0.18035
7222.11513,0.23792
7224.04360,0.23683
7225.97207,0.22010
7227.90053,0.14999
7229.82900,-0.07529
7231.75747,-0.19973
7233.68594,0.01626
7235.61441,0.25917
7237.54288,0.31980
7239.47135,0.29163
7241.39982,0.27716
7243.32828,0.19749
7245.25675,0.04906
7247.18522,-0.05791
7249.11369,-0.07897
7251.04216,-0.00626
7252.97063,0.14989
7254.89910,0.22265
7256.82756,0.16360
7258.75603,0.13399
7260.68450,0.19258
7262.61297,0.18308
7264.54144,0.10398
7266.46991,0.11364
7268.39838,0.14175
7270.32685,0.19720
7272.25531,0.36696
7274.18378,0.40653
7276.11225,0.27223
7278.04072,0.11144
7279.96919,0.00085
7281.89766,0.12229
7283.82613,0.32650
7285.75459,0.28179
7287.68306,0.02945
7289.61153,-0.09718
7291.54000,0.04608
7293.46847,0.14775
7295.39694,-0.02930
7297.32541,-0.22240
7299.25387,-0.23272
7301.18234,-0.15494
7303.11081,-0.04448
7305.03928,0.10214
7306.96775,0.22742
7308.89622,0.12713
7310.82469,-0.09943
7312.75316,-0.05790
7314.68162,0.20826
7316.61009,0.43862
7318.53856,0.41710
7320.46703,0.27335
7322.39550,0.17653
7324.32397,0.16548
7326.25244,0.10965
7328.18090,0.00561
7330.10937,0.05090
7332.03784,0.20252
7333.96631,0.27999
7335.89478,0.29743
7337.82325,0.36969
7339.75172,0.45028
7341.68019,0.34003
7343.60865,0.23203
7345.53712,0.24534
7347.46559,0.27192
7349.39406,0.25709
7351.32253,0.27593
7353.25100,0.29154
7355.17947,0.26896
7357.10793,0.24966
7359.03640,0.17745
7360.96487,0.01169
7362.89334,-0.09770
7364.82181,-0.03809
7366.75028,0.04953
7368.67875,0.08468
7370.60722,0.13935
7372.53568,0.21054
7374.46415,0.25929
7376.39262,0.19977
7378.32109,0.13591
7380.24956,0.16456
7382.17803,0.20938
7384.10650,0.14246
7386.03496,0.00647
7387.96343,-0.03449
7389.89190,-0.02880
7391.82037,-0.03463
7393.74884,-0.03253
7395.67731,-0.03487
7397.60578,-0.01658
7399.53425,-0.05239
7401.46271,-0.13355
7403.39118,-0.13211
7405.31965,-0.05133
7407.24812,0.04303
7409.17659,0.12193
7411.10506,0.13016
7413.03353,0.10176
7414.96199,0.15391
7416.89046,0.28706
7418.81893,0.34169
7420.74740,0.25616
7422.67587,0.19339
7424.60434,0.20662
7426.53281,0.20799
7428.46128,0.12382
7430.38974,0.07542
7432.31821,0.20508
7434.24668,0.33199
7436.17515,0.36859
7438.10362,0.42568
7440.03209,0.40568
7441.96056,0.26559
7443.88902,0.18973
7445.81749,0.14051
7447.74596,0.03143
7449.67443,-0.00051
7451.60290,0.12203
7453.53137,0.15655
7455.45984,0.00089
7457.38831,-0.23110
7459.31677,-0.35363
7461.24524,-0.12249
7463.17371,0.25701
7465.10218,0.47940
7467.03065,0.41982
7468.95912,0.13252
7470.88759,-0.21472
7472.81605,-0.38909
7474.74452,-0.34122
7476.67299,-0.20298
7478.60146,-0.09715
7480.52993,-0.02836
7482.45840,-0.03865
7484.38687,-0.15979
7486.31533,-0.13028
7488.24380,0.07905
7490.17227,0.18034
7492.10074,0.07652
7494.02921,-0.02327
7495.95768,0.00684
7497.88615,0.09288
