399.19301,0.39488
401.12148,0.32037
403.04995,-0.23497
404.97842,-0.32435
406.90689,-0.06548
408.83536,0.23185
410.76382,0.38190
412.69229,0.26881
414.62076,0.03361
416.54923,-0.10739
418.47770,-0.04387
420.40617,0.17689
422.33464,0.28523
424.26311,0.22548
426.19157,0.11012
428.12004,0.08581
430.04851,0.15537
431.97698,0.17425
433.90545,0.10362
435.83392,0.09933
437.76239,0.15400
439.69085,0.20677
441.61932,0.29074
443.54779,0.36344
445.47626,0.32017
447.40473,0.20669
449.33320,0.08284
451.26167,0.01611
453.19013,0.06991
455.11860,0.15422
457.04707,0.17147
458.97554,0.13023
460.90401,0.06277
462.83248,0.02658
464.76095,0.03405
466.68942,0.04273
468.61788,0.06694
470.54635,0.13089
472.47482,0.23165
474.40329,0.30528
476.33176,0.23837
478.26023,0.12753
480.18870,0.07063
482.11716,0.09485
484.04563,0.15219
485.97410,0.16363
487.90257,0.12931
489.83104,0.10796
491.75951,0.11203
493.68798,0.10290
495.61645,0.07232
497.54491,0.06453
499.47338,0.08172
501.40185,0.07722
503.33032,0.06988
505.25879,0.10460
507.18726,0.14998
509.11573,0.16059
511.04419,0.13226
512.97266,0.08077
514.90113,0.06498
516.82960,0.11128
518.75807,0.15032
520.68654,0.14689
522.61501,0.12134
524.54348,0.08851
526.47194,0.07543
528.40041,0.09827
530.32888,0.13072
532.25735,0.13578
534.18582,0.11013
536.11429,0.07770
538.04276,0.07124
539.97122,0.08463
541.89969,0.08067
543.82816,0.07509
545.75663,0.09979
547.68510,0.12777
549.61357,0.12666
551.54204,0.11382
553.47051,0.10692
555.39897,0.09833
557.32744,0.09167
559.25591,0.10141
561.18438,0.11618
563.11285,0.11458
565.04132,0.11664
566.96979,0.12749
568.89825,0.12099
570.82672,0.11394
572.75519,0.11823
574.68366,0.12005
576.61213,0.11717
578.54060,0.09476
580.46907,0.05845
582.39754,0.04999
584.32600,0.06637
586.25447,0.08720
588.18294,0.11964
590.11141,0.15836
592.03988,0.16689
593.96835,0.12304
595.89682,0.07119
597.82528,0.06106
599.75375,0.09078
601.68222,0.12237
603.61069,0.13065
605.53916,0.12131
607.46763,0.10463
609.39610,0.08883
611.32456,0.09117
613.25303,0.11367
615.18150,0.11752
617.10997,0.10027
619.03844,0.09748
620.96691,0.10214
622.89538,0.10641
624.82385,0.11410
626.75231,0.11120
628.68078,0.10459
630.60925,0.12043
632.53772,0.14541
634.46619,0.14734
636.39466,0.12975
638.32313,0.11511
640.25159,0.11639
642.18006,0.13019
644.10853,0.14121
646.03700,0.13786
647.96547,0.13238
649.89394,0.13672
651.82241,0.13344
653.75088,0.12256
655.67934,0.12266
657.60781,0.12249
659.53628,0.11509
661.46475,0.11844
663.39322,0.11871
665.32169,0.09119
667.25016,0.05837
669.17862,0.07815
671.10709,0.10535
673.03556,0.11615
674.96403,0.13336
676.89250,0.14797
678.82097,0.14989
680.74944,0.14555
682.67791,0.14941
684.60637,0.16113
686.53484,0.16780
688.46331,0.16144
690.39178,0.14795
692.32025,0.14383
694.24872,0.15213
696.17719,0.15613
698.10565,0.14546
700.03412,0.12934
701.96259,0.11840
703.89106,0.11625
705.81953,0.11992
707.74800,0.14370
709.67647,0.18638
711.60494,0.21293
713.53340,0.20886
715.46187,0.16967
717.39034,0.12581
719.31881,0.11419
721.24728,0.11832
723.17575,0.12285
725.10422,0.13276
727.03268,0.14518
728.96115,0.14980
730.88962,0.14639
732.81809,0.13902
734.74656,0.13041
736.67503,0.12704
738.60350,0.12986
740.53197,0.13560
742.46043,0.13626
744.38890,0.13245
746.31737,0.13389
748.24584,0.13600
750.17431,0.12763
752.10278,0.12112
754.03125,0.13473
755.95971,0.15487
757.88818,0.16020
759.81665,0.15379
761.74512,0.14643
763.67359,0.14080
765.60206,0.13874
767.53053,0.13659
769.45900,0.13368
771.38746,0.13184
773.31593,0.12779
775.24440,0.12880
777.17287,0.13367
779.10134,0.12965
781.02981,0.12100
782.95828,0.12423
784.88674,0.13846
786.81521,0.14505
788.74368,0.13580
790.67215,0.12263
792.60062,0.11991
794.52909,0.12448
796.45756,0.12909
798.38602,0.13730
800.31449,0.14838
802.24296,0.15012
804.17143,0.14546
806.09990,0.15281
808.02837,0.16636
809.95684,0.16503
811.88531,0.14739
813.81377,0.13016
815.74224,0.12461
817.67071,0.13158
819.59918,0.13861
821.52765,0.13771
823.45612,0.14255
825.38459,0.15118
827.31305,0.15131
829.24152,0.15112
831.16999,0.15935
833.09846,0.16448
835.02693,0.15641
836.95540,0.14588
838.88387,0.14813
840.81234,0.16299
842.74080,0.17084
844.66927,0.16166
846.59774,0.14459
848.52621,0.13130
850.45468,0.12924
852.38315,0.13306
854.31162,0.13700
856.24008,0.14271
858.16855,0.14547
860.09702,0.14051
862.02549,0.13885
863.95396,0.14763
865.88243,0.14923
867.81090,0.12087
869.73937,0.08695
871.66783,0.09653
873.59630,0.12943
875.52477,0.14074
877.45324,0.13721
879.38171,0.13618
881.31018,0.13825
883.23865,0.14258
885.16711,0.14751
887.09558,0.14599
889.02405,0.13972
890.95252,0.13721
892.88099,0.14037
894.80946,0.14662
896.73793,0.14643
898.66640,0.13873
900.59486,0.13949
902.52333,0.15549
904.45180,0.17037
906.38027,0.17048
908.30874,0.16525
910.23721,0.16333
912.16568,0.16070
914.09414,0.15783
916.02261,0.15733
917.95108,0.15660
919.87955,0.15305
921.80802,0.14922
923.73649,0.14946
925.66496,0.15286
927.59343,0.15354
929.52189,0.14657
931.45036,0.13816
933.37883,0.14097
935.30730,0.15022
937.23577,0.15364
939.16424,0.15662
941.09271,0.16051
943.02117,0.15634
944.94964,0.14874
946.87811,0.14592
948.80658,0.14440
950.73505,0.14087
952.66352,0.14113
954.59199,0.14604
956.52045,0.14449
958.44892,0.13427
960.37739,0.12928
962.30586,0.13718
964.23433,0.14940
966.16280,0.15522
968.09127,0.15530
970.01974,0.15845
971.94820,0.16352
973.87667,0.16106
975.80514,0.14997
977.73361,0.13781
979.66208,0.13453
981.59055,0.13909
983.51902,0.14218
985.44748,0.14477
987.37595,0.15106
989.30442,0.15778
991.23289,0.16164
993.16136,0.16291
995.08983,0.15893
997.01830,0.14909
998.94677,0.14198
1000.87523,0.14195
1002.80370,0.14478
1004.73217,0.14751
1006.66064,0.14872
1008.58911,0.15004
1010.51758,0.15455
1012.44605,0.16093
1014.37451,0.16620
1016.30298,0.16620
1018.23145,0.16070
1020.15992,0.15571
1022.08839,0.15184
1024.01686,0.14963
1025.94533,0.15682
1027.87380,0.16885
1029.80226,0.16892
1031.73073,0.16083
1033.65920,0.15774
1035.58767,0.15546
1037.51614,0.15317
1039.44461,0.15345
1041.37308,0.15456
1043.30154,0.15826
1045.23001,0.15839
1047.15848,0.15547
1049.08695,0.15991
1051.01542,0.16434
1052.94389,0.16153
1054.87236,0.16194
1056.80083,0.16747
1058.72929,0.16684
1060.65776,0.16051
1062.58623,0.15967
1064.51470,0.16372
1066.44317,0.16272
1068.37164,0.15899
1070.30011,0.15925
1072.22857,0.15958
1074.15704,0.15716
1076.08551,0.15782
1078.01398,0.16163
1079.94245,0.16310
1081.87092,0.16411
1083.79939,0.16373
1085.72786,0.16051
1087.65632,0.15717
1089.58479,0.15429
1091.51326,0.15454
1093.44173,0.15241
1095.37020,0.14594
1097.29867,0.14823
1099.22714,0.15972
1101.15560,0.16681
1103.08407,0.16860
1105.01254,0.17622
1106.94101,0.18660
1108.86948,0.18708
1110.79795,0.17832
1112.72642,0.16850
1114.65489,0.15956
1116.58335,0.14986
1118.51182,0.14481
1120.44029,0.15276
1122.36876,0.16741
1124.29723,0.17285
1126.22570,0.16706
1128.15417,0.16035
1130.08263,0.15715
1132.01110,0.15392
1133.93957,0.14910
1135.86804,0.14857
1137.79651,0.15415
1139.72498,0.15923
1141.65345,0.16058
1143.58191,0.15968
1145.51038,0.16144
1147.43885,0.16784
1149.36732,0.17240
1151.29579,0.17064
1153.22426,0.16632
1155.15273,0.16459
1157.08120,0.16541
1159.00966,0.16830
1160.93813,0.17132
1162.86660,0.17084
1164.79507,0.17162
1166.72354,0.17214
1168.65201,0.16377
1170.58048,0.15495
1172.50894,0.15550
1174.43741,0.16043
1176.36588,0.16652
1178.29435,0.17083
1180.22282,0.16742
1182.15129,0.16196
1184.07976,0.16488
1186.00823,0.17310
1187.93669,0.17450
1189.86516,0.16950
1191.79363,0.16735
1193.72210,0.16720
1195.65057,0.16486
1197.57904,0.16169
1199.50751,0.16065
1201.43597,0.16230
1203.36444,0.16539
1205.29291,0.16514
1207.22138,0.15958
1209.14985,0.15825
1211.07832,0.16521
1213.00679,0.17277
1214.93526,0.17418
1216.86372,0.17051
1218.79219,0.17053
1220.72066,0.17449
1222.64913,0.17407
1224.57760,0.17091
1226.50607,0.16970
1228.43454,0.16847
1230.36300,0.16842
1232.29147,0.17009
1234.21994,0.16898
1236.14841,0.16564
1238.07688,0.16488
1240.00535,0.16882
1241.93382,0.17144
1243.86229,0.16576
1245.79075,0.15768
1247.71922,0.15536
1249.64769,0.15776
1251.57616,0.16003
1253.50463,0.16116
1255.43310,0.16490
1257.36157,0.17077
1259.29003,0.17385
1261.21850,0.17164
1263.14697,0.16611
1265.07544,0.16446
1267.00391,0.16842
1268.93238,0.17098
1270.86085,0.17122
1272.78932,0.17121
1274.71778,0.16891
1276.64625,0.16571
1278.57472,0.16643
1280.50319,0.17045
1282.43166,0.17414
1284.36013,0.17779
1286.28860,0.18039
1288.21706,0.17894
1290.14553,0.17384
1292.07400,0.16893
1294.00247,0.16780
1295.93094,0.16828
1297.85941,0.16579
1299.78788,0.15945
1301.71634,0.15001
1303.64481,0.14071
1305.57328,0.14046
1307.50175,0.15098
1309.43022,0.16141
1311.35869,0.16685
1313.28716,0.16963
1315.21563,0.17163
1317.14409,0.17609
1319.07256,0.18031
1321.00103,0.17837
1322.92950,0.17298
1324.85797,0.16872
1326.78644,0.16628
1328.71491,0.16428
1330.64337,0.16047
1332.57184,0.15932
1334.50031,0.16398
1336.42878,0.16896
1338.35725,0.17340
1340.28572,0.17701
1342.21419,0.18609
1344.14266,0.20119
1346.07112,0.19801
1347.99959,0.17763
1349.92806,0.16757
1351.85653,0.16793
1353.78500,0.16896
1355.71347,0.16891
1357.64194,0.16892
1359.57040,0.17421
1361.49887,0.18043
1363.42734,0.17818
1365.35581,0.17484
1367.28428,0.17573
1369.21275,0.17519
1371.14122,0.17450
1373.06969,0.17934
1374.99815,0.18733
1376.92662,0.18995
1378.85509,0.18727
1380.78356,0.18329
1382.71203,0.18030
1384.64050,0.18057
1386.56897,0.18188
1388.49743,0.18078
1390.42590,0.18137
1392.35437,0.18699
1394.28284,0.19380
1396.21131,0.19402
1398.13978,0.18925
1400.06825,0.18653
1401.99672,0.18716
1403.92518,0.18903
1405.85365,0.18931
1407.78212,0.18704
1409.71059,0.18383
1411.63906,0.18045
1413.56753,0.18158
1415.49600,0.19098
1417.42446,0.20144
1419.35293,0.19747
1421.28140,0.18354
1423.20987,0.17752
1425.13834,0.18120
1427.06681,0.18865
1428.99528,0.19318
1430.92375,0.19059
1432.85221,0.18698
1434.78068,0.18892
1436.70915,0.19075
1438.63762,0.18630
1440.56609,0.18228
1442.49456,0.18090
1444.42303,0.18139
1446.35149,0.18310
1448.27996,0.18427
1450.20843,0.18602
1452.13690,0.19184
1454.06537,0.20270
1455.99384,0.21800
1457.92231,0.22358
1459.85077,0.20984
1461.77924,0.19966
1463.70771,0.19854
1465.63618,0.19818
1467.56465,0.19428
1469.49312,0.19636
1471.42159,0.20681
1473.35006,0.21135
1475.27852,0.20298
1477.20699,0.19495
1479.13546,0.19168
1481.06393,0.19294
1482.99240,0.19524
1484.92087,0.19610
1486.84934,0.19838
1488.77780,0.20326
1490.70627,0.20213
1492.63474,0.19636
1494.56321,0.19495
1496.49168,0.20050
1498.42015,0.20588
1500.34862,0.20574
1502.27709,0.20779
1504.20555,0.21242
1506.13402,0.21501
1508.06249,0.21126
1509.99096,0.20422
1511.91943,0.19772
1513.84790,0.19635
1515.77637,0.20415
1517.70483,0.21514
1519.63330,0.22158
1521.56177,0.22415
1523.49024,0.22097
1525.41871,0.21778
1527.34718,0.21325
1529.27565,0.20698
1531.20412,0.20524
1533.13258,0.20309
1535.06105,0.19688
1536.98952,0.20072
1538.91799,0.22292
1540.84646,0.24541
1542.77493,0.23203
1544.70340,0.20985
1546.63186,0.19596
1548.56033,0.19303
1550.48880,0.19745
1552.41727,0.20405
1554.34574,0.21130
1556.27421,0.21760
1558.20268,0.21601
1560.13115,0.20099
1562.05961,0.19306
1563.98808,0.18994
1565.91655,0.18950
1567.84502,0.19270
1569.77349,0.19662
1571.70196,0.19827
1573.63043,0.19974
1575.55889,0.20055
1577.48736,0.19474
1579.41583,0.18634
1581.34430,0.18175
1583.27277,0.18227
1585.20124,0.18575
1587.12971,0.18735
1589.05818,0.18572
1590.98664,0.18376
1592.91511,0.18373
1594.84358,0.18333
1596.77205,0.18196
1598.70052,0.18306
1600.62899,0.18512
1602.55746,0.18627
1604.48592,0.18695
1606.41439,0.18520
1608.34286,0.18022
1610.27133,0.17665
1612.19980,0.17906
1614.12827,0.18647
1616.05674,0.19657
1617.98521,0.20050
1619.91367,0.19659
1621.84214,0.19333
1623.77061,0.19381
1625.69908,0.19728
1627.62755,0.19905
1629.55602,0.19645
1631.48449,0.19567
1633.41295,0.20164
1635.34142,0.20934
1637.26989,0.20599
1639.19836,0.20021
1641.12683,0.19983
1643.05530,0.20277
1644.98377,0.20872
1646.91223,0.21579
1648.84070,0.21481
1650.76917,0.21702
1652.69764,0.22968
1654.62611,0.22403
1656.55458,0.20967
1658.48305,0.20428
1660.41152,0.20424
1662.33998,0.20411
1664.26845,0.20199
1666.19692,0.20437
1668.12539,0.21225
1670.05386,0.21641
1671.98233,0.21374
1673.91080,0.21271
1675.83926,0.21069
1677.76773,0.20775
1679.69620,0.20783
1681.62467,0.21118
1683.55314,0.21903
1685.48161,0.21865
1687.41008,0.20895
1689.33855,0.20195
1691.26701,0.19792
1693.19548,0.19834
1695.12395,0.20652
1697.05242,0.21864
1698.98089,0.22258
1700.90936,0.21432
1702.83783,0.20691
1704.76629,0.20662
1706.69476,0.20579
1708.62323,0.20107
1710.55170,0.19790
1712.48017,0.20085
1714.40864,0.21313
1716.33711,0.22621
1718.26558,0.21365
1720.19404,0.19249
1722.12251,0.18477
1724.05098,0.18703
1725.97945,0.19137
1727.90792,0.19332
1729.83639,0.19636
1731.76486,0.20156
1733.69332,0.20340
1735.62179,0.20017
1737.55026,0.19917
1739.47873,0.20184
1741.40720,0.20305
1743.33567,0.19873
1745.26414,0.19365
1747.19261,0.19319
1749.12107,0.19615
1751.04954,0.19601
1752.97801,0.19285
1754.90648,0.19227
1756.83495,0.19521
1758.76342,0.19985
1760.69189,0.20369
1762.62035,0.20113
1764.54882,0.19435
1766.47729,0.19323
1768.40576,0.19964
1770.33423,0.20874
1772.26270,0.21360
1774.19117,0.20796
1776.11964,0.20015
1778.04810,0.19861
1779.97657,0.20011
1781.90504,0.19855
1783.83351,0.19617
1785.76198,0.19367
1787.69045,0.19107
1789.61892,0.19415
1791.54738,0.20303
1793.47585,0.20544
1795.40432,0.20082
1797.33279,0.19760
1799.26126,0.19662
1801.18973,0.19613
1803.11820,0.19453
1805.04666,0.19301
1806.97513,0.19309
1808.90360,0.19445
1810.83207,0.19449
1812.76054,0.19136
1814.68901,0.18728
1816.61748,0.18371
1818.54595,0.18076
1820.47441,0.18044
1822.40288,0.18542
1824.33135,0.19252
1826.25982,0.19661
1828.18829,0.20006
1830.11676,0.20190
1832.04523,0.19913
1833.97369,0.19658
1835.90216,0.19546
1837.83063,0.19367
1839.75910,0.19119
1841.68757,0.19075
1843.61604,0.19376
1845.54451,0.19483
1847.47298,0.19206
1849.40144,0.19157
1851.32991,0.19544
1853.25838,0.19747
1855.18685,0.19304
1857.11532,0.18850
1859.04379,0.18905
1860.97226,0.19118
1862.90072,0.19229
1864.82919,0.19380
1866.75766,0.19558
1868.68613,0.19616
1870.61460,0.19571
1872.54307,0.19408
1874.47154,0.19288
1876.40001,0.19378
1878.32847,0.19498
1880.25694,0.19415
1882.18541,0.19240
1884.11388,0.19320
1886.04235,0.19628
1887.97082,0.19723
1889.89929,0.19318
1891.82775,0.18888
1893.75622,0.18988
1895.68469,0.19361
1897.61316,0.19443
1899.54163,0.19202
1901.47010,0.19048
1903.39857,0.18992
1905.32704,0.18824
1907.25550,0.18880
1909.18397,0.19094
1911.11244,0.18963
1913.04091,0.18952
1914.96938,0.19448
1916.89785,0.19756
1918.82632,0.19433
1920.75478,0.19154
1922.68325,0.19186
1924.61172,0.19175
1926.54019,0.19102
1928.46866,0.19051
1930.39713,0.19076
1932.32560,0.19209
1934.25407,0.19308
1936.18253,0.19252
1938.11100,0.19047
1940.03947,0.19050
1941.96794,0.19411
1943.89641,0.19498
1945.82488,0.19159
1947.75335,0.18895
1949.68181,0.18770
1951.61028,0.18765
1953.53875,0.18889
1955.46722,0.18867
1957.39569,0.18765
1959.32416,0.18977
1961.25263,0.19254
1963.18110,0.19242
1965.10956,0.19202
1967.03803,0.19199
1968.96650,0.19016
1970.89497,0.18809
1972.82344,0.18726
1974.75191,0.18566
1976.68038,0.18412
1978.60884,0.18542
1980.53731,0.18723
1982.46578,0.18762
1984.39425,0.18855
1986.32272,0.19020
1988.25119,0.19082
1990.17966,0.19157
1992.10812,0.19306
1994.03659,0.19175
1995.96506,0.18824
1997.89353,0.18755
1999.82200,0.19065
2001.75047,0.19400
2003.67894,0.19491
2005.60741,0.19308
2007.53587,0.19012
2009.46434,0.18741
2011.39281,0.18648
2013.32128,0.18949
2015.24975,0.19302
2017.17822,0.19325
2019.10669,0.19267
2021.03515,0.19227
2022.96362,0.19184
2024.89209,0.19258
2026.82056,0.19245
2028.74903,0.19006
2030.67750,0.18726
2032.60597,0.18544
2034.53444,0.18677
2036.46290,0.19144
2038.39137,0.19517
2040.31984,0.19473
2042.24831,0.19179
2044.17678,0.18905
2046.10525,0.18672
2048.03372,0.18643
2049.96218,0.18946
2051.89065,0.19238
2053.81912,0.19192
2055.74759,0.18982
2057.67606,0.18857
2059.60453,0.18724
2061.53300,0.18591
2063.46147,0.18711
2065.38993,0.19032
2067.31840,0.19166
2069.24687,0.19088
2071.17534,0.19180
2073.10381,0.19427
2075.03228,0.19465
2076.96075,0.19289
2078.88921,0.19168
2080.81768,0.19260
2082.74615,0.19302
2084.67462,0.19031
2086.60309,0.18902
2088.53156,0.19178
2090.46003,0.19441
2092.38850,0.19490
2094.31696,0.19489
2096.24543,0.19511
2098.17390,0.19424
2100.10237,0.19229
2102.03084,0.19169
2103.95931,0.19314
2105.88778,0.19398
2107.81624,0.19194
2109.74471,0.18898
2111.67318,0.18816
2113.60165,0.18873
2115.53012,0.18828
2117.45859,0.18833
2119.38706,0.19042
2121.31553,0.19222
2123.24399,0.19302
2125.17246,0.19303
2127.10093,0.19177
2129.02940,0.19166
2130.95787,0.19380
2132.88634,0.19147
2134.81481,0.18221
2136.74327,0.17868
2138.67174,0.18592
2140.60021,0.19131
2142.52868,0.19071
2144.45715,0.19022
2146.38562,0.19131
2148.31409,0.19243
2150.24255,0.19162
2152.17102,0.19065
2154.09949,0.19245
2156.02796,0.19378
2157.95643,0.19263
2159.88490,0.19326
2161.81337,0.19529
2163.74184,0.19368
2165.67030,0.19174
2167.59877,0.19330
2169.52724,0.19483
2171.45571,0.19394
2173.38418,0.19194
2175.31265,0.19155
2177.24112,0.19217
2179.16958,0.19088
2181.09805,0.18888
2183.02652,0.18917
2184.95499,0.19224
2186.88346,0.19540
2188.81193,0.19546
2190.74040,0.19304
2192.66887,0.19135
2194.59733,0.19137
2196.52580,0.19074
2198.45427,0.18937
2200.38274,0.19040
2202.31121,0.19214
2204.23968,0.19222
2206.16815,0.19222
2208.09661,0.19228
2210.02508,0.19191
2211.95355,0.19038
2213.88202,0.18875
2215.81049,0.19025
2217.73896,0.19258
2219.66743,0.19192
2221.59590,0.19109
2223.52436,0.19267
2225.45283,0.19408
2227.38130,0.19360
2229.30977,0.19214
2231.23824,0.19082
2233.16671,0.18991
2235.09518,0.18946
2237.02364,0.18953
2238.95211,0.18977
2240.88058,0.18965
2242.80905,0.18935
2244.73752,0.19053
2246.66599,0.19288
2248.59446,0.19388
2250.52293,0.19366
2252.45139,0.19348
2254.37986,0.19267
2256.30833,0.19139
2258.23680,0.19075
2260.16527,0.19062
2262.09374,0.19064
2264.02221,0.19064
2265.95067,0.19085
2267.87914,0.19203
2269.80761,0.19473
2271.73608,0.19731
2273.66455,0.19678
2275.59302,0.19527
2277.52149,0.19661
2279.44996,0.19854
2281.37842,0.19700
2283.30689,0.19377
2285.23536,0.19199
2287.16383,0.19008
2289.09230,0.18592
2291.02077,0.18137
2292.94924,0.18169
2294.87770,0.18674
2296.80617,0.19104
2298.73464,0.19226
2300.66311,0.18934
2302.59158,0.18521
2304.52005,0.18373
2306.44852,0.18261
2308.37699,0.18272
2310.30545,0.18680
2312.23392,0.18920
2314.16239,0.18310
2316.09086,0.17123
2318.01933,0.16377
2319.94780,0.16600
2321.87627,0.17281
2323.80473,0.17808
2325.73320,0.17740
2327.66167,0.17254
2329.59014,0.17465
2331.51861,0.18307
2333.44708,0.18419
2335.37555,0.17889
2337.30401,0.17505
2339.23248,0.17395
2341.16095,0.17468
2343.08942,0.17350
2345.01789,0.17139
2346.94636,0.17281
2348.87483,0.17558
2350.80330,0.17635
2352.73176,0.17310
2354.66023,0.17340
2356.58870,0.17852
2358.51717,0.16567
2360.44564,0.15063
2362.37411,0.15887
2364.30258,0.17372
2366.23104,0.18902
2368.15951,0.19506
2370.08798,0.18322
2372.01645,0.17009
2373.94492,0.16713
2375.87339,0.17467
2377.80186,0.18518
2379.73033,0.18943
2381.65879,0.18973
2383.58726,0.19141
2385.51573,0.19305
2387.44420,0.19291
2389.37267,0.19286
2391.30114,0.19309
2393.22961,0.19126
2395.15807,0.18981
2397.08654,0.19196
2399.01501,0.19366
2400.94348,0.19295
2402.87195,0.19302
2404.80042,0.19354
2406.72889,0.19335
2408.65736,0.19309
2410.58582,0.19282
2412.51429,0.19356
2414.44276,0.19612
2416.37123,0.19808
2418.29970,0.19756
2420.22817,0.19693
2422.15664,0.19677
2424.08510,0.19460
2426.01357,0.19215
2427.94204,0.19238
2429.87051,0.19343
2431.79898,0.19382
2433.72745,0.19400
2435.65592,0.19350
2437.58439,0.19278
2439.51285,0.19229
2441.44132,0.19237
2443.36979,0.19309
2445.29826,0.19381
2447.22673,0.19486
2449.15520,0.19616
2451.08367,0.19687
2453.01213,0.19492
2454.94060,0.19097
2456.86907,0.19015
2458.79754,0.19271
2460.72601,0.19473
2462.65448,0.19511
2464.58295,0.19407
2466.51142,0.19259
2468.43988,0.19258
2470.36835,0.19419
2472.29682,0.19602
2474.22529,0.19712
2476.15376,0.19695
2478.08223,0.19534
2480.01070,0.19338
2481.93916,0.19249
2483.86763,0.19200
2485.79610,0.19071
2487.72457,0.19020
2489.65304,0.19193
2491.58151,0.19335
2493.50998,0.19270
2495.43844,0.19274
2497.36691,0.19472
2499.29538,0.19696
2501.22385,0.19876
2503.15232,0.19962
2505.08079,0.19916
2507.00926,0.19883
2508.93773,0.19876
2510.86619,0.19667
2512.79466,0.19333
2514.72313,0.19196
2516.65160,0.19285
2518.58007,0.19417
2520.50854,0.19457
2522.43701,0.19499
2524.36547,0.19628
2526.29394,0.19636
2528.22241,0.19431
2530.15088,0.19119
2532.07935,0.18897
2534.00782,0.18959
2535.93629,0.19079
2537.86476,0.19117
2539.79322,0.19228
2541.72169,0.19405
2543.65016,0.19591
2545.57863,0.19597
2547.50710,0.19407
2549.43557,0.19340
2551.36404,0.19260
2553.29250,0.19049
2555.22097,0.19114
2557.14944,0.19442
2559.07791,0.19587
2561.00638,0.19543
2562.93485,0.19510
2564.86332,0.19382
2566.79179,0.19205
2568.72025,0.19261
2570.64872,0.19439
2572.57719,0.19536
2574.50566,0.19509
2576.43413,0.19199
2578.36260,0.18937
2580.29107,0.19158
2582.21953,0.19398
2584.14800,0.19302
2586.07647,0.19254
2588.00494,0.19493
2589.93341,0.19819
2591.86188,0.19970
2593.79035,0.19858
2595.71882,0.19664
2597.64728,0.19650
2599.57575,0.19740
2601.50422,0.19774
2603.43269,0.19823
2605.36116,0.19881
2607.28963,0.19960
2609.21810,0.20152
2611.14656,0.20300
2613.07503,0.20213
2615.00350,0.20017
2616.93197,0.19871
2618.86044,0.19824
2620.78891,0.19928
2622.71738,0.20046
2624.64585,0.19998
2626.57431,0.19799
2628.50278,0.19568
2630.43125,0.19452
2632.35972,0.19541
2634.28819,0.19714
2636.21666,0.19637
2638.14513,0.19313
2640.07359,0.19143
2642.00206,0.19186
2643.93053,0.19361
2645.85900,0.19639
2647.78747,0.19828
2649.71594,0.20129
2651.64441,0.20600
2653.57288,0.20595
2655.50134,0.20083
2657.42981,0.19948
2659.35828,0.20458
2661.28675,0.20823
2663.21522,0.20630
2665.14369,0.20242
2667.07216,0.19905
2669.00062,0.19742
2670.92909,0.19728
2672.85756,0.19753
2674.78603,0.19806
2676.71450,0.19775
2678.64297,0.19541
2680.57144,0.19341
2682.49990,0.19569
2684.42837,0.20023
2686.35684,0.20390
2688.28531,0.20776
2690.21378,0.21139
2692.14225,0.21196
2694.07072,0.20800
2695.99919,0.20390
2697.92765,0.20314
2699.85612,0.20299
2701.78459,0.20329
2703.71306,0.20608
2705.64153,0.20931
2707.57000,0.20895
2709.49847,0.20565
2711.42693,0.20447
2713.35540,0.20532
2715.28387,0.20368
2717.21234,0.20180
2719.14081,0.20348
2721.06928,0.20464
2722.99775,0.20134
2724.92622,0.19720
2726.85468,0.19577
2728.78315,0.19556
2730.71162,0.19843
2732.64009,0.20515
2734.56856,0.20867
2736.49703,0.20652
2738.42550,0.20308
2740.35396,0.20078
2742.28243,0.20111
2744.21090,0.20483
2746.13937,0.20892
2748.06784,0.21029
2749.99631,0.20823
2751.92478,0.20431
2753.85325,0.20225
2755.78171,0.20361
2757.71018,0.20613
2759.63865,0.20759
2761.56712,0.20829
2763.49559,0.20789
2765.42406,0.20681
2767.35253,0.20784
2769.28099,0.20981
2771.20946,0.21098
2773.13793,0.21181
2775.06640,0.21074
2776.99487,0.20720
2778.92334,0.20406
2780.85181,0.20345
2782.78028,0.20483
2784.70874,0.20779
2786.63721,0.21036
2788.56568,0.20960
2790.49415,0.20692
2792.42262,0.20687
2794.35109,0.20999
2796.27956,0.21030
2798.20802,0.20658
2800.13649,0.20431
2802.06496,0.20487
2803.99343,0.20625
2805.92190,0.20711
2807.85037,0.20717
2809.77884,0.20730
2811.70731,0.20863
2813.63577,0.21108
2815.56424,0.21192
2817.49271,0.21087
2819.42118,0.21016
2821.34965,0.20980
2823.27812,0.21097
2825.20659,0.21381
2827.13505,0.21278
2829.06352,0.20800
2830.99199,0.20723
2832.92046,0.21085
2834.84893,0.21253
2836.77740,0.21140
2838.70587,0.21198
2840.63433,0.21369
2842.56280,0.21151
2844.49127,0.20717
2846.41974,0.20635
2848.34821,0.20936
2850.27668,0.21202
2852.20515,0.21075
2854.13362,0.20620
2856.06208,0.20358
2857.99055,0.20565
2859.91902,0.20844
2861.84749,0.20938
2863.77596,0.20941
2865.70443,0.20783
2867.63290,0.20688
2869.56136,0.20852
2871.48983,0.20669
2873.41830,0.20209
2875.34677,0.20384
2877.27524,0.21008
2879.20371,0.21395
2881.13218,0.21366
2883.06065,0.20916
2884.98911,0.20277
2886.91758,0.19803
2888.84605,0.19825
2890.77452,0.20272
2892.70299,0.20546
2894.63146,0.20534
2896.55993,0.20661
2898.48839,0.20871
2900.41686,0.20972
2902.34533,0.21128
2904.27380,0.21327
2906.20227,0.21358
2908.13074,0.21063
2910.05921,0.20552
2911.98768,0.20416
2913.91614,0.20542
2915.84461,0.20204
2917.77308,0.19957
2919.70155,0.20473
2921.63002,0.21138
2923.55849,0.21347
2925.48696,0.21096
2927.41542,0.20881
2929.34389,0.20827
2931.27236,0.20565
2933.20083,0.20168
2935.12930,0.19529
2937.05777,0.19003
2938.98624,0.19445
2940.91471,0.20194
2942.84317,0.20407
2944.77164,0.20310
2946.70011,0.20001
2948.62858,0.19856
2950.55705,0.20301
2952.48552,0.20822
2954.41399,0.20681
2956.34245,0.19708
2958.27092,0.19116
2960.19939,0.20220
2962.12786,0.21772
2964.05633,0.21955
2965.98480,0.21164
2967.91327,0.20503
2969.84174,0.20417
2971.77020,0.20553
2973.69867,0.20475
2975.62714,0.20438
2977.55561,0.20495
2979.48408,0.20611
2981.41255,0.21070
2983.34102,0.21597
2985.26948,0.21559
2987.19795,0.20956
2989.12642,0.20635
2991.05489,0.21123
2992.98336,0.21603
2994.91183,0.21278
2996.84030,0.20800
2998.76877,0.20960
3000.69723,0.21340
3002.62570,0.21436
3004.55417,0.21558
3006.48264,0.21773
3008.41111,0.21490
3010.33958,0.20251
3012.26805,0.18054
3014.19651,0.15314
3016.12498,0.13559
3018.05345,0.15017
3019.98192,0.18791
3021.91039,0.21254
3023.83886,0.21548
3025.76733,0.21244
3027.69579,0.21200
3029.62426,0.21579
3031.55273,0.21980
3033.48120,0.21890
3035.40967,0.21410
3037.33814,0.20836
3039.26661,0.20560
3041.19508,0.20768
3043.12354,0.21234
3045.05201,0.21596
3046.98048,0.21426
3048.90895,0.21126
3050.83742,0.21456
3052.76589,0.21899
3054.69436,0.21502
3056.62282,0.20610
3058.55129,0.20617
3060.47976,0.21547
3062.40823,0.22101
3064.33670,0.21695
3066.26517,0.20792
3068.19364,0.20734
3070.12211,0.21664
3072.05057,0.22052
3073.97904,0.21460
3075.90751,0.20732
3077.83598,0.20663
3079.76445,0.21267
3081.69292,0.21425
3083.62139,0.20220
3085.54985,0.19024
3087.47832,0.19598
3089.40679,0.20837
3091.33526,0.20960
3093.26373,0.20106
3095.19220,0.19486
3097.12067,0.19627
3099.04914,0.19829
3100.97760,0.19538
3102.90607,0.18981
3104.83454,0.19232
3106.76301,0.20741
3108.69148,0.22183
3110.61995,0.22280
3112.54842,0.21454
3114.47688,0.21151
3116.40535,0.21426
3118.33382,0.21208
3120.26229,0.20351
3122.19076,0.19618
3124.11923,0.19667
3126.04770,0.20409
3127.97617,0.21270
3129.90463,0.21500
3131.83310,0.21301
3133.76157,0.21261
3135.69004,0.20983
3137.61851,0.20553
3139.54698,0.20435
3141.47545,0.20467
3143.40391,0.20516
3145.33238,0.20810
3147.26085,0.21309
3149.18932,0.21574
3151.11779,0.21574
3153.04626,0.21420
3154.97473,0.21317
3156.90320,0.21642
3158.83166,0.22117
3160.76013,0.22338
3162.68860,0.22280
3164.61707,0.22113
3166.54554,0.22146
3168.47401,0.22358
3170.40248,0.22577
3172.33094,0.22655
3174.25941,0.22478
3176.18788,0.22258
3178.11635,0.22282
3180.04482,0.22499
3181.97329,0.22446
3183.90176,0.22057
3185.83022,0.21715
3187.75869,0.21312
3189.68716,0.21020
3191.61563,0.21358
3193.54410,0.22025
3195.47257,0.22509
3197.40104,0.22468
3199.32951,0.21843
3201.25797,0.21332
3203.18644,0.21366
3205.11491,0.21605
3207.04338,0.21714
3208.97185,0.21729
3210.90032,0.21767
3212.82879,0.21602
3214.75725,0.21167
3216.68572,0.21113
3218.61419,0.21454
3220.54266,0.21436
3222.47113,0.21356
3224.39960,0.21787
3226.32807,0.22157
3228.25654,0.21863
3230.18500,0.21273
3232.11347,0.20873
3234.04194,0.20719
3235.97041,0.20829
3237.89888,0.21217
3239.82735,0.21699
3241.75582,0.21715
3243.68428,0.21379
3245.61275,0.21464
3247.54122,0.21789
3249.46969,0.21852
3251.39816,0.21535
3253.32663,0.21104
3255.25510,0.21045
3257.18357,0.21079
3259.11203,0.20900
3261.04050,0.20972
3262.96897,0.21258
3264.89744,0.21182
3266.82591,0.20930
3268.75438,0.20938
3270.68285,0.21011
3272.61131,0.21034
3274.53978,0.21133
3276.46825,0.21327
3278.39672,0.21637
3280.32519,0.21654
3282.25366,0.20987
3284.18213,0.20176
3286.11060,0.20063
3288.03906,0.20826
3289.96753,0.21744
3291.89600,0.21937
3293.82447,0.21449
3295.75294,0.21155
3297.68141,0.21378
3299.60988,0.21713
3301.53834,0.21761
3303.46681,0.21239
3305.39528,0.20725
3307.32375,0.20600
3309.25222,0.20250
3311.18069,0.19842
3313.10916,0.19772
3315.03763,0.19928
3316.96609,0.20262
3318.89456,0.20716
3320.82303,0.21186
3322.75150,0.21312
3324.67997,0.21151
3326.60844,0.21350
3328.53691,0.21792
3330.46537,0.21908
3332.39384,0.21835
3334.32231,0.21930
3336.25078,0.22289
3338.17925,0.22737
3340.10772,0.22720
3342.03619,0.22235
3343.96466,0.21850
3345.89312,0.21700
3347.82159,0.21624
3349.75006,0.21590
3351.67853,0.21816
3353.60700,0.22205
3355.53547,0.22168
3357.46394,0.21796
3359.39240,0.21835
3361.32087,0.22153
3363.24934,0.21918
3365.17781,0.21358
3367.10628,0.21404
3369.03475,0.22039
3370.96322,0.22458
3372.89168,0.22182
3374.82015,0.21640
3376.74862,0.21401
3378.67709,0.21216
3380.60556,0.20934
3382.53403,0.20918
3384.46250,0.21093
3386.39097,0.21226
3388.31943,0.21255
3390.24790,0.21124
3392.17637,0.21196
3394.10484,0.21713
3396.03331,0.22142
3397.96178,0.22154
3399.89025,0.21961
3401.81871,0.21964
3403.74718,0.22424
3405.67565,0.22787
3407.60412,0.22627
3409.53259,0.22414
3411.46106,0.22323
3413.38953,0.22026
3415.31800,0.21680
3417.24646,0.21658
3419.17493,0.21874
3421.10340,0.22027
3423.03187,0.21704
3424.96034,0.21351
3426.88881,0.21762
3428.81728,0.21958
3430.74574,0.20910
3432.67421,0.19761
3434.60268,0.19721
3436.53115,0.20464
3438.45962,0.21250
3440.38809,0.21522
3442.31656,0.21305
3444.24503,0.21194
3446.17349,0.21120
3448.10196,0.20809
3450.03043,0.20737
3451.95890,0.20944
3453.88737,0.20798
3455.81584,0.20457
3457.74431,0.20296
3459.67277,0.19996
3461.60124,0.19707
3463.52971,0.19857
3465.45818,0.20262
3467.38665,0.20314
3469.31512,0.19930
3471.24359,0.19831
3473.17206,0.20112
3475.10052,0.20159
3477.02899,0.19706
3478.95746,0.19169
3480.88593,0.19048
3482.81440,0.19216
3484.74287,0.19431
3486.67134,0.19643
3488.59980,0.19674
3490.52827,0.19399
3492.45674,0.19043
3494.38521,0.18814
3496.31368,0.18717
3498.24215,0.18810
3500.17062,0.18965
3502.09909,0.19101
3504.02755,0.19068
3505.95602,0.18889
3507.88449,0.18976
3509.81296,0.18984
3511.74143,0.18462
3513.66990,0.17847
3515.59837,0.17846
3517.52683,0.18404
3519.45530,0.18642
3521.38377,0.18397
3523.31224,0.18121
3525.24071,0.18132
3527.16918,0.18325
3529.09765,0.18269
3531.02611,0.18153
3532.95458,0.18224
3534.88305,0.18224
3536.81152,0.17851
3538.73999,0.17159
3540.66846,0.16652
3542.59693,0.16781
3544.52540,0.17413
3546.45386,0.17907
3548.38233,0.18195
3550.31080,0.18477
3552.23927,0.18256
3554.16774,0.17472
3556.09621,0.17059
3558.02468,0.17104
3559.95314,0.16842
3561.88161,0.16357
3563.81008,0.16312
3565.73855,0.16746
3567.66702,0.16966
3569.59549,0.16660
3571.52396,0.16443
3573.45243,0.16300
3575.38089,0.16016
3577.30936,0.15811
3579.23783,0.15643
3581.16630,0.15256
3583.09477,0.15093
3585.02324,0.15907
3586.95171,0.17291
3588.88017,0.17419
3590.80864,0.16629
3592.73711,0.16320
3594.66558,0.16403
3596.59405,0.16241
3598.52252,0.15823
3600.45099,0.15311
3602.37946,0.14889
3604.30792,0.14725
3606.23639,0.14639
3608.16486,0.14704
3610.09333,0.15174
3612.02180,0.15650
3613.95027,0.15553
3615.87874,0.14918
3617.80720,0.14559
3619.73567,0.14616
3621.66414,0.14483
3623.59261,0.14635
3625.52108,0.15280
3627.44955,0.15938
3629.37802,0.15638
3631.30649,0.14352
3633.23495,0.13496
3635.16342,0.13355
3637.09189,0.13644
3639.02036,0.13841
3640.94883,0.13768
3642.87730,0.13863
3644.80577,0.14355
3646.73423,0.15042
3648.66270,0.15654
3650.59117,0.15774
3652.51964,0.15199
3654.44811,0.14413
3656.37658,0.13830
3658.30505,0.13455
3660.23352,0.13119
3662.16198,0.13046
3664.09045,0.13333
3666.01892,0.13690
3667.94739,0.14100
3669.87586,0.14790
3671.80433,0.15537
3673.73280,0.16024
3675.66126,0.15641
3677.58973,0.14521
3679.51820,0.13806
3681.44667,0.13374
3683.37514,0.13114
3685.30361,0.13126
3687.23208,0.13593
3689.16055,0.14360
3691.08901,0.14361
3693.01748,0.13699
3694.94595,0.13377
3696.87442,0.13387
3698.80289,0.13359
3700.73136,0.13455
3702.65983,0.13826
3704.58829,0.14192
3706.51676,0.14274
3708.44523,0.14381
3710.37370,0.14920
3712.30217,0.14966
3714.23064,0.14471
3716.15911,0.14444
3718.08757,0.14655
3720.01604,0.14484
3721.94451,0.14003
3723.87298,0.13818
3725.80145,0.13908
3727.72992,0.13791
3729.65839,0.13565
3731.58686,0.13822
3733.51532,0.14626
3735.44379,0.15349
3737.37226,0.15249
3739.30073,0.14434
3741.22920,0.13750
3743.15767,0.13403
3745.08614,0.13287
3747.01460,0.13551
3748.94307,0.13862
3750.87154,0.13626
3752.80001,0.13071
3754.72848,0.12897
3756.65695,0.13208
3758.58542,0.13837
3760.51389,0.13912
3762.44235,0.13463
3764.37082,0.13084
3766.29929,0.12820
3768.22776,0.12657
3770.15623,0.12363
3772.08470,0.11949
3774.01317,0.11907
3775.94163,0.12374
3777.87010,0.13028
3779.79857,0.13190
3781.72704,0.12854
3783.65551,0.12682
3785.58398,0.12462
3787.51245,0.11940
3789.44092,0.11704
3791.36938,0.12166
3793.29785,0.12924
3795.22632,0.13234
3797.15479,0.12981
3799.08326,0.13123
3801.01173,0.13961
3802.94020,0.14195
3804.86866,0.13814
3806.79713,0.13407
3808.72560,0.13017
3810.65407,0.12949
3812.58254,0.13096
3814.51101,0.13529
3816.43948,0.13998
3818.36795,0.13725
3820.29641,0.13111
3822.22488,0.12974
3824.15335,0.13261
3826.08182,0.13351
3828.01029,0.13004
3829.93876,0.12621
3831.86723,0.12627
3833.79569,0.12609
3835.72416,0.12584
3837.65263,0.13423
3839.58110,0.14445
3841.50957,0.14273
3843.43804,0.13516
3845.36651,0.13059
3847.29498,0.12819
3849.22344,0.12726
3851.15191,0.13236
3853.08038,0.14265
3855.00885,0.14250
3856.93732,0.13673
3858.86579,0.13304
3860.79426,0.13135
3862.72272,0.13245
3864.65119,0.13704
3866.57966,0.14386
3868.50813,0.14907
3870.43660,0.14620
3872.36507,0.13720
3874.29354,0.12831
3876.22200,0.12179
3878.15047,0.12091
3880.07894,0.12110
3882.00741,0.11674
3883.93588,0.11529
3885.86435,0.12025
3887.79282,0.12633
3889.72129,0.13027
3891.64975,0.12942
3893.57822,0.12442
3895.50669,0.12066
3897.43516,0.11794
3899.36363,0.11606
3901.29210,0.11670
3903.22057,0.11797
3905.14903,0.11788
3907.07750,0.11600
3909.00597,0.11332
3910.93444,0.11250
3912.86291,0.11546
3914.79138,0.12048
3916.71985,0.12133
3918.64832,0.11745
3920.57678,0.11539
3922.50525,0.11478
3924.43372,0.11358
3926.36219,0.11382
3928.29066,0.11528
3930.21913,0.11538
3932.14760,0.11427
3934.07606,0.11182
3936.00453,0.11091
3937.93300,0.11494
3939.86147,0.11823
3941.78994,0.11726
3943.71841,0.11738
3945.64688,0.11897
3947.57535,0.11701
3949.50381,0.11191
3951.43228,0.10878
3953.36075,0.10812
3955.28922,0.10863
3957.21769,0.10895
3959.14616,0.10643
3961.07463,0.10601
3963.00309,0.11152
3964.93156,0.11458
3966.86003,0.11009
3968.78850,0.10491
3970.71697,0.10682
3972.64544,0.11262
3974.57391,0.11534
3976.50238,0.11524
3978.43084,0.11467
3980.35931,0.11469
3982.28778,0.11297
3984.21625,0.10772
3986.14472,0.10542
3988.07319,0.11084
3990.00166,0.11862
3991.93012,0.11919
3993.85859,0.11044
3995.78706,0.10025
3997.71553,0.09519
3999.64400,0.09697
4001.57247,0.10225
4003.50094,0.10422
4005.42941,0.10389
4007.35787,0.10487
4009.28634,0.10470
4011.21481,0.10347
4013.14328,0.10389
4015.07175,0.10522
4017.00022,0.10641
4018.92869,0.10705
4020.85715,0.10670
4022.78562,0.10679
4024.71409,0.10873
4026.64256,0.11067
4028.57103,0.10985
4030.49950,0.10564
4032.42797,0.10225
4034.35644,0.10437
4036.28490,0.10702
4038.21337,0.10467
4040.14184,0.10212
4042.07031,0.10315
4043.99878,0.10204
4045.92725,0.09801
4047.85572,0.09934
4049.78418,0.10309
4051.71265,0.09976
4053.64112,0.09149
4055.56959,0.08800
4057.49806,0.09482
4059.42653,0.10528
4061.35500,0.10684
4063.28346,0.09889
4065.21193,0.09371
4067.14040,0.09773
4069.06887,0.10408
4070.99734,0.10580
4072.92581,0.10549
4074.85428,0.10696
4076.78275,0.10595
4078.71121,0.09955
4080.63968,0.09497
4082.56815,0.09421
4084.49662,0.09260
4086.42509,0.09369
4088.35356,0.09845
4090.28203,0.10036
4092.21049,0.09833
4094.13896,0.09591
4096.06743,0.09300
4097.99590,0.08774
4099.92437,0.08496
4101.85284,0.08688
4103.78131,0.08752
4105.70978,0.08699
4107.63824,0.08874
4109.56671,0.08828
4111.49518,0.08544
4113.42365,0.08556
4115.35212,0.08524
4117.28059,0.08423
4119.20906,0.08719
4121.13752,0.09023
4123.06599,0.08936
4124.99446,0.08813
4126.92293,0.08986
4128.85140,0.09116
4130.77987,0.08895
4132.70834,0.08573
4134.63681,0.08388
4136.56527,0.08290
4138.49374,0.08297
4140.42221,0.08439
4142.35068,0.08522
4144.27915,0.08569
4146.20762,0.08812
4148.13609,0.09317
4150.06455,0.09522
4151.99302,0.08970
4153.92149,0.08366
4155.84996,0.08282
4157.77843,0.08233
4159.70690,0.07843
4161.63537,0.07745
4163.56384,0.08308
4165.49230,0.08903
4167.42077,0.09192
4169.34924,0.09034
4171.27771,0.08699
4173.20618,0.08935
4175.13465,0.09345
4177.06312,0.08903
4178.99158,0.07588
4180.92005,0.06492
4182.84852,0.06569
4184.77699,0.07391
4186.70546,0.07929
4188.63393,0.07764
4190.56240,0.07020
4192.49087,0.06425
4194.41933,0.06800
4196.34780,0.07773
4198.27627,0.08361
4200.20474,0.08476
4202.13321,0.08374
4204.06168,0.08063
4205.99015,0.07923
4207.91861,0.07783
4209.84708,0.07284
4211.77555,0.07163
4213.70402,0.07740
4215.63249,0.08364
4217.56096,0.08523
4219.48943,0.08034
4221.41789,0.07381
4223.34636,0.07345
4225.27483,0.07772
4227.20330,0.08174
4229.13177,0.08407
4231.06024,0.08366
4232.98871,0.08101
4234.91718,0.07745
4236.84564,0.07525
4238.77411,0.07449
4240.70258,0.07229
4242.63105,0.06752
4244.55952,0.06260
4246.48799,0.06218
4248.41646,0.06653
4250.34492,0.07332
4252.27339,0.08067
4254.20186,0.08301
4256.13033,0.07653
4258.05880,0.06728
4259.98727,0.06558
4261.91574,0.06980
4263.84421,0.06773
4265.77267,0.06137
4267.70114,0.06119
4269.62961,0.06249
4271.55808,0.06029
4273.48655,0.06055
4275.41502,0.06523
4277.34349,0.07069
4279.27195,0.07299
4281.20042,0.06993
4283.12889,0.06499
4285.05736,0.06120
4286.98583,0.05681
4288.91430,0.05270
4290.84277,0.05166
4292.77124,0.05532
4294.69970,0.06155
4296.62817,0.06391
4298.55664,0.06061
4300.48511,0.05486
4302.41358,0.05108
4304.34205,0.05639
4306.27052,0.06904
4308.19898,0.07244
4310.12745,0.06197
4312.05592,0.05562
4313.98439,0.06321
4315.91286,0.07202
4317.84133,0.07094
4319.76980,0.06541
4321.69827,0.06200
4323.62673,0.06012
4325.55520,0.05675
4327.48367,0.05390
4329.41214,0.05447
4331.34061,0.05241
4333.26908,0.04835
4335.19755,0.05131
4337.12601,0.05776
4339.05448,0.06102
4340.98295,0.06087
4342.91142,0.05453
4344.83989,0.04669
4346.76836,0.04619
4348.69683,0.05094
4350.62530,0.05739
4352.55376,0.06093
4354.48223,0.05639
4356.41070,0.05212
4358.33917,0.05602
4360.26764,0.05579
4362.19611,0.04731
4364.12458,0.04487
4366.05304,0.04814
4367.98151,0.04730
4369.90998,0.04542
4371.83845,0.04833
4373.76692,0.05139
4375.69539,0.04860
4377.62386,0.04401
4379.55232,0.04312
4381.48079,0.04117
4383.40926,0.03500
4385.33773,0.03187
4387.26620,0.03285
4389.19467,0.03580
4391.12314,0.04273
4393.05161,0.04667
4394.98007,0.04089
4396.90854,0.03185
4398.83701,0.02752
4400.76548,0.02803
4402.69395,0.02763
4404.62242,0.02378
4406.55089,0.02288
4408.47935,0.02710
4410.40782,0.02890
4412.33629,0.02807
4414.26476,0.03112
4416.19323,0.03310
4418.12170,0.03151
4420.05017,0.03350
4421.97864,0.03674
4423.90710,0.03863
4425.83557,0.03692
4427.76404,0.02873
4429.69251,0.02621
4431.62098,0.03441
4433.54945,0.04025
4435.47792,0.03834
4437.40638,0.03540
4439.33485,0.03312
4441.26332,0.02676
4443.19179,0.02192
4445.12026,0.02639
4447.04873,0.03102
4448.97720,0.02964
4450.90567,0.02901
4452.83413,0.02843
4454.76260,0.02543
4456.69107,0.02548
4458.61954,0.02852
4460.54801,0.03122
4462.47648,0.03369
4464.40495,0.03553
4466.33341,0.03795
4468.26188,0.03878
4470.19035,0.03616
4472.11882,0.03100
4474.04729,0.01878
4475.97576,0.00651
4477.90423,0.01192
4479.83270,0.02978
4481.76116,0.03550
4483.68963,0.02672
4485.61810,0.02334
4487.54657,0.02609
4489.47504,0.02261
4491.40351,0.01561
4493.33198,0.01494
4495.26044,0.02076
4497.18891,0.02466
4499.11738,0.02434
4501.04585,0.02550
4502.97432,0.02446
4504.90279,0.01860
4506.83126,0.02109
4508.75973,0.03235
4510.68819,0.03433
4512.61666,0.02744
4514.54513,0.02481
4516.47360,0.02102
4518.40207,0.01415
4520.33054,0.01476
4522.25901,0.02173
4524.18747,0.02806
4526.11594,0.02641
4528.04441,0.01500
4529.97288,0.00539
4531.90135,0.00574
4533.82982,0.00836
4535.75829,0.00881
4537.68676,0.01236
4539.61522,0.01632
4541.54369,0.01717
4543.47216,0.01930
4545.40063,0.02313
4547.32910,0.02291
4549.25757,0.01985
4551.18604,0.01678
4553.11450,0.01458
4555.04297,0.02028
4556.97144,0.03000
4558.89991,0.03082
4560.82838,0.01946
4562.75685,0.00507
4564.68532,-0.00037
4566.61378,0.00390
4568.54225,0.01126
4570.47072,0.01558
4572.39919,0.01705
4574.32766,0.01934
4576.25613,0.02101
4578.18460,0.02281
4580.11307,0.02802
4582.04153,0.02849
4583.97000,0.01998
4585.89847,0.01600
4587.82694,0.01959
4589.75541,0.02014
4591.68388,0.01739
4593.61235,0.01842
4595.54081,0.02091
4597.46928,0.01887
4599.39775,0.01611
4601.32622,0.01752
4603.25469,0.01926
4605.18316,0.01504
4607.11163,0.01142
4609.04010,0.01668
4610.96856,0.02102
4612.89703,0.01906
4614.82550,0.01966
4616.75397,0.02288
4618.68244,0.02168
4620.61091,0.01186
4622.53938,-0.00070
4624.46784,-0.00182
4626.39631,0.00668
4628.32478,0.01726
4630.25325,0.02690
4632.18172,0.02772
4634.11019,0.02393
4636.03866,0.02175
4637.96713,0.01957
4639.89559,0.01694
4641.82406,0.01102
4643.75253,0.00304
4645.68100,-0.00028
4647.60947,0.00367
4649.53794,0.00992
4651.46641,0.01499
4653.39487,0.02111
4655.32334,0.02523
4657.25181,0.02283
4659.18028,0.02006
4661.10875,0.02268
4663.03722,0.02376
4664.96569,0.01910
4666.89416,0.01568
4668.82262,0.01585
4670.75109,0.01897
4672.67956,0.02422
4674.60803,0.02501
4676.53650,0.02252
4678.46497,0.02034
4680.39344,0.01682
4682.32190,0.01568
4684.25037,0.01691
4686.17884,0.01395
4688.10731,0.01026
4690.03578,0.01774
4691.96425,0.03218
4693.89272,0.03530
4695.82119,0.02434
4697.74965,0.01662
4699.67812,0.02251
4701.60659,0.02948
4703.53506,0.02242
4705.46353,0.00762
4707.39200,0.00275
4709.32047,0.01077
4711.24893,0.02138
4713.17740,0.02598
4715.10587,0.02379
4717.03434,0.02001
4718.96281,0.01825
4720.89128,0.01956
4722.81975,0.02281
4724.74821,0.02625
4726.67668,0.02313
4728.60515,0.00978
4730.53362,0.00255
4732.46209,0.01157
4734.39056,0.02170
4736.31903,0.02003
4738.24750,0.01302
4740.17596,0.01005
4742.10443,0.01173
4744.03290,0.01549
4745.96137,0.01378
4747.88984,0.00344
4749.81831,-0.00423
4751.74678,-0.00471
4753.67524,-0.00746
4755.60371,-0.01312
4757.53218,-0.00828
4759.46065,0.00837
4761.38912,0.01929
4763.31759,0.01518
4765.24606,0.00780
4767.17453,0.01073
4769.10299,0.01528
4771.03146,0.00943
4772.95993,0.00292
4774.88840,0.00732
4776.81687,0.01861
4778.74534,0.02286
4780.67381,0.01949
4782.60227,0.01690
4784.53074,0.00587
4786.45921,-0.01179
4788.38768,-0.01740
4790.31615,-0.01122
4792.24462,-0.00207
4794.17309,0.00491
4796.10156,0.00567
4798.03002,0.00651
4799.95849,0.00949
4801.88696,0.00773
4803.81543,0.00062
4805.74390,-0.00826
4807.67237,-0.01425
4809.60084,-0.01252
4811.52930,-0.00285
4813.45777,0.00680
4815.38624,0.00879
4817.31471,0.00781
4819.24318,0.00871
4821.17165,0.01232
4823.10012,0.01265
4825.02859,0.00456
4826.95705,0.00226
4828.88552,0.00717
4830.81399,0.00771
4832.74246,0.01075
4834.67093,0.01625
4836.59940,0.01942
4838.52787,0.02388
4840.45633,0.02010
4842.38480,0.00586
4844.31327,0.00241
4846.24174,0.01585
4848.17021,0.02386
4850.09868,0.01249
4852.02715,-0.00210
4853.95562,-0.00260
4855.88408,0.00168
4857.81255,-0.00100
4859.74102,-0.00392
4861.66949,-0.00258
4863.59796,-0.00226
4865.52643,0.00162
4867.45490,0.01281
4869.38336,0.01917
4871.31183,0.01550
4873.24030,0.01327
4875.16877,0.01705
4877.09724,0.02027
4879.02571,0.02255
4880.95418,0.02151
4882.88265,0.01169
4884.81111,0.00220
4886.73958,0.00114
4888.66805,-0.00182
4890.59652,-0.01024
4892.52499,-0.00899
4894.45346,0.00290
4896.38193,0.00959
4898.31039,0.00621
4900.23886,0.00283
4902.16733,0.00863
4904.09580,0.01829
4906.02427,0.02183
4907.95274,0.01629
4909.88121,0.00836
4911.80967,0.01291
4913.73814,0.02499
4915.66661,0.02752
4917.59508,0.02533
4919.52355,0.03074
4921.45202,0.04239
4923.38049,0.05052
4925.30896,0.05006
4927.23742,0.04356
4929.16589,0.03115
4931.09436,0.01342
4933.02283,0.00456
4934.95130,0.01060
4936.87977,0.01524
4938.80824,0.01235
4940.73670,0.01168
4942.66517,0.01805
4944.59364,0.02752
4946.52211,0.03383
4948.45058,0.03305
4950.37905,0.02406
4952.30752,0.01201
4954.23599,0.00237
4956.16445,-0.00353
4958.09292,-0.00373
4960.02139,0.00267
4961.94986,0.01181
4963.87833,0.01396
4965.80680,0.00819
4967.73527,0.00716
4969.66373,0.01140
4971.59220,0.01067
4973.52067,0.00959
4975.44914,0.01459
4977.37761,0.01888
4979.30608,0.02530
4981.23455,0.03470
4983.16302,0.03371
4985.09148,0.02501
4987.01995,0.01156
4988.94842,-0.01046
4990.87689,-0.02295
4992.80536,-0.01536
4994.73383,-0.00113
4996.66230,0.00908
4998.59076,0.01380
5000.51923,0.01175
5002.44770,0.00089
5004.37617,0.00060
5006.30464,0.01997
5008.23311,0.03473
5010.16158,0.03990
5012.09005,0.04232
5014.01851,0.03513
5015.94698,0.02241
5017.87545,0.02354
5019.80392,0.03884
5021.73239,0.04459
5023.66086,0.03562
5025.58933,0.02843
5027.51779,0.02975
5029.44626,0.02632
5031.37473,0.01067
5033.30320,0.00174
5035.23167,0.00826
5037.16014,0.01616
5039.08861,0.01931
5041.01708,0.02165
5042.94554,0.02857
5044.87401,0.03707
5046.80248,0.03674
5048.73095,0.03160
5050.65942,0.03174
5052.58789,0.03126
5054.51636,0.02768
5056.44482,0.02402
5058.37329,0.01418
5060.30176,0.00331
5062.23023,-0.00118
5064.15870,-0.00425
5066.08717,0.00045
5068.01564,0.01689
5069.94410,0.03320
5071.87257,0.04462
5073.80104,0.04825
5075.72951,0.03169
5077.65798,0.00126
5079.58645,-0.01135
5081.51492,0.00623
5083.44339,0.02519
5085.37185,0.02402
5087.30032,0.02718
5089.22879,0.04418
5091.15726,0.04006
5093.08573,0.01846
5095.01420,0.01462
5096.94267,0.02201
5098.87113,0.02132
5100.79960,0.02534
5102.72807,0.03994
5104.65654,0.04529
5106.58501,0.03610
5108.51348,0.02651
5110.44195,0.02397
5112.37042,0.02403
5114.29888,0.02386
5116.22735,0.02369
5118.15582,0.02325
5120.08429,0.02743
5122.01276,0.03668
5123.94123,0.04109
5125.86970,0.03334
5127.79816,0.01944
5129.72663,0.00730
5131.65510,-0.00216
5133.58357,-0.00080
5135.51204,0.01548
5137.44051,0.02888
5139.36898,0.02092
5141.29745,0.00021
5143.22591,-0.00898
5145.15438,0.00366
5147.08285,0.03032
5149.01132,0.05136
5150.93979,0.04921
5152.86826,0.03318
5154.79673,0.02198
5156.72519,0.01414
5158.65366,0.00862
5160.58213,0.01483
5162.51060,0.02632
5164.43907,0.02807
5166.36754,0.02760
5168.29601,0.03184
5170.22448,0.03255
5172.15294,0.03188
5174.08141,0.03094
5176.00988,0.02905
5177.93835,0.03743
5179.86682,0.05262
5181.79529,0.05474
5183.72376,0.04040
5185.65222,0.02329
5187.58069,0.02127
5189.50916,0.04254
5191.43763,0.07242
5193.36610,0.09042
5195.29457,0.08980
5197.22304,0.07469
5199.15151,0.05494
5201.07997,0.03622
5203.00844,0.02274
5204.93691,0.02052
5206.86538,0.02677
5208.79385,0.03224
5210.72232,0.03876
5212.65079,0.04809
5214.57925,0.05523
5216.50772,0.05491
5218.43619,0.03833
5220.36466,0.01667
5222.29313,0.01246
5224.22160,0.02423
5226.15007,0.04084
5228.07854,0.04967
5230.00700,0.04647
5231.93547,0.04254
5233.86394,0.04323
5235.79241,0.03949
5237.72088,0.03399
5239.64935,0.03408
5241.57782,0.03750
5243.50628,0.04041
5245.43475,0.03205
5247.36322,0.02356
5249.29169,0.03956
5251.22016,0.05510
5253.14863,0.04012
5255.07710,0.01540
5257.00556,0.01321
5258.93403,0.02895
5260.86250,0.03726
5262.79097,0.03174
5264.71944,0.02581
5266.64791,0.01581
5268.57638,0.00707
5270.50485,0.01799
5272.43331,0.03368
5274.36178,0.04188
5276.29025,0.05028
5278.21872,0.04830
5280.14719,0.02694
5282.07566,0.00997
5284.00413,0.01841
5285.93259,0.03613
5287.86106,0.04255
5289.78953,0.04654
5291.71800,0.06091
5293.64647,0.07547
5295.57494,0.07328
5297.50341,0.05045
5299.43188,0.02450
5301.36034,0.01438
5303.28881,0.01882
5305.21728,0.02784
5307.14575,0.03275
5309.07422,0.03216
5311.00269,0.02930
5312.93116,0.02813
5314.85962,0.03650
5316.78809,0.05601
5318.71656,0.07504
5320.64503,0.07116
5322.57350,0.05245
5324.50197,0.05891
5326.43044,0.08262
5328.35891,0.08759
5330.28737,0.08625
5332.21584,0.08902
5334.14431,0.07800
5336.07278,0.06356
5338.00125,0.07324
5339.92972,0.08595
5341.85819,0.07619
5343.78665,0.07251
5345.71512,0.09394
5347.64359,0.11099
5349.57206,0.10054
5351.50053,0.06837
5353.42900,0.03973
5355.35747,0.03769
5357.28594,0.05066
5359.21440,0.06052
5361.14287,0.07001
5363.07134,0.07656
5364.99981,0.07359
5366.92828,0.06545
5368.85675,0.05133
5370.78522,0.04403
5372.71368,0.05909
5374.64215,0.07132
5376.57062,0.05488
5378.49909,0.03135
5380.42756,0.01291
5382.35603,0.00602
5384.28450,0.02042
5386.21297,0.03063
5388.14143,0.02435
5390.06990,0.02471
5391.99837,0.03462
5393.92684,0.04307
5395.85531,0.05553
5397.78378,0.07819
5399.71225,0.09057
5401.64071,0.08288
5403.56918,0.06981
5405.49765,0.05623
5407.42612,0.04113
5409.35459,0.03753
5411.28306,0.05130
5413.21153,0.06173
5415.13999,0.05214
5417.06846,0.04347
5418.99693,0.05192
5420.92540,0.06336
5422.85387,0.06987
5424.78234,0.07872
5426.71081,0.07816
5428.63928,0.06357
5430.56774,0.05845
5432.49621,0.06127
5434.42468,0.05948
5436.35315,0.06207
5438.28162,0.06768
5440.21009,0.06830
5442.13856,0.07657
5444.06702,0.09275
5445.99549,0.08345
5447.92396,0.05076
5449.85243,0.04397
5451.78090,0.07103
5453.70937,0.10570
5455.63784,0.13324
5457.56631,0.13695
5459.49477,0.10681
5461.42324,0.06395
5463.35171,0.03941
5465.28018,0.04526
5467.20865,0.07619
5469.13712,0.09595
5471.06559,0.07753
5472.99405,0.05347
5474.92252,0.04547
5476.85099,0.04332
5478.77946,0.04418
5480.70793,0.05054
5482.63640,0.05213
5484.56487,0.04472
5486.49334,0.05018
5488.42180,0.08144
5490.35027,0.10957
5492.27874,0.10416
5494.20721,0.08781
5496.13568,0.08553
5498.06415,0.08091
5499.99262,0.06451
5501.92108,0.04900
5503.84955,0.03867
5505.77802,0.02365
5507.70649,0.01499
5509.63496,0.02567
5511.56343,0.03464
5513.49190,0.03465
5515.42037,0.03843
5517.34883,0.04314
5519.27730,0.05067
5521.20577,0.06369
5523.13424,0.05894
5525.06271,0.03846
5526.99118,0.03422
5528.91965,0.04009
5530.84811,0.05067
5532.77658,0.07981
5534.70505,0.10825
5536.63352,0.10881
5538.56199,0.07669
5540.49046,0.03026
5542.41893,0.00825
5544.34740,0.02689
5546.27586,0.04633
5548.20433,0.03764
5550.13280,0.03423
5552.06127,0.04669
5553.98974,0.04657
5555.91821,0.03759
5557.84668,0.04414
5559.77514,0.06228
5561.70361,0.07641
5563.63208,0.08980
5565.56055,0.09706
5567.48902,0.09221
5569.41749,0.08284
5571.34596,0.07870
5573.27443,0.08458
5575.20289,0.08287
5577.13136,0.07931
5579.05983,0.09761
5580.98830,0.11440
5582.91677,0.08846
5584.84524,0.04193
5586.77371,0.02054
5588.70217,0.03409
5590.63064,0.06480
5592.55911,0.07470
5594.48758,0.05517
5596.41605,0.04575
5598.34452,0.07763
5600.27299,0.11442
5602.20145,0.10144
5604.12992,0.06823
5606.05839,0.06476
5607.98686,0.07517
5609.91533,0.07762
5611.84380,0.10914
5613.77227,0.16854
5615.70074,0.18714
5617.62920,0.15427
5619.55767,0.11327
5621.48614,0.10273
5623.41461,0.11852
5625.34308,0.12414
5627.27155,0.11335
5629.20002,0.10399
5631.12848,0.10191
5633.05695,0.10739
5634.98542,0.10373
5636.91389,0.07646
5638.84236,0.03849
5640.77083,0.00768
5642.69930,0.01635
5644.62777,0.05633
5646.55623,0.08375
5648.48470,0.10693
5650.41317,0.11931
5652.34164,0.09423
5654.27011,0.06724
5656.19858,0.06941
5658.12705,0.07741
5660.05551,0.07384
5661.98398,0.06277
5663.91245,0.04843
5665.84092,0.04975
5667.76939,0.07170
5669.69786,0.08334
5671.62633,0.06766
5673.55480,0.05162
5675.48326,0.05791
5677.41173,0.07393
5679.34020,0.07914
5681.26867,0.07369
5683.19714,0.07891
5685.12561,0.09808
5687.05408,0.10511
5688.98254,0.08793
5690.91101,0.06744
5692.83948,0.06947
5694.76795,0.08682
5696.69642,0.09526
5698.62489,0.10252
5700.55336,0.11022
5702.48183,0.09776
5704.41029,0.07758
5706.33876,0.07135
5708.26723,0.07168
5710.19570,0.05688
5712.12417,0.03068
5714.05264,0.02007
5715.98111,0.04078
5717.90957,0.07893
5719.83804,0.10113
5721.76651,0.11265
5723.69498,0.13878
5725.62345,0.17299
5727.55192,0.18912
5729.48039,0.17771
5731.40886,0.15888
5733.33732,0.13308
5735.26579,0.08545
5737.19426,0.04077
5739.12273,0.04355
5741.05120,0.06666
5742.97967,0.05680
5744.90814,0.04769
5746.83660,0.07668
5748.76507,0.09235
5750.69354,0.05709
5752.62201,0.02475
5754.55048,0.03419
5756.47895,0.06832
5758.40742,0.11182
5760.33588,0.14903
5762.26435,0.15124
5764.19282,0.11647
5766.12129,0.08320
5768.04976,0.07220
5769.97823,0.06937
5771.90670,0.06457
5773.83517,0.07727
5775.76363,0.11298
5777.69210,0.12364
5779.62057,0.08778
5781.54904,0.06641
5783.47751,0.09489
5785.40598,0.11699
5787.33445,0.09491
5789.26291,0.06521
5791.19138,0.04085
5793.11985,0.01379
5795.04832,0.01172
5796.97679,0.03550
5798.90526,0.04167
5800.83373,0.04544
5802.76220,0.08945
5804.69066,0.12323
5806.61913,0.09245
5808.54760,0.06404
5810.47607,0.09020
5812.40454,0.11683
5814.33301,0.09502
5816.26148,0.06733
5818.18994,0.07501
5820.11841,0.07038
5822.04688,0.02887
5823.97535,0.02315
5825.90382,0.07245
5827.83229,0.11870
5829.76076,0.13011
5831.68923,0.12026
5833.61769,0.11748
5835.54616,0.13101
5837.47463,0.13211
5839.40310,0.10297
5841.33157,0.08276
5843.26004,0.10328
5845.18851,0.12143
5847.11697,0.10444
5849.04544,0.07670
5850.97391,0.06373
5852.90238,0.07700
5854.83085,0.09143
5856.75932,0.06503
5858.68779,0.03574
5860.61626,0.06339
5862.54472,0.12397
5864.47319,0.14271
5866.40166,0.08533
5868.33013,0.02290
5870.25860,0.03548
5872.18707,0.07715
5874.11554,0.06346
5876.04400,0.03403
5877.97247,0.06753
5879.90094,0.10468
5881.82941,0.09220
5883.75788,0.09710
5885.68635,0.14643
5887.61482,0.17830
5889.54329,0.16433
5891.47175,0.13483
5893.40022,0.12068
5895.32869,0.12085
5897.25716,0.10796
5899.18563,0.07710
5901.11410,0.04546
5903.04257,0.03916
5904.97103,0.06098
5906.89950,0.08211
5908.82797,0.10123
5910.75644,0.12298
5912.68491,0.14509
5914.61338,0.16437
5916.54185,0.16516
5918.47032,0.15238
5920.39878,0.14438
5922.32725,0.12681
5924.25572,0.09732
5926.18419,0.09006
5928.11266,0.10104
5930.04113,0.11481
5931.96960,0.13944
5933.89806,0.14949
5935.82653,0.11629
5937.75500,0.07133
5939.68347,0.05303
5941.61194,0.07025
5943.54041,0.11868
5945.46888,0.15672
5947.39734,0.14898
5949.32581,0.11298
5951.25428,0.07512
5953.18275,0.06622
5955.11122,0.09733
5957.03969,0.12891
5958.96816,0.13426
5960.89663,0.11742
5962.82509,0.10111
5964.75356,0.10023
5966.68203,0.08743
5968.61050,0.04577
5970.53897,0.00522
5972.46744,-0.00664
5974.39591,0.02262
5976.32437,0.09076
5978.25284,0.15004
5980.18131,0.14311
5982.10978,0.08544
5984.03825,0.02899
5985.96672,-0.00016
5987.89519,0.02536
5989.82366,0.08686
5991.75212,0.11295
5993.68059,0.10410
5995.60906,0.09852
5997.53753,0.09007
5999.46600,0.09223
6001.39447,0.11683
6003.32294,0.12164
6005.25140,0.09400
6007.17987,0.07439
6009.10834,0.06038
6011.03681,0.03440
6012.96528,0.01438
6014.89375,0.02354
6016.82222,0.06227
6018.75069,0.09661
6020.67915,0.12526
6022.60762,0.15097
6024.53609,0.13719
6026.46456,0.11363
6028.39303,0.08903
6030.32150,0.04205
6032.24997,0.05217
6034.17843,0.13668
6036.10690,0.19911
6038.03537,0.20192
6039.96384,0.16776
6041.89231,0.11164
6043.82078,0.05182
6045.74925,0.01541
6047.67772,0.00798
6049.60618,0.01066
6051.53465,-0.00215
6053.46312,-0.01889
6055.39159,0.01310
6057.32006,0.08916
6059.24853,0.13333
6061.17700,0.12957
6063.10546,0.12434
6065.03393,0.13495
6066.96240,0.12630
6068.89087,0.07865
6070.81934,0.05065
6072.74781,0.08166
6074.67628,0.09892
6076.60475,0.07004
6078.53321,0.05330
6080.46168,0.06128
6082.39015,0.07368
6084.31862,0.07778
6086.24709,0.07269
6088.17556,0.08884
6090.10403,0.11374
6092.03249,0.11346
6093.96096,0.11944
6095.88943,0.13493
6097.81790,0.12656
6099.74637,0.11131
6101.67484,0.09919
6103.60331,0.08946
6105.53177,0.10380
6107.46024,0.11832
6109.38871,0.09267
6111.31718,0.07753
6113.24565,0.08224
6115.17412,0.05299
6117.10259,0.02787
6119.03106,0.02846
6120.95952,0.03505
6122.88799,0.07712
6124.81646,0.11026
6126.74493,0.08460
6128.67340,0.07780
6130.60187,0.11337
6132.53034,0.10842
6134.45880,0.06390
6136.38727,0.02646
6138.31574,0.01704
6140.24421,0.03154
6142.17268,0.04494
6144.10115,0.05257
6146.02962,0.05468
6147.95809,0.04541
6149.88655,0.03075
6151.81502,0.03148
6153.74349,0.06214
6155.67196,0.09928
6157.60043,0.10320
6159.52890,0.07020
6161.45737,0.05360
6163.38583,0.06785
6165.31430,0.08358
6167.24277,0.10189
6169.17124,0.12365
6171.09971,0.13077
6173.02818,0.11045
6174.95665,0.07146
6176.88512,0.02939
6178.81358,0.02188
6180.74205,0.04472
6182.67052,0.03122
6184.59899,-0.00233
6186.52746,0.03855
6188.45593,0.16458
6190.38440,0.23319
6192.31286,0.17610
6194.24133,0.09512
6196.16980,0.07179
6198.09827,0.08607
6200.02674,0.10285
6201.95521,0.11508
6203.88368,0.12669
6205.81215,0.10850
6207.74061,0.06602
6209.66908,0.07806
6211.59755,0.14309
6213.52602,0.18451
6215.45449,0.17794
6217.38296,0.12049
6219.31143,0.04261
6221.23989,-0.00182
6223.16836,0.01544
6225.09683,0.04589
6227.02530,0.05344
6228.95377,0.08778
6230.88224,0.13953
6232.81071,0.13430
6234.73918,0.08994
6236.66764,0.06333
6238.59611,0.04292
6240.52458,0.01505
6242.45305,0.00395
6244.38152,0.03091
6246.30999,0.06452
6248.23846,0.06987
6250.16692,0.06294
6252.09539,0.06680
6254.02386,0.10718
6255.95233,0.17825
6257.88080,0.18450
6259.80927,0.09714
6261.73774,0.04409
6263.66621,0.08167
6265.59467,0.10764
6267.52314,0.06867
6269.45161,0.02052
6271.38008,0.00478
6273.30855,0.05556
6275.23702,0.14000
6277.16549,0.15285
6279.09395,0.09847
6281.02242,0.04775
6282.95089,0.03478
6284.87936,0.07388
6286.80783,0.12655
6288.73630,0.13325
6290.66477,0.10215
6292.59323,0.07324
6294.52170,0.05172
6296.45017,0.03792
6298.37864,0.04022
6300.30711,0.07602
6302.23558,0.13037
6304.16405,0.14932
6306.09252,0.13223
6308.02098,0.10808
6309.94945,0.10040
6311.87792,0.11149
6313.80639,0.11929
6315.73486,0.10708
6317.66333,0.08438
6319.59180,0.09218
6321.52026,0.15059
6323.44873,0.20660
6325.37720,0.18889
6327.30567,0.10666
6329.23414,0.03841
6331.16261,0.01378
6333.09108,-0.01141
6335.01955,-0.02496
6336.94801,0.01238
6338.87648,0.06916
6340.80495,0.09529
6342.73342,0.06261
6344.66189,0.00986
6346.59036,0.02287
6348.51883,0.06573
6350.44729,0.06266
6352.37576,0.05551
6354.30423,0.07996
6356.23270,0.10612
6358.16117,0.11279
6360.08964,0.10943
6362.01811,0.10488
6363.94658,0.11298
6365.87504,0.13109
6367.80351,0.09212
6369.73198,0.00676
6371.66045,-0.01620
6373.58892,0.05414
6375.51739,0.14022
6377.44586,0.15396
6379.37432,0.08877
6381.30279,0.04982
6383.23126,0.10157
6385.15973,0.13726
6387.08820,0.11410
6389.01667,0.11081
6390.94514,0.13040
6392.87361,0.11555
6394.80207,0.06391
6396.73054,0.03823
6398.65901,0.04903
6400.58748,0.06568
6402.51595,0.05462
6404.44442,0.01788
6406.37289,0.00124
6408.30135,0.01969
6410.22982,0.04381
6412.15829,0.04199
6414.08676,0.03592
6416.01523,0.07050
6417.94370,0.11585
6419.87217,0.13862
6421.80064,0.16539
6423.72910,0.16692
6425.65757,0.09952
6427.58604,0.05062
6429.51451,0.08581
6431.44298,0.14108
6433.37145,0.16730
6435.29992,0.14212
6437.22838,0.08126
6439.15685,0.06244
6441.08532,0.09888
6443.01379,0.15412
6444.94226,0.19263
6446.87073,0.17599
6448.79920,0.09639
6450.72766,0.01860
6452.65613,0.02603
6454.58460,0.10965
6456.51307,0.18268
6458.44154,0.16280
6460.37001,0.08129
6462.29848,0.04105
6464.22695,0.08937
6466.15541,0.15265
6468.08388,0.16754
6470.01235,0.15494
6471.94082,0.14068
6473.86929,0.08704
6475.79776,-0.02358
6477.72623,-0.05331
6479.65469,0.03755
6481.58316,0.11853
6483.51163,0.15429
6485.44010,0.17664
6487.36857,0.17281
6489.29704,0.13172
6491.22551,0.08701
6493.15398,0.04665
6495.08244,0.00884
6497.01091,-0.00940
6498.93938,-0.03906
6500.86785,-0.07081
6502.79632,-0.01499
6504.72479,0.09864
6506.65326,0.12229
6508.58172,0.03532
6510.51019,-0.00745
6512.43866,0.03284
6514.36713,0.02128
6516.29560,-0.06402
6518.22407,-0.13878
6520.15254,-0.15553
6522.08101,-0.10735
6524.00947,-0.03086
6525.93794,0.01186
6527.86641,0.03823
6529.79488,0.08001
6531.72335,0.11374
6533.65182,0.11077
6535.58029,0.08681
6537.50875,0.11026
6539.43722,0.16173
6541.36569,0.14492
6543.29416,0.10088
6545.22263,0.08444
6547.15110,0.04363
6549.07957,-0.01206
6551.00804,-0.01566
6552.93650,0.03175
6554.86497,0.08064
6556.79344,0.12437
6558.72191,0.17379
6560.65038,0.18536
6562.57885,0.15308
6564.50732,0.11527
6566.43578,0.07453
6568.36425,0.03949
6570.29272,0.02301
6572.22119,0.03653
6574.14966,0.11141
6576.07813,0.23498
6578.00660,0.31864
6579.93507,0.31477
6581.86353,0.24353
6583.79200,0.14632
6585.72047,0.04896
6587.64894,-0.03615
6589.57741,-0.03284
6591.50588,0.03534
6593.43435,0.02600
6595.36281,-0.04716
6597.29128,-0.03271
6599.21975,0.06000
6601.14822,0.13159
6603.07669,0.15249
6605.00516,0.13874
6606.93363,0.10796
6608.86210,0.10201
6610.79056,0.16343
6612.71903,0.24875
6614.64750,0.23161
6616.57597,0.07715
6618.50444,-0.06804
6620.43291,-0.06988
6622.36138,0.01008
6624.28984,0.07594
6626.21831,0.12537
6628.14678,0.18924
6630.07525,0.22158
6632.00372,0.16788
6633.93219,0.14726
6635.86066,0.21996
6637.78912,0.22771
6639.71759,0.12824
6641.64606,0.04622
6643.57453,0.04639
6645.50300,0.06812
6647.43147,0.04571
6649.35994,0.03324
6651.28841,0.05069
6653.21687,0.06198
6655.14534,0.12514
6657.07381,0.23597
6659.00228,0.24182
6660.93075,0.18088
6662.85922,0.14675
6664.78769,0.09741
6666.71615,0.04602
6668.64462,0.07176
6670.57309,0.15561
6672.50156,0.18951
6674.43003,0.16419
6676.35850,0.16674
6678.28697,0.17653
6680.21544,0.14453
6682.14390,0.12642
6684.07237,0.12919
6686.00084,0.08429
6687.92931,0.01230
6689.85778,0.00434
6691.78625,0.06544
6693.71472,0.10794
6695.64318,0.07393
6697.57165,-0.01449
6699.50012,-0.06679
6701.42859,-0.05940
6703.35706,-0.05240
6705.28553,-0.05565
6707.21400,-0.01323
6709.14247,0.03373
6711.07093,0.00593
6712.99940,-0.00496
6714.92787,0.05190
6716.85634,0.05569
6718.78481,0.00739
6720.71328,0.04989
6722.64175,0.15343
6724.57021,0.17575
6726.49868,0.12078
6728.42715,0.05834
6730.35562,0.00919
6732.28409,-0.01495
6734.21256,0.00819
6736.14103,0.07048
6738.06950,0.11813
6739.99796,0.11826
6741.92643,0.05010
6743.85490,-0.04572
6745.78337,-0.08338
6747.71184,-0.06632
6749.64031,-0.04019
6751.56878,0.01645
6753.49724,0.08015
6755.42571,0.09072
6757.35418,0.10843
6759.28265,0.14567
6761.21112,0.11781
6763.13959,0.06025
6765.06806,0.03501
6766.99653,-0.01507
6768.92499,-0.06018
6770.85346,0.00457
6772.78193,0.09757
6774.71040,0.16107
6776.63887,0.22346
6778.56734,0.21472
6780.49581,0.15752
6782.42427,0.08481
6784.35274,-0.04316
6786.28121,-0.15099
6788.20968,-0.17110
6790.13815,-0.14193
6792.06662,-0.06551
6793.99509,0.01654
6795.92355,0.05764
6797.85202,0.05901
6799.78049,0.05473
6801.70896,0.05979
6803.63743,0.04544
6805.56590,0.07360
6807.49437,0.16557
6809.42284,0.22147
6811.35130,0.21537
6813.27977,0.20068
6815.20824,0.17899
6817.13671,0.12959
6819.06518,0.11655
6820.99365,0.15151
6822.92212,0.13477
6824.85058,0.03694
6826.77905,-0.01806
6828.70752,0.02674
6830.63599,0.07316
6832.56446,0.05788
6834.49293,0.00718
6836.42140,-0.06253
6838.34987,-0.10677
6840.27833,-0.11316
6842.20680,-0.07007
6844.13527,0.02410
6846.06374,0.10531
6847.99221,0.12188
6849.92068,0.06865
6851.84915,-0.00304
6853.77761,-0.00787
6855.70608,0.02873
6857.63455,0.01976
6859.56302,0.02551
6861.49149,0.07169
6863.41996,0.05505
6865.34843,-0.04890
6867.27690,-0.10774
6869.20536,-0.02474
6871.13383,0.08687
6873.06230,0.10872
6874.99077,0.11144
6876.91924,0.15465
6878.84771,0.15894
6880.77618,0.14270
6882.70464,0.18650
6884.63311,0.15880
6886.56158,0.00471
6888.49005,-0.08745
6890.41852,-0.05309
6892.34699,-0.01861
6894.27546,-0.00536
6896.20393,0.01520
6898.13239,0.01041
6900.06086,0.00926
6901.98933,0.03909
6903.91780,0.06533
6905.84627,0.07581
6907.77474,0.10242
6909.70321,0.14072
6911.63167,0.13482
6913.56014,0.10999
6915.48861,0.10703
6917.41708,0.07816
6919.34555,0.02392
6921.27402,-0.02332
6923.20249,-0.06909
6925.13096,-0.07070
6927.05942,0.00531
6928.98789,0.05112
6930.91636,0.02316
6932.84483,0.06477
6934.77330,0.14888
6936.70177,0.19894
6938.63024,0.23895
6940.55870,0.28567
6942.48717,0.29845
6944.41564,0.23219
6946.34411,0.15576
6948.27258,0.12903
6950.20105,0.12122
6952.12952,0.14642
6954.05799,0.21253
6955.98645,0.22013
6957.91492,0.15063
6959.84339,0.12095
6961.77186,0.13304
6963.70033,0.12301
6965.62880,0.09933
6967.55727,0.07269
6969.48573,0.04364
6971.41420,0.03821
6973.34267,0.07333
6975.27114,0.07755
6977.19961,0.01279
6979.12808,0.00768
6981.05655,0.06236
6982.98501,0.05575
6984.91348,0.00901
6986.84195,-0.05152
6988.77042,-0.10582
6990.69889,-0.09612
6992.62736,-0.08720
6994.55583,-0.09660
6996.48430,-0.06766
6998.41276,0.00743
7000.34123,0.04723
7002.26970,-0.01125
7004.19817,-0.05054
7006.12664,0.03946
7008.05511,0.17528
7009.98358,0.22462
7011.91204,0.14303
7013.84051,-0.02029
7015.76898,-0.06488
7017.69745,0.03669
7019.62592,0.11129
7021.55439,0.05555
7023.48286,-0.06233
7025.41133,-0.11620
7027.33979,-0.10075
7029.26826,-0.07899
7031.19673,-0.01346
7033.12520,0.07909
7035.05367,0.10601
7036.98214,0.12977
7038.91061,0.16902
7040.83907,0.18239
7042.76754,0.21563
7044.69601,0.29205
7046.62448,0.36886
7048.55295,0.35159
7050.48142,0.24375
7052.40989,0.16442
7054.33836,0.17447
7056.26682,0.21961
7058.19529,0.24173
7060.12376,0.23472
7062.05223,0.13192
7063.98070,-0.01256
7065.90917,0.00542
7067.83764,0.15316
7069.76610,0.25131
7071.69457,0.20046
7073.62304,0.05061
7075.55151,-0.03319
7077.47998,0.04051
7079.40845,0.15717
7081.33692,0.19167
7083.26539,0.20613
7085.19385,0.23297
7087.12232,0.21926
7089.05079,0.19257
7090.97926,0.21287
7092.90773,0.21739
7094.83620,0.15878
7096.76467,0.09301
7098.69313,0.06235
7100.62160,0.06089
7102.55007,0.07164
7104.47854,0.11646
7106.40701,0.21599
7108.33548,0.26310
7110.26395,0.17423
7112.19242,0.05690
7114.12088,0.04595
7116.04935,0.07225
7117.97782,-0.01155
7119.90629,-0.10692
7121.83476,-0.05949
7123.76323,0.09716
7125.69170,0.23420
7127.62016,0.26869
7129.54863,0.26034
7131.47710,0.22723
7133.40557,0.14986
7135.33404,0.01553
7137.26251,-0.15219
7139.19098,-0.24401
7141.11944,-0.21000
7143.04791,-0.10183
7144.97638,0.00444
7146.90485,0.06066
7148.83332,0.08550
7150.76179,0.07415
7152.69026,0.01545
7154.61873,-0.09777
7156.54719,-0.17099
7158.47566,-0.09136
7160.40413,0.01778
7162.33260,0.05253
7164.26107,0.14998
7166.18954,0.30096
7168.11801,0.35382
7170.04647,0.30005
7171.97494,0.24344
7173.90341,0.28152
7175.83188,0.34330
7177.76035,0.29554
7179.68882,0.08355
7181.61729,-0.15953
7183.54576,-0.22856
7185.47422,-0.10910
7187.40269,0.06931
7189.33116,0.15370
7191.25963,0.09935
7193.18810,-0.02147
7195.11657,-0.15912
7197.04504,-0.18366
7198.97350,-0.06126
7200.90197,0.04554
7202.83044,0.01595
7204.75891,-0.09625
7206.68738,-0.08148
7208.61585,-0.00926
7210.54432,0.03429
7212.47279,0.03958
7214.40125,-0.05114
7216.32972,-0.12773
7218.25819,0.00874
7220.18666,0.14648
7222.11513,0.15482
7224.04360,0.15873
7225.97207,0.19815
7227.90053,0.23690
7229.82900,0.25606
7231.75747,0.19173
7233.68594,0.07290
7235.61441,0.00667
7237.54288,-0.03009
7239.47135,-0.04126
7241.39982,0.01596
7243.32828,0.13951
7245.25675,0.24829
7247.18522,0.31239
7249.11369,0.34740
7251.04216,0.33763
7252.97063,0.25335
7254.89910,0.20417
7256.82756,0.27076
7258.75603,0.30163
7260.68450,0.18553
7262.61297,0.03339
7264.54144,-0.10821
7266.46991,-0.19795
7268.39838,-0.14986
7270.32685,-0.05184
7272.25531,-0.04097
7274.18378,-0.05204
7276.11225,0.00709
7278.04072,0.08944
7279.96919,0.10895
7281.89766,0.05513
7283.82613,0.00840
7285.75459,-0.01445
7287.68306,0.08513
7289.61153,0.26998
7291.54000,0.35658
7293.46847,0.32853
7295.39694,0.20790
7297.32541,0.12919
7299.25387,0.16869
7301.18234,0.20869
7303.11081,0.25156
7305.03928,0.33059
7306.96775,0.40608
7308.89622,0.46766
7310.82469,0.38698
7312.75316,0.15395
7314.68162,0.01168
7316.61009,0.08451
7318.53856,0.14891
7320.46703,0.09012
7322.39550,0.05115
7324.32397,0.10596
7326.25244,0.13014
7328.18090,0.00575
7330.10937,-0.11469
7332.03784,-0.08575
7333.96631,-0.04689
7335.89478,-0.02385
7337.82325,-0.01570
7339.75172,-0.11660
7341.68019,-0.20647
7343.60865,-0.13214
7345.53712,0.00205
7347.46559,0.10393
7349.39406,0.09186
7351.32253,0.01580
7353.25100,-0.02009
7355.17947,-0.00142
7357.10793,0.02230
7359.03640,-0.02427
7360.96487,0.00832
7362.89334,0.19259
7364.82181,0.28310
7366.75028,0.23111
7368.67875,0.15856
7370.60722,0.08933
7372.53568,0.08271
7374.46415,0.20130
7376.39262,0.23349
7378.32109,0.14705
7380.24956,0.15758
7382.17803,0.21283
7384.10650,0.18255
7386.03496,0.10758
7387.96343,0.12602
7389.89190,0.21790
7391.82037,0.24332
7393.74884,0.16851
7395.67731,0.10681
7397.60578,0.14588
7399.53425,0.19427
7401.46271,0.11360
7403.39118,-0.09835
7405.31965,-0.20483
7407.24812,-0.08593
7409.17659,0.05897
7411.10506,0.06436
7413.03353,0.01389
7414.96199,0.01326
7416.89046,0.00555
7418.81893,0.00544
7420.74740,0.05055
7422.67587,0.07488
7424.60434,0.15627
7426.53281,0.22558
7428.46128,0.17139
7430.38974,0.09594
7432.31821,0.04694
7434.24668,-0.00619
7436.17515,0.02222
7438.10362,0.07714
7440.03209,0.06188
7441.96056,0.00579
7443.88902,-0.00764
7445.81749,0.01023
7447.74596,-0.01388
7449.67443,-0.06480
7451.60290,-0.09103
7453.53137,-0.06996
7455.45984,0.05419
7457.38831,0.24375
7459.31677,0.24256
7461.24524,-0.07010
7463.17371,-0.23516
7465.10218,-0.14256
7467.03065,-0.05670
7468.95912,-0.00920
7470.88759,0.12618
7472.81605,0.28733
7474.74452,0.32398
7476.67299,0.24989
7478.60146,0.17606
7480.52993,0.10368
7482.45840,-0.00288
7484.38687,-0.03621
7486.31533,-0.03039
7488.24380,-0.04886
7490.17227,-0.07719
7492.10074,-0.09076
7494.02921,-0.05813
7495.95768,0.01012
7497.88615,0.12837
