399.19301,1.54161
401.12148,-0.01820
403.04995,-0.11002
404.97842,-0.10943
406.90689,-0.04812
408.83536,-0.00734
410.76382,-0.02066
412.69229,-0.00719
414.62076,0.04169
416.54923,0.03528
418.47770,-0.07115
420.40617,-0.20580
422.33464,-0.21355
424.26311,-0.10947
426.19157,0.03996
428.12004,0.12582
430.04851,0.12052
431.97698,0.12519
433.90545,0.17433
435.83392,0.16355
437.76239,0.09252
439.69085,0.07005
441.61932,0.17315
443.54779,0.28870
445.47626,0.26973
447.40473,0.20737
449.33320,0.19531
451.26167,0.22602
453.19013,0.21371
455.11860,0.11783
457.04707,0.07416
458.97554,0.17109
460.90401,0.27782
462.83248,0.28921
464.76095,0.21359
466.68942,0.14725
468.61788,0.15985
470.54635,0.18989
472.47482,0.12529
474.40329,0.04418
476.33176,0.09689
478.26023,0.12564
480.18870,0.12452
482.11716,0.17661
484.04563,0.21550
485.97410,0.14757
487.90257,0.09063
489.83104,0.10682
491.75951,0.11655
493.68798,0.11717
495.61645,0.14337
497.54491,0.15875
499.47338,0.13738
501.40185,0.10488
503.33032,0.10143
505.25879,0.13452
507.18726,0.15240
509.11573,0.12065
511.04419,0.09071
512.97266,0.09314
514.90113,0.08751
516.82960,0.04950
518.75807,0.03301
520.68654,0.07311
522.61501,0.12492
524.54348,0.15185
526.47194,0.14631
528.40041,0.12667
530.32888,0.12728
532.25735,0.14153
534.18582,0.14795
536.11429,0.16526
538.04276,0.17288
539.97122,0.12455
541.89969,0.07392
543.82816,0.07487
545.75663,0.10004
547.68510,0.12528
549.61357,0.11839
551.54204,0.00196
553.47051,-0.16291
555.39897,-0.15536
557.32744,0.01225
559.25591,0.11745
561.18438,0.11975
563.11285,0.10260
565.04132,0.12055
566.96979,0.15796
568.89825,0.14518
570.82672,0.08846
572.75519,0.06554
574.68366,0.08843
576.61213,0.12008
578.54060,0.13846
580.46907,0.12800
582.39754,0.11166
584.32600,0.11486
586.25447,0.10651
588.18294,0.06585
590.11141,0.03425
592.03988,0.04321
593.96835,0.06895
595.89682,0.09096
597.82528,0.11208
599.75375,0.12095
601.68222,0.11161
603.61069,0.11041
605.53916,0.12687
607.46763,0.14408
609.39610,0.15457
611.32456,0.15562
613.25303,0.13909
615.18150,0.11051
617.10997,0.09492
619.03844,0.10397
620.96691,0.12023
622.89538,0.12620
624.82385,0.12581
626.75231,0.12026
628.68078,0.10768
630.60925,0.09717
632.53772,0.10452
634.46619,0.13015
636.39466,0.14178
638.32313,0.12947
640.25159,0.11589
642.18006,0.11641
644.10853,0.12951
646.03700,0.14442
647.96547,0.15034
649.89394,0.14456
651.82241,0.12775
653.75088,0.10760
655.67934,0.09859
657.60781,0.09708
659.53628,0.10278
661.46475,0.11619
663.39322,0.12196
665.32169,0.11934
667.25016,0.10270
669.17862,0.08300
671.10709,0.10349
673.03556,0.12705
674.96403,0.13019
676.89250,0.12694
678.82097,0.12748
680.74944,0.13324
682.67791,0.14604
684.60637,0.15074
686.53484,0.14744
688.46331,0.15081
690.39178,0.15230
692.32025,0.14977
694.24872,0.14918
696.17719,0.14503
698.10565,0.13747
700.03412,0.12862
701.96259,0.12111
703.89106,0.11975
705.81953,0.12138
707.74800,0.11868
709.67647,0.11134
711.60494,0.11661
713.53340,0.13892
715.46187,0.15672
717.39034,0.16279
719.31881,0.15846
721.24728,0.14607
723.17575,0.13980
725.10422,0.14146
727.03268,0.14093
728.96115,0.13661
730.88962,0.13207
732.81809,0.13034
734.74656,0.13003
736.67503,0.13008
738.60350,0.13467
740.53197,0.14155
742.46043,0.14903
744.38890,0.15747
746.31737,0.15917
748.24584,0.14993
750.17431,0.14083
752.10278,0.14446
754.03125,0.15094
755.95971,0.14542
757.88818,0.13609
759.81665,0.13582
761.74512,0.13561
763.67359,0.12909
765.60206,0.12958
767.53053,0.13745
769.45900,0.14117
771.38746,0.13755
773.31593,0.13065
775.24440,0.12852
777.17287,0.13492
779.10134,0.14184
781.02981,0.13952
782.95828,0.13169
784.88674,0.12758
786.81521,0.12343
788.74368,0.11310
790.67215,0.11020
792.60062,0.12229
794.52909,0.13555
796.45756,0.14451
798.38602,0.15296
800.31449,0.15271
802.24296,0.13780
804.17143,0.12848
806.09990,0.14215
808.02837,0.16031
809.95684,0.16154
811.88531,0.15559
813.81377,0.14791
815.74224,0.13494
817.67071,0.13196
819.59918,0.13806
821.52765,0.14031
823.45612,0.14351
825.38459,0.14638
827.31305,0.14241
829.24152,0.13435
831.16999,0.12498
833.09846,0.11698
835.02693,0.11644
836.95540,0.12295
838.88387,0.12613
840.81234,0.12460
842.74080,0.13081
844.66927,0.14336
846.59774,0.15280
848.52621,0.15912
850.45468,0.15854
852.38315,0.15325
854.31162,0.15119
856.24008,0.15114
858.16855,0.15015
860.09702,0.15155
862.02549,0.15451
863.95396,0.14919
865.88243,0.14140
867.81090,0.14291
869.73937,0.14526
871.66783,0.14387
873.59630,0.14143
875.52477,0.13559
877.45324,0.13203
879.38171,0.12973
881.31018,0.12640
883.23865,0.13313
885.16711,0.14591
887.09558,0.15375
889.02405,0.15824
890.95252,0.15785
892.88099,0.15064
894.80946,0.14456
896.73793,0.14958
898.66640,0.16148
900.59486,0.16345
902.52333,0.15548
904.45180,0.15179
906.38027,0.14861
908.30874,0.14038
910.23721,0.13620
912.16568,0.13842
914.09414,0.14089
916.02261,0.14271
917.95108,0.14384
919.87955,0.14333
921.80802,0.14366
923.73649,0.14146
925.66496,0.13516
927.59343,0.13313
929.52189,0.13663
931.45036,0.14236
933.37883,0.14965
935.30730,0.15449
937.23577,0.15316
939.16424,0.14896
941.09271,0.14874
943.02117,0.15198
944.94964,0.15113
946.87811,0.14168
948.80658,0.13089
950.73505,0.12976
952.66352,0.13768
954.59199,0.14771
956.52045,0.15312
958.44892,0.15168
960.37739,0.14758
962.30586,0.14106
964.23433,0.13385
966.16280,0.13542
968.09127,0.14972
970.01974,0.16671
971.94820,0.16839
973.87667,0.15333
975.80514,0.14003
977.73361,0.14052
979.66208,0.15092
981.59055,0.16038
983.51902,0.16616
985.44748,0.16895
987.37595,0.16417
989.30442,0.15327
991.23289,0.14525
993.16136,0.14619
995.08983,0.15162
997.01830,0.15622
998.94677,0.16065
1000.87523,0.16251
1002.80370,0.15948
1004.73217,0.15399
1006.66064,0.15042
1008.58911,0.15277
1010.51758,0.15784
1012.44605,0.15810
1014.37451,0.15563
1016.30298,0.15575
1018.23145,0.15767
1020.15992,0.16021
1022.08839,0.16096
1024.01686,0.16118
1025.94533,0.16732
1027.87380,0.17291
1029.80226,0.16885
1031.73073,0.16443
1033.65920,0.16457
1035.58767,0.16057
1037.51614,0.15555
1039.44461,0.15829
1041.37308,0.16317
1043.30154,0.16290
1045.23001,0.15742
1047.15848,0.14854
1049.08695,0.14281
1051.01542,0.14606
1052.94389,0.15630
1054.87236,0.16557
1056.80083,0.16737
1058.72929,0.16524
1060.65776,0.16625
1062.58623,0.16666
1064.51470,0.16350
1066.44317,0.16438
1068.37164,0.16435
1070.30011,0.15743
1072.22857,0.15651
1074.15704,0.16120
1076.08551,0.15537
1078.01398,0.14762
1079.94245,0.15498
1081.87092,0.16545
1083.79939,0.16589
1085.72786,0.16308
1087.65632,0.16532
1089.58479,0.16915
1091.51326,0.16485
1093.44173,0.15527
1095.37020,0.15132
1097.29867,0.15737
1099.22714,0.16989
1101.15560,0.17923
1103.08407,0.18315
1105.01254,0.18734
1106.94101,0.18969
1108.86948,0.18386
1110.79795,0.17201
1112.72642,0.16798
1114.65489,0.17626
1116.58335,0.18229
1118.51182,0.18036
1120.44029,0.17509
1122.36876,0.16527
1124.29723,0.15434
1126.22570,0.15138
1128.15417,0.15428
1130.08263,0.15446
1132.01110,0.15254
1133.93957,0.15043
1135.86804,0.14960
1137.79651,0.15315
1139.72498,0.15666
1141.65345,0.15726
1143.58191,0.15832
1145.51038,0.15859
1147.43885,0.15783
1149.36732,0.16152
1151.29579,0.16895
1153.22426,0.17425
1155.15273,0.17671
1157.08120,0.17596
1159.00966,0.16998
1160.93813,0.16350
1162.86660,0.16242
1164.79507,0.16511
1166.72354,0.16731
1168.65201,0.16609
1170.58048,0.16299
1172.50894,0.16413
1174.43741,0.16910
1176.36588,0.16969
1178.29435,0.16506
1180.22282,0.16335
1182.15129,0.16693
1184.07976,0.17135
1186.00823,0.17489
1187.93669,0.17491
1189.86516,0.16904
1191.79363,0.16381
1193.72210,0.16429
1195.65057,0.16641
1197.57904,0.16729
1199.50751,0.16781
1201.43597,0.16689
1203.36444,0.16438
1205.29291,0.16446
1207.22138,0.16648
1209.14985,0.16604
1211.07832,0.16639
1213.00679,0.16929
1214.93526,0.17000
1216.86372,0.16865
1218.79219,0.16792
1220.72066,0.16702
1222.64913,0.16787
1224.57760,0.17069
1226.50607,0.16771
1228.43454,0.16084
1230.36300,0.16012
1232.29147,0.16329
1234.21994,0.16500
1236.14841,0.16735
1238.07688,0.17010
1240.00535,0.16792
1241.93382,0.16074
1243.86229,0.15516
1245.79075,0.15603
1247.71922,0.16163
1249.64769,0.16583
1251.57616,0.16620
1253.50463,0.16486
1255.43310,0.16329
1257.36157,0.16295
1259.29003,0.16532
1261.21850,0.16915
1263.14697,0.17105
1265.07544,0.17045
1267.00391,0.17019
1268.93238,0.17099
1270.86085,0.17268
1272.78932,0.17398
1274.71778,0.16942
1276.64625,0.16313
1278.57472,0.16543
1280.50319,0.17073
1282.43166,0.17031
1284.36013,0.17003
1286.28860,0.17326
1288.21706,0.17467
1290.14553,0.17371
1292.07400,0.17233
1294.00247,0.16901
1295.93094,0.16311
1297.85941,0.15758
1299.78788,0.15356
1301.71634,0.14539
1303.64481,0.13411
1305.57328,0.13542
1307.50175,0.15210
1309.43022,0.16539
1311.35869,0.16799
1313.28716,0.16870
1315.21563,0.17222
1317.14409,0.17612
1319.07256,0.17591
1321.00103,0.17188
1322.92950,0.16873
1324.85797,0.16664
1326.78644,0.16636
1328.71491,0.16974
1330.64337,0.16971
1332.57184,0.16631
1334.50031,0.16689
1336.42878,0.16936
1338.35725,0.16978
1340.28572,0.16520
1342.21419,0.15414
1344.14266,0.13177
1346.07112,0.11657
1347.99959,0.13781
1349.92806,0.16516
1351.85653,0.16740
1353.78500,0.16510
1355.71347,0.16936
1357.64194,0.17452
1359.57040,0.17660
1361.49887,0.17520
1363.42734,0.17446
1365.35581,0.17494
1367.28428,0.17436
1369.21275,0.17308
1371.14122,0.17388
1373.06969,0.17812
1374.99815,0.17972
1376.92662,0.17482
1378.85509,0.17195
1380.78356,0.17272
1382.71203,0.17429
1384.64050,0.17761
1386.56897,0.17939
1388.49743,0.17762
1390.42590,0.17815
1392.35437,0.18299
1394.28284,0.18798
1396.21131,0.18816
1398.13978,0.18277
1400.06825,0.17652
1401.99672,0.17670
1403.92518,0.18143
1405.85365,0.18420
1407.78212,0.18417
1409.71059,0.18392
1411.63906,0.18405
1413.56753,0.18491
1415.49600,0.18834
1417.42446,0.19455
1419.35293,0.19455
1421.28140,0.18679
1423.20987,0.18165
1425.13834,0.18021
1427.06681,0.18180
1428.99528,0.18414
1430.92375,0.18423
1432.85221,0.18621
1434.78068,0.19279
1436.70915,0.19308
1438.63762,0.18228
1440.56609,0.17781
1442.49456,0.18212
1444.42303,0.18793
1446.35149,0.19067
1448.27996,0.18901
1450.20843,0.18802
1452.13690,0.19136
1454.06537,0.19601
1455.99384,0.20626
1457.92231,0.21846
1459.85077,0.20917
1461.77924,0.19729
1463.70771,0.19560
1465.63618,0.19849
1467.56465,0.19867
1469.49312,0.20356
1471.42159,0.21399
1473.35006,0.21498
1475.27852,0.20465
1477.20699,0.19671
1479.13546,0.19438
1481.06393,0.19550
1482.99240,0.19513
1484.92087,0.19565
1486.84934,0.20476
1488.77780,0.21816
1490.70627,0.21422
1492.63474,0.20066
1494.56321,0.19731
1496.49168,0.20319
1498.42015,0.20532
1500.34862,0.20111
1502.27709,0.19884
1504.20555,0.20613
1506.13402,0.22731
1508.06249,0.22754
1509.99096,0.20786
1511.91943,0.20029
1513.84790,0.20512
1515.77637,0.21673
1517.70483,0.22425
1519.63330,0.23184
1521.56177,0.24353
1523.49024,0.23788
1525.41871,0.22207
1527.34718,0.20954
1529.27565,0.20332
1531.20412,0.20406
1533.13258,0.20632
1535.06105,0.20476
1536.98952,0.21214
1538.91799,0.24071
1540.84646,0.26395
1542.77493,0.24335
1544.70340,0.21582
1546.63186,0.19646
1548.56033,0.19028
1550.48880,0.19439
1552.41727,0.20276
1554.34574,0.21369
1556.27421,0.22790
1558.20268,0.23836
1560.13115,0.21681
1562.05961,0.19835
1563.98808,0.19159
1565.91655,0.19050
1567.84502,0.19838
1569.77349,0.20422
1571.70196,0.19813
1573.63043,0.19869
1575.55889,0.20847
1577.48736,0.20475
1579.41583,0.18917
1581.34430,0.17973
1583.27277,0.17813
1585.20124,0.17857
1587.12971,0.17946
1589.05818,0.18244
1590.98664,0.18415
1592.91511,0.18235
1594.84358,0.17903
1596.77205,0.17811
1598.70052,0.18164
1600.62899,0.18506
1602.55746,0.18489
1604.48592,0.18547
1606.41439,0.18980
1608.34286,0.19217
1610.27133,0.18758
1612.19980,0.18452
1614.12827,0.19129
1616.05674,0.20227
1617.98521,0.20151
1619.91367,0.19810
1621.84214,0.20506
1623.77061,0.21294
1625.69908,0.21226
1627.62755,0.20753
1629.55602,0.20002
1631.48449,0.19783
1633.41295,0.20710
1635.34142,0.22248
1637.26989,0.22143
1639.19836,0.20851
1641.12683,0.20034
1643.05530,0.20158
1644.98377,0.21259
1646.91223,0.22447
1648.84070,0.22469
1650.76917,0.22702
1652.69764,0.23494
1654.62611,0.22298
1656.55458,0.20743
1658.48305,0.20254
1660.41152,0.20645
1662.33998,0.21244
1664.26845,0.21024
1666.19692,0.20762
1668.12539,0.21332
1670.05386,0.21996
1671.98233,0.21843
1673.91080,0.21448
1675.83926,0.20978
1677.76773,0.20900
1679.69620,0.21226
1681.62467,0.21803
1683.55314,0.22904
1685.48161,0.22823
1687.41008,0.21549
1689.33855,0.20435
1691.26701,0.19645
1693.19548,0.19853
1695.12395,0.21502
1697.05242,0.23653
1698.98089,0.24163
1700.90936,0.22531
1702.83783,0.21285
1704.76629,0.21207
1706.69476,0.20833
1708.62323,0.20064
1710.55170,0.19751
1712.48017,0.20001
1714.40864,0.20976
1716.33711,0.22246
1718.26558,0.21545
1720.19404,0.19940
1722.12251,0.19402
1724.05098,0.19410
1725.97945,0.19406
1727.90792,0.19658
1729.83639,0.20239
1731.76486,0.20708
1733.69332,0.20838
1735.62179,0.20599
1737.55026,0.20433
1739.47873,0.20620
1741.40720,0.21004
1743.33567,0.21222
1745.26414,0.21377
1747.19261,0.21798
1749.12107,0.22122
1751.04954,0.21346
1752.97801,0.20163
1754.90648,0.19688
1756.83495,0.19622
1758.76342,0.19569
1760.69189,0.19681
1762.62035,0.19453
1764.54882,0.18862
1766.47729,0.18998
1768.40576,0.20074
1770.33423,0.21343
1772.26270,0.21633
1774.19117,0.20671
1776.11964,0.19938
1778.04810,0.19869
1779.97657,0.20087
1781.90504,0.20255
1783.83351,0.20258
1785.76198,0.19876
1787.69045,0.19380
1789.61892,0.19382
1791.54738,0.19867
1793.47585,0.20327
1795.40432,0.20442
1797.33279,0.20314
1799.26126,0.20124
1801.18973,0.19715
1803.11820,0.19033
1805.04666,0.18601
1806.97513,0.18583
1808.90360,0.18826
1810.83207,0.18974
1812.76054,0.18801
1814.68901,0.18799
1816.61748,0.19580
1818.54595,0.20897
1820.47441,0.21630
1822.40288,0.21467
1824.33135,0.20501
1826.25982,0.19497
1828.18829,0.19815
1830.11676,0.20454
1832.04523,0.20073
1833.97369,0.19562
1835.90216,0.19379
1837.83063,0.19176
1839.75910,0.19058
1841.68757,0.19615
1843.61604,0.20536
1845.54451,0.20579
1847.47298,0.19968
1849.40144,0.19500
1851.32991,0.19171
1853.25838,0.18849
1855.18685,0.18594
1857.11532,0.18560
1859.04379,0.18710
1860.97226,0.18829
1862.90072,0.18883
1864.82919,0.19099
1866.75766,0.19582
1868.68613,0.19882
1870.61460,0.19535
1872.54307,0.19074
1874.47154,0.19011
1876.40001,0.19215
1878.32847,0.19280
1880.25694,0.19230
1882.18541,0.19309
1884.11388,0.19283
1886.04235,0.18979
1887.97082,0.18917
1889.89929,0.19136
1891.82775,0.19111
1893.75622,0.19024
1895.68469,0.19075
1897.61316,0.19150
1899.54163,0.19062
1901.47010,0.18766
1903.39857,0.18730
1905.32704,0.19050
1907.25550,0.19228
1909.18397,0.19260
1911.11244,0.19455
1913.04091,0.19694
1914.96938,0.19706
1916.89785,0.19364
1918.82632,0.18824
1920.75478,0.18614
1922.68325,0.18744
1924.61172,0.18842
1926.54019,0.19046
1928.46866,0.19316
1930.39713,0.19334
1932.32560,0.19254
1934.25407,0.19213
1936.18253,0.19109
1938.11100,0.19056
1940.03947,0.19280
1941.96794,0.19620
1943.89641,0.19547
1945.82488,0.19098
1947.75335,0.18779
1949.68181,0.18655
1951.61028,0.18510
1953.53875,0.18387
1955.46722,0.18431
1957.39569,0.18727
1959.32416,0.19147
1961.25263,0.19244
1963.18110,0.18956
1965.10956,0.18804
1967.03803,0.19052
1968.96650,0.19346
1970.89497,0.19432
1972.82344,0.19395
1974.75191,0.19445
1976.68038,0.19757
1978.60884,0.20070
1980.53731,0.19899
1982.46578,0.19246
1984.39425,0.18751
1986.32272,0.18843
1988.25119,0.19274
1990.17966,0.19556
1992.10812,0.19478
1994.03659,0.19338
1995.96506,0.19322
1997.89353,0.19265
1999.82200,0.19039
2001.75047,0.18770
2003.67894,0.18738
2005.60741,0.18858
2007.53587,0.19035
2009.46434,0.19254
2011.39281,0.19267
2013.32128,0.19285
2015.24975,0.19530
2017.17822,0.19566
2019.10669,0.19381
2021.03515,0.19359
2022.96362,0.19274
2024.89209,0.19046
2026.82056,0.18964
2028.74903,0.18911
2030.67750,0.18804
2032.60597,0.18797
2034.53444,0.18885
2036.46290,0.19000
2038.39137,0.19040
2040.31984,0.19036
2042.24831,0.19178
2044.17678,0.19373
2046.10525,0.19354
2048.03372,0.19164
2049.96218,0.19103
2051.89065,0.19193
2053.81912,0.19161
2055.74759,0.19026
2057.67606,0.18947
2059.60453,0.18800
2061.53300,0.18597
2063.46147,0.18678
2065.38993,0.19058
2067.31840,0.19298
2069.24687,0.19310
2071.17534,0.19312
2073.10381,0.19292
2075.03228,0.19272
2076.96075,0.19377
2078.88921,0.19546
2080.81768,0.19505
2082.74615,0.19114
2084.67462,0.18682
2086.60309,0.18516
2088.53156,0.18508
2090.46003,0.18559
2092.38850,0.18750
2094.31696,0.19013
2096.24543,0.19163
2098.17390,0.19045
2100.10237,0.18755
2102.03084,0.18683
2103.95931,0.18860
2105.88778,0.18959
2107.81624,0.18980
2109.74471,0.19093
2111.67318,0.19111
2113.60165,0.18886
2115.53012,0.18761
2117.45859,0.18905
2119.38706,0.19064
2121.31553,0.19051
2123.24399,0.18983
2125.17246,0.19225
2127.10093,0.19649
2129.02940,0.19694
2130.95787,0.19467
2132.88634,0.19299
2134.81481,0.19148
2136.74327,0.19010
2138.67174,0.18918
2140.60021,0.18943
2142.52868,0.19007
2144.45715,0.18909
2146.38562,0.18811
2148.31409,0.18897
2150.24255,0.19087
2152.17102,0.19189
2154.09949,0.19023
2156.02796,0.18732
2157.95643,0.18578
2159.88490,0.18618
2161.81337,0.18824
2163.74184,0.19113
2165.67030,0.19295
2167.59877,0.19175
2169.52724,0.18937
2171.45571,0.18839
2173.38418,0.18704
2175.31265,0.18545
2177.24112,0.18612
2179.16958,0.18779
2181.09805,0.18821
2183.02652,0.18685
2184.95499,0.18520
2186.88346,0.18610
2188.81193,0.18832
2190.74040,0.18906
2192.66887,0.18883
2194.59733,0.18836
2196.52580,0.18834
2198.45427,0.19075
2200.38274,0.19472
2202.31121,0.19451
2204.23968,0.18932
2206.16815,0.18518
2208.09661,0.18416
2210.02508,0.18607
2211.95355,0.18967
2213.88202,0.19185
2215.81049,0.19292
2217.73896,0.19271
2219.66743,0.19037
2221.59590,0.18892
2223.52436,0.18980
2225.45283,0.19014
2227.38130,0.18901
2229.30977,0.18869
2231.23824,0.18919
2233.16671,0.18947
2235.09518,0.19011
2237.02364,0.19130
2238.95211,0.19253
2240.88058,0.19378
2242.80905,0.19351
2244.73752,0.18997
2246.66599,0.18719
2248.59446,0.18891
2250.52293,0.19144
2252.45139,0.19130
2254.37986,0.19046
2256.30833,0.19043
2258.23680,0.18958
2260.16527,0.18840
2262.09374,0.18811
2264.02221,0.18732
2265.95067,0.18639
2267.87914,0.18721
2269.80761,0.18938
2271.73608,0.19003
2273.66455,0.18871
2275.59302,0.19030
2277.52149,0.19511
2279.44996,0.19628
2281.37842,0.19382
2283.30689,0.19458
2285.23536,0.19817
2287.16383,0.19752
2289.09230,0.19237
2291.02077,0.18723
2292.94924,0.18290
2294.87770,0.18117
2296.80617,0.18264
2298.73464,0.18589
2300.66311,0.19152
2302.59158,0.19806
2304.52005,0.20238
2306.44852,0.20341
2308.37699,0.20370
2310.30545,0.20498
2312.23392,0.20484
2314.16239,0.20366
2316.09086,0.20414
2318.01933,0.20476
2319.94780,0.20403
2321.87627,0.20697
2323.80473,0.21446
2325.73320,0.21628
2327.66167,0.21096
2329.59014,0.20804
2331.51861,0.20734
2333.44708,0.20561
2335.37555,0.20911
2337.30401,0.22068
2339.23248,0.23077
2341.16095,0.22727
2343.08942,0.21525
2345.01789,0.20539
2346.94636,0.20186
2348.87483,0.20433
2350.80330,0.20718
2352.73176,0.20544
2354.66023,0.19996
2356.58870,0.19242
2358.51717,0.19048
2360.44564,0.20750
2362.37411,0.23198
2364.30258,0.24107
2366.23104,0.22570
2368.15951,0.20342
2370.08798,0.19568
2372.01645,0.19524
2373.94492,0.19222
2375.87339,0.19027
2377.80186,0.19026
2379.73033,0.19091
2381.65879,0.19368
2383.58726,0.19623
2385.51573,0.19668
2387.44420,0.19700
2389.37267,0.19635
2391.30114,0.19313
2393.22961,0.18958
2395.15807,0.18829
2397.08654,0.18929
2399.01501,0.19027
2400.94348,0.19005
2402.87195,0.19062
2404.80042,0.19271
2406.72889,0.19429
2408.65736,0.19382
2410.58582,0.19230
2412.51429,0.19247
2414.44276,0.19426
2416.37123,0.19481
2418.29970,0.19307
2420.22817,0.19102
2422.15664,0.19031
2424.08510,0.19003
2426.01357,0.18909
2427.94204,0.18822
2429.87051,0.18837
2431.79898,0.18946
2433.72745,0.19047
2435.65592,0.19177
2437.58439,0.19311
2439.51285,0.19158
2441.44132,0.18868
2443.36979,0.18792
2445.29826,0.18894
2447.22673,0.19082
2449.15520,0.19456
2451.08367,0.19957
2453.01213,0.20033
2454.94060,0.19727
2456.86907,0.19484
2458.79754,0.19321
2460.72601,0.19358
2462.65448,0.19380
2464.58295,0.19257
2466.51142,0.19274
2468.43988,0.19332
2470.36835,0.19240
2472.29682,0.19025
2474.22529,0.18925
2476.15376,0.19050
2478.08223,0.19200
2480.01070,0.19240
2481.93916,0.19157
2483.86763,0.19135
2485.79610,0.19348
2487.72457,0.19552
2489.65304,0.19487
2491.58151,0.19203
2493.50998,0.18899
2495.43844,0.18860
2497.36691,0.19057
2499.29538,0.19297
2501.22385,0.19533
2503.15232,0.19673
2505.08079,0.19688
2507.00926,0.19651
2508.93773,0.19561
2510.86619,0.19350
2512.79466,0.19225
2514.72313,0.19292
2516.65160,0.19322
2518.58007,0.19415
2520.50854,0.19579
2522.43701,0.19567
2524.36547,0.19483
2526.29394,0.19445
2528.22241,0.19379
2530.15088,0.19344
2532.07935,0.19458
2534.00782,0.19582
2535.93629,0.19505
2537.86476,0.19312
2539.79322,0.19193
2541.72169,0.19236
2543.65016,0.19424
2545.57863,0.19587
2547.50710,0.19547
2549.43557,0.19336
2551.36404,0.19251
2553.29250,0.19509
2555.22097,0.19705
2557.14944,0.19454
2559.07791,0.19159
2561.00638,0.19023
2562.93485,0.18943
2564.86332,0.19061
2566.79179,0.19252
2568.72025,0.19435
2570.64872,0.19576
2572.57719,0.19435
2574.50566,0.19134
2576.43413,0.18955
2578.36260,0.19014
2580.29107,0.19355
2582.21953,0.19744
2584.14800,0.19879
2586.07647,0.19864
2588.00494,0.19747
2589.93341,0.19537
2591.86188,0.19541
2593.79035,0.19787
2595.71882,0.19961
2597.64728,0.19834
2599.57575,0.19484
2601.50422,0.19307
2603.43269,0.19461
2605.36116,0.19613
2607.28963,0.19594
2609.21810,0.19649
2611.14656,0.19856
2613.07503,0.20010
2615.00350,0.19981
2616.93197,0.19858
2618.86044,0.19755
2620.78891,0.19629
2622.71738,0.19487
2624.64585,0.19524
2626.57431,0.19772
2628.50278,0.19836
2630.43125,0.19605
2632.35972,0.19598
2634.28819,0.19921
2636.21666,0.20103
2638.14513,0.19974
2640.07359,0.19735
2642.00206,0.19660
2643.93053,0.19662
2645.85900,0.19517
2647.78747,0.19474
2649.71594,0.19559
2651.64441,0.19585
2653.57288,0.19682
2655.50134,0.19648
2657.42981,0.19329
2659.35828,0.19210
2661.28675,0.19474
2663.21522,0.19685
2665.14369,0.19673
2667.07216,0.19788
2669.00062,0.20147
2670.92909,0.20377
2672.85756,0.20287
2674.78603,0.20068
2676.71450,0.19875
2678.64297,0.19794
2680.57144,0.19960
2682.49990,0.20231
2684.42837,0.20335
2686.35684,0.20521
2688.28531,0.20820
2690.21378,0.20722
2692.14225,0.20358
2694.07072,0.20194
2695.99919,0.20230
2697.92765,0.20365
2699.85612,0.20464
2701.78459,0.20401
2703.71306,0.20179
2705.64153,0.19886
2707.57000,0.19860
2709.49847,0.20119
2711.42693,0.20287
2713.35540,0.20342
2715.28387,0.20291
2717.21234,0.19984
2719.14081,0.19667
2721.06928,0.19655
2722.99775,0.19816
2724.92622,0.20226
2726.85468,0.20891
2728.78315,0.21128
2730.71162,0.20800
2732.64009,0.20419
2734.56856,0.20246
2736.49703,0.20356
2738.42550,0.20471
2740.35396,0.20300
2742.28243,0.20086
2744.21090,0.20052
2746.13937,0.20203
2748.06784,0.20508
2749.99631,0.20711
2751.92478,0.20774
2753.85325,0.20822
2755.78171,0.20666
2757.71018,0.20324
2759.63865,0.20115
2761.56712,0.20021
2763.49559,0.19829
2765.42406,0.19714
2767.35253,0.19840
2769.28099,0.19940
2771.20946,0.19838
2773.13793,0.19822
2775.06640,0.20122
2776.99487,0.20503
2778.92334,0.20710
2780.85181,0.20634
2782.78028,0.20408
2784.70874,0.20408
2786.63721,0.20695
2788.56568,0.20997
2790.49415,0.21017
2792.42262,0.20731
2794.35109,0.20445
2796.27956,0.20391
2798.20802,0.20530
2800.13649,0.20648
2802.06496,0.20706
2803.99343,0.20761
2805.92190,0.20677
2807.85037,0.20544
2809.77884,0.20654
2811.70731,0.20862
2813.63577,0.20866
2815.56424,0.20838
2817.49271,0.20934
2819.42118,0.20885
2821.34965,0.20584
2823.27812,0.20389
2825.20659,0.20618
2827.13505,0.21066
2829.06352,0.21156
2830.99199,0.20763
2832.92046,0.20548
2834.84893,0.20776
2836.77740,0.20912
2838.70587,0.20740
2840.63433,0.20623
2842.56280,0.21045
2844.49127,0.21712
2846.41974,0.21672
2848.34821,0.21027
2850.27668,0.20674
2852.20515,0.20818
2854.13362,0.20999
2856.06208,0.21103
2857.99055,0.21403
2859.91902,0.21614
2861.84749,0.21339
2863.77596,0.20854
2865.70443,0.20627
2867.63290,0.20692
2869.56136,0.20628
2871.48983,0.20465
2873.41830,0.20665
2875.34677,0.20993
2877.27524,0.21089
2879.20371,0.21094
2881.13218,0.21013
2883.06065,0.20819
2884.98911,0.20631
2886.91758,0.20470
2888.84605,0.20405
2890.77452,0.20556
2892.70299,0.20630
2894.63146,0.20370
2896.55993,0.20211
2898.48839,0.20378
2900.41686,0.20592
2902.34533,0.20787
2904.27380,0.20910
2906.20227,0.20960
2908.13074,0.21234
2910.05921,0.21432
2911.98768,0.21000
2913.91614,0.20276
2915.84461,0.19719
2917.77308,0.19564
2919.70155,0.19713
2921.63002,0.19781
2923.55849,0.19604
2925.48696,0.19097
2927.41542,0.19039
2929.34389,0.19761
2931.27236,0.20399
2933.20083,0.20723
2935.12930,0.20391
2937.05777,0.19491
2938.98624,0.19245
2940.91471,0.19688
2942.84317,0.20029
2944.77164,0.19845
2946.70011,0.19166
2948.62858,0.19111
2950.55705,0.20109
2952.48552,0.21050
2954.41399,0.21139
2956.34245,0.20178
2958.27092,0.19226
2960.19939,0.19499
2962.12786,0.20258
2964.05633,0.20661
2965.98480,0.20595
2967.91327,0.20334
2969.84174,0.20684
2971.77020,0.21383
2973.69867,0.21644
2975.62714,0.21363
2977.55561,0.20733
2979.48408,0.20436
2981.41255,0.20603
2983.34102,0.20772
2985.26948,0.21087
2987.19795,0.21179
2989.12642,0.20824
2991.05489,0.20793
2992.98336,0.21083
2994.91183,0.21207
2996.84030,0.21030
2998.76877,0.20737
3000.69723,0.20792
3002.62570,0.21132
3004.55417,0.21300
3006.48264,0.21196
3008.41111,0.20900
3010.33958,0.20195
3012.26805,0.18594
3014.19651,0.15811
3016.12498,0.13383
3018.05345,0.14205
3019.98192,0.17847
3021.91039,0.20857
3023.83886,0.21782
3025.76733,0.21446
3027.69579,0.21120
3029.62426,0.21519
3031.55273,0.22188
3033.48120,0.22248
3035.40967,0.21467
3037.33814,0.20446
3039.26661,0.19955
3041.19508,0.20100
3043.12354,0.20535
3045.05201,0.20908
3046.98048,0.20980
3048.90895,0.21065
3050.83742,0.21482
3052.76589,0.21796
3054.69436,0.21385
3056.62282,0.20628
3058.55129,0.20771
3060.47976,0.21505
3062.40823,0.21448
3064.33670,0.20629
3066.26517,0.19969
3068.19364,0.20157
3070.12211,0.20863
3072.05057,0.21291
3073.97904,0.21094
3075.90751,0.20344
3077.83598,0.19943
3079.76445,0.20332
3081.69292,0.20771
3083.62139,0.20601
3085.54985,0.20406
3087.47832,0.21072
3089.40679,0.21640
3091.33526,0.21146
3093.26373,0.20274
3095.19220,0.20048
3097.12067,0.20532
3099.04914,0.20883
3100.97760,0.20738
3102.90607,0.20292
3104.83454,0.20414
3106.76301,0.21288
3108.69148,0.21650
3110.61995,0.21180
3112.54842,0.20844
3114.47688,0.21180
3116.40535,0.21371
3118.33382,0.20794
3120.26229,0.19938
3122.19076,0.19582
3124.11923,0.20310
3126.04770,0.21370
3127.97617,0.21618
3129.90463,0.21267
3131.83310,0.21144
3133.76157,0.21463
3135.69004,0.21861
3137.61851,0.21722
3139.54698,0.21101
3141.47545,0.21129
3143.40391,0.21591
3145.33238,0.21365
3147.26085,0.20991
3149.18932,0.21097
3151.11779,0.21166
3153.04626,0.21183
3154.97473,0.21596
3156.90320,0.22058
3158.83166,0.22032
3160.76013,0.21598
3162.68860,0.21109
3164.61707,0.21006
3166.54554,0.21661
3168.47401,0.22594
3170.40248,0.22893
3172.33094,0.22627
3174.25941,0.22230
3176.18788,0.21682
3178.11635,0.21199
3180.04482,0.21210
3181.97329,0.21682
3183.90176,0.22100
3185.83022,0.22179
3187.75869,0.22122
3189.68716,0.21952
3191.61563,0.21786
3193.54410,0.21835
3195.47257,0.21909
3197.40104,0.21994
3199.32951,0.22116
3201.25797,0.22017
3203.18644,0.21659
3205.11491,0.21364
3207.04338,0.21341
3208.97185,0.21225
3210.90032,0.20933
3212.82879,0.21091
3214.75725,0.21662
3216.68572,0.21956
3218.61419,0.21882
3220.54266,0.21669
3222.47113,0.21551
3224.39960,0.21605
3226.32807,0.21580
3228.25654,0.21503
3230.18500,0.21412
3232.11347,0.21095
3234.04194,0.20728
3235.97041,0.20780
3237.89888,0.21322
3239.82735,0.21794
3241.75582,0.21888
3243.68428,0.22034
3245.61275,0.22267
3247.54122,0.22207
3249.46969,0.21928
3251.39816,0.21614
3253.32663,0.21511
3255.25510,0.21737
3257.18357,0.21899
3259.11203,0.21754
3261.04050,0.21539
3262.96897,0.21390
3264.89744,0.21229
3266.82591,0.21084
3268.75438,0.20780
3270.68285,0.20266
3272.61131,0.20152
3274.53978,0.20608
3276.46825,0.20985
3278.39672,0.21153
3280.32519,0.21576
3282.25366,0.21932
3284.18213,0.21918
3286.11060,0.21887
3288.03906,0.21586
3289.96753,0.21000
3291.89600,0.20680
3293.82447,0.20569
3295.75294,0.20652
3297.68141,0.21042
3299.60988,0.21378
3301.53834,0.21365
3303.46681,0.21231
3305.39528,0.21227
3307.32375,0.20864
3309.25222,0.19891
3311.18069,0.19209
3313.10916,0.19445
3315.03763,0.20447
3316.96609,0.21577
3318.89456,0.21896
3320.82303,0.21453
3322.75150,0.21027
3324.67997,0.20960
3326.60844,0.21300
3328.53691,0.21987
3330.46537,0.22443
3332.39384,0.22169
3334.32231,0.21733
3336.25078,0.21495
3338.17925,0.21120
3340.10772,0.20800
3342.03619,0.20846
3343.96466,0.21164
3345.89312,0.21504
3347.82159,0.21562
3349.75006,0.21283
3351.67853,0.21006
3353.60700,0.20948
3355.53547,0.20931
3357.46394,0.20974
3359.39240,0.21309
3361.32087,0.21820
3363.24934,0.22197
3365.17781,0.22165
3367.10628,0.21683
3369.03475,0.21291
3370.96322,0.21541
3372.89168,0.21981
3374.82015,0.21910
3376.74862,0.21756
3378.67709,0.21983
3380.60556,0.22218
3382.53403,0.22222
3384.46250,0.21860
3386.39097,0.20888
3388.31943,0.19921
3390.24790,0.19859
3392.17637,0.20463
3394.10484,0.21092
3396.03331,0.21554
3397.96178,0.21769
3399.89025,0.21803
3401.81871,0.21771
3403.74718,0.21476
3405.67565,0.20960
3407.60412,0.20677
3409.53259,0.20410
3411.46106,0.20090
3413.38953,0.20191
3415.31800,0.20598
3417.24646,0.21258
3419.17493,0.21848
3421.10340,0.21686
3423.03187,0.21042
3424.96034,0.20546
3426.88881,0.20575
3428.81728,0.21070
3430.74574,0.21343
3432.67421,0.21087
3434.60268,0.20683
3436.53115,0.20565
3438.45962,0.20814
3440.38809,0.20782
3442.31656,0.20136
3444.24503,0.19764
3446.17349,0.20085
3448.10196,0.20127
3450.03043,0.19584
3451.95890,0.19302
3453.88737,0.19377
3455.81584,0.19457
3457.74431,0.19405
3459.67277,0.19075
3461.60124,0.18643
3463.52971,0.18434
3465.45818,0.18511
3467.38665,0.18896
3469.31512,0.19437
3471.24359,0.19698
3473.17206,0.19736
3475.10052,0.19893
3477.02899,0.20001
3478.95746,0.19817
3480.88593,0.19338
3482.81440,0.18650
3484.74287,0.18249
3486.67134,0.18723
3488.59980,0.19399
3490.52827,0.19241
3492.45674,0.18639
3494.38521,0.18376
3496.31368,0.18531
3498.24215,0.18505
3500.17062,0.18122
3502.09909,0.17953
3504.02755,0.18288
3505.95602,0.18890
3507.88449,0.19312
3509.81296,0.19197
3511.74143,0.18833
3513.66990,0.18485
3515.59837,0.18014
3517.52683,0.17730
3519.45530,0.17852
3521.38377,0.18099
3523.31224,0.18369
3525.24071,0.18651
3527.16918,0.18859
3529.09765,0.18722
3531.02611,0.18081
3532.95458,0.17590
3534.88305,0.17692
3536.81152,0.17748
3538.73999,0.17330
3540.66846,0.16911
3542.59693,0.16924
3544.52540,0.17354
3546.45386,0.17660
3548.38233,0.17467
3550.31080,0.17258
3552.23927,0.17285
3554.16774,0.17229
3556.09621,0.17048
3558.02468,0.16844
3559.95314,0.16663
3561.88161,0.16627
3563.81008,0.17027
3565.73855,0.18057
3567.66702,0.18391
3569.59549,0.17298
3571.52396,0.16497
3573.45243,0.16420
3575.38089,0.16271
3577.30936,0.15820
3579.23783,0.15397
3581.16630,0.14953
3583.09477,0.14866
3585.02324,0.15631
3586.95171,0.16826
3588.88017,0.16915
3590.80864,0.16081
3592.73711,0.15685
3594.66558,0.15630
3596.59405,0.15394
3598.52252,0.15126
3600.45099,0.14906
3602.37946,0.14789
3604.30792,0.15121
3606.23639,0.15843
3608.16486,0.16007
3610.09333,0.15403
3612.02180,0.15086
3613.95027,0.15125
3615.87874,0.15352
3617.80720,0.15873
3619.73567,0.15989
3621.66414,0.15633
3623.59261,0.15680
3625.52108,0.15886
3627.44955,0.15735
3629.37802,0.15123
3631.30649,0.14915
3633.23495,0.15088
3635.16342,0.14839
3637.09189,0.14373
3639.02036,0.14500
3640.94883,0.15149
3642.87730,0.15658
3644.80577,0.16132
3646.73423,0.17037
3648.66270,0.17563
3650.59117,0.16277
3652.51964,0.14899
3654.44811,0.14296
3656.37658,0.13921
3658.30505,0.13455
3660.23352,0.13158
3662.16198,0.13174
3664.09045,0.13391
3666.01892,0.13710
3667.94739,0.14024
3669.87586,0.13960
3671.80433,0.14056
3673.73280,0.15099
3675.66126,0.16318
3677.58973,0.15941
3679.51820,0.14656
3681.44667,0.13714
3683.37514,0.13512
3685.30361,0.13833
3687.23208,0.14442
3689.16055,0.15035
3691.08901,0.14957
3693.01748,0.14307
3694.94595,0.13746
3696.87442,0.13517
3698.80289,0.13452
3700.73136,0.13555
3702.65983,0.13736
3704.58829,0.13605
3706.51676,0.13619
3708.44523,0.14265
3710.37370,0.15065
3712.30217,0.15075
3714.23064,0.14406
3716.15911,0.13710
3718.08757,0.13263
3720.01604,0.13328
3721.94451,0.13835
3723.87298,0.14200
3725.80145,0.13946
3727.72992,0.13386
3729.65839,0.13463
3731.58686,0.14536
3733.51532,0.16134
3735.44379,0.16739
3737.37226,0.15579
3739.30073,0.14416
3741.22920,0.13998
3743.15767,0.14097
3745.08614,0.14756
3747.01460,0.15818
3748.94307,0.17002
3750.87154,0.17515
3752.80001,0.16596
3754.72848,0.15458
3756.65695,0.14548
3758.58542,0.13842
3760.51389,0.13210
3762.44235,0.12917
3764.37082,0.13408
3766.29929,0.14137
3768.22776,0.14247
3770.15623,0.13776
3772.08470,0.13103
3774.01317,0.12826
3775.94163,0.13052
3777.87010,0.13461
3779.79857,0.13494
3781.72704,0.12714
3783.65551,0.11990
3785.58398,0.12268
3787.51245,0.13115
3789.44092,0.13632
3791.36938,0.13489
3793.29785,0.12935
3795.22632,0.12706
3797.15479,0.13015
3799.08326,0.13714
3801.01173,0.14955
3802.94020,0.15570
3804.86866,0.15195
3806.79713,0.14287
3808.72560,0.12780
3810.65407,0.11922
3812.58254,0.12330
3814.51101,0.13736
3816.43948,0.15020
3818.36795,0.15427
3820.29641,0.15267
3822.22488,0.13935
3824.15335,0.12697
3826.08182,0.12247
3828.01029,0.12250
3829.93876,0.12433
3831.86723,0.12604
3833.79569,0.13059
3835.72416,0.13793
3837.65263,0.14666
3839.58110,0.14962
3841.50957,0.13937
3843.43804,0.13030
3845.36651,0.12975
3847.29498,0.12984
3849.22344,0.12983
3851.15191,0.13377
3853.08038,0.13821
3855.00885,0.12946
3856.93732,0.11784
3858.86579,0.11376
3860.79426,0.11966
3862.72272,0.13044
3864.65119,0.13154
3866.57966,0.12473
3868.50813,0.12245
3870.43660,0.12539
3872.36507,0.12594
3874.29354,0.12071
3876.22200,0.11862
3878.15047,0.12281
3880.07894,0.12313
3882.00741,0.11789
3883.93588,0.12069
3885.86435,0.12958
3887.79282,0.13131
3889.72129,0.12704
3891.64975,0.12400
3893.57822,0.12554
3895.50669,0.12756
3897.43516,0.12698
3899.36363,0.12511
3901.29210,0.12329
3903.22057,0.12095
3905.14903,0.11831
3907.07750,0.11338
3909.00597,0.10877
3910.93444,0.10974
3912.86291,0.11643
3914.79138,0.12541
3916.71985,0.13019
3918.64832,0.12790
3920.57678,0.12461
3922.50525,0.12426
3924.43372,0.12590
3926.36219,0.12501
3928.29066,0.12315
3930.21913,0.12681
3932.14760,0.13360
3934.07606,0.13147
3936.00453,0.12117
3937.93300,0.11542
3939.86147,0.11785
3941.78994,0.12054
3943.71841,0.11757
3945.64688,0.11476
3947.57535,0.11766
3949.50381,0.12094
3951.43228,0.11800
3953.36075,0.11509
3955.28922,0.11827
3957.21769,0.11769
3959.14616,0.10865
3961.07463,0.10502
3963.00309,0.10814
3964.93156,0.10595
3966.86003,0.10200
3968.78850,0.10505
3970.71697,0.11107
3972.64544,0.11061
3974.57391,0.10528
3976.50238,0.10492
3978.43084,0.10685
3980.35931,0.10647
3982.28778,0.10712
3984.21625,0.10833
3986.14472,0.10735
3988.07319,0.10200
3990.00166,0.09638
3991.93012,0.09782
3993.85859,0.10471
3995.78706,0.11144
3997.71553,0.11265
3999.64400,0.10770
4001.57247,0.10158
4003.50094,0.09747
4005.42941,0.09720
4007.35787,0.10159
4009.28634,0.10580
4011.21481,0.10511
4013.14328,0.10263
4015.07175,0.10074
4017.00022,0.09850
4018.92869,0.09738
4020.85715,0.09854
4022.78562,0.10034
4024.71409,0.09891
4026.64256,0.09411
4028.57103,0.09107
4030.49950,0.09003
4032.42797,0.08934
4034.35644,0.09284
4036.28490,0.10043
4038.21337,0.10595
4040.14184,0.10589
4042.07031,0.10231
4043.99878,0.10233
4045.92725,0.10718
4047.85572,0.10814
4049.78418,0.10116
4051.71265,0.09324
4053.64112,0.09174
4055.56959,0.09434
4057.49806,0.09389
4059.42653,0.08850
4061.35500,0.08549
4063.28346,0.08916
4065.21193,0.09296
4067.14040,0.09450
4069.06887,0.09726
4070.99734,0.10101
4072.92581,0.10382
4074.85428,0.10406
4076.78275,0.10001
4078.71121,0.09305
4080.63968,0.08833
4082.56815,0.09041
4084.49662,0.09498
4086.42509,0.09157
4088.35356,0.08308
4090.28203,0.08258
4092.21049,0.08927
4094.13896,0.09195
4096.06743,0.08758
4097.99590,0.08253
4099.92437,0.08551
4101.85284,0.09486
4103.78131,0.09871
4105.70978,0.09563
4107.63824,0.08986
4109.56671,0.08234
4111.49518,0.07808
4113.42365,0.08052
4115.35212,0.08732
4117.28059,0.09373
4119.20906,0.09583
4121.13752,0.09160
4123.06599,0.08426
4124.99446,0.08045
4126.92293,0.07941
4128.85140,0.07759
4130.77987,0.07666
4132.70834,0.07948
4134.63681,0.08624
4136.56527,0.09642
4138.49374,0.10577
4140.42221,0.10419
4142.35068,0.09541
4144.27915,0.09392
4146.20762,0.09468
4148.13609,0.08506
4150.06455,0.07448
4151.99302,0.07642
4153.92149,0.08206
4155.84996,0.08263
4157.77843,0.08457
4159.70690,0.09026
4161.63537,0.09273
4163.56384,0.08597
4165.49230,0.07735
4167.42077,0.07452
4169.34924,0.07299
4171.27771,0.07321
4173.20618,0.07796
4175.13465,0.08319
4177.06312,0.08870
4178.99158,0.09515
4180.92005,0.09454
4182.84852,0.08619
4184.77699,0.08199
4186.70546,0.08604
4188.63393,0.08986
4190.56240,0.08520
4192.49087,0.07580
4194.41933,0.07359
4196.34780,0.08022
4198.27627,0.08498
4200.20474,0.08342
4202.13321,0.07984
4204.06168,0.07734
4205.99015,0.07520
4207.91861,0.07273
4209.84708,0.07450
4211.77555,0.07977
4213.70402,0.08212
4215.63249,0.07904
4217.56096,0.07336
4219.48943,0.06881
4221.41789,0.06327
4223.34636,0.06014
4225.27483,0.06565
4227.20330,0.07050
4229.13177,0.06554
4231.06024,0.05996
4232.98871,0.06258
4234.91718,0.06764
4236.84564,0.06998
4238.77411,0.07095
4240.70258,0.07033
4242.63105,0.06702
4244.55952,0.06367
4246.48799,0.06312
4248.41646,0.06273
4250.34492,0.06187
4252.27339,0.06588
4254.20186,0.07020
4256.13033,0.06577
4258.05880,0.05866
4259.98727,0.05741
4261.91574,0.05969
4263.84421,0.06183
4265.77267,0.06272
4267.70114,0.05904
4269.62961,0.05513
4271.55808,0.05849
4273.48655,0.06442
4275.41502,0.06536
4277.34349,0.06094
4279.27195,0.05926
4281.20042,0.06231
4283.12889,0.06415
4285.05736,0.06725
4286.98583,0.07092
4288.91430,0.07024
4290.84277,0.06812
4292.77124,0.06671
4294.69970,0.06589
4296.62817,0.06556
4298.55664,0.06089
4300.48511,0.05394
4302.41358,0.05282
4304.34205,0.05753
4306.27052,0.06329
4308.19898,0.06310
4310.12745,0.05551
4312.05592,0.04940
4313.98439,0.05074
4315.91286,0.05340
4317.84133,0.05264
4319.76980,0.05446
4321.69827,0.05887
4323.62673,0.05774
4325.55520,0.05082
4327.48367,0.04601
4329.41214,0.04592
4331.34061,0.05004
4333.26908,0.05560
4335.19755,0.05662
4337.12601,0.05610
4339.05448,0.05297
4340.98295,0.04610
4342.91142,0.04841
4344.83989,0.05524
4346.76836,0.04966
4348.69683,0.04183
4350.62530,0.04549
4352.55376,0.05009
4354.48223,0.04590
4356.41070,0.03581
4358.33917,0.02901
4360.26764,0.03371
4362.19611,0.04250
4364.12458,0.04501
4366.05304,0.04537
4367.98151,0.04689
4369.90998,0.04494
4371.83845,0.04126
4373.76692,0.04174
4375.69539,0.04292
4377.62386,0.04017
4379.55232,0.04014
4381.48079,0.04622
4383.40926,0.05020
4385.33773,0.04691
4387.26620,0.04184
4389.19467,0.04288
4391.12314,0.04590
4393.05161,0.04376
4394.98007,0.04139
4396.90854,0.04202
4398.83701,0.03987
4400.76548,0.03533
4402.69395,0.03485
4404.62242,0.03732
4406.55089,0.03898
4408.47935,0.04044
4410.40782,0.04135
4412.33629,0.03884
4414.26476,0.03537
4416.19323,0.03440
4418.12170,0.02971
4420.05017,0.02188
4421.97864,0.02063
4423.90710,0.02283
4425.83557,0.02162
4427.76404,0.02126
4429.69251,0.02333
4431.62098,0.02534
4433.54945,0.03130
4435.47792,0.04173
4437.40638,0.04843
4439.33485,0.04295
4441.26332,0.03106
4443.19179,0.02524
4445.12026,0.02222
4447.04873,0.01955
4448.97720,0.02304
4450.90567,0.03140
4452.83413,0.03998
4454.76260,0.04279
4456.69107,0.03651
4458.61954,0.02858
4460.54801,0.02922
4462.47648,0.03557
4464.40495,0.03720
4466.33341,0.03551
4468.26188,0.03518
4470.19035,0.03187
4472.11882,0.02570
4474.04729,0.02074
4475.97576,0.01851
4477.90423,0.01907
4479.83270,0.01808
4481.76116,0.01654
4483.68963,0.01910
4485.61810,0.02120
4487.54657,0.01840
4489.47504,0.01699
4491.40351,0.02001
4493.33198,0.02057
4495.26044,0.02009
4497.18891,0.02357
4499.11738,0.02846
4501.04585,0.03208
4502.97432,0.03265
4504.90279,0.03172
4506.83126,0.03099
4508.75973,0.02936
4510.68819,0.02548
4512.61666,0.01567
4514.54513,0.00941
4516.47360,0.01984
4518.40207,0.02917
4520.33054,0.02175
4522.25901,0.01537
4524.18747,0.01835
4526.11594,0.02117
4528.04441,0.02378
4529.97288,0.02570
4531.90135,0.02416
4533.82982,0.02377
4535.75829,0.02418
4537.68676,0.01935
4539.61522,0.01143
4541.54369,0.00573
4543.47216,0.00291
4545.40063,0.00516
4547.32910,0.01392
4549.25757,0.02341
4551.18604,0.02655
4553.11450,0.02232
4555.04297,0.01827
4556.97144,0.01793
4558.89991,0.01390
4560.82838,0.00810
4562.75685,0.01128
4564.68532,0.01825
4566.61378,0.01575
4568.54225,0.01056
4570.47072,0.00995
4572.39919,0.00453
4574.32766,-0.00074
4576.25613,0.00257
4578.18460,0.00502
4580.11307,0.00505
4582.04153,0.00664
4583.97000,0.00801
4585.89847,0.00932
4587.82694,0.00532
4589.75541,-0.00176
4591.68388,0.00332
4593.61235,0.01633
4595.54081,0.02022
4597.46928,0.01564
4599.39775,0.01018
4601.32622,0.00519
4603.25469,0.00542
4605.18316,0.01107
4607.11163,0.01416
4609.04010,0.01748
4610.96856,0.02185
4612.89703,0.01947
4614.82550,0.01375
4616.75397,0.01172
4618.68244,0.01361
4620.61091,0.01582
4622.53938,0.01364
4624.46784,0.00852
4626.39631,0.00404
4628.32478,-0.00188
4630.25325,-0.00952
4632.18172,-0.01236
4634.11019,-0.00800
4636.03866,-0.00243
4637.96713,-0.00040
4639.89559,-0.00365
4641.82406,-0.00573
4643.75253,0.00291
4645.68100,0.01887
4647.60947,0.03072
4649.53794,0.02928
4651.46641,0.01970
4653.39487,0.01740
4655.32334,0.02395
4657.25181,0.02677
4659.18028,0.01885
4661.10875,0.00598
4663.03722,-0.00130
4664.96569,0.00338
4666.89416,0.01300
4668.82262,0.01354
4670.75109,0.00527
4672.67956,-0.00053
4674.60803,0.00274
4676.53650,0.01037
4678.46497,0.00982
4680.39344,0.00153
4682.32190,-0.00083
4684.25037,0.00561
4686.17884,0.00939
4688.10731,0.00420
4690.03578,0.00214
4691.96425,0.01051
4693.89272,0.01678
4695.82119,0.01264
4697.74965,0.00448
4699.67812,-0.00006
4701.60659,-0.00305
4703.53506,-0.00449
4705.46353,0.00051
4707.39200,0.00549
4709.32047,0.00924
4711.24893,0.01660
4713.17740,0.02249
4715.10587,0.02336
4717.03434,0.01509
4718.96281,0.00010
4720.89128,-0.00737
4722.81975,-0.00511
4724.74821,0.00437
4726.67668,0.02046
4728.60515,0.03202
4730.53362,0.03092
4732.46209,0.01772
4734.39056,0.00475
4736.31903,0.00556
4738.24750,0.00940
4740.17596,0.00538
4742.10443,0.00163
4744.03290,-0.00001
4745.96137,-0.00293
4747.88984,-0.00314
4749.81831,0.00305
4751.74678,0.01299
4753.67524,0.01980
4755.60371,0.02532
4757.53218,0.03134
4759.46065,0.02906
4761.38912,0.02163
4763.31759,0.01781
4765.24606,0.01410
4767.17453,0.00717
4769.10299,0.00456
4771.03146,0.01338
4772.95993,0.02223
4774.88840,0.01674
4776.81687,0.00518
4778.74534,-0.00029
4780.67381,-0.00353
4782.60227,-0.00502
4784.53074,0.00634
4786.45921,0.02676
4788.38768,0.03642
4790.31615,0.02975
4792.24462,0.01349
4794.17309,-0.00166
4796.10156,-0.00403
4798.03002,-0.00689
4799.95849,-0.01810
4801.88696,-0.01789
4803.81543,-0.00107
4805.74390,0.01503
4807.67237,0.02285
4809.60084,0.02556
4811.52930,0.01869
4813.45777,0.00336
4815.38624,-0.00503
4817.31471,0.00693
4819.24318,0.02564
4821.17165,0.02576
4823.10012,0.01653
4825.02859,0.01939
4826.95705,0.02608
4828.88552,0.02024
4830.81399,0.01079
4832.74246,0.01399
4834.67093,0.02624
4836.59940,0.02969
4838.52787,0.01412
4840.45633,-0.00241
4842.38480,-0.00068
4844.31327,0.00726
4846.24174,0.00502
4848.17021,-0.00347
4850.09868,-0.00458
4852.02715,0.00521
4853.95562,0.01232
4855.88408,0.00819
4857.81255,0.00291
4859.74102,0.00591
4861.66949,0.01104
4863.59796,0.01039
4865.52643,0.01391
4867.45490,0.02484
4869.38336,0.03071
4871.31183,0.03147
4873.24030,0.02422
4875.16877,0.00809
4877.09724,-0.00176
4879.02571,-0.00333
4880.95418,-0.00446
4882.88265,-0.00155
4884.81111,0.00674
4886.73958,0.00835
4888.66805,-0.00020
4890.59652,-0.01055
4892.52499,-0.01026
4894.45346,0.00395
4896.38193,0.01329
4898.31039,0.01192
4900.23886,0.01184
4902.16733,0.01288
4904.09580,0.01063
4906.02427,0.00233
4907.95274,-0.00866
4909.88121,-0.01103
4911.80967,-0.00606
4913.73814,-0.00079
4915.66661,0.00441
4917.59508,0.00378
4919.52355,0.00086
4921.45202,0.00776
4923.38049,0.01619
4925.30896,0.01320
4927.23742,0.00498
4929.16589,0.00027
4931.09436,-0.00201
4933.02283,0.00213
4934.95130,0.01570
4936.87977,0.02338
4938.80824,0.01648
4940.73670,0.01219
4942.66517,0.01746
4944.59364,0.01406
4946.52211,-0.00183
4948.45058,-0.01471
4950.37905,-0.01783
4952.30752,-0.01344
4954.23599,-0.00535
4956.16445,0.00412
4958.09292,0.01002
4960.02139,0.01209
4961.94986,0.02393
4963.87833,0.04310
4965.80680,0.04935
4967.73527,0.03933
4969.66373,0.02380
4971.59220,0.01027
4973.52067,0.00031
4975.44914,-0.00448
4977.37761,-0.00364
4979.30608,-0.00093
4981.23455,0.00314
4983.16302,0.00869
4985.09148,0.01705
4987.01995,0.02671
4988.94842,0.02720
4990.87689,0.01726
4992.80536,0.00732
4994.73383,0.00262
4996.66230,0.00345
4998.59076,0.00662
5000.51923,0.00166
5002.44770,-0.01188
5004.37617,-0.01064
5006.30464,0.01591
5008.23311,0.03899
5010.16158,0.03946
5012.09005,0.03037
5014.01851,0.01919
5015.94698,0.01240
5017.87545,0.01769
5019.80392,0.02632
5021.73239,0.03044
5023.66086,0.02603
5025.58933,0.01711
5027.51779,0.01250
5029.44626,0.01332
5031.37473,0.02251
5033.30320,0.03011
5035.23167,0.01966
5037.16014,0.00747
5039.08861,0.02053
5041.01708,0.04421
5042.94554,0.04861
5044.87401,0.04318
5046.80248,0.04570
5048.73095,0.04698
5050.65942,0.03578
5052.58789,0.02526
5054.51636,0.03372
5056.44482,0.04360
5058.37329,0.02896
5060.30176,0.01116
5062.23023,0.01082
5064.15870,0.01017
5066.08717,0.01060
5068.01564,0.01988
5069.94410,0.02435
5071.87257,0.02396
5073.80104,0.02412
5075.72951,0.02004
5077.65798,0.01087
5079.58645,0.00325
5081.51492,0.00358
5083.44339,0.01269
5085.37185,0.02432
5087.30032,0.02819
5089.22879,0.02672
5091.15726,0.03077
5093.08573,0.03587
5095.01420,0.03001
5096.94267,0.02656
5098.87113,0.04082
5100.79960,0.04399
5102.72807,0.02366
5104.65654,0.01521
5106.58501,0.03106
5108.51348,0.04412
5110.44195,0.03318
5112.37042,0.01158
5114.29888,0.00804
5116.22735,0.02423
5118.15582,0.03603
5120.08429,0.03112
5122.01276,0.01579
5123.94123,0.00075
5125.86970,-0.00115
5127.79816,0.00715
5129.72663,0.01540
5131.65510,0.02653
5133.58357,0.03706
5135.51204,0.03525
5137.44051,0.01881
5139.36898,0.00835
5141.29745,0.01673
5143.22591,0.02063
5145.15438,0.02028
5147.08285,0.03648
5149.01132,0.04872
5150.93979,0.04082
5152.86826,0.03457
5154.79673,0.04275
5156.72519,0.05438
5158.65366,0.05220
5160.58213,0.03033
5162.51060,0.01197
5164.43907,0.02434
5166.36754,0.05288
5168.29601,0.06934
5170.22448,0.05983
5172.15294,0.03515
5174.08141,0.02472
5176.00988,0.02392
5177.93835,0.02005
5179.86682,0.01976
5181.79529,0.01378
5183.72376,0.01098
5185.65222,0.03220
5187.58069,0.04821
5189.50916,0.04666
5191.43763,0.05149
5193.36610,0.05156
5195.29457,0.04024
5197.22304,0.04300
5199.15151,0.04943
5201.07997,0.03905
5203.00844,0.03021
5204.93691,0.03332
5206.86538,0.04467
5208.79385,0.05362
5210.72232,0.04934
5212.65079,0.03725
5214.57925,0.02087
5216.50772,0.00543
5218.43619,0.00122
5220.36466,0.01065
5222.29313,0.02127
5224.22160,0.01570
5226.15007,0.00742
5228.07854,0.02342
5230.00700,0.03953
5231.93547,0.03334
5233.86394,0.03629
5235.79241,0.06067
5237.72088,0.07457
5239.64935,0.06477
5241.57782,0.04463
5243.50628,0.03079
5245.43475,0.03056
5247.36322,0.03805
5249.29169,0.04716
5251.22016,0.05016
5253.14863,0.05075
5255.07710,0.06511
5257.00556,0.07862
5258.93403,0.06746
5260.86250,0.05130
5262.79097,0.04868
5264.71944,0.04442
5266.64791,0.03809
5268.57638,0.03638
5270.50485,0.03402
5272.43331,0.04034
5274.36178,0.06011
5276.29025,0.07377
5278.21872,0.06401
5280.14719,0.04698
5282.07566,0.05035
5284.00413,0.06190
5285.93259,0.05945
5287.86106,0.05825
5289.78953,0.08596
5291.71800,0.12480
5293.64647,0.11856
5295.57494,0.07461
5297.50341,0.04544
5299.43188,0.05318
5301.36034,0.07686
5303.28881,0.08381
5305.21728,0.06770
5307.14575,0.04460
5309.07422,0.03644
5311.00269,0.04775
5312.93116,0.05730
5314.85962,0.06076
5316.78809,0.05842
5318.71656,0.04094
5320.64503,0.02973
5322.57350,0.04073
5324.50197,0.05947
5326.43044,0.06681
5328.35891,0.04896
5330.28737,0.04052
5332.21584,0.06660
5334.14431,0.08689
5336.07278,0.08518
5338.00125,0.07365
5339.92972,0.05275
5341.85819,0.04629
5343.78665,0.06332
5345.71512,0.07183
5347.64359,0.06029
5349.57206,0.06157
5351.50053,0.09248
5353.42900,0.11937
5355.35747,0.10817
5357.28594,0.08203
5359.21440,0.05664
5361.14287,0.03792
5363.07134,0.03935
5364.99981,0.05391
5366.92828,0.06641
5368.85675,0.07402
5370.78522,0.07333
5372.71368,0.06129
5374.64215,0.04605
5376.57062,0.03504
5378.49909,0.02072
5380.42756,0.00704
5382.35603,0.01294
5384.28450,0.04028
5386.21297,0.06039
5388.14143,0.05289
5390.06990,0.03516
5391.99837,0.02549
5393.92684,0.02517
5395.85531,0.03463
5397.78378,0.05909
5399.71225,0.07979
5401.64071,0.07121
5403.56918,0.04812
5405.49765,0.04298
5407.42612,0.06542
5409.35459,0.09433
5411.28306,0.08927
5413.21153,0.05499
5415.13999,0.04529
5417.06846,0.06989
5418.99693,0.09746
5420.92540,0.10085
5422.85387,0.08367
5424.78234,0.06665
5426.71081,0.05073
5428.63928,0.03818
5430.56774,0.05459
5432.49621,0.08914
5434.42468,0.10123
5436.35315,0.08705
5438.28162,0.07330
5440.21009,0.06408
5442.13856,0.05202
5444.06702,0.03686
5445.99549,0.01392
5447.92396,-0.00617
5449.85243,0.00267
5451.78090,0.02756
5453.70937,0.04174
5455.63784,0.05164
5457.56631,0.06279
5459.49477,0.05451
5461.42324,0.03838
5463.35171,0.03545
5465.28018,0.03185
5467.20865,0.03465
5469.13712,0.05199
5471.06559,0.06043
5472.99405,0.05381
5474.92252,0.04275
5476.85099,0.03272
5478.77946,0.03269
5480.70793,0.04946
5482.63640,0.07050
5484.56487,0.07933
5486.49334,0.08033
5488.42180,0.08236
5490.35027,0.07196
5492.27874,0.04642
5494.20721,0.03517
5496.13568,0.03419
5498.06415,0.03508
5499.99262,0.05873
5501.92108,0.09136
5503.84955,0.10791
5505.77802,0.11988
5507.70649,0.13234
5509.63496,0.11944
5511.56343,0.07820
5513.49190,0.05392
5515.42037,0.05918
5517.34883,0.06348
5519.27730,0.06658
5521.20577,0.06792
5523.13424,0.07321
5525.06271,0.09982
5526.99118,0.11576
5528.91965,0.10300
5530.84811,0.09635
5532.77658,0.09246
5534.70505,0.06293
5536.63352,0.03007
5538.56199,0.02875
5540.49046,0.04535
5542.41893,0.04566
5544.34740,0.03484
5546.27586,0.04338
5548.20433,0.06178
5550.13280,0.06154
5552.06127,0.04979
5553.98974,0.04461
5555.91821,0.05174
5557.84668,0.07159
5559.77514,0.08714
5561.70361,0.08612
5563.63208,0.08332
5565.56055,0.09021
5567.48902,0.08641
5569.41749,0.05395
5571.34596,0.03239
5573.27443,0.04760
5575.20289,0.06705
5577.13136,0.08043
5579.05983,0.09082
5580.98830,0.08926
5582.91677,0.07222
5584.84524,0.05835
5586.77371,0.08299
5588.70217,0.11618
5590.63064,0.09115
5592.55911,0.03557
5594.48758,0.02341
5596.41605,0.05397
5598.34452,0.07725
5600.27299,0.08373
5602.20145,0.08397
5604.12992,0.08406
5606.05839,0.08857
5607.98686,0.07349
5609.91533,0.03677
5611.84380,0.01940
5613.77227,0.03505
5615.70074,0.06971
5617.62920,0.10503
5619.55767,0.11718
5621.48614,0.10667
5623.41461,0.09149
5625.34308,0.08802
5627.27155,0.10104
5629.20002,0.10646
5631.12848,0.08883
5633.05695,0.06323
5634.98542,0.04877
5636.91389,0.04759
5638.84236,0.04797
5640.77083,0.04723
5642.69930,0.05412
5644.62777,0.06874
5646.55623,0.08419
5648.48470,0.10129
5650.41317,0.10416
5652.34164,0.07386
5654.27011,0.04111
5656.19858,0.03689
5658.12705,0.05493
5660.05551,0.08752
5661.98398,0.12065
5663.91245,0.12907
5665.84092,0.09895
5667.76939,0.05804
5669.69786,0.04537
5671.62633,0.05177
5673.55480,0.06468
5675.48326,0.08031
5677.41173,0.08361
5679.34020,0.08686
5681.26867,0.10059
5683.19714,0.11151
5685.12561,0.10789
5687.05408,0.10013
5688.98254,0.09849
5690.91101,0.08705
5692.83948,0.06915
5694.76795,0.06915
5696.69642,0.09538
5698.62489,0.12973
5700.55336,0.13566
5702.48183,0.10357
5704.41029,0.06536
5706.33876,0.04389
5708.26723,0.03427
5710.19570,0.04364
5712.12417,0.08177
5714.05264,0.11531
5715.98111,0.11048
5717.90957,0.09314
5719.83804,0.09255
5721.76651,0.09248
5723.69498,0.09698
5725.62345,0.12888
5727.55192,0.15758
5729.48039,0.15032
5731.40886,0.12755
5733.33732,0.10232
5735.26579,0.07457
5737.19426,0.06368
5739.12273,0.06687
5741.05120,0.06165
5742.97967,0.06108
5744.90814,0.06400
5746.83660,0.06754
5748.76507,0.08681
5750.69354,0.09706
5752.62201,0.10700
5754.55048,0.14116
5756.47895,0.14977
5758.40742,0.10967
5760.33588,0.06394
5762.26435,0.05524
5764.19282,0.05441
5766.12129,0.01810
5768.04976,-0.01599
5769.97823,-0.00593
5771.90670,0.03583
5773.83517,0.05678
5775.76363,0.04096
5777.69210,0.04516
5779.62057,0.08605
5781.54904,0.10483
5783.47751,0.08226
5785.40598,0.07321
5787.33445,0.11558
5789.26291,0.16483
5791.19138,0.16057
5793.11985,0.10445
5795.04832,0.04556
5796.97679,0.01768
5798.90526,0.01930
5800.83373,0.02826
5802.76220,0.03628
5804.69066,0.05952
5806.61913,0.07225
5808.54760,0.05686
5810.47607,0.06092
5812.40454,0.08780
5814.33301,0.09610
5816.26148,0.08774
5818.18994,0.09088
5820.11841,0.11864
5822.04688,0.14009
5823.97535,0.11976
5825.90382,0.08382
5827.83229,0.06672
5829.76076,0.06984
5831.68923,0.08335
5833.61769,0.09158
5835.54616,0.08908
5837.47463,0.09490
5839.40310,0.10986
5841.33157,0.10097
5843.26004,0.06603
5845.18851,0.05636
5847.11697,0.09926
5849.04544,0.15779
5850.97391,0.17152
5852.90238,0.13382
5854.83085,0.09918
5856.75932,0.10247
5858.68779,0.12689
5860.61626,0.15547
5862.54472,0.14542
5864.47319,0.08646
5866.40166,0.05084
5868.33013,0.04784
5870.25860,0.03764
5872.18707,0.02847
5874.11554,0.03930
5876.04400,0.05742
5877.97247,0.06062
5879.90094,0.06577
5881.82941,0.09107
5883.75788,0.11167
5885.68635,0.10707
5887.61482,0.08887
5889.54329,0.06467
5891.47175,0.04222
5893.40022,0.03409
5895.32869,0.03393
5897.25716,0.04041
5899.18563,0.05252
5901.11410,0.04012
5903.04257,0.00014
5904.97103,-0.01408
5906.89950,0.01463
5908.82797,0.05462
5910.75644,0.07590
5912.68491,0.07085
5914.61338,0.05738
5916.54185,0.06272
5918.47032,0.09660
5920.39878,0.12927
5922.32725,0.12035
5924.25572,0.07656
5926.18419,0.04143
5928.11266,0.04258
5930.04113,0.06524
5931.96960,0.07442
5933.89806,0.08296
5935.82653,0.11006
5937.75500,0.10661
5939.68347,0.09244
5941.61194,0.11815
5943.54041,0.13360
5945.46888,0.12112
5947.39734,0.11371
5949.32581,0.09665
5951.25428,0.07066
5953.18275,0.06039
5955.11122,0.05147
5957.03969,0.04146
5958.96816,0.07174
5960.89663,0.14436
5962.82509,0.18243
5964.75356,0.14599
5966.68203,0.07799
5968.61050,0.05140
5970.53897,0.07783
5972.46744,0.08226
5974.39591,0.06430
5976.32437,0.09579
5978.25284,0.14564
5980.18131,0.15215
5982.10978,0.12199
5984.03825,0.09786
5985.96672,0.10710
5987.89519,0.13240
5989.82366,0.13822
5991.75212,0.11314
5993.68059,0.08304
5995.60906,0.08317
5997.53753,0.09942
5999.46600,0.10362
6001.39447,0.09075
6003.32294,0.06428
6005.25140,0.05809
6007.17987,0.08232
6009.10834,0.11380
6011.03681,0.13529
6012.96528,0.11970
6014.89375,0.08192
6016.82222,0.08207
6018.75069,0.11722
6020.67915,0.11113
6022.60762,0.07512
6024.53609,0.07183
6026.46456,0.09207
6028.39303,0.11299
6030.32150,0.12569
6032.24997,0.12524
6034.17843,0.12120
6036.10690,0.10607
6038.03537,0.08884
6039.96384,0.10366
6041.89231,0.12551
6043.82078,0.10723
6045.74925,0.06849
6047.67772,0.05736
6049.60618,0.06467
6051.53465,0.07312
6053.46312,0.10264
6055.39159,0.12464
6057.32006,0.11546
6059.24853,0.09009
6061.17700,0.05547
6063.10546,0.05048
6065.03393,0.09565
6066.96240,0.15670
6068.89087,0.17482
6070.81934,0.12094
6072.74781,0.06680
6074.67628,0.07886
6076.60475,0.11528
6078.53321,0.13022
6080.46168,0.12974
6082.39015,0.12794
6084.31862,0.12482
6086.24709,0.12019
6088.17556,0.12046
6090.10403,0.08871
6092.03249,0.04960
6093.96096,0.07535
6095.88943,0.12221
6097.81790,0.14852
6099.74637,0.16866
6101.67484,0.15528
6103.60331,0.09912
6105.53177,0.04652
6107.46024,0.02827
6109.38871,0.04241
6111.31718,0.07263
6113.24565,0.09491
6115.17412,0.09363
6117.10259,0.06462
6119.03106,0.02870
6120.95952,0.01512
6122.88799,0.02275
6124.81646,0.04252
6126.74493,0.05108
6128.67340,0.03811
6130.60187,0.04261
6132.53034,0.09016
6134.45880,0.15638
6136.38727,0.18507
6138.31574,0.15855
6140.24421,0.11697
6142.17268,0.06941
6144.10115,0.02986
6146.02962,0.03786
6147.95809,0.07216
6149.88655,0.08392
6151.81502,0.06266
6153.74349,0.05292
6155.67196,0.06696
6157.60043,0.07432
6159.52890,0.10609
6161.45737,0.17517
6163.38583,0.20660
6165.31430,0.17262
6167.24277,0.11541
6169.17124,0.07299
6171.09971,0.06848
6173.02818,0.08381
6174.95665,0.07554
6176.88512,0.05894
6178.81358,0.08456
6180.74205,0.12754
6182.67052,0.15016
6184.59899,0.15573
6186.52746,0.13018
6188.45593,0.07816
6190.38440,0.04798
6192.31286,0.05141
6194.24133,0.07501
6196.16980,0.12049
6198.09827,0.15583
6200.02674,0.15570
6201.95521,0.12080
6203.88368,0.05602
6205.81215,0.02719
6207.74061,0.04765
6209.66908,0.06028
6211.59755,0.04464
6213.52602,0.01037
6215.45449,-0.00719
6217.38296,0.02178
6219.31143,0.05618
6221.23989,0.08347
6223.16836,0.13638
6225.09683,0.16095
6227.02530,0.13719
6228.95377,0.11449
6230.88224,0.04816
6232.81071,-0.04481
6234.73918,-0.03719
6236.66764,0.03987
6238.59611,0.07234
6240.52458,0.07999
6242.45305,0.11178
6244.38152,0.12675
6246.30999,0.12565
6248.23846,0.14721
6250.16692,0.18072
6252.09539,0.20655
6254.02386,0.21298
6255.95233,0.18182
6257.88080,0.12841
6259.80927,0.09384
6261.73774,0.07116
6263.66621,0.03888
6265.59467,0.02450
6267.52314,0.05143
6269.45161,0.08390
6271.38008,0.08184
6273.30855,0.05077
6275.23702,0.03980
6277.16549,0.06130
6279.09395,0.06064
6281.02242,0.01714
6282.95089,-0.00181
6284.87936,0.03660
6286.80783,0.05337
6288.73630,0.00698
6290.66477,-0.05252
6292.59323,-0.04474
6294.52170,0.02057
6296.45017,0.05558
6298.37864,0.04846
6300.30711,0.04745
6302.23558,0.06251
6304.16405,0.06488
6306.09252,0.04902
6308.02098,0.03138
6309.94945,0.02575
6311.87792,0.03646
6313.80639,0.04771
6315.73486,0.06563
6317.66333,0.11055
6319.59180,0.17734
6321.52026,0.24977
6323.44873,0.26466
6325.37720,0.18109
6327.30567,0.09702
6329.23414,0.10924
6331.16261,0.15899
6333.09108,0.17697
6335.01955,0.17067
6336.94801,0.13864
6338.87648,0.09160
6340.80495,0.06330
6342.73342,0.05810
6344.66189,0.05259
6346.59036,0.06495
6348.51883,0.11883
6350.44729,0.17022
6352.37576,0.17383
6354.30423,0.10984
6356.23270,0.03846
6358.16117,0.05538
6360.08964,0.09534
6362.01811,0.06641
6363.94658,0.02805
6365.87504,0.05502
6367.80351,0.13399
6369.73198,0.15377
6371.66045,0.09597
6373.58892,0.08446
6375.51739,0.14065
6377.44586,0.17886
6379.37432,0.18086
6381.30279,0.16950
6383.23126,0.12925
6385.15973,0.06036
6387.08820,0.02861
6389.01667,0.04040
6390.94514,0.07771
6392.87361,0.16177
6394.80207,0.21538
6396.73054,0.16424
6398.65901,0.09883
6400.58748,0.08035
6402.51595,0.08070
6404.44442,0.10359
6406.37289,0.15602
6408.30135,0.17063
6410.22982,0.11658
6412.15829,0.06915
6414.08676,0.11527
6416.01523,0.19951
6417.94370,0.20571
6419.87217,0.16724
6421.80064,0.19184
6423.72910,0.27061
6425.65757,0.30019
6427.58604,0.21707
6429.51451,0.09364
6431.44298,0.02666
6433.37145,0.03955
6435.29992,0.08058
6437.22838,0.12186
6439.15685,0.17366
6441.08532,0.18586
6443.01379,0.12120
6444.94226,0.05602
6446.87073,0.03291
6448.79920,0.01777
6450.72766,0.00533
6452.65613,0.02103
6454.58460,0.07882
6456.51307,0.12706
6458.44154,0.11877
6460.37001,0.08510
6462.29848,0.05938
6464.22695,0.07269
6466.15541,0.10315
6468.08388,0.08746
6470.01235,0.07064
6471.94082,0.08338
6473.86929,0.06503
6475.79776,0.03687
6477.72623,0.02602
6479.65469,0.02601
6481.58316,0.03341
6483.51163,0.01972
6485.44010,0.01005
6487.36857,0.03424
6489.29704,0.06148
6491.22551,0.07809
6493.15398,0.09671
6495.08244,0.12073
6497.01091,0.18376
6498.93938,0.25227
6500.86785,0.20866
6502.79632,0.08653
6504.72479,0.01822
6506.65326,0.00293
6508.58172,0.03058
6510.51019,0.07912
6512.43866,0.07421
6514.36713,0.04534
6516.29560,0.02395
6518.22407,-0.00520
6520.15254,-0.00252
6522.08101,0.03130
6524.00947,0.07853
6525.93794,0.10122
6527.86641,0.05900
6529.79488,0.05510
6531.72335,0.14595
6533.65182,0.19800
6535.58029,0.14077
6537.50875,0.06557
6539.43722,0.02955
6541.36569,0.01157
6543.29416,0.02158
6545.22263,0.09158
6547.15110,0.17299
6549.07957,0.18603
6551.00804,0.13146
6552.93650,0.10650
6554.86497,0.11771
6556.79344,0.05546
6558.72191,-0.04228
6560.65038,-0.01873
6562.57885,0.10872
6564.50732,0.21673
6566.43578,0.25187
6568.36425,0.25373
6570.29272,0.24313
6572.22119,0.20784
6574.14966,0.15505
6576.07813,0.08932
6578.00660,0.06577
6579.93507,0.13294
6581.86353,0.20389
6583.79200,0.15646
6585.72047,0.04889
6587.64894,0.02182
6589.57741,0.06571
6591.50588,0.10183
6593.43435,0.11575
6595.36281,0.11368
6597.29128,0.08717
6599.21975,0.05556
6601.14822,0.08001
6603.07669,0.13976
6605.00516,0.11232
6606.93363,0.00220
6608.86210,-0.03310
6610.79056,0.03396
6612.71903,0.03238
6614.64750,-0.04714
6616.57597,-0.01685
6618.50444,0.06964
6620.43291,0.02655
6622.36138,-0.07131
6624.28984,-0.09726
6626.21831,-0.06985
6628.14678,-0.01989
6630.07525,0.03706
6632.00372,0.06035
6633.93219,0.04008
6635.86066,0.03946
6637.78912,0.06567
6639.71759,0.03675
6641.64606,0.01223
6643.57453,0.05465
6645.50300,0.10870
6647.43147,0.09539
6649.35994,0.00203
6651.28841,-0.05602
6653.21687,-0.01121
6655.14534,0.11202
6657.07381,0.22087
6659.00228,0.17591
6660.93075,0.06114
6662.85922,0.00629
6664.78769,-0.05613
6666.71615,-0.14936
6668.64462,-0.15604
6670.57309,-0.06716
6672.50156,0.00693
6674.43003,0.06258
6676.35850,0.13776
6678.28697,0.16285
6680.21544,0.07753
6682.14390,-0.03440
6684.07237,-0.04168
6686.00084,0.04720
6687.92931,0.10738
6689.85778,0.10020
6691.78625,0.10083
6693.71472,0.14095
6695.64318,0.18232
6697.57165,0.14621
6699.50012,0.03697
6701.42859,-0.02149
6703.35706,0.02970
6705.28553,0.09051
6707.21400,0.07354
6709.14247,0.00496
6711.07093,-0.01110
6712.99940,0.06451
6714.92787,0.10547
6716.85634,0.03535
6718.78481,-0.02293
6720.71328,-0.01380
6722.64175,-0.01770
6724.57021,-0.01549
6726.49868,0.07618
6728.42715,0.18658
6730.35562,0.16449
6732.28409,0.09169
6734.21256,0.14537
6736.14103,0.22147
6738.06950,0.18706
6739.99796,0.14513
6741.92643,0.16663
6743.85490,0.15193
6745.78337,0.06938
6747.71184,-0.00898
6749.64031,-0.02805
6751.56878,0.02070
6753.49724,0.08843
6755.42571,0.05917
6757.35418,-0.10119
6759.28265,-0.23502
6761.21112,-0.14421
6763.13959,0.03713
6765.06806,0.09291
6766.99653,0.08013
6768.92499,0.10051
6770.85346,0.10669
6772.78193,0.04174
6774.71040,-0.07808
6776.63887,-0.15965
6778.56734,-0.12716
6780.49581,-0.02258
6782.42427,0.08421
6784.35274,0.11805
6786.28121,0.05305
6788.20968,-0.03764
6790.13815,-0.05994
6792.06662,-0.02108
6793.99509,-0.04123
6795.92355,-0.09397
6797.85202,-0.04290
6799.78049,0.06682
6801.70896,0.08838
6803.63743,0.05093
6805.56590,0.07647
6807.49437,0.15133
6809.42284,0.17057
6811.35130,0.07988
6813.27977,-0.01235
6815.20824,-0.04870
6817.13671,-0.06223
6819.06518,-0.04645
6820.99365,-0.05170
6822.92212,-0.08786
6824.85058,-0.07995
6826.77905,-0.02339
6828.70752,0.04873
6830.63599,0.08943
6832.56446,0.09911
6834.49293,0.13517
6836.42140,0.18061
6838.34987,0.19050
6840.27833,0.16654
6842.20680,0.10242
6844.13527,0.05408
6846.06374,0.05793
6847.99221,0.03753
6849.92068,-0.00159
6851.84915,0.01520
6853.77761,0.04085
6855.70608,0.04692
6857.63455,0.08040
6859.56302,0.10829
6861.49149,0.06607
6863.41996,0.00972
6865.34843,0.01744
6867.27690,0.11196
6869.20536,0.23876
6871.13383,0.25702
6873.06230,0.13653
6874.99077,0.00930
6876.91924,-0.08428
6878.84771,-0.12202
6880.77618,-0.06963
6882.70464,-0.03136
6884.63311,-0.03577
6886.56158,0.02484
6888.49005,0.17620
6890.41852,0.27358
6892.34699,0.26190
6894.27546,0.25168
6896.20393,0.19617
6898.13239,0.06562
6900.06086,0.02631
6901.98933,0.07074
6903.91780,0.10450
6905.84627,0.11223
6907.77474,0.10497
6909.70321,0.09171
6911.63167,0.05558
6913.56014,0.02541
6915.48861,0.11014
6917.41708,0.25341
6919.34555,0.23308
6921.27402,0.11469
6923.20249,0.06341
6925.13096,-0.01176
6927.05942,-0.12391
6928.98789,-0.17273
6930.91636,-0.09495
6932.84483,0.03636
6934.77330,0.11764
6936.70177,0.14675
6938.63024,0.08481
6940.55870,-0.04959
6942.48717,-0.07583
6944.41564,0.04641
6946.34411,0.23630
6948.27258,0.35969
6950.20105,0.30176
6952.12952,0.13925
6954.05799,-0.02143
6955.98645,-0.14588
6957.91492,-0.13606
6959.84339,0.00220
6961.77186,0.13581
6963.70033,0.17379
6965.62880,0.15887
6967.55727,0.18489
6969.48573,0.20238
6971.41420,0.15522
6973.34267,0.15327
6975.27114,0.17513
6977.19961,0.15117
6979.12808,0.13212
6981.05655,0.08447
6982.98501,-0.02854
6984.91348,-0.05341
6986.84195,0.06809
6988.77042,0.11771
6990.69889,0.04118
6992.62736,0.00351
6994.55583,0.05822
6996.48430,0.15900
6998.41276,0.21308
7000.34123,0.14777
7002.26970,0.04816
7004.19817,0.03577
7006.12664,0.10192
7008.05511,0.15089
7009.98358,0.14643
7011.91204,0.10397
7013.84051,0.01809
7015.76898,-0.01922
7017.69745,0.03657
7019.62592,0.09256
7021.55439,0.12573
7023.48286,0.16056
7025.41133,0.17271
7027.33979,0.14415
7029.26826,0.09904
7031.19673,0.14248
7033.12520,0.22300
7035.05367,0.19662
7036.98214,0.12425
7038.91061,0.09337
7040.83907,0.06218
7042.76754,-0.01550
7044.69601,-0.08930
7046.62448,-0.07207
7048.55295,-0.01442
7050.48142,0.01551
7052.40989,0.00941
7054.33836,-0.01622
7056.26682,0.02846
7058.19529,0.13314
7060.12376,0.16065
7062.05223,0.11906
7063.98070,0.05578
7065.90917,0.02733
7067.83764,0.08520
7069.76610,0.12678
7071.69457,-0.00882
7073.62304,-0.17073
7075.55151,-0.17507
7077.47998,-0.05296
7079.40845,0.12930
7081.33692,0.25783
7083.26539,0.23342
7085.19385,0.13267
7087.12232,0.08952
7089.05079,0.19021
7090.97926,0.27445
7092.90773,0.20326
7094.83620,0.05616
7096.76467,-0.04377
7098.69313,-0.02222
7100.62160,0.05322
7102.55007,0.10234
7104.47854,0.15040
7106.40701,0.16928
7108.33548,0.19231
7110.26395,0.25638
7112.19242,0.21126
7114.12088,0.07448
7116.04935,0.06619
7117.97782,0.13147
7119.90629,0.05534
7121.83476,0.00959
7123.76323,0.11784
7125.69170,0.19523
7127.62016,0.15358
7129.54863,0.12765
7131.47710,0.12981
7133.40557,0.07021
7135.33404,-0.02582
7137.26251,-0.10045
7139.19098,-0.19852
7141.11944,-0.31301
7143.04791,-0.32781
7144.97638,-0.19709
7146.90485,-0.02862
7148.83332,0.04093
7150.76179,0.06660
7152.69026,0.13598
7154.61873,0.18340
7156.54719,0.12391
7158.47566,0.05172
7160.40413,0.00120
7162.33260,-0.10005
7164.26107,-0.12603
7166.18954,0.01759
7168.11801,0.07722
7170.04647,-0.01876
7171.97494,-0.00356
7173.90341,0.11404
7175.83188,0.11007
7177.76035,0.03149
7179.68882,0.06670
7181.61729,0.13893
7183.54576,0.09930
7185.47422,0.08715
7187.40269,0.15529
7189.33116,0.16882
7191.25963,0.16463
7193.18810,0.27418
7195.11657,0.37263
7197.04504,0.27399
7198.97350,0.12486
7200.90197,0.09930
7202.83044,0.07786
7204.75891,-0.00932
7206.68738,-0.02516
7208.61585,-0.00870
7210.54432,-0.03711
7212.47279,-0.05384
7214.40125,-0.01655
7216.32972,0.04914
7218.25819,0.10036
7220.18666,0.09742
7222.11513,0.06624
7224.04360,0.04671
7225.97207,0.03548
7227.90053,0.03511
7229.82900,0.06180
7231.75747,0.13302
7233.68594,0.22175
7235.61441,0.16112
7237.54288,-0.00805
7239.47135,0.02112
7241.39982,0.15290
7243.32828,0.11905
7245.25675,0.07629
7247.18522,0.15908
7249.11369,0.27204
7251.04216,0.27084
7252.97063,0.09417
7254.89910,-0.05212
7256.82756,-0.04556
7258.75603,0.04877
7260.68450,0.17460
7262.61297,0.23342
7264.54144,0.12590
7266.46991,-0.01059
7268.39838,0.04626
7270.32685,0.22921
7272.25531,0.28848
7274.18378,0.18840
7276.11225,0.11211
7278.04072,0.06089
7279.96919,0.02924
7281.89766,0.14454
7283.82613,0.31486
7285.75459,0.37751
7287.68306,0.37336
7289.61153,0.29702
7291.54000,0.18979
7293.46847,0.17917
7295.39694,0.16906
7297.32541,0.11003
7299.25387,0.02819
7301.18234,-0.04760
7303.11081,-0.02997
7305.03928,0.04734
7306.96775,0.07194
7308.89622,0.09525
7310.82469,0.13213
7312.75316,0.08862
7314.68162,0.01356
7316.61009,-0.08148
7318.53856,-0.08877
7320.46703,0.08488
7322.39550,0.19268
7324.32397,0.12858
7326.25244,0.09154
7328.18090,0.15373
7330.10937,0.25473
7332.03784,0.22608
7333.96631,0.07056
7335.89478,-0.06013
7337.82325,-0.08469
7339.75172,0.07835
7341.68019,0.28594
7343.60865,0.34512
7345.53712,0.29315
7347.46559,0.15115
7349.39406,0.06977
7351.32253,0.16646
7353.25100,0.24651
7355.17947,0.06746
7357.10793,-0.18684
7359.03640,-0.07135
7360.96487,0.17108
7362.89334,0.15084
7364.82181,0.06395
7366.75028,0.02749
7368.67875,0.02073
7370.60722,0.08935
7372.53568,0.17658
7374.46415,0.16172
7376.39262,0.10389
7378.32109,0.11094
7380.24956,0.06312
7382.17803,-0.05099
7384.10650,-0.06260
7386.03496,0.09119
7387.96343,0.18410
7389.89190,0.06770
7391.82037,-0.13218
7393.74884,-0.24391
7395.67731,-0.14216
7397.60578,0.07148
7399.53425,0.25761
7401.46271,0.34913
7403.39118,0.26870
7405.31965,0.11233
7407.24812,0.04312
7409.17659,0.04444
7411.10506,0.08954
7413.03353,0.19131
7414.96199,0.28717
7416.89046,0.19689
7418.81893,-0.13831
7420.74740,-0.32260
7422.67587,-0.21758
7424.60434,-0.02209
7426.53281,0.08457
7428.46128,0.01879
7430.38974,-0.03064
7432.31821,0.00058
7434.24668,-0.02829
7436.17515,-0.00458
7438.10362,0.04634
7440.03209,0.02790
7441.96056,0.10422
7443.88902,0.22456
7445.81749,0.19192
7447.74596,0.15373
7449.67443,0.26739
7451.60290,0.34544
7453.53137,0.23523
7455.45984,0.14982
7457.38831,0.18286
7459.31677,0.20731
7461.24524,0.09958
7463.17371,0.02557
7465.10218,0.08585
7467.03065,0.15331
7468.95912,0.22406
7470.88759,0.30609
7472.81605,0.19323
7474.74452,-0.01083
7476.67299,-0.05017
7478.60146,-0.04849
7480.52993,-0.15403
7482.45840,-0.09733
7484.38687,0.06001
7486.31533,-0.01575
7488.24380,-0.14872
7490.17227,-0.01641
7492.10074,0.17998
7494.02921,0.20338
7495.95768,0.19313
7497.88615,0.24007
