399.19301,-0.49182
401.12148,-0.36751
403.04995,-0.19596
404.97842,-0.09772
406.90689,-0.06855
408.83536,-0.07036
410.76382,-0.00429
412.69229,0.06943
414.62076,0.07012
416.54923,0.05537
418.47770,0.03864
420.40617,0.11650
422.33464,0.19421
424.26311,0.11971
426.19157,0.02327
428.12004,0.03688
430.04851,0.11361
431.97698,0.16124
433.90545,0.15628
435.83392,0.08897
437.76239,0.01076
439.69085,0.00984
441.61932,0.08762
443.54779,0.18663
445.47626,0.18595
447.40473,0.08044
449.33320,0.01061
451.26167,-0.00601
453.19013,-0.02161
455.11860,-0.00931
457.04707,0.03982
458.97554,0.07316
460.90401,0.10905
462.83248,0.18628
464.76095,0.19444
466.68942,0.06850
468.61788,-0.01425
470.54635,0.04652
472.47482,0.12936
474.40329,0.11294
476.33176,0.12953
478.26023,0.17722
480.18870,0.19546
482.11716,0.22679
484.04563,0.25910
485.97410,0.24791
487.90257,0.24077
489.83104,0.22635
491.75951,0.16706
493.68798,0.11932
495.61645,0.10178
497.54491,0.08451
499.47338,0.09096
501.40185,0.11532
503.33032,0.11777
505.25879,0.09337
507.18726,0.07281
509.11573,0.09908
511.04419,0.12655
512.97266,0.09011
514.90113,0.04660
516.82960,0.07876
518.75807,0.14144
520.68654,0.18580
522.61501,0.21583
524.54348,0.19194
526.47194,0.12238
528.40041,0.09092
530.32888,0.09962
532.25735,0.10608
534.18582,0.12615
536.11429,0.14171
538.04276,0.10495
539.97122,0.06019
541.89969,0.04953
543.82816,0.06580
545.75663,0.08740
547.68510,0.10846
549.61357,0.15412
551.54204,0.29177
553.47051,0.45808
555.39897,0.42400
557.32744,0.23494
559.25591,0.13410
561.18438,0.11874
563.11285,0.12674
565.04132,0.14467
566.96979,0.13721
568.89825,0.11971
570.82672,0.11688
572.75519,0.11104
574.68366,0.10324
576.61213,0.10413
578.54060,0.09702
580.46907,0.08486
582.39754,0.08471
584.32600,0.10863
586.25447,0.14394
588.18294,0.15051
590.11141,0.12496
592.03988,0.10200
593.96835,0.10379
595.89682,0.11050
597.82528,0.10750
599.75375,0.11040
601.68222,0.12143
603.61069,0.12316
605.53916,0.10946
607.46763,0.09967
609.39610,0.11168
611.32456,0.12700
613.25303,0.13344
615.18150,0.14346
617.10997,0.14273
619.03844,0.12428
620.96691,0.10375
622.89538,0.08989
624.82385,0.09625
626.75231,0.11899
628.68078,0.13346
630.60925,0.13096
632.53772,0.13114
634.46619,0.13201
636.39466,0.11397
638.32313,0.09813
640.25159,0.10178
642.18006,0.11400
644.10853,0.11942
646.03700,0.10598
647.96547,0.09265
649.89394,0.09754
651.82241,0.11166
653.75088,0.13037
655.67934,0.13676
657.60781,0.12277
659.53628,0.11575
661.46475,0.12985
663.39322,0.14595
665.32169,0.15077
667.25016,0.14596
669.17862,0.13863
671.10709,0.14300
673.03556,0.15176
674.96403,0.15644
676.89250,0.15431
678.82097,0.14263
680.74944,0.12687
682.67791,0.12265
684.60637,0.13036
686.53484,0.13179
688.46331,0.12151
690.39178,0.12263
692.32025,0.13775
694.24872,0.13305
696.17719,0.11420
698.10565,0.11972
700.03412,0.13825
701.96259,0.13837
703.89106,0.12707
705.81953,0.12008
707.74800,0.12066
709.67647,0.13176
711.60494,0.14460
713.53340,0.14747
715.46187,0.14063
717.39034,0.13430
719.31881,0.13577
721.24728,0.14031
723.17575,0.14329
725.10422,0.14146
727.03268,0.13573
728.96115,0.13055
730.88962,0.12558
732.81809,0.12455
734.74656,0.12977
736.67503,0.13238
738.60350,0.13450
740.53197,0.14615
742.46043,0.15681
744.38890,0.15034
746.31737,0.13243
748.24584,0.12233
750.17431,0.12606
752.10278,0.13832
754.03125,0.15422
755.95971,0.16305
757.88818,0.15662
759.81665,0.13940
761.74512,0.12337
763.67359,0.12145
765.60206,0.13081
767.53053,0.13691
769.45900,0.14024
771.38746,0.14707
773.31593,0.15361
775.24440,0.15475
777.17287,0.14945
779.10134,0.13971
781.02981,0.13206
782.95828,0.13531
784.88674,0.14514
786.81521,0.14905
788.74368,0.14516
790.67215,0.14208
792.60062,0.14681
794.52909,0.15870
796.45756,0.16236
798.38602,0.14251
800.31449,0.11792
802.24296,0.11816
804.17143,0.13935
806.09990,0.15257
808.02837,0.14587
809.95684,0.13562
811.88531,0.13497
813.81377,0.14545
815.74224,0.14756
817.67071,0.12578
819.59918,0.11042
821.52765,0.12197
823.45612,0.13713
825.38459,0.14002
827.31305,0.13543
829.24152,0.13068
831.16999,0.13534
833.09846,0.14453
835.02693,0.13812
836.95540,0.12540
838.88387,0.13050
840.81234,0.13962
842.74080,0.14000
844.66927,0.14331
846.59774,0.14582
848.52621,0.14004
850.45468,0.13659
852.38315,0.14938
854.31162,0.16784
856.24008,0.16594
858.16855,0.14898
860.09702,0.13635
862.02549,0.12655
863.95396,0.12320
865.88243,0.13618
867.81090,0.14894
869.73937,0.14472
871.66783,0.13993
873.59630,0.15027
875.52477,0.16355
877.45324,0.16627
879.38171,0.16324
881.31018,0.16440
883.23865,0.16455
885.16711,0.15605
887.09558,0.14565
889.02405,0.13465
890.95252,0.12636
892.88099,0.13369
894.80946,0.14989
896.73793,0.15725
898.66640,0.15708
900.59486,0.16088
902.52333,0.16852
904.45180,0.17156
906.38027,0.16783
908.30874,0.16338
910.23721,0.15719
912.16568,0.14328
914.09414,0.13328
916.02261,0.13419
917.95108,0.13723
919.87955,0.14539
921.80802,0.15799
923.73649,0.16138
925.66496,0.15506
927.59343,0.14724
929.52189,0.14229
931.45036,0.14289
933.37883,0.14500
935.30730,0.14402
937.23577,0.14054
939.16424,0.13540
941.09271,0.13294
943.02117,0.13498
944.94964,0.13787
946.87811,0.13884
948.80658,0.13696
950.73505,0.13642
952.66352,0.14061
954.59199,0.14302
956.52045,0.13881
958.44892,0.13563
960.37739,0.14115
962.30586,0.15233
964.23433,0.15737
966.16280,0.15383
968.09127,0.15098
970.01974,0.14812
971.94820,0.14563
973.87667,0.14879
975.80514,0.14907
977.73361,0.14261
979.66208,0.14099
981.59055,0.14703
983.51902,0.15304
985.44748,0.15666
987.37595,0.15786
989.30442,0.15459
991.23289,0.14818
993.16136,0.14674
995.08983,0.15513
997.01830,0.16261
998.94677,0.15603
1000.87523,0.13929
1002.80370,0.12563
1004.73217,0.12677
1006.66064,0.14314
1008.58911,0.15751
1010.51758,0.16209
1012.44605,0.16669
1014.37451,0.17194
1016.30298,0.17130
1018.23145,0.16777
1020.15992,0.16730
1022.08839,0.16787
1024.01686,0.16445
1025.94533,0.15164
1027.87380,0.13248
1029.80226,0.12308
1031.73073,0.12618
1033.65920,0.13378
1035.58767,0.14391
1037.51614,0.14926
1039.44461,0.15115
1041.37308,0.15695
1043.30154,0.15915
1045.23001,0.15688
1047.15848,0.15595
1049.08695,0.15610
1051.01542,0.15925
1052.94389,0.16475
1054.87236,0.16868
1056.80083,0.16849
1058.72929,0.16240
1060.65776,0.15338
1062.58623,0.14912
1064.51470,0.15220
1066.44317,0.15853
1068.37164,0.16713
1070.30011,0.17771
1072.22857,0.18271
1074.15704,0.17409
1076.08551,0.16055
1078.01398,0.15975
1079.94245,0.16971
1081.87092,0.17101
1083.79939,0.15726
1085.72786,0.14335
1087.65632,0.14149
1089.58479,0.14729
1091.51326,0.15506
1093.44173,0.16290
1095.37020,0.16242
1097.29867,0.15359
1099.22714,0.14981
1101.15560,0.14715
1103.08407,0.14071
1105.01254,0.14720
1106.94101,0.16676
1108.86948,0.17915
1110.79795,0.18036
1112.72642,0.18097
1114.65489,0.18520
1116.58335,0.18431
1118.51182,0.17291
1120.44029,0.16286
1122.36876,0.16079
1124.29723,0.16183
1126.22570,0.16282
1128.15417,0.15993
1130.08263,0.15422
1132.01110,0.15169
1133.93957,0.15276
1135.86804,0.15121
1137.79651,0.14450
1139.72498,0.14181
1141.65345,0.14945
1143.58191,0.15971
1145.51038,0.16588
1147.43885,0.17002
1149.36732,0.17358
1151.29579,0.17855
1153.22426,0.18377
1155.15273,0.18190
1157.08120,0.17431
1159.00966,0.16715
1160.93813,0.16080
1162.86660,0.15636
1164.79507,0.15471
1166.72354,0.15391
1168.65201,0.15428
1170.58048,0.15948
1172.50894,0.16769
1174.43741,0.17040
1176.36588,0.16798
1178.29435,0.16633
1180.22282,0.16523
1182.15129,0.16193
1184.07976,0.15533
1186.00823,0.15021
1187.93669,0.15201
1189.86516,0.15907
1191.79363,0.16486
1193.72210,0.16615
1195.65057,0.16573
1197.57904,0.16473
1199.50751,0.16321
1201.43597,0.16196
1203.36444,0.16212
1205.29291,0.16494
1207.22138,0.16710
1209.14985,0.16754
1211.07832,0.16951
1213.00679,0.16883
1214.93526,0.16344
1216.86372,0.16083
1218.79219,0.16223
1220.72066,0.16405
1222.64913,0.16567
1224.57760,0.16733
1226.50607,0.16871
1228.43454,0.16798
1230.36300,0.16513
1232.29147,0.16370
1234.21994,0.16710
1236.14841,0.17141
1238.07688,0.17208
1240.00535,0.17142
1241.93382,0.16922
1243.86229,0.16511
1245.79075,0.16322
1247.71922,0.16430
1249.64769,0.16553
1251.57616,0.16462
1253.50463,0.16225
1255.43310,0.16076
1257.36157,0.15940
1259.29003,0.15843
1261.21850,0.16200
1263.14697,0.16969
1265.07544,0.17515
1267.00391,0.17549
1268.93238,0.17169
1270.86085,0.16658
1272.78932,0.16470
1274.71778,0.16385
1276.64625,0.16267
1278.57472,0.16577
1280.50319,0.16904
1282.43166,0.16770
1284.36013,0.16488
1286.28860,0.16220
1288.21706,0.16229
1290.14553,0.16623
1292.07400,0.16904
1294.00247,0.16883
1295.93094,0.16628
1297.85941,0.16281
1299.78788,0.15844
1301.71634,0.14768
1303.64481,0.13521
1305.57328,0.13634
1307.50175,0.15004
1309.43022,0.16078
1311.35869,0.16525
1313.28716,0.17007
1315.21563,0.17458
1317.14409,0.17568
1319.07256,0.17524
1321.00103,0.17478
1322.92950,0.17201
1324.85797,0.16636
1326.78644,0.16334
1328.71491,0.16648
1330.64337,0.17041
1332.57184,0.17109
1334.50031,0.16877
1336.42878,0.16593
1338.35725,0.16820
1340.28572,0.17228
1342.21419,0.17867
1344.14266,0.19247
1346.07112,0.19844
1347.99959,0.18444
1349.92806,0.16539
1351.85653,0.16028
1353.78500,0.16534
1355.71347,0.16852
1357.64194,0.17033
1359.57040,0.17436
1361.49887,0.17889
1363.42734,0.17876
1365.35581,0.17687
1367.28428,0.17822
1369.21275,0.17957
1371.14122,0.18085
1373.06969,0.18383
1374.99815,0.18430
1376.92662,0.17992
1378.85509,0.17558
1380.78356,0.17543
1382.71203,0.18023
1384.64050,0.18665
1386.56897,0.18794
1388.49743,0.18267
1390.42590,0.18123
1392.35437,0.18729
1394.28284,0.19412
1396.21131,0.19703
1398.13978,0.19345
1400.06825,0.18186
1401.99672,0.17427
1403.92518,0.17512
1405.85365,0.17658
1407.78212,0.17871
1409.71059,0.18361
1411.63906,0.18418
1413.56753,0.18148
1415.49600,0.18517
1417.42446,0.19511
1419.35293,0.19886
1421.28140,0.19303
1423.20987,0.18791
1425.13834,0.18496
1427.06681,0.18548
1428.99528,0.18934
1430.92375,0.19089
1432.85221,0.19059
1434.78068,0.19226
1436.70915,0.18912
1438.63762,0.18004
1440.56609,0.17666
1442.49456,0.17854
1444.42303,0.18352
1446.35149,0.19144
1448.27996,0.19504
1450.20843,0.19120
1452.13690,0.19195
1454.06537,0.20443
1455.99384,0.22586
1457.92231,0.23119
1459.85077,0.20984
1461.77924,0.19582
1463.70771,0.19483
1465.63618,0.19747
1467.56465,0.19685
1469.49312,0.19992
1471.42159,0.21143
1473.35006,0.21994
1475.27852,0.20984
1477.20699,0.19548
1479.13546,0.18817
1481.06393,0.18626
1482.99240,0.18643
1484.92087,0.19106
1486.84934,0.20313
1488.77780,0.21352
1490.70627,0.20436
1492.63474,0.19170
1494.56321,0.19267
1496.49168,0.20144
1498.42015,0.20101
1500.34862,0.18910
1502.27709,0.18033
1504.20555,0.18594
1506.13402,0.21284
1508.06249,0.22766
1509.99096,0.21531
1511.91943,0.20606
1513.84790,0.20201
1515.77637,0.20677
1517.70483,0.21903
1519.63330,0.22750
1521.56177,0.22993
1523.49024,0.22430
1525.41871,0.21479
1527.34718,0.20504
1529.27565,0.19917
1531.20412,0.20287
1533.13258,0.20990
1535.06105,0.20848
1536.98952,0.21259
1538.91799,0.23647
1540.84646,0.25526
1542.77493,0.23470
1544.70340,0.21163
1546.63186,0.19703
1548.56033,0.19235
1550.48880,0.19506
1552.41727,0.19815
1554.34574,0.20208
1556.27421,0.21656
1558.20268,0.24567
1560.13115,0.23843
1562.05961,0.21336
1563.98808,0.20291
1565.91655,0.19907
1567.84502,0.19895
1569.77349,0.19725
1571.70196,0.19286
1573.63043,0.19690
1575.55889,0.20735
1577.48736,0.20425
1579.41583,0.19134
1581.34430,0.18245
1583.27277,0.17786
1585.20124,0.17670
1587.12971,0.17754
1589.05818,0.17856
1590.98664,0.17882
1592.91511,0.17961
1594.84358,0.18169
1596.77205,0.18153
1598.70052,0.17877
1600.62899,0.17726
1602.55746,0.17843
1604.48592,0.18086
1606.41439,0.18440
1608.34286,0.18843
1610.27133,0.18769
1612.19980,0.18385
1614.12827,0.18570
1616.05674,0.19321
1617.98521,0.19716
1619.91367,0.19961
1621.84214,0.20434
1623.77061,0.20418
1625.69908,0.19880
1627.62755,0.19627
1629.55602,0.19741
1631.48449,0.20207
1633.41295,0.21192
1635.34142,0.22409
1637.26989,0.21894
1639.19836,0.20255
1641.12683,0.19093
1643.05530,0.18822
1644.98377,0.19947
1646.91223,0.22132
1648.84070,0.22761
1650.76917,0.23053
1652.69764,0.24476
1654.62611,0.23309
1656.55458,0.21044
1658.48305,0.20397
1660.41152,0.21026
1662.33998,0.21785
1664.26845,0.21629
1666.19692,0.21489
1668.12539,0.22107
1670.05386,0.22402
1671.98233,0.21614
1673.91080,0.21042
1675.83926,0.20864
1677.76773,0.20959
1679.69620,0.21383
1681.62467,0.21999
1683.55314,0.22616
1685.48161,0.22130
1687.41008,0.21131
1689.33855,0.20490
1691.26701,0.20026
1693.19548,0.20070
1695.12395,0.21187
1697.05242,0.22660
1698.98089,0.23179
1700.90936,0.22840
1702.83783,0.22088
1704.76629,0.21488
1706.69476,0.20664
1708.62323,0.19569
1710.55170,0.19067
1712.48017,0.19564
1714.40864,0.20844
1716.33711,0.22127
1718.26558,0.21728
1720.19404,0.20512
1722.12251,0.19994
1724.05098,0.19839
1725.97945,0.19683
1727.90792,0.19705
1729.83639,0.20011
1731.76486,0.20514
1733.69332,0.20656
1735.62179,0.20131
1737.55026,0.20265
1739.47873,0.21009
1741.40720,0.21167
1743.33567,0.20542
1745.26414,0.20139
1747.19261,0.20587
1749.12107,0.21408
1751.04954,0.20961
1752.97801,0.19466
1754.90648,0.18632
1756.83495,0.18771
1758.76342,0.19257
1760.69189,0.19612
1762.62035,0.19650
1764.54882,0.19500
1766.47729,0.19576
1768.40576,0.19870
1770.33423,0.20425
1772.26270,0.21066
1774.19117,0.20814
1776.11964,0.19976
1778.04810,0.19405
1779.97657,0.19233
1781.90504,0.19056
1783.83351,0.18784
1785.76198,0.18620
1787.69045,0.18836
1789.61892,0.19639
1791.54738,0.20573
1793.47585,0.20589
1795.40432,0.19862
1797.33279,0.19409
1799.26126,0.19631
1801.18973,0.19821
1803.11820,0.19463
1805.04666,0.19146
1806.97513,0.18954
1808.90360,0.18728
1810.83207,0.18625
1812.76054,0.18613
1814.68901,0.18762
1816.61748,0.18682
1818.54595,0.16952
1820.47441,0.14897
1822.40288,0.15983
1824.33135,0.18882
1826.25982,0.19960
1828.18829,0.20121
1830.11676,0.20159
1832.04523,0.19384
1833.97369,0.18766
1835.90216,0.18853
1837.83063,0.19247
1839.75910,0.19518
1841.68757,0.19893
1843.61604,0.20295
1845.54451,0.20216
1847.47298,0.19981
1849.40144,0.19715
1851.32991,0.19272
1853.25838,0.18838
1855.18685,0.18515
1857.11532,0.18382
1859.04379,0.18467
1860.97226,0.18622
1862.90072,0.18928
1864.82919,0.19397
1866.75766,0.19832
1868.68613,0.19959
1870.61460,0.19567
1872.54307,0.19157
1874.47154,0.19173
1876.40001,0.19324
1878.32847,0.19231
1880.25694,0.19183
1882.18541,0.19293
1884.11388,0.19181
1886.04235,0.18958
1887.97082,0.19004
1889.89929,0.19208
1891.82775,0.19328
1893.75622,0.19359
1895.68469,0.19214
1897.61316,0.18867
1899.54163,0.18528
1901.47010,0.18472
1903.39857,0.18657
1905.32704,0.18840
1907.25550,0.19152
1909.18397,0.19424
1911.11244,0.19214
1913.04091,0.18900
1914.96938,0.19067
1916.89785,0.19620
1918.82632,0.19816
1920.75478,0.19482
1922.68325,0.19195
1924.61172,0.19115
1926.54019,0.19158
1928.46866,0.19225
1930.39713,0.19200
1932.32560,0.19009
1934.25407,0.18578
1936.18253,0.18302
1938.11100,0.18611
1940.03947,0.19191
1941.96794,0.19585
1943.89641,0.19611
1945.82488,0.19333
1947.75335,0.18962
1949.68181,0.18681
1951.61028,0.18567
1953.53875,0.18659
1955.46722,0.18936
1957.39569,0.19190
1959.32416,0.19273
1961.25263,0.19116
1963.18110,0.18890
1965.10956,0.19039
1967.03803,0.19428
1968.96650,0.19407
1970.89497,0.18984
1972.82344,0.18571
1974.75191,0.18448
1976.68038,0.19220
1978.60884,0.20346
1980.53731,0.20163
1982.46578,0.19229
1984.39425,0.18908
1986.32272,0.18921
1988.25119,0.19057
1990.17966,0.19280
1992.10812,0.19167
1994.03659,0.18943
1995.96506,0.19119
1997.89353,0.19395
1999.82200,0.19389
2001.75047,0.19232
2003.67894,0.18950
2005.60741,0.18626
2007.53587,0.18613
2009.46434,0.18822
2011.39281,0.18911
2013.32128,0.18893
2015.24975,0.18878
2017.17822,0.18877
2019.10669,0.18914
2021.03515,0.18962
2022.96362,0.18983
2024.89209,0.19034
2026.82056,0.19013
2028.74903,0.18808
2030.67750,0.18732
2032.60597,0.18936
2034.53444,0.19053
2036.46290,0.18926
2038.39137,0.18911
2040.31984,0.19099
2042.24831,0.19090
2044.17678,0.18881
2046.10525,0.18957
2048.03372,0.19367
2049.96218,0.19577
2051.89065,0.19379
2053.81912,0.19026
2055.74759,0.18710
2057.67606,0.18658
2059.60453,0.18828
2061.53300,0.18893
2063.46147,0.19018
2065.38993,0.19276
2067.31840,0.19219
2069.24687,0.18894
2071.17534,0.18612
2073.10381,0.18508
2075.03228,0.18874
2076.96075,0.19474
2078.88921,0.19494
2080.81768,0.19000
2082.74615,0.18869
2084.67462,0.19258
2086.60309,0.19581
2088.53156,0.19563
2090.46003,0.19396
2092.38850,0.19285
2094.31696,0.19284
2096.24543,0.19338
2098.17390,0.19389
2100.10237,0.19473
2102.03084,0.19438
2103.95931,0.19037
2105.88778,0.18580
2107.81624,0.18566
2109.74471,0.18925
2111.67318,0.19324
2113.60165,0.19528
2115.53012,0.19451
2117.45859,0.19233
2119.38706,0.19129
2121.31553,0.19261
2123.24399,0.19326
2125.17246,0.19050
2127.10093,0.18803
2129.02940,0.18883
2130.95787,0.18963
2132.88634,0.18845
2134.81481,0.18823
2136.74327,0.19001
2138.67174,0.19169
2140.60021,0.19263
2142.52868,0.19248
2144.45715,0.19035
2146.38562,0.18805
2148.31409,0.18915
2150.24255,0.19194
2152.17102,0.19077
2154.09949,0.18677
2156.02796,0.18503
2157.95643,0.18657
2159.88490,0.19018
2161.81337,0.19355
2163.74184,0.19554
2165.67030,0.19674
2167.59877,0.19538
2169.52724,0.19149
2171.45571,0.18964
2173.38418,0.19173
2175.31265,0.19405
2177.24112,0.19330
2179.16958,0.19104
2181.09805,0.18920
2183.02652,0.18794
2184.95499,0.18862
2186.88346,0.19045
2188.81193,0.19134
2190.74040,0.19149
2192.66887,0.19024
2194.59733,0.18778
2196.52580,0.18676
2198.45427,0.18800
2200.38274,0.18885
2202.31121,0.18790
2204.23968,0.18771
2206.16815,0.18818
2208.09661,0.18816
2210.02508,0.18881
2211.95355,0.18972
2213.88202,0.19029
2215.81049,0.19006
2217.73896,0.18953
2219.66743,0.18937
2221.59590,0.18867
2223.52436,0.19002
2225.45283,0.19420
2227.38130,0.19654
2229.30977,0.19659
2231.23824,0.19608
2233.16671,0.19563
2235.09518,0.19655
2237.02364,0.19690
2238.95211,0.19477
2240.88058,0.19235
2242.80905,0.19198
2244.73752,0.19296
2246.66599,0.19244
2248.59446,0.19005
2250.52293,0.18921
2252.45139,0.19146
2254.37986,0.19397
2256.30833,0.19430
2258.23680,0.19188
2260.16527,0.18862
2262.09374,0.18870
2264.02221,0.19184
2265.95067,0.19389
2267.87914,0.19397
2269.80761,0.19371
2271.73608,0.19308
2273.66455,0.19170
2275.59302,0.19191
2277.52149,0.19335
2279.44996,0.19190
2281.37842,0.19052
2283.30689,0.19325
2285.23536,0.19611
2287.16383,0.19631
2289.09230,0.19438
2291.02077,0.19152
2292.94924,0.18857
2294.87770,0.18636
2296.80617,0.18717
2298.73464,0.18856
2300.66311,0.18860
2302.59158,0.19025
2304.52005,0.19142
2306.44852,0.19026
2308.37699,0.19026
2310.30545,0.19004
2312.23392,0.18969
2314.16239,0.19446
2316.09086,0.20024
2318.01933,0.20276
2319.94780,0.20394
2321.87627,0.20232
2323.80473,0.20135
2325.73320,0.20474
2327.66167,0.20884
2329.59014,0.21410
2331.51861,0.21692
2333.44708,0.20737
2335.37555,0.19409
2337.30401,0.19622
2339.23248,0.20584
2341.16095,0.20369
2343.08942,0.19903
2345.01789,0.20066
2346.94636,0.20333
2348.87483,0.20748
2350.80330,0.21239
2352.73176,0.21639
2354.66023,0.21944
2356.58870,0.21690
2358.51717,0.20541
2360.44564,0.19383
2362.37411,0.19055
2364.30258,0.19665
2366.23104,0.21224
2368.15951,0.22657
2370.08798,0.22342
2372.01645,0.20939
2373.94492,0.20043
2375.87339,0.19789
2377.80186,0.19810
2379.73033,0.19966
2381.65879,0.19997
2383.58726,0.19851
2385.51573,0.19624
2387.44420,0.19437
2389.37267,0.19422
2391.30114,0.19363
2393.22961,0.19068
2395.15807,0.18811
2397.08654,0.18841
2399.01501,0.18974
2400.94348,0.18941
2402.87195,0.18773
2404.80042,0.18716
2406.72889,0.18978
2408.65736,0.19339
2410.58582,0.19349
2412.51429,0.19049
2414.44276,0.18923
2416.37123,0.19111
2418.29970,0.19217
2420.22817,0.19064
2422.15664,0.18936
2424.08510,0.19169
2426.01357,0.19640
2427.94204,0.19843
2429.87051,0.19679
2431.79898,0.19404
2433.72745,0.19142
2435.65592,0.19034
2437.58439,0.19108
2439.51285,0.19177
2441.44132,0.19173
2443.36979,0.19123
2445.29826,0.19075
2447.22673,0.19082
2449.15520,0.19109
2451.08367,0.18886
2453.01213,0.18576
2454.94060,0.19114
2456.86907,0.20056
2458.79754,0.20044
2460.72601,0.19473
2462.65448,0.19092
2464.58295,0.18790
2466.51142,0.18706
2468.43988,0.18955
2470.36835,0.19226
2472.29682,0.19276
2474.22529,0.19092
2476.15376,0.19002
2478.08223,0.19167
2480.01070,0.19141
2481.93916,0.18847
2483.86763,0.18697
2485.79610,0.18724
2487.72457,0.18724
2489.65304,0.18759
2491.58151,0.18881
2493.50998,0.18929
2495.43844,0.19063
2497.36691,0.19483
2499.29538,0.19850
2501.22385,0.19767
2503.15232,0.19360
2505.08079,0.19075
2507.00926,0.19013
2508.93773,0.18916
2510.86619,0.18818
2512.79466,0.18828
2514.72313,0.18818
2516.65160,0.18877
2518.58007,0.19030
2520.50854,0.19044
2522.43701,0.18877
2524.36547,0.18703
2526.29394,0.18836
2528.22241,0.19295
2530.15088,0.19573
2532.07935,0.19406
2534.00782,0.19201
2535.93629,0.19367
2537.86476,0.19659
2539.79322,0.19644
2541.72169,0.19414
2543.65016,0.19325
2545.57863,0.19363
2547.50710,0.19354
2549.43557,0.19487
2551.36404,0.19715
2553.29250,0.19581
2555.22097,0.19171
2557.14944,0.19032
2559.07791,0.19249
2561.00638,0.19448
2562.93485,0.19473
2564.86332,0.19391
2566.79179,0.19196
2568.72025,0.18985
2570.64872,0.18946
2572.57719,0.19067
2574.50566,0.19227
2576.43413,0.19370
2578.36260,0.19421
2580.29107,0.19470
2582.21953,0.19624
2584.14800,0.19651
2586.07647,0.19495
2588.00494,0.19371
2589.93341,0.19320
2591.86188,0.19279
2593.79035,0.19239
2595.71882,0.19314
2597.64728,0.19510
2599.57575,0.19470
2601.50422,0.19083
2603.43269,0.18897
2605.36116,0.19130
2607.28963,0.19370
2609.21810,0.19525
2611.14656,0.19696
2613.07503,0.19792
2615.00350,0.19833
2616.93197,0.19741
2618.86044,0.19303
2620.78891,0.18820
2622.71738,0.18815
2624.64585,0.19216
2626.57431,0.19610
2628.50278,0.19827
2630.43125,0.19971
2632.35972,0.20059
2634.28819,0.20004
2636.21666,0.19944
2638.14513,0.19998
2640.07359,0.19889
2642.00206,0.19369
2643.93053,0.18871
2645.85900,0.18819
2647.78747,0.19130
2649.71594,0.19703
2651.64441,0.20190
2653.57288,0.20274
2655.50134,0.20114
2657.42981,0.19930
2659.35828,0.19961
2661.28675,0.20199
2663.21522,0.20202
2665.14369,0.19819
2667.07216,0.19467
2669.00062,0.19390
2670.92909,0.19476
2672.85756,0.19698
2674.78603,0.19874
2676.71450,0.19698
2678.64297,0.19380
2680.57144,0.19328
2682.49990,0.19378
2684.42837,0.19328
2686.35684,0.19368
2688.28531,0.19540
2690.21378,0.19605
2692.14225,0.19450
2694.07072,0.19440
2695.99919,0.19814
2697.92765,0.20325
2699.85612,0.20679
2701.78459,0.20648
2703.71306,0.20359
2705.64153,0.20157
2707.57000,0.20097
2709.49847,0.20004
2711.42693,0.19913
2713.35540,0.19993
2715.28387,0.20074
2717.21234,0.19882
2719.14081,0.19574
2721.06928,0.19450
2722.99775,0.19514
2724.92622,0.19797
2726.85468,0.20196
2728.78315,0.20346
2730.71162,0.20189
2732.64009,0.20055
2734.56856,0.20196
2736.49703,0.20292
2738.42550,0.20128
2740.35396,0.20053
2742.28243,0.20063
2744.21090,0.20017
2746.13937,0.20217
2748.06784,0.20525
2749.99631,0.20568
2751.92478,0.20565
2753.85325,0.20538
2755.78171,0.20250
2757.71018,0.19930
2759.63865,0.19968
2761.56712,0.20405
2763.49559,0.20771
2765.42406,0.20726
2767.35253,0.20499
2769.28099,0.20381
2771.20946,0.20490
2773.13793,0.20699
2775.06640,0.20787
2776.99487,0.20985
2778.92334,0.21236
2780.85181,0.20990
2782.78028,0.20503
2784.70874,0.20357
2786.63721,0.20450
2788.56568,0.20461
2790.49415,0.20337
2792.42262,0.20282
2794.35109,0.20363
2796.27956,0.20490
2798.20802,0.20668
2800.13649,0.20730
2802.06496,0.20562
2803.99343,0.20390
2805.92190,0.20351
2807.85037,0.20503
2809.77884,0.20713
2811.70731,0.20772
2813.63577,0.20777
2815.56424,0.20630
2817.49271,0.20390
2819.42118,0.20447
2821.34965,0.20659
2823.27812,0.20750
2825.20659,0.20810
2827.13505,0.20850
2829.06352,0.20946
2830.99199,0.21243
2832.92046,0.21296
2834.84893,0.20752
2836.77740,0.20237
2838.70587,0.20264
2840.63433,0.20591
2842.56280,0.20806
2844.49127,0.20738
2846.41974,0.20567
2848.34821,0.20408
2850.27668,0.20346
2852.20515,0.20495
2854.13362,0.20776
2856.06208,0.21139
2857.99055,0.21367
2859.91902,0.21254
2861.84749,0.20968
2863.77596,0.20580
2865.70443,0.20139
2867.63290,0.20114
2869.56136,0.20569
2871.48983,0.20883
2873.41830,0.20901
2875.34677,0.20848
2877.27524,0.20780
2879.20371,0.20837
2881.13218,0.21194
2883.06065,0.21644
2884.98911,0.21574
2886.91758,0.20885
2888.84605,0.20423
2890.77452,0.20609
2892.70299,0.20814
2894.63146,0.20597
2896.55993,0.20041
2898.48839,0.19391
2900.41686,0.19105
2902.34533,0.19265
2904.27380,0.19421
2906.20227,0.19536
2908.13074,0.19836
2910.05921,0.20039
2911.98768,0.20147
2913.91614,0.20272
2915.84461,0.20019
2917.77308,0.19708
2919.70155,0.19811
2921.63002,0.19993
2923.55849,0.19988
2925.48696,0.19696
2927.41542,0.19634
2929.34389,0.20623
2931.27236,0.21734
2933.20083,0.21573
2935.12930,0.20424
2937.05777,0.19343
2938.98624,0.19386
2940.91471,0.20339
2942.84317,0.20908
2944.77164,0.20719
2946.70011,0.20271
2948.62858,0.20469
2950.55705,0.21301
2952.48552,0.21566
2954.41399,0.20712
2956.34245,0.19051
2958.27092,0.17979
2960.19939,0.18744
2962.12786,0.20324
2964.05633,0.21133
2965.98480,0.20808
2967.91327,0.19928
2969.84174,0.19661
2971.77020,0.20222
2973.69867,0.20687
2975.62714,0.20414
2977.55561,0.19721
2979.48408,0.19814
2981.41255,0.20753
2983.34102,0.21349
2985.26948,0.21287
2987.19795,0.20801
2989.12642,0.20315
2991.05489,0.20294
2992.98336,0.20479
2994.91183,0.20649
2996.84030,0.20828
2998.76877,0.20857
3000.69723,0.20963
3002.62570,0.21212
3004.55417,0.21103
3006.48264,0.20580
3008.41111,0.20035
3010.33958,0.19491
3012.26805,0.18217
3014.19651,0.15554
3016.12498,0.13409
3018.05345,0.14853
3019.98192,0.18593
3021.91039,0.21039
3023.83886,0.21858
3025.76733,0.21872
3027.69579,0.21287
3029.62426,0.20854
3031.55273,0.20830
3033.48120,0.20773
3035.40967,0.20789
3037.33814,0.21027
3039.26661,0.21171
3041.19508,0.21153
3043.12354,0.21149
3045.05201,0.20993
3046.98048,0.20685
3048.90895,0.20713
3050.83742,0.20767
3052.76589,0.20483
3054.69436,0.20266
3056.62282,0.20123
3058.55129,0.20300
3060.47976,0.20811
3062.40823,0.20897
3064.33670,0.20383
3066.26517,0.19774
3068.19364,0.19974
3070.12211,0.21066
3072.05057,0.21762
3073.97904,0.21240
3075.90751,0.20519
3077.83598,0.20843
3079.76445,0.21388
3081.69292,0.21007
3083.62139,0.19861
3085.54985,0.18988
3087.47832,0.19488
3089.40679,0.20499
3091.33526,0.20448
3093.26373,0.19380
3095.19220,0.18797
3097.12067,0.19845
3099.04914,0.21273
3100.97760,0.21400
3102.90607,0.20409
3104.83454,0.19816
3106.76301,0.20269
3108.69148,0.20854
3110.61995,0.20856
3112.54842,0.20399
3114.47688,0.20323
3116.40535,0.21009
3118.33382,0.21429
3120.26229,0.20868
3122.19076,0.20430
3124.11923,0.20958
3126.04770,0.21342
3127.97617,0.21011
3129.90463,0.20610
3131.83310,0.20708
3133.76157,0.21206
3135.69004,0.21435
3137.61851,0.21386
3139.54698,0.21203
3141.47545,0.20991
3143.40391,0.21186
3145.33238,0.21564
3147.26085,0.21680
3149.18932,0.21600
3151.11779,0.21545
3153.04626,0.21699
3154.97473,0.21880
3156.90320,0.21867
3158.83166,0.21878
3160.76013,0.21822
3162.68860,0.21221
3164.61707,0.20376
3166.54554,0.20380
3168.47401,0.21380
3170.40248,0.22321
3172.33094,0.22441
3174.25941,0.21948
3176.18788,0.21617
3178.11635,0.21778
3180.04482,0.22158
3181.97329,0.22384
3183.90176,0.22274
3185.83022,0.21897
3187.75869,0.21412
3189.68716,0.20912
3191.61563,0.20518
3193.54410,0.20654
3195.47257,0.21169
3197.40104,0.21346
3199.32951,0.21393
3201.25797,0.21729
3203.18644,0.22066
3205.11491,0.22231
3207.04338,0.22356
3208.97185,0.22139
3210.90032,0.21551
3212.82879,0.21470
3214.75725,0.21804
3216.68572,0.21578
3218.61419,0.20931
3220.54266,0.20850
3222.47113,0.21450
3224.39960,0.21636
3226.32807,0.21106
3228.25654,0.20729
3230.18500,0.20836
3232.11347,0.21146
3234.04194,0.21670
3235.97041,0.22169
3237.89888,0.21941
3239.82735,0.21301
3241.75582,0.21020
3243.68428,0.21110
3245.61275,0.21448
3247.54122,0.21933
3249.46969,0.22250
3251.39816,0.22361
3253.32663,0.22380
3255.25510,0.21983
3257.18357,0.21319
3259.11203,0.21037
3261.04050,0.20970
3262.96897,0.20818
3264.89744,0.20964
3266.82591,0.21458
3268.75438,0.21682
3270.68285,0.21272
3272.61131,0.20617
3274.53978,0.20470
3276.46825,0.20888
3278.39672,0.21299
3280.32519,0.21535
3282.25366,0.21507
3284.18213,0.21334
3286.11060,0.21536
3288.03906,0.21933
3289.96753,0.22095
3291.89600,0.21871
3293.82447,0.21370
3295.75294,0.21148
3297.68141,0.21090
3299.60988,0.20906
3301.53834,0.20974
3303.46681,0.21342
3305.39528,0.21692
3307.32375,0.21611
3309.25222,0.20944
3311.18069,0.20366
3313.10916,0.20431
3315.03763,0.20787
3316.96609,0.21095
3318.89456,0.21262
3320.82303,0.21391
3322.75150,0.21975
3324.67997,0.22551
3326.60844,0.22278
3328.53691,0.21803
3330.46537,0.21657
3332.39384,0.21460
3334.32231,0.21255
3336.25078,0.21237
3338.17925,0.21311
3340.10772,0.21253
3342.03619,0.21167
3343.96466,0.21274
3345.89312,0.21386
3347.82159,0.21600
3349.75006,0.21895
3351.67853,0.21973
3353.60700,0.21885
3355.53547,0.21693
3357.46394,0.21318
3359.39240,0.20885
3361.32087,0.20799
3363.24934,0.21102
3365.17781,0.21657
3367.10628,0.22287
3369.03475,0.22686
3370.96322,0.22864
3372.89168,0.22625
3374.82015,0.21898
3376.74862,0.21106
3378.67709,0.20732
3380.60556,0.21080
3382.53403,0.21794
3384.46250,0.22168
3386.39097,0.22131
3388.31943,0.22316
3390.24790,0.22563
3392.17637,0.22174
3394.10484,0.21555
3396.03331,0.21145
3397.96178,0.20807
3399.89025,0.20951
3401.81871,0.21468
3403.74718,0.21506
3405.67565,0.21116
3407.60412,0.20594
3409.53259,0.20046
3411.46106,0.20110
3413.38953,0.20862
3415.31800,0.21555
3417.24646,0.21847
3419.17493,0.21766
3421.10340,0.21326
3423.03187,0.20818
3424.96034,0.20629
3426.88881,0.20762
3428.81728,0.20805
3430.74574,0.20509
3432.67421,0.20078
3434.60268,0.19784
3436.53115,0.19920
3438.45962,0.20516
3440.38809,0.21237
3442.31656,0.21642
3444.24503,0.21556
3446.17349,0.21223
3448.10196,0.20717
3450.03043,0.20222
3451.95890,0.20071
3453.88737,0.20256
3455.81584,0.20496
3457.74431,0.20319
3459.67277,0.19721
3461.60124,0.19291
3463.52971,0.19160
3465.45818,0.18937
3467.38665,0.18743
3469.31512,0.18909
3471.24359,0.19109
3473.17206,0.19090
3475.10052,0.18920
3477.02899,0.18405
3478.95746,0.17918
3480.88593,0.18077
3482.81440,0.18421
3484.74287,0.18409
3486.67134,0.18378
3488.59980,0.18616
3490.52827,0.18898
3492.45674,0.19039
3494.38521,0.19127
3496.31368,0.19116
3498.24215,0.18667
3500.17062,0.17730
3502.09909,0.16985
3504.02755,0.17136
3505.95602,0.17953
3507.88449,0.18715
3509.81296,0.18918
3511.74143,0.18616
3513.66990,0.18246
3515.59837,0.17908
3517.52683,0.17694
3519.45530,0.17978
3521.38377,0.18502
3523.31224,0.18578
3525.24071,0.18214
3527.16918,0.17792
3529.09765,0.17350
3531.02611,0.16888
3532.95458,0.16845
3534.88305,0.17113
3536.81152,0.16969
3538.73999,0.16752
3540.66846,0.17081
3542.59693,0.17499
3544.52540,0.17517
3546.45386,0.17346
3548.38233,0.17411
3550.31080,0.17582
3552.23927,0.17473
3554.16774,0.16981
3556.09621,0.16327
3558.02468,0.16026
3559.95314,0.16411
3561.88161,0.17006
3563.81008,0.17449
3565.73855,0.17913
3567.66702,0.17850
3569.59549,0.17115
3571.52396,0.16647
3573.45243,0.16506
3575.38089,0.16351
3577.30936,0.16045
3579.23783,0.15786
3581.16630,0.15903
3583.09477,0.16280
3585.02324,0.16633
3586.95171,0.16868
3588.88017,0.16761
3590.80864,0.16514
3592.73711,0.16404
3594.66558,0.16139
3596.59405,0.15644
3598.52252,0.15428
3600.45099,0.15638
3602.37946,0.15782
3604.30792,0.15649
3606.23639,0.15727
3608.16486,0.16115
3610.09333,0.16277
3612.02180,0.16269
3613.95027,0.16306
3615.87874,0.16488
3617.80720,0.16978
3619.73567,0.17314
3621.66414,0.16893
3623.59261,0.16219
3625.52108,0.15968
3627.44955,0.16249
3629.37802,0.16097
3631.30649,0.15420
3633.23495,0.14869
3635.16342,0.14101
3637.09189,0.13493
3639.02036,0.13536
3640.94883,0.13930
3642.87730,0.14339
3644.80577,0.15274
3646.73423,0.17171
3648.66270,0.18587
3650.59117,0.17562
3652.51964,0.16089
3654.44811,0.14976
3656.37658,0.13879
3658.30505,0.13383
3660.23352,0.13623
3662.16198,0.13742
3664.09045,0.13604
3666.01892,0.13978
3667.94739,0.15251
3669.87586,0.16373
3671.80433,0.16041
3673.73280,0.15697
3675.66126,0.15445
3677.58973,0.14525
3679.51820,0.13927
3681.44667,0.13638
3683.37514,0.13269
3685.30361,0.13238
3687.23208,0.13966
3689.16055,0.14702
3691.08901,0.14249
3693.01748,0.13349
3694.94595,0.12907
3696.87442,0.12998
3698.80289,0.13380
3700.73136,0.13794
3702.65983,0.13746
3704.58829,0.13254
3706.51676,0.13156
3708.44523,0.13899
3710.37370,0.14751
3712.30217,0.14420
3714.23064,0.13806
3716.15911,0.13650
3718.08757,0.13679
3720.01604,0.13782
3721.94451,0.14044
3723.87298,0.14370
3725.80145,0.14135
3727.72992,0.13586
3729.65839,0.13728
3731.58686,0.14396
3733.51532,0.14839
3735.44379,0.14808
3737.37226,0.14218
3739.30073,0.13473
3741.22920,0.13352
3743.15767,0.14409
3745.08614,0.15911
3747.01460,0.16003
3748.94307,0.15941
3750.87154,0.16480
3752.80001,0.15896
3754.72848,0.14626
3756.65695,0.13871
3758.58542,0.13608
3760.51389,0.13554
3762.44235,0.13494
3764.37082,0.13142
3766.29929,0.12817
3768.22776,0.13116
3770.15623,0.13102
3772.08470,0.12354
3774.01317,0.12122
3775.94163,0.12689
3777.87010,0.13774
3779.79857,0.14511
3781.72704,0.14169
3783.65551,0.13566
3785.58398,0.13077
3787.51245,0.12795
3789.44092,0.12718
3791.36938,0.12526
3793.29785,0.12687
3795.22632,0.13733
3797.15479,0.14650
3799.08326,0.14614
3801.01173,0.14354
3802.94020,0.14112
3804.86866,0.13862
3806.79713,0.13399
3808.72560,0.12623
3810.65407,0.12256
3812.58254,0.12454
3814.51101,0.12641
3816.43948,0.12513
3818.36795,0.12936
3820.29641,0.13713
3822.22488,0.13698
3824.15335,0.13358
3826.08182,0.13163
3828.01029,0.12977
3829.93876,0.12971
3831.86723,0.13410
3833.79569,0.14232
3835.72416,0.14720
3837.65263,0.14434
3839.58110,0.14063
3841.50957,0.14133
3843.43804,0.13858
3845.36651,0.12994
3847.29498,0.12380
3849.22344,0.12427
3851.15191,0.13271
3853.08038,0.14652
3855.00885,0.14121
3856.93732,0.13160
3858.86579,0.13088
3860.79426,0.12985
3862.72272,0.12398
3864.65119,0.12089
3866.57966,0.12539
3868.50813,0.13210
3870.43660,0.13286
3872.36507,0.12605
3874.29354,0.12051
3876.22200,0.11810
3878.15047,0.12004
3880.07894,0.12625
3882.00741,0.12938
3883.93588,0.12884
3885.86435,0.12807
3887.79282,0.12673
3889.72129,0.12647
3891.64975,0.12799
3893.57822,0.12667
3895.50669,0.12165
3897.43516,0.11857
3899.36363,0.12079
3901.29210,0.12628
3903.22057,0.13050
3905.14903,0.13001
3907.07750,0.12668
3909.00597,0.12282
3910.93444,0.11649
3912.86291,0.10950
3914.79138,0.10901
3916.71985,0.11730
3918.64832,0.12458
3920.57678,0.12306
3922.50525,0.11642
3924.43372,0.10877
3926.36219,0.10484
3928.29066,0.10783
3930.21913,0.11789
3932.14760,0.12828
3934.07606,0.12677
3936.00453,0.11747
3937.93300,0.11179
3939.86147,0.11441
3941.78994,0.12116
3943.71841,0.12038
3945.64688,0.11239
3947.57535,0.10687
3949.50381,0.10243
3951.43228,0.09790
3953.36075,0.09769
3955.28922,0.10048
3957.21769,0.10459
3959.14616,0.10677
3961.07463,0.10419
3963.00309,0.10175
3964.93156,0.10200
3966.86003,0.10426
3968.78850,0.10727
3970.71697,0.10973
3972.64544,0.11417
3974.57391,0.11707
3976.50238,0.11163
3978.43084,0.10602
3980.35931,0.10857
3982.28778,0.11160
3984.21625,0.10882
3986.14472,0.10372
3988.07319,0.10007
3990.00166,0.10024
3991.93012,0.10297
3993.85859,0.10347
3995.78706,0.10303
3997.71553,0.10487
3999.64400,0.10531
4001.57247,0.10370
4003.50094,0.10385
4005.42941,0.10500
4007.35787,0.10455
4009.28634,0.10059
4011.21481,0.09569
4013.14328,0.09633
4015.07175,0.09994
4017.00022,0.09944
4018.92869,0.09808
4020.85715,0.10144
4022.78562,0.10528
4024.71409,0.10342
4026.64256,0.09688
4028.57103,0.09197
4030.49950,0.09475
4032.42797,0.10420
4034.35644,0.11267
4036.28490,0.11450
4038.21337,0.10916
4040.14184,0.10097
4042.07031,0.09710
4043.99878,0.09913
4045.92725,0.10116
4047.85572,0.09998
4049.78418,0.09744
4051.71265,0.09361
4053.64112,0.08939
4055.56959,0.08974
4057.49806,0.09336
4059.42653,0.09191
4061.35500,0.08713
4063.28346,0.08829
4065.21193,0.09477
4067.14040,0.09801
4069.06887,0.09682
4070.99734,0.09591
4072.92581,0.09552
4074.85428,0.09545
4076.78275,0.09484
4078.71121,0.09257
4080.63968,0.09196
4082.56815,0.09220
4084.49662,0.08999
4086.42509,0.08943
4088.35356,0.09192
4090.28203,0.09151
4092.21049,0.09034
4094.13896,0.09346
4096.06743,0.09796
4097.99590,0.10039
4099.92437,0.09952
4101.85284,0.09718
4103.78131,0.09674
4105.70978,0.10018
4107.63824,0.10963
4109.56671,0.11671
4111.49518,0.11087
4113.42365,0.09934
4115.35212,0.09122
4117.28059,0.08747
4119.20906,0.08920
4121.13752,0.09257
4123.06599,0.09215
4124.99446,0.08990
4126.92293,0.08737
4128.85140,0.08149
4130.77987,0.07640
4132.70834,0.07929
4134.63681,0.08544
4136.56527,0.08815
4138.49374,0.08922
4140.42221,0.08962
4142.35068,0.08977
4144.27915,0.09241
4146.20762,0.09602
4148.13609,0.09651
4150.06455,0.09271
4151.99302,0.08824
4153.92149,0.08589
4155.84996,0.08435
4157.77843,0.08258
4159.70690,0.08109
4161.63537,0.08255
4163.56384,0.08477
4165.49230,0.08449
4167.42077,0.08393
4169.34924,0.08109
4171.27771,0.07736
4173.20618,0.07673
4175.13465,0.07401
4177.06312,0.06891
4178.99158,0.06729
4180.92005,0.07097
4182.84852,0.08058
4184.77699,0.08941
4186.70546,0.08636
4188.63393,0.07738
4190.56240,0.07633
4192.49087,0.07767
4194.41933,0.07217
4196.34780,0.06894
4198.27627,0.07551
4200.20474,0.08158
4202.13321,0.08130
4204.06168,0.08290
4205.99015,0.08576
4207.91861,0.08259
4209.84708,0.07579
4211.77555,0.06930
4213.70402,0.06431
4215.63249,0.06323
4217.56096,0.06395
4219.48943,0.06422
4221.41789,0.06716
4223.34636,0.07265
4225.27483,0.07592
4227.20330,0.07638
4229.13177,0.07709
4231.06024,0.07532
4232.98871,0.07229
4234.91718,0.07466
4236.84564,0.07527
4238.77411,0.06945
4240.70258,0.06461
4242.63105,0.06388
4244.55952,0.06969
4246.48799,0.07705
4248.41646,0.07440
4250.34492,0.06673
4252.27339,0.06470
4254.20186,0.06744
4256.13033,0.06867
4258.05880,0.06645
4259.98727,0.06803
4261.91574,0.07374
4263.84421,0.07333
4265.77267,0.06784
4267.70114,0.06730
4269.62961,0.07237
4271.55808,0.07439
4273.48655,0.07117
4275.41502,0.06915
4277.34349,0.06930
4279.27195,0.06791
4281.20042,0.06586
4283.12889,0.06224
4285.05736,0.05601
4286.98583,0.05349
4288.91430,0.05462
4290.84277,0.05395
4292.77124,0.05369
4294.69970,0.05357
4296.62817,0.05245
4298.55664,0.05498
4300.48511,0.05840
4302.41358,0.05990
4304.34205,0.06162
4306.27052,0.06028
4308.19898,0.05678
4310.12745,0.05308
4312.05592,0.04609
4313.98439,0.03841
4315.91286,0.03715
4317.84133,0.04522
4319.76980,0.05613
4321.69827,0.06303
4323.62673,0.06304
4325.55520,0.05719
4327.48367,0.05431
4329.41214,0.05347
4331.34061,0.04769
4333.26908,0.04288
4335.19755,0.04229
4337.12601,0.04334
4339.05448,0.05069
4340.98295,0.06382
4342.91142,0.07071
4344.83989,0.06438
4346.76836,0.05009
4348.69683,0.03617
4350.62530,0.02898
4352.55376,0.03248
4354.48223,0.04246
4356.41070,0.04717
4358.33917,0.04169
4360.26764,0.03549
4362.19611,0.03762
4364.12458,0.04429
4366.05304,0.05000
4367.98151,0.05239
4369.90998,0.04872
4371.83845,0.04231
4373.76692,0.03792
4375.69539,0.03448
4377.62386,0.03212
4379.55232,0.03587
4381.48079,0.04399
4383.40926,0.04852
4385.33773,0.04899
4387.26620,0.04618
4389.19467,0.04078
4391.12314,0.03995
4393.05161,0.04502
4394.98007,0.04657
4396.90854,0.03787
4398.83701,0.02773
4400.76548,0.03137
4402.69395,0.04209
4404.62242,0.04600
4406.55089,0.04806
4408.47935,0.04696
4410.40782,0.04020
4412.33629,0.03717
4414.26476,0.03897
4416.19323,0.04288
4418.12170,0.04752
4420.05017,0.04840
4421.97864,0.04176
4423.90710,0.03319
4425.83557,0.03308
4427.76404,0.03734
4429.69251,0.03606
4431.62098,0.03287
4433.54945,0.03326
4435.47792,0.03169
4437.40638,0.02548
4439.33485,0.02247
4441.26332,0.02769
4443.19179,0.03358
4445.12026,0.03355
4447.04873,0.03531
4448.97720,0.03893
4450.90567,0.03194
4452.83413,0.02383
4454.76260,0.03146
4456.69107,0.04057
4458.61954,0.03612
4460.54801,0.02727
4462.47648,0.02465
4464.40495,0.02722
4466.33341,0.03015
4468.26188,0.03237
4470.19035,0.03115
4472.11882,0.02816
4474.04729,0.02717
4475.97576,0.02191
4477.90423,0.01628
4479.83270,0.01954
4481.76116,0.02619
4483.68963,0.03392
4485.61810,0.04431
4487.54657,0.04779
4489.47504,0.04332
4491.40351,0.03889
4493.33198,0.03027
4495.26044,0.02215
4497.18891,0.02398
4499.11738,0.02398
4501.04585,0.02181
4502.97432,0.02933
4504.90279,0.03272
4506.83126,0.02215
4508.75973,0.01608
4510.68819,0.02182
4512.61666,0.02663
4514.54513,0.02278
4516.47360,0.01579
4518.40207,0.01855
4520.33054,0.02624
4522.25901,0.02596
4524.18747,0.02223
4526.11594,0.01622
4528.04441,0.00814
4529.97288,0.00776
4531.90135,0.01474
4533.82982,0.01977
4535.75829,0.02049
4537.68676,0.02047
4539.61522,0.01821
4541.54369,0.01236
4543.47216,0.00953
4545.40063,0.01146
4547.32910,0.01429
4549.25757,0.01905
4551.18604,0.02270
4553.11450,0.02043
4555.04297,0.01975
4556.97144,0.02540
4558.89991,0.02732
4560.82838,0.02153
4562.75685,0.01479
4564.68532,0.01109
4566.61378,0.01113
4568.54225,0.00770
4570.47072,-0.00088
4572.39919,-0.00220
4574.32766,0.00240
4576.25613,0.00436
4578.18460,0.00592
4580.11307,0.00663
4582.04153,0.00707
4583.97000,0.01389
4585.89847,0.02303
4587.82694,0.02592
4589.75541,0.02374
4591.68388,0.01820
4593.61235,0.01233
4595.54081,0.01350
4597.46928,0.02246
4599.39775,0.03019
4601.32622,0.02667
4603.25469,0.01602
4605.18316,0.01015
4607.11163,0.00877
4609.04010,0.00398
4610.96856,-0.00473
4612.89703,-0.00742
4614.82550,-0.00069
4616.75397,0.00415
4618.68244,0.00393
4620.61091,0.00601
4622.53938,0.01233
4624.46784,0.01974
4626.39631,0.02097
4628.32478,0.01398
4630.25325,0.00727
4632.18172,0.00493
4634.11019,0.00361
4636.03866,0.00023
4637.96713,-0.00351
4639.89559,-0.00009
4641.82406,0.00806
4643.75253,0.00828
4645.68100,0.00253
4647.60947,0.00398
4649.53794,0.01054
4651.46641,0.01256
4653.39487,0.01379
4655.32334,0.01318
4657.25181,0.00678
4659.18028,0.00340
4661.10875,0.00262
4663.03722,-0.00048
4664.96569,0.00476
4666.89416,0.02049
4668.82262,0.03149
4670.75109,0.03245
4672.67956,0.02411
4674.60803,0.00457
4676.53650,-0.00960
4678.46497,-0.00033
4680.39344,0.01369
4682.32190,0.01078
4684.25037,0.00230
4686.17884,0.00126
4688.10731,0.00651
4690.03578,0.01263
4691.96425,0.01785
4693.89272,0.02182
4695.82119,0.02038
4697.74965,0.01423
4699.67812,0.00359
4701.60659,-0.00427
4703.53506,0.00636
4705.46353,0.03037
4707.39200,0.04336
4709.32047,0.03261
4711.24893,0.01733
4713.17740,0.01837
4715.10587,0.02198
4717.03434,0.01636
4718.96281,0.01220
4720.89128,0.01428
4722.81975,0.01748
4724.74821,0.01790
4726.67668,0.01489
4728.60515,0.01025
4730.53362,0.01012
4732.46209,0.01454
4734.39056,0.01134
4736.31903,-0.00161
4738.24750,-0.01152
4740.17596,-0.00689
4742.10443,0.00909
4744.03290,0.02070
4745.96137,0.02203
4747.88984,0.02179
4749.81831,0.02544
4751.74678,0.02458
4753.67524,0.01526
4755.60371,0.00615
4757.53218,-0.00100
4759.46065,-0.00416
4761.38912,0.00021
4763.31759,0.00545
4765.24606,0.00587
4767.17453,-0.00111
4769.10299,-0.00843
4771.03146,-0.00488
4772.95993,0.00473
4774.88840,0.01337
4776.81687,0.02227
4778.74534,0.02983
4780.67381,0.02727
4782.60227,0.01329
4784.53074,0.00105
4786.45921,-0.00188
4788.38768,-0.00197
4790.31615,-0.00276
4792.24462,0.00215
4794.17309,0.00905
4796.10156,0.00565
4798.03002,-0.00117
4799.95849,0.00138
4801.88696,0.00835
4803.81543,0.01212
4805.74390,0.01313
4807.67237,0.00943
4809.60084,0.00651
4811.52930,0.01002
4813.45777,0.00743
4815.38624,-0.00172
4817.31471,-0.00149
4819.24318,0.00400
4821.17165,0.00322
4823.10012,-0.00018
4825.02859,-0.00213
4826.95705,-0.00163
4828.88552,0.00670
4830.81399,0.01671
4832.74246,0.01438
4834.67093,0.00062
4836.59940,-0.00779
4838.52787,-0.00060
4840.45633,0.01095
4842.38480,0.01472
4844.31327,0.01247
4846.24174,0.00889
4848.17021,0.00768
4850.09868,0.00426
4852.02715,-0.00714
4853.95562,-0.01461
4855.88408,-0.00784
4857.81255,0.00296
4859.74102,0.01067
4861.66949,0.01380
4863.59796,0.00720
4865.52643,0.00047
4867.45490,0.00110
4869.38336,0.00273
4871.31183,0.01108
4873.24030,0.02656
4875.16877,0.02946
4877.09724,0.01465
4879.02571,0.00015
4880.95418,-0.00386
4882.88265,-0.00351
4884.81111,-0.00198
4886.73958,-0.00149
4888.66805,-0.00150
4890.59652,0.00239
4892.52499,0.00773
4894.45346,0.00947
4896.38193,0.00918
4898.31039,0.01175
4900.23886,0.01469
4902.16733,0.01377
4904.09580,0.01581
4906.02427,0.03121
4907.95274,0.04720
4909.88121,0.03793
4911.80967,0.01136
4913.73814,-0.00349
4915.66661,-0.00035
4917.59508,0.00654
4919.52355,0.00361
4921.45202,-0.00132
4923.38049,0.00179
4925.30896,0.00225
4927.23742,0.00132
4929.16589,0.01133
4931.09436,0.02637
4933.02283,0.03300
4934.95130,0.02916
4936.87977,0.02486
4938.80824,0.02478
4940.73670,0.02199
4942.66517,0.01298
4944.59364,0.00820
4946.52211,0.01633
4948.45058,0.02476
4950.37905,0.02534
4952.30752,0.02605
4954.23599,0.02080
4956.16445,0.00246
4958.09292,-0.00906
4960.02139,-0.00245
4961.94986,-0.00052
4963.87833,-0.00865
4965.80680,-0.00848
4967.73527,-0.00921
4969.66373,-0.01299
4971.59220,-0.00095
4973.52067,0.01207
4975.44914,0.00748
4977.37761,0.00056
4979.30608,0.00434
4981.23455,0.01164
4983.16302,0.01112
4985.09148,0.00795
4987.01995,0.00459
4988.94842,-0.00962
4990.87689,-0.01835
4992.80536,-0.00343
4994.73383,0.01155
4996.66230,0.00677
4998.59076,-0.00800
5000.51923,-0.01333
5002.44770,0.00348
5004.37617,0.02388
5006.30464,0.02776
5008.23311,0.02826
5010.16158,0.03281
5012.09005,0.03490
5014.01851,0.03261
5015.94698,0.02351
5017.87545,0.01507
5019.80392,0.01853
5021.73239,0.02750
5023.66086,0.03635
5025.58933,0.04014
5027.51779,0.03353
5029.44626,0.03130
5031.37473,0.03469
5033.30320,0.02918
5035.23167,0.02208
5037.16014,0.01943
5039.08861,0.00686
5041.01708,-0.01445
5042.94554,-0.02267
5044.87401,-0.01234
5046.80248,0.00720
5048.73095,0.02689
5050.65942,0.03930
5052.58789,0.03486
5054.51636,0.01828
5056.44482,0.01434
5058.37329,0.02257
5060.30176,0.02929
5062.23023,0.03827
5064.15870,0.04378
5066.08717,0.03679
5068.01564,0.02081
5069.94410,0.00761
5071.87257,0.00826
5073.80104,0.02009
5075.72951,0.03047
5077.65798,0.03014
5079.58645,0.02419
5081.51492,0.02522
5083.44339,0.03374
5085.37185,0.03757
5087.30032,0.03635
5089.22879,0.03731
5091.15726,0.03261
5093.08573,0.02453
5095.01420,0.02245
5096.94267,0.01742
5098.87113,0.00854
5100.79960,0.01133
5102.72807,0.02592
5104.65654,0.03679
5106.58501,0.03960
5108.51348,0.03712
5110.44195,0.02986
5112.37042,0.02094
5114.29888,0.01227
5116.22735,0.01246
5118.15582,0.02910
5120.08429,0.04013
5122.01276,0.02699
5123.94123,0.01273
5125.86970,0.01195
5127.79816,0.01998
5129.72663,0.04206
5131.65510,0.06595
5133.58357,0.07303
5135.51204,0.06799
5137.44051,0.05930
5139.36898,0.04615
5141.29745,0.03657
5143.22591,0.04375
5145.15438,0.04829
5147.08285,0.02765
5149.01132,0.00497
5150.93979,0.01026
5152.86826,0.03499
5154.79673,0.05210
5156.72519,0.05166
5158.65366,0.03824
5160.58213,0.02274
5162.51060,0.01818
5164.43907,0.02873
5166.36754,0.04677
5168.29601,0.05312
5170.22448,0.04239
5172.15294,0.03340
5174.08141,0.02960
5176.00988,0.02190
5177.93835,0.01735
5179.86682,0.03385
5181.79529,0.06224
5183.72376,0.06683
5185.65222,0.04443
5187.58069,0.02377
5189.50916,0.02611
5191.43763,0.04502
5193.36610,0.05513
5195.29457,0.05710
5197.22304,0.06307
5199.15151,0.06528
5201.07997,0.05184
5203.00844,0.02771
5204.93691,0.01027
5206.86538,0.00329
5208.79385,0.00520
5210.72232,0.01559
5212.65079,0.02678
5214.57925,0.03772
5216.50772,0.04734
5218.43619,0.04626
5220.36466,0.03012
5222.29313,0.01864
5224.22160,0.02905
5226.15007,0.04701
5228.07854,0.05000
5230.00700,0.03912
5231.93547,0.03750
5233.86394,0.04846
5235.79241,0.04030
5237.72088,0.01695
5239.64935,0.01734
5241.57782,0.03919
5243.50628,0.04607
5245.43475,0.02956
5247.36322,0.01095
5249.29169,0.00330
5251.22016,0.01407
5253.14863,0.03798
5255.07710,0.05354
5257.00556,0.05623
5258.93403,0.05174
5260.86250,0.03772
5262.79097,0.02918
5264.71944,0.03072
5266.64791,0.02865
5268.57638,0.03009
5270.50485,0.03952
5272.43331,0.05403
5274.36178,0.06891
5276.29025,0.06926
5278.21872,0.05383
5280.14719,0.04198
5282.07566,0.04104
5284.00413,0.04133
5285.93259,0.04274
5287.86106,0.04532
5289.78953,0.03763
5291.71800,0.02381
5293.64647,0.02356
5295.57494,0.03810
5297.50341,0.05005
5299.43188,0.05000
5301.36034,0.04497
5303.28881,0.04124
5305.21728,0.04732
5307.14575,0.06563
5309.07422,0.08070
5311.00269,0.08687
5312.93116,0.09090
5314.85962,0.08730
5316.78809,0.07709
5318.71656,0.07775
5320.64503,0.08182
5322.57350,0.06935
5324.50197,0.05089
5326.43044,0.04470
5328.35891,0.04450
5330.28737,0.04559
5332.21584,0.06262
5334.14431,0.08327
5336.07278,0.07902
5338.00125,0.05394
5339.92972,0.03326
5341.85819,0.04246
5343.78665,0.07688
5345.71512,0.09531
5347.64359,0.07859
5349.57206,0.04250
5351.50053,0.01395
5353.42900,0.01984
5355.35747,0.04191
5357.28594,0.04566
5359.21440,0.02874
5361.14287,0.01510
5363.07134,0.02483
5364.99981,0.03800
5366.92828,0.03255
5368.85675,0.00937
5370.78522,-0.00999
5372.71368,0.01115
5374.64215,0.06071
5376.57062,0.08675
5378.49909,0.08282
5380.42756,0.06712
5382.35603,0.04717
5384.28450,0.03790
5386.21297,0.04431
5388.14143,0.04866
5390.06990,0.05304
5391.99837,0.06680
5393.92684,0.07225
5395.85531,0.06390
5397.78378,0.05777
5399.71225,0.05297
5401.64071,0.04998
5403.56918,0.06013
5405.49765,0.08265
5407.42612,0.09060
5409.35459,0.06690
5411.28306,0.03965
5413.21153,0.04072
5415.13999,0.05866
5417.06846,0.06798
5418.99693,0.05960
5420.92540,0.04343
5422.85387,0.03787
5424.78234,0.04195
5426.71081,0.03891
5428.63928,0.02826
5430.56774,0.02871
5432.49621,0.03546
5434.42468,0.05084
5436.35315,0.07806
5438.28162,0.08625
5440.21009,0.06838
5442.13856,0.04610
5444.06702,0.04880
5445.99549,0.08498
5447.92396,0.11351
5449.85243,0.10082
5451.78090,0.07374
5453.70937,0.06114
5455.63784,0.05726
5457.56631,0.06145
5459.49477,0.08340
5461.42324,0.09952
5463.35171,0.08993
5465.28018,0.07641
5467.20865,0.06107
5469.13712,0.03592
5471.06559,0.03496
5472.99405,0.06369
5474.92252,0.08095
5476.85099,0.07895
5478.77946,0.07558
5480.70793,0.05865
5482.63640,0.03438
5484.56487,0.02916
5486.49334,0.05185
5488.42180,0.08234
5490.35027,0.08119
5492.27874,0.05964
5494.20721,0.05440
5496.13568,0.05731
5498.06415,0.05372
5499.99262,0.04382
5501.92108,0.03934
5503.84955,0.04920
5505.77802,0.07030
5507.70649,0.09455
5509.63496,0.11180
5511.56343,0.10272
5513.49190,0.06614
5515.42037,0.03506
5517.34883,0.01726
5519.27730,0.00565
5521.20577,0.01360
5523.13424,0.04749
5525.06271,0.07679
5526.99118,0.07764
5528.91965,0.06588
5530.84811,0.05066
5532.77658,0.05333
5534.70505,0.08046
5536.63352,0.08318
5538.56199,0.05026
5540.49046,0.01941
5542.41893,0.02440
5544.34740,0.07973
5546.27586,0.13032
5548.20433,0.11893
5550.13280,0.08091
5552.06127,0.05784
5553.98974,0.05404
5555.91821,0.07270
5557.84668,0.10840
5559.77514,0.13660
5561.70361,0.13721
5563.63208,0.11868
5565.56055,0.10042
5567.48902,0.08843
5569.41749,0.07910
5571.34596,0.07004
5573.27443,0.05982
5575.20289,0.04313
5577.13136,0.03723
5579.05983,0.05751
5580.98830,0.08526
5582.91677,0.10421
5584.84524,0.11154
5586.77371,0.10417
5588.70217,0.09110
5590.63064,0.07857
5592.55911,0.06230
5594.48758,0.05862
5596.41605,0.08112
5598.34452,0.10004
5600.27299,0.08969
5602.20145,0.07311
5604.12992,0.06950
5606.05839,0.06984
5607.98686,0.07188
5609.91533,0.07911
5611.84380,0.09472
5613.77227,0.10621
5615.70074,0.10436
5617.62920,0.10980
5619.55767,0.11823
5621.48614,0.11844
5623.41461,0.11651
5625.34308,0.10254
5627.27155,0.07924
5629.20002,0.06458
5631.12848,0.05571
5633.05695,0.04410
5634.98542,0.04122
5636.91389,0.04421
5638.84236,0.03322
5640.77083,0.02791
5642.69930,0.04374
5644.62777,0.06156
5646.55623,0.07195
5648.48470,0.08017
5650.41317,0.09253
5652.34164,0.10145
5654.27011,0.09153
5656.19858,0.06446
5658.12705,0.04017
5660.05551,0.05777
5661.98398,0.11205
5663.91245,0.12773
5665.84092,0.09199
5667.76939,0.05786
5669.69786,0.04952
5671.62633,0.06683
5673.55480,0.08539
5675.48326,0.08357
5677.41173,0.07262
5679.34020,0.06634
5681.26867,0.06995
5683.19714,0.07718
5685.12561,0.07528
5687.05408,0.06844
5688.98254,0.06712
5690.91101,0.07176
5692.83948,0.08201
5694.76795,0.09946
5696.69642,0.11662
5698.62489,0.11523
5700.55336,0.08473
5702.48183,0.05033
5704.41029,0.04867
5706.33876,0.07122
5708.26723,0.08171
5710.19570,0.07840
5712.12417,0.09312
5714.05264,0.12112
5715.98111,0.12819
5717.90957,0.11735
5719.83804,0.09662
5721.76651,0.07827
5723.69498,0.09326
5725.62345,0.12055
5727.55192,0.12595
5729.48039,0.13569
5731.40886,0.15633
5733.33732,0.14799
5735.26579,0.10860
5737.19426,0.08877
5739.12273,0.11722
5741.05120,0.15955
5742.97967,0.16584
5744.90814,0.14278
5746.83660,0.12365
5748.76507,0.10153
5750.69354,0.07885
5752.62201,0.08387
5754.55048,0.09806
5756.47895,0.09168
5758.40742,0.07774
5760.33588,0.07533
5762.26435,0.07886
5764.19282,0.08550
5766.12129,0.08926
5768.04976,0.08855
5769.97823,0.09940
5771.90670,0.10574
5773.83517,0.09568
5775.76363,0.08490
5777.69210,0.08611
5779.62057,0.10013
5781.54904,0.10546
5783.47751,0.11532
5785.40598,0.14349
5787.33445,0.13922
5789.26291,0.09556
5791.19138,0.07017
5793.11985,0.06044
5795.04832,0.03354
5796.97679,0.02917
5798.90526,0.07706
5800.83373,0.11084
5802.76220,0.08878
5804.69066,0.06587
5806.61913,0.07090
5808.54760,0.06183
5810.47607,0.04053
5812.40454,0.04320
5814.33301,0.06343
5816.26148,0.07365
5818.18994,0.05918
5820.11841,0.03206
5822.04688,0.03553
5823.97535,0.06820
5825.90382,0.08110
5827.83229,0.06741
5829.76076,0.04784
5831.68923,0.02350
5833.61769,-0.00431
5835.54616,0.00083
5837.47463,0.05561
5839.40310,0.13068
5841.33157,0.19522
5843.26004,0.20773
5845.18851,0.17732
5847.11697,0.15581
5849.04544,0.12814
5850.97391,0.08551
5852.90238,0.06137
5854.83085,0.05750
5856.75932,0.06346
5858.68779,0.09164
5860.61626,0.11965
5862.54472,0.08484
5864.47319,0.02212
5866.40166,0.02399
5868.33013,0.08451
5870.25860,0.13210
5872.18707,0.14029
5874.11554,0.11928
5876.04400,0.08312
5877.97247,0.05435
5879.90094,0.03538
5881.82941,0.03013
5883.75788,0.04596
5885.68635,0.06776
5887.61482,0.07680
5889.54329,0.07943
5891.47175,0.09642
5893.40022,0.11445
5895.32869,0.12246
5897.25716,0.13295
5899.18563,0.13384
5901.11410,0.10668
5903.04257,0.07311
5904.97103,0.06455
5906.89950,0.07716
5908.82797,0.09116
5910.75644,0.09897
5912.68491,0.09207
5914.61338,0.05296
5916.54185,0.03004
5918.47032,0.06298
5920.39878,0.08143
5922.32725,0.06050
5924.25572,0.04902
5926.18419,0.05579
5928.11266,0.07003
5930.04113,0.08272
5931.96960,0.08588
5933.89806,0.07324
5935.82653,0.05144
5937.75500,0.04722
5939.68347,0.05998
5941.61194,0.08041
5943.54041,0.11256
5945.46888,0.12887
5947.39734,0.11288
5949.32581,0.09419
5951.25428,0.09582
5953.18275,0.12856
5955.11122,0.16611
5957.03969,0.14422
5958.96816,0.10179
5960.89663,0.12464
5962.82509,0.14548
5964.75356,0.10571
5966.68203,0.06246
5968.61050,0.03881
5970.53897,0.01540
5972.46744,0.00742
5974.39591,0.02522
5976.32437,0.05681
5978.25284,0.07793
5980.18131,0.06359
5982.10978,0.03291
5984.03825,0.02795
5985.96672,0.04211
5987.89519,0.03491
5989.82366,0.02325
5991.75212,0.04108
5993.68059,0.06535
5995.60906,0.08096
5997.53753,0.08810
5999.46600,0.07938
6001.39447,0.07300
6003.32294,0.07554
6005.25140,0.06068
6007.17987,0.03711
6009.10834,0.04766
6011.03681,0.08657
6012.96528,0.12037
6014.89375,0.14067
6016.82222,0.12624
6018.75069,0.05798
6020.67915,-0.01418
6022.60762,-0.03699
6024.53609,-0.00739
6026.46456,0.05014
6028.39303,0.09740
6030.32150,0.12521
6032.24997,0.14240
6034.17843,0.12756
6036.10690,0.08370
6038.03537,0.06740
6039.96384,0.10573
6041.89231,0.12156
6043.82078,0.04372
6045.74925,-0.02636
6047.67772,0.03496
6049.60618,0.17320
6051.53465,0.22525
6053.46312,0.16301
6055.39159,0.10224
6057.32006,0.10440
6059.24853,0.12957
6061.17700,0.16543
6063.10546,0.18597
6065.03393,0.16633
6066.96240,0.13653
6068.89087,0.11113
6070.81934,0.09240
6072.74781,0.07138
6074.67628,0.06605
6076.60475,0.10131
6078.53321,0.12387
6080.46168,0.10896
6082.39015,0.09432
6084.31862,0.09002
6086.24709,0.08848
6088.17556,0.08599
6090.10403,0.08719
6092.03249,0.08240
6093.96096,0.05056
6095.88943,0.01933
6097.81790,0.03374
6099.74637,0.08092
6101.67484,0.10983
6103.60331,0.09927
6105.53177,0.06444
6107.46024,0.03517
6109.38871,0.05489
6111.31718,0.09910
6113.24565,0.08680
6115.17412,0.04231
6117.10259,0.05358
6119.03106,0.11047
6120.95952,0.11622
6122.88799,0.07924
6124.81646,0.07448
6126.74493,0.09382
6128.67340,0.07840
6130.60187,0.02387
6132.53034,-0.01552
6134.45880,-0.01503
6136.38727,0.00563
6138.31574,0.05794
6140.24421,0.14919
6142.17268,0.20227
6144.10115,0.17510
6146.02962,0.14116
6147.95809,0.13498
6149.88655,0.13584
6151.81502,0.15484
6153.74349,0.19569
6155.67196,0.21665
6157.60043,0.18632
6159.52890,0.13353
6161.45737,0.11890
6163.38583,0.11508
6165.31430,0.07756
6167.24277,0.05042
6169.17124,0.04307
6171.09971,0.02228
6173.02818,-0.00086
6174.95665,0.01655
6176.88512,0.07187
6178.81358,0.12076
6180.74205,0.14786
6182.67052,0.14748
6184.59899,0.12732
6186.52746,0.11488
6188.45593,0.10631
6190.38440,0.08384
6192.31286,0.06862
6194.24133,0.07565
6196.16980,0.09697
6198.09827,0.12982
6200.02674,0.14562
6201.95521,0.14032
6203.88368,0.13476
6205.81215,0.10773
6207.74061,0.05514
6209.66908,0.02545
6211.59755,0.07504
6213.52602,0.16233
6215.45449,0.19671
6217.38296,0.15564
6219.31143,0.08721
6221.23989,0.04869
6223.16836,0.06565
6225.09683,0.11882
6227.02530,0.17262
6228.95377,0.20096
6230.88224,0.16152
6232.81071,0.06170
6234.73918,0.00308
6236.66764,0.01446
6238.59611,0.02939
6240.52458,0.01393
6242.45305,0.01130
6244.38152,0.06747
6246.30999,0.13534
6248.23846,0.13270
6250.16692,0.08216
6252.09539,0.05546
6254.02386,0.04740
6255.95233,0.03832
6257.88080,0.04331
6259.80927,0.06251
6261.73774,0.05673
6263.66621,0.04449
6265.59467,0.09169
6267.52314,0.13914
6269.45161,0.13857
6271.38008,0.15232
6273.30855,0.16224
6275.23702,0.10492
6277.16549,0.05129
6279.09395,0.07543
6281.02242,0.11088
6282.95089,0.12499
6284.87936,0.14790
6286.80783,0.13707
6288.73630,0.08853
6290.66477,0.09210
6292.59323,0.12585
6294.52170,0.11086
6296.45017,0.09143
6298.37864,0.11104
6300.30711,0.13783
6302.23558,0.14333
6304.16405,0.12765
6306.09252,0.09649
6308.02098,0.08370
6309.94945,0.08188
6311.87792,0.02261
6313.80639,-0.03962
6315.73486,-0.01828
6317.66333,0.03459
6319.59180,0.06536
6321.52026,0.11467
6323.44873,0.17160
6325.37720,0.15916
6327.30567,0.11639
6329.23414,0.09182
6331.16261,0.05004
6333.09108,0.05478
6335.01955,0.11434
6336.94801,0.09890
6338.87648,0.04855
6340.80495,0.06538
6342.73342,0.09852
6344.66189,0.09103
6346.59036,0.04757
6348.51883,0.00772
6350.44729,0.04720
6352.37576,0.12586
6354.30423,0.10881
6356.23270,0.03551
6358.16117,0.01951
6360.08964,0.07713
6362.01811,0.13226
6363.94658,0.11551
6365.87504,0.04716
6367.80351,-0.01637
6369.73198,-0.04224
6371.66045,-0.01871
6373.58892,0.01995
6375.51739,0.04746
6377.44586,0.09265
6379.37432,0.16651
6381.30279,0.22340
6383.23126,0.19330
6385.15973,0.11135
6387.08820,0.09097
6389.01667,0.13339
6390.94514,0.19434
6392.87361,0.20242
6394.80207,0.12881
6396.73054,0.07239
6398.65901,0.04876
6400.58748,0.04462
6402.51595,0.06829
6404.44442,0.07857
6406.37289,0.08080
6408.30135,0.09673
6410.22982,0.10104
6412.15829,0.08024
6414.08676,0.04739
6416.01523,0.02823
6417.94370,0.01674
6419.87217,0.00386
6421.80064,0.02509
6423.72910,0.09021
6425.65757,0.15861
6427.58604,0.16085
6429.51451,0.07347
6431.44298,0.00486
6433.37145,0.02619
6435.29992,0.04412
6437.22838,0.02777
6439.15685,0.03292
6441.08532,0.05524
6443.01379,0.04777
6444.94226,0.04048
6446.87073,0.08976
6448.79920,0.15977
6450.72766,0.20523
6452.65613,0.19991
6454.58460,0.14797
6456.51307,0.09963
6458.44154,0.07406
6460.37001,0.03402
6462.29848,-0.04022
6464.22695,-0.09685
6466.15541,-0.09156
6468.08388,-0.05743
6470.01235,-0.03979
6471.94082,-0.03192
6473.86929,0.01136
6475.79776,0.05318
6477.72623,0.02550
6479.65469,0.03008
6481.58316,0.12938
6483.51163,0.15911
6485.44010,0.07581
6487.36857,0.04629
6489.29704,0.10387
6491.22551,0.12576
6493.15398,0.11985
6495.08244,0.13854
6497.01091,0.11596
6498.93938,0.05711
6500.86785,0.03056
6502.79632,0.06175
6504.72479,0.13337
6506.65326,0.18560
6508.58172,0.15847
6510.51019,0.09271
6512.43866,0.08125
6514.36713,0.11204
6516.29560,0.12817
6518.22407,0.15482
6520.15254,0.20811
6522.08101,0.20645
6524.00947,0.13355
6525.93794,0.10099
6527.86641,0.09523
6529.79488,0.03918
6531.72335,-0.03668
6533.65182,-0.05991
6535.58029,-0.00799
6537.50875,0.02204
6539.43722,0.01219
6541.36569,0.06535
6543.29416,0.10921
6545.22263,0.06206
6547.15110,0.03074
6549.07957,0.05891
6551.00804,0.10183
6552.93650,0.11983
6554.86497,0.11067
6556.79344,0.12474
6558.72191,0.18621
6560.65038,0.22805
6562.57885,0.19355
6564.50732,0.11896
6566.43578,0.06712
6568.36425,0.05343
6570.29272,0.03690
6572.22119,-0.02092
6574.14966,-0.10703
6576.07813,-0.15687
6578.00660,-0.09893
6579.93507,0.03449
6581.86353,0.14288
6583.79200,0.14215
6585.72047,0.07761
6587.64894,0.07741
6589.57741,0.08180
6591.50588,0.02426
6593.43435,0.03280
6595.36281,0.13163
6597.29128,0.17267
6599.21975,0.13738
6601.14822,0.08735
6603.07669,0.06374
6605.00516,0.08066
6606.93363,0.12953
6608.86210,0.12664
6610.79056,0.01797
6612.71903,-0.06558
6614.64750,-0.03696
6616.57597,0.01065
6618.50444,0.05370
6620.43291,0.11824
6622.36138,0.12997
6624.28984,0.08181
6626.21831,0.05407
6628.14678,0.03885
6630.07525,0.05824
6632.00372,0.13824
6633.93219,0.15305
6635.86066,0.02843
6637.78912,-0.06011
6639.71759,0.01026
6641.64606,0.10555
6643.57453,0.11500
6645.50300,0.06738
6647.43147,0.01782
6649.35994,-0.00036
6651.28841,0.02454
6653.21687,0.09792
6655.14534,0.19361
6657.07381,0.23357
6659.00228,0.21280
6660.93075,0.15008
6662.85922,0.06288
6664.78769,0.03183
6666.71615,0.04333
6668.64462,0.03454
6670.57309,0.03953
6672.50156,0.10401
6674.43003,0.17294
6676.35850,0.19628
6678.28697,0.15940
6680.21544,0.09384
6682.14390,0.07570
6684.07237,0.11862
6686.00084,0.19260
6687.92931,0.24455
6689.85778,0.19350
6691.78625,0.05233
6693.71472,-0.04202
6695.64318,-0.01186
6697.57165,0.07282
6699.50012,0.16249
6701.42859,0.24580
6703.35706,0.22392
6705.28553,0.08372
6707.21400,-0.01292
6709.14247,0.02916
6711.07093,0.10588
6712.99940,0.16468
6714.92787,0.20696
6716.85634,0.21172
6718.78481,0.19061
6720.71328,0.14853
6722.64175,0.08128
6724.57021,0.02979
6726.49868,0.00432
6728.42715,-0.01367
6730.35562,0.02451
6732.28409,0.10837
6734.21256,0.15567
6736.14103,0.17535
6738.06950,0.18274
6739.99796,0.16159
6741.92643,0.14151
6743.85490,0.12127
6745.78337,0.09618
6747.71184,0.12073
6749.64031,0.16871
6751.56878,0.18379
6753.49724,0.17871
6755.42571,0.15222
6757.35418,0.13446
6759.28265,0.12604
6761.21112,0.06569
6763.13959,-0.00505
6765.06806,-0.05484
6766.99653,-0.09054
6768.92499,-0.05443
6770.85346,0.05436
6772.78193,0.13561
6774.71040,0.10853
6776.63887,0.00405
6778.56734,-0.06870
6780.49581,-0.07163
6782.42427,-0.03220
6784.35274,0.00743
6786.28121,0.03826
6788.20968,0.05640
6790.13815,0.06110
6792.06662,0.01494
6793.99509,-0.06941
6795.92355,-0.04893
6797.85202,0.07470
6799.78049,0.17923
6801.70896,0.20649
6803.63743,0.15714
6805.56590,0.12173
6807.49437,0.13938
6809.42284,0.15541
6811.35130,0.14971
6813.27977,0.15524
6815.20824,0.19016
6817.13671,0.17952
6819.06518,0.06523
6820.99365,-0.07777
6822.92212,-0.07160
6824.85058,0.09761
6826.77905,0.20279
6828.70752,0.20912
6830.63599,0.18834
6832.56446,0.14014
6834.49293,0.08162
6836.42140,0.07085
6838.34987,0.08646
6840.27833,0.05171
6842.20680,0.00220
6844.13527,0.01736
6846.06374,0.08763
6847.99221,0.13517
6849.92068,0.11519
6851.84915,0.08748
6853.77761,0.07549
6855.70608,0.05812
6857.63455,0.07040
6859.56302,0.13716
6861.49149,0.16004
6863.41996,0.04918
6865.34843,-0.03312
6867.27690,0.07070
6869.20536,0.19201
6871.13383,0.15882
6873.06230,0.06787
6874.99077,0.04590
6876.91924,0.03478
6878.84771,-0.00390
6880.77618,-0.00115
6882.70464,0.03816
6884.63311,0.02647
6886.56158,-0.01186
6888.49005,0.00491
6890.41852,0.06673
6892.34699,0.08431
6894.27546,0.06185
6896.20393,0.08926
6898.13239,0.11576
6900.06086,0.08364
6901.98933,0.06495
6903.91780,0.05309
6905.84627,0.02913
6907.77474,0.03850
6909.70321,0.08929
6911.63167,0.10846
6913.56014,-0.00578
6915.48861,-0.16089
6917.41708,-0.20506
6919.34555,-0.15772
6921.27402,-0.05698
6923.20249,0.08207
6925.13096,0.15347
6927.05942,0.11695
6928.98789,0.05832
6930.91636,0.08257
6932.84483,0.12692
6934.77330,0.07083
6936.70177,0.02607
6938.63024,0.07336
6940.55870,0.08716
6942.48717,0.02418
6944.41564,0.02588
6946.34411,0.07187
6948.27258,0.10384
6950.20105,0.15493
6952.12952,0.16000
6954.05799,0.07340
6955.98645,0.00059
6957.91492,0.05041
6959.84339,0.14230
6961.77186,0.11479
6963.70033,0.01834
6965.62880,-0.01022
6967.55727,0.04461
6969.48573,0.14369
6971.41420,0.22429
6973.34267,0.25496
6975.27114,0.22840
6977.19961,0.07452
6979.12808,-0.15878
6981.05655,-0.29351
6982.98501,-0.19561
6984.91348,0.04957
6986.84195,0.15232
6988.77042,0.07152
6990.69889,-0.02129
6992.62736,-0.10277
6994.55583,-0.14742
6996.48430,-0.08596
6998.41276,0.08066
7000.34123,0.26576
7002.26970,0.29927
7004.19817,0.19567
7006.12664,0.13453
7008.05511,0.12013
7009.98358,0.05711
7011.91204,-0.02915
7013.84051,-0.06100
7015.76898,-0.03064
7017.69745,-0.02219
7019.62592,-0.05687
7021.55439,-0.08550
7023.48286,-0.05701
7025.41133,0.01794
7027.33979,0.07403
7029.26826,0.06378
7031.19673,0.04698
7033.12520,0.09796
7035.05367,0.07069
7036.98214,-0.07975
7038.91061,-0.11576
7040.83907,-0.00686
7042.76754,0.03013
7044.69601,-0.04294
7046.62448,-0.01885
7048.55295,0.07264
7050.48142,0.14987
7052.40989,0.18561
7054.33836,0.07141
7056.26682,-0.11886
7058.19529,-0.12658
7060.12376,0.03782
7062.05223,0.15344
7063.98070,0.14594
7065.90917,0.07313
7067.83764,-0.01725
7069.76610,-0.11120
7071.69457,-0.15728
7073.62304,-0.15620
7075.55151,-0.11914
7077.47998,0.03472
7079.40845,0.30172
7081.33692,0.46802
7083.26539,0.39169
7085.19385,0.24656
7087.12232,0.17108
7089.05079,0.15031
7090.97926,0.05336
7092.90773,-0.06308
7094.83620,-0.07490
7096.76467,0.00082
7098.69313,0.14214
7100.62160,0.19927
7102.55007,0.13749
7104.47854,0.11299
7106.40701,0.11690
7108.33548,0.05074
7110.26395,-0.03535
7112.19242,-0.05896
7114.12088,0.02022
7116.04935,0.14478
7117.97782,0.20927
7119.90629,0.19536
7121.83476,0.12837
7123.76323,0.02463
7125.69170,-0.06263
7127.62016,-0.09389
7129.54863,-0.05743
7131.47710,0.03612
7133.40557,0.15185
7135.33404,0.19477
7137.26251,0.13515
7139.19098,0.08714
7141.11944,0.06735
7143.04791,0.00540
7144.97638,-0.00708
7146.90485,0.11377
7148.83332,0.25879
7150.76179,0.31215
7152.69026,0.19456
7154.61873,0.00450
7156.54719,-0.08696
7158.47566,-0.10909
7160.40413,-0.04338
7162.33260,0.10930
7164.26107,0.25133
7166.18954,0.30849
7168.11801,0.26174
7170.04647,0.22139
7171.97494,0.24167
7173.90341,0.23361
7175.83188,0.17873
7177.76035,0.14509
7179.68882,0.14217
7181.61729,0.10116
7183.54576,0.04368
7185.47422,0.01599
7187.40269,0.00380
7189.33116,0.05310
7191.25963,0.11187
7193.18810,0.03952
7195.11657,-0.07254
7197.04504,-0.10456
7198.97350,-0.06076
7200.90197,0.01025
7202.83044,0.05046
7204.75891,0.04224
7206.68738,0.02699
7208.61585,0.02794
7210.54432,0.05869
7212.47279,0.06352
7214.40125,0.00376
7216.32972,-0.02304
7218.25819,0.05560
7220.18666,0.11486
7222.11513,0.07177
7224.04360,-0.04703
7225.97207,-0.17336
7227.90053,-0.27857
7229.82900,-0.36324
7231.75747,-0.26557
7233.68594,0.01894
7235.61441,0.23903
7237.54288,0.29138
7239.47135,0.23436
7241.39982,0.18939
7243.32828,0.17795
7245.25675,0.16688
7247.18522,0.18753
7249.11369,0.21312
7251.04216,0.24157
7252.97063,0.34125
7254.89910,0.36076
7256.82756,0.31253
7258.75603,0.35062
7260.68450,0.41555
7262.61297,0.34274
7264.54144,0.16352
7266.46991,0.06809
7268.39838,0.11420
7270.32685,0.15609
7272.25531,0.06314
7274.18378,0.02072
7276.11225,0.12722
7278.04072,0.18396
7279.96919,0.05465
7281.89766,-0.07468
7283.82613,-0.02151
7285.75459,0.13181
7287.68306,0.20467
7289.61153,0.09642
7291.54000,-0.04799
7293.46847,-0.05661
7295.39694,0.05294
7297.32541,0.22410
7299.25387,0.30904
7301.18234,0.23947
7303.11081,0.22793
7305.03928,0.41444
7306.96775,0.59224
7308.89622,0.52510
7310.82469,0.30409
7312.75316,0.19763
7314.68162,0.19381
7316.61009,0.12952
7318.53856,-0.00216
7320.46703,-0.05577
7322.39550,-0.05167
7324.32397,-0.08443
7326.25244,-0.13946
7328.18090,-0.21174
7330.10937,-0.27004
7332.03784,-0.23948
7333.96631,-0.14262
7335.89478,-0.05773
7337.82325,-0.02837
7339.75172,0.01352
7341.68019,0.10873
7343.60865,0.09447
7345.53712,0.03554
7347.46559,0.05350
7349.39406,0.14062
7351.32253,0.17830
7353.25100,0.17962
7355.17947,0.25005
7357.10793,0.39654
7359.03640,0.39677
7360.96487,0.11933
7362.89334,-0.10234
7364.82181,-0.10792
7366.75028,0.03595
7368.67875,0.23106
7370.60722,0.24231
7372.53568,0.11315
7374.46415,0.03457
7376.39262,0.00623
7378.32109,0.01646
7380.24956,0.11652
7382.17803,0.21005
7384.10650,0.16248
7386.03496,0.07101
7387.96343,0.15896
7389.89190,0.34030
7391.82037,0.37924
7393.74884,0.28457
7395.67731,0.22956
7397.60578,0.22346
7399.53425,0.17674
7401.46271,0.13494
7403.39118,0.17847
7405.31965,0.20495
7407.24812,0.02274
7409.17659,-0.23536
7411.10506,-0.32672
7413.03353,-0.22374
7414.96199,-0.09251
7416.89046,0.00122
7418.81893,0.21294
7420.74740,0.36957
7422.67587,0.26987
7424.60434,0.14226
7426.53281,0.03670
7428.46128,-0.07596
7430.38974,-0.15696
7432.31821,-0.16696
7434.24668,-0.14053
7436.17515,-0.08491
7438.10362,-0.00525
7440.03209,0.08052
7441.96056,0.17389
7443.88902,0.23861
7445.81749,0.23715
7447.74596,0.21475
7449.67443,0.15946
7451.60290,-0.02778
7453.53137,-0.16591
7455.45984,-0.16731
7457.38831,-0.23217
7459.31677,-0.31485
7461.24524,-0.17263
7463.17371,0.17325
7465.10218,0.47931
7467.03065,0.41086
7468.95912,0.12821
7470.88759,0.04689
7472.81605,0.11365
7474.74452,0.14572
7476.67299,0.26683
7478.60146,0.39290
7480.52993,0.32072
7482.45840,0.13061
7484.38687,0.01417
7486.31533,-0.02996
7488.24380,-0.06626
7490.17227,-0.09318
7492.10074,-0.05643
7494.02921,0.02628
7495.95768,0.02806
7497.88615,-0.10236
