399.19301,-0.32426
401.12148,-0.06660
403.04995,-0.06151
404.97842,0.13804
406.90689,0.36520
408.83536,0.52240
410.76382,0.53085
412.69229,0.36904
414.62076,0.22588
416.54923,0.12312
418.47770,0.03490
420.40617,0.11167
422.33464,0.18493
424.26311,0.20189
426.19157,0.22722
428.12004,0.16274
430.04851,0.02268
431.97698,-0.02399
433.90545,-0.00030
435.83392,0.02683
437.76239,0.09241
439.69085,0.14769
441.61932,0.10043
443.54779,0.02758
445.47626,0.05475
447.40473,0.09954
449.33320,0.16237
451.26167,0.27493
453.19013,0.33651
455.11860,0.30511
457.04707,0.20727
458.97554,0.11533
460.90401,0.13477
462.83248,0.20826
464.76095,0.19290
466.68942,0.08148
468.61788,0.00880
470.54635,0.01411
472.47482,-0.00508
474.40329,-0.04921
476.33176,0.02424
478.26023,0.09974
480.18870,0.12291
482.11716,0.12191
484.04563,0.11420
485.97410,0.08812
487.90257,0.06423
489.83104,0.07309
491.75951,0.08396
493.68798,0.09723
495.61645,0.10920
497.54491,0.06259
499.47338,0.00448
501.40185,0.01944
503.33032,0.07096
505.25879,0.08171
507.18726,0.06056
509.11573,0.04359
511.04419,0.04624
512.97266,0.07228
514.90113,0.09646
516.82960,0.10238
518.75807,0.10593
520.68654,0.12832
522.61501,0.18437
524.54348,0.24510
526.47194,0.24528
528.40041,0.19498
530.32888,0.16451
532.25735,0.16222
534.18582,0.16044
536.11429,0.16807
538.04276,0.17450
539.97122,0.15584
541.89969,0.14410
543.82816,0.16063
545.75663,0.17696
547.68510,0.16817
549.61357,0.08651
551.54204,-0.08611
553.47051,-0.20795
555.39897,-0.14371
557.32744,0.00604
559.25591,0.07383
561.18438,0.07125
563.11285,0.06268
565.04132,0.05533
566.96979,0.06361
568.89825,0.09180
570.82672,0.10780
572.75519,0.10464
574.68366,0.09206
576.61213,0.07426
578.54060,0.06668
580.46907,0.09560
582.39754,0.14950
584.32600,0.17143
586.25447,0.15455
588.18294,0.13285
590.11141,0.12735
592.03988,0.13956
593.96835,0.13743
595.89682,0.11483
597.82528,0.10605
599.75375,0.11552
601.68222,0.12788
603.61069,0.13175
605.53916,0.12030
607.46763,0.11119
609.39610,0.11230
611.32456,0.10938
613.25303,0.10446
615.18150,0.11206
617.10997,0.12693
619.03844,0.12304
620.96691,0.10479
622.89538,0.09801
624.82385,0.10636
626.75231,0.12683
628.68078,0.14638
630.60925,0.14870
632.53772,0.13038
634.46619,0.09220
636.39466,0.07067
638.32313,0.09531
640.25159,0.12790
642.18006,0.14200
644.10853,0.14641
646.03700,0.12891
647.96547,0.10620
649.89394,0.11734
651.82241,0.15407
653.75088,0.17402
655.67934,0.15542
657.60781,0.12165
659.53628,0.09614
661.46475,0.09141
663.39322,0.10897
665.32169,0.12699
667.25016,0.14266
669.17862,0.16430
671.10709,0.15819
673.03556,0.13203
674.96403,0.12113
676.89250,0.12851
678.82097,0.12247
680.74944,0.10877
682.67791,0.11762
684.60637,0.14338
686.53484,0.15417
688.46331,0.14436
690.39178,0.13359
692.32025,0.12678
694.24872,0.12396
696.17719,0.13216
698.10565,0.14495
700.03412,0.14901
701.96259,0.14408
703.89106,0.13761
705.81953,0.13813
707.74800,0.16276
709.67647,0.25981
711.60494,0.36613
713.53340,0.31850
715.46187,0.18774
717.39034,0.13887
719.31881,0.14492
721.24728,0.14891
723.17575,0.14623
725.10422,0.14458
727.03268,0.14879
728.96115,0.14641
730.88962,0.13428
732.81809,0.12054
734.74656,0.10359
736.67503,0.08855
738.60350,0.09263
740.53197,0.10706
742.46043,0.11772
744.38890,0.12822
746.31737,0.13805
748.24584,0.14414
750.17431,0.14358
752.10278,0.13754
754.03125,0.12951
755.95971,0.11980
757.88818,0.11365
759.81665,0.12045
761.74512,0.13545
763.67359,0.14491
765.60206,0.14194
767.53053,0.13494
769.45900,0.14335
771.38746,0.15871
773.31593,0.15762
775.24440,0.14450
777.17287,0.13789
779.10134,0.14196
781.02981,0.14688
782.95828,0.14571
784.88674,0.13764
786.81521,0.13102
788.74368,0.12802
790.67215,0.12033
792.60062,0.11822
794.52909,0.13453
796.45756,0.15445
798.38602,0.16353
800.31449,0.16012
802.24296,0.14870
804.17143,0.14458
806.09990,0.14348
808.02837,0.13863
809.95684,0.14433
811.88531,0.15745
813.81377,0.16174
815.74224,0.15726
817.67071,0.15042
819.59918,0.13859
821.52765,0.12643
823.45612,0.12424
825.38459,0.12833
827.31305,0.13012
829.24152,0.13059
831.16999,0.13679
833.09846,0.14795
835.02693,0.15117
836.95540,0.14104
838.88387,0.13458
840.81234,0.13916
842.74080,0.14347
844.66927,0.14565
846.59774,0.14718
848.52621,0.14571
850.45468,0.13906
852.38315,0.13544
854.31162,0.14830
856.24008,0.16348
858.16855,0.15711
860.09702,0.13748
862.02549,0.13028
863.95396,0.13125
865.88243,0.12160
867.81090,0.11364
869.73937,0.11959
871.66783,0.13110
873.59630,0.14068
875.52477,0.14189
877.45324,0.14026
879.38171,0.14604
881.31018,0.15414
883.23865,0.15576
885.16711,0.15152
887.09558,0.15120
889.02405,0.15589
890.95252,0.15422
892.88099,0.14867
894.80946,0.15172
896.73793,0.15537
898.66640,0.14789
900.59486,0.13908
902.52333,0.13633
904.45180,0.13890
906.38027,0.14812
908.30874,0.15345
910.23721,0.14609
912.16568,0.13718
914.09414,0.13548
916.02261,0.13397
917.95108,0.12922
919.87955,0.13232
921.80802,0.14612
923.73649,0.15371
925.66496,0.14746
927.59343,0.14091
929.52189,0.14481
931.45036,0.15366
933.37883,0.15958
935.30730,0.16087
937.23577,0.15675
939.16424,0.14912
941.09271,0.14431
943.02117,0.14652
944.94964,0.15064
946.87811,0.14853
948.80658,0.14287
950.73505,0.13908
952.66352,0.13786
954.59199,0.13791
956.52045,0.13556
958.44892,0.13227
960.37739,0.12988
962.30586,0.12941
964.23433,0.13507
966.16280,0.14284
968.09127,0.14809
970.01974,0.15161
971.94820,0.15092
973.87667,0.14831
975.80514,0.14839
977.73361,0.14807
979.66208,0.14417
981.59055,0.13977
983.51902,0.13987
985.44748,0.14386
987.37595,0.14702
989.30442,0.14750
991.23289,0.14683
993.16136,0.14814
995.08983,0.15294
997.01830,0.15791
998.94677,0.15961
1000.87523,0.16105
1002.80370,0.16373
1004.73217,0.16312
1006.66064,0.16383
1008.58911,0.16792
1010.51758,0.16224
1012.44605,0.14957
1014.37451,0.14942
1016.30298,0.16250
1018.23145,0.16991
1020.15992,0.16356
1022.08839,0.15477
1024.01686,0.14998
1025.94533,0.14054
1027.87380,0.12523
1029.80226,0.12304
1031.73073,0.13509
1033.65920,0.13675
1035.58767,0.13013
1037.51614,0.13426
1039.44461,0.14538
1041.37308,0.15310
1043.30154,0.15709
1045.23001,0.15717
1047.15848,0.15488
1049.08695,0.15684
1051.01542,0.16172
1052.94389,0.16302
1054.87236,0.16130
1056.80083,0.16285
1058.72929,0.16765
1060.65776,0.16885
1062.58623,0.16824
1064.51470,0.16858
1066.44317,0.16510
1068.37164,0.15673
1070.30011,0.14610
1072.22857,0.13976
1074.15704,0.14405
1076.08551,0.15012
1078.01398,0.14982
1079.94245,0.14870
1081.87092,0.14968
1083.79939,0.15290
1085.72786,0.15680
1087.65632,0.15638
1089.58479,0.15110
1091.51326,0.14675
1093.44173,0.14700
1095.37020,0.14272
1097.29867,0.13466
1099.22714,0.14396
1101.15560,0.16653
1103.08407,0.17835
1105.01254,0.17717
1106.94101,0.17185
1108.86948,0.17104
1110.79795,0.17291
1112.72642,0.16837
1114.65489,0.16450
1116.58335,0.16683
1118.51182,0.16720
1120.44029,0.16269
1122.36876,0.16165
1124.29723,0.16704
1126.22570,0.16687
1128.15417,0.15985
1130.08263,0.16052
1132.01110,0.16465
1133.93957,0.15809
1135.86804,0.14893
1137.79651,0.14997
1139.72498,0.15886
1141.65345,0.16926
1143.58191,0.17401
1145.51038,0.16933
1147.43885,0.16387
1149.36732,0.16560
1151.29579,0.17239
1153.22426,0.17828
1155.15273,0.17548
1157.08120,0.16793
1159.00966,0.16585
1160.93813,0.16634
1162.86660,0.16809
1164.79507,0.17120
1166.72354,0.17082
1168.65201,0.16838
1170.58048,0.16584
1172.50894,0.16277
1174.43741,0.16097
1176.36588,0.16293
1178.29435,0.16705
1180.22282,0.16806
1182.15129,0.16553
1184.07976,0.15943
1186.00823,0.15324
1187.93669,0.15843
1189.86516,0.16904
1191.79363,0.16905
1193.72210,0.16277
1195.65057,0.15955
1197.57904,0.15870
1199.50751,0.15944
1201.43597,0.16130
1203.36444,0.16146
1205.29291,0.16084
1207.22138,0.16244
1209.14985,0.16458
1211.07832,0.16503
1213.00679,0.16420
1214.93526,0.16248
1216.86372,0.16133
1218.79219,0.16214
1220.72066,0.16357
1222.64913,0.16571
1224.57760,0.16974
1226.50607,0.17337
1228.43454,0.17410
1230.36300,0.17135
1232.29147,0.16566
1234.21994,0.15995
1236.14841,0.15661
1238.07688,0.15464
1240.00535,0.15525
1241.93382,0.16049
1243.86229,0.16576
1245.79075,0.16653
1247.71922,0.16307
1249.64769,0.15870
1251.57616,0.15725
1253.50463,0.16014
1255.43310,0.16518
1257.36157,0.16622
1259.29003,0.16138
1261.21850,0.15644
1263.14697,0.15487
1265.07544,0.15526
1267.00391,0.15758
1268.93238,0.16133
1270.86085,0.16351
1272.78932,0.16325
1274.71778,0.16209
1276.64625,0.16098
1278.57472,0.15995
1280.50319,0.15991
1282.43166,0.16191
1284.36013,0.16688
1286.28860,0.17308
1288.21706,0.17530
1290.14553,0.17269
1292.07400,0.16810
1294.00247,0.16505
1295.93094,0.16674
1297.85941,0.16896
1299.78788,0.16361
1301.71634,0.14874
1303.64481,0.13248
1305.57328,0.12998
1307.50175,0.14262
1309.43022,0.15580
1311.35869,0.16536
1313.28716,0.17261
1315.21563,0.17457
1317.14409,0.17352
1319.07256,0.17108
1321.00103,0.16786
1322.92950,0.16580
1324.85797,0.16358
1326.78644,0.16164
1328.71491,0.16200
1330.64337,0.16182
1332.57184,0.16117
1334.50031,0.16298
1336.42878,0.16508
1338.35725,0.16588
1340.28572,0.16667
1342.21419,0.18544
1344.14266,0.22116
1346.07112,0.22569
1347.99959,0.19034
1349.92806,0.16423
1351.85653,0.15997
1353.78500,0.16099
1355.71347,0.16243
1357.64194,0.16318
1359.57040,0.16591
1361.49887,0.17425
1363.42734,0.18144
1365.35581,0.17882
1367.28428,0.17474
1369.21275,0.17708
1371.14122,0.18210
1373.06969,0.18526
1374.99815,0.18433
1376.92662,0.18088
1378.85509,0.18019
1380.78356,0.18003
1382.71203,0.17744
1384.64050,0.17870
1386.56897,0.18410
1388.49743,0.18517
1390.42590,0.18508
1392.35437,0.18915
1394.28284,0.19046
1396.21131,0.18532
1398.13978,0.18547
1400.06825,0.18884
1401.99672,0.18766
1403.92518,0.18708
1405.85365,0.18780
1407.78212,0.18717
1409.71059,0.18733
1411.63906,0.18594
1413.56753,0.18193
1415.49600,0.18311
1417.42446,0.19189
1419.35293,0.19556
1421.28140,0.18867
1423.20987,0.18143
1425.13834,0.17677
1427.06681,0.17736
1428.99528,0.18444
1430.92375,0.19106
1432.85221,0.19048
1434.78068,0.18740
1436.70915,0.18431
1438.63762,0.18016
1440.56609,0.17823
1442.49456,0.17981
1444.42303,0.18224
1446.35149,0.18208
1448.27996,0.18089
1450.20843,0.18389
1452.13690,0.19182
1454.06537,0.20532
1455.99384,0.22621
1457.92231,0.22982
1459.85077,0.20729
1461.77924,0.19627
1463.70771,0.19963
1465.63618,0.20203
1467.56465,0.19755
1469.49312,0.20021
1471.42159,0.21441
1473.35006,0.22394
1475.27852,0.21551
1477.20699,0.20376
1479.13546,0.19417
1481.06393,0.18732
1482.99240,0.18662
1484.92087,0.19255
1486.84934,0.20264
1488.77780,0.21158
1490.70627,0.21011
1492.63474,0.20484
1494.56321,0.20590
1496.49168,0.21061
1498.42015,0.20800
1500.34862,0.20252
1502.27709,0.20460
1504.20555,0.21449
1506.13402,0.23034
1508.06249,0.22832
1509.99096,0.20935
1511.91943,0.19857
1513.84790,0.19922
1515.77637,0.20767
1517.70483,0.21747
1519.63330,0.22726
1521.56177,0.23200
1523.49024,0.22070
1525.41871,0.21025
1527.34718,0.20723
1529.27565,0.20507
1531.20412,0.20607
1533.13258,0.21081
1535.06105,0.21237
1536.98952,0.21679
1538.91799,0.23452
1540.84646,0.25138
1542.77493,0.23745
1544.70340,0.21409
1546.63186,0.19899
1548.56033,0.19679
1550.48880,0.19844
1552.41727,0.19934
1554.34574,0.20558
1556.27421,0.21787
1558.20268,0.23068
1560.13115,0.21763
1562.05961,0.20188
1563.98808,0.19880
1565.91655,0.20166
1567.84502,0.20661
1569.77349,0.20543
1571.70196,0.19796
1573.63043,0.19782
1575.55889,0.20175
1577.48736,0.19583
1579.41583,0.18517
1581.34430,0.17838
1583.27277,0.17700
1585.20124,0.17871
1587.12971,0.17862
1589.05818,0.17848
1590.98664,0.18186
1592.91511,0.18408
1594.84358,0.18039
1596.77205,0.17481
1598.70052,0.17394
1600.62899,0.17897
1602.55746,0.18486
1604.48592,0.18610
1606.41439,0.18488
1608.34286,0.18600
1610.27133,0.18819
1612.19980,0.18965
1614.12827,0.19328
1616.05674,0.19863
1617.98521,0.19772
1619.91367,0.19618
1621.84214,0.20110
1623.77061,0.20491
1625.69908,0.20276
1627.62755,0.19949
1629.55602,0.19432
1631.48449,0.19248
1633.41295,0.20135
1635.34142,0.21984
1637.26989,0.22317
1639.19836,0.21031
1641.12683,0.20264
1643.05530,0.20823
1644.98377,0.22891
1646.91223,0.25118
1648.84070,0.24747
1650.76917,0.24116
1652.69764,0.24427
1654.62611,0.22791
1656.55458,0.20838
1658.48305,0.20078
1660.41152,0.20119
1662.33998,0.20373
1664.26845,0.20278
1666.19692,0.20476
1668.12539,0.21468
1670.05386,0.22151
1671.98233,0.21511
1673.91080,0.20758
1675.83926,0.20405
1677.76773,0.20533
1679.69620,0.21049
1681.62467,0.21842
1683.55314,0.22684
1685.48161,0.22362
1687.41008,0.21626
1689.33855,0.21119
1691.26701,0.20583
1693.19548,0.20944
1695.12395,0.22917
1697.05242,0.24577
1698.98089,0.23968
1700.90936,0.22717
1702.83783,0.22257
1704.76629,0.22114
1706.69476,0.21442
1708.62323,0.20389
1710.55170,0.19811
1712.48017,0.20128
1714.40864,0.21272
1716.33711,0.22219
1718.26558,0.21381
1720.19404,0.20074
1722.12251,0.19544
1724.05098,0.19471
1725.97945,0.19547
1727.90792,0.19885
1729.83639,0.20255
1731.76486,0.20475
1733.69332,0.20929
1735.62179,0.20902
1737.55026,0.20635
1739.47873,0.20930
1741.40720,0.21271
1743.33567,0.21022
1745.26414,0.20576
1747.19261,0.20444
1749.12107,0.20609
1751.04954,0.20553
1752.97801,0.20150
1754.90648,0.19787
1756.83495,0.19636
1758.76342,0.19899
1760.69189,0.20366
1762.62035,0.20202
1764.54882,0.19858
1766.47729,0.20356
1768.40576,0.21199
1770.33423,0.21663
1772.26270,0.21917
1774.19117,0.21529
1776.11964,0.20497
1778.04810,0.19890
1779.97657,0.19986
1781.90504,0.19843
1783.83351,0.19435
1785.76198,0.19425
1787.69045,0.19763
1789.61892,0.20297
1791.54738,0.20722
1793.47585,0.20580
1795.40432,0.20177
1797.33279,0.19869
1799.26126,0.19796
1801.18973,0.19748
1803.11820,0.19376
1805.04666,0.19118
1806.97513,0.19443
1808.90360,0.20012
1810.83207,0.20025
1812.76054,0.19385
1814.68901,0.18890
1816.61748,0.18966
1818.54595,0.19349
1820.47441,0.19530
1822.40288,0.19463
1824.33135,0.19416
1826.25982,0.19580
1828.18829,0.19982
1830.11676,0.19968
1832.04523,0.19284
1833.97369,0.18973
1835.90216,0.19264
1837.83063,0.19526
1839.75910,0.19534
1841.68757,0.19658
1843.61604,0.19818
1845.54451,0.19436
1847.47298,0.18922
1849.40144,0.18795
1851.32991,0.18881
1853.25838,0.18986
1855.18685,0.19069
1857.11532,0.19071
1859.04379,0.18967
1860.97226,0.18825
1862.90072,0.18736
1864.82919,0.19025
1866.75766,0.19739
1868.68613,0.19972
1870.61460,0.19364
1872.54307,0.18840
1874.47154,0.18786
1876.40001,0.19115
1878.32847,0.19454
1880.25694,0.19435
1882.18541,0.19085
1884.11388,0.18813
1886.04235,0.18882
1887.97082,0.19062
1889.89929,0.18912
1891.82775,0.18541
1893.75622,0.18654
1895.68469,0.19149
1897.61316,0.19308
1899.54163,0.19175
1901.47010,0.19121
1903.39857,0.19181
1905.32704,0.19194
1907.25550,0.19066
1909.18397,0.18817
1911.11244,0.18529
1913.04091,0.18356
1914.96938,0.18470
1916.89785,0.18875
1918.82632,0.19334
1920.75478,0.19789
1922.68325,0.20144
1924.61172,0.20087
1926.54019,0.19820
1928.46866,0.19556
1930.39713,0.19249
1932.32560,0.19000
1934.25407,0.18929
1936.18253,0.19036
1938.11100,0.19182
1940.03947,0.19269
1941.96794,0.19204
1943.89641,0.18855
1945.82488,0.18654
1947.75335,0.18890
1949.68181,0.19117
1951.61028,0.19184
1953.53875,0.19217
1955.46722,0.19037
1957.39569,0.18787
1959.32416,0.18874
1961.25263,0.19177
1963.18110,0.19420
1965.10956,0.19585
1967.03803,0.19527
1968.96650,0.19288
1970.89497,0.19172
1972.82344,0.19151
1974.75191,0.19064
1976.68038,0.18993
1978.60884,0.19022
1980.53731,0.18927
1982.46578,0.18646
1984.39425,0.18601
1986.32272,0.18892
1988.25119,0.19067
1990.17966,0.19122
1992.10812,0.19378
1994.03659,0.19544
1995.96506,0.19403
1997.89353,0.19187
1999.82200,0.18969
2001.75047,0.18819
2003.67894,0.18828
2005.60741,0.18877
2007.53587,0.18906
2009.46434,0.18915
2011.39281,0.18921
2013.32128,0.18929
2015.24975,0.18899
2017.17822,0.18913
2019.10669,0.18966
2021.03515,0.19010
2022.96362,0.19160
2024.89209,0.19255
2026.82056,0.18963
2028.74903,0.18484
2030.67750,0.18230
2032.60597,0.18274
2034.53444,0.18522
2036.46290,0.18851
2038.39137,0.19136
2040.31984,0.19240
2042.24831,0.19202
2044.17678,0.19228
2046.10525,0.19277
2048.03372,0.19243
2049.96218,0.19127
2051.89065,0.18949
2053.81912,0.18765
2055.74759,0.18619
2057.67606,0.18727
2059.60453,0.19149
2061.53300,0.19402
2063.46147,0.19277
2065.38993,0.19116
2067.31840,0.19167
2069.24687,0.19280
2071.17534,0.19215
2073.10381,0.19165
2075.03228,0.19184
2076.96075,0.19024
2078.88921,0.18828
2080.81768,0.18789
2082.74615,0.18897
2084.67462,0.19070
2086.60309,0.19080
2088.53156,0.18906
2090.46003,0.18850
2092.38850,0.19016
2094.31696,0.19145
2096.24543,0.19115
2098.17390,0.19039
2100.10237,0.18932
2102.03084,0.18823
2103.95931,0.18842
2105.88778,0.18940
2107.81624,0.19083
2109.74471,0.19353
2111.67318,0.19441
2113.60165,0.19235
2115.53012,0.19162
2117.45859,0.19217
2119.38706,0.19294
2121.31553,0.19486
2123.24399,0.19537
2125.17246,0.19327
2127.10093,0.19118
2129.02940,0.19051
2130.95787,0.19070
2132.88634,0.19173
2134.81481,0.19445
2136.74327,0.19838
2138.67174,0.20047
2140.60021,0.19922
2142.52868,0.19613
2144.45715,0.19264
2146.38562,0.19071
2148.31409,0.19082
2150.24255,0.19041
2152.17102,0.18832
2154.09949,0.18656
2156.02796,0.18741
2157.95643,0.19038
2159.88490,0.19282
2161.81337,0.19342
2163.74184,0.19316
2165.67030,0.19328
2167.59877,0.19395
2169.52724,0.19350
2171.45571,0.19139
2173.38418,0.19076
2175.31265,0.19164
2177.24112,0.19027
2179.16958,0.18876
2181.09805,0.19042
2183.02652,0.19205
2184.95499,0.19272
2186.88346,0.19366
2188.81193,0.19256
2190.74040,0.19028
2192.66887,0.19060
2194.59733,0.19292
2196.52580,0.19452
2198.45427,0.19443
2200.38274,0.19169
2202.31121,0.18752
2204.23968,0.18568
2206.16815,0.18546
2208.09661,0.18368
2210.02508,0.18282
2211.95355,0.18624
2213.88202,0.19053
2215.81049,0.19211
2217.73896,0.19263
2219.66743,0.19365
2221.59590,0.19297
2223.52436,0.18965
2225.45283,0.18719
2227.38130,0.18860
2229.30977,0.19263
2231.23824,0.19424
2233.16671,0.19117
2235.09518,0.18742
2237.02364,0.18602
2238.95211,0.18667
2240.88058,0.18920
2242.80905,0.19118
2244.73752,0.18834
2246.66599,0.18358
2248.59446,0.18387
2250.52293,0.18800
2252.45139,0.19064
2254.37986,0.19073
2256.30833,0.19051
2258.23680,0.19122
2260.16527,0.19233
2262.09374,0.19422
2264.02221,0.19621
2265.95067,0.19681
2267.87914,0.19713
2269.80761,0.19727
2271.73608,0.19562
2273.66455,0.19310
2275.59302,0.19166
2277.52149,0.19169
2279.44996,0.19194
2281.37842,0.19107
2283.30689,0.19028
2285.23536,0.19074
2287.16383,0.19074
2289.09230,0.19012
2291.02077,0.19093
2292.94924,0.19309
2294.87770,0.19363
2296.80617,0.19112
2298.73464,0.18957
2300.66311,0.19131
2302.59158,0.19464
2304.52005,0.19840
2306.44852,0.20055
2308.37699,0.20051
2310.30545,0.19888
2312.23392,0.19708
2314.16239,0.19820
2316.09086,0.19812
2318.01933,0.19190
2319.94780,0.18509
2321.87627,0.18352
2323.80473,0.18618
2325.73320,0.19288
2327.66167,0.20322
2329.59014,0.20800
2331.51861,0.20392
2333.44708,0.20120
2335.37555,0.19887
2337.30401,0.19774
2339.23248,0.20562
2341.16095,0.21286
2343.08942,0.21157
2345.01789,0.20903
2346.94636,0.20984
2348.87483,0.21288
2350.80330,0.21465
2352.73176,0.21129
2354.66023,0.21033
2356.58870,0.22362
2358.51717,0.23634
2360.44564,0.23081
2362.37411,0.22042
2364.30258,0.22275
2366.23104,0.22847
2368.15951,0.22515
2370.08798,0.21486
2372.01645,0.20288
2373.94492,0.19712
2375.87339,0.19667
2377.80186,0.19336
2379.73033,0.18845
2381.65879,0.18812
2383.58726,0.19222
2385.51573,0.19394
2387.44420,0.19100
2389.37267,0.18853
2391.30114,0.18740
2393.22961,0.18795
2395.15807,0.19230
2397.08654,0.19610
2399.01501,0.19542
2400.94348,0.19264
2402.87195,0.19110
2404.80042,0.19198
2406.72889,0.19478
2408.65736,0.19608
2410.58582,0.19319
2412.51429,0.18885
2414.44276,0.18721
2416.37123,0.18862
2418.29970,0.19093
2420.22817,0.19271
2422.15664,0.19225
2424.08510,0.19047
2426.01357,0.19113
2427.94204,0.19305
2429.87051,0.19247
2431.79898,0.19238
2433.72745,0.19463
2435.65592,0.19440
2437.58439,0.19335
2439.51285,0.19515
2441.44132,0.19744
2443.36979,0.19785
2445.29826,0.19670
2447.22673,0.19712
2449.15520,0.20149
2451.08367,0.20869
2453.01213,0.21231
2454.94060,0.20667
2456.86907,0.19731
2458.79754,0.19371
2460.72601,0.19567
2462.65448,0.19669
2464.58295,0.19469
2466.51142,0.19253
2468.43988,0.19236
2470.36835,0.19305
2472.29682,0.19426
2474.22529,0.19631
2476.15376,0.19748
2478.08223,0.19699
2480.01070,0.19396
2481.93916,0.18930
2483.86763,0.18711
2485.79610,0.18770
2487.72457,0.18815
2489.65304,0.18876
2491.58151,0.19021
2493.50998,0.19148
2495.43844,0.19447
2497.36691,0.19902
2499.29538,0.19961
2501.22385,0.19612
2503.15232,0.19468
2505.08079,0.19508
2507.00926,0.19398
2508.93773,0.19349
2510.86619,0.19402
2512.79466,0.19351
2514.72313,0.19215
2516.65160,0.19046
2518.58007,0.18910
2520.50854,0.18962
2522.43701,0.19265
2524.36547,0.19541
2526.29394,0.19597
2528.22241,0.19630
2530.15088,0.19635
2532.07935,0.19475
2534.00782,0.19312
2535.93629,0.19328
2537.86476,0.19421
2539.79322,0.19495
2541.72169,0.19653
2543.65016,0.19895
2545.57863,0.19998
2547.50710,0.19778
2549.43557,0.19340
2551.36404,0.19000
2553.29250,0.19112
2555.22097,0.19599
2557.14944,0.19913
2559.07791,0.19892
2561.00638,0.19834
2562.93485,0.19844
2564.86332,0.19786
2566.79179,0.19643
2568.72025,0.19387
2570.64872,0.19190
2572.57719,0.19407
2574.50566,0.19794
2576.43413,0.19940
2578.36260,0.19706
2580.29107,0.19260
2582.21953,0.19143
2584.14800,0.19378
2586.07647,0.19546
2588.00494,0.19578
2589.93341,0.19490
2591.86188,0.19228
2593.79035,0.18982
2595.71882,0.18955
2597.64728,0.19145
2599.57575,0.19382
2601.50422,0.19439
2603.43269,0.19371
2605.36116,0.19307
2607.28963,0.19371
2609.21810,0.19673
2611.14656,0.19925
2613.07503,0.19968
2615.00350,0.19980
2616.93197,0.19843
2618.86044,0.19514
2620.78891,0.19346
2622.71738,0.19486
2624.64585,0.19700
2626.57431,0.19768
2628.50278,0.19752
2630.43125,0.19841
2632.35972,0.19996
2634.28819,0.20112
2636.21666,0.20127
2638.14513,0.20029
2640.07359,0.19989
2642.00206,0.20083
2643.93053,0.20248
2645.85900,0.20369
2647.78747,0.20173
2649.71594,0.19757
2651.64441,0.19590
2653.57288,0.19610
2655.50134,0.19561
2657.42981,0.19646
2659.35828,0.19868
2661.28675,0.19893
2663.21522,0.19708
2665.14369,0.19651
2667.07216,0.19942
2669.00062,0.20326
2670.92909,0.20390
2672.85756,0.20113
2674.78603,0.19832
2676.71450,0.19848
2678.64297,0.20077
2680.57144,0.20211
2682.49990,0.20221
2684.42837,0.20256
2686.35684,0.20276
2688.28531,0.20204
2690.21378,0.19971
2692.14225,0.19675
2694.07072,0.19653
2695.99919,0.19795
2697.92765,0.19908
2699.85612,0.20203
2701.78459,0.20514
2703.71306,0.20563
2705.64153,0.20458
2707.57000,0.20244
2709.49847,0.20113
2711.42693,0.20223
2713.35540,0.20098
2715.28387,0.19675
2717.21234,0.19622
2719.14081,0.20005
2721.06928,0.20211
2722.99775,0.19993
2724.92622,0.19787
2726.85468,0.19913
2728.78315,0.20238
2730.71162,0.20618
2732.64009,0.20840
2734.56856,0.20610
2736.49703,0.20106
2738.42550,0.19922
2740.35396,0.20108
2742.28243,0.20312
2744.21090,0.20400
2746.13937,0.20125
2748.06784,0.19645
2749.99631,0.19705
2751.92478,0.20220
2753.85325,0.20274
2755.78171,0.19939
2757.71018,0.20061
2759.63865,0.20389
2761.56712,0.20363
2763.49559,0.20295
2765.42406,0.20215
2767.35253,0.19963
2769.28099,0.19858
2771.20946,0.19913
2773.13793,0.20028
2775.06640,0.20311
2776.99487,0.20503
2778.92334,0.20480
2780.85181,0.20503
2782.78028,0.20460
2784.70874,0.20173
2786.63721,0.20115
2788.56568,0.20448
2790.49415,0.20536
2792.42262,0.20481
2794.35109,0.20677
2796.27956,0.20744
2798.20802,0.20743
2800.13649,0.20970
2802.06496,0.21079
2803.99343,0.20993
2805.92190,0.20994
2807.85037,0.20978
2809.77884,0.20763
2811.70731,0.20440
2813.63577,0.20166
2815.56424,0.20044
2817.49271,0.20191
2819.42118,0.20657
2821.34965,0.21124
2823.27812,0.21324
2825.20659,0.21231
2827.13505,0.20831
2829.06352,0.20468
2830.99199,0.20435
2832.92046,0.20674
2834.84893,0.20873
2836.77740,0.20634
2838.70587,0.20148
2840.63433,0.19957
2842.56280,0.20253
2844.49127,0.20670
2846.41974,0.20721
2848.34821,0.20408
2850.27668,0.19968
2852.20515,0.19678
2854.13362,0.19757
2856.06208,0.19951
2857.99055,0.19992
2859.91902,0.20133
2861.84749,0.20509
2863.77596,0.20737
2865.70443,0.20676
2867.63290,0.20704
2869.56136,0.20809
2871.48983,0.20704
2873.41830,0.20632
2875.34677,0.20897
2877.27524,0.21405
2879.20371,0.21800
2881.13218,0.21715
2883.06065,0.21220
2884.98911,0.20575
2886.91758,0.20065
2888.84605,0.20067
2890.77452,0.20450
2892.70299,0.20575
2894.63146,0.20255
2896.55993,0.20000
2898.48839,0.20159
2900.41686,0.20532
2902.34533,0.20628
2904.27380,0.20114
2906.20227,0.19442
2908.13074,0.19271
2910.05921,0.19613
2911.98768,0.20046
2913.91614,0.19854
2915.84461,0.19089
2917.77308,0.18957
2919.70155,0.19496
2921.63002,0.19905
2923.55849,0.20025
2925.48696,0.19745
2927.41542,0.19662
2929.34389,0.20035
2931.27236,0.19934
2933.20083,0.19508
2935.12930,0.19283
2937.05777,0.19099
2938.98624,0.19257
2940.91471,0.19909
2942.84317,0.20497
2944.77164,0.20289
2946.70011,0.19284
2948.62858,0.18726
2950.55705,0.19208
2952.48552,0.19914
2954.41399,0.20039
2956.34245,0.19373
2958.27092,0.18846
2960.19939,0.19376
2962.12786,0.20354
2964.05633,0.20791
2965.98480,0.20370
2967.91327,0.19746
2969.84174,0.20112
2971.77020,0.21270
2973.69867,0.21793
2975.62714,0.21145
2977.55561,0.20011
2979.48408,0.19591
2981.41255,0.20239
2983.34102,0.20992
2985.26948,0.21033
2987.19795,0.20580
2989.12642,0.20684
2991.05489,0.21545
2992.98336,0.22135
2994.91183,0.22121
2996.84030,0.21884
2998.76877,0.21524
3000.69723,0.21149
3002.62570,0.21113
3004.55417,0.21379
3006.48264,0.21282
3008.41111,0.20350
3010.33958,0.18895
3012.26805,0.17122
3014.19651,0.14579
3016.12498,0.12629
3018.05345,0.14126
3019.98192,0.18125
3021.91039,0.20988
3023.83886,0.21975
3025.76733,0.22052
3027.69579,0.21561
3029.62426,0.20953
3031.55273,0.20792
3033.48120,0.21125
3035.40967,0.21266
3037.33814,0.20971
3039.26661,0.20881
3041.19508,0.21231
3043.12354,0.21491
3045.05201,0.21105
3046.98048,0.20406
3048.90895,0.20221
3050.83742,0.20545
3052.76589,0.20862
3054.69436,0.20681
3056.62282,0.19909
3058.55129,0.19637
3060.47976,0.20370
3062.40823,0.21118
3064.33670,0.21133
3066.26517,0.20717
3068.19364,0.20808
3070.12211,0.21274
3072.05057,0.21231
3073.97904,0.20548
3075.90751,0.19823
3077.83598,0.19969
3079.76445,0.20747
3081.69292,0.20865
3083.62139,0.19695
3085.54985,0.18666
3087.47832,0.19699
3089.40679,0.21363
3091.33526,0.21063
3093.26373,0.19374
3095.19220,0.18858
3097.12067,0.20046
3099.04914,0.20998
3100.97760,0.20549
3102.90607,0.19391
3104.83454,0.19229
3106.76301,0.20354
3108.69148,0.21189
3110.61995,0.20898
3112.54842,0.20139
3114.47688,0.20185
3116.40535,0.20978
3118.33382,0.21242
3120.26229,0.20653
3122.19076,0.20097
3124.11923,0.20261
3126.04770,0.20598
3127.97617,0.20704
3129.90463,0.20815
3131.83310,0.21198
3133.76157,0.21537
3135.69004,0.21034
3137.61851,0.20398
3139.54698,0.20686
3141.47545,0.21306
3143.40391,0.21589
3145.33238,0.21638
3147.26085,0.21379
3149.18932,0.20990
3151.11779,0.21067
3153.04626,0.21427
3154.97473,0.21575
3156.90320,0.21602
3158.83166,0.21778
3160.76013,0.21787
3162.68860,0.21137
3164.61707,0.20545
3166.54554,0.20772
3168.47401,0.21415
3170.40248,0.21919
3172.33094,0.21903
3174.25941,0.21665
3176.18788,0.21916
3178.11635,0.22263
3180.04482,0.21884
3181.97329,0.21308
3183.90176,0.21449
3185.83022,0.21697
3187.75869,0.21469
3189.68716,0.21414
3191.61563,0.21647
3193.54410,0.21846
3195.47257,0.22072
3197.40104,0.22274
3199.32951,0.22302
3201.25797,0.22337
3203.18644,0.22388
3205.11491,0.22217
3207.04338,0.22083
3208.97185,0.22104
3210.90032,0.21961
3212.82879,0.21722
3214.75725,0.21740
3216.68572,0.21957
3218.61419,0.22170
3220.54266,0.22452
3222.47113,0.22508
3224.39960,0.22154
3226.32807,0.21725
3228.25654,0.21395
3230.18500,0.21345
3232.11347,0.21595
3234.04194,0.21761
3235.97041,0.21606
3237.89888,0.21308
3239.82735,0.21192
3241.75582,0.21409
3243.68428,0.21572
3245.61275,0.21236
3247.54122,0.20849
3249.46969,0.20888
3251.39816,0.21084
3253.32663,0.21179
3255.25510,0.21189
3257.18357,0.21013
3259.11203,0.20760
3261.04050,0.20901
3262.96897,0.21364
3264.89744,0.21702
3266.82591,0.21734
3268.75438,0.21559
3270.68285,0.21526
3272.61131,0.21531
3274.53978,0.21251
3276.46825,0.20996
3278.39672,0.21004
3280.32519,0.20870
3282.25366,0.20548
3284.18213,0.20568
3286.11060,0.20942
3288.03906,0.21264
3289.96753,0.21143
3291.89600,0.20707
3293.82447,0.20794
3295.75294,0.21364
3297.68141,0.21535
3299.60988,0.21104
3301.53834,0.20720
3303.46681,0.20700
3305.39528,0.20667
3307.32375,0.20741
3309.25222,0.20883
3311.18069,0.20610
3313.10916,0.20247
3315.03763,0.20152
3316.96609,0.20213
3318.89456,0.20595
3320.82303,0.21225
3322.75150,0.21386
3324.67997,0.21243
3326.60844,0.21564
3328.53691,0.21849
3330.46537,0.21502
3332.39384,0.21204
3334.32231,0.21534
3336.25078,0.22046
3338.17925,0.22272
3340.10772,0.22295
3342.03619,0.22230
3343.96466,0.22074
3345.89312,0.22027
3347.82159,0.22183
3349.75006,0.22202
3351.67853,0.21861
3353.60700,0.21446
3355.53547,0.21200
3357.46394,0.21084
3359.39240,0.21345
3361.32087,0.21927
3363.24934,0.22192
3365.17781,0.22170
3367.10628,0.22282
3369.03475,0.22393
3370.96322,0.22080
3372.89168,0.21369
3374.82015,0.21069
3376.74862,0.21478
3378.67709,0.21655
3380.60556,0.21267
3382.53403,0.21123
3384.46250,0.21490
3386.39097,0.21780
3388.31943,0.21812
3390.24790,0.21926
3392.17637,0.22184
3394.10484,0.22703
3396.03331,0.23025
3397.96178,0.22263
3399.89025,0.21302
3401.81871,0.21110
3403.74718,0.21329
3405.67565,0.21962
3407.60412,0.22500
3409.53259,0.22015
3411.46106,0.21160
3413.38953,0.20966
3415.31800,0.20953
3417.24646,0.20549
3419.17493,0.20565
3421.10340,0.21168
3423.03187,0.21399
3424.96034,0.21258
3426.88881,0.20976
3428.81728,0.20452
3430.74574,0.19975
3432.67421,0.19965
3434.60268,0.20187
3436.53115,0.20152
3438.45962,0.20183
3440.38809,0.20442
3442.31656,0.20438
3444.24503,0.20265
3446.17349,0.20246
3448.10196,0.20018
3450.03043,0.19700
3451.95890,0.19930
3453.88737,0.20269
3455.81584,0.20062
3457.74431,0.19560
3459.67277,0.19405
3461.60124,0.19674
3463.52971,0.19729
3465.45818,0.19453
3467.38665,0.19247
3469.31512,0.19371
3471.24359,0.19759
3473.17206,0.19862
3475.10052,0.19406
3477.02899,0.18822
3478.95746,0.18602
3480.88593,0.18852
3482.81440,0.19236
3484.74287,0.19286
3486.67134,0.19109
3488.59980,0.19050
3490.52827,0.19156
3492.45674,0.19229
3494.38521,0.18915
3496.31368,0.18303
3498.24215,0.17919
3500.17062,0.18070
3502.09909,0.18489
3504.02755,0.18219
3505.95602,0.17572
3507.88449,0.17843
3509.81296,0.18352
3511.74143,0.17915
3513.66990,0.17261
3515.59837,0.17141
3517.52683,0.17343
3519.45530,0.17484
3521.38377,0.17672
3523.31224,0.18132
3525.24071,0.18467
3527.16918,0.18415
3529.09765,0.17960
3531.02611,0.17307
3532.95458,0.16918
3534.88305,0.16844
3536.81152,0.16887
3538.73999,0.16840
3540.66846,0.16802
3542.59693,0.17040
3544.52540,0.17310
3546.45386,0.17184
3548.38233,0.16924
3550.31080,0.16781
3552.23927,0.16577
3554.16774,0.16577
3556.09621,0.16680
3558.02468,0.16577
3559.95314,0.16631
3561.88161,0.16741
3563.81008,0.16851
3565.73855,0.17600
3567.66702,0.18199
3569.59549,0.17492
3571.52396,0.16627
3573.45243,0.16131
3575.38089,0.15771
3577.30936,0.15572
3579.23783,0.15636
3581.16630,0.15853
3583.09477,0.16152
3585.02324,0.16818
3586.95171,0.17668
3588.88017,0.17602
3590.80864,0.17088
3592.73711,0.16923
3594.66558,0.16684
3596.59405,0.16019
3598.52252,0.15592
3600.45099,0.15551
3602.37946,0.15386
3604.30792,0.15596
3606.23639,0.16524
3608.16486,0.17154
3610.09333,0.16921
3612.02180,0.16757
3613.95027,0.16652
3615.87874,0.16233
3617.80720,0.15805
3619.73567,0.15512
3621.66414,0.15328
3623.59261,0.15234
3625.52108,0.15546
3627.44955,0.16377
3629.37802,0.16588
3631.30649,0.15697
3633.23495,0.14580
3635.16342,0.13670
3637.09189,0.13697
3639.02036,0.14364
3640.94883,0.14662
3642.87730,0.14497
3644.80577,0.14701
3646.73423,0.15765
3648.66270,0.16839
3650.59117,0.15971
3652.51964,0.14663
3654.44811,0.14136
3656.37658,0.13975
3658.30505,0.13804
3660.23352,0.13575
3662.16198,0.13352
3664.09045,0.13328
3666.01892,0.13594
3667.94739,0.14117
3669.87586,0.14846
3671.80433,0.15305
3673.73280,0.15455
3675.66126,0.15182
3677.58973,0.14676
3679.51820,0.14456
3681.44667,0.14181
3683.37514,0.14004
3685.30361,0.14139
3687.23208,0.14385
3689.16055,0.14694
3691.08901,0.14592
3693.01748,0.13973
3694.94595,0.13527
3696.87442,0.13322
3698.80289,0.13380
3700.73136,0.13785
3702.65983,0.13893
3704.58829,0.13571
3706.51676,0.13519
3708.44523,0.13933
3710.37370,0.14644
3712.30217,0.14542
3714.23064,0.13649
3716.15911,0.13467
3718.08757,0.14126
3720.01604,0.14806
3721.94451,0.14691
3723.87298,0.14143
3725.80145,0.14054
3727.72992,0.14254
3729.65839,0.14553
3731.58686,0.15156
3733.51532,0.15982
3735.44379,0.16575
3737.37226,0.15922
3739.30073,0.14417
3741.22920,0.13465
3743.15767,0.13687
3745.08614,0.14440
3747.01460,0.14713
3748.94307,0.15279
3750.87154,0.15727
3752.80001,0.14628
3754.72848,0.13719
3756.65695,0.14158
3758.58542,0.15296
3760.51389,0.15297
3762.44235,0.14429
3764.37082,0.14243
3766.29929,0.14423
3768.22776,0.14200
3770.15623,0.13847
3772.08470,0.13358
3774.01317,0.12781
3775.94163,0.12634
3777.87010,0.12940
3779.79857,0.12974
3781.72704,0.12891
3783.65551,0.13316
3785.58398,0.13654
3787.51245,0.13227
3789.44092,0.12440
3791.36938,0.11766
3793.29785,0.11701
3795.22632,0.12914
3797.15479,0.14559
3799.08326,0.15179
3801.01173,0.15136
3802.94020,0.14623
3804.86866,0.14272
3806.79713,0.13999
3808.72560,0.13139
3810.65407,0.12444
3812.58254,0.12336
3814.51101,0.12671
3816.43948,0.13180
3818.36795,0.13773
3820.29641,0.14420
3822.22488,0.14284
3824.15335,0.13889
3826.08182,0.13620
3828.01029,0.13081
3829.93876,0.12940
3831.86723,0.13199
3833.79569,0.12869
3835.72416,0.12418
3837.65263,0.13190
3839.58110,0.14643
3841.50957,0.14973
3843.43804,0.14107
3845.36651,0.12947
3847.29498,0.12601
3849.22344,0.13511
3851.15191,0.15320
3853.08038,0.16430
3855.00885,0.14708
3856.93732,0.12800
3858.86579,0.11765
3860.79426,0.11701
3862.72272,0.12372
3864.65119,0.12602
3866.57966,0.12577
3868.50813,0.12952
3870.43660,0.13030
3872.36507,0.12708
3874.29354,0.12489
3876.22200,0.12264
3878.15047,0.12102
3880.07894,0.12202
3882.00741,0.12496
3883.93588,0.12700
3885.86435,0.12569
3887.79282,0.12111
3889.72129,0.11728
3891.64975,0.11498
3893.57822,0.11336
3895.50669,0.11254
3897.43516,0.11428
3899.36363,0.12262
3901.29210,0.13895
3903.22057,0.14908
3905.14903,0.13697
3907.07750,0.12080
3909.00597,0.11733
3910.93444,0.11969
3912.86291,0.11934
3914.79138,0.11315
3916.71985,0.10406
3918.64832,0.10371
3920.57678,0.11155
3922.50525,0.11298
3924.43372,0.10662
3926.36219,0.10463
3928.29066,0.10979
3930.21913,0.11564
3932.14760,0.11944
3934.07606,0.11721
3936.00453,0.10659
3937.93300,0.09802
3939.86147,0.10230
3941.78994,0.11362
3943.71841,0.11850
3945.64688,0.11664
3947.57535,0.11483
3949.50381,0.11420
3951.43228,0.11537
3953.36075,0.11656
3955.28922,0.11358
3957.21769,0.10751
3959.14616,0.10228
3961.07463,0.10026
3963.00309,0.10378
3964.93156,0.10972
3966.86003,0.11107
3968.78850,0.10913
3970.71697,0.10888
3972.64544,0.10905
3974.57391,0.10670
3976.50238,0.10486
3978.43084,0.10692
3980.35931,0.11036
3982.28778,0.11307
3984.21625,0.11414
3986.14472,0.11294
3988.07319,0.11181
3990.00166,0.11219
3991.93012,0.11240
3993.85859,0.11173
3995.78706,0.11052
3997.71553,0.10935
3999.64400,0.11036
4001.57247,0.11129
4003.50094,0.11101
4005.42941,0.11321
4007.35787,0.11299
4009.28634,0.10685
4011.21481,0.10503
4013.14328,0.11048
4015.07175,0.11081
4017.00022,0.10213
4018.92869,0.09652
4020.85715,0.09975
4022.78562,0.10239
4024.71409,0.10015
4026.64256,0.09833
4028.57103,0.09877
4030.49950,0.10217
4032.42797,0.10581
4034.35644,0.10587
4036.28490,0.10493
4038.21337,0.10447
4040.14184,0.10489
4042.07031,0.10490
4043.99878,0.10165
4045.92725,0.09796
4047.85572,0.09817
4049.78418,0.10018
4051.71265,0.10025
4053.64112,0.09762
4055.56959,0.09368
4057.49806,0.09383
4059.42653,0.09877
4061.35500,0.09930
4063.28346,0.09305
4065.21193,0.08958
4067.14040,0.09189
4069.06887,0.09479
4070.99734,0.09601
4072.92581,0.09712
4074.85428,0.09954
4076.78275,0.10072
4078.71121,0.09862
4080.63968,0.09273
4082.56815,0.08879
4084.49662,0.09199
4086.42509,0.09488
4088.35356,0.09413
4090.28203,0.09123
4092.21049,0.09023
4094.13896,0.09600
4096.06743,0.09985
4097.99590,0.09361
4099.92437,0.08249
4101.85284,0.07765
4103.78131,0.08379
4105.70978,0.09364
4107.63824,0.09872
4109.56671,0.09826
4111.49518,0.09705
4113.42365,0.09596
4115.35212,0.09362
4117.28059,0.09317
4119.20906,0.09463
4121.13752,0.09562
4123.06599,0.09461
4124.99446,0.08922
4126.92293,0.08583
4128.85140,0.09030
4130.77987,0.09521
4132.70834,0.09457
4134.63681,0.09077
4136.56527,0.08746
4138.49374,0.08380
4140.42221,0.07951
4142.35068,0.07959
4144.27915,0.08129
4146.20762,0.07551
4148.13609,0.06748
4150.06455,0.06728
4151.99302,0.07241
4153.92149,0.07873
4155.84996,0.08340
4157.77843,0.08402
4159.70690,0.08475
4161.63537,0.08945
4163.56384,0.09364
4165.49230,0.09196
4167.42077,0.08833
4169.34924,0.08779
4171.27771,0.08844
4173.20618,0.08684
4175.13465,0.08387
4177.06312,0.08255
4178.99158,0.08346
4180.92005,0.08649
4182.84852,0.08935
4184.77699,0.08654
4186.70546,0.07923
4188.63393,0.07645
4190.56240,0.07642
4192.49087,0.07282
4194.41933,0.07203
4196.34780,0.07579
4198.27627,0.07875
4200.20474,0.07987
4202.13321,0.07992
4204.06168,0.08029
4205.99015,0.08138
4207.91861,0.08221
4209.84708,0.08222
4211.77555,0.08192
4213.70402,0.07996
4215.63249,0.07536
4217.56096,0.07203
4219.48943,0.07062
4221.41789,0.07050
4223.34636,0.07437
4225.27483,0.07672
4227.20330,0.07388
4229.13177,0.07240
4231.06024,0.06987
4232.98871,0.06355
4234.91718,0.06100
4236.84564,0.06292
4238.77411,0.06509
4240.70258,0.06721
4242.63105,0.06937
4244.55952,0.07066
4246.48799,0.06918
4248.41646,0.06650
4250.34492,0.06716
4252.27339,0.07015
4254.20186,0.07302
4256.13033,0.07538
4258.05880,0.07304
4259.98727,0.06458
4261.91574,0.05669
4263.84421,0.05352
4265.77267,0.05450
4267.70114,0.05829
4269.62961,0.06040
4271.55808,0.05860
4273.48655,0.05567
4275.41502,0.05333
4277.34349,0.05358
4279.27195,0.05745
4281.20042,0.06092
4283.12889,0.06399
4285.05736,0.06832
4286.98583,0.06828
4288.91430,0.06382
4290.84277,0.06145
4292.77124,0.06256
4294.69970,0.06440
4296.62817,0.06252
4298.55664,0.05728
4300.48511,0.05495
4302.41358,0.05443
4304.34205,0.05186
4306.27052,0.05174
4308.19898,0.05269
4310.12745,0.04928
4312.05592,0.04450
4313.98439,0.03989
4315.91286,0.03569
4317.84133,0.03540
4319.76980,0.03892
4321.69827,0.04213
4323.62673,0.04672
4325.55520,0.05453
4327.48367,0.05923
4329.41214,0.05831
4331.34061,0.05432
4333.26908,0.04954
4335.19755,0.04676
4337.12601,0.04778
4339.05448,0.05173
4340.98295,0.05583
4342.91142,0.05628
4344.83989,0.05011
4346.76836,0.04502
4348.69683,0.04835
4350.62530,0.05085
4352.55376,0.04989
4354.48223,0.05396
4356.41070,0.05528
4358.33917,0.04504
4360.26764,0.03572
4362.19611,0.03626
4364.12458,0.04113
4366.05304,0.04723
4367.98151,0.05380
4369.90998,0.05579
4371.83845,0.05047
4373.76692,0.04439
4375.69539,0.04733
4377.62386,0.05356
4379.55232,0.04965
4381.48079,0.04128
4383.40926,0.03895
4385.33773,0.03896
4387.26620,0.03920
4389.19467,0.04282
4391.12314,0.04469
4393.05161,0.04193
4394.98007,0.03949
4396.90854,0.04067
4398.83701,0.04600
4400.76548,0.04750
4402.69395,0.04362
4404.62242,0.04430
4406.55089,0.04798
4408.47935,0.05051
4410.40782,0.05397
4412.33629,0.05581
4414.26476,0.05179
4416.19323,0.04391
4418.12170,0.04068
4420.05017,0.04708
4421.97864,0.05305
4423.90710,0.04693
4425.83557,0.03591
4427.76404,0.03590
4429.69251,0.04531
4431.62098,0.04557
4433.54945,0.03439
4435.47792,0.02692
4437.40638,0.02618
4439.33485,0.02808
4441.26332,0.03062
4443.19179,0.03026
4445.12026,0.03040
4447.04873,0.03385
4448.97720,0.03341
4450.90567,0.02847
4452.83413,0.02579
4454.76260,0.02494
4456.69107,0.02245
4458.61954,0.01908
4460.54801,0.01892
4462.47648,0.02296
4464.40495,0.02413
4466.33341,0.02010
4468.26188,0.01860
4470.19035,0.02347
4472.11882,0.03088
4474.04729,0.03336
4475.97576,0.02757
4477.90423,0.01846
4479.83270,0.01248
4481.76116,0.01429
4483.68963,0.01931
4485.61810,0.01875
4487.54657,0.01646
4489.47504,0.01882
4491.40351,0.02060
4493.33198,0.01701
4495.26044,0.01511
4497.18891,0.02220
4499.11738,0.03125
4501.04585,0.02904
4502.97432,0.01807
4504.90279,0.01100
4506.83126,0.01096
4508.75973,0.01260
4510.68819,0.01189
4512.61666,0.01014
4514.54513,0.00971
4516.47360,0.01341
4518.40207,0.02089
4520.33054,0.02505
4522.25901,0.02592
4524.18747,0.02611
4526.11594,0.02352
4528.04441,0.02161
4529.97288,0.02260
4531.90135,0.02381
4533.82982,0.02352
4535.75829,0.02354
4537.68676,0.02636
4539.61522,0.02645
4541.54369,0.02017
4543.47216,0.01658
4545.40063,0.02015
4547.32910,0.02078
4549.25757,0.01472
4551.18604,0.01388
4553.11450,0.02018
4555.04297,0.02018
4556.97144,0.01392
4558.89991,0.01277
4560.82838,0.01394
4562.75685,0.01147
4564.68532,0.01231
4566.61378,0.01615
4568.54225,0.01715
4570.47072,0.02163
4572.39919,0.02708
4574.32766,0.02669
4576.25613,0.02936
4578.18460,0.03876
4580.11307,0.04160
4582.04153,0.02927
4583.97000,0.01573
4585.89847,0.01371
4587.82694,0.01685
4589.75541,0.01639
4591.68388,0.01120
4593.61235,0.00833
4595.54081,0.01401
4597.46928,0.02263
4599.39775,0.02215
4601.32622,0.01054
4603.25469,-0.00060
4605.18316,-0.00520
4607.11163,-0.00826
4609.04010,-0.01091
4610.96856,-0.01284
4612.89703,-0.01359
4614.82550,-0.00759
4616.75397,0.00391
4618.68244,0.00965
4620.61091,0.00591
4622.53938,0.00248
4624.46784,0.00400
4626.39631,0.00605
4628.32478,0.00689
4630.25325,0.00287
4632.18172,-0.00692
4634.11019,-0.01409
4636.03866,-0.01399
4637.96713,-0.00839
4639.89559,-0.00039
4641.82406,0.00338
4643.75253,-0.00368
4645.68100,-0.01307
4647.60947,-0.01136
4649.53794,-0.00583
4651.46641,-0.00166
4653.39487,0.00915
4655.32334,0.02198
4657.25181,0.02828
4659.18028,0.02775
4661.10875,0.02205
4663.03722,0.01477
4664.96569,0.01040
4666.89416,0.00740
4668.82262,0.00375
4670.75109,0.00390
4672.67956,0.00547
4674.60803,0.00329
4676.53650,0.00075
4678.46497,0.00061
4680.39344,0.00227
4682.32190,0.00909
4684.25037,0.01849
4686.17884,0.01562
4688.10731,0.00691
4690.03578,0.00919
4691.96425,0.01139
4693.89272,0.00675
4695.82119,0.00277
4697.74965,0.00147
4699.67812,0.00598
4701.60659,0.01288
4703.53506,0.01706
4705.46353,0.02127
4707.39200,0.02216
4709.32047,0.01607
4711.24893,0.00829
4713.17740,0.00958
4715.10587,0.01864
4717.03434,0.02347
4718.96281,0.03070
4720.89128,0.03581
4722.81975,0.01931
4724.74821,-0.00219
4726.67668,-0.01025
4728.60515,-0.01326
4730.53362,-0.01282
4732.46209,-0.00703
4734.39056,0.00069
4736.31903,0.00998
4738.24750,0.01613
4740.17596,0.01669
4742.10443,0.01986
4744.03290,0.02515
4745.96137,0.01973
4747.88984,0.00390
4749.81831,-0.00582
4751.74678,-0.00480
4753.67524,0.00089
4755.60371,0.00716
4757.53218,0.01202
4759.46065,0.01667
4761.38912,0.01650
4763.31759,0.00911
4765.24606,-0.00384
4767.17453,-0.02199
4769.10299,-0.02724
4771.03146,-0.01288
4772.95993,-0.00148
4774.88840,0.00532
4776.81687,0.00972
4778.74534,0.00466
4780.67381,0.00641
4782.60227,0.01403
4784.53074,0.00496
4786.45921,-0.01362
4788.38768,-0.01452
4790.31615,0.00259
4792.24462,0.01329
4794.17309,0.01041
4796.10156,0.00344
4798.03002,0.00410
4799.95849,0.01189
4801.88696,0.01250
4803.81543,0.00358
4805.74390,-0.00054
4807.67237,0.00542
4809.60084,0.01019
4811.52930,0.00765
4813.45777,0.00188
4815.38624,0.00288
4817.31471,0.01425
4819.24318,0.02288
4821.17165,0.01789
4823.10012,0.00998
4825.02859,0.01311
4826.95705,0.01852
4828.88552,0.01642
4830.81399,0.00890
4832.74246,0.00185
4834.67093,0.00127
4836.59940,0.00582
4838.52787,0.01218
4840.45633,0.02029
4842.38480,0.03088
4844.31327,0.03352
4846.24174,0.02362
4848.17021,0.01792
4850.09868,0.01623
4852.02715,0.00466
4853.95562,-0.00584
4855.88408,-0.00289
4857.81255,0.00192
4859.74102,-0.00194
4861.66949,-0.01067
4863.59796,-0.01064
4865.52643,0.00657
4867.45490,0.02819
4869.38336,0.03865
4871.31183,0.03217
4873.24030,0.01170
4875.16877,-0.00250
4877.09724,0.00160
4879.02571,0.00850
4880.95418,0.00788
4882.88265,0.01256
4884.81111,0.02451
4886.73958,0.02597
4888.66805,0.01577
4890.59652,0.00909
4892.52499,0.01223
4894.45346,0.01263
4896.38193,-0.00169
4898.31039,-0.01345
4900.23886,-0.00954
4902.16733,-0.00354
4904.09580,0.00085
4906.02427,0.00780
4907.95274,0.00727
4909.88121,0.00196
4911.80967,0.00986
4913.73814,0.02207
4915.66661,0.02776
4917.59508,0.03167
4919.52355,0.03265
4921.45202,0.03515
4923.38049,0.03949
4925.30896,0.03940
4927.23742,0.03657
4929.16589,0.03165
4931.09436,0.02606
4933.02283,0.02311
4934.95130,0.02087
4936.87977,0.01632
4938.80824,0.00929
4940.73670,0.00262
4942.66517,-0.00954
4944.59364,-0.03026
4946.52211,-0.03935
4948.45058,-0.03013
4950.37905,-0.02063
4952.30752,-0.01604
4954.23599,-0.00900
4956.16445,0.00285
4958.09292,0.01405
4960.02139,0.02166
4961.94986,0.02517
4963.87833,0.02117
4965.80680,0.01712
4967.73527,0.01935
4969.66373,0.01700
4971.59220,0.01039
4973.52067,0.01153
4975.44914,0.01520
4977.37761,0.01257
4979.30608,0.01050
4981.23455,0.01606
4983.16302,0.02169
4985.09148,0.02121
4987.01995,0.02008
4988.94842,0.01597
4990.87689,0.00942
4992.80536,0.01151
4994.73383,0.01361
4996.66230,0.00974
4998.59076,0.01309
5000.51923,0.01371
5002.44770,-0.00107
5004.37617,-0.01335
5006.30464,-0.00794
5008.23311,0.00852
5010.16158,0.02446
5012.09005,0.03519
5014.01851,0.04294
5015.94698,0.03579
5017.87545,0.01079
5019.80392,0.00051
5021.73239,0.01906
5023.66086,0.03806
5025.58933,0.03739
5027.51779,0.02826
5029.44626,0.01790
5031.37473,0.01065
5033.30320,0.01492
5035.23167,0.01706
5037.16014,0.01416
5039.08861,0.01573
5041.01708,0.01525
5042.94554,0.01411
5044.87401,0.01666
5046.80248,0.02106
5048.73095,0.02799
5050.65942,0.02924
5052.58789,0.02153
5054.51636,0.02183
5056.44482,0.03201
5058.37329,0.03209
5060.30176,0.02250
5062.23023,0.01839
5064.15870,0.01946
5066.08717,0.02375
5068.01564,0.02723
5069.94410,0.01689
5071.87257,0.00065
5073.80104,0.00446
5075.72951,0.03105
5077.65798,0.05587
5079.58645,0.06359
5081.51492,0.05746
5083.44339,0.04686
5085.37185,0.04071
5087.30032,0.03631
5089.22879,0.02868
5091.15726,0.02178
5093.08573,0.02111
5095.01420,0.02041
5096.94267,0.01300
5098.87113,0.01015
5100.79960,0.01702
5102.72807,0.02517
5104.65654,0.02787
5106.58501,0.02520
5108.51348,0.02176
5110.44195,0.01886
5112.37042,0.02416
5114.29888,0.03822
5116.22735,0.04405
5118.15582,0.04596
5120.08429,0.05743
5122.01276,0.05971
5123.94123,0.04492
5125.86970,0.03608
5127.79816,0.03647
5129.72663,0.03318
5131.65510,0.02872
5133.58357,0.02812
5135.51204,0.03128
5137.44051,0.03828
5139.36898,0.03600
5141.29745,0.02183
5143.22591,0.01970
5145.15438,0.03526
5147.08285,0.04938
5149.01132,0.04614
5150.93979,0.02830
5152.86826,0.01503
5154.79673,0.01257
5156.72519,0.00853
5158.65366,0.00659
5160.58213,0.02119
5162.51060,0.04383
5164.43907,0.05183
5166.36754,0.03375
5168.29601,0.00681
5170.22448,-0.00425
5172.15294,0.00169
5174.08141,0.01441
5176.00988,0.02917
5177.93835,0.04002
5179.86682,0.04225
5181.79529,0.04034
5183.72376,0.03586
5185.65222,0.03540
5187.58069,0.05028
5189.50916,0.06074
5191.43763,0.05092
5193.36610,0.03627
5195.29457,0.03120
5197.22304,0.03146
5199.15151,0.02322
5201.07997,0.01640
5203.00844,0.02406
5204.93691,0.03204
5206.86538,0.03076
5208.79385,0.02070
5210.72232,0.01634
5212.65079,0.03879
5214.57925,0.07248
5216.50772,0.08240
5218.43619,0.05527
5220.36466,0.02350
5222.29313,0.02720
5224.22160,0.04982
5226.15007,0.06016
5228.07854,0.05201
5230.00700,0.04025
5231.93547,0.05148
5233.86394,0.07304
5235.79241,0.06995
5237.72088,0.05038
5239.64935,0.03671
5241.57782,0.03188
5243.50628,0.02625
5245.43475,0.01376
5247.36322,-0.00302
5249.29169,-0.00573
5251.22016,0.02069
5253.14863,0.04455
5255.07710,0.04322
5257.00556,0.03779
5258.93403,0.04283
5260.86250,0.05078
5262.79097,0.05562
5264.71944,0.06088
5266.64791,0.06172
5268.57638,0.05573
5270.50485,0.05464
5272.43331,0.05567
5274.36178,0.04848
5276.29025,0.04095
5278.21872,0.03842
5280.14719,0.03207
5282.07566,0.01664
5284.00413,0.00865
5285.93259,0.02752
5287.86106,0.05392
5289.78953,0.06822
5291.71800,0.07198
5293.64647,0.06761
5295.57494,0.06260
5297.50341,0.06464
5299.43188,0.07301
5301.36034,0.07585
5303.28881,0.07102
5305.21728,0.06532
5307.14575,0.06815
5309.07422,0.07825
5311.00269,0.07021
5312.93116,0.04956
5314.85962,0.04019
5316.78809,0.04655
5318.71656,0.06425
5320.64503,0.07410
5322.57350,0.06025
5324.50197,0.04039
5326.43044,0.03492
5328.35891,0.05100
5330.28737,0.08443
5332.21584,0.09967
5334.14431,0.08688
5336.07278,0.06863
5338.00125,0.04432
5339.92972,0.03010
5341.85819,0.03118
5343.78665,0.02867
5345.71512,0.03282
5347.64359,0.05555
5349.57206,0.08400
5351.50053,0.09983
5353.42900,0.08652
5355.35747,0.05168
5357.28594,0.03298
5359.21440,0.04430
5361.14287,0.05942
5363.07134,0.05499
5364.99981,0.04866
5366.92828,0.05782
5368.85675,0.07091
5370.78522,0.07640
5372.71368,0.07574
5374.64215,0.07926
5376.57062,0.08386
5378.49909,0.07597
5380.42756,0.06887
5382.35603,0.06745
5384.28450,0.05425
5386.21297,0.03447
5388.14143,0.03139
5390.06990,0.04343
5391.99837,0.06785
5393.92684,0.09877
5395.85531,0.10929
5397.78378,0.09693
5399.71225,0.07918
5401.64071,0.05711
5403.56918,0.04654
5405.49765,0.07250
5407.42612,0.11900
5409.35459,0.14201
5411.28306,0.12727
5413.21153,0.10805
5415.13999,0.09604
5417.06846,0.07574
5418.99693,0.05811
5420.92540,0.05712
5422.85387,0.06507
5424.78234,0.06585
5426.71081,0.07206
5428.63928,0.09490
5430.56774,0.09128
5432.49621,0.05573
5434.42468,0.03426
5436.35315,0.03316
5438.28162,0.02777
5440.21009,0.02084
5442.13856,0.02619
5444.06702,0.03701
5445.99549,0.04111
5447.92396,0.04287
5449.85243,0.04535
5451.78090,0.03610
5453.70937,0.02488
5455.63784,0.03894
5457.56631,0.06695
5459.49477,0.06863
5461.42324,0.04663
5463.35171,0.04173
5465.28018,0.05603
5467.20865,0.05399
5469.13712,0.04818
5471.06559,0.06731
5472.99405,0.09116
5474.92252,0.10583
5476.85099,0.11219
5478.77946,0.09870
5480.70793,0.07809
5482.63640,0.07747
5484.56487,0.09104
5486.49334,0.09118
5488.42180,0.06852
5490.35027,0.05403
5492.27874,0.07675
5494.20721,0.09414
5496.13568,0.06884
5498.06415,0.04791
5499.99262,0.07583
5501.92108,0.12071
5503.84955,0.12725
5505.77802,0.10017
5507.70649,0.07973
5509.63496,0.06972
5511.56343,0.06950
5513.49190,0.08755
5515.42037,0.09003
5517.34883,0.06386
5519.27730,0.04797
5521.20577,0.05770
5523.13424,0.06588
5525.06271,0.05731
5526.99118,0.06403
5528.91965,0.09274
5530.84811,0.09095
5532.77658,0.06340
5534.70505,0.06100
5536.63352,0.06820
5538.56199,0.06048
5540.49046,0.06160
5542.41893,0.07844
5544.34740,0.09180
5546.27586,0.09647
5548.20433,0.09648
5550.13280,0.09863
5552.06127,0.09901
5553.98974,0.09027
5555.91821,0.07684
5557.84668,0.05755
5559.77514,0.04727
5561.70361,0.06256
5563.63208,0.08447
5565.56055,0.08473
5567.48902,0.05076
5569.41749,0.01783
5571.34596,0.02554
5573.27443,0.04915
5575.20289,0.06384
5577.13136,0.08649
5579.05983,0.11395
5580.98830,0.10782
5582.91677,0.06312
5584.84524,0.04503
5586.77371,0.07600
5588.70217,0.09977
5590.63064,0.09475
5592.55911,0.09217
5594.48758,0.08286
5596.41605,0.04459
5598.34452,0.01942
5600.27299,0.04430
5602.20145,0.08624
5604.12992,0.11045
5606.05839,0.10576
5607.98686,0.07789
5609.91533,0.06117
5611.84380,0.07344
5613.77227,0.08028
5615.70074,0.06878
5617.62920,0.06792
5619.55767,0.08043
5621.48614,0.09714
5623.41461,0.11127
5625.34308,0.11005
5627.27155,0.11257
5629.20002,0.13786
5631.12848,0.15574
5633.05695,0.13984
5634.98542,0.08819
5636.91389,0.03075
5638.84236,0.01433
5640.77083,0.03210
5642.69930,0.05600
5644.62777,0.07508
5646.55623,0.07776
5648.48470,0.07295
5650.41317,0.07037
5652.34164,0.05892
5654.27011,0.04347
5656.19858,0.04589
5658.12705,0.06251
5660.05551,0.07180
5661.98398,0.07120
5663.91245,0.07159
5665.84092,0.07991
5667.76939,0.08429
5669.69786,0.06386
5671.62633,0.03226
5673.55480,0.03477
5675.48326,0.07609
5677.41173,0.09946
5679.34020,0.07983
5681.26867,0.05947
5683.19714,0.06690
5685.12561,0.09271
5687.05408,0.11936
5688.98254,0.13055
5690.91101,0.12501
5692.83948,0.10999
5694.76795,0.09652
5696.69642,0.09539
5698.62489,0.07622
5700.55336,0.03024
5702.48183,0.02228
5704.41029,0.06917
5706.33876,0.10397
5708.26723,0.08562
5710.19570,0.03808
5712.12417,0.00427
5714.05264,0.01094
5715.98111,0.03482
5717.90957,0.04193
5719.83804,0.04651
5721.76651,0.05908
5723.69498,0.07398
5725.62345,0.09268
5727.55192,0.09944
5729.48039,0.07965
5731.40886,0.05673
5733.33732,0.06298
5735.26579,0.09473
5737.19426,0.11672
5739.12273,0.11997
5741.05120,0.11043
5742.97967,0.09191
5744.90814,0.08244
5746.83660,0.07337
5748.76507,0.06337
5750.69354,0.07505
5752.62201,0.08956
5754.55048,0.09604
5756.47895,0.09339
5758.40742,0.07002
5760.33588,0.04990
5762.26435,0.05240
5764.19282,0.06207
5766.12129,0.06875
5768.04976,0.08273
5769.97823,0.09854
5771.90670,0.10870
5773.83517,0.12821
5775.76363,0.14328
5777.69210,0.12940
5779.62057,0.10087
5781.54904,0.07540
5783.47751,0.06357
5785.40598,0.07959
5787.33445,0.10475
5789.26291,0.12013
5791.19138,0.12799
5793.11985,0.12061
5795.04832,0.11181
5796.97679,0.11522
5798.90526,0.11473
5800.83373,0.10912
5802.76220,0.11673
5804.69066,0.13559
5806.61913,0.15271
5808.54760,0.15830
5810.47607,0.13327
5812.40454,0.09195
5814.33301,0.06366
5816.26148,0.04785
5818.18994,0.04934
5820.11841,0.07226
5822.04688,0.12307
5823.97535,0.17173
5825.90382,0.15403
5827.83229,0.09769
5829.76076,0.07631
5831.68923,0.09079
5833.61769,0.10174
5835.54616,0.09505
5837.47463,0.08400
5839.40310,0.06440
5841.33157,0.03521
5843.26004,0.01443
5845.18851,-0.00764
5847.11697,-0.03170
5849.04544,-0.01223
5850.97391,0.04980
5852.90238,0.08803
5854.83085,0.09280
5856.75932,0.08542
5858.68779,0.08438
5860.61626,0.10454
5862.54472,0.11370
5864.47319,0.10355
5866.40166,0.11588
5868.33013,0.13899
5870.25860,0.12596
5872.18707,0.09123
5874.11554,0.08232
5876.04400,0.10067
5877.97247,0.10722
5879.90094,0.09421
5881.82941,0.09373
5883.75788,0.11601
5885.68635,0.14002
5887.61482,0.13749
5889.54329,0.12037
5891.47175,0.13477
5893.40022,0.15971
5895.32869,0.14289
5897.25716,0.08550
5899.18563,0.03969
5901.11410,0.05002
5903.04257,0.09471
5904.97103,0.11789
5906.89950,0.09939
5908.82797,0.06484
5910.75644,0.05098
5912.68491,0.05038
5914.61338,0.03918
5916.54185,0.03733
5918.47032,0.06637
5920.39878,0.10194
5922.32725,0.11717
5924.25572,0.10718
5926.18419,0.08895
5928.11266,0.08229
5930.04113,0.09144
5931.96960,0.10425
5933.89806,0.08425
5935.82653,0.04750
5937.75500,0.05791
5939.68347,0.09298
5941.61194,0.08902
5943.54041,0.06597
5945.46888,0.07023
5947.39734,0.08766
5949.32581,0.11049
5951.25428,0.13872
5953.18275,0.14556
5955.11122,0.13101
5957.03969,0.11307
5958.96816,0.08974
5960.89663,0.06264
5962.82509,0.03569
5964.75356,0.01242
5966.68203,0.00481
5968.61050,0.00568
5970.53897,0.01220
5972.46744,0.03099
5974.39591,0.05154
5976.32437,0.08114
5978.25284,0.11242
5980.18131,0.10766
5982.10978,0.08014
5984.03825,0.08051
5985.96672,0.09768
5987.89519,0.10286
5989.82366,0.10512
5991.75212,0.09821
5993.68059,0.08976
5995.60906,0.08686
5997.53753,0.05654
5999.46600,0.01060
6001.39447,-0.00381
6003.32294,0.01155
6005.25140,0.02841
6007.17987,0.05684
6009.10834,0.09715
6011.03681,0.10821
6012.96528,0.08749
6014.89375,0.07421
6016.82222,0.07787
6018.75069,0.08211
6020.67915,0.07710
6022.60762,0.06862
6024.53609,0.08210
6026.46456,0.12066
6028.39303,0.14784
6030.32150,0.13121
6032.24997,0.07586
6034.17843,0.03549
6036.10690,0.06480
6038.03537,0.13118
6039.96384,0.17158
6041.89231,0.16260
6043.82078,0.10319
6045.74925,0.04006
6047.67772,0.03255
6049.60618,0.05723
6051.53465,0.05230
6053.46312,0.05904
6055.39159,0.11576
6057.32006,0.16380
6059.24853,0.16104
6061.17700,0.12475
6063.10546,0.10277
6065.03393,0.11445
6066.96240,0.13646
6068.89087,0.14099
6070.81934,0.10461
6072.74781,0.07431
6074.67628,0.08807
6076.60475,0.09688
6078.53321,0.10765
6080.46168,0.16247
6082.39015,0.20882
6084.31862,0.18048
6086.24709,0.11480
6088.17556,0.08247
6090.10403,0.04923
6092.03249,0.00735
6093.96096,0.02950
6095.88943,0.08784
6097.81790,0.10694
6099.74637,0.09648
6101.67484,0.09075
6103.60331,0.09963
6105.53177,0.11541
6107.46024,0.13170
6109.38871,0.14821
6111.31718,0.15674
6113.24565,0.16314
6115.17412,0.15901
6117.10259,0.13013
6119.03106,0.11632
6120.95952,0.11940
6122.88799,0.09770
6124.81646,0.06882
6126.74493,0.04122
6128.67340,-0.00136
6130.60187,-0.02968
6132.53034,-0.00649
6134.45880,0.04185
6136.38727,0.06653
6138.31574,0.06559
6140.24421,0.07674
6142.17268,0.11518
6144.10115,0.11448
6146.02962,0.03631
6147.95809,-0.03265
6149.88655,-0.04510
6151.81502,-0.03382
6153.74349,-0.00598
6155.67196,0.01623
6157.60043,0.00236
6159.52890,0.00238
6161.45737,0.07769
6163.38583,0.17445
6165.31430,0.19223
6167.24277,0.14726
6169.17124,0.09939
6171.09971,0.05641
6173.02818,0.02763
6174.95665,0.04353
6176.88512,0.08477
6178.81358,0.07997
6180.74205,0.05118
6182.67052,0.06599
6184.59899,0.08971
6186.52746,0.09323
6188.45593,0.10791
6190.38440,0.11716
6192.31286,0.10166
6194.24133,0.09754
6196.16980,0.13040
6198.09827,0.17488
6200.02674,0.15173
6201.95521,0.05482
6203.88368,-0.00459
6205.81215,0.02013
6207.74061,0.05631
6209.66908,0.07149
6211.59755,0.08592
6213.52602,0.12223
6215.45449,0.17471
6217.38296,0.18985
6219.31143,0.12870
6221.23989,0.01075
6223.16836,-0.07796
6225.09683,-0.04696
6227.02530,0.04511
6228.95377,0.11157
6230.88224,0.15323
6232.81071,0.15551
6234.73918,0.10063
6236.66764,0.04085
6238.59611,0.02717
6240.52458,0.04809
6242.45305,0.08868
6244.38152,0.12533
6246.30999,0.12116
6248.23846,0.12238
6250.16692,0.16211
6252.09539,0.15333
6254.02386,0.06725
6255.95233,0.00147
6257.88080,0.00596
6259.80927,0.03231
6261.73774,0.06052
6263.66621,0.10887
6265.59467,0.12888
6267.52314,0.09175
6269.45161,0.07357
6271.38008,0.09286
6273.30855,0.11791
6275.23702,0.12980
6277.16549,0.13323
6279.09395,0.14152
6281.02242,0.10194
6282.95089,0.00682
6284.87936,-0.03926
6286.80783,-0.00109
6288.73630,0.06966
6290.66477,0.12087
6292.59323,0.10753
6294.52170,0.05514
6296.45017,0.03846
6298.37864,0.07116
6300.30711,0.12069
6302.23558,0.14403
6304.16405,0.15252
6306.09252,0.20089
6308.02098,0.22183
6309.94945,0.17209
6311.87792,0.11915
6313.80639,0.07591
6315.73486,0.07468
6317.66333,0.13617
6319.59180,0.17086
6321.52026,0.13275
6323.44873,0.07352
6325.37720,0.03257
6327.30567,0.01478
6329.23414,0.01804
6331.16261,0.01034
6333.09108,-0.01984
6335.01955,-0.02287
6336.94801,0.01976
6338.87648,0.07554
6340.80495,0.11023
6342.73342,0.09232
6344.66189,0.04688
6346.59036,0.02970
6348.51883,0.01030
6350.44729,-0.01347
6352.37576,0.03372
6354.30423,0.10270
6356.23270,0.12554
6358.16117,0.11901
6360.08964,0.08939
6362.01811,0.03305
6363.94658,-0.00227
6365.87504,0.03405
6367.80351,0.09958
6369.73198,0.12584
6371.66045,0.12163
6373.58892,0.11856
6375.51739,0.11490
6377.44586,0.10351
6379.37432,0.08431
6381.30279,0.02464
6383.23126,-0.03078
6385.15973,0.01229
6387.08820,0.07069
6389.01667,0.10597
6390.94514,0.15784
6392.87361,0.16820
6394.80207,0.11254
6396.73054,0.07249
6398.65901,0.06076
6400.58748,0.04310
6402.51595,0.01681
6404.44442,0.01169
6406.37289,0.02567
6408.30135,0.01727
6410.22982,-0.00012
6412.15829,-0.00002
6414.08676,0.02032
6416.01523,0.08483
6417.94370,0.14311
6419.87217,0.10774
6421.80064,0.03743
6423.72910,0.00410
6425.65757,-0.00709
6427.58604,0.00198
6429.51451,0.03219
6431.44298,0.01847
6433.37145,-0.01229
6435.29992,0.03567
6437.22838,0.13505
6439.15685,0.17645
6441.08532,0.12652
6443.01379,0.05129
6444.94226,0.00703
6446.87073,-0.02853
6448.79920,-0.05993
6450.72766,-0.04082
6452.65613,0.01448
6454.58460,0.04254
6456.51307,0.04610
6458.44154,0.06763
6460.37001,0.10370
6462.29848,0.09897
6464.22695,0.04575
6466.15541,0.01430
6468.08388,0.05886
6470.01235,0.16363
6471.94082,0.22845
6473.86929,0.17708
6475.79776,0.04388
6477.72623,-0.06623
6479.65469,-0.09263
6481.58316,-0.05943
6483.51163,-0.01295
6485.44010,0.01475
6487.36857,0.04487
6489.29704,0.07930
6491.22551,0.06838
6493.15398,0.01939
6495.08244,0.00999
6497.01091,0.05668
6498.93938,0.10231
6500.86785,0.09546
6502.79632,0.06135
6504.72479,0.06717
6506.65326,0.09154
6508.58172,0.08988
6510.51019,0.08996
6512.43866,0.09752
6514.36713,0.06723
6516.29560,0.02824
6518.22407,0.04149
6520.15254,0.05916
6522.08101,0.03013
6524.00947,-0.00726
6525.93794,0.01679
6527.86641,0.10757
6529.79488,0.17335
6531.72335,0.16523
6533.65182,0.13937
6535.58029,0.13564
6537.50875,0.12250
6539.43722,0.07581
6541.36569,0.03099
6543.29416,0.02326
6545.22263,0.03726
6547.15110,0.03532
6549.07957,0.04369
6551.00804,0.06600
6552.93650,0.02602
6554.86497,-0.01737
6556.79344,-0.00617
6558.72191,-0.01655
6560.65038,-0.04847
6562.57885,-0.06175
6564.50732,-0.03243
6566.43578,0.06071
6568.36425,0.13070
6570.29272,0.13157
6572.22119,0.11593
6574.14966,0.08803
6576.07813,0.08684
6578.00660,0.17777
6579.93507,0.26590
6581.86353,0.22130
6583.79200,0.08320
6585.72047,0.00032
6587.64894,0.04312
6589.57741,0.12573
6591.50588,0.14891
6593.43435,0.14561
6595.36281,0.15084
6597.29128,0.13331
6599.21975,0.08395
6601.14822,0.02758
6603.07669,0.03564
6605.00516,0.08521
6606.93363,0.05324
6608.86210,-0.05312
6610.79056,-0.07770
6612.71903,0.01777
6614.64750,0.10023
6616.57597,0.08858
6618.50444,0.06888
6620.43291,0.11945
6622.36138,0.17990
6624.28984,0.20966
6626.21831,0.21252
6628.14678,0.15377
6630.07525,0.07624
6632.00372,0.04059
6633.93219,-0.00539
6635.86066,-0.05391
6637.78912,-0.05696
6639.71759,-0.04344
6641.64606,-0.02880
6643.57453,0.01600
6645.50300,0.06226
6647.43147,0.04719
6649.35994,0.03269
6651.28841,0.08758
6653.21687,0.14748
6655.14534,0.15177
6657.07381,0.12730
6659.00228,0.09706
6660.93075,0.01902
6662.85922,-0.04926
6664.78769,0.00070
6666.71615,0.11539
6668.64462,0.19098
6670.57309,0.19255
6672.50156,0.12958
6674.43003,0.06507
6676.35850,0.04737
6678.28697,0.07321
6680.21544,0.09018
6682.14390,0.06672
6684.07237,0.06748
6686.00084,0.12032
6687.92931,0.12394
6689.85778,0.01305
6691.78625,-0.08758
6693.71472,-0.07466
6695.64318,0.01284
6697.57165,0.08615
6699.50012,0.09049
6701.42859,0.00150
6703.35706,-0.07263
6705.28553,0.01238
6707.21400,0.13001
6709.14247,0.13031
6711.07093,0.09837
6712.99940,0.10179
6714.92787,0.11135
6716.85634,0.14617
6718.78481,0.20898
6720.71328,0.18811
6722.64175,0.10273
6724.57021,0.07762
6726.49868,0.11383
6728.42715,0.14754
6730.35562,0.12017
6732.28409,0.07431
6734.21256,0.07359
6736.14103,0.10154
6738.06950,0.12802
6739.99796,0.10358
6741.92643,0.06416
6743.85490,0.08556
6745.78337,0.06339
6747.71184,-0.02297
6749.64031,-0.03395
6751.56878,0.02989
6753.49724,0.08098
6755.42571,0.09122
6757.35418,0.07358
6759.28265,0.03008
6761.21112,-0.01170
6763.13959,-0.00643
6765.06806,-0.00306
6766.99653,0.04125
6768.92499,0.14313
6770.85346,0.15031
6772.78193,0.10981
6774.71040,0.17949
6776.63887,0.29542
6778.56734,0.32104
6780.49581,0.23709
6782.42427,0.07485
6784.35274,-0.09550
6786.28121,-0.17167
6788.20968,-0.09243
6790.13815,0.08738
6792.06662,0.21424
6793.99509,0.18801
6795.92355,0.08044
6797.85202,0.03318
6799.78049,0.06172
6801.70896,0.04983
6803.63743,0.00650
6805.56590,0.03396
6807.49437,0.07884
6809.42284,0.09231
6811.35130,0.09731
6813.27977,0.15758
6815.20824,0.29664
6817.13671,0.33939
6819.06518,0.21418
6820.99365,0.11061
6822.92212,0.14013
6824.85058,0.17852
6826.77905,0.13577
6828.70752,0.11165
6830.63599,0.13690
6832.56446,0.13693
6834.49293,0.11205
6836.42140,0.07973
6838.34987,0.06320
6840.27833,0.08550
6842.20680,0.10337
6844.13527,0.05674
6846.06374,-0.03037
6847.99221,-0.04608
6849.92068,0.05168
6851.84915,0.13759
6853.77761,0.13792
6855.70608,0.07916
6857.63455,0.02495
6859.56302,-0.01235
6861.49149,-0.01593
6863.41996,0.00901
6865.34843,0.01933
6867.27690,0.02437
6869.20536,0.02940
6871.13383,0.08856
6873.06230,0.23106
6874.99077,0.29343
6876.91924,0.22598
6878.84771,0.18697
6880.77618,0.22097
6882.70464,0.14983
6884.63311,-0.00418
6886.56158,-0.06315
6888.49005,-0.01138
6890.41852,0.05409
6892.34699,0.10532
6894.27546,0.14804
6896.20393,0.14298
6898.13239,0.04374
6900.06086,-0.08419
6901.98933,-0.10324
6903.91780,0.00701
6905.84627,0.10675
6907.77474,0.14515
6909.70321,0.18490
6911.63167,0.17752
6913.56014,0.07846
6915.48861,0.00574
6917.41708,0.05190
6919.34555,0.14283
6921.27402,0.16901
6923.20249,0.11715
6925.13096,0.01948
6927.05942,-0.01608
6928.98789,0.08092
6930.91636,0.16070
6932.84483,0.14364
6934.77330,0.18206
6936.70177,0.23552
6938.63024,0.18731
6940.55870,0.07710
6942.48717,0.05572
6944.41564,0.13886
6946.34411,0.20735
6948.27258,0.16297
6950.20105,0.08863
6952.12952,0.06590
6954.05799,-0.00964
6955.98645,-0.11331
6957.91492,-0.02088
6959.84339,0.18830
6961.77186,0.28136
6963.70033,0.24543
6965.62880,0.21852
6967.55727,0.24581
6969.48573,0.25684
6971.41420,0.20555
6973.34267,0.12264
6975.27114,0.02016
6977.19961,-0.02795
6979.12808,0.09216
6981.05655,0.33960
6982.98501,0.44503
6984.91348,0.23924
6986.84195,-0.01317
6988.77042,-0.10118
6990.69889,-0.09075
6992.62736,-0.02555
6994.55583,0.05392
6996.48430,0.05481
6998.41276,0.01262
7000.34123,0.01876
7002.26970,0.02754
7004.19817,0.03320
7006.12664,0.10335
7008.05511,0.21356
7009.98358,0.21676
7011.91204,0.10815
7013.84051,0.02195
7015.76898,0.02255
7017.69745,0.06994
7019.62592,0.14211
7021.55439,0.18081
7023.48286,0.08854
7025.41133,-0.05144
7027.33979,-0.07092
7029.26826,0.02114
7031.19673,0.15502
7033.12520,0.27465
7035.05367,0.29292
7036.98214,0.18876
7038.91061,0.08296
7040.83907,0.06339
7042.76754,0.07372
7044.69601,0.05680
7046.62448,0.09032
7048.55295,0.16410
7050.48142,0.18175
7052.40989,0.13955
7054.33836,0.10145
7056.26682,0.12714
7058.19529,0.19717
7060.12376,0.18392
7062.05223,0.05714
7063.98070,-0.06791
7065.90917,-0.07255
7067.83764,0.02124
7069.76610,0.05994
7071.69457,-0.04491
7073.62304,-0.07487
7075.55151,-0.00023
7077.47998,0.00853
7079.40845,-0.07286
7081.33692,-0.16285
7083.26539,-0.17777
7085.19385,-0.14171
7087.12232,-0.08708
7089.05079,-0.03403
7090.97926,-0.03234
7092.90773,-0.04307
7094.83620,-0.02249
7096.76467,-0.05097
7098.69313,-0.12112
7100.62160,-0.10239
7102.55007,-0.03113
7104.47854,0.01795
7106.40701,0.05952
7108.33548,0.06072
7110.26395,0.00455
7112.19242,-0.01530
7114.12088,0.05091
7116.04935,0.17780
7117.97782,0.27041
7119.90629,0.20665
7121.83476,0.11590
7123.76323,0.11866
7125.69170,0.12654
7127.62016,0.05983
7129.54863,0.03208
7131.47710,0.10972
7133.40557,0.14211
7135.33404,0.04632
7137.26251,-0.04319
7139.19098,-0.03362
7141.11944,0.04702
7143.04791,0.11677
7144.97638,0.10225
7146.90485,0.08130
7148.83332,0.11626
7150.76179,0.10235
7152.69026,-0.02269
7154.61873,-0.13738
7156.54719,-0.13208
7158.47566,-0.09147
7160.40413,-0.02428
7162.33260,0.07431
7164.26107,0.08901
7166.18954,-0.03292
7168.11801,-0.18190
7170.04647,-0.23960
7171.97494,-0.14984
7173.90341,-0.00737
7175.83188,0.03296
7177.76035,0.02472
7179.68882,0.08012
7181.61729,0.10498
7183.54576,0.05059
7185.47422,0.04198
7187.40269,0.12469
7189.33116,0.21304
7191.25963,0.18120
7193.18810,0.05014
7195.11657,0.01762
7197.04504,0.10087
7198.97350,0.17021
7200.90197,0.24923
7202.83044,0.36556
7204.75891,0.31025
7206.68738,0.06202
7208.61585,-0.03178
7210.54432,0.06964
7212.47279,0.21561
7214.40125,0.29776
7216.32972,0.24890
7218.25819,0.06192
7220.18666,0.00674
7222.11513,0.09285
7224.04360,0.15098
7225.97207,0.11472
7227.90053,0.00682
7229.82900,-0.03625
7231.75747,0.02218
7233.68594,0.03874
7235.61441,0.07194
7237.54288,0.19304
7239.47135,0.21894
7241.39982,0.08954
7243.32828,0.00821
7245.25675,0.02497
7247.18522,0.03739
7249.11369,0.07501
7251.04216,0.16136
7252.97063,0.19342
7254.89910,0.12660
7256.82756,0.13961
7258.75603,0.18795
7260.68450,0.17647
7262.61297,0.24180
7264.54144,0.27247
7266.46991,0.11614
7268.39838,0.01744
7270.32685,0.08528
7272.25531,0.22530
7274.18378,0.30382
7276.11225,0.30215
7278.04072,0.16743
7279.96919,-0.04763
7281.89766,-0.02594
7283.82613,0.08102
7285.75459,0.04296
7287.68306,0.01786
7289.61153,0.07957
7291.54000,0.03540
7293.46847,-0.10315
7295.39694,-0.07725
7297.32541,0.10363
7299.25387,0.20495
7301.18234,0.15242
7303.11081,0.05963
7305.03928,0.06876
7306.96775,0.18760
7308.89622,0.24071
7310.82469,0.11204
7312.75316,-0.01439
7314.68162,-0.07375
7316.61009,-0.13605
7318.53856,-0.15452
7320.46703,-0.06405
7322.39550,0.03674
7324.32397,-0.00638
7326.25244,-0.13803
7328.18090,-0.17888
7330.10937,-0.09819
7332.03784,0.00841
7333.96631,0.10389
7335.89478,0.10753
7337.82325,0.02326
7339.75172,-0.02082
7341.68019,0.04091
7343.60865,0.03401
7345.53712,-0.05316
7347.46559,-0.12841
7349.39406,-0.15075
7351.32253,-0.07636
7353.25100,0.01467
7355.17947,0.00214
7357.10793,-0.07464
7359.03640,-0.07745
7360.96487,0.07463
7362.89334,0.14078
7364.82181,0.03014
7366.75028,-0.05428
7368.67875,-0.09793
7370.60722,-0.13891
7372.53568,-0.10865
7374.46415,0.03769
7376.39262,0.14645
7378.32109,0.19734
7380.24956,0.16708
7382.17803,-0.06908
7384.10650,-0.28974
7386.03496,-0.15664
7387.96343,0.08930
7389.89190,0.10701
7391.82037,0.15589
7393.74884,0.29907
7395.67731,0.20712
7397.60578,0.00119
7399.53425,-0.04161
7401.46271,-0.01311
7403.39118,-0.02027
7405.31965,0.02561
7407.24812,0.07488
7409.17659,-0.01810
7411.10506,-0.14296
7413.03353,-0.17715
7414.96199,-0.14694
7416.89046,-0.07762
7418.81893,0.01691
7420.74740,0.05474
7422.67587,0.02192
7424.60434,-0.00838
7426.53281,-0.07478
7428.46128,-0.19239
7430.38974,-0.19336
7432.31821,0.00209
7434.24668,0.23273
7436.17515,0.44536
7438.10362,0.51038
7440.03209,0.32803
7441.96056,0.14880
7443.88902,0.08992
7445.81749,0.06101
7447.74596,0.03761
7449.67443,0.03703
7451.60290,0.03063
7453.53137,-0.01598
7455.45984,0.05753
7457.38831,0.26172
7459.31677,0.39997
7461.24524,0.31547
7463.17371,0.13564
7465.10218,0.07526
7467.03065,0.06167
7468.95912,-0.12523
7470.88759,-0.28960
7472.81605,-0.11807
7474.74452,0.15449
7476.67299,0.26725
7478.60146,0.30641
7480.52993,0.29078
7482.45840,0.09594
7484.38687,-0.02549
7486.31533,0.03343
7488.24380,0.00171
7490.17227,-0.20002
7492.10074,-0.24767
7494.02921,-0.04940
7495.95768,0.12011
7497.88615,0.17276
