399.19301,4.07612
401.12148,-0.58417
403.04995,-0.19762
404.97842,-0.18231
406.90689,-0.33244
408.83536,-0.12541
410.76382,0.46288
412.69229,0.71781
414.62076,0.33619
416.54923,-0.19051
418.47770,-0.28657
420.40617,0.11081
422.33464,0.28382
424.26311,0.13681
426.19157,-0.02587
428.12004,0.02403
430.04851,0.08655
431.97698,-0.15309
433.90545,-0.37179
435.83392,-0.17213
437.76239,0.22623
439.69085,0.35883
441.61932,0.04489
443.54779,-0.23810
445.47626,-0.06402
447.40473,0.20351
449.33320,0.16826
451.26167,0.00816
453.19013,0.02554
455.11860,0.17243
457.04707,0.19537
458.97554,-0.03225
460.90401,-0.23985
462.83248,-0.22015
464.76095,-0.04144
466.68942,0.09240
468.61788,0.07166
470.54635,0.05137
472.47482,0.23130
474.40329,0.30619
476.33176,0.01304
478.26023,-0.11179
480.18870,0.03218
482.11716,0.28287
484.04563,0.36775
485.97410,0.18437
487.90257,-0.00771
489.83104,0.01833
491.75951,0.11877
493.68798,0.07429
495.61645,-0.01973
497.54491,0.04304
499.47338,0.22345
501.40185,0.30962
503.33032,0.20453
505.25879,0.05390
507.18726,0.02235
509.11573,0.08243
511.04419,0.10037
512.97266,0.07494
514.90113,0.08453
516.82960,0.13069
518.75807,0.13640
520.68654,0.08518
522.61501,0.04686
524.54348,0.09061
526.47194,0.16568
528.40041,0.15680
530.32888,0.08917
532.25735,0.05546
534.18582,0.09449
536.11429,0.18405
538.04276,0.23893
539.97122,0.18472
541.89969,0.08456
543.82816,0.06937
545.75663,0.12737
547.68510,0.14763
549.61357,0.12417
551.54204,0.14339
553.47051,0.21889
555.39897,0.24348
557.32744,0.14379
559.25591,0.02550
561.18438,0.03428
563.11285,0.15151
565.04132,0.20529
566.96979,0.10949
568.89825,0.01946
570.82672,0.06417
572.75519,0.13462
574.68366,0.11228
576.61213,0.06402
578.54060,0.09147
580.46907,0.16330
582.39754,0.18687
584.32600,0.13602
586.25447,0.07394
588.18294,0.07443
590.11141,0.13996
592.03988,0.20167
593.96835,0.20343
595.89682,0.17677
597.82528,0.16975
599.75375,0.16293
601.68222,0.12764
603.61069,0.09337
605.53916,0.09741
607.46763,0.12978
609.39610,0.15202
611.32456,0.13932
613.25303,0.10247
615.18150,0.08846
617.10997,0.12048
619.03844,0.14192
620.96691,0.11291
622.89538,0.08678
624.82385,0.10291
626.75231,0.13500
628.68078,0.14598
630.60925,0.12541
632.53772,0.11693
634.46619,0.15613
636.39466,0.18426
638.32313,0.15519
640.25159,0.11164
642.18006,0.09984
644.10853,0.11667
646.03700,0.14326
647.96547,0.14605
649.89394,0.11606
651.82241,0.10259
653.75088,0.10939
655.67934,0.09957
657.60781,0.09484
659.53628,0.11645
661.46475,0.13817
663.39322,0.13932
665.32169,0.10634
667.25016,0.05106
669.17862,0.06797
671.10709,0.13906
673.03556,0.16771
674.96403,0.15234
676.89250,0.12616
678.82097,0.13378
680.74944,0.16689
682.67791,0.16780
684.60637,0.13317
686.53484,0.11661
688.46331,0.13446
690.39178,0.15668
692.32025,0.15364
694.24872,0.13551
696.17719,0.13552
698.10565,0.15636
700.03412,0.17126
701.96259,0.16022
703.89106,0.14196
705.81953,0.14873
707.74800,0.16875
709.67647,0.16647
711.60494,0.13916
713.53340,0.11881
715.46187,0.12659
717.39034,0.13917
719.31881,0.12786
721.24728,0.10872
723.17575,0.11507
725.10422,0.14339
727.03268,0.15997
728.96115,0.14587
730.88962,0.12371
732.81809,0.12562
734.74656,0.14361
736.67503,0.14424
738.60350,0.12788
740.53197,0.12728
742.46043,0.14990
744.38890,0.16110
746.31737,0.14226
748.24584,0.12562
750.17431,0.13748
752.10278,0.15605
754.03125,0.15551
755.95971,0.14210
757.88818,0.13050
759.81665,0.12636
761.74512,0.12486
763.67359,0.11384
765.60206,0.09978
767.53053,0.11217
769.45900,0.14951
771.38746,0.17115
773.31593,0.16376
775.24440,0.14664
777.17287,0.13882
779.10134,0.14767
781.02981,0.15285
782.95828,0.13743
784.88674,0.12762
786.81521,0.14988
788.74368,0.17978
790.67215,0.18149
792.60062,0.15886
794.52909,0.14291
796.45756,0.15026
798.38602,0.15529
800.31449,0.13744
802.24296,0.11631
804.17143,0.10956
806.09990,0.11223
808.02837,0.11629
809.95684,0.11704
811.88531,0.11591
813.81377,0.12341
815.74224,0.13818
817.67071,0.14124
819.59918,0.13665
821.52765,0.14343
823.45612,0.16024
825.38459,0.16904
827.31305,0.15476
829.24152,0.13451
831.16999,0.13839
833.09846,0.15785
835.02693,0.15862
836.95540,0.14182
838.88387,0.13513
840.81234,0.14758
842.74080,0.16373
844.66927,0.15584
846.59774,0.13569
848.52621,0.14084
850.45468,0.16731
852.38315,0.18312
854.31162,0.16729
856.24008,0.13588
858.16855,0.12478
860.09702,0.13463
862.02549,0.13619
863.95396,0.12549
865.88243,0.12868
867.81090,0.15604
869.73937,0.18524
871.66783,0.18146
873.59630,0.14728
875.52477,0.13038
877.45324,0.14953
879.38171,0.16979
881.31018,0.16098
883.23865,0.13826
885.16711,0.13363
887.09558,0.14968
889.02405,0.16179
890.95252,0.15218
892.88099,0.13406
894.80946,0.13075
896.73793,0.13901
898.66640,0.13985
900.59486,0.13064
902.52333,0.13106
904.45180,0.15053
906.38027,0.16436
908.30874,0.15669
910.23721,0.15117
912.16568,0.16452
914.09414,0.17656
916.02261,0.16826
917.95108,0.15100
919.87955,0.14733
921.80802,0.15806
923.73649,0.16522
925.66496,0.15926
927.59343,0.14725
929.52189,0.14731
931.45036,0.16383
933.37883,0.17019
935.30730,0.14929
937.23577,0.12895
939.16424,0.13643
941.09271,0.15800
943.02117,0.16850
944.94964,0.16425
946.87811,0.16131
948.80658,0.16741
950.73505,0.16421
952.66352,0.13967
954.59199,0.11441
956.52045,0.11657
958.44892,0.14528
960.37739,0.16759
962.30586,0.16215
964.23433,0.15046
966.16280,0.15248
968.09127,0.15733
970.01974,0.15376
971.94820,0.14672
973.87667,0.14570
975.80514,0.15353
977.73361,0.16434
979.66208,0.16257
981.59055,0.14721
983.51902,0.14299
985.44748,0.15607
987.37595,0.16370
989.30442,0.15509
991.23289,0.14596
993.16136,0.15059
995.08983,0.16130
997.01830,0.16209
998.94677,0.15311
1000.87523,0.15043
1002.80370,0.15883
1004.73217,0.16473
1006.66064,0.15960
1008.58911,0.15032
1010.51758,0.15070
1012.44605,0.16523
1014.37451,0.17609
1016.30298,0.16663
1018.23145,0.14937
1020.15992,0.14985
1022.08839,0.16453
1024.01686,0.16363
1025.94533,0.14582
1027.87380,0.13597
1029.80226,0.14392
1031.73073,0.15241
1033.65920,0.14235
1035.58767,0.12753
1037.51614,0.13391
1039.44461,0.15891
1041.37308,0.17306
1043.30154,0.16126
1045.23001,0.14514
1047.15848,0.14981
1049.08695,0.17047
1051.01542,0.17633
1052.94389,0.15678
1054.87236,0.14421
1056.80083,0.16091
1058.72929,0.18034
1060.65776,0.17339
1062.58623,0.15428
1064.51470,0.15090
1066.44317,0.17072
1068.37164,0.19545
1070.30011,0.19343
1072.22857,0.16711
1074.15704,0.15889
1076.08551,0.17495
1078.01398,0.17837
1079.94245,0.16170
1081.87092,0.15302
1083.79939,0.16182
1085.72786,0.16826
1087.65632,0.16263
1089.58479,0.15721
1091.51326,0.16304
1093.44173,0.17451
1095.37020,0.17383
1097.29867,0.15989
1099.22714,0.15330
1101.15560,0.16270
1103.08407,0.17418
1105.01254,0.17415
1106.94101,0.16682
1108.86948,0.16287
1110.79795,0.16829
1112.72642,0.17806
1114.65489,0.17199
1116.58335,0.15242
1118.51182,0.15206
1120.44029,0.17095
1122.36876,0.17653
1124.29723,0.15869
1126.22570,0.13970
1128.15417,0.14251
1130.08263,0.15818
1132.01110,0.16167
1133.93957,0.14954
1135.86804,0.14152
1137.79651,0.15185
1139.72498,0.16746
1141.65345,0.16634
1143.58191,0.15217
1145.51038,0.14850
1147.43885,0.15996
1149.36732,0.16936
1151.29579,0.16906
1153.22426,0.16610
1155.15273,0.16712
1157.08120,0.17418
1159.00966,0.17883
1160.93813,0.16926
1162.86660,0.15841
1164.79507,0.16790
1166.72354,0.18434
1168.65201,0.17921
1170.58048,0.16036
1172.50894,0.15816
1174.43741,0.17266
1176.36588,0.17784
1178.29435,0.16726
1180.22282,0.15789
1182.15129,0.16089
1184.07976,0.16663
1186.00823,0.15920
1187.93669,0.14507
1189.86516,0.14662
1191.79363,0.16268
1193.72210,0.17299
1195.65057,0.17105
1197.57904,0.16470
1199.50751,0.16381
1201.43597,0.17118
1203.36444,0.17737
1205.29291,0.17177
1207.22138,0.16130
1209.14985,0.16249
1211.07832,0.17274
1213.00679,0.17463
1214.93526,0.16468
1216.86372,0.15971
1218.79219,0.16810
1220.72066,0.17514
1222.64913,0.17154
1224.57760,0.16474
1226.50607,0.16287
1228.43454,0.16781
1230.36300,0.17253
1232.29147,0.16830
1234.21994,0.15946
1236.14841,0.15802
1238.07688,0.16365
1240.00535,0.16518
1241.93382,0.16034
1243.86229,0.15706
1245.79075,0.16143
1247.71922,0.17000
1249.64769,0.16981
1251.57616,0.15950
1253.50463,0.15628
1255.43310,0.16680
1257.36157,0.17569
1259.29003,0.16906
1261.21850,0.15652
1263.14697,0.15895
1265.07544,0.17413
1267.00391,0.17710
1268.93238,0.16206
1270.86085,0.15185
1272.78932,0.15650
1274.71778,0.16275
1276.64625,0.16377
1278.57472,0.16399
1280.50319,0.16479
1282.43166,0.16836
1284.36013,0.17251
1286.28860,0.16810
1288.21706,0.16199
1290.14553,0.16724
1292.07400,0.17691
1294.00247,0.17670
1295.93094,0.16674
1297.85941,0.16051
1299.78788,0.16344
1301.71634,0.16247
1303.64481,0.14869
1305.57328,0.13969
1307.50175,0.15220
1309.43022,0.17440
1311.35869,0.18694
1313.28716,0.18184
1315.21563,0.16794
1317.14409,0.16386
1319.07256,0.17111
1321.00103,0.17512
1322.92950,0.17133
1324.85797,0.16631
1326.78644,0.16755
1328.71491,0.17403
1330.64337,0.17248
1332.57184,0.16256
1334.50031,0.16022
1336.42878,0.16953
1338.35725,0.17921
1340.28572,0.17258
1342.21419,0.15719
1344.14266,0.15784
1346.07112,0.16908
1347.99959,0.17142
1349.92806,0.16639
1351.85653,0.16344
1353.78500,0.16655
1355.71347,0.17381
1357.64194,0.17516
1359.57040,0.16916
1361.49887,0.16858
1363.42734,0.17752
1365.35581,0.18225
1367.28428,0.17907
1369.21275,0.17406
1371.14122,0.17525
1373.06969,0.18548
1374.99815,0.19082
1376.92662,0.18093
1378.85509,0.17152
1380.78356,0.17516
1382.71203,0.18316
1384.64050,0.18469
1386.56897,0.18430
1388.49743,0.18897
1390.42590,0.19600
1392.35437,0.19928
1394.28284,0.19380
1396.21131,0.18500
1398.13978,0.18583
1400.06825,0.19230
1401.99672,0.19253
1403.92518,0.18658
1405.85365,0.18236
1407.78212,0.18570
1409.71059,0.19116
1411.63906,0.18786
1413.56753,0.17811
1415.49600,0.17770
1417.42446,0.19177
1419.35293,0.20083
1421.28140,0.18898
1423.20987,0.17618
1425.13834,0.17749
1427.06681,0.19049
1428.99528,0.19727
1430.92375,0.18514
1432.85221,0.17387
1434.78068,0.18312
1436.70915,0.20024
1438.63762,0.19681
1440.56609,0.18539
1442.49456,0.18439
1444.42303,0.19368
1446.35149,0.20364
1448.27996,0.20093
1450.20843,0.18668
1452.13690,0.18096
1454.06537,0.19182
1455.99384,0.20819
1457.92231,0.20151
1459.85077,0.18710
1461.77924,0.19122
1463.70771,0.20427
1465.63618,0.20593
1467.56465,0.19416
1469.49312,0.19077
1471.42159,0.20356
1473.35006,0.21717
1475.27852,0.20856
1477.20699,0.19247
1479.13546,0.18792
1481.06393,0.19478
1482.99240,0.19822
1484.92087,0.19375
1486.84934,0.19228
1488.77780,0.20293
1490.70627,0.21156
1492.63474,0.20356
1494.56321,0.19213
1496.49168,0.18985
1498.42015,0.19846
1500.34862,0.20377
1502.27709,0.20321
1504.20555,0.20383
1506.13402,0.21401
1508.06249,0.22476
1509.99096,0.21358
1511.91943,0.19628
1513.84790,0.18820
1515.77637,0.19873
1517.70483,0.21811
1519.63330,0.22353
1521.56177,0.21307
1523.49024,0.20524
1525.41871,0.20722
1527.34718,0.20650
1529.27565,0.20042
1531.20412,0.19658
1533.13258,0.19976
1535.06105,0.20978
1536.98952,0.21861
1538.91799,0.22127
1540.84646,0.21920
1542.77493,0.22371
1544.70340,0.21991
1546.63186,0.20601
1548.56033,0.19407
1550.48880,0.18945
1552.41727,0.19492
1554.34574,0.20921
1556.27421,0.22280
1558.20268,0.22411
1560.13115,0.21027
1562.05961,0.20734
1563.98808,0.20806
1565.91655,0.20229
1567.84502,0.19767
1569.77349,0.20202
1571.70196,0.20348
1573.63043,0.20058
1575.55889,0.19583
1577.48736,0.18745
1579.41583,0.18477
1581.34430,0.18787
1583.27277,0.18704
1585.20124,0.17899
1587.12971,0.17617
1589.05818,0.18385
1590.98664,0.18925
1592.91511,0.18579
1594.84358,0.17865
1596.77205,0.17637
1598.70052,0.18301
1600.62899,0.18775
1602.55746,0.18212
1604.48592,0.17779
1606.41439,0.18521
1608.34286,0.19434
1610.27133,0.19163
1612.19980,0.18509
1614.12827,0.19028
1616.05674,0.20599
1617.98521,0.20688
1619.91367,0.19210
1621.84214,0.18248
1623.77061,0.18858
1625.69908,0.20463
1627.62755,0.21018
1629.55602,0.19967
1631.48449,0.19173
1633.41295,0.20150
1635.34142,0.22338
1637.26989,0.21782
1639.19836,0.19681
1641.12683,0.19228
1643.05530,0.20499
1644.98377,0.22486
1646.91223,0.22909
1648.84070,0.21395
1650.76917,0.21503
1652.69764,0.23458
1654.62611,0.22655
1656.55458,0.20286
1658.48305,0.19490
1660.41152,0.20317
1662.33998,0.21393
1664.26845,0.20725
1666.19692,0.19650
1668.12539,0.20008
1670.05386,0.21473
1671.98233,0.21960
1673.91080,0.21232
1675.83926,0.20090
1677.76773,0.20004
1679.69620,0.21086
1681.62467,0.22358
1683.55314,0.22811
1685.48161,0.21919
1687.41008,0.21323
1689.33855,0.21183
1691.26701,0.20875
1693.19548,0.20615
1695.12395,0.21144
1697.05242,0.22791
1698.98089,0.24009
1700.90936,0.22744
1702.83783,0.21145
1704.76629,0.21161
1706.69476,0.21404
1708.62323,0.20693
1710.55170,0.19628
1712.48017,0.19129
1714.40864,0.20105
1716.33711,0.21976
1718.26558,0.21333
1720.19404,0.19412
1722.12251,0.18771
1724.05098,0.18888
1725.97945,0.19084
1727.90792,0.19118
1729.83639,0.19097
1731.76486,0.19685
1733.69332,0.20991
1735.62179,0.20912
1737.55026,0.19813
1739.47873,0.19378
1741.40720,0.20049
1743.33567,0.20837
1745.26414,0.20748
1747.19261,0.20132
1749.12107,0.20141
1751.04954,0.20703
1752.97801,0.20515
1754.90648,0.19784
1756.83495,0.19198
1758.76342,0.19284
1760.69189,0.20091
1762.62035,0.20494
1764.54882,0.19990
1766.47729,0.19743
1768.40576,0.20398
1770.33423,0.21633
1772.26270,0.21769
1774.19117,0.20076
1776.11964,0.18988
1778.04810,0.19299
1779.97657,0.19977
1781.90504,0.19571
1783.83351,0.18472
1785.76198,0.18275
1787.69045,0.19089
1789.61892,0.19926
1791.54738,0.19960
1793.47585,0.19334
1795.40432,0.19306
1797.33279,0.19711
1799.26126,0.19814
1801.18973,0.19369
1803.11820,0.18926
1805.04666,0.19002
1806.97513,0.19158
1808.90360,0.18879
1810.83207,0.18499
1812.76054,0.18579
1814.68901,0.19049
1816.61748,0.19391
1818.54595,0.18984
1820.47441,0.18377
1822.40288,0.18972
1824.33135,0.20247
1826.25982,0.20436
1828.18829,0.19863
1830.11676,0.19500
1832.04523,0.19553
1833.97369,0.19699
1835.90216,0.19360
1837.83063,0.18718
1839.75910,0.18727
1841.68757,0.19720
1843.61604,0.20771
1845.54451,0.20321
1847.47298,0.19395
1849.40144,0.19435
1851.32991,0.19801
1853.25838,0.19489
1855.18685,0.18676
1857.11532,0.18289
1859.04379,0.18666
1860.97226,0.19178
1862.90072,0.19194
1864.82919,0.19014
1866.75766,0.19316
1868.68613,0.19851
1870.61460,0.19689
1872.54307,0.19075
1874.47154,0.18660
1876.40001,0.18799
1878.32847,0.19375
1880.25694,0.19628
1882.18541,0.19401
1884.11388,0.19308
1886.04235,0.19494
1887.97082,0.19694
1889.89929,0.19572
1891.82775,0.19194
1893.75622,0.19321
1895.68469,0.19924
1897.61316,0.19910
1899.54163,0.19081
1901.47010,0.18490
1903.39857,0.18752
1905.32704,0.19299
1907.25550,0.19330
1909.18397,0.18849
1911.11244,0.18669
1913.04091,0.19127
1914.96938,0.19620
1916.89785,0.19563
1918.82632,0.19077
1920.75478,0.19012
1922.68325,0.19553
1924.61172,0.19823
1926.54019,0.19488
1928.46866,0.19097
1930.39713,0.19075
1932.32560,0.19465
1934.25407,0.19708
1936.18253,0.19273
1938.11100,0.18788
1940.03947,0.19055
1941.96794,0.19509
1943.89641,0.19267
1945.82488,0.18858
1947.75335,0.19005
1949.68181,0.19460
1951.61028,0.19525
1953.53875,0.18928
1955.46722,0.18354
1957.39569,0.18543
1959.32416,0.19199
1961.25263,0.19526
1963.18110,0.19422
1965.10956,0.19483
1967.03803,0.19678
1968.96650,0.19551
1970.89497,0.19314
1972.82344,0.19137
1974.75191,0.19045
1976.68038,0.19152
1978.60884,0.19105
1980.53731,0.18735
1982.46578,0.18465
1984.39425,0.18554
1986.32272,0.18947
1988.25119,0.19172
1990.17966,0.18902
1992.10812,0.18761
1994.03659,0.19254
1995.96506,0.19716
1997.89353,0.19437
1999.82200,0.18819
2001.75047,0.18736
2003.67894,0.19254
2005.60741,0.19716
2007.53587,0.19667
2009.46434,0.19379
2011.39281,0.19318
2013.32128,0.19539
2015.24975,0.19596
2017.17822,0.19084
2019.10669,0.18601
2021.03515,0.18890
2022.96362,0.19384
2024.89209,0.19239
2026.82056,0.18822
2028.74903,0.18888
2030.67750,0.19092
2032.60597,0.18818
2034.53444,0.18398
2036.46290,0.18297
2038.39137,0.18573
2040.31984,0.19152
2042.24831,0.19498
2044.17678,0.19267
2046.10525,0.19108
2048.03372,0.19435
2049.96218,0.19704
2051.89065,0.19489
2053.81912,0.19138
2055.74759,0.19151
2057.67606,0.19338
2059.60453,0.19246
2061.53300,0.18896
2063.46147,0.18601
2065.38993,0.18666
2067.31840,0.19176
2069.24687,0.19722
2071.17534,0.19588
2073.10381,0.18988
2075.03228,0.18990
2076.96075,0.19617
2078.88921,0.19894
2080.81768,0.19608
2082.74615,0.19561
2084.67462,0.19909
2086.60309,0.19844
2088.53156,0.19223
2090.46003,0.18758
2092.38850,0.18768
2094.31696,0.18944
2096.24543,0.18975
2098.17390,0.18922
2100.10237,0.19120
2102.03084,0.19615
2103.95931,0.20032
2105.88778,0.19981
2107.81624,0.19550
2109.74471,0.19334
2111.67318,0.19562
2113.60165,0.19776
2115.53012,0.19612
2117.45859,0.19281
2119.38706,0.19267
2121.31553,0.19628
2123.24399,0.19802
2125.17246,0.19480
2127.10093,0.19229
2129.02940,0.19552
2130.95787,0.19784
2132.88634,0.19631
2134.81481,0.20041
2136.74327,0.20965
2138.67174,0.21362
2140.60021,0.20649
2142.52868,0.19365
2144.45715,0.18922
2146.38562,0.19340
2148.31409,0.19683
2150.24255,0.19747
2152.17102,0.19556
2154.09949,0.19360
2156.02796,0.19483
2157.95643,0.19674
2159.88490,0.19552
2161.81337,0.19409
2163.74184,0.19618
2165.67030,0.19894
2167.59877,0.19912
2169.52724,0.19709
2171.45571,0.19425
2173.38418,0.19253
2175.31265,0.19313
2177.24112,0.19400
2179.16958,0.19308
2181.09805,0.19187
2183.02652,0.19293
2184.95499,0.19421
2186.88346,0.19260
2188.81193,0.19196
2190.74040,0.19572
2192.66887,0.19985
2194.59733,0.19959
2196.52580,0.19557
2198.45427,0.19263
2200.38274,0.19455
2202.31121,0.19823
2204.23968,0.19724
2206.16815,0.19326
2208.09661,0.19166
2210.02508,0.19242
2211.95355,0.19302
2213.88202,0.19050
2215.81049,0.18658
2217.73896,0.18789
2219.66743,0.19427
2221.59590,0.19827
2223.52436,0.19601
2225.45283,0.19233
2227.38130,0.19408
2229.30977,0.19893
2231.23824,0.19860
2233.16671,0.19357
2235.09518,0.19118
2237.02364,0.19150
2238.95211,0.19067
2240.88058,0.18896
2242.80905,0.18746
2244.73752,0.18750
2246.66599,0.19043
2248.59446,0.19405
2250.52293,0.19441
2252.45139,0.19160
2254.37986,0.19010
2256.30833,0.19213
2258.23680,0.19450
2260.16527,0.19440
2262.09374,0.19390
2264.02221,0.19543
2265.95067,0.19660
2267.87914,0.19303
2269.80761,0.18759
2271.73608,0.18894
2273.66455,0.19584
2275.59302,0.19916
2277.52149,0.19645
2279.44996,0.19196
2281.37842,0.18998
2283.30689,0.19043
2285.23536,0.19010
2287.16383,0.18975
2289.09230,0.19290
2291.02077,0.19728
2292.94924,0.19575
2294.87770,0.18617
2296.80617,0.17671
2298.73464,0.17582
2300.66311,0.17998
2302.59158,0.18289
2304.52005,0.18462
2306.44852,0.18534
2308.37699,0.18579
2310.30545,0.18654
2312.23392,0.18298
2314.16239,0.17566
2316.09086,0.17191
2318.01933,0.17306
2319.94780,0.17593
2321.87627,0.17489
2323.80473,0.16889
2325.73320,0.16722
2327.66167,0.17459
2329.59014,0.18334
2331.51861,0.17702
2333.44708,0.16490
2335.37555,0.17270
2337.30401,0.18663
2339.23248,0.17899
2341.16095,0.16124
2343.08942,0.15971
2345.01789,0.16551
2346.94636,0.16465
2348.87483,0.16074
2350.80330,0.15544
2352.73176,0.15353
2354.66023,0.15709
2356.58870,0.15079
2358.51717,0.13196
2360.44564,0.12592
2362.37411,0.14386
2364.30258,0.16781
2366.23104,0.17231
2368.15951,0.15888
2370.08798,0.15838
2372.01645,0.17460
2373.94492,0.18573
2375.87339,0.18332
2377.80186,0.17676
2379.73033,0.17678
2381.65879,0.18322
2383.58726,0.18932
2385.51573,0.19171
2387.44420,0.19245
2389.37267,0.19427
2391.30114,0.19611
2393.22961,0.19403
2395.15807,0.18869
2397.08654,0.18621
2399.01501,0.18787
2400.94348,0.18912
2402.87195,0.18793
2404.80042,0.18778
2406.72889,0.19080
2408.65736,0.19441
2410.58582,0.19609
2412.51429,0.19465
2414.44276,0.19268
2416.37123,0.19333
2418.29970,0.19429
2420.22817,0.19318
2422.15664,0.19215
2424.08510,0.19389
2426.01357,0.19695
2427.94204,0.19756
2429.87051,0.19525
2431.79898,0.19406
2433.72745,0.19564
2435.65592,0.19577
2437.58439,0.19401
2439.51285,0.19357
2441.44132,0.19292
2443.36979,0.19078
2445.29826,0.18915
2447.22673,0.18948
2449.15520,0.19163
2451.08367,0.19349
2453.01213,0.19345
2454.94060,0.19152
2456.86907,0.18898
2458.79754,0.18946
2460.72601,0.19453
2462.65448,0.19918
2464.58295,0.19757
2466.51142,0.19284
2468.43988,0.19168
2470.36835,0.19330
2472.29682,0.19406
2474.22529,0.19363
2476.15376,0.19399
2478.08223,0.19551
2480.01070,0.19777
2481.93916,0.20061
2483.86763,0.20037
2485.79610,0.19617
2487.72457,0.19258
2489.65304,0.19206
2491.58151,0.19239
2493.50998,0.19105
2495.43844,0.19112
2497.36691,0.19466
2499.29538,0.19590
2501.22385,0.19064
2503.15232,0.18449
2505.08079,0.18553
2507.00926,0.19216
2508.93773,0.19629
2510.86619,0.19577
2512.79466,0.19468
2514.72313,0.19473
2516.65160,0.19465
2518.58007,0.19374
2520.50854,0.19171
2522.43701,0.19072
2524.36547,0.19390
2526.29394,0.19815
2528.22241,0.19774
2530.15088,0.19337
2532.07935,0.19164
2534.00782,0.19532
2535.93629,0.19748
2537.86476,0.19390
2539.79322,0.19068
2541.72169,0.19261
2543.65016,0.19600
2545.57863,0.19479
2547.50710,0.19068
2549.43557,0.18948
2551.36404,0.19198
2553.29250,0.19554
2555.22097,0.19633
2557.14944,0.19460
2559.07791,0.19413
2561.00638,0.19592
2562.93485,0.19838
2564.86332,0.19764
2566.79179,0.19378
2568.72025,0.19282
2570.64872,0.19536
2572.57719,0.19634
2574.50566,0.19611
2576.43413,0.19779
2578.36260,0.19965
2580.29107,0.19847
2582.21953,0.19422
2584.14800,0.19109
2586.07647,0.19335
2588.00494,0.19891
2589.93341,0.20099
2591.86188,0.19726
2593.79035,0.19338
2595.71882,0.19385
2597.64728,0.19630
2599.57575,0.19657
2601.50422,0.19405
2603.43269,0.19218
2605.36116,0.19314
2607.28963,0.19396
2609.21810,0.19112
2611.14656,0.18810
2613.07503,0.19068
2615.00350,0.19748
2616.93197,0.20235
2618.86044,0.20075
2620.78891,0.19676
2622.71738,0.19726
2624.64585,0.19867
2626.57431,0.19618
2628.50278,0.19345
2630.43125,0.19519
2632.35972,0.19976
2634.28819,0.20108
2636.21666,0.19746
2638.14513,0.19480
2640.07359,0.19800
2642.00206,0.20238
2643.93053,0.20110
2645.85900,0.19719
2647.78747,0.19657
2649.71594,0.19869
2651.64441,0.20053
2653.57288,0.19948
2655.50134,0.19605
2657.42981,0.19484
2659.35828,0.19807
2661.28675,0.20105
2663.21522,0.19699
2665.14369,0.19204
2667.07216,0.19656
2669.00062,0.20342
2670.92909,0.20326
2672.85756,0.20054
2674.78603,0.19938
2676.71450,0.19846
2678.64297,0.19812
2680.57144,0.19799
2682.49990,0.19829
2684.42837,0.20118
2686.35684,0.20354
2688.28531,0.20253
2690.21378,0.20084
2692.14225,0.20004
2694.07072,0.20083
2695.99919,0.20227
2697.92765,0.20108
2699.85612,0.19915
2701.78459,0.20038
2703.71306,0.20404
2705.64153,0.20595
2707.57000,0.20244
2709.49847,0.19802
2711.42693,0.19970
2713.35540,0.20497
2715.28387,0.20766
2717.21234,0.20650
2719.14081,0.20374
2721.06928,0.20288
2722.99775,0.20445
2724.92622,0.20427
2726.85468,0.20174
2728.78315,0.20170
2730.71162,0.20429
2732.64009,0.20344
2734.56856,0.19768
2736.49703,0.19244
2738.42550,0.19339
2740.35396,0.20009
2742.28243,0.20487
2744.21090,0.20351
2746.13937,0.20057
2748.06784,0.20201
2749.99631,0.20797
2751.92478,0.21162
2753.85325,0.20848
2755.78171,0.20378
2757.71018,0.20447
2759.63865,0.20872
2761.56712,0.20952
2763.49559,0.20523
2765.42406,0.20164
2767.35253,0.20353
2769.28099,0.20894
2771.20946,0.21223
2773.13793,0.21114
2775.06640,0.21242
2776.99487,0.21893
2778.92334,0.22130
2780.85181,0.21602
2782.78028,0.21120
2784.70874,0.21053
2786.63721,0.20886
2788.56568,0.20388
2790.49415,0.20032
2792.42262,0.20203
2794.35109,0.20737
2796.27956,0.21220
2798.20802,0.21306
2800.13649,0.21094
2802.06496,0.21112
2803.99343,0.21388
2805.92190,0.21543
2807.85037,0.21464
2809.77884,0.21337
2811.70731,0.21534
2813.63577,0.21798
2815.56424,0.21467
2817.49271,0.21042
2819.42118,0.21343
2821.34965,0.21888
2823.27812,0.21894
2825.20659,0.21298
2827.13505,0.20617
2829.06352,0.20586
2830.99199,0.21130
2832.92046,0.21463
2834.84893,0.21280
2836.77740,0.21050
2838.70587,0.21093
2840.63433,0.21121
2842.56280,0.21020
2844.49127,0.21072
2846.41974,0.21307
2848.34821,0.21325
2850.27668,0.21011
2852.20515,0.20725
2854.13362,0.20737
2856.06208,0.21053
2857.99055,0.21397
2859.91902,0.21498
2861.84749,0.21311
2863.77596,0.20979
2865.70443,0.20981
2867.63290,0.21278
2869.56136,0.20958
2871.48983,0.20096
2873.41830,0.19769
2875.34677,0.20206
2877.27524,0.20785
2879.20371,0.20902
2881.13218,0.20762
2883.06065,0.20854
2884.98911,0.20934
2886.91758,0.20770
2888.84605,0.20513
2890.77452,0.20394
2892.70299,0.20516
2894.63146,0.20572
2896.55993,0.20473
2898.48839,0.20583
2900.41686,0.20901
2902.34533,0.20914
2904.27380,0.20422
2906.20227,0.19946
2908.13074,0.19799
2910.05921,0.19984
2911.98768,0.20558
2913.91614,0.20781
2915.84461,0.20173
2917.77308,0.19768
2919.70155,0.20184
2921.63002,0.20646
2923.55849,0.20353
2925.48696,0.19078
2927.41542,0.17423
2929.34389,0.16645
2931.27236,0.17264
2933.20083,0.18585
2935.12930,0.19222
2937.05777,0.19090
2938.98624,0.19673
2940.91471,0.20443
2942.84317,0.20270
2944.77164,0.19955
2946.70011,0.19964
2948.62858,0.20477
2950.55705,0.21226
2952.48552,0.21193
2954.41399,0.20674
2956.34245,0.20268
2958.27092,0.19933
2960.19939,0.19912
2962.12786,0.20354
2964.05633,0.21216
2965.98480,0.21839
2967.91327,0.21399
2969.84174,0.20413
2971.77020,0.19904
2973.69867,0.20424
2975.62714,0.21026
2977.55561,0.20244
2979.48408,0.19452
2981.41255,0.20192
2983.34102,0.21260
2985.26948,0.21420
2987.19795,0.20572
2989.12642,0.19727
2991.05489,0.20191
2992.98336,0.21269
2994.91183,0.21417
2996.84030,0.20748
2998.76877,0.20414
3000.69723,0.20957
3002.62570,0.21644
3004.55417,0.21402
3006.48264,0.20424
3008.41111,0.19928
3010.33958,0.19906
3012.26805,0.18535
3014.19651,0.15204
3016.12498,0.12595
3018.05345,0.13776
3019.98192,0.17586
3021.91039,0.20406
3023.83886,0.21405
3025.76733,0.21563
3027.69579,0.21678
3029.62426,0.22235
3031.55273,0.22191
3033.48120,0.21029
3035.40967,0.20473
3037.33814,0.21178
3039.26661,0.21695
3041.19508,0.21182
3043.12354,0.20379
3045.05201,0.20161
3046.98048,0.20541
3048.90895,0.21142
3050.83742,0.21439
3052.76589,0.21139
3054.69436,0.20635
3056.62282,0.20217
3058.55129,0.19991
3060.47976,0.20241
3062.40823,0.20907
3064.33670,0.21353
3066.26517,0.21121
3068.19364,0.20627
3070.12211,0.20325
3072.05057,0.20425
3073.97904,0.20620
3075.90751,0.20271
3077.83598,0.20095
3079.76445,0.20688
3081.69292,0.21115
3083.62139,0.20569
3085.54985,0.19978
3087.47832,0.20745
3089.40679,0.22047
3091.33526,0.22268
3093.26373,0.21026
3095.19220,0.19456
3097.12067,0.19148
3099.04914,0.19870
3100.97760,0.20291
3102.90607,0.19897
3104.83454,0.19687
3106.76301,0.20461
3108.69148,0.21368
3110.61995,0.21190
3112.54842,0.20054
3114.47688,0.19583
3116.40535,0.20424
3118.33382,0.21641
3120.26229,0.22099
3122.19076,0.21518
3124.11923,0.21076
3126.04770,0.21424
3127.97617,0.21678
3129.90463,0.21173
3131.83310,0.20486
3133.76157,0.20514
3135.69004,0.21402
3137.61851,0.22210
3139.54698,0.21899
3141.47545,0.21161
3143.40391,0.21265
3145.33238,0.21912
3147.26085,0.22117
3149.18932,0.21806
3151.11779,0.21740
3153.04626,0.22150
3154.97473,0.22350
3156.90320,0.21809
3158.83166,0.21027
3160.76013,0.20959
3162.68860,0.21642
3164.61707,0.22339
3166.54554,0.22317
3168.47401,0.21552
3170.40248,0.21273
3172.33094,0.22006
3174.25941,0.22480
3176.18788,0.21909
3178.11635,0.20972
3180.04482,0.20690
3181.97329,0.21391
3183.90176,0.22157
3185.83022,0.22028
3187.75869,0.21722
3189.68716,0.22209
3191.61563,0.22876
3193.54410,0.22699
3195.47257,0.21912
3197.40104,0.21724
3199.32951,0.22296
3201.25797,0.22641
3203.18644,0.22397
3205.11491,0.22080
3207.04338,0.22238
3208.97185,0.22554
3210.90032,0.22311
3212.82879,0.21738
3214.75725,0.21582
3216.68572,0.22166
3218.61419,0.22905
3220.54266,0.22572
3222.47113,0.21262
3224.39960,0.20617
3226.32807,0.21228
3228.25654,0.21951
3230.18500,0.21906
3232.11347,0.21439
3234.04194,0.21427
3235.97041,0.21918
3237.89888,0.21956
3239.82735,0.21528
3241.75582,0.21513
3243.68428,0.22385
3245.61275,0.23498
3247.54122,0.23159
3249.46969,0.21440
3251.39816,0.20517
3253.32663,0.21145
3255.25510,0.21814
3257.18357,0.21536
3259.11203,0.20980
3261.04050,0.20914
3262.96897,0.21329
3264.89744,0.21465
3266.82591,0.20954
3268.75438,0.20709
3270.68285,0.21373
3272.61131,0.22230
3274.53978,0.22392
3276.46825,0.21943
3278.39672,0.21735
3280.32519,0.22168
3282.25366,0.22211
3284.18213,0.21042
3286.11060,0.19869
3288.03906,0.20128
3289.96753,0.21441
3291.89600,0.22250
3293.82447,0.21675
3295.75294,0.20673
3297.68141,0.20565
3299.60988,0.21156
3301.53834,0.21486
3303.46681,0.21325
3305.39528,0.21126
3307.32375,0.21299
3309.25222,0.21536
3311.18069,0.21069
3313.10916,0.20227
3315.03763,0.20307
3316.96609,0.21312
3318.89456,0.21899
3320.82303,0.21649
3322.75150,0.21488
3324.67997,0.21946
3326.60844,0.22531
3328.53691,0.22542
3330.46537,0.21754
3332.39384,0.21182
3334.32231,0.21934
3336.25078,0.23010
3338.17925,0.22995
3340.10772,0.22236
3342.03619,0.21793
3343.96466,0.21984
3345.89312,0.22008
3347.82159,0.21247
3349.75006,0.20599
3351.67853,0.21237
3353.60700,0.22504
3355.53547,0.22675
3357.46394,0.21756
3359.39240,0.21264
3361.32087,0.21446
3363.24934,0.21403
3365.17781,0.21065
3367.10628,0.21120
3369.03475,0.21818
3370.96322,0.22614
3372.89168,0.22691
3374.82015,0.21754
3376.74862,0.20645
3378.67709,0.20531
3380.60556,0.21231
3382.53403,0.21572
3384.46250,0.21124
3386.39097,0.20975
3388.31943,0.21661
3390.24790,0.21972
3392.17637,0.21462
3394.10484,0.20876
3396.03331,0.20827
3397.96178,0.21309
3399.89025,0.21547
3401.81871,0.21305
3403.74718,0.21173
3405.67565,0.21300
3407.60412,0.21350
3409.53259,0.21047
3411.46106,0.20223
3413.38953,0.19489
3415.31800,0.20053
3417.24646,0.21499
3419.17493,0.21816
3421.10340,0.20581
3423.03187,0.19683
3424.96034,0.20278
3426.88881,0.21419
3428.81728,0.21547
3430.74574,0.20729
3432.67421,0.20369
3434.60268,0.20611
3436.53115,0.20853
3438.45962,0.20863
3440.38809,0.20788
3442.31656,0.21433
3444.24503,0.22411
3446.17349,0.22362
3448.10196,0.21718
3450.03043,0.21463
3451.95890,0.21291
3453.88737,0.20847
3455.81584,0.20074
3457.74431,0.19421
3459.67277,0.19564
3461.60124,0.20033
3463.52971,0.19906
3465.45818,0.19392
3467.38665,0.19339
3469.31512,0.19898
3471.24359,0.20416
3473.17206,0.20164
3475.10052,0.19310
3477.02899,0.18933
3478.95746,0.19291
3480.88593,0.19407
3482.81440,0.18699
3484.74287,0.18215
3486.67134,0.18677
3488.59980,0.19086
3490.52827,0.19098
3492.45674,0.19293
3494.38521,0.19347
3496.31368,0.18999
3498.24215,0.18739
3500.17062,0.18687
3502.09909,0.18806
3504.02755,0.19182
3505.95602,0.19222
3507.88449,0.18527
3509.81296,0.17633
3511.74143,0.17222
3513.66990,0.17398
3515.59837,0.17611
3517.52683,0.17226
3519.45530,0.16542
3521.38377,0.16405
3523.31224,0.16957
3525.24071,0.17610
3527.16918,0.17635
3529.09765,0.16839
3531.02611,0.16267
3532.95458,0.16741
3534.88305,0.17454
3536.81152,0.17494
3538.73999,0.17146
3540.66846,0.17062
3542.59693,0.17366
3544.52540,0.17516
3546.45386,0.17066
3548.38233,0.16856
3550.31080,0.17559
3552.23927,0.18104
3554.16774,0.17558
3556.09621,0.16856
3558.02468,0.16797
3559.95314,0.17133
3561.88161,0.17339
3563.81008,0.17356
3565.73855,0.17495
3567.66702,0.17457
3569.59549,0.16803
3571.52396,0.15804
3573.45243,0.14786
3575.38089,0.14521
3577.30936,0.15296
3579.23783,0.15973
3581.16630,0.16015
3583.09477,0.16221
3585.02324,0.17139
3586.95171,0.18148
3588.88017,0.17480
3590.80864,0.15804
3592.73711,0.14967
3594.66558,0.15432
3596.59405,0.16309
3598.52252,0.16599
3600.45099,0.16272
3602.37946,0.15747
3604.30792,0.15636
3606.23639,0.15922
3608.16486,0.15851
3610.09333,0.15414
3612.02180,0.15416
3613.95027,0.15563
3615.87874,0.15562
3617.80720,0.15843
3619.73567,0.15840
3621.66414,0.15329
3623.59261,0.15249
3625.52108,0.15559
3627.44955,0.15771
3629.37802,0.15759
3631.30649,0.15989
3633.23495,0.16094
3635.16342,0.15429
3637.09189,0.14431
3639.02036,0.14038
3640.94883,0.14275
3642.87730,0.14426
3644.80577,0.14399
3646.73423,0.14595
3648.66270,0.15240
3650.59117,0.15873
3652.51964,0.15451
3654.44811,0.14594
3656.37658,0.14471
3658.30505,0.15073
3660.23352,0.14906
3662.16198,0.13748
3664.09045,0.12914
3666.01892,0.13545
3667.94739,0.15233
3669.87586,0.15861
3671.80433,0.14360
3673.73280,0.13386
3675.66126,0.13934
3677.58973,0.14468
3679.51820,0.13987
3681.44667,0.13262
3683.37514,0.13018
3685.30361,0.13323
3687.23208,0.13804
3689.16055,0.14039
3691.08901,0.13647
3693.01748,0.13204
3694.94595,0.13309
3696.87442,0.13552
3698.80289,0.13424
3700.73136,0.13332
3702.65983,0.13489
3704.58829,0.13493
3706.51676,0.13471
3708.44523,0.13764
3710.37370,0.14288
3712.30217,0.14055
3714.23064,0.13385
3716.15911,0.13436
3718.08757,0.13946
3720.01604,0.14310
3721.94451,0.14796
3723.87298,0.15223
3725.80145,0.14217
3727.72992,0.12663
3729.65839,0.12531
3731.58686,0.13595
3733.51532,0.14653
3735.44379,0.14682
3737.37226,0.14257
3739.30073,0.14634
3741.22920,0.15479
3743.15767,0.15599
3745.08614,0.14189
3747.01460,0.13649
3748.94307,0.15109
3750.87154,0.16066
3752.80001,0.14254
3754.72848,0.13074
3756.65695,0.13607
3758.58542,0.14571
3760.51389,0.14480
3762.44235,0.13428
3764.37082,0.12440
3766.29929,0.12354
3768.22776,0.12973
3770.15623,0.13140
3772.08470,0.12665
3774.01317,0.12431
3775.94163,0.12848
3777.87010,0.13317
3779.79857,0.12841
3781.72704,0.12114
3783.65551,0.12210
3785.58398,0.12629
3787.51245,0.12257
3789.44092,0.11160
3791.36938,0.10796
3793.29785,0.11901
3795.22632,0.13415
3797.15479,0.13887
3799.08326,0.13387
3801.01173,0.12995
3802.94020,0.12944
3804.86866,0.12969
3806.79713,0.12856
3808.72560,0.12257
3810.65407,0.11921
3812.58254,0.12452
3814.51101,0.13391
3816.43948,0.13830
3818.36795,0.13669
3820.29641,0.13649
3822.22488,0.13546
3824.15335,0.12948
3826.08182,0.12562
3828.01029,0.12874
3829.93876,0.13430
3831.86723,0.13581
3833.79569,0.13129
3835.72416,0.13174
3837.65263,0.14861
3839.58110,0.16178
3841.50957,0.15354
3843.43804,0.13797
3845.36651,0.12535
3847.29498,0.12005
3849.22344,0.12160
3851.15191,0.12131
3853.08038,0.11032
3855.00885,0.10869
3856.93732,0.11658
3858.86579,0.12026
3860.79426,0.12195
3862.72272,0.12294
3864.65119,0.12455
3866.57966,0.12881
3868.50813,0.13067
3870.43660,0.12576
3872.36507,0.12177
3874.29354,0.12317
3876.22200,0.12320
3878.15047,0.11828
3880.07894,0.11147
3882.00741,0.11345
3883.93588,0.12482
3885.86435,0.12692
3887.79282,0.11511
3889.72129,0.10810
3891.64975,0.11166
3893.57822,0.11824
3895.50669,0.11814
3897.43516,0.11404
3899.36363,0.11961
3901.29210,0.13529
3903.22057,0.13843
3905.14903,0.12452
3907.07750,0.11166
3909.00597,0.10826
3910.93444,0.11255
3912.86291,0.11734
3914.79138,0.11656
3916.71985,0.11561
3918.64832,0.12069
3920.57678,0.12507
3922.50525,0.12045
3924.43372,0.10947
3926.36219,0.10638
3928.29066,0.11410
3930.21913,0.12093
3932.14760,0.12185
3934.07606,0.11773
3936.00453,0.11235
3937.93300,0.11393
3939.86147,0.12117
3941.78994,0.12235
3943.71841,0.11450
3945.64688,0.11008
3947.57535,0.11309
3949.50381,0.11337
3951.43228,0.10913
3953.36075,0.10707
3955.28922,0.10772
3957.21769,0.10887
3959.14616,0.10840
3961.07463,0.10738
3963.00309,0.10958
3964.93156,0.11690
3966.86003,0.12444
3968.78850,0.12139
3970.71697,0.10792
3972.64544,0.10021
3974.57391,0.10420
3976.50238,0.10691
3978.43084,0.10320
3980.35931,0.10124
3982.28778,0.10589
3984.21625,0.11146
3986.14472,0.10731
3988.07319,0.09701
3990.00166,0.09462
3991.93012,0.10200
3993.85859,0.10828
3995.78706,0.10840
3997.71553,0.10854
3999.64400,0.10879
4001.57247,0.10471
4003.50094,0.10162
4005.42941,0.10288
4007.35787,0.10242
4009.28634,0.10077
4011.21481,0.10349
4013.14328,0.10563
4015.07175,0.10381
4017.00022,0.10225
4018.92869,0.09957
4020.85715,0.09369
4022.78562,0.08926
4024.71409,0.09107
4026.64256,0.09860
4028.57103,0.10461
4030.49950,0.10188
4032.42797,0.09473
4034.35644,0.09275
4036.28490,0.09788
4038.21337,0.10620
4040.14184,0.10924
4042.07031,0.10372
4043.99878,0.10035
4045.92725,0.10493
4047.85572,0.10621
4049.78418,0.09731
4051.71265,0.08927
4053.64112,0.09243
4055.56959,0.10036
4057.49806,0.10192
4059.42653,0.09660
4061.35500,0.09434
4063.28346,0.10108
4065.21193,0.10747
4067.14040,0.10574
4069.06887,0.09944
4070.99734,0.09518
4072.92581,0.09787
4074.85428,0.10118
4076.78275,0.09712
4078.71121,0.09272
4080.63968,0.09598
4082.56815,0.10146
4084.49662,0.09985
4086.42509,0.09246
4088.35356,0.08924
4090.28203,0.09300
4092.21049,0.09674
4094.13896,0.09662
4096.06743,0.09565
4097.99590,0.09577
4099.92437,0.09602
4101.85284,0.09687
4103.78131,0.09769
4105.70978,0.09505
4107.63824,0.09095
4109.56671,0.09069
4111.49518,0.09326
4113.42365,0.09572
4115.35212,0.09489
4117.28059,0.08965
4119.20906,0.08728
4121.13752,0.08829
4123.06599,0.08529
4124.99446,0.08124
4126.92293,0.08150
4128.85140,0.08337
4130.77987,0.08164
4132.70834,0.07781
4134.63681,0.08019
4136.56527,0.08902
4138.49374,0.09422
4140.42221,0.09122
4142.35068,0.08658
4144.27915,0.08752
4146.20762,0.08935
4148.13609,0.08300
4150.06455,0.07587
4151.99302,0.08141
4153.92149,0.09433
4155.84996,0.09978
4157.77843,0.09502
4159.70690,0.08783
4161.63537,0.08366
4163.56384,0.08179
4165.49230,0.08122
4167.42077,0.08166
4169.34924,0.08170
4171.27771,0.08127
4173.20618,0.07876
4175.13465,0.07337
4177.06312,0.07192
4178.99158,0.07963
4180.92005,0.09115
4182.84852,0.09487
4184.77699,0.08808
4186.70546,0.07996
4188.63393,0.07774
4190.56240,0.08102
4192.49087,0.07862
4194.41933,0.06739
4196.34780,0.06422
4198.27627,0.07349
4200.20474,0.08147
4202.13321,0.08242
4204.06168,0.07954
4205.99015,0.07721
4207.91861,0.07962
4209.84708,0.08380
4211.77555,0.08194
4213.70402,0.07476
4215.63249,0.07166
4217.56096,0.07555
4219.48943,0.07589
4221.41789,0.06889
4223.34636,0.06595
4225.27483,0.07128
4227.20330,0.07815
4229.13177,0.08185
4231.06024,0.08058
4232.98871,0.07734
4234.91718,0.07444
4236.84564,0.06627
4238.77411,0.05508
4240.70258,0.05245
4242.63105,0.05799
4244.55952,0.06495
4246.48799,0.07053
4248.41646,0.07200
4250.34492,0.07230
4252.27339,0.07516
4254.20186,0.07518
4256.13033,0.06698
4258.05880,0.05909
4259.98727,0.06270
4261.91574,0.06836
4263.84421,0.06500
4265.77267,0.06118
4267.70114,0.06285
4269.62961,0.06422
4271.55808,0.06195
4273.48655,0.05682
4275.41502,0.05269
4277.34349,0.05596
4279.27195,0.06383
4281.20042,0.06702
4283.12889,0.06478
4285.05736,0.06215
4286.98583,0.06246
4288.91430,0.06554
4290.84277,0.06818
4292.77124,0.06864
4294.69970,0.06824
4296.62817,0.06877
4298.55664,0.06949
4300.48511,0.06775
4302.41358,0.06287
4304.34205,0.05671
4306.27052,0.05198
4308.19898,0.04885
4310.12745,0.04712
4312.05592,0.05187
4313.98439,0.06205
4315.91286,0.06759
4317.84133,0.06431
4319.76980,0.05512
4321.69827,0.04790
4323.62673,0.04707
4325.55520,0.04749
4327.48367,0.04699
4329.41214,0.04825
4331.34061,0.05334
4333.26908,0.05882
4335.19755,0.05725
4337.12601,0.05059
4339.05448,0.04679
4340.98295,0.04900
4342.91142,0.05264
4344.83989,0.04909
4346.76836,0.03611
4348.69683,0.02427
4350.62530,0.02667
4352.55376,0.03459
4354.48223,0.03482
4356.41070,0.03495
4358.33917,0.03976
4360.26764,0.04386
4362.19611,0.04539
4364.12458,0.04352
4366.05304,0.04073
4367.98151,0.04305
4369.90998,0.04559
4371.83845,0.03937
4373.76692,0.03138
4375.69539,0.03304
4377.62386,0.04094
4379.55232,0.04347
4381.48079,0.03714
4383.40926,0.02965
4385.33773,0.03037
4387.26620,0.03692
4389.19467,0.03800
4391.12314,0.03288
4393.05161,0.03263
4394.98007,0.04128
4396.90854,0.05008
4398.83701,0.04921
4400.76548,0.03860
4402.69395,0.02985
4404.62242,0.03214
4406.55089,0.03825
4408.47935,0.03716
4410.40782,0.03235
4412.33629,0.03510
4414.26476,0.04136
4416.19323,0.03645
4418.12170,0.02650
4420.05017,0.03122
4421.97864,0.04416
4423.90710,0.04440
4425.83557,0.03425
4427.76404,0.02773
4429.69251,0.02984
4431.62098,0.03811
4433.54945,0.04167
4435.47792,0.03162
4437.40638,0.01915
4439.33485,0.02044
4441.26332,0.03148
4443.19179,0.03795
4445.12026,0.03781
4447.04873,0.03791
4448.97720,0.04056
4450.90567,0.03943
4452.83413,0.02741
4454.76260,0.01560
4456.69107,0.01865
4458.61954,0.02685
4460.54801,0.02372
4462.47648,0.01440
4464.40495,0.01078
4466.33341,0.01163
4468.26188,0.01375
4470.19035,0.01688
4472.11882,0.02309
4474.04729,0.03292
4475.97576,0.03792
4477.90423,0.03626
4479.83270,0.03466
4481.76116,0.03370
4483.68963,0.03637
4485.61810,0.04283
4487.54657,0.04088
4489.47504,0.03212
4491.40351,0.02956
4493.33198,0.03232
4495.26044,0.03371
4497.18891,0.03071
4499.11738,0.01900
4501.04585,0.00470
4502.97432,0.00830
4504.90279,0.02857
4506.83126,0.04017
4508.75973,0.03343
4510.68819,0.02168
4512.61666,0.01918
4514.54513,0.02171
4516.47360,0.01923
4518.40207,0.01468
4520.33054,0.01611
4522.25901,0.02319
4524.18747,0.02434
4526.11594,0.01449
4528.04441,0.00466
4529.97288,0.00591
4531.90135,0.01592
4533.82982,0.02592
4535.75829,0.02996
4537.68676,0.02569
4539.61522,0.01980
4541.54369,0.01871
4543.47216,0.01530
4545.40063,0.00794
4547.32910,0.00768
4549.25757,0.01894
4551.18604,0.02898
4553.11450,0.02600
4555.04297,0.02296
4556.97144,0.02554
4558.89991,0.02343
4560.82838,0.01973
4562.75685,0.01115
4564.68532,-0.00179
4566.61378,-0.00188
4568.54225,0.00784
4570.47072,0.01247
4572.39919,0.01112
4574.32766,0.01111
4576.25613,0.01621
4578.18460,0.01984
4580.11307,0.01789
4582.04153,0.01958
4583.97000,0.02736
4585.89847,0.02802
4587.82694,0.01578
4589.75541,-0.00038
4591.68388,-0.00835
4593.61235,-0.00060
4595.54081,0.01261
4597.46928,0.01625
4599.39775,0.01400
4601.32622,0.01572
4603.25469,0.02236
4605.18316,0.02235
4607.11163,0.01143
4609.04010,0.00871
4610.96856,0.01817
4612.89703,0.02244
4614.82550,0.02011
4616.75397,0.01928
4618.68244,0.02003
4620.61091,0.01842
4622.53938,0.01482
4624.46784,0.01432
4626.39631,0.01103
4628.32478,0.00347
4630.25325,0.00498
4632.18172,0.00761
4634.11019,0.00017
4636.03866,-0.00077
4637.96713,0.01210
4639.89559,0.02394
4641.82406,0.02655
4643.75253,0.02464
4645.68100,0.02064
4647.60947,0.01559
4649.53794,0.01247
4651.46641,0.00768
4653.39487,-0.00061
4655.32334,-0.00615
4657.25181,-0.00564
4659.18028,-0.00252
4661.10875,-0.00238
4663.03722,-0.00022
4664.96569,0.01179
4666.89416,0.02067
4668.82262,0.01482
4670.75109,0.00145
4672.67956,-0.00676
4674.60803,0.00122
4676.53650,0.01506
4678.46497,0.01335
4680.39344,0.00195
4682.32190,-0.00106
4684.25037,0.00189
4686.17884,-0.00171
4688.10731,-0.01071
4690.03578,-0.01265
4691.96425,-0.00630
4693.89272,-0.00281
4695.82119,-0.00098
4697.74965,0.00514
4699.67812,0.00909
4701.60659,0.00972
4703.53506,0.00835
4705.46353,-0.00029
4707.39200,-0.00689
4709.32047,-0.00182
4711.24893,0.00560
4713.17740,0.00619
4715.10587,-0.00076
4717.03434,-0.00223
4718.96281,0.00984
4720.89128,0.01369
4722.81975,-0.00106
4724.74821,-0.01422
4726.67668,-0.01501
4728.60515,-0.00943
4730.53362,-0.00478
4732.46209,-0.00739
4734.39056,-0.00880
4736.31903,0.00260
4738.24750,0.01505
4740.17596,0.01683
4742.10443,0.01217
4744.03290,0.01301
4745.96137,0.02157
4747.88984,0.01997
4749.81831,0.00752
4751.74678,0.00320
4753.67524,0.00725
4755.60371,0.00874
4757.53218,0.00346
4759.46065,0.00047
4761.38912,0.00908
4763.31759,0.01820
4765.24606,0.01388
4767.17453,-0.00084
4769.10299,-0.01421
4771.03146,-0.01261
4772.95993,0.00411
4774.88840,0.01491
4776.81687,0.00827
4778.74534,-0.00382
4780.67381,0.00010
4782.60227,0.02423
4784.53074,0.04038
4786.45921,0.03440
4788.38768,0.02210
4790.31615,0.01128
4792.24462,0.00370
4794.17309,0.00073
4796.10156,-0.00207
4798.03002,-0.00035
4799.95849,0.01574
4801.88696,0.03619
4803.81543,0.03642
4805.74390,0.01412
4807.67237,-0.00413
4809.60084,-0.00224
4811.52930,0.00089
4813.45777,-0.01279
4815.38624,-0.02550
4817.31471,-0.01847
4819.24318,-0.00358
4821.17165,0.00175
4823.10012,-0.00368
4825.02859,-0.00295
4826.95705,0.01228
4828.88552,0.02144
4830.81399,0.01283
4832.74246,-0.00084
4834.67093,-0.00432
4836.59940,0.00755
4838.52787,0.01750
4840.45633,0.00736
4842.38480,-0.00637
4844.31327,0.00168
4846.24174,0.02227
4848.17021,0.02396
4850.09868,0.00410
4852.02715,-0.00631
4853.95562,0.00401
4855.88408,0.01031
4857.81255,0.00178
4859.74102,-0.00401
4861.66949,-0.00248
4863.59796,-0.00299
4865.52643,-0.00552
4867.45490,-0.00888
4869.38336,-0.00905
4871.31183,-0.00199
4873.24030,0.00754
4875.16877,0.00561
4877.09724,-0.01111
4879.02571,-0.01566
4880.95418,0.00180
4882.88265,0.01153
4884.81111,0.00109
4886.73958,-0.00966
4888.66805,-0.00794
4890.59652,0.00242
4892.52499,0.00663
4894.45346,-0.00439
4896.38193,-0.01413
4898.31039,-0.00546
4900.23886,0.01015
4902.16733,0.00782
4904.09580,-0.00177
4906.02427,0.00958
4907.95274,0.02724
4909.88121,0.03010
4911.80967,0.01996
4913.73814,0.00752
4915.66661,0.00612
4917.59508,0.01990
4919.52355,0.02806
4921.45202,0.01383
4923.38049,0.00040
4925.30896,0.00822
4927.23742,0.02186
4929.16589,0.02211
4931.09436,0.00974
4933.02283,-0.00284
4934.95130,-0.00690
4936.87977,-0.00309
4938.80824,-0.00055
4940.73670,-0.00169
4942.66517,0.00351
4944.59364,0.01435
4946.52211,0.02143
4948.45058,0.01923
4950.37905,0.01293
4952.30752,0.02129
4954.23599,0.04282
4956.16445,0.04944
4958.09292,0.03078
4960.02139,0.01126
4961.94986,0.01221
4963.87833,0.02153
4965.80680,0.02782
4967.73527,0.02966
4969.66373,0.02434
4971.59220,0.01802
4973.52067,0.00557
4975.44914,-0.01953
4977.37761,-0.02910
4979.30608,-0.00702
4981.23455,0.01568
4983.16302,0.01198
4985.09148,-0.00738
4987.01995,-0.01499
4988.94842,-0.00345
4990.87689,0.00974
4992.80536,0.01621
4994.73383,0.02657
4996.66230,0.04266
4998.59076,0.04601
5000.51923,0.02459
5002.44770,-0.00476
5004.37617,-0.00912
5006.30464,0.01507
5008.23311,0.04103
5010.16158,0.04876
5012.09005,0.03888
5014.01851,0.02904
5015.94698,0.02833
5017.87545,0.03002
5019.80392,0.02668
5021.73239,0.01751
5023.66086,0.01427
5025.58933,0.02613
5027.51779,0.03185
5029.44626,0.01320
5031.37473,-0.00829
5033.30320,-0.00684
5035.23167,0.01544
5037.16014,0.03461
5039.08861,0.03096
5041.01708,0.01511
5042.94554,0.01788
5044.87401,0.03695
5046.80248,0.03834
5048.73095,0.02112
5050.65942,0.01081
5052.58789,0.01778
5054.51636,0.02975
5056.44482,0.02707
5058.37329,0.01204
5060.30176,0.00388
5062.23023,0.00854
5064.15870,0.00882
5066.08717,-0.00552
5068.01564,-0.01489
5069.94410,-0.00008
5071.87257,0.02515
5073.80104,0.02960
5075.72951,0.00790
5077.65798,-0.00399
5079.58645,0.01466
5081.51492,0.03128
5083.44339,0.02596
5085.37185,0.02037
5087.30032,0.03314
5089.22879,0.05833
5091.15726,0.07171
5093.08573,0.05903
5095.01420,0.04021
5096.94267,0.04081
5098.87113,0.04687
5100.79960,0.03763
5102.72807,0.03142
5104.65654,0.03973
5106.58501,0.04318
5108.51348,0.03375
5110.44195,0.02187
5112.37042,0.01113
5114.29888,0.00717
5116.22735,0.02082
5118.15582,0.03598
5120.08429,0.02808
5122.01276,0.01021
5123.94123,0.00770
5125.86970,0.02130
5127.79816,0.03277
5129.72663,0.02931
5131.65510,0.02340
5133.58357,0.02497
5135.51204,0.01593
5137.44051,-0.00366
5139.36898,-0.00479
5141.29745,0.02059
5143.22591,0.05426
5145.15438,0.06550
5147.08285,0.05133
5149.01132,0.04262
5150.93979,0.04506
5152.86826,0.05486
5154.79673,0.06466
5156.72519,0.04737
5158.65366,0.01566
5160.58213,0.00510
5162.51060,0.00993
5164.43907,0.01510
5166.36754,0.01925
5168.29601,0.02635
5170.22448,0.03662
5172.15294,0.03297
5174.08141,0.01444
5176.00988,0.00862
5177.93835,0.03062
5179.86682,0.05963
5181.79529,0.06292
5183.72376,0.04892
5185.65222,0.04963
5187.58069,0.05730
5189.50916,0.04931
5191.43763,0.03439
5193.36610,0.03050
5195.29457,0.04470
5197.22304,0.06197
5199.15151,0.05765
5201.07997,0.03718
5203.00844,0.02519
5204.93691,0.03688
5206.86538,0.05663
5208.79385,0.05007
5210.72232,0.02770
5212.65079,0.02448
5214.57925,0.03870
5216.50772,0.04273
5218.43619,0.03879
5220.36466,0.04857
5222.29313,0.07035
5224.22160,0.08311
5226.15007,0.06832
5228.07854,0.03742
5230.00700,0.01885
5231.93547,0.01631
5233.86394,0.01825
5235.79241,0.02541
5237.72088,0.03306
5239.64935,0.03382
5241.57782,0.03741
5243.50628,0.04156
5245.43475,0.03288
5247.36322,0.02704
5249.29169,0.04703
5251.22016,0.07762
5253.14863,0.08717
5255.07710,0.07067
5257.00556,0.06178
5258.93403,0.07074
5260.86250,0.07243
5262.79097,0.06375
5264.71944,0.04998
5266.64791,0.03714
5268.57638,0.03147
5270.50485,0.02448
5272.43331,0.01713
5274.36178,0.01609
5276.29025,0.02381
5278.21872,0.04394
5280.14719,0.05897
5282.07566,0.05459
5284.00413,0.05047
5285.93259,0.05173
5287.86106,0.05104
5289.78953,0.05429
5291.71800,0.06278
5293.64647,0.07696
5295.57494,0.07909
5297.50341,0.04995
5299.43188,0.01952
5301.36034,0.02002
5303.28881,0.03744
5305.21728,0.05507
5307.14575,0.06847
5309.07422,0.07077
5311.00269,0.06724
5312.93116,0.07441
5314.85962,0.08702
5316.78809,0.07760
5318.71656,0.06157
5320.64503,0.07061
5322.57350,0.08768
5324.50197,0.08940
5326.43044,0.07260
5328.35891,0.04664
5330.28737,0.03490
5332.21584,0.04777
5334.14431,0.05989
5336.07278,0.05026
5338.00125,0.03998
5339.92972,0.04991
5341.85819,0.07145
5343.78665,0.08733
5345.71512,0.07455
5347.64359,0.04589
5349.57206,0.03722
5351.50053,0.04903
5353.42900,0.06759
5355.35747,0.08995
5357.28594,0.10414
5359.21440,0.10337
5361.14287,0.08725
5363.07134,0.06265
5364.99981,0.05567
5366.92828,0.06867
5368.85675,0.06621
5370.78522,0.03594
5372.71368,0.00938
5374.64215,0.02585
5376.57062,0.07207
5378.49909,0.08115
5380.42756,0.05653
5382.35603,0.04609
5384.28450,0.06220
5386.21297,0.08265
5388.14143,0.08793
5390.06990,0.08328
5391.99837,0.08153
5393.92684,0.09024
5395.85531,0.08621
5397.78378,0.05709
5399.71225,0.03768
5401.64071,0.04668
5403.56918,0.07188
5405.49765,0.09257
5407.42612,0.09594
5409.35459,0.09467
5411.28306,0.10165
5413.21153,0.10792
5415.13999,0.09974
5417.06846,0.07499
5418.99693,0.05125
5420.92540,0.05717
5422.85387,0.08290
5424.78234,0.08981
5426.71081,0.07498
5428.63928,0.06237
5430.56774,0.07297
5432.49621,0.09365
5434.42468,0.09267
5436.35315,0.08175
5438.28162,0.08212
5440.21009,0.08003
5442.13856,0.06832
5444.06702,0.04751
5445.99549,0.02814
5447.92396,0.02943
5449.85243,0.04221
5451.78090,0.05149
5453.70937,0.04929
5455.63784,0.03122
5457.56631,0.01430
5459.49477,0.01625
5461.42324,0.03688
5463.35171,0.05818
5465.28018,0.07419
5467.20865,0.10030
5469.13712,0.10026
5471.06559,0.04565
5472.99405,0.00416
5474.92252,0.01853
5476.85099,0.04785
5478.77946,0.06264
5480.70793,0.06929
5482.63640,0.07417
5484.56487,0.08726
5486.49334,0.09345
5488.42180,0.07208
5490.35027,0.05010
5492.27874,0.06501
5494.20721,0.08441
5496.13568,0.06365
5498.06415,0.02965
5499.99262,0.02455
5501.92108,0.04523
5503.84955,0.05655
5505.77802,0.04535
5507.70649,0.03298
5509.63496,0.03909
5511.56343,0.05637
5513.49190,0.07965
5515.42037,0.09689
5517.34883,0.08723
5519.27730,0.06823
5521.20577,0.06456
5523.13424,0.06151
5525.06271,0.04145
5526.99118,0.02704
5528.91965,0.03931
5530.84811,0.05999
5532.77658,0.06484
5534.70505,0.04308
5536.63352,0.02136
5538.56199,0.03620
5540.49046,0.05893
5542.41893,0.04954
5544.34740,0.03486
5546.27586,0.05538
5548.20433,0.08818
5550.13280,0.09863
5552.06127,0.09537
5553.98974,0.09339
5555.91821,0.10329
5557.84668,0.11917
5559.77514,0.11797
5561.70361,0.09690
5563.63208,0.06531
5565.56055,0.04137
5567.48902,0.04188
5569.41749,0.05337
5571.34596,0.06116
5573.27443,0.07098
5575.20289,0.09167
5577.13136,0.11416
5579.05983,0.11136
5580.98830,0.08603
5582.91677,0.08773
5584.84524,0.11534
5586.77371,0.11102
5588.70217,0.07472
5590.63064,0.06067
5592.55911,0.08004
5594.48758,0.09343
5596.41605,0.06887
5598.34452,0.01915
5600.27299,-0.00167
5602.20145,0.03633
5604.12992,0.08064
5606.05839,0.07687
5607.98686,0.05432
5609.91533,0.05699
5611.84380,0.06146
5613.77227,0.04194
5615.70074,0.05019
5617.62920,0.10229
5619.55767,0.12527
5621.48614,0.10862
5623.41461,0.10709
5625.34308,0.11810
5627.27155,0.10339
5629.20002,0.07265
5631.12848,0.06894
5633.05695,0.07608
5634.98542,0.06548
5636.91389,0.07150
5638.84236,0.09548
5640.77083,0.10008
5642.69930,0.10601
5644.62777,0.13005
5646.55623,0.13818
5648.48470,0.11931
5650.41317,0.09108
5652.34164,0.06226
5654.27011,0.04854
5656.19858,0.06183
5658.12705,0.08796
5660.05551,0.09304
5661.98398,0.07397
5663.91245,0.07256
5665.84092,0.09378
5667.76939,0.10019
5669.69786,0.08593
5671.62633,0.07852
5673.55480,0.08214
5675.48326,0.07639
5677.41173,0.06586
5679.34020,0.06990
5681.26867,0.08473
5683.19714,0.09500
5685.12561,0.09078
5687.05408,0.06856
5688.98254,0.05311
5690.91101,0.07269
5692.83948,0.09792
5694.76795,0.10294
5696.69642,0.11111
5698.62489,0.14313
5700.55336,0.16405
5702.48183,0.12502
5704.41029,0.06119
5706.33876,0.03644
5708.26723,0.06072
5710.19570,0.10224
5712.12417,0.12696
5714.05264,0.14179
5715.98111,0.15348
5717.90957,0.15303
5719.83804,0.13494
5721.76651,0.08422
5723.69498,0.04240
5725.62345,0.05707
5727.55192,0.09067
5729.48039,0.11778
5731.40886,0.13982
5733.33732,0.12819
5735.26579,0.09494
5737.19426,0.09458
5739.12273,0.11322
5741.05120,0.09609
5742.97967,0.06232
5744.90814,0.06632
5746.83660,0.10644
5748.76507,0.14458
5750.69354,0.15431
5752.62201,0.11966
5754.55048,0.06810
5756.47895,0.06881
5758.40742,0.10026
5760.33588,0.08498
5762.26435,0.04731
5764.19282,0.03540
5766.12129,0.03351
5768.04976,0.05133
5769.97823,0.09808
5771.90670,0.13596
5773.83517,0.13020
5775.76363,0.08935
5777.69210,0.04575
5779.62057,0.02015
5781.54904,0.02090
5783.47751,0.03460
5785.40598,0.04416
5787.33445,0.05351
5789.26291,0.06495
5791.19138,0.06805
5793.11985,0.05734
5795.04832,0.05987
5796.97679,0.08296
5798.90526,0.09170
5800.83373,0.07592
5802.76220,0.05976
5804.69066,0.07568
5806.61913,0.11821
5808.54760,0.13990
5810.47607,0.12358
5812.40454,0.10801
5814.33301,0.10439
5816.26148,0.06550
5818.18994,0.00880
5820.11841,0.00839
5822.04688,0.05765
5823.97535,0.11369
5825.90382,0.15483
5827.83229,0.14107
5829.76076,0.08236
5831.68923,0.03929
5833.61769,0.03371
5835.54616,0.04676
5837.47463,0.05271
5839.40310,0.04530
5841.33157,0.03316
5843.26004,0.04660
5845.18851,0.09455
5847.11697,0.13228
5849.04544,0.10910
5850.97391,0.05913
5852.90238,0.06821
5854.83085,0.10241
5856.75932,0.08898
5858.68779,0.05512
5860.61626,0.05350
5862.54472,0.07828
5864.47319,0.10084
5866.40166,0.12518
5868.33013,0.14954
5870.25860,0.14672
5872.18707,0.12525
5874.11554,0.10655
5876.04400,0.09563
5877.97247,0.11184
5879.90094,0.14197
5881.82941,0.13369
5883.75788,0.10719
5885.68635,0.11023
5887.61482,0.11929
5889.54329,0.10637
5891.47175,0.07727
5893.40022,0.06032
5895.32869,0.08051
5897.25716,0.09409
5899.18563,0.07186
5901.11410,0.05478
5903.04257,0.06149
5904.97103,0.07454
5906.89950,0.08001
5908.82797,0.07746
5910.75644,0.07146
5912.68491,0.07956
5914.61338,0.09879
5916.54185,0.09047
5918.47032,0.05542
5920.39878,0.03103
5922.32725,0.03322
5924.25572,0.05968
5926.18419,0.10860
5928.11266,0.15285
5930.04113,0.15864
5931.96960,0.13929
5933.89806,0.12796
5935.82653,0.14280
5937.75500,0.17225
5939.68347,0.18616
5941.61194,0.16818
5943.54041,0.14408
5945.46888,0.15260
5947.39734,0.17578
5949.32581,0.19337
5951.25428,0.21649
5953.18275,0.20368
5955.11122,0.14430
5957.03969,0.09843
5958.96816,0.06749
5960.89663,0.04213
5962.82509,0.05538
5964.75356,0.09129
5966.68203,0.11004
5968.61050,0.10643
5970.53897,0.09775
5972.46744,0.11534
5974.39591,0.14840
5976.32437,0.13937
5978.25284,0.08504
5980.18131,0.02024
5982.10978,-0.00605
5984.03825,0.03049
5985.96672,0.08744
5987.89519,0.11803
5989.82366,0.08977
5991.75212,0.02685
5993.68059,0.01282
5995.60906,0.06819
5997.53753,0.11670
5999.46600,0.11433
6001.39447,0.09928
6003.32294,0.09361
6005.25140,0.09123
6007.17987,0.10003
6009.10834,0.08647
6011.03681,0.04541
6012.96528,0.05344
6014.89375,0.10061
6016.82222,0.09695
6018.75069,0.05095
6020.67915,0.06154
6022.60762,0.13235
6024.53609,0.16599
6026.46456,0.12593
6028.39303,0.07068
6030.32150,0.07091
6032.24997,0.11694
6034.17843,0.10829
6036.10690,0.01177
6038.03537,-0.05224
6039.96384,-0.01797
6041.89231,0.05666
6043.82078,0.09837
6045.74925,0.09437
6047.67772,0.10970
6049.60618,0.15087
6051.53465,0.13665
6053.46312,0.06954
6055.39159,0.03162
6057.32006,0.04854
6059.24853,0.06691
6061.17700,0.07045
6063.10546,0.06896
6065.03393,0.04800
6066.96240,0.03082
6068.89087,0.03719
6070.81934,0.04181
6072.74781,0.03913
6074.67628,0.04879
6076.60475,0.07908
6078.53321,0.10219
6080.46168,0.08741
6082.39015,0.06070
6084.31862,0.04281
6086.24709,0.04450
6088.17556,0.07258
6090.10403,0.08462
6092.03249,0.06714
6093.96096,0.03526
6095.88943,0.01914
6097.81790,0.04533
6099.74637,0.06632
6101.67484,0.06571
6103.60331,0.08730
6105.53177,0.11475
6107.46024,0.12360
6109.38871,0.13277
6111.31718,0.13859
6113.24565,0.12964
6115.17412,0.12220
6117.10259,0.12858
6119.03106,0.12802
6120.95952,0.09895
6122.88799,0.06876
6124.81646,0.06162
6126.74493,0.08207
6128.67340,0.13256
6130.60187,0.17150
6132.53034,0.14230
6134.45880,0.08375
6136.38727,0.05707
6138.31574,0.03517
6140.24421,-0.00588
6142.17268,-0.03084
6144.10115,-0.00603
6146.02962,0.05959
6147.95809,0.10411
6149.88655,0.07736
6151.81502,0.01905
6153.74349,0.01376
6155.67196,0.04572
6157.60043,0.07737
6159.52890,0.12993
6161.45737,0.15054
6163.38583,0.09586
6165.31430,0.03046
6167.24277,-0.01048
6169.17124,-0.02488
6171.09971,-0.01369
6173.02818,0.01124
6174.95665,0.02878
6176.88512,0.03966
6178.81358,0.08865
6180.74205,0.16829
6182.67052,0.23161
6184.59899,0.24320
6186.52746,0.21227
6188.45593,0.17503
6190.38440,0.12636
6192.31286,0.10333
6194.24133,0.12870
6196.16980,0.14789
6198.09827,0.14075
6200.02674,0.13387
6201.95521,0.12432
6203.88368,0.08660
6205.81215,0.04862
6207.74061,0.04192
6209.66908,0.05920
6211.59755,0.07390
6213.52602,0.04738
6215.45449,0.00829
6217.38296,0.01979
6219.31143,0.03421
6221.23989,-0.02127
6223.16836,-0.07255
6225.09683,-0.03801
6227.02530,0.02103
6228.95377,0.05693
6230.88224,0.08122
6232.81071,0.07552
6234.73918,0.03154
6236.66764,-0.00579
6238.59611,0.00951
6240.52458,0.05876
6242.45305,0.06750
6244.38152,0.05382
6246.30999,0.09139
6248.23846,0.13132
6250.16692,0.10143
6252.09539,0.08086
6254.02386,0.15783
6255.95233,0.21865
6257.88080,0.16068
6259.80927,0.08307
6261.73774,0.06013
6263.66621,0.06455
6265.59467,0.08588
6267.52314,0.10561
6269.45161,0.11629
6271.38008,0.14544
6273.30855,0.18614
6275.23702,0.20768
6277.16549,0.16578
6279.09395,0.06527
6281.02242,0.02153
6282.95089,0.08787
6284.87936,0.14596
6286.80783,0.11286
6288.73630,0.06510
6290.66477,0.06311
6292.59323,0.04892
6294.52170,-0.02022
6296.45017,-0.08963
6298.37864,-0.08515
6300.30711,-0.00023
6302.23558,0.08256
6304.16405,0.08251
6306.09252,0.03664
6308.02098,0.02111
6309.94945,0.05149
6311.87792,0.07320
6313.80639,0.04727
6315.73486,0.03199
6317.66333,0.07926
6319.59180,0.12050
6321.52026,0.12466
6323.44873,0.13668
6325.37720,0.14102
6327.30567,0.15622
6329.23414,0.19026
6331.16261,0.16454
6333.09108,0.08523
6335.01955,0.03227
6336.94801,0.03543
6338.87648,0.07657
6340.80495,0.12008
6342.73342,0.12184
6344.66189,0.09991
6346.59036,0.14759
6348.51883,0.23076
6350.44729,0.20556
6352.37576,0.11078
6354.30423,0.09213
6356.23270,0.13890
6358.16117,0.16208
6360.08964,0.12914
6362.01811,0.10995
6363.94658,0.17848
6365.87504,0.27850
6367.80351,0.26540
6369.73198,0.14592
6371.66045,0.07793
6373.58892,0.10486
6375.51739,0.11599
6377.44586,0.07087
6379.37432,0.03871
6381.30279,0.06884
6383.23126,0.11716
6385.15973,0.10766
6387.08820,0.07390
6389.01667,0.06194
6390.94514,0.05514
6392.87361,0.05053
6394.80207,0.04176
6396.73054,0.01321
6398.65901,0.01487
6400.58748,0.09363
6402.51595,0.16995
6404.44442,0.14523
6406.37289,0.08210
6408.30135,0.07948
6410.22982,0.14024
6412.15829,0.20758
6414.08676,0.21072
6416.01523,0.16985
6417.94370,0.12533
6419.87217,0.08870
6421.80064,0.08615
6423.72910,0.11492
6425.65757,0.13800
6427.58604,0.12224
6429.51451,0.09692
6431.44298,0.12110
6433.37145,0.15031
6435.29992,0.13211
6437.22838,0.11903
6439.15685,0.12766
6441.08532,0.11691
6443.01379,0.09441
6444.94226,0.09094
6446.87073,0.11334
6448.79920,0.11468
6450.72766,0.06059
6452.65613,0.03928
6454.58460,0.09471
6456.51307,0.13680
6458.44154,0.12819
6460.37001,0.11643
6462.29848,0.12934
6464.22695,0.15819
6466.15541,0.12288
6468.08388,0.02230
6470.01235,-0.02427
6471.94082,-0.02240
6473.86929,-0.01559
6475.79776,0.01947
6477.72623,0.04939
6479.65469,0.06559
6481.58316,0.08314
6483.51163,0.08296
6485.44010,0.08444
6487.36857,0.10212
6489.29704,0.12826
6491.22551,0.16289
6493.15398,0.16126
6495.08244,0.13159
6497.01091,0.14732
6498.93938,0.17315
6500.86785,0.14814
6502.79632,0.08327
6504.72479,0.01876
6506.65326,0.00174
6508.58172,0.01349
6510.51019,-0.00548
6512.43866,0.00688
6514.36713,0.09331
6516.29560,0.17860
6518.22407,0.20932
6520.15254,0.16272
6522.08101,0.08703
6524.00947,0.06270
6525.93794,0.05964
6527.86641,0.02429
6529.79488,-0.01020
6531.72335,-0.00642
6533.65182,0.02796
6535.58029,0.07376
6537.50875,0.13492
6539.43722,0.17143
6541.36569,0.15760
6543.29416,0.15610
6545.22263,0.15497
6547.15110,0.07488
6549.07957,-0.07126
6551.00804,-0.14553
6552.93650,-0.05901
6554.86497,0.07784
6556.79344,0.12073
6558.72191,0.06233
6560.65038,0.02616
6562.57885,0.06271
6564.50732,0.07776
6566.43578,0.05075
6568.36425,0.06166
6570.29272,0.08979
6572.22119,0.06277
6574.14966,0.02097
6576.07813,0.00060
6578.00660,-0.02026
6579.93507,-0.00747
6581.86353,0.01010
6583.79200,-0.02089
6585.72047,-0.01667
6587.64894,0.04099
6589.57741,0.03975
6591.50588,-0.04706
6593.43435,-0.10246
6595.36281,-0.03967
6597.29128,0.03810
6599.21975,0.05083
6601.14822,0.00845
6603.07669,-0.06421
6605.00516,-0.09332
6606.93363,-0.06344
6608.86210,-0.03330
6610.79056,-0.01146
6612.71903,0.03835
6614.64750,0.15400
6616.57597,0.26603
6618.50444,0.21971
6620.43291,0.07265
6622.36138,0.01925
6624.28984,0.10289
6626.21831,0.16688
6628.14678,0.14170
6630.07525,0.13336
6632.00372,0.19287
6633.93219,0.24645
6635.86066,0.20570
6637.78912,0.06373
6639.71759,-0.03591
6641.64606,-0.00069
6643.57453,0.08966
6645.50300,0.11196
6647.43147,0.08310
6649.35994,0.09412
6651.28841,0.14806
6653.21687,0.17281
6655.14534,0.12562
6657.07381,0.05647
6659.00228,0.02077
6660.93075,-0.04525
6662.85922,-0.13953
6664.78769,-0.16946
6666.71615,-0.10076
6668.64462,0.05618
6670.57309,0.14713
6672.50156,0.03298
6674.43003,-0.05494
6676.35850,0.04059
6678.28697,0.15361
6680.21544,0.21004
6682.14390,0.22991
6684.07237,0.19776
6686.00084,0.12119
6687.92931,0.02798
6689.85778,-0.02578
6691.78625,-0.03833
6693.71472,-0.01326
6695.64318,0.07922
6697.57165,0.14261
6699.50012,0.08758
6701.42859,0.00323
6703.35706,-0.00981
6705.28553,0.06957
6707.21400,0.14670
6709.14247,0.11135
6711.07093,0.08674
6712.99940,0.13920
6714.92787,0.10741
6716.85634,-0.01900
6718.78481,-0.04533
6720.71328,0.06643
6722.64175,0.15687
6724.57021,0.13657
6726.49868,0.06591
6728.42715,0.03873
6730.35562,0.08012
6732.28409,0.11017
6734.21256,0.07479
6736.14103,0.01573
6738.06950,-0.00070
6739.99796,0.02166
6741.92643,0.03962
6743.85490,0.01368
6745.78337,-0.04982
6747.71184,-0.05762
6749.64031,0.02627
6751.56878,0.11864
6753.49724,0.15233
6755.42571,0.13783
6757.35418,0.13037
6759.28265,0.13287
6761.21112,0.14188
6763.13959,0.13634
6765.06806,0.07543
6766.99653,-0.00138
6768.92499,-0.02682
6770.85346,-0.01028
6772.78193,0.02705
6774.71040,0.12004
6776.63887,0.21937
6778.56734,0.20137
6780.49581,0.10268
6782.42427,0.05782
6784.35274,0.10070
6786.28121,0.14492
6788.20968,0.11297
6790.13815,0.01157
6792.06662,-0.03759
6793.99509,0.01458
6795.92355,0.06780
6797.85202,0.03863
6799.78049,-0.05911
6801.70896,-0.09349
6803.63743,0.02857
6805.56590,0.19133
6807.49437,0.24805
6809.42284,0.20228
6811.35130,0.13019
6813.27977,0.10088
6815.20824,0.11132
6817.13671,0.11060
6819.06518,0.07888
6820.99365,0.04034
6822.92212,0.02779
6824.85058,0.00564
6826.77905,-0.04697
6828.70752,-0.08045
6830.63599,-0.06435
6832.56446,0.01207
6834.49293,0.08931
6836.42140,0.10020
6838.34987,0.09838
6840.27833,0.12458
6842.20680,0.13940
6844.13527,0.09814
6846.06374,0.00783
6847.99221,-0.04474
6849.92068,0.03428
6851.84915,0.14580
6853.77761,0.11293
6855.70608,-0.02391
6857.63455,-0.04216
6859.56302,0.02978
6861.49149,0.02796
6863.41996,-0.04312
6865.34843,-0.05666
6867.27690,0.02203
6869.20536,0.12127
6871.13383,0.18048
6873.06230,0.14605
6874.99077,0.09915
6876.91924,0.13591
6878.84771,0.17869
6880.77618,0.16537
6882.70464,0.09024
6884.63311,0.01512
6886.56158,0.05338
6888.49005,0.13503
6890.41852,0.14341
6892.34699,0.13084
6894.27546,0.14737
6896.20393,0.15884
6898.13239,0.08052
6900.06086,-0.07632
6901.98933,-0.14195
6903.91780,-0.06313
6905.84627,0.08062
6907.77474,0.18867
6909.70321,0.16946
6911.63167,0.08178
6913.56014,0.07583
6915.48861,0.15508
6917.41708,0.17398
6919.34555,0.08342
6921.27402,0.08272
6923.20249,0.21926
6925.13096,0.28749
6927.05942,0.21428
6928.98789,0.09397
6930.91636,-0.01127
6932.84483,-0.05568
6934.77330,0.01171
6936.70177,0.06657
6938.63024,0.01552
6940.55870,0.00031
6942.48717,0.08054
6944.41564,0.07457
6946.34411,0.01005
6948.27258,0.02157
6950.20105,0.08950
6952.12952,0.13582
6954.05799,0.12762
6955.98645,0.07361
6957.91492,0.01810
6959.84339,0.01443
6961.77186,0.05023
6963.70033,0.07772
6965.62880,0.07800
6967.55727,0.04891
6969.48573,0.03560
6971.41420,0.09349
6973.34267,0.20268
6975.27114,0.24843
6977.19961,0.17717
6979.12808,0.07546
6981.05655,-0.01299
6982.98501,-0.08339
6984.91348,-0.07341
6986.84195,0.03714
6988.77042,0.13923
6990.69889,0.11321
6992.62736,0.02068
6994.55583,0.02068
6996.48430,0.10301
6998.41276,0.12121
7000.34123,0.07765
7002.26970,0.04954
7004.19817,0.04075
7006.12664,0.08215
7008.05511,0.17747
7009.98358,0.21445
7011.91204,0.18158
7013.84051,0.16502
7015.76898,0.14166
7017.69745,0.04528
7019.62592,-0.04677
7021.55439,-0.03102
7023.48286,0.05970
7025.41133,0.08605
7027.33979,0.02289
7029.26826,0.06598
7031.19673,0.20531
7033.12520,0.20005
7035.05367,0.03895
7036.98214,-0.07911
7038.91061,-0.05025
7040.83907,0.08783
7042.76754,0.21638
7044.69601,0.19565
7046.62448,0.08829
7048.55295,0.05256
7050.48142,0.04247
7052.40989,-0.06640
7054.33836,-0.19032
7056.26682,-0.15012
7058.19529,0.03770
7060.12376,0.19084
7062.05223,0.27135
7063.98070,0.25867
7065.90917,0.16458
7067.83764,0.12111
7069.76610,0.12037
7071.69457,0.05114
7073.62304,-0.01598
7075.55151,0.02518
7077.47998,0.15119
7079.40845,0.24791
7081.33692,0.18667
7083.26539,0.09134
7085.19385,0.11833
7087.12232,0.18063
7089.05079,0.17331
7090.97926,0.09191
7092.90773,-0.00851
7094.83620,-0.01294
7096.76467,0.07007
7098.69313,0.09750
7100.62160,0.06392
7102.55007,0.05539
7104.47854,0.04429
7106.40701,0.02949
7108.33548,0.06589
7110.26395,0.14714
7112.19242,0.22158
7114.12088,0.22202
7116.04935,0.16579
7117.97782,0.08801
7119.90629,0.06165
7121.83476,0.12961
7123.76323,0.15819
7125.69170,0.06895
7127.62016,-0.01867
7129.54863,0.02699
7131.47710,0.12754
7133.40557,0.14017
7135.33404,0.09985
7137.26251,0.11685
7139.19098,0.15798
7141.11944,0.10479
7143.04791,0.01264
7144.97638,0.05129
7146.90485,0.22682
7148.83332,0.33435
7150.76179,0.29908
7152.69026,0.16075
7154.61873,-0.01762
7156.54719,-0.09820
7158.47566,-0.07273
7160.40413,-0.03663
7162.33260,-0.03847
7164.26107,-0.04596
7166.18954,0.01562
7168.11801,0.06648
7170.04647,0.00537
7171.97494,-0.10958
7173.90341,-0.15314
7175.83188,-0.00457
7177.76035,0.18893
7179.68882,0.22253
7181.61729,0.18743
7183.54576,0.15292
7185.47422,0.16417
7187.40269,0.18065
7189.33116,0.11378
7191.25963,0.06442
7193.18810,0.09127
7195.11657,0.10827
7197.04504,0.12875
7198.97350,0.12133
7200.90197,0.08268
7202.83044,0.09921
7204.75891,0.15227
7206.68738,0.12819
7208.61585,0.07977
7210.54432,0.10813
7212.47279,0.16712
7214.40125,0.12109
7216.32972,0.01964
7218.25819,0.07508
7220.18666,0.20862
7222.11513,0.20656
7224.04360,0.10133
7225.97207,0.02794
7227.90053,0.05867
7229.82900,0.14772
7231.75747,0.21375
7233.68594,0.24020
7235.61441,0.25988
7237.54288,0.23010
7239.47135,0.13041
7241.39982,-0.00102
7243.32828,-0.04599
7245.25675,0.03771
7247.18522,0.14379
7249.11369,0.21938
7251.04216,0.13565
7252.97063,-0.07841
7254.89910,-0.08934
7256.82756,0.02140
7258.75603,0.08133
7260.68450,0.07703
7262.61297,0.02224
7264.54144,-0.04800
7266.46991,-0.13495
7268.39838,-0.19551
7270.32685,-0.16542
7272.25531,-0.10802
7274.18378,-0.07183
7276.11225,0.02392
7278.04072,0.18745
7279.96919,0.29656
7281.89766,0.27800
7283.82613,0.29542
7285.75459,0.30535
7287.68306,0.26314
7289.61153,0.27360
7291.54000,0.35783
7293.46847,0.45463
7295.39694,0.41648
7297.32541,0.19636
7299.25387,0.04512
7301.18234,0.05224
7303.11081,0.04154
7305.03928,-0.03540
7306.96775,-0.06955
7308.89622,-0.03019
7310.82469,0.04624
7312.75316,0.13967
7314.68162,0.24658
7316.61009,0.31836
7318.53856,0.30824
7320.46703,0.23111
7322.39550,0.14053
7324.32397,0.11387
7326.25244,0.22172
7328.18090,0.45531
7330.10937,0.53373
7332.03784,0.43573
7333.96631,0.32166
7335.89478,0.14392
7337.82325,0.00174
7339.75172,-0.02678
7341.68019,-0.05146
7343.60865,-0.00939
7345.53712,0.18575
7347.46559,0.27421
7349.39406,0.11322
7351.32253,-0.02025
7353.25100,-0.04282
7355.17947,-0.03663
7357.10793,0.06734
7359.03640,0.23950
7360.96487,0.26605
7362.89334,0.17104
7364.82181,0.11892
7366.75028,0.15378
7368.67875,0.17676
7370.60722,0.20293
7372.53568,0.33296
7374.46415,0.43221
7376.39262,0.30065
7378.32109,0.16355
7380.24956,0.03365
7382.17803,-0.12940
7384.10650,-0.18707
7386.03496,-0.20459
7387.96343,-0.16127
7389.89190,-0.00548
7391.82037,0.00175
7393.74884,-0.17234
7395.67731,-0.22198
7397.60578,-0.05673
7399.53425,0.10755
7401.46271,0.16257
7403.39118,0.18542
7405.31965,0.24279
7407.24812,0.27684
7409.17659,0.20491
7411.10506,0.09763
7413.03353,-0.00588
7414.96199,-0.16190
7416.89046,-0.30011
7418.81893,-0.32414
7420.74740,-0.21259
7422.67587,-0.07083
7424.60434,-0.00577
7426.53281,-0.05682
7428.46128,-0.18578
7430.38974,-0.20719
7432.31821,-0.07965
7434.24668,-0.05828
7436.17515,-0.20293
7438.10362,-0.18479
7440.03209,0.13010
7441.96056,0.40288
7443.88902,0.32530
7445.81749,0.14846
7447.74596,0.15017
7449.67443,0.23686
7451.60290,0.34748
7453.53137,0.41356
7455.45984,0.24255
7457.38831,-0.03516
7459.31677,-0.11467
7461.24524,0.00817
7463.17371,0.04549
7465.10218,0.08609
7467.03065,0.14416
7468.95912,0.15885
7470.88759,0.20505
7472.81605,0.25258
7474.74452,0.29197
7476.67299,0.29916
7478.60146,0.20857
7480.52993,0.13251
7482.45840,0.16616
7484.38687,0.18427
7486.31533,0.11658
7488.24380,0.10640
7490.17227,0.16162
7492.10074,0.14185
7494.02921,0.14559
7495.95768,0.28535
7497.88615,0.44289
