399.19301,2.36091
401.12148,0.47722
403.04995,0.17741
404.97842,-0.02564
406.90689,-0.01072
408.83536,0.08029
410.76382,0.09966
412.69229,0.01883
414.62076,0.01821
416.54923,0.15699
418.47770,0.18119
420.40617,0.01667
422.33464,-0.01170
424.26311,0.08217
426.19157,0.21367
428.12004,0.30450
430.04851,0.25964
431.97698,0.06491
433.90545,-0.00829
435.83392,0.04176
437.76239,0.04106
439.69085,0.01584
441.61932,0.05498
443.54779,0.13346
445.47626,0.16984
447.40473,0.15197
449.33320,0.07168
451.26167,0.00233
453.19013,0.02140
455.11860,0.07616
457.04707,0.05780
458.97554,0.00261
460.90401,0.02259
462.83248,0.04618
464.76095,0.02739
466.68942,0.02943
468.61788,0.04138
470.54635,0.01736
472.47482,0.01263
474.40329,0.08730
476.33176,0.13930
478.26023,0.16185
480.18870,0.15683
482.11716,0.12639
484.04563,0.11736
485.97410,0.12782
487.90257,0.12003
489.83104,0.10135
491.75951,0.08316
493.68798,0.06314
495.61645,0.07540
497.54491,0.12236
499.47338,0.14892
501.40185,0.14464
503.33032,0.15164
505.25879,0.16740
507.18726,0.14382
509.11573,0.09823
511.04419,0.06517
512.97266,0.05916
514.90113,0.10367
516.82960,0.14870
518.75807,0.15945
520.68654,0.19032
522.61501,0.21422
524.54348,0.19366
526.47194,0.16986
528.40041,0.15384
530.32888,0.14502
532.25735,0.13548
534.18582,0.10444
536.11429,0.09111
538.04276,0.12077
539.97122,0.15728
541.89969,0.17101
543.82816,0.15530
545.75663,0.11966
547.68510,0.09474
549.61357,0.11962
551.54204,0.16354
553.47051,0.18079
555.39897,0.17798
557.32744,0.15298
559.25591,0.10696
561.18438,0.06787
563.11285,0.05855
565.04132,0.06608
566.96979,0.06505
568.89825,0.06229
570.82672,0.08027
572.75519,0.12710
574.68366,0.17140
576.61213,0.17269
578.54060,0.15356
580.46907,0.13953
582.39754,0.13326
584.32600,0.12945
586.25447,0.11003
588.18294,0.09033
590.11141,0.09229
592.03988,0.11044
593.96835,0.12781
595.89682,0.12779
597.82528,0.11175
599.75375,0.09436
601.68222,0.09545
603.61069,0.10890
605.53916,0.11338
607.46763,0.12330
609.39610,0.14264
611.32456,0.14323
613.25303,0.13396
615.18150,0.14780
617.10997,0.16843
619.03844,0.16068
620.96691,0.12843
622.89538,0.09825
624.82385,0.09139
626.75231,0.11584
628.68078,0.14612
630.60925,0.14808
632.53772,0.13247
634.46619,0.12572
636.39466,0.12723
638.32313,0.12601
640.25159,0.12959
642.18006,0.14401
644.10853,0.15022
646.03700,0.13965
647.96547,0.12704
649.89394,0.12507
651.82241,0.13650
653.75088,0.16045
655.67934,0.18383
657.60781,0.18885
659.53628,0.17510
661.46475,0.15132
663.39322,0.13415
665.32169,0.14209
667.25016,0.16706
669.17862,0.16546
671.10709,0.14723
673.03556,0.14326
674.96403,0.13640
676.89250,0.11991
678.82097,0.11903
680.74944,0.13792
682.67791,0.15576
684.60637,0.16598
686.53484,0.17149
688.46331,0.17623
690.39178,0.16503
692.32025,0.13424
694.24872,0.11371
696.17719,0.11610
698.10565,0.12405
700.03412,0.12538
701.96259,0.12642
703.89106,0.13077
705.81953,0.14122
707.74800,0.15332
709.67647,0.14649
711.60494,0.12307
713.53340,0.10634
715.46187,0.10364
717.39034,0.10924
719.31881,0.11626
721.24728,0.12457
723.17575,0.13994
725.10422,0.14956
727.03268,0.14357
728.96115,0.13464
730.88962,0.12820
732.81809,0.12340
734.74656,0.12289
736.67503,0.12350
738.60350,0.12626
740.53197,0.13263
742.46043,0.12979
744.38890,0.11758
746.31737,0.11339
748.24584,0.12084
750.17431,0.13180
752.10278,0.13697
754.03125,0.12948
755.95971,0.11534
757.88818,0.11569
759.81665,0.13030
761.74512,0.13933
763.67359,0.14450
765.60206,0.14568
767.53053,0.13034
769.45900,0.10967
771.38746,0.10986
773.31593,0.12951
775.24440,0.14810
777.17287,0.15621
779.10134,0.15135
781.02981,0.13809
782.95828,0.12708
784.88674,0.12250
786.81521,0.11486
788.74368,0.10850
790.67215,0.12036
792.60062,0.13434
794.52909,0.14095
796.45756,0.15622
798.38602,0.16568
800.31449,0.15297
802.24296,0.13479
804.17143,0.12751
806.09990,0.12856
808.02837,0.12807
809.95684,0.13041
811.88531,0.14634
813.81377,0.16048
815.74224,0.15530
817.67071,0.14060
819.59918,0.12505
821.52765,0.11266
823.45612,0.11578
825.38459,0.12903
827.31305,0.13331
829.24152,0.13108
831.16999,0.13147
833.09846,0.12870
835.02693,0.12526
836.95540,0.13499
838.88387,0.14856
840.81234,0.15145
842.74080,0.15294
844.66927,0.15897
846.59774,0.16296
848.52621,0.15861
850.45468,0.14471
852.38315,0.13427
854.31162,0.13171
856.24008,0.12852
858.16855,0.13080
860.09702,0.14031
862.02549,0.14836
863.95396,0.15245
865.88243,0.14836
867.81090,0.13567
869.73937,0.12612
871.66783,0.12973
873.59630,0.13134
875.52477,0.12180
877.45324,0.12056
879.38171,0.12820
881.31018,0.13947
883.23865,0.15604
885.16711,0.16370
887.09558,0.16237
889.02405,0.16327
890.95252,0.16331
892.88099,0.16222
894.80946,0.16208
896.73793,0.15662
898.66640,0.14536
900.59486,0.13806
902.52333,0.13845
904.45180,0.14130
906.38027,0.14616
908.30874,0.15354
910.23721,0.15617
912.16568,0.15262
914.09414,0.14906
916.02261,0.14936
917.95108,0.15041
919.87955,0.14517
921.80802,0.13744
923.73649,0.13481
925.66496,0.13835
927.59343,0.14604
929.52189,0.15108
931.45036,0.15028
933.37883,0.14885
935.30730,0.14960
937.23577,0.14969
939.16424,0.14969
941.09271,0.15230
943.02117,0.15353
944.94964,0.15158
946.87811,0.15288
948.80658,0.15723
950.73505,0.15821
952.66352,0.15566
954.59199,0.15250
956.52045,0.15176
958.44892,0.15286
960.37739,0.15128
962.30586,0.14924
964.23433,0.14943
966.16280,0.14759
968.09127,0.14596
970.01974,0.14853
971.94820,0.15033
973.87667,0.15200
975.80514,0.15543
977.73361,0.15575
979.66208,0.15491
981.59055,0.15752
983.51902,0.15862
985.44748,0.15307
987.37595,0.14771
989.30442,0.14432
991.23289,0.13801
993.16136,0.13704
995.08983,0.14423
997.01830,0.15062
998.94677,0.15309
1000.87523,0.15236
1002.80370,0.15109
1004.73217,0.15178
1006.66064,0.15237
1008.58911,0.15041
1010.51758,0.15015
1012.44605,0.15383
1014.37451,0.15557
1016.30298,0.15259
1018.23145,0.14948
1020.15992,0.15469
1022.08839,0.16254
1024.01686,0.15965
1025.94533,0.15471
1027.87380,0.15497
1029.80226,0.15466
1031.73073,0.15757
1033.65920,0.16393
1035.58767,0.16242
1037.51614,0.15104
1039.44461,0.14191
1041.37308,0.14295
1043.30154,0.14816
1045.23001,0.14981
1047.15848,0.15087
1049.08695,0.15516
1051.01542,0.15723
1052.94389,0.15674
1054.87236,0.16091
1056.80083,0.16844
1058.72929,0.17290
1060.65776,0.17210
1062.58623,0.16712
1064.51470,0.16198
1066.44317,0.15992
1068.37164,0.15801
1070.30011,0.15560
1072.22857,0.15661
1074.15704,0.15540
1076.08551,0.15066
1078.01398,0.15541
1079.94245,0.16511
1081.87092,0.16610
1083.79939,0.16115
1085.72786,0.15279
1087.65632,0.14589
1089.58479,0.14964
1091.51326,0.15809
1093.44173,0.15966
1095.37020,0.15390
1097.29867,0.14860
1099.22714,0.14979
1101.15560,0.15773
1103.08407,0.16773
1105.01254,0.17425
1106.94101,0.17413
1108.86948,0.16488
1110.79795,0.15481
1112.72642,0.15641
1114.65489,0.16640
1116.58335,0.17164
1118.51182,0.16765
1120.44029,0.16505
1122.36876,0.16837
1124.29723,0.16478
1126.22570,0.15123
1128.15417,0.14629
1130.08263,0.15752
1132.01110,0.16955
1133.93957,0.17203
1135.86804,0.16859
1137.79651,0.16615
1139.72498,0.16683
1141.65345,0.17063
1143.58191,0.17681
1145.51038,0.17770
1147.43885,0.17291
1149.36732,0.17028
1151.29579,0.16720
1153.22426,0.16176
1155.15273,0.15859
1157.08120,0.15983
1159.00966,0.16528
1160.93813,0.17082
1162.86660,0.17164
1164.79507,0.16733
1166.72354,0.16124
1168.65201,0.15713
1170.58048,0.15873
1172.50894,0.16526
1174.43741,0.16737
1176.36588,0.16382
1178.29435,0.16469
1180.22282,0.16857
1182.15129,0.16612
1184.07976,0.16204
1186.00823,0.16313
1187.93669,0.16401
1189.86516,0.16262
1191.79363,0.16053
1193.72210,0.15692
1195.65057,0.15494
1197.57904,0.15771
1199.50751,0.16247
1201.43597,0.16503
1203.36444,0.16582
1205.29291,0.16665
1207.22138,0.16762
1209.14985,0.16865
1211.07832,0.16775
1213.00679,0.16534
1214.93526,0.16517
1216.86372,0.16645
1218.79219,0.16721
1220.72066,0.16707
1222.64913,0.16583
1224.57760,0.16593
1226.50607,0.16840
1228.43454,0.17030
1230.36300,0.17051
1232.29147,0.17007
1234.21994,0.16879
1236.14841,0.16859
1238.07688,0.17018
1240.00535,0.16979
1241.93382,0.16674
1243.86229,0.16235
1245.79075,0.15919
1247.71922,0.16138
1249.64769,0.16571
1251.57616,0.16498
1253.50463,0.16053
1255.43310,0.15812
1257.36157,0.15721
1259.29003,0.15466
1261.21850,0.15313
1263.14697,0.15583
1265.07544,0.16026
1267.00391,0.16466
1268.93238,0.16855
1270.86085,0.17081
1272.78932,0.17014
1274.71778,0.16575
1276.64625,0.16298
1278.57472,0.16385
1280.50319,0.16274
1282.43166,0.16113
1284.36013,0.16259
1286.28860,0.16426
1288.21706,0.16749
1290.14553,0.17359
1292.07400,0.17659
1294.00247,0.17538
1295.93094,0.17342
1297.85941,0.17032
1299.78788,0.16353
1301.71634,0.15115
1303.64481,0.13792
1305.57328,0.13891
1307.50175,0.15722
1309.43022,0.17224
1311.35869,0.17345
1313.28716,0.17084
1315.21563,0.17031
1317.14409,0.17079
1319.07256,0.17129
1321.00103,0.16942
1322.92950,0.16527
1324.85797,0.16220
1326.78644,0.16199
1328.71491,0.16325
1330.64337,0.16069
1332.57184,0.15644
1334.50031,0.15961
1336.42878,0.16884
1338.35725,0.17716
1340.28572,0.17760
1342.21419,0.18134
1344.14266,0.20287
1346.07112,0.21623
1347.99959,0.19864
1349.92806,0.17493
1351.85653,0.16566
1353.78500,0.16434
1355.71347,0.16650
1357.64194,0.16905
1359.57040,0.16992
1361.49887,0.17252
1363.42734,0.17551
1365.35581,0.17719
1367.28428,0.17915
1369.21275,0.18056
1371.14122,0.18355
1373.06969,0.18810
1374.99815,0.18765
1376.92662,0.18260
1378.85509,0.18128
1380.78356,0.18305
1382.71203,0.18153
1384.64050,0.18058
1386.56897,0.18509
1388.49743,0.18697
1390.42590,0.18424
1392.35437,0.18603
1394.28284,0.19231
1396.21131,0.19317
1398.13978,0.18854
1400.06825,0.18389
1401.99672,0.17938
1403.92518,0.17693
1405.85365,0.17760
1407.78212,0.17955
1409.71059,0.18037
1411.63906,0.17901
1413.56753,0.17973
1415.49600,0.18513
1417.42446,0.19174
1419.35293,0.19257
1421.28140,0.18988
1423.20987,0.18976
1425.13834,0.18752
1427.06681,0.18569
1428.99528,0.18845
1430.92375,0.18749
1432.85221,0.18120
1434.78068,0.17902
1436.70915,0.18293
1438.63762,0.18382
1440.56609,0.18076
1442.49456,0.18013
1444.42303,0.18467
1446.35149,0.19134
1448.27996,0.19328
1450.20843,0.19061
1452.13690,0.19058
1454.06537,0.19692
1455.99384,0.21211
1457.92231,0.22078
1459.85077,0.20982
1461.77924,0.20444
1463.70771,0.20557
1465.63618,0.19973
1467.56465,0.18999
1469.49312,0.19009
1471.42159,0.20404
1473.35006,0.22019
1475.27852,0.21626
1477.20699,0.20422
1479.13546,0.19782
1481.06393,0.19531
1482.99240,0.19247
1484.92087,0.19393
1486.84934,0.20327
1488.77780,0.21137
1490.70627,0.20633
1492.63474,0.19763
1494.56321,0.19649
1496.49168,0.20342
1498.42015,0.20699
1500.34862,0.19958
1502.27709,0.18995
1504.20555,0.18819
1506.13402,0.20766
1508.06249,0.22739
1509.99096,0.21487
1511.91943,0.20322
1513.84790,0.20398
1515.77637,0.21293
1517.70483,0.21950
1519.63330,0.22315
1521.56177,0.22338
1523.49024,0.21375
1525.41871,0.20861
1527.34718,0.20745
1529.27565,0.20416
1531.20412,0.20674
1533.13258,0.21225
1535.06105,0.20824
1536.98952,0.20895
1538.91799,0.23227
1540.84646,0.26149
1542.77493,0.24730
1544.70340,0.21819
1546.63186,0.19839
1548.56033,0.19502
1550.48880,0.20003
1552.41727,0.20354
1554.34574,0.20984
1556.27421,0.22251
1558.20268,0.23253
1560.13115,0.21367
1562.05961,0.19669
1563.98808,0.19225
1565.91655,0.19523
1567.84502,0.20435
1569.77349,0.20619
1571.70196,0.19617
1573.63043,0.19534
1575.55889,0.20291
1577.48736,0.19844
1579.41583,0.18727
1581.34430,0.18208
1583.27277,0.18098
1585.20124,0.18057
1587.12971,0.18061
1589.05818,0.18043
1590.98664,0.18139
1592.91511,0.18599
1594.84358,0.18878
1596.77205,0.18392
1598.70052,0.17713
1600.62899,0.17620
1602.55746,0.17995
1604.48592,0.18305
1606.41439,0.18347
1608.34286,0.18374
1610.27133,0.18591
1612.19980,0.18768
1614.12827,0.19208
1616.05674,0.20120
1617.98521,0.20228
1619.91367,0.19835
1621.84214,0.20011
1623.77061,0.20193
1625.69908,0.19966
1627.62755,0.19602
1629.55602,0.19185
1631.48449,0.19356
1633.41295,0.20412
1635.34142,0.21756
1637.26989,0.21535
1639.19836,0.20342
1641.12683,0.19494
1643.05530,0.19552
1644.98377,0.21217
1646.91223,0.23306
1648.84070,0.22850
1650.76917,0.22380
1652.69764,0.23328
1654.62611,0.22690
1656.55458,0.21098
1658.48305,0.20288
1660.41152,0.20246
1662.33998,0.20667
1664.26845,0.20611
1666.19692,0.20479
1668.12539,0.21277
1670.05386,0.22514
1671.98233,0.22813
1673.91080,0.22372
1675.83926,0.21275
1677.76773,0.20582
1679.69620,0.20935
1681.62467,0.21909
1683.55314,0.23002
1685.48161,0.22607
1687.41008,0.21354
1689.33855,0.20407
1691.26701,0.19936
1693.19548,0.20404
1695.12395,0.22133
1697.05242,0.24190
1698.98089,0.24539
1700.90936,0.22717
1702.83783,0.21263
1704.76629,0.21114
1706.69476,0.20853
1708.62323,0.20315
1710.55170,0.20305
1712.48017,0.20795
1714.40864,0.21731
1716.33711,0.22813
1718.26558,0.22216
1720.19404,0.20548
1722.12251,0.19541
1724.05098,0.19025
1725.97945,0.18712
1727.90792,0.18728
1729.83639,0.19234
1731.76486,0.20314
1733.69332,0.21444
1735.62179,0.21116
1737.55026,0.20497
1739.47873,0.20620
1741.40720,0.20787
1743.33567,0.20588
1745.26414,0.20539
1747.19261,0.20830
1749.12107,0.21152
1751.04954,0.20940
1752.97801,0.20464
1754.90648,0.20292
1756.83495,0.20121
1758.76342,0.19788
1760.69189,0.19865
1762.62035,0.20021
1764.54882,0.19676
1766.47729,0.19411
1768.40576,0.19482
1770.33423,0.19847
1772.26270,0.20333
1774.19117,0.20245
1776.11964,0.19880
1778.04810,0.19833
1779.97657,0.19993
1781.90504,0.19850
1783.83351,0.19439
1785.76198,0.19130
1787.69045,0.19186
1789.61892,0.19832
1791.54738,0.20670
1793.47585,0.20572
1795.40432,0.19889
1797.33279,0.19527
1799.26126,0.19612
1801.18973,0.19760
1803.11820,0.19450
1805.04666,0.18971
1806.97513,0.18900
1808.90360,0.19454
1810.83207,0.19990
1812.76054,0.19559
1814.68901,0.18770
1816.61748,0.18899
1818.54595,0.19847
1820.47441,0.20381
1822.40288,0.20320
1824.33135,0.20049
1826.25982,0.19718
1828.18829,0.19694
1830.11676,0.19703
1832.04523,0.19489
1833.97369,0.19306
1835.90216,0.19150
1837.83063,0.19127
1839.75910,0.19343
1841.68757,0.19741
1843.61604,0.20020
1845.54451,0.19875
1847.47298,0.19609
1849.40144,0.19256
1851.32991,0.18774
1853.25838,0.18439
1855.18685,0.18442
1857.11532,0.18749
1859.04379,0.19088
1860.97226,0.19200
1862.90072,0.19312
1864.82919,0.19906
1866.75766,0.20811
1868.68613,0.20989
1870.61460,0.20174
1872.54307,0.19332
1874.47154,0.18705
1876.40001,0.18337
1878.32847,0.18333
1880.25694,0.18475
1882.18541,0.18623
1884.11388,0.18807
1886.04235,0.18968
1887.97082,0.19132
1889.89929,0.19170
1891.82775,0.18987
1893.75622,0.18859
1895.68469,0.18829
1897.61316,0.18867
1899.54163,0.18942
1901.47010,0.18880
1903.39857,0.18750
1905.32704,0.18776
1907.25550,0.18906
1909.18397,0.18865
1911.11244,0.18657
1913.04091,0.18499
1914.96938,0.18589
1916.89785,0.18963
1918.82632,0.19093
1920.75478,0.18820
1922.68325,0.18684
1924.61172,0.18935
1926.54019,0.19349
1928.46866,0.19438
1930.39713,0.19113
1932.32560,0.18787
1934.25407,0.18639
1936.18253,0.18564
1938.11100,0.18602
1940.03947,0.19043
1941.96794,0.19700
1943.89641,0.19887
1945.82488,0.19723
1947.75335,0.19628
1949.68181,0.19466
1951.61028,0.19185
1953.53875,0.19003
1955.46722,0.18875
1957.39569,0.18687
1959.32416,0.18672
1961.25263,0.18893
1963.18110,0.19177
1965.10956,0.19415
1967.03803,0.19324
1968.96650,0.18940
1970.89497,0.18803
1972.82344,0.19004
1974.75191,0.18985
1976.68038,0.18304
1978.60884,0.17654
1980.53731,0.17975
1982.46578,0.18722
1984.39425,0.19008
1986.32272,0.18966
1988.25119,0.18950
1990.17966,0.19027
1992.10812,0.19113
1994.03659,0.19123
1995.96506,0.19027
1997.89353,0.18805
1999.82200,0.18640
2001.75047,0.18814
2003.67894,0.19106
2005.60741,0.18993
2007.53587,0.18662
2009.46434,0.18688
2011.39281,0.18934
2013.32128,0.19119
2015.24975,0.19370
2017.17822,0.19418
2019.10669,0.19047
2021.03515,0.18759
2022.96362,0.18734
2024.89209,0.18790
2026.82056,0.18929
2028.74903,0.19076
2030.67750,0.19191
2032.60597,0.19343
2034.53444,0.19503
2036.46290,0.19612
2038.39137,0.19440
2040.31984,0.18974
2042.24831,0.18715
2044.17678,0.18902
2046.10525,0.19254
2048.03372,0.19431
2049.96218,0.19340
2051.89065,0.19127
2053.81912,0.18904
2055.74759,0.18764
2057.67606,0.18788
2059.60453,0.19003
2061.53300,0.19363
2063.46147,0.19586
2065.38993,0.19415
2067.31840,0.19111
2069.24687,0.19119
2071.17534,0.19332
2073.10381,0.19383
2075.03228,0.19321
2076.96075,0.19313
2078.88921,0.19303
2080.81768,0.19245
2082.74615,0.19294
2084.67462,0.19474
2086.60309,0.19485
2088.53156,0.19347
2090.46003,0.19291
2092.38850,0.19283
2094.31696,0.19411
2096.24543,0.19595
2098.17390,0.19517
2100.10237,0.19340
2102.03084,0.19292
2103.95931,0.19161
2105.88778,0.18865
2107.81624,0.18573
2109.74471,0.18408
2111.67318,0.18441
2113.60165,0.18699
2115.53012,0.19004
2117.45859,0.19107
2119.38706,0.19138
2121.31553,0.19207
2123.24399,0.19075
2125.17246,0.18883
2127.10093,0.18984
2129.02940,0.19235
2130.95787,0.19425
2132.88634,0.19604
2134.81481,0.19767
2136.74327,0.19733
2138.67174,0.19445
2140.60021,0.19284
2142.52868,0.19367
2144.45715,0.19226
2146.38562,0.18888
2148.31409,0.18797
2150.24255,0.18792
2152.17102,0.18703
2154.09949,0.18844
2156.02796,0.19159
2157.95643,0.19305
2159.88490,0.19283
2161.81337,0.19222
2163.74184,0.19183
2165.67030,0.19182
2167.59877,0.19143
2169.52724,0.19093
2171.45571,0.19073
2173.38418,0.18905
2175.31265,0.18619
2177.24112,0.18518
2179.16958,0.18720
2181.09805,0.19073
2183.02652,0.19331
2184.95499,0.19250
2186.88346,0.18905
2188.81193,0.18769
2190.74040,0.18920
2192.66887,0.19053
2194.59733,0.19150
2196.52580,0.19287
2198.45427,0.19222
2200.38274,0.18875
2202.31121,0.18710
2204.23968,0.18883
2206.16815,0.19066
2208.09661,0.19144
2210.02508,0.19125
2211.95355,0.19051
2213.88202,0.19005
2215.81049,0.18971
2217.73896,0.18971
2219.66743,0.18926
2221.59590,0.18771
2223.52436,0.18741
2225.45283,0.18891
2227.38130,0.19099
2229.30977,0.19321
2231.23824,0.19322
2233.16671,0.19110
2235.09518,0.18964
2237.02364,0.18886
2238.95211,0.18808
2240.88058,0.18837
2242.80905,0.19033
2244.73752,0.19226
2246.66599,0.19143
2248.59446,0.18919
2250.52293,0.18925
2252.45139,0.19075
2254.37986,0.19093
2256.30833,0.19003
2258.23680,0.19026
2260.16527,0.19243
2262.09374,0.19428
2264.02221,0.19286
2265.95067,0.18971
2267.87914,0.18882
2269.80761,0.18834
2271.73608,0.18694
2273.66455,0.18841
2275.59302,0.19115
2277.52149,0.19129
2279.44996,0.18980
2281.37842,0.18887
2283.30689,0.19019
2285.23536,0.19297
2287.16383,0.19360
2289.09230,0.19125
2291.02077,0.18865
2292.94924,0.18791
2294.87770,0.19050
2296.80617,0.19530
2298.73464,0.19749
2300.66311,0.19638
2302.59158,0.19557
2304.52005,0.19583
2306.44852,0.19570
2308.37699,0.19553
2310.30545,0.19716
2312.23392,0.19692
2314.16239,0.19094
2316.09086,0.18711
2318.01933,0.19015
2319.94780,0.19274
2321.87627,0.19359
2323.80473,0.19650
2325.73320,0.19832
2327.66167,0.20351
2329.59014,0.21538
2331.51861,0.22126
2333.44708,0.22119
2335.37555,0.22657
2337.30401,0.23444
2339.23248,0.23963
2341.16095,0.24177
2343.08942,0.23495
2345.01789,0.21864
2346.94636,0.20758
2348.87483,0.20306
2350.80330,0.19725
2352.73176,0.19464
2354.66023,0.20820
2356.58870,0.22089
2358.51717,0.21429
2360.44564,0.21808
2362.37411,0.23287
2364.30258,0.23604
2366.23104,0.23261
2368.15951,0.22274
2370.08798,0.21055
2372.01645,0.20389
2373.94492,0.20041
2375.87339,0.19864
2377.80186,0.19942
2379.73033,0.20006
2381.65879,0.19689
2383.58726,0.19214
2385.51573,0.19016
2387.44420,0.19080
2389.37267,0.19082
2391.30114,0.18911
2393.22961,0.18906
2395.15807,0.19177
2397.08654,0.19379
2399.01501,0.19330
2400.94348,0.19066
2402.87195,0.18848
2404.80042,0.18863
2406.72889,0.18910
2408.65736,0.18949
2410.58582,0.19039
2412.51429,0.19020
2414.44276,0.18942
2416.37123,0.18970
2418.29970,0.19085
2420.22817,0.19277
2422.15664,0.19491
2424.08510,0.19602
2426.01357,0.19549
2427.94204,0.19380
2429.87051,0.19216
2431.79898,0.19102
2433.72745,0.18983
2435.65592,0.18897
2437.58439,0.18913
2439.51285,0.18871
2441.44132,0.18665
2443.36979,0.18509
2445.29826,0.18678
2447.22673,0.19074
2449.15520,0.19463
2451.08367,0.19859
2453.01213,0.20017
2454.94060,0.19725
2456.86907,0.19175
2458.79754,0.18718
2460.72601,0.18697
2462.65448,0.18931
2464.58295,0.19099
2466.51142,0.19266
2468.43988,0.19476
2470.36835,0.19574
2472.29682,0.19616
2474.22529,0.19766
2476.15376,0.19737
2478.08223,0.19407
2480.01070,0.19240
2481.93916,0.19497
2483.86763,0.19822
2485.79610,0.19917
2487.72457,0.19799
2489.65304,0.19446
2491.58151,0.19161
2493.50998,0.19183
2495.43844,0.19179
2497.36691,0.19025
2499.29538,0.18916
2501.22385,0.18940
2503.15232,0.19156
2505.08079,0.19386
2507.00926,0.19402
2508.93773,0.19396
2510.86619,0.19418
2512.79466,0.19367
2514.72313,0.19359
2516.65160,0.19362
2518.58007,0.19297
2520.50854,0.19208
2522.43701,0.19065
2524.36547,0.19027
2526.29394,0.19197
2528.22241,0.19259
2530.15088,0.19272
2532.07935,0.19514
2534.00782,0.19774
2535.93629,0.19913
2537.86476,0.20062
2539.79322,0.20142
2541.72169,0.20024
2543.65016,0.19841
2545.57863,0.19546
2547.50710,0.19043
2549.43557,0.18622
2551.36404,0.18505
2553.29250,0.18672
2555.22097,0.18882
2557.14944,0.19014
2559.07791,0.19259
2561.00638,0.19423
2562.93485,0.19390
2564.86332,0.19389
2566.79179,0.19341
2568.72025,0.19271
2570.64872,0.19284
2572.57719,0.19257
2574.50566,0.19179
2576.43413,0.19165
2578.36260,0.19370
2580.29107,0.19637
2582.21953,0.19626
2584.14800,0.19547
2586.07647,0.19650
2588.00494,0.19643
2589.93341,0.19483
2591.86188,0.19451
2593.79035,0.19502
2595.71882,0.19533
2597.64728,0.19561
2599.57575,0.19588
2601.50422,0.19545
2603.43269,0.19483
2605.36116,0.19586
2607.28963,0.19738
2609.21810,0.19932
2611.14656,0.20199
2613.07503,0.20106
2615.00350,0.19655
2616.93197,0.19388
2618.86044,0.19484
2620.78891,0.19775
2622.71738,0.19916
2624.64585,0.19719
2626.57431,0.19510
2628.50278,0.19543
2630.43125,0.19787
2632.35972,0.20111
2634.28819,0.20173
2636.21666,0.19841
2638.14513,0.19460
2640.07359,0.19322
2642.00206,0.19358
2643.93053,0.19368
2645.85900,0.19211
2647.78747,0.19119
2649.71594,0.19373
2651.64441,0.19558
2653.57288,0.19442
2655.50134,0.19505
2657.42981,0.19726
2659.35828,0.19740
2661.28675,0.19672
2663.21522,0.19653
2665.14369,0.19618
2667.07216,0.19805
2669.00062,0.20281
2670.92909,0.20413
2672.85756,0.19968
2674.78603,0.19494
2676.71450,0.19380
2678.64297,0.19587
2680.57144,0.19860
2682.49990,0.20006
2684.42837,0.19984
2686.35684,0.19949
2688.28531,0.19960
2690.21378,0.19928
2692.14225,0.19956
2694.07072,0.19836
2695.99919,0.19408
2697.92765,0.19210
2699.85612,0.19455
2701.78459,0.19776
2703.71306,0.20113
2705.64153,0.20468
2707.57000,0.20440
2709.49847,0.20099
2711.42693,0.20100
2713.35540,0.20343
2715.28387,0.20289
2717.21234,0.20161
2719.14081,0.20315
2721.06928,0.20467
2722.99775,0.20196
2724.92622,0.19718
2726.85468,0.19651
2728.78315,0.19992
2730.71162,0.20261
2732.64009,0.20323
2734.56856,0.20406
2736.49703,0.20442
2738.42550,0.20256
2740.35396,0.20322
2742.28243,0.20727
2744.21090,0.20799
2746.13937,0.20530
2748.06784,0.20370
2749.99631,0.20414
2751.92478,0.20583
2753.85325,0.20658
2755.78171,0.20532
2757.71018,0.20399
2759.63865,0.20304
2761.56712,0.20136
2763.49559,0.19986
2765.42406,0.20098
2767.35253,0.20475
2769.28099,0.20767
2771.20946,0.20836
2773.13793,0.20753
2775.06640,0.20590
2776.99487,0.20591
2778.92334,0.20772
2780.85181,0.20937
2782.78028,0.21057
2784.70874,0.21109
2786.63721,0.21127
2788.56568,0.20921
2790.49415,0.20359
2792.42262,0.20100
2794.35109,0.20364
2796.27956,0.20541
2798.20802,0.20631
2800.13649,0.20967
2802.06496,0.21363
2803.99343,0.21427
2805.92190,0.21079
2807.85037,0.20694
2809.77884,0.20586
2811.70731,0.20688
2813.63577,0.20753
2815.56424,0.20733
2817.49271,0.20777
2819.42118,0.20793
2821.34965,0.20695
2823.27812,0.20686
2825.20659,0.20768
2827.13505,0.20672
2829.06352,0.20406
2830.99199,0.20124
2832.92046,0.19958
2834.84893,0.20101
2836.77740,0.20399
2838.70587,0.20735
2840.63433,0.21038
2842.56280,0.21010
2844.49127,0.20874
2846.41974,0.20843
2848.34821,0.20834
2850.27668,0.20955
2852.20515,0.20945
2854.13362,0.20482
2856.06208,0.19988
2857.99055,0.20266
2859.91902,0.21097
2861.84749,0.21358
2863.77596,0.21021
2865.70443,0.20778
2867.63290,0.20653
2869.56136,0.20475
2871.48983,0.20417
2873.41830,0.20505
2875.34677,0.20449
2877.27524,0.20405
2879.20371,0.20592
2881.13218,0.20668
2883.06065,0.20431
2884.98911,0.20288
2886.91758,0.20612
2888.84605,0.20863
2890.77452,0.20620
2892.70299,0.20374
2894.63146,0.20152
2896.55993,0.19770
2898.48839,0.19657
2900.41686,0.19814
2902.34533,0.19946
2904.27380,0.20098
2906.20227,0.20062
2908.13074,0.19857
2910.05921,0.19885
2911.98768,0.19947
2913.91614,0.19809
2915.84461,0.19756
2917.77308,0.20003
2919.70155,0.20363
2921.63002,0.20459
2923.55849,0.20095
2925.48696,0.19419
2927.41542,0.19058
2929.34389,0.19318
2931.27236,0.19629
2933.20083,0.19670
2935.12930,0.19458
2937.05777,0.18958
2938.98624,0.18853
2940.91471,0.19528
2942.84317,0.20210
2944.77164,0.20334
2946.70011,0.20003
2948.62858,0.19808
2950.55705,0.20021
2952.48552,0.20174
2954.41399,0.20018
2956.34245,0.19443
2958.27092,0.19112
2960.19939,0.19822
2962.12786,0.20673
2964.05633,0.20786
2965.98480,0.20293
2967.91327,0.19781
2969.84174,0.19695
2971.77020,0.19715
2973.69867,0.19957
2975.62714,0.20284
2977.55561,0.19939
2979.48408,0.19679
2981.41255,0.20377
2983.34102,0.21347
2985.26948,0.21617
2987.19795,0.21020
2989.12642,0.20602
2991.05489,0.21092
2992.98336,0.21704
2994.91183,0.21718
2996.84030,0.21247
2998.76877,0.20883
3000.69723,0.21003
3002.62570,0.21051
3004.55417,0.20669
3006.48264,0.20423
3008.41111,0.20468
3010.33958,0.19802
3012.26805,0.17736
3014.19651,0.14777
3016.12498,0.12524
3018.05345,0.13477
3019.98192,0.17281
3021.91039,0.20365
3023.83886,0.21409
3025.76733,0.21315
3027.69579,0.20774
3029.62426,0.20418
3031.55273,0.20451
3033.48120,0.20638
3035.40967,0.20674
3037.33814,0.20589
3039.26661,0.20900
3041.19508,0.21349
3043.12354,0.21141
3045.05201,0.20464
3046.98048,0.20105
3048.90895,0.20405
3050.83742,0.20731
3052.76589,0.20422
3054.69436,0.19693
3056.62282,0.19030
3058.55129,0.19215
3060.47976,0.20358
3062.40823,0.21272
3064.33670,0.20956
3066.26517,0.19764
3068.19364,0.19178
3070.12211,0.19766
3072.05057,0.20519
3073.97904,0.20260
3075.90751,0.19501
3077.83598,0.19966
3079.76445,0.21128
3081.69292,0.21199
3083.62139,0.20062
3085.54985,0.19047
3087.47832,0.19372
3089.40679,0.20484
3091.33526,0.21038
3093.26373,0.20716
3095.19220,0.20559
3097.12067,0.20916
3099.04914,0.20836
3100.97760,0.20480
3102.90607,0.20269
3104.83454,0.20406
3106.76301,0.21117
3108.69148,0.21626
3110.61995,0.21111
3112.54842,0.20009
3114.47688,0.19873
3116.40535,0.21061
3118.33382,0.22059
3120.26229,0.21737
3122.19076,0.20799
3124.11923,0.20611
3126.04770,0.20986
3127.97617,0.21191
3129.90463,0.21084
3131.83310,0.20814
3133.76157,0.20930
3135.69004,0.21394
3137.61851,0.21408
3139.54698,0.21004
3141.47545,0.21110
3143.40391,0.21739
3145.33238,0.22163
3147.26085,0.22109
3149.18932,0.21820
3151.11779,0.21791
3153.04626,0.21865
3154.97473,0.21624
3156.90320,0.21316
3158.83166,0.21193
3160.76013,0.21209
3162.68860,0.21285
3164.61707,0.21603
3166.54554,0.22284
3168.47401,0.22896
3170.40248,0.23091
3172.33094,0.22639
3174.25941,0.21728
3176.18788,0.21397
3178.11635,0.21851
3180.04482,0.22107
3181.97329,0.21933
3183.90176,0.21777
3185.83022,0.21824
3187.75869,0.22136
3189.68716,0.22434
3191.61563,0.22566
3193.54410,0.22694
3195.47257,0.22585
3197.40104,0.22229
3199.32951,0.21962
3201.25797,0.21815
3203.18644,0.21585
3205.11491,0.21108
3207.04338,0.20761
3208.97185,0.20965
3210.90032,0.21580
3212.82879,0.22136
3214.75725,0.22106
3216.68572,0.22081
3218.61419,0.22852
3220.54266,0.23406
3222.47113,0.22745
3224.39960,0.21628
3226.32807,0.21138
3228.25654,0.21253
3230.18500,0.21316
3232.11347,0.20961
3234.04194,0.20662
3235.97041,0.20894
3237.89888,0.21161
3239.82735,0.21334
3241.75582,0.21452
3243.68428,0.21022
3245.61275,0.20300
3247.54122,0.20006
3249.46969,0.20168
3251.39816,0.20314
3253.32663,0.20266
3255.25510,0.20143
3257.18357,0.20247
3259.11203,0.20907
3261.04050,0.21623
3262.96897,0.21845
3264.89744,0.21650
3266.82591,0.21199
3268.75438,0.20973
3270.68285,0.21113
3272.61131,0.21338
3274.53978,0.21522
3276.46825,0.21336
3278.39672,0.21037
3280.32519,0.21154
3282.25366,0.21477
3284.18213,0.21556
3286.11060,0.21196
3288.03906,0.20745
3289.96753,0.20581
3291.89600,0.20778
3293.82447,0.21310
3295.75294,0.21792
3297.68141,0.21742
3299.60988,0.21227
3301.53834,0.20710
3303.46681,0.20648
3305.39528,0.21198
3307.32375,0.21492
3309.25222,0.20745
3311.18069,0.19865
3313.10916,0.19950
3315.03763,0.20559
3316.96609,0.20918
3318.89456,0.21153
3320.82303,0.21334
3322.75150,0.21155
3324.67997,0.20991
3326.60844,0.21286
3328.53691,0.21618
3330.46537,0.21621
3332.39384,0.21471
3334.32231,0.21448
3336.25078,0.21459
3338.17925,0.21124
3340.10772,0.20992
3342.03619,0.21402
3343.96466,0.21373
3345.89312,0.20919
3347.82159,0.20964
3349.75006,0.21462
3351.67853,0.21970
3353.60700,0.22285
3355.53547,0.22277
3357.46394,0.21997
3359.39240,0.21894
3361.32087,0.22215
3363.24934,0.22330
3365.17781,0.21914
3367.10628,0.21550
3369.03475,0.21470
3370.96322,0.21211
3372.89168,0.20922
3374.82015,0.21260
3376.74862,0.21685
3378.67709,0.21397
3380.60556,0.20802
3382.53403,0.20612
3384.46250,0.20871
3386.39097,0.21232
3388.31943,0.21547
3390.24790,0.21711
3392.17637,0.21614
3394.10484,0.21203
3396.03331,0.20892
3397.96178,0.21093
3399.89025,0.21305
3401.81871,0.21278
3403.74718,0.21239
3405.67565,0.20989
3407.60412,0.20646
3409.53259,0.20624
3411.46106,0.20780
3413.38953,0.21222
3415.31800,0.21881
3417.24646,0.21976
3419.17493,0.21749
3421.10340,0.21776
3423.03187,0.21829
3424.96034,0.21771
3426.88881,0.21397
3428.81728,0.20671
3430.74574,0.20231
3432.67421,0.20430
3434.60268,0.20720
3436.53115,0.20571
3438.45962,0.20477
3440.38809,0.20970
3442.31656,0.21424
3444.24503,0.21304
3446.17349,0.20920
3448.10196,0.20417
3450.03043,0.19594
3451.95890,0.18963
3453.88737,0.19328
3455.81584,0.19978
3457.74431,0.19935
3459.67277,0.19737
3461.60124,0.19762
3463.52971,0.19519
3465.45818,0.19243
3467.38665,0.19479
3469.31512,0.19751
3471.24359,0.19688
3473.17206,0.19528
3475.10052,0.19183
3477.02899,0.18511
3478.95746,0.17913
3480.88593,0.17978
3482.81440,0.18692
3484.74287,0.19382
3486.67134,0.19615
3488.59980,0.19415
3490.52827,0.18851
3492.45674,0.18415
3494.38521,0.18820
3496.31368,0.19673
3498.24215,0.19968
3500.17062,0.19459
3502.09909,0.18736
3504.02755,0.18527
3505.95602,0.18561
3507.88449,0.18498
3509.81296,0.18729
3511.74143,0.19131
3513.66990,0.19033
3515.59837,0.18263
3517.52683,0.17291
3519.45530,0.16909
3521.38377,0.17433
3523.31224,0.18162
3525.24071,0.18348
3527.16918,0.18335
3529.09765,0.18414
3531.02611,0.18094
3532.95458,0.17605
3534.88305,0.17529
3536.81152,0.17617
3538.73999,0.17773
3540.66846,0.18130
3542.59693,0.18395
3544.52540,0.18432
3546.45386,0.18168
3548.38233,0.17820
3550.31080,0.17866
3552.23927,0.18024
3554.16774,0.17878
3556.09621,0.17493
3558.02468,0.16886
3559.95314,0.16540
3561.88161,0.16979
3563.81008,0.17856
3565.73855,0.18840
3567.66702,0.19041
3569.59549,0.17826
3571.52396,0.16830
3573.45243,0.16864
3575.38089,0.17151
3577.30936,0.16934
3579.23783,0.16317
3581.16630,0.15661
3583.09477,0.15486
3585.02324,0.16013
3586.95171,0.16593
3588.88017,0.16191
3590.80864,0.15573
3592.73711,0.15517
3594.66558,0.15623
3596.59405,0.15439
3598.52252,0.15075
3600.45099,0.14974
3602.37946,0.15104
3604.30792,0.15174
3606.23639,0.15360
3608.16486,0.15613
3610.09333,0.15740
3612.02180,0.15827
3613.95027,0.15962
3615.87874,0.16196
3617.80720,0.16489
3619.73567,0.16613
3621.66414,0.16178
3623.59261,0.15531
3625.52108,0.15223
3627.44955,0.15516
3629.37802,0.15855
3631.30649,0.15463
3633.23495,0.15181
3635.16342,0.15281
3637.09189,0.15396
3639.02036,0.15150
3640.94883,0.14533
3642.87730,0.14189
3644.80577,0.14773
3646.73423,0.16331
3648.66270,0.18011
3650.59117,0.17269
3652.51964,0.15200
3654.44811,0.14157
3656.37658,0.13787
3658.30505,0.13358
3660.23352,0.13369
3662.16198,0.13785
3664.09045,0.13950
3666.01892,0.13766
3667.94739,0.13671
3669.87586,0.13844
3671.80433,0.14070
3673.73280,0.14844
3675.66126,0.15803
3677.58973,0.15327
3679.51820,0.14560
3681.44667,0.14202
3683.37514,0.13846
3685.30361,0.13708
3687.23208,0.14378
3689.16055,0.15041
3691.08901,0.14276
3693.01748,0.13521
3694.94595,0.13372
3696.87442,0.13349
3698.80289,0.13695
3700.73136,0.14367
3702.65983,0.14262
3704.58829,0.13669
3706.51676,0.13796
3708.44523,0.14546
3710.37370,0.15191
3712.30217,0.15057
3714.23064,0.14388
3716.15911,0.13947
3718.08757,0.13940
3720.01604,0.14183
3721.94451,0.14581
3723.87298,0.14940
3725.80145,0.14743
3727.72992,0.14374
3729.65839,0.14601
3731.58686,0.15280
3733.51532,0.15983
3735.44379,0.16115
3737.37226,0.15089
3739.30073,0.14000
3741.22920,0.13830
3743.15767,0.14510
3745.08614,0.15290
3747.01460,0.15397
3748.94307,0.15402
3750.87154,0.16106
3752.80001,0.16486
3754.72848,0.15848
3756.65695,0.15341
3758.58542,0.15119
3760.51389,0.14519
3762.44235,0.13760
3764.37082,0.13370
3766.29929,0.13210
3768.22776,0.12975
3770.15623,0.12871
3772.08470,0.12978
3774.01317,0.12904
3775.94163,0.12587
3777.87010,0.12312
3779.79857,0.12266
3781.72704,0.12553
3783.65551,0.13105
3785.58398,0.13220
3787.51245,0.12447
3789.44092,0.11582
3791.36938,0.11469
3793.29785,0.12168
3795.22632,0.13166
3797.15479,0.13680
3799.08326,0.13743
3801.01173,0.14065
3802.94020,0.14106
3804.86866,0.13848
3806.79713,0.13781
3808.72560,0.13227
3810.65407,0.12380
3812.58254,0.12036
3814.51101,0.12392
3816.43948,0.13191
3818.36795,0.13741
3820.29641,0.13679
3822.22488,0.12669
3824.15335,0.11787
3826.08182,0.11925
3828.01029,0.12654
3829.93876,0.13200
3831.86723,0.13468
3833.79569,0.13650
3835.72416,0.13958
3837.65263,0.14624
3839.58110,0.14891
3841.50957,0.14031
3843.43804,0.12996
3845.36651,0.12760
3847.29498,0.13184
3849.22344,0.13648
3851.15191,0.14312
3853.08038,0.15445
3855.00885,0.15114
3856.93732,0.13918
3858.86579,0.13214
3860.79426,0.13177
3862.72272,0.13796
3864.65119,0.14261
3866.57966,0.13913
3868.50813,0.13433
3870.43660,0.13159
3872.36507,0.12791
3874.29354,0.12301
3876.22200,0.11964
3878.15047,0.12068
3880.07894,0.12446
3882.00741,0.12568
3883.93588,0.12627
3885.86435,0.12774
3887.79282,0.12470
3889.72129,0.11856
3891.64975,0.11355
3893.57822,0.11091
3895.50669,0.11305
3897.43516,0.12144
3899.36363,0.12886
3901.29210,0.12619
3903.22057,0.11895
3905.14903,0.11359
3907.07750,0.10995
3909.00597,0.10816
3910.93444,0.10619
3912.86291,0.10432
3914.79138,0.10567
3916.71985,0.10841
3918.64832,0.11154
3920.57678,0.11748
3922.50525,0.12319
3924.43372,0.12448
3926.36219,0.12153
3928.29066,0.11749
3930.21913,0.11554
3932.14760,0.11580
3934.07606,0.11353
3936.00453,0.10979
3937.93300,0.10967
3939.86147,0.11137
3941.78994,0.11131
3943.71841,0.11146
3945.64688,0.11450
3947.57535,0.11927
3949.50381,0.12095
3951.43228,0.11632
3953.36075,0.10966
3955.28922,0.10492
3957.21769,0.10310
3959.14616,0.10635
3961.07463,0.11291
3963.00309,0.11796
3964.93156,0.11814
3966.86003,0.11158
3968.78850,0.10546
3970.71697,0.10570
3972.64544,0.10644
3974.57391,0.10493
3976.50238,0.10282
3978.43084,0.10088
3980.35931,0.09975
3982.28778,0.09781
3984.21625,0.09638
3986.14472,0.09979
3988.07319,0.10510
3990.00166,0.10425
3991.93012,0.09806
3993.85859,0.09589
3995.78706,0.10115
3997.71553,0.10724
3999.64400,0.10664
4001.57247,0.10145
4003.50094,0.09960
4005.42941,0.10089
4007.35787,0.10092
4009.28634,0.09988
4011.21481,0.09998
4013.14328,0.10221
4015.07175,0.10464
4017.00022,0.10499
4018.92869,0.10321
4020.85715,0.10149
4022.78562,0.09968
4024.71409,0.09448
4026.64256,0.08944
4028.57103,0.09093
4030.49950,0.09691
4032.42797,0.10271
4034.35644,0.10792
4036.28490,0.11039
4038.21337,0.10632
4040.14184,0.09956
4042.07031,0.09728
4043.99878,0.10104
4045.92725,0.10652
4047.85572,0.10914
4049.78418,0.10888
4051.71265,0.10836
4053.64112,0.10896
4055.56959,0.10811
4057.49806,0.10296
4059.42653,0.09569
4061.35500,0.09063
4063.28346,0.09039
4065.21193,0.09387
4067.14040,0.09708
4069.06887,0.09934
4070.99734,0.10035
4072.92581,0.09724
4074.85428,0.09218
4076.78275,0.08957
4078.71121,0.08889
4080.63968,0.08783
4082.56815,0.08669
4084.49662,0.08888
4086.42509,0.09604
4088.35356,0.10293
4090.28203,0.10329
4092.21049,0.09825
4094.13896,0.09255
4096.06743,0.08991
4097.99590,0.08987
4099.92437,0.08778
4101.85284,0.08621
4103.78131,0.09166
4105.70978,0.09772
4107.63824,0.09600
4109.56671,0.09183
4111.49518,0.09024
4113.42365,0.09016
4115.35212,0.08932
4117.28059,0.08536
4119.20906,0.08198
4121.13752,0.08261
4123.06599,0.08489
4124.99446,0.08618
4126.92293,0.08509
4128.85140,0.08374
4130.77987,0.08493
4132.70834,0.08734
4134.63681,0.08809
4136.56527,0.08814
4138.49374,0.08822
4140.42221,0.08478
4142.35068,0.08068
4144.27915,0.08141
4146.20762,0.08248
4148.13609,0.08090
4150.06455,0.08195
4151.99302,0.08537
4153.92149,0.08755
4155.84996,0.08906
4157.77843,0.08605
4159.70690,0.07811
4161.63537,0.07521
4163.56384,0.07922
4165.49230,0.08262
4167.42077,0.08077
4169.34924,0.07501
4171.27771,0.07213
4173.20618,0.07263
4175.13465,0.07002
4177.06312,0.06579
4178.99158,0.06599
4180.92005,0.07329
4182.84852,0.08377
4184.77699,0.08667
4186.70546,0.08079
4188.63393,0.07578
4190.56240,0.07647
4192.49087,0.08163
4194.41933,0.08751
4196.34780,0.09044
4198.27627,0.08705
4200.20474,0.07966
4202.13321,0.07901
4204.06168,0.08358
4205.99015,0.08185
4207.91861,0.07490
4209.84708,0.07222
4211.77555,0.07759
4213.70402,0.08359
4215.63249,0.08138
4217.56096,0.07458
4219.48943,0.07115
4221.41789,0.07103
4223.34636,0.07299
4225.27483,0.07483
4227.20330,0.07210
4229.13177,0.06707
4231.06024,0.06118
4232.98871,0.05762
4234.91718,0.06190
4236.84564,0.06695
4238.77411,0.06664
4240.70258,0.06561
4242.63105,0.06579
4244.55952,0.06484
4246.48799,0.06275
4248.41646,0.06263
4250.34492,0.06504
4252.27339,0.06512
4254.20186,0.06524
4256.13033,0.07114
4258.05880,0.07580
4259.98727,0.07477
4261.91574,0.07541
4263.84421,0.07988
4265.77267,0.07936
4267.70114,0.07004
4269.62961,0.05998
4271.55808,0.05660
4273.48655,0.05930
4275.41502,0.06105
4277.34349,0.06045
4279.27195,0.06272
4281.20042,0.06578
4283.12889,0.06555
4285.05736,0.06520
4286.98583,0.06621
4288.91430,0.06648
4290.84277,0.06872
4292.77124,0.07196
4294.69970,0.06692
4296.62817,0.05508
4298.55664,0.05320
4300.48511,0.06278
4302.41358,0.06596
4304.34205,0.05972
4306.27052,0.05426
4308.19898,0.05306
4310.12745,0.05600
4312.05592,0.05654
4313.98439,0.04844
4315.91286,0.04101
4317.84133,0.04317
4319.76980,0.05128
4321.69827,0.05773
4323.62673,0.05557
4325.55520,0.04725
4327.48367,0.04292
4329.41214,0.04786
4331.34061,0.05941
4333.26908,0.06806
4335.19755,0.06622
4337.12601,0.05681
4339.05448,0.05077
4340.98295,0.05240
4342.91142,0.05387
4344.83989,0.04886
4346.76836,0.04167
4348.69683,0.04247
4350.62530,0.04753
4352.55376,0.04369
4354.48223,0.03607
4356.41070,0.03226
4358.33917,0.03183
4360.26764,0.03961
4362.19611,0.05195
4364.12458,0.05915
4366.05304,0.05796
4367.98151,0.05140
4369.90998,0.04603
4371.83845,0.04479
4373.76692,0.04644
4375.69539,0.04738
4377.62386,0.04863
4379.55232,0.04923
4381.48079,0.04260
4383.40926,0.03739
4385.33773,0.04083
4387.26620,0.04156
4389.19467,0.03891
4391.12314,0.04220
4393.05161,0.04612
4394.98007,0.04157
4396.90854,0.03172
4398.83701,0.02769
4400.76548,0.03130
4402.69395,0.03303
4404.62242,0.03170
4406.55089,0.03094
4408.47935,0.03044
4410.40782,0.03025
4412.33629,0.03018
4414.26476,0.03000
4416.19323,0.02594
4418.12170,0.01877
4420.05017,0.01791
4421.97864,0.02399
4423.90710,0.03088
4425.83557,0.03893
4427.76404,0.04834
4429.69251,0.05238
4431.62098,0.04683
4433.54945,0.03742
4435.47792,0.03420
4437.40638,0.03803
4439.33485,0.04140
4441.26332,0.04468
4443.19179,0.04786
4445.12026,0.04422
4447.04873,0.03699
4448.97720,0.03399
4450.90567,0.03384
4452.83413,0.03194
4454.76260,0.03282
4456.69107,0.03840
4458.61954,0.03820
4460.54801,0.02944
4462.47648,0.02239
4464.40495,0.02705
4466.33341,0.03889
4468.26188,0.04326
4470.19035,0.03810
4472.11882,0.03050
4474.04729,0.02266
4475.97576,0.01305
4477.90423,0.00441
4479.83270,0.00441
4481.76116,0.01111
4483.68963,0.01699
4485.61810,0.02441
4487.54657,0.02787
4489.47504,0.01909
4491.40351,0.01663
4493.33198,0.03024
4495.26044,0.04013
4497.18891,0.03735
4499.11738,0.03107
4501.04585,0.02980
4502.97432,0.02987
4504.90279,0.02657
4506.83126,0.02170
4508.75973,0.01276
4510.68819,0.00473
4512.61666,0.01202
4514.54513,0.02423
4516.47360,0.02184
4518.40207,0.01706
4520.33054,0.01713
4522.25901,0.00882
4524.18747,0.00117
4526.11594,0.00581
4528.04441,0.01029
4529.97288,0.01092
4531.90135,0.01443
4533.82982,0.02070
4535.75829,0.03095
4537.68676,0.04052
4539.61522,0.03778
4541.54369,0.02539
4543.47216,0.01918
4545.40063,0.02050
4547.32910,0.02034
4549.25757,0.02031
4551.18604,0.02234
4553.11450,0.02484
4555.04297,0.02166
4556.97144,0.01296
4558.89991,0.01153
4560.82838,0.01336
4562.75685,0.01164
4564.68532,0.01323
4566.61378,0.01628
4568.54225,0.01699
4570.47072,0.02148
4572.39919,0.02865
4574.32766,0.02791
4576.25613,0.02128
4578.18460,0.01785
4580.11307,0.01555
4582.04153,0.01402
4583.97000,0.01762
4585.89847,0.01911
4587.82694,0.01117
4589.75541,0.00132
4591.68388,-0.00159
4593.61235,0.00209
4595.54081,0.01004
4597.46928,0.01881
4599.39775,0.02218
4601.32622,0.01708
4603.25469,0.00463
4605.18316,-0.00193
4607.11163,0.00579
4609.04010,0.01328
4610.96856,0.01833
4612.89703,0.02752
4614.82550,0.02805
4616.75397,0.01833
4618.68244,0.01562
4620.61091,0.01571
4622.53938,0.01035
4624.46784,0.01030
4626.39631,0.01181
4628.32478,0.00928
4630.25325,0.01176
4632.18172,0.01554
4634.11019,0.01505
4636.03866,0.01416
4637.96713,0.01609
4639.89559,0.01598
4641.82406,0.00717
4643.75253,0.00139
4645.68100,0.00681
4647.60947,0.01034
4649.53794,0.00592
4651.46641,0.00237
4653.39487,0.00493
4655.32334,0.01143
4657.25181,0.01646
4659.18028,0.01396
4661.10875,0.00451
4663.03722,-0.00412
4664.96569,-0.00498
4666.89416,0.00290
4668.82262,0.01556
4670.75109,0.02516
4672.67956,0.02336
4674.60803,0.01468
4676.53650,0.01323
4678.46497,0.01959
4680.39344,0.01972
4682.32190,0.01206
4684.25037,0.01013
4686.17884,0.01187
4688.10731,0.00581
4690.03578,0.00216
4691.96425,0.01050
4693.89272,0.01484
4695.82119,0.00672
4697.74965,0.00137
4699.67812,0.00726
4701.60659,0.01387
4703.53506,0.01094
4705.46353,0.00622
4707.39200,0.01093
4709.32047,0.01459
4711.24893,0.00549
4713.17740,-0.00460
4715.10587,-0.00372
4717.03434,0.00166
4718.96281,0.00522
4720.89128,0.00830
4722.81975,0.00866
4724.74821,0.00680
4726.67668,0.01109
4728.60515,0.02138
4730.53362,0.02468
4732.46209,0.01937
4734.39056,0.01671
4736.31903,0.01649
4738.24750,0.01515
4740.17596,0.01787
4742.10443,0.02163
4744.03290,0.01338
4745.96137,-0.00279
4747.88984,-0.01128
4749.81831,-0.01139
4751.74678,-0.00840
4753.67524,-0.00710
4755.60371,-0.00842
4757.53218,-0.00549
4759.46065,-0.00105
4761.38912,0.00121
4763.31759,0.00533
4765.24606,0.01085
4767.17453,0.01880
4769.10299,0.02011
4771.03146,0.00548
4772.95993,-0.00452
4774.88840,0.00275
4776.81687,0.01744
4778.74534,0.03154
4780.67381,0.03691
4782.60227,0.03303
4784.53074,0.02598
4786.45921,0.02007
4788.38768,0.01439
4790.31615,0.01126
4792.24462,0.01354
4794.17309,0.01102
4796.10156,0.00447
4798.03002,0.00451
4799.95849,0.00311
4801.88696,-0.00525
4803.81543,-0.01422
4805.74390,-0.02162
4807.67237,-0.01861
4809.60084,0.00234
4811.52930,0.02121
4813.45777,0.01930
4815.38624,0.01357
4817.31471,0.01903
4819.24318,0.02389
4821.17165,0.01828
4823.10012,0.00422
4825.02859,-0.01184
4826.95705,-0.01503
4828.88552,-0.00230
4830.81399,0.01021
4832.74246,0.01374
4834.67093,0.01808
4836.59940,0.02351
4838.52787,0.02048
4840.45633,0.01790
4842.38480,0.01782
4844.31327,0.01189
4846.24174,0.01028
4848.17021,0.01653
4850.09868,0.01280
4852.02715,0.00036
4853.95562,-0.00638
4855.88408,-0.00967
4857.81255,-0.01303
4859.74102,-0.00424
4861.66949,0.01555
4863.59796,0.02665
4865.52643,0.02302
4867.45490,0.00683
4869.38336,-0.01120
4871.31183,-0.01410
4873.24030,-0.00361
4875.16877,0.00573
4877.09724,0.00908
4879.02571,0.01442
4880.95418,0.02223
4882.88265,0.02458
4884.81111,0.02272
4886.73958,0.01992
4888.66805,0.02371
4890.59652,0.03454
4892.52499,0.03676
4894.45346,0.03034
4896.38193,0.02504
4898.31039,0.02167
4900.23886,0.01893
4902.16733,0.01261
4904.09580,0.00325
4906.02427,-0.00106
4907.95274,0.00126
4909.88121,0.00437
4911.80967,0.00763
4913.73814,0.01322
4915.66661,0.01680
4917.59508,0.01977
4919.52355,0.02640
4921.45202,0.03022
4923.38049,0.03001
4925.30896,0.02618
4927.23742,0.01292
4929.16589,0.00110
4931.09436,0.00311
4933.02283,0.00920
4934.95130,0.01251
4936.87977,0.01376
4938.80824,0.00967
4940.73670,0.00279
4942.66517,-0.00425
4944.59364,-0.01110
4946.52211,-0.01508
4948.45058,-0.01289
4950.37905,-0.00819
4952.30752,-0.01387
4954.23599,-0.02277
4956.16445,-0.01196
4958.09292,0.01340
4960.02139,0.02696
4961.94986,0.01522
4963.87833,-0.00440
4965.80680,-0.00947
4967.73527,-0.00779
4969.66373,-0.00848
4971.59220,-0.00217
4973.52067,0.00543
4975.44914,-0.00021
4977.37761,0.00035
4979.30608,0.01480
4981.23455,0.01790
4983.16302,0.01451
4985.09148,0.01650
4987.01995,0.01869
4988.94842,0.02115
4990.87689,0.02296
4992.80536,0.02819
4994.73383,0.03164
4996.66230,0.02253
4998.59076,0.01215
5000.51923,0.00711
5002.44770,0.00245
5004.37617,-0.00055
5006.30464,-0.00329
5008.23311,-0.00456
5010.16158,0.00254
5012.09005,0.01102
5014.01851,0.01307
5015.94698,0.01879
5017.87545,0.03252
5019.80392,0.03616
5021.73239,0.02755
5023.66086,0.02144
5025.58933,0.01298
5027.51779,0.01224
5029.44626,0.03079
5031.37473,0.04491
5033.30320,0.04246
5035.23167,0.03392
5037.16014,0.02835
5039.08861,0.03329
5041.01708,0.04204
5042.94554,0.03446
5044.87401,0.01534
5046.80248,0.00775
5048.73095,0.00921
5050.65942,0.00926
5052.58789,0.01443
5054.51636,0.02488
5056.44482,0.02630
5058.37329,0.01992
5060.30176,0.02542
5062.23023,0.04009
5064.15870,0.04376
5066.08717,0.03146
5068.01564,0.01778
5069.94410,0.01635
5071.87257,0.01546
5073.80104,0.00648
5075.72951,0.00148
5077.65798,0.00113
5079.58645,0.00605
5081.51492,0.02143
5083.44339,0.03244
5085.37185,0.03274
5087.30032,0.03643
5089.22879,0.04695
5091.15726,0.05377
5093.08573,0.05353
5095.01420,0.05532
5096.94267,0.05397
5098.87113,0.03494
5100.79960,0.01342
5102.72807,0.01102
5104.65654,0.02442
5106.58501,0.03303
5108.51348,0.01731
5110.44195,-0.00709
5112.37042,-0.01068
5114.29888,-0.00053
5116.22735,0.00692
5118.15582,0.02320
5120.08429,0.05248
5122.01276,0.06582
5123.94123,0.04382
5125.86970,0.01082
5127.79816,0.00636
5129.72663,0.02778
5131.65510,0.03461
5133.58357,0.01731
5135.51204,0.00280
5137.44051,0.00477
5139.36898,0.01714
5141.29745,0.02598
5143.22591,0.02409
5145.15438,0.01684
5147.08285,0.00983
5149.01132,0.01175
5150.93979,0.01881
5152.86826,0.01138
5154.79673,-0.00700
5156.72519,-0.00893
5158.65366,0.00583
5160.58213,0.01301
5162.51060,0.01864
5164.43907,0.03254
5166.36754,0.04493
5168.29601,0.05854
5170.22448,0.06055
5172.15294,0.04076
5174.08141,0.04027
5176.00988,0.06162
5177.93835,0.06273
5179.86682,0.05257
5181.79529,0.05081
5183.72376,0.04877
5185.65222,0.04628
5187.58069,0.05023
5189.50916,0.05351
5191.43763,0.03631
5193.36610,0.00798
5195.29457,0.00038
5197.22304,0.01463
5199.15151,0.03911
5201.07997,0.06304
5203.00844,0.06090
5204.93691,0.03364
5206.86538,0.02243
5208.79385,0.03599
5210.72232,0.04086
5212.65079,0.03518
5214.57925,0.04128
5216.50772,0.05569
5218.43619,0.06189
5220.36466,0.05962
5222.29313,0.05715
5224.22160,0.06357
5226.15007,0.05941
5228.07854,0.03760
5230.00700,0.03076
5231.93547,0.03596
5233.86394,0.03039
5235.79241,0.01445
5237.72088,0.00948
5239.64935,0.02733
5241.57782,0.04784
5243.50628,0.05409
5245.43475,0.05007
5247.36322,0.04482
5249.29169,0.04849
5251.22016,0.05945
5253.14863,0.05471
5255.07710,0.03379
5257.00556,0.02963
5258.93403,0.04226
5260.86250,0.04455
5262.79097,0.03110
5264.71944,0.01180
5266.64791,0.00131
5268.57638,0.00430
5270.50485,0.01483
5272.43331,0.03051
5274.36178,0.04027
5276.29025,0.03739
5278.21872,0.03217
5280.14719,0.03786
5282.07566,0.05977
5284.00413,0.07746
5285.93259,0.06646
5287.86106,0.04490
5289.78953,0.04255
5291.71800,0.05372
5293.64647,0.06329
5295.57494,0.06685
5297.50341,0.05816
5299.43188,0.04388
5301.36034,0.03558
5303.28881,0.03972
5305.21728,0.04487
5307.14575,0.02968
5309.07422,0.01925
5311.00269,0.04424
5312.93116,0.07976
5314.85962,0.09324
5316.78809,0.07784
5318.71656,0.04917
5320.64503,0.02713
5322.57350,0.03043
5324.50197,0.06004
5326.43044,0.07782
5328.35891,0.05921
5330.28737,0.03546
5332.21584,0.03339
5334.14431,0.04838
5336.07278,0.06289
5338.00125,0.06715
5339.92972,0.06152
5341.85819,0.04484
5343.78665,0.04124
5345.71512,0.07331
5347.64359,0.08896
5349.57206,0.06593
5351.50053,0.03939
5353.42900,0.02601
5355.35747,0.02015
5357.28594,0.02682
5359.21440,0.04164
5361.14287,0.04559
5363.07134,0.03875
5364.99981,0.04048
5366.92828,0.05668
5368.85675,0.06725
5370.78522,0.06921
5372.71368,0.07663
5374.64215,0.07458
5376.57062,0.06427
5378.49909,0.06969
5380.42756,0.06777
5382.35603,0.04525
5384.28450,0.02716
5386.21297,0.02421
5388.14143,0.02024
5390.06990,0.02106
5391.99837,0.03554
5393.92684,0.05390
5395.85531,0.06826
5397.78378,0.07570
5399.71225,0.07462
5401.64071,0.06891
5403.56918,0.05718
5405.49765,0.04365
5407.42612,0.04676
5409.35459,0.07121
5411.28306,0.08890
5413.21153,0.07506
5415.13999,0.05226
5417.06846,0.05075
5418.99693,0.07579
5420.92540,0.10547
5422.85387,0.10104
5424.78234,0.06344
5426.71081,0.02773
5428.63928,0.01579
5430.56774,0.02851
5432.49621,0.05289
5434.42468,0.07205
5436.35315,0.07117
5438.28162,0.06675
5440.21009,0.08682
5442.13856,0.10553
5444.06702,0.08580
5445.99549,0.06549
5447.92396,0.08406
5449.85243,0.10240
5451.78090,0.08677
5453.70937,0.06792
5455.63784,0.07356
5457.56631,0.09860
5459.49477,0.11579
5461.42324,0.10780
5463.35171,0.09710
5465.28018,0.09126
5467.20865,0.05635
5469.13712,0.00629
5471.06559,0.01340
5472.99405,0.07275
5474.92252,0.10623
5476.85099,0.08432
5478.77946,0.05857
5480.70793,0.06251
5482.63640,0.08052
5484.56487,0.09054
5486.49334,0.09810
5488.42180,0.10538
5490.35027,0.10504
5492.27874,0.10018
5494.20721,0.08329
5496.13568,0.06058
5498.06415,0.06808
5499.99262,0.10328
5501.92108,0.11693
5503.84955,0.09973
5505.77802,0.07992
5507.70649,0.07344
5509.63496,0.07750
5511.56343,0.09217
5513.49190,0.11747
5515.42037,0.12773
5517.34883,0.11170
5519.27730,0.09213
5521.20577,0.08220
5523.13424,0.09059
5525.06271,0.11392
5526.99118,0.11746
5528.91965,0.09462
5530.84811,0.07755
5532.77658,0.07857
5534.70505,0.08833
5536.63352,0.09984
5538.56199,0.09826
5540.49046,0.07110
5542.41893,0.04106
5544.34740,0.04244
5546.27586,0.06744
5548.20433,0.08427
5550.13280,0.07997
5552.06127,0.07839
5553.98974,0.10046
5555.91821,0.12199
5557.84668,0.11516
5559.77514,0.08304
5561.70361,0.05927
5563.63208,0.06353
5565.56055,0.07179
5567.48902,0.08405
5569.41749,0.09761
5571.34596,0.07224
5573.27443,0.00515
5575.20289,-0.03746
5577.13136,-0.01568
5579.05983,0.02726
5580.98830,0.05324
5582.91677,0.05914
5584.84524,0.05381
5586.77371,0.03943
5588.70217,0.01547
5590.63064,0.01339
5592.55911,0.04793
5594.48758,0.08796
5596.41605,0.11572
5598.34452,0.13489
5600.27299,0.13363
5602.20145,0.10242
5604.12992,0.06690
5606.05839,0.05863
5607.98686,0.07022
5609.91533,0.07600
5611.84380,0.08760
5613.77227,0.10529
5615.70074,0.10060
5617.62920,0.08034
5619.55767,0.05781
5621.48614,0.04006
5623.41461,0.04318
5625.34308,0.05790
5627.27155,0.05695
5629.20002,0.05000
5631.12848,0.05045
5633.05695,0.05159
5634.98542,0.06708
5636.91389,0.08795
5638.84236,0.08890
5640.77083,0.08462
5642.69930,0.08642
5644.62777,0.08273
5646.55623,0.07559
5648.48470,0.08654
5650.41317,0.09447
5652.34164,0.05072
5654.27011,-0.01700
5656.19858,-0.03265
5658.12705,0.01480
5660.05551,0.06179
5661.98398,0.07292
5663.91245,0.07062
5665.84092,0.06557
5667.76939,0.06136
5669.69786,0.06419
5671.62633,0.06538
5673.55480,0.05740
5675.48326,0.06114
5677.41173,0.09699
5679.34020,0.12494
5681.26867,0.10668
5683.19714,0.07325
5685.12561,0.07219
5687.05408,0.09893
5688.98254,0.10653
5690.91101,0.08309
5692.83948,0.06623
5694.76795,0.08118
5696.69642,0.12379
5698.62489,0.15219
5700.55336,0.12068
5702.48183,0.07277
5704.41029,0.07537
5706.33876,0.08976
5708.26723,0.06387
5710.19570,0.04281
5712.12417,0.06374
5714.05264,0.09096
5715.98111,0.09342
5717.90957,0.06499
5719.83804,0.04049
5721.76651,0.06036
5723.69498,0.09080
5725.62345,0.09528
5727.55192,0.07794
5729.48039,0.05884
5731.40886,0.07078
5733.33732,0.10248
5735.26579,0.09337
5737.19426,0.04047
5739.12273,0.02149
5741.05120,0.05812
5742.97967,0.09113
5744.90814,0.08126
5746.83660,0.05184
5748.76507,0.03875
5750.69354,0.04323
5752.62201,0.06143
5754.55048,0.08691
5756.47895,0.09053
5758.40742,0.07753
5760.33588,0.08306
5762.26435,0.09423
5764.19282,0.07498
5766.12129,0.05324
5768.04976,0.06642
5769.97823,0.08787
5771.90670,0.09128
5773.83517,0.08283
5775.76363,0.07021
5777.69210,0.06365
5779.62057,0.06225
5781.54904,0.07096
5783.47751,0.08882
5785.40598,0.08057
5787.33445,0.05857
5789.26291,0.05695
5791.19138,0.05920
5793.11985,0.06727
5795.04832,0.09199
5796.97679,0.10711
5798.90526,0.10352
5800.83373,0.09816
5802.76220,0.08556
5804.69066,0.06930
5806.61913,0.06290
5808.54760,0.04615
5810.47607,0.02789
5812.40454,0.05335
5814.33301,0.09650
5816.26148,0.09721
5818.18994,0.07473
5820.11841,0.07669
5822.04688,0.09410
5823.97535,0.08268
5825.90382,0.04106
5827.83229,0.02252
5829.76076,0.04385
5831.68923,0.06270
5833.61769,0.06263
5835.54616,0.06535
5837.47463,0.07559
5839.40310,0.07555
5841.33157,0.06977
5843.26004,0.07899
5845.18851,0.08865
5847.11697,0.09302
5849.04544,0.13693
5850.97391,0.18765
5852.90238,0.16193
5854.83085,0.10870
5856.75932,0.10007
5858.68779,0.10125
5860.61626,0.07484
5862.54472,0.05722
5864.47319,0.08584
5866.40166,0.12773
5868.33013,0.13061
5870.25860,0.11408
5872.18707,0.12108
5874.11554,0.12679
5876.04400,0.08079
5877.97247,0.00794
5879.90094,-0.02862
5881.82941,-0.02308
5883.75788,-0.01269
5885.68635,0.01015
5887.61482,0.07084
5889.54329,0.12904
5891.47175,0.15173
5893.40022,0.13325
5895.32869,0.09553
5897.25716,0.09661
5899.18563,0.11889
5901.11410,0.12092
5903.04257,0.11985
5904.97103,0.12714
5906.89950,0.13888
5908.82797,0.16031
5910.75644,0.18546
5912.68491,0.18192
5914.61338,0.14071
5916.54185,0.10758
5918.47032,0.13202
5920.39878,0.17761
5922.32725,0.16735
5924.25572,0.11231
5926.18419,0.06009
5928.11266,0.04715
5930.04113,0.08722
5931.96960,0.13635
5933.89806,0.13584
5935.82653,0.08195
5937.75500,0.03510
5939.68347,0.02305
5941.61194,0.03057
5943.54041,0.05670
5945.46888,0.08176
5947.39734,0.07796
5949.32581,0.07164
5951.25428,0.10227
5953.18275,0.14975
5955.11122,0.16762
5957.03969,0.15490
5958.96816,0.15574
5960.89663,0.16294
5962.82509,0.11995
5964.75356,0.07010
5966.68203,0.09015
5968.61050,0.14640
5970.53897,0.17279
5972.46744,0.16401
5974.39591,0.14122
5976.32437,0.11076
5978.25284,0.07938
5980.18131,0.05329
5982.10978,0.01624
5984.03825,-0.00241
5985.96672,0.02893
5987.89519,0.06213
5989.82366,0.06972
5991.75212,0.09251
5993.68059,0.14076
5995.60906,0.14572
5997.53753,0.10311
5999.46600,0.09848
6001.39447,0.13334
6003.32294,0.14872
6005.25140,0.12693
6007.17987,0.08649
6009.10834,0.05497
6011.03681,0.05870
6012.96528,0.08078
6014.89375,0.07650
6016.82222,0.03736
6018.75069,0.00634
6020.67915,0.01293
6022.60762,0.04249
6024.53609,0.07191
6026.46456,0.08575
6028.39303,0.09763
6030.32150,0.11195
6032.24997,0.10787
6034.17843,0.09333
6036.10690,0.11723
6038.03537,0.17024
6039.96384,0.15855
6041.89231,0.09301
6043.82078,0.06629
6045.74925,0.07695
6047.67772,0.07857
6049.60618,0.05502
6051.53465,0.02220
6053.46312,0.03041
6055.39159,0.07911
6057.32006,0.09638
6059.24853,0.08684
6061.17700,0.11565
6063.10546,0.15595
6065.03393,0.14285
6066.96240,0.10345
6068.89087,0.08314
6070.81934,0.08851
6072.74781,0.09763
6074.67628,0.06950
6076.60475,0.02986
6078.53321,0.04757
6080.46168,0.09503
6082.39015,0.10853
6084.31862,0.11995
6086.24709,0.15646
6088.17556,0.14641
6090.10403,0.08414
6092.03249,0.04855
6093.96096,0.05331
6095.88943,0.07462
6097.81790,0.08928
6099.74637,0.07144
6101.67484,0.04418
6103.60331,0.03872
6105.53177,0.04838
6107.46024,0.07628
6109.38871,0.09245
6111.31718,0.03761
6113.24565,-0.02540
6115.17412,-0.01635
6117.10259,0.03388
6119.03106,0.08496
6120.95952,0.12477
6122.88799,0.14243
6124.81646,0.14362
6126.74493,0.15260
6128.67340,0.16014
6130.60187,0.13062
6132.53034,0.08328
6134.45880,0.06962
6136.38727,0.09952
6138.31574,0.14213
6140.24421,0.18035
6142.17268,0.16862
6144.10115,0.08445
6146.02962,0.03081
6147.95809,0.03690
6149.88655,0.04215
6151.81502,0.05357
6153.74349,0.08417
6155.67196,0.10027
6157.60043,0.09883
6159.52890,0.09776
6161.45737,0.09091
6163.38583,0.06788
6165.31430,0.07740
6167.24277,0.12582
6169.17124,0.12727
6171.09971,0.07012
6173.02818,0.02370
6174.95665,0.01918
6176.88512,0.02861
6178.81358,0.01584
6180.74205,-0.01903
6182.67052,-0.05547
6184.59899,-0.06406
6186.52746,-0.03453
6188.45593,0.00823
6190.38440,0.05270
6192.31286,0.09918
6194.24133,0.12675
6196.16980,0.13061
6198.09827,0.11531
6200.02674,0.10292
6201.95521,0.12755
6203.88368,0.17500
6205.81215,0.19798
6207.74061,0.15712
6209.66908,0.08541
6211.59755,0.05825
6213.52602,0.07456
6215.45449,0.10979
6217.38296,0.12889
6219.31143,0.09378
6221.23989,0.02684
6223.16836,-0.00269
6225.09683,0.01595
6227.02530,0.04149
6228.95377,0.10115
6230.88224,0.18434
6232.81071,0.22643
6234.73918,0.20468
6236.66764,0.15634
6238.59611,0.12890
6240.52458,0.10199
6242.45305,0.04454
6244.38152,-0.00210
6246.30999,-0.00620
6248.23846,0.01756
6250.16692,0.05753
6252.09539,0.09674
6254.02386,0.12748
6255.95233,0.13468
6257.88080,0.10237
6259.80927,0.06461
6261.73774,0.06056
6263.66621,0.10454
6265.59467,0.15207
6267.52314,0.15122
6269.45161,0.12616
6271.38008,0.11921
6273.30855,0.15520
6275.23702,0.20233
6277.16549,0.21114
6279.09395,0.20240
6281.02242,0.20187
6282.95089,0.17758
6284.87936,0.11375
6286.80783,0.07074
6288.73630,0.07748
6290.66477,0.09990
6292.59323,0.10444
6294.52170,0.09612
6296.45017,0.08906
6298.37864,0.08143
6300.30711,0.07738
6302.23558,0.07593
6304.16405,0.08802
6306.09252,0.12846
6308.02098,0.17146
6309.94945,0.20194
6311.87792,0.18303
6313.80639,0.08971
6315.73486,0.00368
6317.66333,-0.01089
6319.59180,0.03294
6321.52026,0.09091
6323.44873,0.12714
6325.37720,0.13721
6327.30567,0.12092
6329.23414,0.09646
6331.16261,0.10499
6333.09108,0.16122
6335.01955,0.20274
6336.94801,0.16873
6338.87648,0.11481
6340.80495,0.09766
6342.73342,0.07571
6344.66189,0.01228
6346.59036,-0.02847
6348.51883,0.00798
6350.44729,0.02991
6352.37576,0.02005
6354.30423,0.05195
6356.23270,0.09222
6358.16117,0.12876
6360.08964,0.17132
6362.01811,0.18479
6363.94658,0.18086
6365.87504,0.19430
6367.80351,0.20140
6369.73198,0.14013
6371.66045,0.03595
6373.58892,0.00496
6375.51739,0.04485
6377.44586,0.05539
6379.37432,0.04294
6381.30279,0.06346
6383.23126,0.07949
6385.15973,0.02847
6387.08820,-0.01717
6389.01667,-0.00903
6390.94514,0.01655
6392.87361,0.04811
6394.80207,0.07317
6396.73054,0.07530
6398.65901,0.08483
6400.58748,0.11413
6402.51595,0.13230
6404.44442,0.11014
6406.37289,0.07701
6408.30135,0.06880
6410.22982,0.05711
6412.15829,0.03270
6414.08676,0.03473
6416.01523,0.06575
6417.94370,0.09269
6419.87217,0.11056
6421.80064,0.11809
6423.72910,0.11029
6425.65757,0.10278
6427.58604,0.08895
6429.51451,0.04890
6431.44298,-0.00382
6433.37145,0.00939
6435.29992,0.06974
6437.22838,0.06933
6439.15685,0.03304
6441.08532,0.02404
6443.01379,0.03702
6444.94226,0.05521
6446.87073,0.06529
6448.79920,0.10262
6450.72766,0.14183
6452.65613,0.10539
6454.58460,0.06668
6456.51307,0.10510
6458.44154,0.15495
6460.37001,0.17603
6462.29848,0.17187
6464.22695,0.14553
6466.15541,0.12680
6468.08388,0.09489
6470.01235,0.06151
6471.94082,0.08694
6473.86929,0.11622
6475.79776,0.08491
6477.72623,0.05185
6479.65469,0.06287
6481.58316,0.08356
6483.51163,0.09928
6485.44010,0.10827
6487.36857,0.10981
6489.29704,0.12532
6491.22551,0.17087
6493.15398,0.21058
6495.08244,0.18811
6497.01091,0.12523
6498.93938,0.09793
6500.86785,0.10558
6502.79632,0.07504
6504.72479,0.05509
6506.65326,0.10787
6508.58172,0.16817
6510.51019,0.16682
6512.43866,0.12721
6514.36713,0.12442
6516.29560,0.13026
6518.22407,0.08527
6520.15254,0.06621
6522.08101,0.10745
6524.00947,0.13364
6525.93794,0.14583
6527.86641,0.19300
6529.79488,0.21183
6531.72335,0.13799
6533.65182,0.04906
6535.58029,0.03561
6537.50875,0.07514
6539.43722,0.15035
6541.36569,0.22764
6543.29416,0.21940
6545.22263,0.14163
6547.15110,0.08797
6549.07957,0.07492
6551.00804,0.07536
6552.93650,0.07588
6554.86497,0.08352
6556.79344,0.10313
6558.72191,0.09859
6560.65038,0.03839
6562.57885,-0.02155
6564.50732,-0.03393
6566.43578,-0.02986
6568.36425,-0.00173
6570.29272,0.06803
6572.22119,0.12363
6574.14966,0.12370
6576.07813,0.06053
6578.00660,-0.02000
6579.93507,-0.05527
6581.86353,-0.06247
6583.79200,-0.02694
6585.72047,0.05188
6587.64894,0.07850
6589.57741,0.03570
6591.50588,0.02616
6593.43435,0.08326
6595.36281,0.11625
6597.29128,0.07651
6599.21975,0.00811
6601.14822,0.01236
6603.07669,0.08006
6605.00516,0.06032
6606.93363,-0.03039
6608.86210,-0.06932
6610.79056,-0.05343
6612.71903,-0.01769
6614.64750,0.03578
6616.57597,0.08434
6618.50444,0.11493
6620.43291,0.14110
6622.36138,0.18324
6624.28984,0.22141
6626.21831,0.18039
6628.14678,0.05749
6630.07525,0.01660
6632.00372,0.14627
6633.93219,0.26851
6635.86066,0.21298
6637.78912,0.05846
6639.71759,0.00745
6641.64606,0.06523
6643.57453,0.08628
6645.50300,0.01195
6647.43147,-0.01882
6649.35994,0.04475
6651.28841,0.08481
6653.21687,0.07078
6655.14534,0.05386
6657.07381,0.08387
6659.00228,0.14187
6660.93075,0.14609
6662.85922,0.12519
6664.78769,0.11228
6666.71615,0.07977
6668.64462,0.05229
6670.57309,0.02619
6672.50156,-0.04238
6674.43003,-0.06340
6676.35850,0.01315
6678.28697,0.08675
6680.21544,0.13630
6682.14390,0.18005
6684.07237,0.17283
6686.00084,0.11922
6687.92931,0.05720
6689.85778,-0.02487
6691.78625,-0.09098
6693.71472,-0.06259
6695.64318,0.02409
6697.57165,0.05095
6699.50012,0.01738
6701.42859,0.01551
6703.35706,0.03503
6705.28553,0.01278
6707.21400,0.00704
6709.14247,0.05263
6711.07093,0.06462
6712.99940,0.04608
6714.92787,0.04442
6716.85634,0.03321
6718.78481,-0.02583
6720.71328,-0.09169
6722.64175,-0.07775
6724.57021,0.00260
6726.49868,0.04457
6728.42715,0.03412
6730.35562,0.06223
6732.28409,0.18208
6734.21256,0.29251
6736.14103,0.24552
6738.06950,0.09705
6739.99796,-0.00159
6741.92643,-0.03930
6743.85490,-0.07456
6745.78337,-0.09992
6747.71184,-0.07605
6749.64031,-0.00155
6751.56878,0.04287
6753.49724,0.00473
6755.42571,-0.05486
6757.35418,-0.04545
6759.28265,0.05220
6761.21112,0.11918
6763.13959,0.10014
6765.06806,0.09940
6766.99653,0.11122
6768.92499,0.09244
6770.85346,0.08164
6772.78193,0.08917
6774.71040,0.11438
6776.63887,0.19642
6778.56734,0.24636
6780.49581,0.12051
6782.42427,-0.09594
6784.35274,-0.15565
6786.28121,-0.02453
6788.20968,0.12959
6790.13815,0.19506
6792.06662,0.14802
6793.99509,0.09370
6795.92355,0.09789
6797.85202,0.11177
6799.78049,0.13506
6801.70896,0.14598
6803.63743,0.10454
6805.56590,0.10317
6807.49437,0.14533
6809.42284,0.13321
6811.35130,0.09419
6813.27977,0.06837
6815.20824,0.07382
6817.13671,0.14162
6819.06518,0.14822
6820.99365,0.03073
6822.92212,-0.07326
6824.85058,-0.04008
6826.77905,0.05802
6828.70752,0.17263
6830.63599,0.24624
6832.56446,0.20980
6834.49293,0.09639
6836.42140,-0.00773
6838.34987,0.02124
6840.27833,0.11097
6842.20680,0.11001
6844.13527,0.10427
6846.06374,0.17750
6847.99221,0.21290
6849.92068,0.12653
6851.84915,0.01760
6853.77761,-0.03362
6855.70608,-0.04008
6857.63455,-0.02647
6859.56302,0.00637
6861.49149,-0.01554
6863.41996,-0.11800
6865.34843,-0.17419
6867.27690,-0.13337
6869.20536,-0.05950
6871.13383,-0.01028
6873.06230,0.00744
6874.99077,0.03843
6876.91924,0.11459
6878.84771,0.17729
6880.77618,0.13305
6882.70464,0.04186
6884.63311,0.00768
6886.56158,0.00768
6888.49005,0.00831
6890.41852,0.06241
6892.34699,0.12509
6894.27546,0.10982
6896.20393,0.10380
6898.13239,0.15976
6900.06086,0.19617
6901.98933,0.16284
6903.91780,0.08197
6905.84627,0.02253
6907.77474,0.00891
6909.70321,0.02004
6911.63167,0.08628
6913.56014,0.19006
6915.48861,0.21314
6917.41708,0.17703
6919.34555,0.15613
6921.27402,0.10213
6923.20249,0.06407
6925.13096,0.09223
6927.05942,0.11387
6928.98789,0.11881
6930.91636,0.11548
6932.84483,0.06685
6934.77330,-0.00146
6936.70177,-0.03698
6938.63024,-0.00903
6940.55870,0.02928
6942.48717,0.03611
6944.41564,0.09524
6946.34411,0.16231
6948.27258,0.12506
6950.20105,0.05082
6952.12952,0.03592
6954.05799,0.09931
6955.98645,0.18426
6957.91492,0.18295
6959.84339,0.11516
6961.77186,0.08747
6963.70033,0.09125
6965.62880,0.03067
6967.55727,-0.02694
6969.48573,-0.01263
6971.41420,-0.03305
6973.34267,-0.05745
6975.27114,-0.04225
6977.19961,0.00192
6979.12808,0.10159
6981.05655,0.17224
6982.98501,0.23888
6984.91348,0.35323
6986.84195,0.39488
6988.77042,0.34577
6990.69889,0.28594
6992.62736,0.26840
6994.55583,0.28334
6996.48430,0.26621
6998.41276,0.20201
7000.34123,0.13725
7002.26970,0.10807
7004.19817,0.14498
7006.12664,0.21671
7008.05511,0.18722
7009.98358,0.04709
7011.91204,-0.08022
7013.84051,-0.12907
7015.76898,-0.08141
7017.69745,-0.01468
7019.62592,0.01573
7021.55439,0.00835
7023.48286,-0.03427
7025.41133,-0.02294
7027.33979,-0.03251
7029.26826,-0.20659
7031.19673,-0.28669
7033.12520,-0.22088
7035.05367,-0.16223
7036.98214,-0.01633
7038.91061,0.16161
7040.83907,0.22273
7042.76754,0.19442
7044.69601,0.13975
7046.62448,0.08709
7048.55295,0.02092
7050.48142,-0.10335
7052.40989,-0.22652
7054.33836,-0.23134
7056.26682,-0.13711
7058.19529,-0.05980
7060.12376,-0.03384
7062.05223,-0.03371
7063.98070,0.02860
7065.90917,0.17453
7067.83764,0.29135
7069.76610,0.33213
7071.69457,0.31128
7073.62304,0.25430
7075.55151,0.20966
7077.47998,0.21076
7079.40845,0.17716
7081.33692,0.03295
7083.26539,-0.04268
7085.19385,0.02700
7087.12232,0.13673
7089.05079,0.16951
7090.97926,0.09480
7092.90773,0.06250
7094.83620,0.12599
7096.76467,0.15465
7098.69313,0.11922
7100.62160,0.05335
7102.55007,-0.01780
7104.47854,-0.06011
7106.40701,-0.03075
7108.33548,0.07203
7110.26395,0.09379
7112.19242,0.02921
7114.12088,0.11085
7116.04935,0.34515
7117.97782,0.42208
7119.90629,0.27755
7121.83476,0.17762
7123.76323,0.16540
7125.69170,0.21992
7127.62016,0.31596
7129.54863,0.35433
7131.47710,0.27098
7133.40557,0.10967
7135.33404,-0.03177
7137.26251,-0.06689
7139.19098,0.03111
7141.11944,0.12405
7143.04791,0.05890
7144.97638,-0.10760
7146.90485,-0.17183
7148.83332,-0.12947
7150.76179,-0.05093
7152.69026,0.07802
7154.61873,0.13358
7156.54719,0.12267
7158.47566,0.15705
7160.40413,0.15135
7162.33260,0.04915
7164.26107,-0.07273
7166.18954,-0.06070
7168.11801,0.11550
7170.04647,0.16456
7171.97494,-0.04235
7173.90341,-0.18525
7175.83188,-0.12002
7177.76035,-0.01093
7179.68882,0.00610
7181.61729,0.02215
7183.54576,0.10413
7185.47422,0.11905
7187.40269,0.15960
7189.33116,0.33641
7191.25963,0.37222
7193.18810,0.15126
7195.11657,0.02980
7197.04504,0.07881
7198.97350,0.12470
7200.90197,0.14395
7202.83044,0.21646
7204.75891,0.33038
7206.68738,0.32403
7208.61585,0.24318
7210.54432,0.15682
7212.47279,0.02206
7214.40125,-0.07825
7216.32972,-0.00855
7218.25819,0.11810
7220.18666,0.07875
7222.11513,0.01141
7224.04360,0.02413
7225.97207,0.06890
7227.90053,0.07152
7229.82900,0.00323
7231.75747,-0.00942
7233.68594,0.15823
7235.61441,0.34411
7237.54288,0.32145
7239.47135,0.12943
7241.39982,0.01365
7243.32828,0.07398
7245.25675,0.17056
7247.18522,0.15213
7249.11369,0.05121
7251.04216,-0.05920
7252.97063,-0.02375
7254.89910,0.17499
7256.82756,0.25522
7258.75603,0.11903
7260.68450,-0.11319
7262.61297,-0.12627
7264.54144,-0.02851
7266.46991,-0.04234
7268.39838,-0.05075
7270.32685,-0.02827
7272.25531,-0.02813
7274.18378,-0.01998
7276.11225,-0.01461
7278.04072,-0.00145
7279.96919,0.06681
7281.89766,0.06665
7283.82613,-0.08562
7285.75459,-0.17521
7287.68306,-0.04662
7289.61153,0.14273
7291.54000,0.17281
7293.46847,0.06546
7295.39694,-0.03414
7297.32541,-0.03460
7299.25387,0.01343
7301.18234,0.03085
7303.11081,0.06440
7305.03928,0.13129
7306.96775,0.13662
7308.89622,0.05573
7310.82469,-0.01494
7312.75316,-0.02630
7314.68162,-0.04100
7316.61009,-0.09330
7318.53856,0.01482
7320.46703,0.33589
7322.39550,0.51765
7324.32397,0.41301
7326.25244,0.34868
7328.18090,0.36948
7330.10937,0.30458
7332.03784,0.23911
7333.96631,0.18761
7335.89478,0.12283
7337.82325,0.09333
7339.75172,0.05508
7341.68019,0.02805
7343.60865,0.11032
7345.53712,0.21497
7347.46559,0.31424
7349.39406,0.37941
7351.32253,0.35720
7353.25100,0.25905
7355.17947,0.11809
7357.10793,0.01856
7359.03640,-0.01239
7360.96487,0.05759
7362.89334,0.27024
7364.82181,0.38745
7366.75028,0.22985
7368.67875,-0.01147
7370.60722,-0.02797
7372.53568,0.18883
7374.46415,0.45441
7376.39262,0.47954
7378.32109,0.36683
7380.24956,0.31005
7382.17803,0.26329
7384.10650,0.15816
7386.03496,0.03178
7387.96343,-0.03136
7389.89190,-0.04077
7391.82037,0.02768
7393.74884,0.16726
7395.67731,0.20279
7397.60578,0.05789
7399.53425,-0.05999
7401.46271,-0.00157
7403.39118,0.09090
7405.31965,0.04132
7407.24812,-0.01755
7409.17659,-0.03072
7411.10506,-0.07585
7413.03353,-0.08960
7414.96199,-0.02014
7416.89046,0.06819
7418.81893,0.06982
7420.74740,0.07955
7422.67587,0.13375
7424.60434,0.11916
7426.53281,0.12816
7428.46128,0.20154
7430.38974,0.21940
7432.31821,0.10661
7434.24668,-0.05768
7436.17515,-0.14110
7438.10362,-0.08307
7440.03209,0.05556
7441.96056,0.14831
7443.88902,0.16663
7445.81749,0.18284
7447.74596,0.19407
7449.67443,0.20434
7451.60290,0.22825
7453.53137,0.17631
7455.45984,0.05996
7457.38831,-0.02933
7459.31677,-0.03068
7461.24524,0.09403
7463.17371,0.14523
7465.10218,-0.05163
7467.03065,-0.23427
7468.95912,-0.10842
7470.88759,0.18392
7472.81605,0.26188
7474.74452,0.12156
7476.67299,0.07450
7478.60146,0.17249
7480.52993,0.19349
7482.45840,0.19247
7484.38687,0.40730
7486.31533,0.58930
7488.24380,0.48309
7490.17227,0.24108
7492.10074,0.05361
7494.02921,0.02395
7495.95768,0.06813
7497.88615,0.02928
