399.19301,-0.40971
401.12148,-0.63148
403.04995,-0.31905
404.97842,0.03402
406.90689,0.28420
408.83536,0.36300
410.76382,0.17623
412.69229,-0.10189
414.62076,-0.16327
416.54923,-0.00029
418.47770,0.24437
420.40617,0.30942
422.33464,0.25860
424.26311,0.20673
426.19157,0.10957
428.12004,0.03957
430.04851,0.04463
431.97698,0.13701
433.90545,0.22197
435.83392,0.16343
437.76239,0.05613
439.69085,0.04429
441.61932,0.10373
443.54779,0.16208
445.47626,0.19803
447.40473,0.16344
449.33320,0.10331
451.26167,0.09818
453.19013,0.14557
455.11860,0.19449
457.04707,0.17220
458.97554,0.10804
460.90401,0.08771
462.83248,0.05494
464.76095,-0.02115
466.68942,-0.04232
468.61788,0.00668
470.54635,0.04015
472.47482,0.01332
474.40329,0.01895
476.33176,0.07271
478.26023,0.07189
480.18870,0.05276
482.11716,0.03354
484.04563,0.02336
485.97410,0.05752
487.90257,0.12322
489.83104,0.14582
491.75951,0.12250
493.68798,0.11110
495.61645,0.10499
497.54491,0.09681
499.47338,0.09617
501.40185,0.10203
503.33032,0.12947
505.25879,0.16060
507.18726,0.14844
509.11573,0.11963
511.04419,0.12194
512.97266,0.14242
514.90113,0.15320
516.82960,0.13981
518.75807,0.12297
520.68654,0.12251
522.61501,0.12538
524.54348,0.12647
526.47194,0.13049
528.40041,0.11590
530.32888,0.09232
532.25735,0.08704
534.18582,0.09623
536.11429,0.10519
538.04276,0.10678
539.97122,0.11373
541.89969,0.12330
543.82816,0.12682
545.75663,0.14287
547.68510,0.17355
549.61357,0.33631
551.54204,0.96367
553.47051,1.62711
555.39897,1.36069
557.32744,0.53034
559.25591,0.12842
561.18438,0.11724
563.11285,0.16399
565.04132,0.16795
566.96979,0.12919
568.89825,0.10388
570.82672,0.10355
572.75519,0.10898
574.68366,0.11567
576.61213,0.12768
578.54060,0.13961
580.46907,0.15068
582.39754,0.15219
584.32600,0.14773
586.25447,0.14457
588.18294,0.13029
590.11141,0.11907
592.03988,0.12656
593.96835,0.12343
595.89682,0.11033
597.82528,0.10853
599.75375,0.11310
601.68222,0.12270
603.61069,0.13262
605.53916,0.13923
607.46763,0.13375
609.39610,0.11131
611.32456,0.09035
613.25303,0.08938
615.18150,0.10972
617.10997,0.14176
619.03844,0.16301
620.96691,0.15067
622.89538,0.13079
624.82385,0.13028
626.75231,0.13113
628.68078,0.11679
630.60925,0.10488
632.53772,0.11494
634.46619,0.12705
636.39466,0.12527
638.32313,0.12372
640.25159,0.12868
642.18006,0.13055
644.10853,0.13382
646.03700,0.15073
647.96547,0.16600
649.89394,0.16463
651.82241,0.16175
653.75088,0.16510
655.67934,0.15897
657.60781,0.14446
659.53628,0.14498
661.46475,0.15204
663.39322,0.13904
665.32169,0.12239
667.25016,0.12121
669.17862,0.10556
671.10709,0.09218
673.03556,0.11743
674.96403,0.15822
676.89250,0.17703
678.82097,0.16274
680.74944,0.13779
682.67791,0.12973
684.60637,0.13111
686.53484,0.12424
688.46331,0.11993
690.39178,0.12080
692.32025,0.11466
694.24872,0.11088
696.17719,0.11524
698.10565,0.11922
700.03412,0.12919
701.96259,0.14285
703.89106,0.14259
705.81953,0.13785
707.74800,0.14483
709.67647,0.15767
711.60494,0.17004
713.53340,0.16944
715.46187,0.14825
717.39034,0.13140
719.31881,0.13540
721.24728,0.14250
723.17575,0.14124
725.10422,0.14192
727.03268,0.14951
728.96115,0.15758
730.88962,0.16031
732.81809,0.15377
734.74656,0.13935
736.67503,0.13190
738.60350,0.13741
740.53197,0.14541
742.46043,0.15130
744.38890,0.15071
746.31737,0.14006
748.24584,0.13005
750.17431,0.12522
752.10278,0.12361
754.03125,0.13252
755.95971,0.14761
757.88818,0.15379
759.81665,0.14897
761.74512,0.13976
763.67359,0.13221
765.60206,0.12670
767.53053,0.12651
769.45900,0.13773
771.38746,0.14989
773.31593,0.14673
775.24440,0.13371
777.17287,0.13055
779.10134,0.14133
781.02981,0.15056
782.95828,0.14824
784.88674,0.14522
786.81521,0.14677
788.74368,0.14120
790.67215,0.13528
792.60062,0.14191
794.52909,0.15152
796.45756,0.15413
798.38602,0.14892
800.31449,0.14044
802.24296,0.14169
804.17143,0.14552
806.09990,0.13536
808.02837,0.12232
809.95684,0.12574
811.88531,0.14045
813.81377,0.14168
815.74224,0.12646
817.67071,0.12155
819.59918,0.13413
821.52765,0.14637
823.45612,0.15169
825.38459,0.15338
827.31305,0.14606
829.24152,0.13081
831.16999,0.12122
833.09846,0.12709
835.02693,0.14498
836.95540,0.15494
838.88387,0.15143
840.81234,0.14610
842.74080,0.14133
844.66927,0.14182
846.59774,0.14718
848.52621,0.15423
850.45468,0.16210
852.38315,0.15452
854.31162,0.13668
856.24008,0.13530
858.16855,0.14260
860.09702,0.14329
862.02549,0.14943
863.95396,0.16121
865.88243,0.16653
867.81090,0.17141
869.73937,0.17614
871.66783,0.16805
873.59630,0.15467
875.52477,0.15127
877.45324,0.15055
879.38171,0.14412
881.31018,0.13505
883.23865,0.12790
885.16711,0.12734
887.09558,0.12771
889.02405,0.12346
890.95252,0.12361
892.88099,0.13363
894.80946,0.14636
896.73793,0.15121
898.66640,0.14590
900.59486,0.14072
902.52333,0.14188
904.45180,0.14570
906.38027,0.15147
908.30874,0.15561
910.23721,0.15506
912.16568,0.15192
914.09414,0.14414
916.02261,0.13740
917.95108,0.13885
919.87955,0.14432
921.80802,0.15322
923.73649,0.16221
925.66496,0.16291
927.59343,0.15930
929.52189,0.15685
931.45036,0.14892
933.37883,0.13523
935.30730,0.12968
937.23577,0.13643
939.16424,0.14351
941.09271,0.14378
943.02117,0.14222
944.94964,0.14109
946.87811,0.13617
948.80658,0.12950
950.73505,0.12917
952.66352,0.13942
954.59199,0.15433
956.52045,0.16215
958.44892,0.15606
960.37739,0.14344
962.30586,0.13950
964.23433,0.14451
966.16280,0.15070
968.09127,0.15559
970.01974,0.15342
971.94820,0.14535
973.87667,0.14183
975.80514,0.14324
977.73361,0.14670
979.66208,0.15468
981.59055,0.16094
983.51902,0.15701
985.44748,0.14944
987.37595,0.14459
989.30442,0.14091
991.23289,0.14022
993.16136,0.14235
995.08983,0.14476
997.01830,0.14945
998.94677,0.15807
1000.87523,0.16636
1002.80370,0.16850
1004.73217,0.16487
1006.66064,0.16443
1008.58911,0.17326
1010.51758,0.18064
1012.44605,0.17454
1014.37451,0.16013
1016.30298,0.14804
1018.23145,0.14254
1020.15992,0.14611
1022.08839,0.15730
1024.01686,0.16184
1025.94533,0.14776
1027.87380,0.12582
1029.80226,0.12208
1031.73073,0.14002
1033.65920,0.15445
1035.58767,0.15545
1037.51614,0.15374
1039.44461,0.15129
1041.37308,0.14762
1043.30154,0.15109
1045.23001,0.15899
1047.15848,0.16509
1049.08695,0.16962
1051.01542,0.16851
1052.94389,0.16771
1054.87236,0.17178
1056.80083,0.17125
1058.72929,0.16757
1060.65776,0.16823
1062.58623,0.17050
1064.51470,0.16941
1066.44317,0.16628
1068.37164,0.16606
1070.30011,0.17007
1072.22857,0.17103
1074.15704,0.16358
1076.08551,0.15716
1078.01398,0.15837
1079.94245,0.15608
1081.87092,0.14432
1083.79939,0.13791
1085.72786,0.14517
1087.65632,0.15504
1089.58479,0.16013
1091.51326,0.16317
1093.44173,0.16700
1095.37020,0.16806
1097.29867,0.16874
1099.22714,0.17527
1101.15560,0.17809
1103.08407,0.17336
1105.01254,0.17047
1106.94101,0.16832
1108.86948,0.16521
1110.79795,0.16588
1112.72642,0.16720
1114.65489,0.16721
1116.58335,0.16870
1118.51182,0.16690
1120.44029,0.16097
1122.36876,0.15720
1124.29723,0.15500
1126.22570,0.15376
1128.15417,0.15848
1130.08263,0.16395
1132.01110,0.16009
1133.93957,0.15356
1135.86804,0.15266
1137.79651,0.15129
1139.72498,0.14860
1141.65345,0.15182
1143.58191,0.15892
1145.51038,0.16454
1147.43885,0.16782
1149.36732,0.16758
1151.29579,0.16523
1153.22426,0.16496
1155.15273,0.16689
1157.08120,0.16765
1159.00966,0.16614
1160.93813,0.16281
1162.86660,0.15839
1164.79507,0.15606
1166.72354,0.15428
1168.65201,0.15318
1170.58048,0.15902
1172.50894,0.16749
1174.43741,0.17092
1176.36588,0.16917
1178.29435,0.16480
1180.22282,0.16096
1182.15129,0.15828
1184.07976,0.16057
1186.00823,0.16895
1187.93669,0.17257
1189.86516,0.16838
1191.79363,0.16615
1193.72210,0.16782
1195.65057,0.16678
1197.57904,0.16181
1199.50751,0.15949
1201.43597,0.16494
1203.36444,0.17381
1205.29291,0.17735
1207.22138,0.17163
1209.14985,0.16062
1211.07832,0.15356
1213.00679,0.15680
1214.93526,0.16465
1216.86372,0.16668
1218.79219,0.16511
1220.72066,0.16698
1222.64913,0.16961
1224.57760,0.16859
1226.50607,0.16548
1228.43454,0.16438
1230.36300,0.16708
1232.29147,0.16905
1234.21994,0.16459
1236.14841,0.15914
1238.07688,0.16024
1240.00535,0.16316
1241.93382,0.16310
1243.86229,0.16316
1245.79075,0.16193
1247.71922,0.15719
1249.64769,0.15645
1251.57616,0.16287
1253.50463,0.16677
1255.43310,0.16530
1257.36157,0.16628
1259.29003,0.16767
1261.21850,0.16426
1263.14697,0.16300
1265.07544,0.16683
1267.00391,0.16813
1268.93238,0.16560
1270.86085,0.16565
1272.78932,0.16918
1274.71778,0.17105
1276.64625,0.16989
1278.57472,0.16878
1280.50319,0.16762
1282.43166,0.16722
1284.36013,0.17119
1286.28860,0.17434
1288.21706,0.17145
1290.14553,0.16718
1292.07400,0.16467
1294.00247,0.16336
1295.93094,0.16234
1297.85941,0.16045
1299.78788,0.15595
1301.71634,0.14638
1303.64481,0.13526
1305.57328,0.13631
1307.50175,0.15364
1309.43022,0.16891
1311.35869,0.17283
1313.28716,0.17405
1315.21563,0.17534
1317.14409,0.17498
1319.07256,0.17174
1321.00103,0.16823
1322.92950,0.16897
1324.85797,0.16884
1326.78644,0.16536
1328.71491,0.16413
1330.64337,0.16362
1332.57184,0.16066
1334.50031,0.15836
1336.42878,0.16109
1338.35725,0.16788
1340.28572,0.16618
1342.21419,0.15800
1344.14266,0.15650
1346.07112,0.15771
1347.99959,0.15881
1349.92806,0.16282
1351.85653,0.16705
1353.78500,0.16941
1355.71347,0.16933
1357.64194,0.16606
1359.57040,0.16538
1361.49887,0.17273
1363.42734,0.17687
1365.35581,0.17103
1367.28428,0.16692
1369.21275,0.16878
1371.14122,0.17373
1373.06969,0.18078
1374.99815,0.18493
1376.92662,0.18161
1378.85509,0.17748
1380.78356,0.17747
1382.71203,0.18132
1384.64050,0.18696
1386.56897,0.18935
1388.49743,0.18501
1390.42590,0.18193
1392.35437,0.18765
1394.28284,0.19823
1396.21131,0.20063
1398.13978,0.19350
1400.06825,0.18581
1401.99672,0.18117
1403.92518,0.18076
1405.85365,0.18179
1407.78212,0.18029
1409.71059,0.18145
1411.63906,0.18599
1413.56753,0.18756
1415.49600,0.19006
1417.42446,0.19789
1419.35293,0.19987
1421.28140,0.19370
1423.20987,0.18759
1425.13834,0.18035
1427.06681,0.17853
1428.99528,0.18435
1430.92375,0.18785
1432.85221,0.18699
1434.78068,0.18984
1436.70915,0.19476
1438.63762,0.19132
1440.56609,0.18423
1442.49456,0.18037
1444.42303,0.18017
1446.35149,0.18363
1448.27996,0.19079
1450.20843,0.19556
1452.13690,0.19648
1454.06537,0.20138
1455.99384,0.21689
1457.92231,0.22231
1459.85077,0.20250
1461.77924,0.19137
1463.70771,0.19462
1465.63618,0.19733
1467.56465,0.19201
1469.49312,0.19216
1471.42159,0.20117
1473.35006,0.20625
1475.27852,0.20111
1477.20699,0.19472
1479.13546,0.19120
1481.06393,0.19033
1482.99240,0.18795
1484.92087,0.18740
1486.84934,0.19532
1488.77780,0.20568
1490.70627,0.20423
1492.63474,0.19812
1494.56321,0.19976
1496.49168,0.20838
1498.42015,0.21112
1500.34862,0.20841
1502.27709,0.21219
1504.20555,0.22714
1506.13402,0.25144
1508.06249,0.24024
1509.99096,0.20907
1511.91943,0.19952
1513.84790,0.20722
1515.77637,0.21820
1517.70483,0.22208
1519.63330,0.22767
1521.56177,0.23409
1523.49024,0.22912
1525.41871,0.22354
1527.34718,0.21618
1529.27565,0.20746
1531.20412,0.20624
1533.13258,0.20825
1535.06105,0.20479
1536.98952,0.20655
1538.91799,0.22437
1540.84646,0.24052
1542.77493,0.22634
1544.70340,0.20875
1546.63186,0.19898
1548.56033,0.19616
1550.48880,0.19607
1552.41727,0.19948
1554.34574,0.20713
1556.27421,0.21718
1558.20268,0.23348
1560.13115,0.22424
1562.05961,0.20213
1563.98808,0.19552
1565.91655,0.19861
1567.84502,0.20371
1569.77349,0.20381
1571.70196,0.19864
1573.63043,0.19922
1575.55889,0.20536
1577.48736,0.20436
1579.41583,0.19700
1581.34430,0.19042
1583.27277,0.18614
1585.20124,0.18446
1587.12971,0.18235
1589.05818,0.17843
1590.98664,0.17477
1592.91511,0.17536
1594.84358,0.18018
1596.77205,0.18244
1598.70052,0.18131
1600.62899,0.18196
1602.55746,0.18655
1604.48592,0.19025
1606.41439,0.18678
1608.34286,0.18219
1610.27133,0.18311
1612.19980,0.18579
1614.12827,0.18979
1616.05674,0.19489
1617.98521,0.19438
1619.91367,0.19479
1621.84214,0.20102
1623.77061,0.20415
1625.69908,0.20270
1627.62755,0.20452
1629.55602,0.20601
1631.48449,0.20531
1633.41295,0.20892
1635.34142,0.22031
1637.26989,0.22143
1639.19836,0.20989
1641.12683,0.20027
1643.05530,0.19776
1644.98377,0.20667
1646.91223,0.22113
1648.84070,0.22021
1650.76917,0.21811
1652.69764,0.22705
1654.62611,0.22147
1656.55458,0.20662
1658.48305,0.20067
1660.41152,0.20519
1662.33998,0.21129
1664.26845,0.20487
1666.19692,0.20133
1668.12539,0.21337
1670.05386,0.22498
1671.98233,0.21811
1673.91080,0.20882
1675.83926,0.20516
1677.76773,0.20717
1679.69620,0.21409
1681.62467,0.22631
1683.55314,0.24149
1685.48161,0.23307
1687.41008,0.21293
1689.33855,0.20288
1691.26701,0.20013
1693.19548,0.20332
1695.12395,0.21414
1697.05242,0.22741
1698.98089,0.23295
1700.90936,0.22493
1702.83783,0.21408
1704.76629,0.21321
1706.69476,0.21387
1708.62323,0.20518
1710.55170,0.19657
1712.48017,0.19876
1714.40864,0.21004
1716.33711,0.22006
1718.26558,0.21575
1720.19404,0.20342
1722.12251,0.19455
1724.05098,0.19101
1725.97945,0.19226
1727.90792,0.19543
1729.83639,0.19909
1731.76486,0.20549
1733.69332,0.21044
1735.62179,0.20326
1737.55026,0.19903
1739.47873,0.20304
1741.40720,0.20432
1743.33567,0.19979
1745.26414,0.19844
1747.19261,0.20551
1749.12107,0.21380
1751.04954,0.20938
1752.97801,0.19832
1754.90648,0.19287
1756.83495,0.19271
1758.76342,0.19523
1760.69189,0.19929
1762.62035,0.19881
1764.54882,0.19308
1766.47729,0.19098
1768.40576,0.19492
1770.33423,0.20160
1772.26270,0.20496
1774.19117,0.20196
1776.11964,0.19784
1778.04810,0.19527
1779.97657,0.19411
1781.90504,0.19354
1783.83351,0.19517
1785.76198,0.19797
1787.69045,0.19817
1789.61892,0.19783
1791.54738,0.19890
1793.47585,0.19763
1795.40432,0.19514
1797.33279,0.19625
1799.26126,0.20011
1801.18973,0.20025
1803.11820,0.19412
1805.04666,0.18923
1806.97513,0.18993
1808.90360,0.19324
1810.83207,0.19361
1812.76054,0.18885
1814.68901,0.18526
1816.61748,0.18730
1818.54595,0.19159
1820.47441,0.19299
1822.40288,0.19131
1824.33135,0.19140
1826.25982,0.19641
1828.18829,0.20295
1830.11676,0.20388
1832.04523,0.19760
1833.97369,0.19235
1835.90216,0.19105
1837.83063,0.19076
1839.75910,0.19018
1841.68757,0.19414
1843.61604,0.20231
1845.54451,0.20181
1847.47298,0.19428
1849.40144,0.19032
1851.32991,0.18936
1853.25838,0.18862
1855.18685,0.18770
1857.11532,0.18794
1859.04379,0.19071
1860.97226,0.19248
1862.90072,0.19105
1864.82919,0.19192
1866.75766,0.19712
1868.68613,0.19948
1870.61460,0.19418
1872.54307,0.18695
1874.47154,0.18236
1876.40001,0.18203
1878.32847,0.18443
1880.25694,0.18541
1882.18541,0.18544
1884.11388,0.18720
1886.04235,0.18996
1887.97082,0.19387
1889.89929,0.19609
1891.82775,0.19278
1893.75622,0.18821
1895.68469,0.18501
1897.61316,0.18282
1899.54163,0.18342
1901.47010,0.18699
1903.39857,0.18976
1905.32704,0.19053
1907.25550,0.19164
1909.18397,0.19065
1911.11244,0.18706
1913.04091,0.18722
1914.96938,0.19055
1916.89785,0.19143
1918.82632,0.19012
1920.75478,0.19003
1922.68325,0.18967
1924.61172,0.18774
1926.54019,0.18725
1928.46866,0.18862
1930.39713,0.18979
1932.32560,0.19017
1934.25407,0.19009
1936.18253,0.19010
1938.11100,0.19184
1940.03947,0.19690
1941.96794,0.20122
1943.89641,0.19931
1945.82488,0.19348
1947.75335,0.18802
1949.68181,0.18547
1951.61028,0.18496
1953.53875,0.18516
1955.46722,0.18800
1957.39569,0.19208
1959.32416,0.19431
1961.25263,0.19428
1963.18110,0.19213
1965.10956,0.18991
1967.03803,0.18915
1968.96650,0.18930
1970.89497,0.19107
1972.82344,0.19367
1974.75191,0.19429
1976.68038,0.19295
1978.60884,0.19181
1980.53731,0.19085
1982.46578,0.18961
1984.39425,0.18967
1986.32272,0.19174
1988.25119,0.19389
1990.17966,0.19354
1992.10812,0.19082
1994.03659,0.18818
1995.96506,0.18656
1997.89353,0.18489
1999.82200,0.18362
2001.75047,0.18481
2003.67894,0.18737
2005.60741,0.18789
2007.53587,0.18624
2009.46434,0.18624
2011.39281,0.18848
2013.32128,0.18894
2015.24975,0.18849
2017.17822,0.18923
2019.10669,0.18782
2021.03515,0.18575
2022.96362,0.18604
2024.89209,0.18503
2026.82056,0.18270
2028.74903,0.18231
2030.67750,0.18276
2032.60597,0.18404
2034.53444,0.18706
2036.46290,0.19023
2038.39137,0.19188
2040.31984,0.19190
2042.24831,0.19110
2044.17678,0.18892
2046.10525,0.18623
2048.03372,0.18753
2049.96218,0.19221
2051.89065,0.19388
2053.81912,0.19116
2055.74759,0.18829
2057.67606,0.18786
2059.60453,0.18996
2061.53300,0.19365
2063.46147,0.19510
2065.38993,0.19252
2067.31840,0.19015
2069.24687,0.19054
2071.17534,0.19156
2073.10381,0.19009
2075.03228,0.18722
2076.96075,0.18725
2078.88921,0.18970
2080.81768,0.19224
2082.74615,0.19421
2084.67462,0.19422
2086.60309,0.19304
2088.53156,0.19279
2090.46003,0.19230
2092.38850,0.19029
2094.31696,0.18729
2096.24543,0.18527
2098.17390,0.18668
2100.10237,0.18907
2102.03084,0.19026
2103.95931,0.19170
2105.88778,0.19199
2107.81624,0.19055
2109.74471,0.18965
2111.67318,0.19010
2113.60165,0.19072
2115.53012,0.19051
2117.45859,0.19084
2119.38706,0.19149
2121.31553,0.19019
2123.24399,0.18830
2125.17246,0.18771
2127.10093,0.18748
2129.02940,0.18696
2130.95787,0.18786
2132.88634,0.19099
2134.81481,0.18992
2136.74327,0.18406
2138.67174,0.18482
2140.60021,0.19016
2142.52868,0.19095
2144.45715,0.19117
2146.38562,0.19280
2148.31409,0.19211
2150.24255,0.19028
2152.17102,0.18957
2154.09949,0.18951
2156.02796,0.19051
2157.95643,0.19374
2159.88490,0.19626
2161.81337,0.19490
2163.74184,0.19159
2165.67030,0.18993
2167.59877,0.19078
2169.52724,0.19088
2171.45571,0.18906
2173.38418,0.18849
2175.31265,0.18881
2177.24112,0.18815
2179.16958,0.18829
2181.09805,0.18933
2183.02652,0.18922
2184.95499,0.19008
2186.88346,0.19278
2188.81193,0.19412
2190.74040,0.19389
2192.66887,0.19250
2194.59733,0.19016
2196.52580,0.18865
2198.45427,0.18763
2200.38274,0.18709
2202.31121,0.18860
2204.23968,0.18972
2206.16815,0.18754
2208.09661,0.18643
2210.02508,0.18904
2211.95355,0.19156
2213.88202,0.19251
2215.81049,0.19233
2217.73896,0.19193
2219.66743,0.19281
2221.59590,0.19373
2223.52436,0.19394
2225.45283,0.19420
2227.38130,0.19406
2229.30977,0.19379
2231.23824,0.19299
2233.16671,0.19030
2235.09518,0.18824
2237.02364,0.18995
2238.95211,0.19345
2240.88058,0.19479
2242.80905,0.19436
2244.73752,0.19423
2246.66599,0.19192
2248.59446,0.18732
2250.52293,0.18510
2252.45139,0.18544
2254.37986,0.18683
2256.30833,0.18995
2258.23680,0.19278
2260.16527,0.19295
2262.09374,0.19162
2264.02221,0.19158
2265.95067,0.19344
2267.87914,0.19376
2269.80761,0.19209
2271.73608,0.19167
2273.66455,0.19079
2275.59302,0.18897
2277.52149,0.19118
2279.44996,0.19578
2281.37842,0.19626
2283.30689,0.19345
2285.23536,0.19255
2287.16383,0.19482
2289.09230,0.19724
2291.02077,0.19774
2292.94924,0.19778
2294.87770,0.19936
2296.80617,0.20175
2298.73464,0.20192
2300.66311,0.19855
2302.59158,0.19444
2304.52005,0.19132
2306.44852,0.18871
2308.37699,0.18903
2310.30545,0.19252
2312.23392,0.19464
2314.16239,0.19453
2316.09086,0.19505
2318.01933,0.19842
2319.94780,0.20194
2321.87627,0.19992
2323.80473,0.19598
2325.73320,0.19735
2327.66167,0.20356
2329.59014,0.20856
2331.51861,0.20676
2333.44708,0.20076
2335.37555,0.19428
2337.30401,0.18953
2339.23248,0.19278
2341.16095,0.20622
2343.08942,0.21983
2345.01789,0.22169
2346.94636,0.21736
2348.87483,0.21409
2350.80330,0.21169
2352.73176,0.21712
2354.66023,0.23839
2356.58870,0.25742
2358.51717,0.25146
2360.44564,0.22680
2362.37411,0.20623
2364.30258,0.20366
2366.23104,0.21330
2368.15951,0.22017
2370.08798,0.21536
2372.01645,0.20501
2373.94492,0.19919
2375.87339,0.19842
2377.80186,0.19701
2379.73033,0.19257
2381.65879,0.18839
2383.58726,0.18749
2385.51573,0.18950
2387.44420,0.19243
2389.37267,0.19344
2391.30114,0.19128
2393.22961,0.18917
2395.15807,0.18853
2397.08654,0.18634
2399.01501,0.18393
2400.94348,0.18410
2402.87195,0.18568
2404.80042,0.18814
2406.72889,0.19189
2408.65736,0.19596
2410.58582,0.19767
2412.51429,0.19552
2414.44276,0.19174
2416.37123,0.18901
2418.29970,0.18872
2420.22817,0.19100
2422.15664,0.19295
2424.08510,0.19326
2426.01357,0.19413
2427.94204,0.19498
2429.87051,0.19515
2431.79898,0.19588
2433.72745,0.19566
2435.65592,0.19360
2437.58439,0.19225
2439.51285,0.19151
2441.44132,0.18912
2443.36979,0.18755
2445.29826,0.19059
2447.22673,0.19581
2449.15520,0.19720
2451.08367,0.19373
2453.01213,0.18959
2454.94060,0.18824
2456.86907,0.18955
2458.79754,0.19272
2460.72601,0.19697
2462.65448,0.19838
2464.58295,0.19707
2466.51142,0.19674
2468.43988,0.19559
2470.36835,0.19232
2472.29682,0.19030
2474.22529,0.19100
2476.15376,0.19357
2478.08223,0.19688
2480.01070,0.19683
2481.93916,0.19288
2483.86763,0.19012
2485.79610,0.19109
2487.72457,0.19517
2489.65304,0.19874
2491.58151,0.19798
2493.50998,0.19445
2495.43844,0.19214
2497.36691,0.19126
2499.29538,0.19091
2501.22385,0.19162
2503.15232,0.19245
2505.08079,0.19233
2507.00926,0.19170
2508.93773,0.19171
2510.86619,0.19174
2512.79466,0.19148
2514.72313,0.19233
2516.65160,0.19339
2518.58007,0.19399
2520.50854,0.19426
2522.43701,0.19305
2524.36547,0.19100
2526.29394,0.19138
2528.22241,0.19445
2530.15088,0.19587
2532.07935,0.19478
2534.00782,0.19455
2535.93629,0.19502
2537.86476,0.19475
2539.79322,0.19551
2541.72169,0.19782
2543.65016,0.19941
2545.57863,0.19960
2547.50710,0.19935
2549.43557,0.19878
2551.36404,0.19858
2553.29250,0.19917
2555.22097,0.19861
2557.14944,0.19600
2559.07791,0.19353
2561.00638,0.19361
2562.93485,0.19545
2564.86332,0.19600
2566.79179,0.19534
2568.72025,0.19560
2570.64872,0.19544
2572.57719,0.19285
2574.50566,0.18988
2576.43413,0.18925
2578.36260,0.19084
2580.29107,0.19364
2582.21953,0.19722
2584.14800,0.20027
2586.07647,0.20125
2588.00494,0.20083
2589.93341,0.19913
2591.86188,0.19574
2593.79035,0.19303
2595.71882,0.19208
2597.64728,0.19134
2599.57575,0.19037
2601.50422,0.19067
2603.43269,0.19221
2605.36116,0.19284
2607.28963,0.19524
2609.21810,0.20370
2611.14656,0.21280
2613.07503,0.21225
2615.00350,0.20318
2616.93197,0.19579
2618.86044,0.19245
2620.78891,0.19090
2622.71738,0.19194
2624.64585,0.19415
2626.57431,0.19458
2628.50278,0.19227
2630.43125,0.18973
2632.35972,0.19094
2634.28819,0.19357
2636.21666,0.19349
2638.14513,0.19254
2640.07359,0.19330
2642.00206,0.19597
2643.93053,0.19849
2645.85900,0.19846
2647.78747,0.19588
2649.71594,0.19203
2651.64441,0.18960
2653.57288,0.18998
2655.50134,0.19180
2657.42981,0.19306
2659.35828,0.19304
2661.28675,0.19191
2663.21522,0.19069
2665.14369,0.19191
2667.07216,0.19447
2669.00062,0.19622
2670.92909,0.19734
2672.85756,0.19755
2674.78603,0.19880
2676.71450,0.20225
2678.64297,0.20298
2680.57144,0.19809
2682.49990,0.19393
2684.42837,0.19482
2686.35684,0.19754
2688.28531,0.19934
2690.21378,0.19861
2692.14225,0.19599
2694.07072,0.19487
2695.99919,0.19638
2697.92765,0.19811
2699.85612,0.19751
2701.78459,0.19587
2703.71306,0.19572
2705.64153,0.19649
2707.57000,0.19748
2709.49847,0.19990
2711.42693,0.20304
2713.35540,0.20391
2715.28387,0.20127
2717.21234,0.19707
2719.14081,0.19499
2721.06928,0.19693
2722.99775,0.19961
2724.92622,0.19954
2726.85468,0.19934
2728.78315,0.20167
2730.71162,0.20338
2732.64009,0.20220
2734.56856,0.20104
2736.49703,0.20162
2738.42550,0.20199
2740.35396,0.20065
2742.28243,0.19723
2744.21090,0.19483
2746.13937,0.19676
2748.06784,0.19949
2749.99631,0.19942
2751.92478,0.19748
2753.85325,0.19554
2755.78171,0.19646
2757.71018,0.19955
2759.63865,0.20049
2761.56712,0.20099
2763.49559,0.20445
2765.42406,0.20709
2767.35253,0.20705
2769.28099,0.20827
2771.20946,0.20934
2773.13793,0.20551
2775.06640,0.20073
2776.99487,0.20110
2778.92334,0.20481
2780.85181,0.20861
2782.78028,0.21131
2784.70874,0.21200
2786.63721,0.21112
2788.56568,0.20939
2790.49415,0.20738
2792.42262,0.20642
2794.35109,0.20641
2796.27956,0.20539
2798.20802,0.20412
2800.13649,0.20444
2802.06496,0.20485
2803.99343,0.20541
2805.92190,0.20795
2807.85037,0.20997
2809.77884,0.20987
2811.70731,0.20996
2813.63577,0.20980
2815.56424,0.20891
2817.49271,0.20903
2819.42118,0.21017
2821.34965,0.21139
2823.27812,0.21240
2825.20659,0.21217
2827.13505,0.20854
2829.06352,0.20424
2830.99199,0.20453
2832.92046,0.20873
2834.84893,0.21286
2836.77740,0.21411
2838.70587,0.21236
2840.63433,0.21064
2842.56280,0.21115
2844.49127,0.21108
2846.41974,0.20778
2848.34821,0.20447
2850.27668,0.20435
2852.20515,0.20523
2854.13362,0.20472
2856.06208,0.20522
2857.99055,0.20795
2859.91902,0.21089
2861.84749,0.21262
2863.77596,0.21118
2865.70443,0.20642
2867.63290,0.20263
2869.56136,0.20263
2871.48983,0.20420
2873.41830,0.20539
2875.34677,0.20548
2877.27524,0.20479
2879.20371,0.20413
2881.13218,0.20085
2883.06065,0.19640
2884.98911,0.19598
2886.91758,0.19802
2888.84605,0.19862
2890.77452,0.19943
2892.70299,0.20261
2894.63146,0.20561
2896.55993,0.20718
2898.48839,0.20696
2900.41686,0.20495
2902.34533,0.20372
2904.27380,0.20333
2906.20227,0.20386
2908.13074,0.20696
2910.05921,0.20912
2911.98768,0.20580
2913.91614,0.19851
2915.84461,0.19359
2917.77308,0.19433
2919.70155,0.19500
2921.63002,0.19625
2923.55849,0.19950
2925.48696,0.19242
2927.41542,0.18235
2929.34389,0.18881
2931.27236,0.20170
2933.20083,0.20291
2935.12930,0.19394
2937.05777,0.18551
2938.98624,0.18562
2940.91471,0.19343
2942.84317,0.20092
2944.77164,0.20091
2946.70011,0.19271
2948.62858,0.18788
2950.55705,0.19503
2952.48552,0.20435
2954.41399,0.20516
2956.34245,0.19687
2958.27092,0.18998
2960.19939,0.19511
2962.12786,0.20510
2964.05633,0.20845
2965.98480,0.20433
2967.91327,0.19875
2969.84174,0.19795
2971.77020,0.20203
2973.69867,0.20898
2975.62714,0.21183
2977.55561,0.20524
2979.48408,0.20190
2981.41255,0.20687
2983.34102,0.20933
2985.26948,0.20667
2987.19795,0.20009
2989.12642,0.19631
2991.05489,0.20290
2992.98336,0.21044
2994.91183,0.21077
2996.84030,0.20904
2998.76877,0.20997
3000.69723,0.21201
3002.62570,0.20966
3004.55417,0.20416
3006.48264,0.20326
3008.41111,0.20578
3010.33958,0.20113
3012.26805,0.18171
3014.19651,0.15114
3016.12498,0.12847
3018.05345,0.13875
3019.98192,0.17561
3021.91039,0.20541
3023.83886,0.21603
3025.76733,0.21504
3027.69579,0.21201
3029.62426,0.21317
3031.55273,0.21591
3033.48120,0.21842
3035.40967,0.21774
3037.33814,0.21093
3039.26661,0.20704
3041.19508,0.21257
3043.12354,0.21958
3045.05201,0.21934
3046.98048,0.21382
3048.90895,0.20997
3050.83742,0.20984
3052.76589,0.21118
3054.69436,0.20702
3056.62282,0.19587
3058.55129,0.19224
3060.47976,0.20011
3062.40823,0.20678
3064.33670,0.20484
3066.26517,0.19839
3068.19364,0.20059
3070.12211,0.20951
3072.05057,0.21009
3073.97904,0.20081
3075.90751,0.19061
3077.83598,0.19195
3079.76445,0.20464
3081.69292,0.21017
3083.62139,0.19850
3085.54985,0.18526
3087.47832,0.18897
3089.40679,0.20085
3091.33526,0.20253
3093.26373,0.19207
3095.19220,0.18446
3097.12067,0.19036
3099.04914,0.20039
3100.97760,0.20415
3102.90607,0.20025
3104.83454,0.19644
3106.76301,0.19829
3108.69148,0.20095
3110.61995,0.20125
3112.54842,0.20092
3114.47688,0.20451
3116.40535,0.21140
3118.33382,0.21444
3120.26229,0.21140
3122.19076,0.20875
3124.11923,0.20938
3126.04770,0.20795
3127.97617,0.20360
3129.90463,0.19955
3131.83310,0.20083
3133.76157,0.20967
3135.69004,0.21691
3137.61851,0.21626
3139.54698,0.21347
3141.47545,0.21177
3143.40391,0.20838
3145.33238,0.20546
3147.26085,0.20706
3149.18932,0.21163
3151.11779,0.21387
3153.04626,0.21214
3154.97473,0.21125
3156.90320,0.21396
3158.83166,0.21810
3160.76013,0.22139
3162.68860,0.22105
3164.61707,0.21597
3166.54554,0.21239
3168.47401,0.21452
3170.40248,0.21539
3172.33094,0.21104
3174.25941,0.20697
3176.18788,0.20831
3178.11635,0.21387
3180.04482,0.21489
3181.97329,0.20947
3183.90176,0.20876
3185.83022,0.21415
3187.75869,0.21525
3189.68716,0.21352
3191.61563,0.21533
3193.54410,0.21587
3195.47257,0.21210
3197.40104,0.21004
3199.32951,0.21298
3201.25797,0.21764
3203.18644,0.21870
3205.11491,0.21294
3207.04338,0.20582
3208.97185,0.20554
3210.90032,0.21149
3212.82879,0.22008
3214.75725,0.22509
3216.68572,0.22359
3218.61419,0.22101
3220.54266,0.21719
3222.47113,0.21403
3224.39960,0.21384
3226.32807,0.21303
3228.25654,0.21508
3230.18500,0.22017
3232.11347,0.22160
3234.04194,0.22131
3235.97041,0.22218
3237.89888,0.22139
3239.82735,0.21893
3241.75582,0.21364
3243.68428,0.20807
3245.61275,0.21062
3247.54122,0.21706
3249.46969,0.21854
3251.39816,0.21614
3253.32663,0.21374
3255.25510,0.21234
3257.18357,0.21453
3259.11203,0.22145
3261.04050,0.22373
3262.96897,0.21833
3264.89744,0.21439
3266.82591,0.21354
3268.75438,0.21088
3270.68285,0.20802
3272.61131,0.20882
3274.53978,0.20913
3276.46825,0.20733
3278.39672,0.20801
3280.32519,0.20976
3282.25366,0.20959
3284.18213,0.21030
3286.11060,0.21607
3288.03906,0.22144
3289.96753,0.21784
3291.89600,0.21103
3293.82447,0.21046
3295.75294,0.21394
3297.68141,0.21482
3299.60988,0.21125
3301.53834,0.20729
3303.46681,0.20550
3305.39528,0.20356
3307.32375,0.20456
3309.25222,0.21138
3311.18069,0.21362
3313.10916,0.20813
3315.03763,0.20666
3316.96609,0.21162
3318.89456,0.21578
3320.82303,0.21418
3322.75150,0.20815
3324.67997,0.20628
3326.60844,0.21139
3328.53691,0.21640
3330.46537,0.21695
3332.39384,0.21548
3334.32231,0.21625
3336.25078,0.21800
3338.17925,0.21676
3340.10772,0.21579
3342.03619,0.21825
3343.96466,0.22023
3345.89312,0.21986
3347.82159,0.21838
3349.75006,0.21486
3351.67853,0.20837
3353.60700,0.20562
3355.53547,0.21398
3357.46394,0.22334
3359.39240,0.22250
3361.32087,0.21744
3363.24934,0.21680
3365.17781,0.22178
3367.10628,0.22610
3369.03475,0.22578
3370.96322,0.22509
3372.89168,0.22543
3374.82015,0.22214
3376.74862,0.21335
3378.67709,0.20368
3380.60556,0.19998
3382.53403,0.20569
3384.46250,0.21647
3386.39097,0.22233
3388.31943,0.22020
3390.24790,0.21822
3392.17637,0.22046
3394.10484,0.22091
3396.03331,0.21847
3397.96178,0.21763
3399.89025,0.21827
3401.81871,0.21858
3403.74718,0.21810
3405.67565,0.21634
3407.60412,0.21331
3409.53259,0.20853
3411.46106,0.20396
3413.38953,0.20242
3415.31800,0.19992
3417.24646,0.19666
3419.17493,0.19731
3421.10340,0.19958
3423.03187,0.20312
3424.96034,0.20709
3426.88881,0.20735
3428.81728,0.20480
3430.74574,0.20281
3432.67421,0.20501
3434.60268,0.21088
3436.53115,0.21266
3438.45962,0.20597
3440.38809,0.19706
3442.31656,0.19356
3444.24503,0.19691
3446.17349,0.20342
3448.10196,0.20560
3450.03043,0.20321
3451.95890,0.20229
3453.88737,0.20035
3455.81584,0.19583
3457.74431,0.19351
3459.67277,0.19150
3461.60124,0.18990
3463.52971,0.19441
3465.45818,0.20148
3467.38665,0.20387
3469.31512,0.20186
3471.24359,0.20002
3473.17206,0.19864
3475.10052,0.19627
3477.02899,0.19497
3478.95746,0.19618
3480.88593,0.19803
3482.81440,0.19835
3484.74287,0.19907
3486.67134,0.19992
3488.59980,0.19630
3490.52827,0.18827
3492.45674,0.18165
3494.38521,0.18017
3496.31368,0.18152
3498.24215,0.18321
3500.17062,0.18322
3502.09909,0.18180
3504.02755,0.18320
3505.95602,0.18607
3507.88449,0.18855
3509.81296,0.19198
3511.74143,0.19323
3513.66990,0.19126
3515.59837,0.18898
3517.52683,0.18466
3519.45530,0.17880
3521.38377,0.17856
3523.31224,0.18315
3525.24071,0.18538
3527.16918,0.18544
3529.09765,0.18459
3531.02611,0.18116
3532.95458,0.17717
3534.88305,0.17593
3536.81152,0.17536
3538.73999,0.17229
3540.66846,0.17122
3542.59693,0.17495
3544.52540,0.17961
3546.45386,0.18130
3548.38233,0.17869
3550.31080,0.17567
3552.23927,0.17729
3554.16774,0.18083
3556.09621,0.17718
3558.02468,0.16530
3559.95314,0.15736
3561.88161,0.16299
3563.81008,0.17701
3565.73855,0.18845
3567.66702,0.18738
3569.59549,0.17861
3571.52396,0.17064
3573.45243,0.16491
3575.38089,0.16623
3577.30936,0.16927
3579.23783,0.16357
3581.16630,0.15745
3583.09477,0.16070
3585.02324,0.17041
3586.95171,0.17950
3588.88017,0.17558
3590.80864,0.16784
3592.73711,0.16684
3594.66558,0.16345
3596.59405,0.15582
3598.52252,0.15328
3600.45099,0.15403
3602.37946,0.15140
3604.30792,0.14973
3606.23639,0.15537
3608.16486,0.16098
3610.09333,0.16008
3612.02180,0.16055
3613.95027,0.16233
3615.87874,0.16469
3617.80720,0.17189
3619.73567,0.17223
3621.66414,0.15806
3623.59261,0.14651
3625.52108,0.14407
3627.44955,0.14867
3629.37802,0.15643
3631.30649,0.15876
3633.23495,0.15502
3635.16342,0.14620
3637.09189,0.13719
3639.02036,0.13442
3640.94883,0.13926
3642.87730,0.14812
3644.80577,0.15786
3646.73423,0.16924
3648.66270,0.18109
3650.59117,0.17589
3652.51964,0.15812
3654.44811,0.14798
3656.37658,0.14538
3658.30505,0.14276
3660.23352,0.13937
3662.16198,0.13548
3664.09045,0.13195
3666.01892,0.13272
3667.94739,0.13984
3669.87586,0.14930
3671.80433,0.15112
3673.73280,0.15046
3675.66126,0.15150
3677.58973,0.14779
3679.51820,0.14115
3681.44667,0.13699
3683.37514,0.13678
3685.30361,0.13939
3687.23208,0.14660
3689.16055,0.15657
3691.08901,0.15396
3693.01748,0.14035
3694.94595,0.13002
3696.87442,0.12863
3698.80289,0.13463
3700.73136,0.14247
3702.65983,0.14479
3704.58829,0.14259
3706.51676,0.14204
3708.44523,0.14484
3710.37370,0.15298
3712.30217,0.15573
3714.23064,0.14502
3716.15911,0.13475
3718.08757,0.13049
3720.01604,0.13029
3721.94451,0.13252
3723.87298,0.13529
3725.80145,0.13606
3727.72992,0.13858
3729.65839,0.14526
3731.58686,0.15478
3733.51532,0.16555
3735.44379,0.16739
3737.37226,0.15354
3739.30073,0.14309
3741.22920,0.14374
3743.15767,0.15160
3745.08614,0.16337
3747.01460,0.16704
3748.94307,0.16413
3750.87154,0.15808
3752.80001,0.14750
3754.72848,0.14080
3756.65695,0.13875
3758.58542,0.13649
3760.51389,0.13121
3762.44235,0.13030
3764.37082,0.13621
3766.29929,0.13856
3768.22776,0.13447
3770.15623,0.12965
3772.08470,0.12425
3774.01317,0.12192
3775.94163,0.12533
3777.87010,0.12901
3779.79857,0.12737
3781.72704,0.12564
3783.65551,0.12745
3785.58398,0.12778
3787.51245,0.12480
3789.44092,0.12407
3791.36938,0.12724
3793.29785,0.13116
3795.22632,0.13318
3797.15479,0.13270
3799.08326,0.13661
3801.01173,0.14264
3802.94020,0.13355
3804.86866,0.12225
3806.79713,0.12171
3808.72560,0.12604
3810.65407,0.12858
3812.58254,0.13082
3814.51101,0.13576
3816.43948,0.14103
3818.36795,0.14418
3820.29641,0.14841
3822.22488,0.14790
3824.15335,0.14398
3826.08182,0.14116
3828.01029,0.13705
3829.93876,0.13199
3831.86723,0.13015
3833.79569,0.13371
3835.72416,0.13849
3837.65263,0.14298
3839.58110,0.14553
3841.50957,0.14077
3843.43804,0.12836
3845.36651,0.11825
3847.29498,0.11859
3849.22344,0.12685
3851.15191,0.14370
3853.08038,0.16421
3855.00885,0.15686
3856.93732,0.14029
3858.86579,0.13161
3860.79426,0.12881
3862.72272,0.13010
3864.65119,0.13046
3866.57966,0.12719
3868.50813,0.12351
3870.43660,0.12434
3872.36507,0.12798
3874.29354,0.12426
3876.22200,0.11812
3878.15047,0.12139
3880.07894,0.13027
3882.00741,0.12947
3883.93588,0.11940
3885.86435,0.11121
3887.79282,0.11276
3889.72129,0.12304
3891.64975,0.12896
3893.57822,0.11899
3895.50669,0.11249
3897.43516,0.12041
3899.36363,0.13273
3901.29210,0.13863
3903.22057,0.13933
3905.14903,0.13397
3907.07750,0.12501
3909.00597,0.11725
3910.93444,0.11126
3912.86291,0.11060
3914.79138,0.11503
3916.71985,0.11717
3918.64832,0.11558
3920.57678,0.11386
3922.50525,0.11271
3924.43372,0.11154
3926.36219,0.10870
3928.29066,0.10739
3930.21913,0.11132
3932.14760,0.11476
3934.07606,0.11353
3936.00453,0.11258
3937.93300,0.11177
3939.86147,0.11236
3941.78994,0.11671
3943.71841,0.11744
3945.64688,0.11260
3947.57535,0.10786
3949.50381,0.10431
3951.43228,0.10259
3953.36075,0.10426
3955.28922,0.10812
3957.21769,0.11012
3959.14616,0.10840
3961.07463,0.10701
3963.00309,0.10835
3964.93156,0.10601
3966.86003,0.09950
3968.78850,0.09646
3970.71697,0.09760
3972.64544,0.10187
3974.57391,0.10729
3976.50238,0.10570
3978.43084,0.09981
3980.35931,0.10029
3982.28778,0.10377
3984.21625,0.10428
3986.14472,0.10511
3988.07319,0.10689
3990.00166,0.10749
3991.93012,0.10741
3993.85859,0.10578
3995.78706,0.10206
3997.71553,0.10260
3999.64400,0.10751
4001.57247,0.10684
4003.50094,0.10239
4005.42941,0.10257
4007.35787,0.10439
4009.28634,0.10548
4011.21481,0.10761
4013.14328,0.10620
4015.07175,0.10231
4017.00022,0.10174
4018.92869,0.10074
4020.85715,0.09602
4022.78562,0.09271
4024.71409,0.09643
4026.64256,0.10397
4028.57103,0.10731
4030.49950,0.10626
4032.42797,0.10473
4034.35644,0.10379
4036.28490,0.10300
4038.21337,0.10290
4040.14184,0.10240
4042.07031,0.10033
4043.99878,0.09988
4045.92725,0.10177
4047.85572,0.10453
4049.78418,0.10854
4051.71265,0.10928
4053.64112,0.10418
4055.56959,0.09951
4057.49806,0.09688
4059.42653,0.09391
4061.35500,0.09469
4063.28346,0.10094
4065.21193,0.10581
4067.14040,0.10235
4069.06887,0.09506
4070.99734,0.09435
4072.92581,0.09808
4074.85428,0.09972
4076.78275,0.09978
4078.71121,0.09970
4080.63968,0.09963
4082.56815,0.09820
4084.49662,0.09640
4086.42509,0.09598
4088.35356,0.09494
4090.28203,0.09427
4092.21049,0.09353
4094.13896,0.09181
4096.06743,0.09540
4097.99590,0.10222
4099.92437,0.10348
4101.85284,0.09972
4103.78131,0.09546
4105.70978,0.09513
4107.63824,0.09842
4109.56671,0.09779
4111.49518,0.09033
4113.42365,0.08311
4115.35212,0.08585
4117.28059,0.09728
4119.20906,0.10587
4121.13752,0.10735
4123.06599,0.10221
4124.99446,0.09268
4126.92293,0.08710
4128.85140,0.08508
4130.77987,0.08103
4132.70834,0.07866
4134.63681,0.07990
4136.56527,0.08253
4138.49374,0.08716
4140.42221,0.09054
4142.35068,0.08735
4144.27915,0.08332
4146.20762,0.08751
4148.13609,0.09488
4150.06455,0.09621
4151.99302,0.09199
4153.92149,0.08485
4155.84996,0.07734
4157.77843,0.07290
4159.70690,0.07235
4161.63537,0.07524
4163.56384,0.07906
4165.49230,0.08260
4167.42077,0.08470
4169.34924,0.08192
4171.27771,0.07773
4173.20618,0.07499
4175.13465,0.07031
4177.06312,0.06641
4178.99158,0.06732
4180.92005,0.07077
4182.84852,0.07315
4184.77699,0.07327
4186.70546,0.07530
4188.63393,0.08085
4190.56240,0.08481
4192.49087,0.08410
4194.41933,0.08068
4196.34780,0.07936
4198.27627,0.07983
4200.20474,0.07648
4202.13321,0.07112
4204.06168,0.07298
4205.99015,0.08128
4207.91861,0.08442
4209.84708,0.08044
4211.77555,0.07579
4213.70402,0.07404
4215.63249,0.07371
4217.56096,0.06975
4219.48943,0.06585
4221.41789,0.07095
4223.34636,0.08096
4225.27483,0.08419
4227.20330,0.07894
4229.13177,0.07107
4231.06024,0.06752
4232.98871,0.07414
4234.91718,0.08467
4236.84564,0.08572
4238.77411,0.07788
4240.70258,0.07207
4242.63105,0.06990
4244.55952,0.06630
4246.48799,0.06120
4248.41646,0.05802
4250.34492,0.05986
4252.27339,0.06576
4254.20186,0.07050
4256.13033,0.07289
4258.05880,0.07462
4259.98727,0.07287
4261.91574,0.06753
4263.84421,0.06584
4265.77267,0.06969
4267.70114,0.07188
4269.62961,0.06987
4271.55808,0.06762
4273.48655,0.06519
4275.41502,0.06392
4277.34349,0.06703
4279.27195,0.06937
4281.20042,0.06458
4283.12889,0.05631
4285.05736,0.05238
4286.98583,0.05590
4288.91430,0.06373
4290.84277,0.06588
4292.77124,0.06008
4294.69970,0.05769
4296.62817,0.06046
4298.55664,0.06228
4300.48511,0.06209
4302.41358,0.06048
4304.34205,0.06066
4306.27052,0.06050
4308.19898,0.05647
4310.12745,0.05636
4312.05592,0.05762
4313.98439,0.05105
4315.91286,0.04494
4317.84133,0.04803
4319.76980,0.05726
4321.69827,0.06270
4323.62673,0.05935
4325.55520,0.05595
4327.48367,0.05685
4329.41214,0.05699
4331.34061,0.05732
4333.26908,0.05898
4335.19755,0.05523
4337.12601,0.04529
4339.05448,0.03594
4340.98295,0.03160
4342.91142,0.03481
4344.83989,0.04383
4346.76836,0.05107
4348.69683,0.05446
4350.62530,0.05687
4352.55376,0.05284
4354.48223,0.04512
4356.41070,0.04359
4358.33917,0.04463
4360.26764,0.04798
4362.19611,0.05189
4364.12458,0.04724
4366.05304,0.03986
4367.98151,0.03838
4369.90998,0.03794
4371.83845,0.03754
4373.76692,0.03917
4375.69539,0.03701
4377.62386,0.03122
4379.55232,0.02847
4381.48079,0.03138
4383.40926,0.03669
4385.33773,0.03994
4387.26620,0.03954
4389.19467,0.03681
4391.12314,0.03672
4393.05161,0.03745
4394.98007,0.03540
4396.90854,0.03494
4398.83701,0.03670
4400.76548,0.03800
4402.69395,0.03887
4404.62242,0.03952
4406.55089,0.03920
4408.47935,0.03488
4410.40782,0.02891
4412.33629,0.03039
4414.26476,0.03646
4416.19323,0.03698
4418.12170,0.02958
4420.05017,0.01930
4421.97864,0.01628
4423.90710,0.02395
4425.83557,0.03750
4427.76404,0.04967
4429.69251,0.05223
4431.62098,0.04731
4433.54945,0.04473
4435.47792,0.04518
4437.40638,0.04268
4439.33485,0.03623
4441.26332,0.02984
4443.19179,0.02560
4445.12026,0.02226
4447.04873,0.01973
4448.97720,0.01841
4450.90567,0.01571
4452.83413,0.00986
4454.76260,0.01060
4456.69107,0.02763
4458.61954,0.04683
4460.54801,0.05077
4462.47648,0.04661
4464.40495,0.04293
4466.33341,0.03798
4468.26188,0.03597
4470.19035,0.03708
4472.11882,0.03313
4474.04729,0.02792
4475.97576,0.03319
4477.90423,0.04175
4479.83270,0.03716
4481.76116,0.02713
4483.68963,0.02360
4485.61810,0.02388
4487.54657,0.02534
4489.47504,0.02070
4491.40351,0.01320
4493.33198,0.01552
4495.26044,0.02106
4497.18891,0.02495
4499.11738,0.03000
4501.04585,0.03033
4502.97432,0.02383
4504.90279,0.01772
4506.83126,0.01779
4508.75973,0.02269
4510.68819,0.02561
4512.61666,0.02045
4514.54513,0.01310
4516.47360,0.01320
4518.40207,0.01921
4520.33054,0.02453
4522.25901,0.02452
4524.18747,0.02343
4526.11594,0.02590
4528.04441,0.02802
4529.97288,0.02833
4531.90135,0.02702
4533.82982,0.02066
4535.75829,0.00854
4537.68676,-0.00277
4539.61522,-0.00597
4541.54369,0.00036
4543.47216,0.01200
4545.40063,0.01982
4547.32910,0.02202
4549.25757,0.02689
4551.18604,0.03074
4553.11450,0.02718
4555.04297,0.02174
4556.97144,0.01593
4558.89991,0.01019
4560.82838,0.00574
4562.75685,0.00331
4564.68532,0.00363
4566.61378,0.00310
4568.54225,0.00503
4570.47072,0.01085
4572.39919,0.01198
4574.32766,0.00924
4576.25613,0.01223
4578.18460,0.02078
4580.11307,0.02776
4582.04153,0.02505
4583.97000,0.01235
4585.89847,0.00531
4587.82694,0.00715
4589.75541,0.00733
4591.68388,0.00745
4593.61235,0.01051
4595.54081,0.01613
4597.46928,0.02229
4599.39775,0.02264
4601.32622,0.02058
4603.25469,0.02367
4605.18316,0.02512
4607.11163,0.01778
4609.04010,0.00938
4610.96856,0.00847
4612.89703,0.01230
4614.82550,0.01426
4616.75397,0.01235
4618.68244,0.00997
4620.61091,0.01165
4622.53938,0.01257
4624.46784,0.00860
4626.39631,0.00928
4628.32478,0.01804
4630.25325,0.02508
4632.18172,0.02582
4634.11019,0.02028
4636.03866,0.00850
4637.96713,-0.00077
4639.89559,-0.00238
4641.82406,-0.00665
4643.75253,-0.01104
4645.68100,-0.00087
4647.60947,0.01677
4649.53794,0.02785
4651.46641,0.03095
4653.39487,0.02498
4655.32334,0.01103
4657.25181,0.00144
4659.18028,0.00274
4661.10875,0.00685
4663.03722,0.01089
4664.96569,0.01313
4666.89416,0.00649
4668.82262,-0.00699
4670.75109,-0.01454
4672.67956,-0.00445
4674.60803,0.01646
4676.53650,0.02346
4678.46497,0.00917
4680.39344,-0.00310
4682.32190,-0.00128
4684.25037,0.00436
4686.17884,0.01045
4688.10731,0.01619
4690.03578,0.00966
4691.96425,-0.00702
4693.89272,-0.01179
4695.82119,-0.00013
4697.74965,0.01156
4699.67812,0.01152
4701.60659,0.00727
4703.53506,0.01069
4705.46353,0.01531
4707.39200,0.01397
4709.32047,0.00909
4711.24893,0.00543
4713.17740,0.00476
4715.10587,0.00356
4717.03434,0.00298
4718.96281,0.00544
4720.89128,0.00929
4722.81975,0.01400
4724.74821,0.01825
4726.67668,0.01971
4728.60515,0.01837
4730.53362,0.01354
4732.46209,0.00824
4734.39056,0.00635
4736.31903,0.00143
4738.24750,-0.00787
4740.17596,-0.01006
4742.10443,-0.00341
4744.03290,0.00677
4745.96137,0.01680
4747.88984,0.01708
4749.81831,0.01170
4751.74678,0.01365
4753.67524,0.01675
4755.60371,0.01142
4757.53218,0.00170
4759.46065,-0.00130
4761.38912,0.00657
4763.31759,0.01835
4765.24606,0.02652
4767.17453,0.02802
4769.10299,0.01960
4771.03146,0.00718
4772.95993,0.00565
4774.88840,0.01191
4776.81687,0.01180
4778.74534,0.00685
4780.67381,0.00114
4782.60227,-0.00238
4784.53074,0.00542
4786.45921,0.01562
4788.38768,0.01524
4790.31615,0.01337
4792.24462,0.01820
4794.17309,0.02309
4796.10156,0.01710
4798.03002,0.00654
4799.95849,0.00134
4801.88696,-0.00537
4803.81543,-0.01211
4805.74390,-0.01256
4807.67237,-0.01096
4809.60084,-0.00487
4811.52930,0.00838
4813.45777,0.02089
4815.38624,0.02479
4817.31471,0.02175
4819.24318,0.01914
4821.17165,0.01889
4823.10012,0.01446
4825.02859,0.00189
4826.95705,-0.00500
4828.88552,0.00654
4830.81399,0.02175
4832.74246,0.02122
4834.67093,0.00602
4836.59940,-0.00705
4838.52787,-0.00878
4840.45633,-0.00519
4842.38480,0.00091
4844.31327,0.00966
4846.24174,0.01279
4848.17021,0.00997
4850.09868,0.01980
4852.02715,0.03987
4853.95562,0.04287
4855.88408,0.03557
4857.81255,0.03511
4859.74102,0.02795
4861.66949,0.01126
4863.59796,0.00223
4865.52643,0.00568
4867.45490,0.01482
4869.38336,0.02190
4871.31183,0.01977
4873.24030,0.00620
4875.16877,-0.00563
4877.09724,-0.00452
4879.02571,0.00162
4880.95418,0.00748
4882.88265,0.01574
4884.81111,0.01478
4886.73958,-0.00199
4888.66805,-0.01573
4890.59652,-0.01652
4892.52499,-0.01269
4894.45346,-0.00595
4896.38193,0.00666
4898.31039,0.01968
4900.23886,0.02229
4902.16733,0.01299
4904.09580,0.00151
4906.02427,0.00064
4907.95274,0.01055
4909.88121,0.01606
4911.80967,0.00920
4913.73814,-0.00224
4915.66661,-0.00600
4917.59508,0.00517
4919.52355,0.01999
4921.45202,0.02063
4923.38049,0.01028
4925.30896,0.00214
4927.23742,-0.00087
4929.16589,-0.00374
4931.09436,-0.00463
4933.02283,0.00179
4934.95130,0.00809
4936.87977,0.00565
4938.80824,-0.00253
4940.73670,-0.01034
4942.66517,-0.01062
4944.59364,0.00442
4946.52211,0.02159
4948.45058,0.02254
4950.37905,0.01556
4952.30752,0.00753
4954.23599,0.00203
4956.16445,0.01432
4958.09292,0.03828
4960.02139,0.04746
4961.94986,0.03355
4963.87833,0.01357
4965.80680,-0.00236
4967.73527,-0.00873
4969.66373,0.00515
4971.59220,0.02000
4973.52067,0.01697
4975.44914,0.01437
4977.37761,0.01881
4979.30608,0.02150
4981.23455,0.02435
4983.16302,0.02091
4985.09148,0.00615
4987.01995,-0.00362
4988.94842,-0.00654
4990.87689,-0.01982
4992.80536,-0.03438
4994.73383,-0.02808
4996.66230,-0.00156
4998.59076,0.02587
5000.51923,0.03712
5002.44770,0.03375
5004.37617,0.02968
5006.30464,0.02893
5008.23311,0.02611
5010.16158,0.02148
5012.09005,0.01454
5014.01851,0.00303
5015.94698,-0.00463
5017.87545,0.00189
5019.80392,0.01752
5021.73239,0.02910
5023.66086,0.02903
5025.58933,0.02250
5027.51779,0.02439
5029.44626,0.03452
5031.37473,0.03720
5033.30320,0.02527
5035.23167,0.00908
5037.16014,0.00296
5039.08861,0.00820
5041.01708,0.01912
5042.94554,0.02337
5044.87401,0.00827
5046.80248,-0.01014
5048.73095,-0.00873
5050.65942,0.00651
5052.58789,0.01815
5054.51636,0.01454
5056.44482,0.00043
5058.37329,-0.01097
5060.30176,-0.01102
5062.23023,0.00577
5064.15870,0.02758
5066.08717,0.03497
5068.01564,0.02675
5069.94410,0.02190
5071.87257,0.02289
5073.80104,0.01147
5075.72951,0.00173
5077.65798,0.01311
5079.58645,0.03067
5081.51492,0.03977
5083.44339,0.03653
5085.37185,0.02475
5087.30032,0.02089
5089.22879,0.02956
5091.15726,0.03381
5093.08573,0.03104
5095.01420,0.03427
5096.94267,0.04001
5098.87113,0.03544
5100.79960,0.02222
5102.72807,0.01538
5104.65654,0.02274
5106.58501,0.03299
5108.51348,0.03886
5110.44195,0.04579
5112.37042,0.04883
5114.29888,0.04769
5116.22735,0.05194
5118.15582,0.05590
5120.08429,0.05127
5122.01276,0.03913
5123.94123,0.02540
5125.86970,0.01879
5127.79816,0.01875
5129.72663,0.02050
5131.65510,0.02885
5133.58357,0.03842
5135.51204,0.03709
5137.44051,0.03344
5139.36898,0.03746
5141.29745,0.04543
5143.22591,0.05908
5145.15438,0.07690
5147.08285,0.08337
5149.01132,0.07340
5150.93979,0.05804
5152.86826,0.04959
5154.79673,0.04923
5156.72519,0.04304
5158.65366,0.02835
5160.58213,0.02798
5162.51060,0.04015
5164.43907,0.02960
5166.36754,0.00675
5168.29601,0.00835
5170.22448,0.02307
5172.15294,0.02419
5174.08141,0.01686
5176.00988,0.02273
5177.93835,0.04012
5179.86682,0.04744
5181.79529,0.04527
5183.72376,0.04832
5185.65222,0.04641
5187.58069,0.02756
5189.50916,0.01189
5191.43763,0.01547
5193.36610,0.03068
5195.29457,0.04415
5197.22304,0.05334
5199.15151,0.06802
5201.07997,0.08191
5203.00844,0.07456
5204.93691,0.05675
5206.86538,0.05928
5208.79385,0.06841
5210.72232,0.05923
5212.65079,0.03613
5214.57925,0.00560
5216.50772,-0.01225
5218.43619,-0.00307
5220.36466,0.01741
5222.29313,0.04137
5224.22160,0.06203
5226.15007,0.05144
5228.07854,0.02448
5230.00700,0.01656
5231.93547,0.01804
5233.86394,0.01896
5235.79241,0.02476
5237.72088,0.03084
5239.64935,0.02862
5241.57782,0.02446
5243.50628,0.02633
5245.43475,0.03522
5247.36322,0.05952
5249.29169,0.08388
5251.22016,0.08021
5253.14863,0.06376
5255.07710,0.05899
5257.00556,0.06392
5258.93403,0.06197
5260.86250,0.04904
5262.79097,0.03895
5264.71944,0.04316
5266.64791,0.05194
5268.57638,0.05854
5270.50485,0.07138
5272.43331,0.08597
5274.36178,0.09125
5276.29025,0.08857
5278.21872,0.08032
5280.14719,0.06954
5282.07566,0.05981
5284.00413,0.05565
5285.93259,0.06239
5287.86106,0.07005
5289.78953,0.08209
5291.71800,0.10311
5293.64647,0.10116
5295.57494,0.08227
5297.50341,0.07724
5299.43188,0.07848
5301.36034,0.07793
5303.28881,0.07725
5305.21728,0.06400
5307.14575,0.04753
5309.07422,0.05513
5311.00269,0.06869
5312.93116,0.06291
5314.85962,0.05723
5316.78809,0.06112
5318.71656,0.06254
5320.64503,0.07087
5322.57350,0.08681
5324.50197,0.08442
5326.43044,0.06490
5328.35891,0.05941
5330.28737,0.06360
5332.21584,0.05952
5334.14431,0.05819
5336.07278,0.06749
5338.00125,0.07686
5339.92972,0.07510
5341.85819,0.06615
5343.78665,0.06169
5345.71512,0.06238
5347.64359,0.06305
5349.57206,0.07499
5351.50053,0.09952
5353.42900,0.11308
5355.35747,0.10834
5357.28594,0.09924
5359.21440,0.08504
5361.14287,0.07254
5363.07134,0.06963
5364.99981,0.06549
5366.92828,0.06216
5368.85675,0.06742
5370.78522,0.07242
5372.71368,0.07737
5374.64215,0.09552
5376.57062,0.10462
5378.49909,0.07933
5380.42756,0.05964
5382.35603,0.06874
5384.28450,0.07738
5386.21297,0.05870
5388.14143,0.04241
5390.06990,0.05029
5391.99837,0.05762
5393.92684,0.03624
5395.85531,0.00908
5397.78378,0.02177
5399.71225,0.06278
5401.64071,0.09854
5403.56918,0.10382
5405.49765,0.08072
5407.42612,0.06160
5409.35459,0.05885
5411.28306,0.07827
5413.21153,0.11155
5415.13999,0.10972
5417.06846,0.08090
5418.99693,0.07211
5420.92540,0.08235
5422.85387,0.08603
5424.78234,0.08433
5426.71081,0.09035
5428.63928,0.09203
5430.56774,0.06354
5432.49621,0.02513
5434.42468,0.01771
5436.35315,0.04103
5438.28162,0.06092
5440.21009,0.07029
5442.13856,0.07508
5444.06702,0.07067
5445.99549,0.06695
5447.92396,0.07521
5449.85243,0.07382
5451.78090,0.05713
5453.70937,0.05290
5455.63784,0.06534
5457.56631,0.07676
5459.49477,0.07863
5461.42324,0.07428
5463.35171,0.07844
5465.28018,0.08871
5467.20865,0.08712
5469.13712,0.08190
5471.06559,0.08579
5472.99405,0.08518
5474.92252,0.07244
5476.85099,0.05947
5478.77946,0.05248
5480.70793,0.04767
5482.63640,0.05399
5484.56487,0.07742
5486.49334,0.09426
5488.42180,0.08828
5490.35027,0.07884
5492.27874,0.09332
5494.20721,0.10601
5496.13568,0.08082
5498.06415,0.05188
5499.99262,0.04838
5501.92108,0.05972
5503.84955,0.06523
5505.77802,0.05983
5507.70649,0.07041
5509.63496,0.09804
5511.56343,0.10449
5513.49190,0.08769
5515.42037,0.08389
5517.34883,0.08827
5519.27730,0.07717
5521.20577,0.05987
5523.13424,0.05284
5525.06271,0.06933
5526.99118,0.09655
5528.91965,0.10202
5530.84811,0.08020
5532.77658,0.06855
5534.70505,0.07956
5536.63352,0.07557
5538.56199,0.04435
5540.49046,0.02234
5542.41893,0.04634
5544.34740,0.08858
5546.27586,0.09853
5548.20433,0.08966
5550.13280,0.08358
5552.06127,0.07661
5553.98974,0.07714
5555.91821,0.09713
5557.84668,0.12752
5559.77514,0.14608
5561.70361,0.14519
5563.63208,0.12934
5565.56055,0.10752
5567.48902,0.08804
5569.41749,0.07659
5571.34596,0.08017
5573.27443,0.08332
5575.20289,0.06810
5577.13136,0.05446
5579.05983,0.05299
5580.98830,0.05730
5582.91677,0.05461
5584.84524,0.04384
5586.77371,0.05350
5588.70217,0.07924
5590.63064,0.08690
5592.55911,0.07933
5594.48758,0.08165
5596.41605,0.08167
5598.34452,0.05671
5600.27299,0.04498
5602.20145,0.06720
5604.12992,0.08035
5606.05839,0.07713
5607.98686,0.08604
5609.91533,0.10251
5611.84380,0.10380
5613.77227,0.08517
5615.70074,0.06101
5617.62920,0.04674
5619.55767,0.04060
5621.48614,0.04246
5623.41461,0.05374
5625.34308,0.06702
5627.27155,0.07986
5629.20002,0.08584
5631.12848,0.08377
5633.05695,0.08621
5634.98542,0.09511
5636.91389,0.09494
5638.84236,0.08842
5640.77083,0.09269
5642.69930,0.09859
5644.62777,0.08641
5646.55623,0.05387
5648.48470,0.02914
5650.41317,0.04601
5652.34164,0.08108
5654.27011,0.08223
5656.19858,0.06224
5658.12705,0.05202
5660.05551,0.04466
5661.98398,0.04491
5663.91245,0.05485
5665.84092,0.06320
5667.76939,0.07244
5669.69786,0.06971
5671.62633,0.03747
5673.55480,-0.00380
5675.48326,-0.01107
5677.41173,0.03417
5679.34020,0.09197
5681.26867,0.10881
5683.19714,0.09222
5685.12561,0.08217
5687.05408,0.08682
5688.98254,0.08949
5690.91101,0.07393
5692.83948,0.05356
5694.76795,0.05289
5696.69642,0.06799
5698.62489,0.07645
5700.55336,0.07351
5702.48183,0.08339
5704.41029,0.09834
5706.33876,0.08278
5708.26723,0.06172
5710.19570,0.07525
5712.12417,0.08359
5714.05264,0.05823
5715.98111,0.05101
5717.90957,0.07331
5719.83804,0.09273
5721.76651,0.09993
5723.69498,0.08153
5725.62345,0.04534
5727.55192,0.03375
5729.48039,0.05283
5731.40886,0.06434
5733.33732,0.06337
5735.26579,0.07055
5737.19426,0.07067
5739.12273,0.05073
5741.05120,0.04120
5742.97967,0.05057
5744.90814,0.07005
5746.83660,0.09237
5748.76507,0.09894
5750.69354,0.08612
5752.62201,0.06598
5754.55048,0.04828
5756.47895,0.03283
5758.40742,0.02154
5760.33588,0.02878
5762.26435,0.06506
5764.19282,0.10744
5766.12129,0.11482
5768.04976,0.09006
5769.97823,0.07308
5771.90670,0.08778
5773.83517,0.10302
5775.76363,0.09993
5777.69210,0.10547
5779.62057,0.10903
5781.54904,0.09828
5783.47751,0.09184
5785.40598,0.08557
5787.33445,0.07010
5789.26291,0.06387
5791.19138,0.07981
5793.11985,0.10258
5795.04832,0.11533
5796.97679,0.11617
5798.90526,0.12207
5800.83373,0.12852
5802.76220,0.11655
5804.69066,0.09793
5806.61913,0.06856
5808.54760,0.02883
5810.47607,0.03282
5812.40454,0.08312
5814.33301,0.11307
5816.26148,0.10328
5818.18994,0.08245
5820.11841,0.08984
5822.04688,0.11162
5823.97535,0.09777
5825.90382,0.07773
5827.83229,0.09061
5829.76076,0.11194
5831.68923,0.10641
5833.61769,0.08079
5835.54616,0.06633
5837.47463,0.07191
5839.40310,0.08432
5841.33157,0.09137
5843.26004,0.10271
5845.18851,0.13019
5847.11697,0.14576
5849.04544,0.10914
5850.97391,0.03744
5852.90238,-0.00145
5854.83085,0.02101
5856.75932,0.06919
5858.68779,0.10568
5860.61626,0.12806
5862.54472,0.12502
5864.47319,0.09662
5866.40166,0.08674
5868.33013,0.10660
5870.25860,0.11395
5872.18707,0.09539
5874.11554,0.06595
5876.04400,0.04075
5877.97247,0.04310
5879.90094,0.06250
5881.82941,0.05044
5883.75788,0.01778
5885.68635,0.01644
5887.61482,0.04263
5889.54329,0.06556
5891.47175,0.06672
5893.40022,0.04340
5895.32869,0.01940
5897.25716,0.01774
5899.18563,0.03594
5901.11410,0.06776
5903.04257,0.10854
5904.97103,0.13700
5906.89950,0.14082
5908.82797,0.11091
5910.75644,0.06005
5912.68491,0.05327
5914.61338,0.09534
5916.54185,0.10924
5918.47032,0.08659
5920.39878,0.07944
5922.32725,0.09257
5924.25572,0.10042
5926.18419,0.10370
5928.11266,0.10675
5930.04113,0.09964
5931.96960,0.10835
5933.89806,0.14916
5935.82653,0.17431
5937.75500,0.15739
5939.68347,0.12336
5941.61194,0.10428
5943.54041,0.09257
5945.46888,0.06301
5947.39734,0.04090
5949.32581,0.04805
5951.25428,0.05163
5953.18275,0.02793
5955.11122,0.01514
5957.03969,0.03940
5958.96816,0.06965
5960.89663,0.07526
5962.82509,0.06596
5964.75356,0.06934
5966.68203,0.08683
5968.61050,0.10697
5970.53897,0.14507
5972.46744,0.17413
5974.39591,0.13752
5976.32437,0.06830
5978.25284,0.02683
5980.18131,0.02833
5982.10978,0.05377
5984.03825,0.07087
5985.96672,0.08875
5987.89519,0.12390
5989.82366,0.13624
5991.75212,0.10125
5993.68059,0.06229
5995.60906,0.06021
5997.53753,0.08150
5999.46600,0.09118
6001.39447,0.08282
6003.32294,0.08554
6005.25140,0.10503
6007.17987,0.10183
6009.10834,0.08162
6011.03681,0.08423
6012.96528,0.10303
6014.89375,0.11954
6016.82222,0.12206
6018.75069,0.11102
6020.67915,0.10533
6022.60762,0.08680
6024.53609,0.06178
6026.46456,0.06249
6028.39303,0.06543
6030.32150,0.04963
6032.24997,0.03912
6034.17843,0.02335
6036.10690,-0.02305
6038.03537,-0.05479
6039.96384,-0.02626
6041.89231,0.04631
6043.82078,0.09733
6045.74925,0.07708
6047.67772,0.03287
6049.60618,0.01229
6051.53465,0.00250
6053.46312,0.01368
6055.39159,0.03911
6057.32006,0.04275
6059.24853,0.05931
6061.17700,0.10103
6063.10546,0.11416
6065.03393,0.09500
6066.96240,0.10195
6068.89087,0.13703
6070.81934,0.14396
6072.74781,0.13090
6074.67628,0.12648
6076.60475,0.11806
6078.53321,0.08693
6080.46168,0.03376
6082.39015,0.00523
6084.31862,0.02625
6086.24709,0.06510
6088.17556,0.07075
6090.10403,0.03232
6092.03249,0.00504
6093.96096,0.03306
6095.88943,0.08276
6097.81790,0.08137
6099.74637,0.03067
6101.67484,0.01918
6103.60331,0.07572
6105.53177,0.14072
6107.46024,0.13177
6109.38871,0.04461
6111.31718,-0.00186
6113.24565,0.01696
6115.17412,0.03116
6117.10259,0.03019
6119.03106,0.04441
6120.95952,0.09425
6122.88799,0.13473
6124.81646,0.13053
6126.74493,0.12704
6128.67340,0.12622
6130.60187,0.06519
6132.53034,0.01268
6134.45880,0.04533
6136.38727,0.08840
6138.31574,0.08439
6140.24421,0.06408
6142.17268,0.05036
6144.10115,0.03574
6146.02962,0.03320
6147.95809,0.05392
6149.88655,0.07961
6151.81502,0.09482
6153.74349,0.08790
6155.67196,0.06799
6157.60043,0.06069
6159.52890,0.07660
6161.45737,0.10753
6163.38583,0.12882
6165.31430,0.11292
6167.24277,0.09313
6169.17124,0.12629
6171.09971,0.15349
6173.02818,0.10641
6174.95665,0.05471
6176.88512,0.06415
6178.81358,0.09870
6180.74205,0.10973
6182.67052,0.12120
6184.59899,0.13067
6186.52746,0.11911
6188.45593,0.12558
6190.38440,0.13400
6192.31286,0.10096
6194.24133,0.04801
6196.16980,0.01267
6198.09827,0.00637
6200.02674,0.01031
6201.95521,0.02281
6203.88368,0.05526
6205.81215,0.07204
6207.74061,0.05310
6209.66908,0.04361
6211.59755,0.05931
6213.52602,0.07415
6215.45449,0.07528
6217.38296,0.06008
6219.31143,0.06216
6221.23989,0.09274
6223.16836,0.10630
6225.09683,0.08932
6227.02530,0.09037
6228.95377,0.10729
6230.88224,0.09182
6232.81071,0.05276
6234.73918,0.02271
6236.66764,0.02512
6238.59611,0.07357
6240.52458,0.12210
6242.45305,0.13617
6244.38152,0.13438
6246.30999,0.11675
6248.23846,0.09826
6250.16692,0.12728
6252.09539,0.17936
6254.02386,0.16985
6255.95233,0.10492
6257.88080,0.04397
6259.80927,0.02567
6261.73774,0.06440
6263.66621,0.10612
6265.59467,0.09723
6267.52314,0.09076
6269.45161,0.12501
6271.38008,0.15555
6273.30855,0.14725
6275.23702,0.11532
6277.16549,0.10327
6279.09395,0.10394
6281.02242,0.07099
6282.95089,0.03993
6284.87936,0.06416
6286.80783,0.08923
6288.73630,0.07345
6290.66477,0.05225
6292.59323,0.06485
6294.52170,0.10479
6296.45017,0.13978
6298.37864,0.16179
6300.30711,0.17501
6302.23558,0.13732
6304.16405,0.06041
6306.09252,0.02310
6308.02098,0.03621
6309.94945,0.07432
6311.87792,0.09175
6313.80639,0.08654
6315.73486,0.08884
6317.66333,0.06413
6319.59180,0.02203
6321.52026,0.03258
6323.44873,0.10015
6325.37720,0.14654
6327.30567,0.12993
6329.23414,0.07385
6331.16261,0.02043
6333.09108,-0.00614
6335.01955,-0.00478
6336.94801,0.02037
6338.87648,0.03942
6340.80495,0.06163
6342.73342,0.11221
6344.66189,0.14564
6346.59036,0.12929
6348.51883,0.08234
6350.44729,0.04341
6352.37576,0.04966
6354.30423,0.11041
6356.23270,0.19753
6358.16117,0.24469
6360.08964,0.22179
6362.01811,0.16636
6363.94658,0.14185
6365.87504,0.18236
6367.80351,0.22781
6369.73198,0.23207
6371.66045,0.20931
6373.58892,0.15205
6375.51739,0.08287
6377.44586,0.05750
6379.37432,0.07138
6381.30279,0.07682
6383.23126,0.06946
6385.15973,0.06273
6387.08820,0.04236
6389.01667,-0.00751
6390.94514,-0.06692
6392.87361,-0.07441
6394.80207,-0.03303
6396.73054,0.00598
6398.65901,0.04149
6400.58748,0.04573
6402.51595,0.01562
6404.44442,0.03185
6406.37289,0.08048
6408.30135,0.05825
6410.22982,-0.00272
6412.15829,-0.00619
6414.08676,0.02978
6416.01523,0.02762
6417.94370,-0.01082
6419.87217,-0.02527
6421.80064,-0.03469
6423.72910,-0.03174
6425.65757,0.04646
6427.58604,0.14281
6429.51451,0.16142
6431.44298,0.12116
6433.37145,0.06983
6435.29992,0.02170
6437.22838,0.00726
6439.15685,0.03547
6441.08532,0.09288
6443.01379,0.14862
6444.94226,0.14813
6446.87073,0.14431
6448.79920,0.16338
6450.72766,0.13500
6452.65613,0.07136
6454.58460,0.02869
6456.51307,0.00431
6458.44154,0.00875
6460.37001,0.09333
6462.29848,0.19008
6464.22695,0.18107
6466.15541,0.14892
6468.08388,0.17717
6470.01235,0.19454
6471.94082,0.13792
6473.86929,0.06208
6475.79776,0.04861
6477.72623,0.05131
6479.65469,0.02710
6481.58316,0.06033
6483.51163,0.17096
6485.44010,0.26268
6487.36857,0.27221
6489.29704,0.22058
6491.22551,0.15777
6493.15398,0.09309
6495.08244,0.05100
6497.01091,0.07797
6498.93938,0.11937
6500.86785,0.08736
6502.79632,0.04838
6504.72479,0.10343
6506.65326,0.20130
6508.58172,0.22211
6510.51019,0.13588
6512.43866,0.05500
6514.36713,0.06017
6516.29560,0.06834
6518.22407,0.00315
6520.15254,-0.03995
6522.08101,-0.00749
6524.00947,0.01187
6525.93794,0.02086
6527.86641,0.09477
6529.79488,0.16767
6531.72335,0.16724
6533.65182,0.10045
6535.58029,-0.01087
6537.50875,-0.07891
6539.43722,-0.06416
6541.36569,-0.05369
6543.29416,-0.02283
6545.22263,0.07283
6547.15110,0.13586
6549.07957,0.10693
6551.00804,0.03014
6552.93650,0.00253
6554.86497,0.05926
6556.79344,0.15233
6558.72191,0.22148
6560.65038,0.22768
6562.57885,0.16313
6564.50732,0.08068
6566.43578,0.03350
6568.36425,0.02158
6570.29272,0.05092
6572.22119,0.12364
6574.14966,0.18252
6576.07813,0.15367
6578.00660,0.08829
6579.93507,0.09755
6581.86353,0.14975
6583.79200,0.15093
6585.72047,0.09371
6587.64894,0.03819
6589.57741,0.03252
6591.50588,0.07117
6593.43435,0.10158
6595.36281,0.09580
6597.29128,0.08864
6599.21975,0.09894
6601.14822,0.13505
6603.07669,0.13759
6605.00516,0.06818
6606.93363,0.02022
6608.86210,0.00437
6610.79056,-0.00157
6612.71903,0.06766
6614.64750,0.12151
6616.57597,0.07246
6618.50444,0.01366
6620.43291,0.00197
6622.36138,0.05414
6624.28984,0.13326
6626.21831,0.14549
6628.14678,0.11093
6630.07525,0.11817
6632.00372,0.16866
6633.93219,0.20444
6635.86066,0.18798
6637.78912,0.10199
6639.71759,-0.02310
6641.64606,-0.11923
6643.57453,-0.11888
6645.50300,-0.01366
6647.43147,0.07344
6649.35994,0.03161
6651.28841,-0.03445
6653.21687,-0.02997
6655.14534,-0.00678
6657.07381,-0.01573
6659.00228,-0.02025
6660.93075,0.02545
6662.85922,0.06473
6664.78769,0.04758
6666.71615,0.04617
6668.64462,0.12129
6670.57309,0.20654
6672.50156,0.19070
6674.43003,0.09528
6676.35850,0.07658
6678.28697,0.13280
6680.21544,0.13451
6682.14390,0.10610
6684.07237,0.09148
6686.00084,0.05579
6687.92931,0.07533
6689.85778,0.14709
6691.78625,0.15074
6693.71472,0.15489
6695.64318,0.18452
6697.57165,0.13852
6699.50012,0.04835
6701.42859,-0.01431
6703.35706,-0.05872
6705.28553,-0.04378
6707.21400,0.04929
6709.14247,0.12362
6711.07093,0.10306
6712.99940,0.05463
6714.92787,0.05618
6716.85634,0.06877
6718.78481,0.05538
6720.71328,0.05640
6722.64175,0.06130
6724.57021,0.02843
6726.49868,-0.00706
6728.42715,-0.00349
6730.35562,0.03635
6732.28409,0.09530
6734.21256,0.14930
6736.14103,0.17300
6738.06950,0.13392
6739.99796,0.05257
6741.92643,0.04753
6743.85490,0.11829
6745.78337,0.12868
6747.71184,0.07902
6749.64031,0.05578
6751.56878,0.06671
6753.49724,0.07806
6755.42571,0.06105
6757.35418,0.01196
6759.28265,-0.03421
6761.21112,-0.03562
6763.13959,0.03402
6765.06806,0.16124
6766.99653,0.28597
6768.92499,0.35811
6770.85346,0.34378
6772.78193,0.22218
6774.71040,0.07388
6776.63887,-0.02405
6778.56734,-0.10003
6780.49581,-0.16190
6782.42427,-0.17167
6784.35274,-0.11679
6786.28121,-0.05265
6788.20968,0.01525
6790.13815,0.11731
6792.06662,0.14014
6793.99509,0.07304
6795.92355,0.04090
6797.85202,0.06881
6799.78049,0.10528
6801.70896,0.08404
6803.63743,-0.00275
6805.56590,-0.06111
6807.49437,-0.04320
6809.42284,-0.00117
6811.35130,0.07683
6813.27977,0.17428
6815.20824,0.21669
6817.13671,0.23710
6819.06518,0.23375
6820.99365,0.15320
6822.92212,0.04068
6824.85058,0.02715
6826.77905,0.09836
6828.70752,0.13574
6830.63599,0.07064
6832.56446,-0.04890
6834.49293,-0.13018
6836.42140,-0.06443
6838.34987,0.07168
6840.27833,0.09503
6842.20680,0.05166
6844.13527,0.04895
6846.06374,0.10010
6847.99221,0.12903
6849.92068,0.02365
6851.84915,-0.09188
6853.77761,-0.09613
6855.70608,-0.03806
6857.63455,0.03758
6859.56302,0.05621
6861.49149,0.00272
6863.41996,-0.01052
6865.34843,0.03466
6867.27690,0.07838
6869.20536,0.09069
6871.13383,0.05920
6873.06230,0.02478
6874.99077,0.02485
6876.91924,-0.00756
6878.84771,-0.06476
6880.77618,-0.07862
6882.70464,-0.08322
6884.63311,-0.07951
6886.56158,-0.03747
6888.49005,0.03554
6890.41852,0.11977
6892.34699,0.14885
6894.27546,0.13245
6896.20393,0.17966
6898.13239,0.19552
6900.06086,0.06276
6901.98933,-0.08141
6903.91780,-0.13515
6905.84627,-0.06279
6907.77474,0.07081
6909.70321,0.09125
6911.63167,-0.03463
6913.56014,-0.14815
6915.48861,-0.10372
6917.41708,0.06402
6919.34555,0.17432
6921.27402,0.16770
6923.20249,0.20682
6925.13096,0.27233
6927.05942,0.24860
6928.98789,0.19922
6930.91636,0.23774
6932.84483,0.24488
6934.77330,0.17515
6936.70177,0.20008
6938.63024,0.32823
6940.55870,0.42201
6942.48717,0.39265
6944.41564,0.24042
6946.34411,0.07922
6948.27258,0.06748
6950.20105,0.11202
6952.12952,0.07807
6954.05799,-0.01830
6955.98645,-0.08207
6957.91492,-0.01777
6959.84339,0.11184
6961.77186,0.14766
6963.70033,0.05089
6965.62880,-0.09444
6967.55727,-0.17094
6969.48573,-0.04153
6971.41420,0.19389
6973.34267,0.27955
6975.27114,0.18042
6977.19961,0.09472
6979.12808,0.07928
6981.05655,-0.01742
6982.98501,-0.16921
6984.91348,-0.16279
6986.84195,-0.05847
6988.77042,-0.02475
6990.69889,0.00377
6992.62736,0.02782
6994.55583,-0.03755
6996.48430,-0.09920
6998.41276,-0.05178
7000.34123,0.05463
7002.26970,0.14087
7004.19817,0.10507
7006.12664,-0.04653
7008.05511,-0.10563
7009.98358,-0.00668
7011.91204,0.08167
7013.84051,0.07630
7015.76898,0.04478
7017.69745,0.05420
7019.62592,0.10711
7021.55439,0.16185
7023.48286,0.13409
7025.41133,0.04989
7027.33979,0.06336
7029.26826,0.15629
7031.19673,0.19013
7033.12520,0.20532
7035.05367,0.25570
7036.98214,0.26032
7038.91061,0.15709
7040.83907,0.03424
7042.76754,0.00711
7044.69601,0.01476
7046.62448,0.00317
7048.55295,0.02999
7050.48142,0.02369
7052.40989,-0.03545
7054.33836,-0.04448
7056.26682,0.01407
7058.19529,0.05395
7060.12376,0.08512
7062.05223,0.17751
7063.98070,0.21923
7065.90917,0.12950
7067.83764,0.01746
7069.76610,0.00366
7071.69457,0.13469
7073.62304,0.19190
7075.55151,0.12704
7077.47998,0.14879
7079.40845,0.21246
7081.33692,0.11574
7083.26539,-0.00355
7085.19385,0.03310
7087.12232,0.10211
7089.05079,0.10019
7090.97926,0.10834
7092.90773,0.14168
7094.83620,0.19284
7096.76467,0.31942
7098.69313,0.37713
7100.62160,0.23626
7102.55007,0.11656
7104.47854,0.09871
7106.40701,0.06743
7108.33548,0.04805
7110.26395,0.10422
7112.19242,0.15726
7114.12088,0.17207
7116.04935,0.16035
7117.97782,0.04518
7119.90629,-0.13324
7121.83476,-0.16746
7123.76323,-0.04940
7125.69170,0.04315
7127.62016,0.07157
7129.54863,0.11536
7131.47710,0.16588
7133.40557,0.20986
7135.33404,0.24702
7137.26251,0.24650
7139.19098,0.16208
7141.11944,0.05228
7143.04791,0.02398
7144.97638,0.00573
7146.90485,-0.10131
7148.83332,-0.19896
7150.76179,-0.19076
7152.69026,-0.08664
7154.61873,0.09664
7156.54719,0.23151
7158.47566,0.14690
7160.40413,-0.00488
7162.33260,0.01696
7164.26107,0.09857
7166.18954,0.05794
7168.11801,-0.05247
7170.04647,-0.13183
7171.97494,-0.13320
7173.90341,-0.07790
7175.83188,0.02899
7177.76035,0.15414
7179.68882,0.22623
7181.61729,0.28120
7183.54576,0.29129
7185.47422,0.12853
7187.40269,-0.08088
7189.33116,-0.12058
7191.25963,-0.01976
7193.18810,0.02615
7195.11657,0.07420
7197.04504,0.15533
7198.97350,0.14997
7200.90197,0.09922
7202.83044,0.09926
7204.75891,0.13553
7206.68738,0.13581
7208.61585,0.14761
7210.54432,0.20780
7212.47279,0.27259
7214.40125,0.25891
7216.32972,0.13189
7218.25819,0.08500
7220.18666,0.13821
7222.11513,0.09063
7224.04360,0.02218
7225.97207,0.03978
7227.90053,0.14784
7229.82900,0.25499
7231.75747,0.16668
7233.68594,-0.05828
7235.61441,-0.15007
7237.54288,-0.08963
7239.47135,-0.03017
7241.39982,-0.00934
7243.32828,0.03175
7245.25675,0.09741
7247.18522,0.13101
7249.11369,0.05459
7251.04216,-0.05529
7252.97063,-0.01320
7254.89910,0.08717
7256.82756,0.11893
7258.75603,0.17100
7260.68450,0.22392
7262.61297,0.14657
7264.54144,0.04935
7266.46991,0.07088
7268.39838,0.08788
7270.32685,-0.00683
7272.25531,-0.14062
7274.18378,-0.08138
7276.11225,0.10047
7278.04072,0.21747
7279.96919,0.24801
7281.89766,0.23705
7283.82613,0.21220
7285.75459,0.24483
7287.68306,0.33280
7289.61153,0.40037
7291.54000,0.38310
7293.46847,0.27963
7295.39694,0.20181
7297.32541,0.14906
7299.25387,0.02701
7301.18234,-0.09086
7303.11081,-0.07166
7305.03928,0.01257
7306.96775,0.06692
7308.89622,0.20979
7310.82469,0.31397
7312.75316,0.23310
7314.68162,0.08647
7316.61009,-0.04426
7318.53856,-0.00990
7320.46703,0.15830
7322.39550,0.20677
7324.32397,0.05994
7326.25244,-0.07316
7328.18090,-0.03867
7330.10937,0.15368
7332.03784,0.28306
7333.96631,0.24905
7335.89478,0.15974
7337.82325,0.04834
7339.75172,-0.13404
7341.68019,-0.21051
7343.60865,-0.18988
7345.53712,-0.20794
7347.46559,-0.10780
7349.39406,0.13724
7351.32253,0.18717
7353.25100,0.02486
7355.17947,-0.01015
7357.10793,0.20587
7359.03640,0.37412
7360.96487,0.19990
7362.89334,0.09862
7364.82181,0.26807
7366.75028,0.32548
7368.67875,0.18566
7370.60722,0.11848
7372.53568,0.19245
7374.46415,0.24428
7376.39262,0.10948
7378.32109,-0.02903
7380.24956,-0.09515
7382.17803,-0.18342
7384.10650,-0.33828
7386.03496,-0.42937
7387.96343,-0.31527
7389.89190,-0.17476
7391.82037,-0.07396
7393.74884,0.10422
7395.67731,0.21084
7397.60578,0.16989
7399.53425,0.16369
7401.46271,0.22433
7403.39118,0.27602
7405.31965,0.27781
7407.24812,0.25283
7409.17659,0.17012
7411.10506,0.04287
7413.03353,-0.00216
7414.96199,0.01114
7416.89046,-0.10071
7418.81893,-0.31075
7420.74740,-0.26644
7422.67587,-0.07945
7424.60434,0.10649
7426.53281,0.28068
7428.46128,0.28592
7430.38974,0.05948
7432.31821,-0.15583
7434.24668,-0.17304
7436.17515,0.03623
7438.10362,0.20773
7440.03209,0.16655
7441.96056,0.17962
7443.88902,0.26418
7445.81749,0.12553
7447.74596,-0.14172
7449.67443,-0.22444
7451.60290,-0.08908
7453.53137,0.08225
7455.45984,0.16340
7457.38831,0.13915
7459.31677,0.06033
7461.24524,0.01326
7463.17371,0.06004
7465.10218,0.16164
7467.03065,0.21934
7468.95912,0.14512
7470.88759,0.01828
7472.81605,0.06279
7474.74452,0.16679
7476.67299,0.03568
7478.60146,-0.18934
7480.52993,-0.14386
7482.45840,-0.00340
7484.38687,0.04144
7486.31533,0.11848
7488.24380,0.13037
7490.17227,-0.00884
7492.10074,-0.07288
7494.02921,0.02741
7495.95768,0.10510
7497.88615,0.09821
