399.19301,-0.02795
401.12148,0.08834
403.04995,-0.05877
404.97842,0.01293
406.90689,0.12113
408.83536,0.08872
410.76382,-0.01262
412.69229,-0.04067
414.62076,0.00991
416.54923,0.11078
418.47770,0.14394
420.40617,0.10480
422.33464,0.14921
424.26311,0.14427
426.19157,0.03547
428.12004,-0.06642
430.04851,-0.05147
431.97698,0.03755
433.90545,0.02034
435.83392,-0.07821
437.76239,-0.12261
439.69085,-0.04964
441.61932,0.06637
443.54779,0.08033
445.47626,0.01714
447.40473,-0.02310
449.33320,-0.02694
451.26167,0.01414
453.19013,0.03755
455.11860,0.00252
457.04707,-0.08876
458.97554,-0.17710
460.90401,-0.15769
462.83248,-0.06716
464.76095,0.03920
466.68942,0.11051
468.61788,0.11860
470.54635,0.44679
472.47482,2.62522
474.40329,5.36521
476.33176,3.55918
478.26023,1.07578
480.18870,0.21037
482.11716,0.10929
484.04563,0.06793
485.97410,0.06001
487.90257,0.08626
489.83104,0.10171
491.75951,0.10544
493.68798,0.10513
495.61645,0.09999
497.54491,0.10818
499.47338,0.11938
501.40185,0.10770
503.33032,0.09091
505.25879,0.09913
507.18726,0.09372
509.11573,0.06158
511.04419,0.05782
512.97266,0.08195
514.90113,0.08856
516.82960,0.07865
518.75807,0.07302
520.68654,0.05340
522.61501,0.03183
524.54348,0.03181
526.47194,0.03299
528.40041,0.04878
530.32888,0.10099
532.25735,0.13174
534.18582,0.12268
536.11429,0.13228
538.04276,0.15489
539.97122,0.15890
541.89969,0.14744
543.82816,0.13023
545.75663,0.12464
547.68510,0.12545
549.61357,0.13630
551.54204,0.20308
553.47051,0.27402
555.39897,0.22926
557.32744,0.12056
559.25591,0.07633
561.18438,0.09134
563.11285,0.12979
565.04132,0.15799
566.96979,0.13923
568.89825,0.10303
570.82672,0.08183
572.75519,0.06492
574.68366,0.05145
576.61213,0.04822
578.54060,0.05089
580.46907,0.06278
582.39754,0.07635
584.32600,0.08488
586.25447,0.10414
588.18294,0.11557
590.11141,0.09832
592.03988,0.08531
593.96835,0.08144
595.89682,0.06532
597.82528,0.07118
599.75375,0.10808
601.68222,0.12575
603.61069,0.11707
605.53916,0.11998
607.46763,0.13203
609.39610,0.13056
611.32456,0.12019
613.25303,0.10613
615.18150,0.09556
617.10997,0.10618
619.03844,0.12417
620.96691,0.13073
622.89538,0.13509
624.82385,0.14025
626.75231,0.13936
628.68078,0.13541
630.60925,0.13723
632.53772,0.13584
634.46619,0.12409
636.39466,0.11084
638.32313,0.10500
640.25159,0.11593
642.18006,0.12607
644.10853,0.12267
646.03700,0.12189
647.96547,0.12690
649.89394,0.13660
651.82241,0.13668
653.75088,0.10929
655.67934,0.08519
657.60781,0.09708
659.53628,0.12015
661.46475,0.12862
663.39322,0.13794
665.32169,0.14993
667.25016,0.14288
669.17862,0.13401
671.10709,0.15236
673.03556,0.16028
674.96403,0.15218
676.89250,0.14854
678.82097,0.15179
680.74944,0.14202
682.67791,0.11717
684.60637,0.09790
686.53484,0.10029
688.46331,0.11554
690.39178,0.12846
692.32025,0.13889
694.24872,0.14152
696.17719,0.13218
698.10565,0.12172
700.03412,0.12623
701.96259,0.13957
703.89106,0.14410
705.81953,0.14292
707.74800,0.14064
709.67647,0.13886
711.60494,0.14209
713.53340,0.14606
715.46187,0.14299
717.39034,0.13584
719.31881,0.13364
721.24728,0.13986
723.17575,0.15012
725.10422,0.15582
727.03268,0.15551
728.96115,0.14738
730.88962,0.13312
732.81809,0.12658
734.74656,0.13242
736.67503,0.13848
738.60350,0.13483
740.53197,0.12990
742.46043,0.13958
744.38890,0.15505
746.31737,0.15326
748.24584,0.14056
750.17431,0.13480
752.10278,0.13608
754.03125,0.13349
755.95971,0.12372
757.88818,0.12086
759.81665,0.12649
761.74512,0.13545
763.67359,0.14967
765.60206,0.15628
767.53053,0.14779
769.45900,0.13844
771.38746,0.13526
773.31593,0.13304
775.24440,0.13168
777.17287,0.13533
779.10134,0.14177
781.02981,0.14200
782.95828,0.13789
784.88674,0.14053
786.81521,0.14779
788.74368,0.14517
790.67215,0.13064
792.60062,0.11798
794.52909,0.11709
796.45756,0.12606
798.38602,0.13537
800.31449,0.13955
802.24296,0.13893
804.17143,0.13811
806.09990,0.13858
808.02837,0.13571
809.95684,0.13485
811.88531,0.13730
813.81377,0.13554
815.74224,0.13679
817.67071,0.14785
819.59918,0.15650
821.52765,0.15542
823.45612,0.15479
825.38459,0.15780
827.31305,0.15410
829.24152,0.14615
831.16999,0.14760
833.09846,0.15696
835.02693,0.16101
836.95540,0.15412
838.88387,0.14674
840.81234,0.14693
842.74080,0.14678
844.66927,0.14260
846.59774,0.14054
848.52621,0.14457
850.45468,0.15002
852.38315,0.15112
854.31162,0.15143
856.24008,0.14986
858.16855,0.14185
860.09702,0.13502
862.02549,0.13688
863.95396,0.14331
865.88243,0.15294
867.81090,0.16791
869.73937,0.17813
871.66783,0.17039
873.59630,0.15281
875.52477,0.14600
877.45324,0.15093
879.38171,0.15386
881.31018,0.15043
883.23865,0.14545
885.16711,0.14792
887.09558,0.15774
889.02405,0.15820
890.95252,0.14576
892.88099,0.14029
894.80946,0.14630
896.73793,0.14805
898.66640,0.14536
900.59486,0.14732
902.52333,0.15177
904.45180,0.15329
906.38027,0.15185
908.30874,0.14960
910.23721,0.14865
912.16568,0.14970
914.09414,0.14975
916.02261,0.14602
917.95108,0.13869
919.87955,0.13026
921.80802,0.12605
923.73649,0.13219
925.66496,0.14359
927.59343,0.14555
929.52189,0.13717
931.45036,0.13298
933.37883,0.13829
935.30730,0.14127
937.23577,0.13718
939.16424,0.13695
941.09271,0.14328
943.02117,0.14497
944.94964,0.14078
946.87811,0.13715
948.80658,0.13247
950.73505,0.13459
952.66352,0.14769
954.59199,0.15781
956.52045,0.15650
958.44892,0.14695
960.37739,0.14202
962.30586,0.14629
964.23433,0.14755
966.16280,0.14603
968.09127,0.15104
970.01974,0.15440
971.94820,0.14944
973.87667,0.14650
975.80514,0.14913
977.73361,0.15536
979.66208,0.16167
981.59055,0.16071
983.51902,0.15545
985.44748,0.15255
987.37595,0.15441
989.30442,0.16037
991.23289,0.16650
993.16136,0.16903
995.08983,0.16557
997.01830,0.15857
998.94677,0.15214
1000.87523,0.14660
1002.80370,0.14538
1004.73217,0.15216
1006.66064,0.16024
1008.58911,0.16036
1010.51758,0.15268
1012.44605,0.14575
1014.37451,0.14184
1016.30298,0.13771
1018.23145,0.14121
1020.15992,0.15620
1022.08839,0.16564
1024.01686,0.15717
1025.94533,0.14482
1027.87380,0.14009
1029.80226,0.13878
1031.73073,0.14362
1033.65920,0.15258
1035.58767,0.15366
1037.51614,0.15364
1039.44461,0.15864
1041.37308,0.15344
1043.30154,0.14322
1045.23001,0.14803
1047.15848,0.15792
1049.08695,0.15734
1051.01542,0.15249
1052.94389,0.15259
1054.87236,0.15643
1056.80083,0.16024
1058.72929,0.16729
1060.65776,0.17353
1062.58623,0.16712
1064.51470,0.15481
1066.44317,0.14972
1068.37164,0.15229
1070.30011,0.16202
1072.22857,0.17238
1074.15704,0.17531
1076.08551,0.17454
1078.01398,0.17147
1079.94245,0.16185
1081.87092,0.15122
1083.79939,0.15147
1085.72786,0.16301
1087.65632,0.17274
1089.58479,0.17272
1091.51326,0.16932
1093.44173,0.16742
1095.37020,0.16555
1097.29867,0.16515
1099.22714,0.16610
1101.15560,0.16509
1103.08407,0.16471
1105.01254,0.16763
1106.94101,0.16657
1108.86948,0.15962
1110.79795,0.15326
1112.72642,0.14913
1114.65489,0.14732
1116.58335,0.14784
1118.51182,0.15099
1120.44029,0.15527
1122.36876,0.15782
1124.29723,0.15876
1126.22570,0.15686
1128.15417,0.15623
1130.08263,0.15835
1132.01110,0.15488
1133.93957,0.14972
1135.86804,0.15085
1137.79651,0.15504
1139.72498,0.15801
1141.65345,0.15998
1143.58191,0.16453
1145.51038,0.17097
1147.43885,0.17426
1149.36732,0.17234
1151.29579,0.16833
1153.22426,0.16819
1155.15273,0.17336
1157.08120,0.17913
1159.00966,0.17998
1160.93813,0.17429
1162.86660,0.16800
1164.79507,0.16774
1166.72354,0.16814
1168.65201,0.16381
1170.58048,0.16101
1172.50894,0.16268
1174.43741,0.16253
1176.36588,0.16012
1178.29435,0.16446
1180.22282,0.17182
1182.15129,0.17134
1184.07976,0.16731
1186.00823,0.16613
1187.93669,0.16885
1189.86516,0.17493
1191.79363,0.17892
1193.72210,0.17726
1195.65057,0.17319
1197.57904,0.17052
1199.50751,0.17035
1201.43597,0.17155
1203.36444,0.17073
1205.29291,0.16660
1207.22138,0.16126
1209.14985,0.15819
1211.07832,0.16139
1213.00679,0.16597
1214.93526,0.16350
1216.86372,0.15989
1218.79219,0.16334
1220.72066,0.16869
1222.64913,0.17066
1224.57760,0.17172
1226.50607,0.17316
1228.43454,0.17533
1230.36300,0.17865
1232.29147,0.17686
1234.21994,0.16809
1236.14841,0.16169
1238.07688,0.16153
1240.00535,0.16493
1241.93382,0.16899
1243.86229,0.16864
1245.79075,0.16465
1247.71922,0.16201
1249.64769,0.16065
1251.57616,0.15989
1253.50463,0.16043
1255.43310,0.16116
1257.36157,0.16128
1259.29003,0.16038
1261.21850,0.15937
1263.14697,0.16163
1265.07544,0.16609
1267.00391,0.16783
1268.93238,0.16769
1270.86085,0.17093
1272.78932,0.17544
1274.71778,0.17438
1276.64625,0.17119
1278.57472,0.17188
1280.50319,0.17212
1282.43166,0.17022
1284.36013,0.17066
1286.28860,0.17062
1288.21706,0.16847
1290.14553,0.16852
1292.07400,0.16993
1294.00247,0.17055
1295.93094,0.16900
1297.85941,0.16405
1299.78788,0.15650
1301.71634,0.14492
1303.64481,0.13308
1305.57328,0.13650
1307.50175,0.15632
1309.43022,0.17146
1311.35869,0.17525
1313.28716,0.17585
1315.21563,0.17440
1317.14409,0.17198
1319.07256,0.17008
1321.00103,0.16929
1322.92950,0.17137
1324.85797,0.17171
1326.78644,0.16850
1328.71491,0.16797
1330.64337,0.16690
1332.57184,0.16227
1334.50031,0.15928
1336.42878,0.15760
1338.35725,0.15805
1340.28572,0.15813
1342.21419,0.14932
1344.14266,0.13448
1346.07112,0.12636
1347.99959,0.13730
1349.92806,0.15737
1351.85653,0.16647
1353.78500,0.16589
1355.71347,0.16551
1357.64194,0.16691
1359.57040,0.16939
1361.49887,0.17406
1363.42734,0.17790
1365.35581,0.17730
1367.28428,0.17545
1369.21275,0.17433
1371.14122,0.17586
1373.06969,0.18140
1374.99815,0.18405
1376.92662,0.17965
1378.85509,0.17616
1380.78356,0.17613
1382.71203,0.17729
1384.64050,0.18174
1386.56897,0.18790
1388.49743,0.18733
1390.42590,0.18239
1392.35437,0.18105
1394.28284,0.18377
1396.21131,0.18691
1398.13978,0.18711
1400.06825,0.18376
1401.99672,0.17854
1403.92518,0.17309
1405.85365,0.17211
1407.78212,0.17776
1409.71059,0.18153
1411.63906,0.17782
1413.56753,0.17425
1415.49600,0.17951
1417.42446,0.19034
1419.35293,0.19318
1421.28140,0.18615
1423.20987,0.17972
1425.13834,0.17563
1427.06681,0.17553
1428.99528,0.17819
1430.92375,0.18002
1432.85221,0.18212
1434.78068,0.18793
1436.70915,0.19391
1438.63762,0.19102
1440.56609,0.18475
1442.49456,0.18067
1444.42303,0.18097
1446.35149,0.18598
1448.27996,0.19061
1450.20843,0.19182
1452.13690,0.19382
1454.06537,0.20298
1455.99384,0.22179
1457.92231,0.22225
1459.85077,0.20106
1461.77924,0.19513
1463.70771,0.19859
1465.63618,0.19479
1467.56465,0.18764
1469.49312,0.18953
1471.42159,0.20088
1473.35006,0.21091
1475.27852,0.20738
1477.20699,0.20060
1479.13546,0.19756
1481.06393,0.19540
1482.99240,0.19357
1484.92087,0.19683
1486.84934,0.20505
1488.77780,0.20902
1490.70627,0.19835
1492.63474,0.18696
1494.56321,0.18561
1496.49168,0.18930
1498.42015,0.19056
1500.34862,0.18981
1502.27709,0.19283
1504.20555,0.20431
1506.13402,0.22448
1508.06249,0.22946
1509.99096,0.21765
1511.91943,0.20758
1513.84790,0.20327
1515.77637,0.20600
1517.70483,0.20898
1519.63330,0.21134
1521.56177,0.21963
1523.49024,0.22262
1525.41871,0.21480
1527.34718,0.20484
1529.27565,0.19893
1531.20412,0.19873
1533.13258,0.20547
1535.06105,0.21411
1536.98952,0.22077
1538.91799,0.23168
1540.84646,0.24311
1542.77493,0.23726
1544.70340,0.21860
1546.63186,0.20203
1548.56033,0.19737
1550.48880,0.19984
1552.41727,0.20096
1554.34574,0.20012
1556.27421,0.20352
1558.20268,0.21601
1560.13115,0.20983
1562.05961,0.19506
1563.98808,0.19264
1565.91655,0.19661
1567.84502,0.19885
1569.77349,0.19624
1571.70196,0.19403
1573.63043,0.19600
1575.55889,0.19593
1577.48736,0.18893
1579.41583,0.18389
1581.34430,0.18256
1583.27277,0.18306
1585.20124,0.18424
1587.12971,0.18406
1589.05818,0.18276
1590.98664,0.18254
1592.91511,0.18257
1594.84358,0.18167
1596.77205,0.18088
1598.70052,0.18143
1600.62899,0.18489
1602.55746,0.18840
1604.48592,0.18758
1606.41439,0.18473
1608.34286,0.18275
1610.27133,0.18249
1612.19980,0.18443
1614.12827,0.19015
1616.05674,0.19822
1617.98521,0.19586
1619.91367,0.19069
1621.84214,0.19577
1623.77061,0.20220
1625.69908,0.19946
1627.62755,0.19432
1629.55602,0.19190
1631.48449,0.19387
1633.41295,0.20005
1635.34142,0.20660
1637.26989,0.20299
1639.19836,0.19579
1641.12683,0.19486
1643.05530,0.20246
1644.98377,0.21787
1646.91223,0.23052
1648.84070,0.22593
1650.76917,0.22223
1652.69764,0.22702
1654.62611,0.21773
1656.55458,0.20447
1658.48305,0.20221
1660.41152,0.20694
1662.33998,0.20875
1664.26845,0.20367
1666.19692,0.20398
1668.12539,0.21279
1670.05386,0.21686
1671.98233,0.21261
1673.91080,0.21059
1675.83926,0.20511
1677.76773,0.19888
1679.69620,0.20003
1681.62467,0.20582
1683.55314,0.21429
1685.48161,0.21764
1687.41008,0.21266
1689.33855,0.20746
1691.26701,0.20397
1693.19548,0.20542
1695.12395,0.21356
1697.05242,0.22197
1698.98089,0.22435
1700.90936,0.22295
1702.83783,0.22246
1704.76629,0.22112
1706.69476,0.21089
1708.62323,0.19849
1710.55170,0.19478
1712.48017,0.19917
1714.40864,0.20875
1716.33711,0.21708
1718.26558,0.20814
1720.19404,0.19328
1722.12251,0.18796
1724.05098,0.18861
1725.97945,0.18985
1727.90792,0.19073
1729.83639,0.19210
1731.76486,0.19638
1733.69332,0.20074
1735.62179,0.19562
1737.55026,0.19184
1739.47873,0.19431
1741.40720,0.19772
1743.33567,0.20033
1745.26414,0.20404
1747.19261,0.20853
1749.12107,0.20957
1751.04954,0.20341
1752.97801,0.19729
1754.90648,0.19564
1756.83495,0.19485
1758.76342,0.19299
1760.69189,0.19225
1762.62035,0.19101
1764.54882,0.18931
1766.47729,0.19203
1768.40576,0.19904
1770.33423,0.20782
1772.26270,0.21293
1774.19117,0.20673
1776.11964,0.19819
1778.04810,0.19454
1779.97657,0.19535
1781.90504,0.19635
1783.83351,0.19423
1785.76198,0.19060
1787.69045,0.18943
1789.61892,0.19239
1791.54738,0.19816
1793.47585,0.20208
1795.40432,0.20145
1797.33279,0.20083
1799.26126,0.20173
1801.18973,0.20070
1803.11820,0.19639
1805.04666,0.19223
1806.97513,0.19076
1808.90360,0.19146
1810.83207,0.19218
1812.76054,0.19131
1814.68901,0.18867
1816.61748,0.18534
1818.54595,0.19330
1820.47441,0.20760
1822.40288,0.20125
1824.33135,0.18560
1826.25982,0.18760
1828.18829,0.19565
1830.11676,0.19721
1832.04523,0.19393
1833.97369,0.19180
1835.90216,0.19255
1837.83063,0.19257
1839.75910,0.19172
1841.68757,0.19287
1843.61604,0.19515
1845.54451,0.19433
1847.47298,0.19205
1849.40144,0.19074
1851.32991,0.18959
1853.25838,0.18843
1855.18685,0.18721
1857.11532,0.18546
1859.04379,0.18484
1860.97226,0.18692
1862.90072,0.18982
1864.82919,0.19373
1866.75766,0.19923
1868.68613,0.19985
1870.61460,0.19296
1872.54307,0.18722
1874.47154,0.18548
1876.40001,0.18671
1878.32847,0.18869
1880.25694,0.18849
1882.18541,0.18722
1884.11388,0.18637
1886.04235,0.18645
1887.97082,0.18776
1889.89929,0.18790
1891.82775,0.18767
1893.75622,0.18962
1895.68469,0.19132
1897.61316,0.19046
1899.54163,0.18871
1901.47010,0.18774
1903.39857,0.18821
1905.32704,0.19099
1907.25550,0.19526
1909.18397,0.19681
1911.11244,0.19442
1913.04091,0.19198
1914.96938,0.19061
1916.89785,0.18928
1918.82632,0.18957
1920.75478,0.19299
1922.68325,0.19608
1924.61172,0.19493
1926.54019,0.19121
1928.46866,0.18788
1930.39713,0.18650
1932.32560,0.18668
1934.25407,0.18677
1936.18253,0.18635
1938.11100,0.18654
1940.03947,0.18868
1941.96794,0.19242
1943.89641,0.19647
1945.82488,0.19858
1947.75335,0.19689
1949.68181,0.19361
1951.61028,0.19093
1953.53875,0.18747
1955.46722,0.18454
1957.39569,0.18529
1959.32416,0.18895
1961.25263,0.19236
1963.18110,0.19297
1965.10956,0.19169
1967.03803,0.19026
1968.96650,0.18886
1970.89497,0.18896
1972.82344,0.19061
1974.75191,0.19345
1976.68038,0.20032
1978.60884,0.20681
1980.53731,0.20258
1982.46578,0.19243
1984.39425,0.18773
1986.32272,0.18790
1988.25119,0.18931
1990.17966,0.18990
1992.10812,0.18838
1994.03659,0.18706
1995.96506,0.18722
1997.89353,0.18855
1999.82200,0.19125
2001.75047,0.19197
2003.67894,0.18909
2005.60741,0.18753
2007.53587,0.18760
2009.46434,0.18691
2011.39281,0.18794
2013.32128,0.19032
2015.24975,0.19114
2017.17822,0.19035
2019.10669,0.18903
2021.03515,0.18860
2022.96362,0.19035
2024.89209,0.19277
2026.82056,0.19287
2028.74903,0.19019
2030.67750,0.18809
2032.60597,0.19031
2034.53444,0.19411
2036.46290,0.19361
2038.39137,0.19011
2040.31984,0.18902
2042.24831,0.18910
2044.17678,0.18644
2046.10525,0.18466
2048.03372,0.18788
2049.96218,0.19178
2051.89065,0.19100
2053.81912,0.18855
2055.74759,0.18971
2057.67606,0.19286
2059.60453,0.19404
2061.53300,0.19412
2063.46147,0.19470
2065.38993,0.19468
2067.31840,0.19411
2069.24687,0.19335
2071.17534,0.19273
2073.10381,0.19480
2075.03228,0.19903
2076.96075,0.19977
2078.88921,0.19519
2080.81768,0.19103
2082.74615,0.18989
2084.67462,0.18853
2086.60309,0.18718
2088.53156,0.18703
2090.46003,0.18686
2092.38850,0.18880
2094.31696,0.19272
2096.24543,0.19408
2098.17390,0.19359
2100.10237,0.19310
2102.03084,0.19189
2103.95931,0.19179
2105.88778,0.19317
2107.81624,0.19246
2109.74471,0.18895
2111.67318,0.18689
2113.60165,0.18958
2115.53012,0.19464
2117.45859,0.19701
2119.38706,0.19515
2121.31553,0.19176
2123.24399,0.19080
2125.17246,0.19326
2127.10093,0.19430
2129.02940,0.19157
2130.95787,0.18956
2132.88634,0.19138
2134.81481,0.19694
2136.74327,0.20219
2138.67174,0.20032
2140.60021,0.19349
2142.52868,0.18941
2144.45715,0.18794
2146.38562,0.18739
2148.31409,0.18965
2150.24255,0.19237
2152.17102,0.19298
2154.09949,0.19170
2156.02796,0.18931
2157.95643,0.18866
2159.88490,0.18858
2161.81337,0.18739
2163.74184,0.18880
2165.67030,0.19201
2167.59877,0.19222
2169.52724,0.18968
2171.45571,0.18751
2173.38418,0.18729
2175.31265,0.18909
2177.24112,0.19201
2179.16958,0.19429
2181.09805,0.19469
2183.02652,0.19488
2184.95499,0.19607
2186.88346,0.19555
2188.81193,0.19194
2190.74040,0.18884
2192.66887,0.18938
2194.59733,0.19193
2196.52580,0.19374
2198.45427,0.19389
2200.38274,0.19317
2202.31121,0.19292
2204.23968,0.19263
2206.16815,0.19154
2208.09661,0.19074
2210.02508,0.19029
2211.95355,0.18982
2213.88202,0.19099
2215.81049,0.19399
2217.73896,0.19648
2219.66743,0.19635
2221.59590,0.19317
2223.52436,0.18996
2225.45283,0.18998
2227.38130,0.19199
2229.30977,0.19241
2231.23824,0.19027
2233.16671,0.18926
2235.09518,0.19195
2237.02364,0.19515
2238.95211,0.19504
2240.88058,0.19199
2242.80905,0.19107
2244.73752,0.19453
2246.66599,0.19761
2248.59446,0.19746
2250.52293,0.19568
2252.45139,0.19340
2254.37986,0.19137
2256.30833,0.19151
2258.23680,0.19403
2260.16527,0.19630
2262.09374,0.19724
2264.02221,0.19755
2265.95067,0.19629
2267.87914,0.19238
2269.80761,0.18868
2271.73608,0.18836
2273.66455,0.19031
2275.59302,0.19131
2277.52149,0.18973
2279.44996,0.18854
2281.37842,0.18987
2283.30689,0.19096
2285.23536,0.19169
2287.16383,0.19204
2289.09230,0.18994
2291.02077,0.18727
2292.94924,0.18678
2294.87770,0.18819
2296.80617,0.18666
2298.73464,0.18251
2300.66311,0.18222
2302.59158,0.18375
2304.52005,0.18448
2306.44852,0.18326
2308.37699,0.17895
2310.30545,0.17786
2312.23392,0.17902
2314.16239,0.17613
2316.09086,0.17254
2318.01933,0.16849
2319.94780,0.16275
2321.87627,0.16355
2323.80473,0.16975
2325.73320,0.17185
2327.66167,0.16810
2329.59014,0.16082
2331.51861,0.15861
2333.44708,0.16003
2335.37555,0.15888
2337.30401,0.15863
2339.23248,0.15541
2341.16095,0.14893
2343.08942,0.14848
2345.01789,0.15146
2346.94636,0.15340
2348.87483,0.15850
2350.80330,0.17051
2352.73176,0.19013
2354.66023,0.20664
2356.58870,0.21226
2358.51717,0.20384
2360.44564,0.17298
2362.37411,0.15613
2364.30258,0.17296
2366.23104,0.18577
2368.15951,0.18202
2370.08798,0.17626
2372.01645,0.17545
2373.94492,0.17856
2375.87339,0.18002
2377.80186,0.17841
2379.73033,0.17930
2381.65879,0.18386
2383.58726,0.18687
2385.51573,0.18734
2387.44420,0.18851
2389.37267,0.19128
2391.30114,0.19417
2393.22961,0.19553
2395.15807,0.19589
2397.08654,0.19564
2399.01501,0.19248
2400.94348,0.18774
2402.87195,0.18744
2404.80042,0.19264
2406.72889,0.19665
2408.65736,0.19701
2410.58582,0.19734
2412.51429,0.19653
2414.44276,0.19294
2416.37123,0.19016
2418.29970,0.18937
2420.22817,0.18891
2422.15664,0.19060
2424.08510,0.19427
2426.01357,0.19561
2427.94204,0.19463
2429.87051,0.19378
2431.79898,0.19290
2433.72745,0.19318
2435.65592,0.19609
2437.58439,0.19752
2439.51285,0.19511
2441.44132,0.19343
2443.36979,0.19354
2445.29826,0.19168
2447.22673,0.18847
2449.15520,0.18634
2451.08367,0.18708
2453.01213,0.19028
2454.94060,0.18916
2456.86907,0.18602
2458.79754,0.19001
2460.72601,0.19553
2462.65448,0.19553
2464.58295,0.19294
2466.51142,0.19107
2468.43988,0.19160
2470.36835,0.19361
2472.29682,0.19474
2474.22529,0.19452
2476.15376,0.19400
2478.08223,0.19440
2480.01070,0.19495
2481.93916,0.19389
2483.86763,0.19231
2485.79610,0.19357
2487.72457,0.19668
2489.65304,0.19770
2491.58151,0.19730
2493.50998,0.19708
2495.43844,0.19684
2497.36691,0.19670
2499.29538,0.19610
2501.22385,0.19523
2503.15232,0.19452
2505.08079,0.19404
2507.00926,0.19397
2508.93773,0.19455
2510.86619,0.19530
2512.79466,0.19426
2514.72313,0.19133
2516.65160,0.18883
2518.58007,0.18842
2520.50854,0.18906
2522.43701,0.18949
2524.36547,0.19072
2526.29394,0.19373
2528.22241,0.19617
2530.15088,0.19533
2532.07935,0.19453
2534.00782,0.19654
2535.93629,0.19717
2537.86476,0.19388
2539.79322,0.19058
2541.72169,0.19183
2543.65016,0.19580
2545.57863,0.19746
2547.50710,0.19705
2549.43557,0.19764
2551.36404,0.19902
2553.29250,0.20019
2555.22097,0.20163
2557.14944,0.20276
2559.07791,0.20266
2561.00638,0.20185
2562.93485,0.19871
2564.86332,0.19371
2566.79179,0.19236
2568.72025,0.19439
2570.64872,0.19517
2572.57719,0.19519
2574.50566,0.19655
2576.43413,0.19892
2578.36260,0.19967
2580.29107,0.19780
2582.21953,0.19532
2584.14800,0.19308
2586.07647,0.19233
2588.00494,0.19281
2589.93341,0.19244
2591.86188,0.19334
2593.79035,0.19630
2595.71882,0.19872
2597.64728,0.19978
2599.57575,0.19868
2601.50422,0.19663
2603.43269,0.19701
2605.36116,0.19889
2607.28963,0.20120
2609.21810,0.20463
2611.14656,0.20607
2613.07503,0.20531
2615.00350,0.20349
2616.93197,0.19928
2618.86044,0.19628
2620.78891,0.19728
2622.71738,0.19960
2624.64585,0.19962
2626.57431,0.19745
2628.50278,0.19639
2630.43125,0.19591
2632.35972,0.19541
2634.28819,0.19659
2636.21666,0.19770
2638.14513,0.19739
2640.07359,0.19746
2642.00206,0.19815
2643.93053,0.19778
2645.85900,0.19616
2647.78747,0.19596
2649.71594,0.19785
2651.64441,0.19881
2653.57288,0.19801
2655.50134,0.19701
2657.42981,0.19755
2659.35828,0.19965
2661.28675,0.19984
2663.21522,0.19731
2665.14369,0.19665
2667.07216,0.19877
2669.00062,0.19927
2670.92909,0.19740
2672.85756,0.19697
2674.78603,0.20060
2676.71450,0.20454
2678.64297,0.20334
2680.57144,0.20033
2682.49990,0.20019
2684.42837,0.20095
2686.35684,0.20004
2688.28531,0.19850
2690.21378,0.19802
2692.14225,0.19836
2694.07072,0.19785
2695.99919,0.19557
2697.92765,0.19539
2699.85612,0.19912
2701.78459,0.20006
2703.71306,0.19651
2705.64153,0.19409
2707.57000,0.19497
2709.49847,0.19847
2711.42693,0.20250
2713.35540,0.20460
2715.28387,0.20400
2717.21234,0.20125
2719.14081,0.19909
2721.06928,0.20020
2722.99775,0.20406
2724.92622,0.20746
2726.85468,0.20700
2728.78315,0.20400
2730.71162,0.20237
2732.64009,0.20216
2734.56856,0.20252
2736.49703,0.20231
2738.42550,0.20097
2740.35396,0.20194
2742.28243,0.20570
2744.21090,0.20723
2746.13937,0.20392
2748.06784,0.20046
2749.99631,0.20205
2751.92478,0.20611
2753.85325,0.20702
2755.78171,0.20455
2757.71018,0.20262
2759.63865,0.20364
2761.56712,0.20675
2763.49559,0.20813
2765.42406,0.20666
2767.35253,0.20488
2769.28099,0.20346
2771.20946,0.20282
2773.13793,0.20283
2775.06640,0.20374
2776.99487,0.20668
2778.92334,0.20989
2780.85181,0.21041
2782.78028,0.20923
2784.70874,0.21000
2786.63721,0.21035
2788.56568,0.20742
2790.49415,0.20509
2792.42262,0.20609
2794.35109,0.20815
2796.27956,0.20799
2798.20802,0.20646
2800.13649,0.20663
2802.06496,0.20938
2803.99343,0.21290
2805.92190,0.21332
2807.85037,0.21063
2809.77884,0.21063
2811.70731,0.21311
2813.63577,0.21057
2815.56424,0.20488
2817.49271,0.20512
2819.42118,0.20951
2821.34965,0.20903
2823.27812,0.20462
2825.20659,0.20380
2827.13505,0.20711
2829.06352,0.20978
2830.99199,0.20968
2832.92046,0.21017
2834.84893,0.21291
2836.77740,0.21434
2838.70587,0.21375
2840.63433,0.21392
2842.56280,0.21671
2844.49127,0.21970
2846.41974,0.21847
2848.34821,0.21396
2850.27668,0.21118
2852.20515,0.21248
2854.13362,0.21439
2856.06208,0.21306
2857.99055,0.20910
2859.91902,0.20606
2861.84749,0.20674
2863.77596,0.20741
2865.70443,0.20540
2867.63290,0.20512
2869.56136,0.20754
2871.48983,0.20880
2873.41830,0.20828
2875.34677,0.20827
2877.27524,0.20732
2879.20371,0.20498
2881.13218,0.20509
2883.06065,0.20592
2884.98911,0.20458
2886.91758,0.20469
2888.84605,0.20768
2890.77452,0.20989
2892.70299,0.20950
2894.63146,0.20750
2896.55993,0.20535
2898.48839,0.20435
2900.41686,0.20567
2902.34533,0.20884
2904.27380,0.20797
2906.20227,0.19937
2908.13074,0.19180
2910.05921,0.19357
2911.98768,0.19856
2913.91614,0.20024
2915.84461,0.20061
2917.77308,0.20191
2919.70155,0.20526
2921.63002,0.20918
2923.55849,0.20558
2925.48696,0.19368
2927.41542,0.19014
2929.34389,0.19677
2931.27236,0.19918
2933.20083,0.20013
2935.12930,0.19938
2937.05777,0.19339
2938.98624,0.19529
2940.91471,0.20578
2942.84317,0.21144
2944.77164,0.20658
2946.70011,0.19632
2948.62858,0.19309
2950.55705,0.19931
2952.48552,0.20592
2954.41399,0.20502
2956.34245,0.19449
2958.27092,0.18774
2960.19939,0.19564
2962.12786,0.20609
2964.05633,0.20732
2965.98480,0.20042
2967.91327,0.19450
2969.84174,0.19864
2971.77020,0.20577
2973.69867,0.20710
2975.62714,0.20273
2977.55561,0.19621
2979.48408,0.19862
2981.41255,0.20958
2983.34102,0.21713
2985.26948,0.21695
2987.19795,0.20841
2989.12642,0.20213
2991.05489,0.20807
2992.98336,0.21723
2994.91183,0.21926
2996.84030,0.21333
2998.76877,0.20928
3000.69723,0.21301
3002.62570,0.21453
3004.55417,0.20977
3006.48264,0.20564
3008.41111,0.20314
3010.33958,0.19681
3012.26805,0.18137
3014.19651,0.15306
3016.12498,0.12533
3018.05345,0.13287
3019.98192,0.17564
3021.91039,0.21020
3023.83886,0.22059
3025.76733,0.21813
3027.69579,0.21040
3029.62426,0.20948
3031.55273,0.21768
3033.48120,0.22202
3035.40967,0.21810
3037.33814,0.21234
3039.26661,0.21206
3041.19508,0.21625
3043.12354,0.21519
3045.05201,0.20707
3046.98048,0.19953
3048.90895,0.19955
3050.83742,0.20898
3052.76589,0.21984
3054.69436,0.21627
3056.62282,0.19778
3058.55129,0.19019
3060.47976,0.20007
3062.40823,0.20671
3064.33670,0.20285
3066.26517,0.19476
3068.19364,0.19420
3070.12211,0.20462
3072.05057,0.21147
3073.97904,0.20507
3075.90751,0.19565
3077.83598,0.19855
3079.76445,0.20880
3081.69292,0.21234
3083.62139,0.20647
3085.54985,0.20067
3087.47832,0.20571
3089.40679,0.21303
3091.33526,0.21010
3093.26373,0.20084
3095.19220,0.19700
3097.12067,0.20151
3099.04914,0.20510
3100.97760,0.20284
3102.90607,0.19821
3104.83454,0.20070
3106.76301,0.21017
3108.69148,0.21299
3110.61995,0.20425
3112.54842,0.19190
3114.47688,0.19106
3116.40535,0.20348
3118.33382,0.21084
3120.26229,0.20480
3122.19076,0.19936
3124.11923,0.20640
3126.04770,0.21811
3127.97617,0.22135
3129.90463,0.21211
3131.83310,0.20372
3133.76157,0.20780
3135.69004,0.21233
3137.61851,0.20730
3139.54698,0.20185
3141.47545,0.20534
3143.40391,0.21344
3145.33238,0.21923
3147.26085,0.22007
3149.18932,0.21510
3151.11779,0.20807
3153.04626,0.20337
3154.97473,0.20333
3156.90320,0.20848
3158.83166,0.21497
3160.76013,0.21665
3162.68860,0.21442
3164.61707,0.21576
3166.54554,0.22182
3168.47401,0.22307
3170.40248,0.21505
3172.33094,0.20856
3174.25941,0.21011
3176.18788,0.21569
3178.11635,0.22269
3180.04482,0.22854
3181.97329,0.23050
3183.90176,0.22821
3185.83022,0.22312
3187.75869,0.21791
3189.68716,0.21520
3191.61563,0.21697
3193.54410,0.22085
3195.47257,0.22358
3197.40104,0.22709
3199.32951,0.22986
3201.25797,0.22768
3203.18644,0.22169
3205.11491,0.21601
3207.04338,0.21556
3208.97185,0.21910
3210.90032,0.22106
3212.82879,0.21977
3214.75725,0.21737
3216.68572,0.21674
3218.61419,0.21644
3220.54266,0.21429
3222.47113,0.21081
3224.39960,0.20708
3226.32807,0.20533
3228.25654,0.20724
3230.18500,0.21211
3232.11347,0.21654
3234.04194,0.21729
3235.97041,0.21597
3237.89888,0.21652
3239.82735,0.21895
3241.75582,0.22149
3243.68428,0.22377
3245.61275,0.22502
3247.54122,0.22568
3249.46969,0.22316
3251.39816,0.21499
3253.32663,0.20924
3255.25510,0.21099
3257.18357,0.21394
3259.11203,0.21545
3261.04050,0.21740
3262.96897,0.22033
3264.89744,0.22519
3266.82591,0.22657
3268.75438,0.21805
3270.68285,0.20874
3272.61131,0.20815
3274.53978,0.21198
3276.46825,0.21483
3278.39672,0.21419
3280.32519,0.21210
3282.25366,0.21221
3284.18213,0.21224
3286.11060,0.21110
3288.03906,0.21117
3289.96753,0.21226
3291.89600,0.21345
3293.82447,0.21431
3295.75294,0.21216
3297.68141,0.20831
3299.60988,0.20863
3301.53834,0.21078
3303.46681,0.21051
3305.39528,0.21058
3307.32375,0.21063
3309.25222,0.20976
3311.18069,0.21121
3313.10916,0.21493
3315.03763,0.21896
3316.96609,0.22164
3318.89456,0.22108
3320.82303,0.21794
3322.75150,0.21396
3324.67997,0.21027
3326.60844,0.20998
3328.53691,0.21468
3330.46537,0.22023
3332.39384,0.22308
3334.32231,0.22428
3336.25078,0.22418
3338.17925,0.22244
3340.10772,0.22407
3342.03619,0.22875
3343.96466,0.22805
3345.89312,0.22547
3347.82159,0.22566
3349.75006,0.22077
3351.67853,0.21238
3353.60700,0.21126
3355.53547,0.21485
3357.46394,0.21368
3359.39240,0.21078
3361.32087,0.21145
3363.24934,0.21221
3365.17781,0.21186
3367.10628,0.21134
3369.03475,0.21083
3370.96322,0.21300
3372.89168,0.21785
3374.82015,0.22142
3376.74862,0.22057
3378.67709,0.21574
3380.60556,0.21066
3382.53403,0.20814
3384.46250,0.20900
3386.39097,0.21340
3388.31943,0.21750
3390.24790,0.21777
3392.17637,0.21761
3394.10484,0.21743
3396.03331,0.21349
3397.96178,0.21076
3399.89025,0.21320
3401.81871,0.21557
3403.74718,0.21437
3405.67565,0.21239
3407.60412,0.21489
3409.53259,0.21797
3411.46106,0.21520
3413.38953,0.21376
3415.31800,0.21686
3417.24646,0.21796
3419.17493,0.21847
3421.10340,0.21989
3423.03187,0.21738
3424.96034,0.21275
3426.88881,0.21159
3428.81728,0.21300
3430.74574,0.21228
3432.67421,0.20874
3434.60268,0.20629
3436.53115,0.20935
3438.45962,0.21684
3440.38809,0.22024
3442.31656,0.21331
3444.24503,0.20186
3446.17349,0.19724
3448.10196,0.19943
3450.03043,0.19992
3451.95890,0.19990
3453.88737,0.20234
3455.81584,0.20100
3457.74431,0.19498
3459.67277,0.19312
3461.60124,0.19562
3463.52971,0.19583
3465.45818,0.19249
3467.38665,0.19077
3469.31512,0.19576
3471.24359,0.20228
3473.17206,0.20550
3475.10052,0.20692
3477.02899,0.20388
3478.95746,0.19544
3480.88593,0.18655
3482.81440,0.18416
3484.74287,0.18881
3486.67134,0.19235
3488.59980,0.19247
3490.52827,0.19276
3492.45674,0.19274
3494.38521,0.19251
3496.31368,0.19323
3498.24215,0.19402
3500.17062,0.19276
3502.09909,0.18838
3504.02755,0.18569
3505.95602,0.18713
3507.88449,0.18653
3509.81296,0.18093
3511.74143,0.17697
3513.66990,0.17813
3515.59837,0.17931
3517.52683,0.17737
3519.45530,0.17422
3521.38377,0.17547
3523.31224,0.18293
3525.24071,0.19031
3527.16918,0.19148
3529.09765,0.18521
3531.02611,0.17608
3532.95458,0.17097
3534.88305,0.17265
3536.81152,0.17531
3538.73999,0.17389
3540.66846,0.17226
3542.59693,0.17129
3544.52540,0.16899
3546.45386,0.16632
3548.38233,0.16374
3550.31080,0.16358
3552.23927,0.16777
3554.16774,0.16836
3556.09621,0.16329
3558.02468,0.16270
3559.95314,0.16693
3561.88161,0.16812
3563.81008,0.16791
3565.73855,0.17044
3567.66702,0.17042
3569.59549,0.16638
3571.52396,0.16404
3573.45243,0.16462
3575.38089,0.16579
3577.30936,0.16424
3579.23783,0.15888
3581.16630,0.15220
3583.09477,0.15067
3585.02324,0.15592
3586.95171,0.16218
3588.88017,0.16079
3590.80864,0.15496
3592.73711,0.15286
3594.66558,0.15230
3596.59405,0.14809
3598.52252,0.14269
3600.45099,0.14155
3602.37946,0.14712
3604.30792,0.15639
3606.23639,0.16256
3608.16486,0.16006
3610.09333,0.15428
3612.02180,0.15266
3613.95027,0.15562
3615.87874,0.16045
3617.80720,0.16210
3619.73567,0.15626
3621.66414,0.14765
3623.59261,0.14327
3625.52108,0.14190
3627.44955,0.14197
3629.37802,0.14219
3631.30649,0.14049
3633.23495,0.14039
3635.16342,0.14242
3637.09189,0.14484
3639.02036,0.14729
3640.94883,0.14665
3642.87730,0.14355
3644.80577,0.14559
3646.73423,0.15440
3648.66270,0.16217
3650.59117,0.15716
3652.51964,0.14640
3654.44811,0.13907
3656.37658,0.13670
3658.30505,0.13767
3660.23352,0.13759
3662.16198,0.13693
3664.09045,0.13779
3666.01892,0.13978
3667.94739,0.14312
3669.87586,0.14707
3671.80433,0.14855
3673.73280,0.15042
3675.66126,0.15203
3677.58973,0.14873
3679.51820,0.14438
3681.44667,0.14126
3683.37514,0.13978
3685.30361,0.14008
3687.23208,0.14357
3689.16055,0.14796
3691.08901,0.14444
3693.01748,0.13924
3694.94595,0.13689
3696.87442,0.13592
3698.80289,0.13929
3700.73136,0.14361
3702.65983,0.13733
3704.58829,0.12679
3706.51676,0.12666
3708.44523,0.13571
3710.37370,0.14314
3712.30217,0.14122
3714.23064,0.13618
3716.15911,0.13412
3718.08757,0.13551
3720.01604,0.14064
3721.94451,0.14612
3723.87298,0.14399
3725.80145,0.13534
3727.72992,0.12969
3729.65839,0.13056
3731.58686,0.13609
3733.51532,0.14347
3735.44379,0.14916
3737.37226,0.14833
3739.30073,0.14020
3741.22920,0.13038
3743.15767,0.12719
3745.08614,0.14036
3747.01460,0.15740
3748.94307,0.16646
3750.87154,0.16600
3752.80001,0.15486
3754.72848,0.14453
3756.65695,0.14070
3758.58542,0.14093
3760.51389,0.13595
3762.44235,0.12776
3764.37082,0.12464
3766.29929,0.12430
3768.22776,0.12327
3770.15623,0.12570
3772.08470,0.13009
3774.01317,0.13096
3775.94163,0.12992
3777.87010,0.13001
3779.79857,0.12809
3781.72704,0.12324
3783.65551,0.12280
3785.58398,0.12760
3787.51245,0.13071
3789.44092,0.13020
3791.36938,0.13013
3793.29785,0.13315
3795.22632,0.13958
3797.15479,0.14400
3799.08326,0.14308
3801.01173,0.14224
3802.94020,0.13832
3804.86866,0.13044
3806.79713,0.12376
3808.72560,0.12152
3810.65407,0.12243
3812.58254,0.12424
3814.51101,0.12752
3816.43948,0.13025
3818.36795,0.13173
3820.29641,0.13427
3822.22488,0.13029
3824.15335,0.12318
3826.08182,0.12258
3828.01029,0.12858
3829.93876,0.13520
3831.86723,0.13532
3833.79569,0.13038
3835.72416,0.12839
3837.65263,0.13221
3839.58110,0.13766
3841.50957,0.13247
3843.43804,0.12022
3845.36651,0.11790
3847.29498,0.12490
3849.22344,0.13114
3851.15191,0.13721
3853.08038,0.14117
3855.00885,0.13324
3856.93732,0.12729
3858.86579,0.12583
3860.79426,0.12848
3862.72272,0.13501
3864.65119,0.13759
3866.57966,0.13324
3868.50813,0.12792
3870.43660,0.12470
3872.36507,0.12333
3874.29354,0.12145
3876.22200,0.12047
3878.15047,0.12166
3880.07894,0.12074
3882.00741,0.11568
3883.93588,0.11143
3885.86435,0.11033
3887.79282,0.11452
3889.72129,0.12248
3891.64975,0.12717
3893.57822,0.12186
3895.50669,0.11552
3897.43516,0.11638
3899.36363,0.12721
3901.29210,0.14154
3903.22057,0.14372
3905.14903,0.13677
3907.07750,0.13091
3909.00597,0.12272
3910.93444,0.11541
3912.86291,0.11602
3914.79138,0.11869
3916.71985,0.11635
3918.64832,0.11510
3920.57678,0.11895
3922.50525,0.12273
3924.43372,0.12512
3926.36219,0.12638
3928.29066,0.12522
3930.21913,0.12117
3932.14760,0.11739
3934.07606,0.11772
3936.00453,0.11756
3937.93300,0.11491
3939.86147,0.11460
3941.78994,0.11704
3943.71841,0.11712
3945.64688,0.11464
3947.57535,0.11362
3949.50381,0.11487
3951.43228,0.11673
3953.36075,0.11605
3955.28922,0.11404
3957.21769,0.11380
3959.14616,0.11444
3961.07463,0.11613
3963.00309,0.11606
3964.93156,0.11221
3966.86003,0.10883
3968.78850,0.10498
3970.71697,0.09867
3972.64544,0.09606
3974.57391,0.10107
3976.50238,0.10789
3978.43084,0.11040
3980.35931,0.11035
3982.28778,0.11117
3984.21625,0.10922
3986.14472,0.10353
3988.07319,0.10145
3990.00166,0.10450
3991.93012,0.10681
3993.85859,0.10505
3995.78706,0.10203
3997.71553,0.10127
3999.64400,0.10184
4001.57247,0.10216
4003.50094,0.10302
4005.42941,0.10511
4007.35787,0.10575
4009.28634,0.10393
4011.21481,0.10122
4013.14328,0.09702
4015.07175,0.09645
4017.00022,0.10224
4018.92869,0.10452
4020.85715,0.10174
4022.78562,0.10241
4024.71409,0.10845
4026.64256,0.11742
4028.57103,0.12228
4030.49950,0.11442
4032.42797,0.10122
4034.35644,0.09528
4036.28490,0.09476
4038.21337,0.09845
4040.14184,0.10464
4042.07031,0.10559
4043.99878,0.10127
4045.92725,0.09831
4047.85572,0.10122
4049.78418,0.10535
4051.71265,0.10504
4053.64112,0.09998
4055.56959,0.09279
4057.49806,0.08986
4059.42653,0.09211
4061.35500,0.09510
4063.28346,0.09483
4065.21193,0.09146
4067.14040,0.09267
4069.06887,0.09838
4070.99734,0.09865
4072.92581,0.09471
4074.85428,0.09567
4076.78275,0.09887
4078.71121,0.09724
4080.63968,0.09343
4082.56815,0.09126
4084.49662,0.09158
4086.42509,0.09421
4088.35356,0.09662
4090.28203,0.09900
4092.21049,0.10258
4094.13896,0.10422
4096.06743,0.09992
4097.99590,0.09226
4099.92437,0.08843
4101.85284,0.09019
4103.78131,0.09401
4105.70978,0.09645
4107.63824,0.09779
4109.56671,0.09785
4111.49518,0.09428
4113.42365,0.09210
4115.35212,0.09415
4117.28059,0.09490
4119.20906,0.09455
4121.13752,0.09322
4123.06599,0.08830
4124.99446,0.08501
4126.92293,0.08748
4128.85140,0.09051
4130.77987,0.09080
4132.70834,0.09159
4134.63681,0.09319
4136.56527,0.09543
4138.49374,0.09820
4140.42221,0.09723
4142.35068,0.09539
4144.27915,0.09842
4146.20762,0.10045
4148.13609,0.09562
4150.06455,0.08969
4151.99302,0.08617
4153.92149,0.08218
4155.84996,0.08105
4157.77843,0.08518
4159.70690,0.08815
4161.63537,0.08932
4163.56384,0.09198
4165.49230,0.08858
4167.42077,0.07695
4169.34924,0.06878
4171.27771,0.06994
4173.20618,0.07826
4175.13465,0.08689
4177.06312,0.08705
4178.99158,0.08282
4180.92005,0.08158
4182.84852,0.08009
4184.77699,0.07872
4186.70546,0.08127
4188.63393,0.08426
4190.56240,0.08237
4192.49087,0.07602
4194.41933,0.07165
4196.34780,0.07034
4198.27627,0.06899
4200.20474,0.07178
4202.13321,0.07963
4204.06168,0.08739
4205.99015,0.09292
4207.91861,0.09215
4209.84708,0.08577
4211.77555,0.08199
4213.70402,0.07970
4215.63249,0.07494
4217.56096,0.07187
4219.48943,0.07342
4221.41789,0.07640
4223.34636,0.07624
4225.27483,0.07307
4227.20330,0.07009
4229.13177,0.06854
4231.06024,0.06965
4232.98871,0.07254
4234.91718,0.07215
4236.84564,0.06988
4238.77411,0.07003
4240.70258,0.07002
4242.63105,0.06882
4244.55952,0.06890
4246.48799,0.06961
4248.41646,0.06900
4250.34492,0.06805
4252.27339,0.06633
4254.20186,0.06550
4256.13033,0.06817
4258.05880,0.07008
4259.98727,0.07298
4261.91574,0.07913
4263.84421,0.07861
4265.77267,0.06754
4267.70114,0.05733
4269.62961,0.05520
4271.55808,0.05575
4273.48655,0.05731
4275.41502,0.06282
4277.34349,0.07087
4279.27195,0.07489
4281.20042,0.07041
4283.12889,0.06219
4285.05736,0.05487
4286.98583,0.05058
4288.91430,0.05169
4290.84277,0.05476
4292.77124,0.05640
4294.69970,0.05558
4296.62817,0.05179
4298.55664,0.05144
4300.48511,0.05664
4302.41358,0.05965
4304.34205,0.05864
4306.27052,0.05642
4308.19898,0.05367
4310.12745,0.05072
4312.05592,0.04874
4313.98439,0.04763
4315.91286,0.04431
4317.84133,0.04309
4319.76980,0.05002
4321.69827,0.05807
4323.62673,0.06202
4325.55520,0.06606
4327.48367,0.06933
4329.41214,0.06908
4331.34061,0.06824
4333.26908,0.06773
4335.19755,0.06615
4337.12601,0.06264
4339.05448,0.05729
4340.98295,0.05261
4342.91142,0.04918
4344.83989,0.04925
4346.76836,0.05396
4348.69683,0.05554
4350.62530,0.05053
4352.55376,0.04757
4354.48223,0.05142
4356.41070,0.05356
4358.33917,0.05202
4360.26764,0.05071
4362.19611,0.04642
4364.12458,0.04309
4366.05304,0.04331
4367.98151,0.04150
4369.90998,0.03951
4371.83845,0.04125
4373.76692,0.04492
4375.69539,0.04541
4377.62386,0.04415
4379.55232,0.04659
4381.48079,0.04814
4383.40926,0.04843
4385.33773,0.05048
4387.26620,0.04612
4389.19467,0.03543
4391.12314,0.02863
4393.05161,0.03140
4394.98007,0.04222
4396.90854,0.04913
4398.83701,0.04741
4400.76548,0.04656
4402.69395,0.04708
4404.62242,0.04331
4406.55089,0.04078
4408.47935,0.04367
4410.40782,0.04358
4412.33629,0.03641
4414.26476,0.03063
4416.19323,0.03290
4418.12170,0.03771
4420.05017,0.03660
4421.97864,0.03167
4423.90710,0.03034
4425.83557,0.03349
4427.76404,0.03472
4429.69251,0.02924
4431.62098,0.02048
4433.54945,0.01607
4435.47792,0.02008
4437.40638,0.02857
4439.33485,0.03603
4441.26332,0.03940
4443.19179,0.03406
4445.12026,0.02256
4447.04873,0.01667
4448.97720,0.02059
4450.90567,0.02885
4452.83413,0.03540
4454.76260,0.03858
4456.69107,0.03882
4458.61954,0.03571
4460.54801,0.03078
4462.47648,0.02681
4464.40495,0.02728
4466.33341,0.02830
4468.26188,0.02321
4470.19035,0.02085
4472.11882,0.02544
4474.04729,0.02596
4475.97576,0.02310
4477.90423,0.02463
4479.83270,0.02686
4481.76116,0.02305
4483.68963,0.01577
4485.61810,0.01302
4487.54657,0.01745
4489.47504,0.02532
4491.40351,0.02801
4493.33198,0.02092
4495.26044,0.01269
4497.18891,0.01248
4499.11738,0.01968
4501.04585,0.02538
4502.97432,0.02226
4504.90279,0.01530
4506.83126,0.01115
4508.75973,0.01121
4510.68819,0.01583
4512.61666,0.01916
4514.54513,0.01834
4516.47360,0.01557
4518.40207,0.01020
4520.33054,0.00930
4522.25901,0.01552
4524.18747,0.01805
4526.11594,0.01558
4528.04441,0.01549
4529.97288,0.01598
4531.90135,0.01324
4533.82982,0.00971
4535.75829,0.00616
4537.68676,0.00400
4539.61522,0.00354
4541.54369,0.00529
4543.47216,0.01097
4545.40063,0.01373
4547.32910,0.00945
4549.25757,0.00428
4551.18604,0.00701
4553.11450,0.01458
4555.04297,0.01589
4556.97144,0.01505
4558.89991,0.01566
4560.82838,0.01074
4562.75685,0.00266
4564.68532,-0.00070
4566.61378,0.00321
4568.54225,0.01216
4570.47072,0.01775
4572.39919,0.01568
4574.32766,0.00988
4576.25613,0.00632
4578.18460,0.01191
4580.11307,0.02017
4582.04153,0.02130
4583.97000,0.01930
4585.89847,0.02171
4587.82694,0.02787
4589.75541,0.02467
4591.68388,0.01060
4593.61235,0.00474
4595.54081,0.01191
4597.46928,0.01643
4599.39775,0.01417
4601.32622,0.01332
4603.25469,0.01134
4605.18316,0.00225
4607.11163,-0.00731
4609.04010,-0.00651
4610.96856,0.00308
4612.89703,0.00835
4614.82550,0.00205
4616.75397,-0.00401
4618.68244,0.00478
4620.61091,0.01865
4622.53938,0.01991
4624.46784,0.01261
4626.39631,0.00770
4628.32478,0.00382
4630.25325,0.00165
4632.18172,0.00592
4634.11019,0.01466
4636.03866,0.02161
4637.96713,0.02215
4639.89559,0.01582
4641.82406,0.00724
4643.75253,0.00256
4645.68100,-0.00040
4647.60947,-0.00577
4649.53794,-0.00745
4651.46641,0.00037
4653.39487,0.00877
4655.32334,0.00758
4657.25181,0.00306
4659.18028,0.00546
4661.10875,0.01333
4663.03722,0.01739
4664.96569,0.01614
4666.89416,0.01268
4668.82262,0.00531
4670.75109,0.00088
4672.67956,0.00764
4674.60803,0.01748
4676.53650,0.01807
4678.46497,0.01090
4680.39344,0.00765
4682.32190,0.01151
4684.25037,0.01506
4686.17884,0.01761
4688.10731,0.02473
4690.03578,0.02516
4691.96425,0.00769
4693.89272,-0.00578
4695.82119,0.00087
4697.74965,0.01129
4699.67812,0.01417
4701.60659,0.00946
4703.53506,-0.00021
4705.46353,-0.00657
4707.39200,-0.00250
4709.32047,0.00846
4711.24893,0.01267
4713.17740,0.00773
4715.10587,0.00422
4717.03434,0.00614
4718.96281,0.00761
4720.89128,0.00670
4722.81975,0.01056
4724.74821,0.01409
4726.67668,0.00740
4728.60515,0.00344
4730.53362,0.01316
4732.46209,0.01941
4734.39056,0.01386
4736.31903,0.00955
4738.24750,0.00597
4740.17596,0.00148
4742.10443,0.00114
4744.03290,-0.00297
4745.96137,-0.00912
4747.88984,-0.00087
4749.81831,0.01603
4751.74678,0.02266
4753.67524,0.01950
4755.60371,0.01437
4757.53218,0.00711
4759.46065,0.00163
4761.38912,0.00649
4763.31759,0.01647
4765.24606,0.01806
4767.17453,0.01048
4769.10299,0.00580
4771.03146,0.00791
4772.95993,0.00547
4774.88840,-0.00662
4776.81687,-0.01510
4778.74534,-0.00679
4780.67381,0.00436
4782.60227,0.00289
4784.53074,0.00047
4786.45921,0.00376
4788.38768,0.00893
4790.31615,0.01682
4792.24462,0.02405
4794.17309,0.02279
4796.10156,0.01730
4798.03002,0.01031
4799.95849,-0.00422
4801.88696,-0.01288
4803.81543,-0.00484
4805.74390,0.00741
4807.67237,0.01089
4809.60084,0.00451
4811.52930,0.00039
4813.45777,0.00286
4815.38624,0.00637
4817.31471,0.01197
4819.24318,0.01448
4821.17165,0.00876
4823.10012,0.00524
4825.02859,0.01216
4826.95705,0.02411
4828.88552,0.02908
4830.81399,0.01682
4832.74246,-0.00489
4834.67093,-0.01807
4836.59940,-0.02016
4838.52787,-0.01468
4840.45633,-0.00589
4842.38480,-0.00294
4844.31327,0.00060
4846.24174,0.01416
4848.17021,0.02845
4850.09868,0.03198
4852.02715,0.02525
4853.95562,0.02137
4855.88408,0.02027
4857.81255,0.01506
4859.74102,0.01366
4861.66949,0.01154
4863.59796,0.00191
4865.52643,-0.00767
4867.45490,-0.01507
4869.38336,-0.01554
4871.31183,-0.00599
4873.24030,0.00467
4875.16877,0.01243
4877.09724,0.01688
4879.02571,0.01408
4880.95418,0.00133
4882.88265,-0.00810
4884.81111,-0.00193
4886.73958,0.00106
4888.66805,-0.00749
4890.59652,-0.00800
4892.52499,0.00008
4894.45346,0.00779
4896.38193,0.01684
4898.31039,0.02347
4900.23886,0.02146
4902.16733,0.01399
4904.09580,0.00833
4906.02427,0.00938
4907.95274,0.01772
4909.88121,0.02872
4911.80967,0.03235
4913.73814,0.02029
4915.66661,0.00299
4917.59508,-0.00072
4919.52355,0.00760
4921.45202,0.01784
4923.38049,0.02257
4925.30896,0.01606
4927.23742,0.01061
4929.16589,0.01747
4931.09436,0.02550
4933.02283,0.01889
4934.95130,0.00320
4936.87977,-0.00701
4938.80824,-0.01507
4940.73670,-0.01712
4942.66517,-0.00764
4944.59364,-0.00239
4946.52211,-0.00276
4948.45058,0.00483
4950.37905,0.01201
4952.30752,0.00209
4954.23599,-0.01285
4956.16445,-0.01356
4958.09292,-0.00797
4960.02139,-0.00117
4961.94986,0.01395
4963.87833,0.02453
4965.80680,0.01846
4967.73527,0.01313
4969.66373,0.01602
4971.59220,0.01743
4973.52067,0.01941
4975.44914,0.02310
4977.37761,0.02821
4979.30608,0.03802
4981.23455,0.03842
4983.16302,0.02007
4985.09148,0.00423
4987.01995,0.00249
4988.94842,0.00673
4990.87689,0.01378
4992.80536,0.01088
4994.73383,-0.00949
4996.66230,-0.01584
4998.59076,0.00917
5000.51923,0.03414
5002.44770,0.03955
5004.37617,0.03468
5006.30464,0.02847
5008.23311,0.02494
5010.16158,0.02865
5012.09005,0.03976
5014.01851,0.04266
5015.94698,0.02691
5017.87545,0.01282
5019.80392,0.01314
5021.73239,0.00943
5023.66086,-0.00398
5025.58933,-0.00598
5027.51779,0.00689
5029.44626,0.01721
5031.37473,0.02136
5033.30320,0.01824
5035.23167,0.00543
5037.16014,0.00330
5039.08861,0.02602
5041.01708,0.04147
5042.94554,0.02006
5044.87401,-0.01099
5046.80248,-0.01828
5048.73095,-0.00756
5050.65942,0.00904
5052.58789,0.02305
5054.51636,0.03103
5056.44482,0.04110
5058.37329,0.04500
5060.30176,0.03351
5062.23023,0.01709
5064.15870,0.00358
5066.08717,-0.00044
5068.01564,0.00556
5069.94410,0.00527
5071.87257,-0.00196
5073.80104,0.00351
5075.72951,0.02142
5077.65798,0.03308
5079.58645,0.02576
5081.51492,0.00468
5083.44339,-0.00201
5085.37185,0.01533
5087.30032,0.02879
5089.22879,0.02692
5091.15726,0.02397
5093.08573,0.01925
5095.01420,0.00962
5096.94267,0.00561
5098.87113,0.01321
5100.79960,0.02344
5102.72807,0.03227
5104.65654,0.04361
5106.58501,0.04783
5108.51348,0.04011
5110.44195,0.02936
5112.37042,0.01756
5114.29888,0.00575
5116.22735,0.00112
5118.15582,0.01163
5120.08429,0.03374
5122.01276,0.05053
5123.94123,0.05524
5125.86970,0.05494
5127.79816,0.04759
5129.72663,0.03290
5131.65510,0.02941
5133.58357,0.04190
5135.51204,0.04716
5137.44051,0.03238
5139.36898,0.01482
5141.29745,0.01498
5143.22591,0.02858
5145.15438,0.03830
5147.08285,0.04187
5149.01132,0.04790
5150.93979,0.04721
5152.86826,0.02871
5154.79673,0.01162
5156.72519,0.01420
5158.65366,0.02526
5160.58213,0.02983
5162.51060,0.02867
5164.43907,0.02790
5166.36754,0.02819
5168.29601,0.02971
5170.22448,0.03370
5172.15294,0.03504
5174.08141,0.02497
5176.00988,0.01053
5177.93835,0.00708
5179.86682,0.01032
5181.79529,0.01258
5183.72376,0.01501
5185.65222,0.02143
5187.58069,0.03612
5189.50916,0.05208
5191.43763,0.06446
5193.36610,0.07313
5195.29457,0.06922
5197.22304,0.05727
5199.15151,0.05633
5201.07997,0.06209
5203.00844,0.06716
5204.93691,0.07279
5206.86538,0.06824
5208.79385,0.05750
5210.72232,0.04756
5212.65079,0.03550
5214.57925,0.03223
5216.50772,0.03727
5218.43619,0.04168
5220.36466,0.04821
5222.29313,0.05836
5224.22160,0.07259
5226.15007,0.08191
5228.07854,0.07850
5230.00700,0.07417
5231.93547,0.07080
5233.86394,0.06865
5235.79241,0.06407
5237.72088,0.04818
5239.64935,0.03952
5241.57782,0.05236
5243.50628,0.07208
5245.43475,0.08716
5247.36322,0.09708
5249.29169,0.08712
5251.22016,0.05808
5253.14863,0.04249
5255.07710,0.04869
5257.00556,0.05468
5258.93403,0.04243
5260.86250,0.01718
5262.79097,0.00426
5264.71944,0.02050
5266.64791,0.05331
5268.57638,0.07170
5270.50485,0.05763
5272.43331,0.04102
5274.36178,0.05007
5276.29025,0.06865
5278.21872,0.08254
5280.14719,0.08200
5282.07566,0.06805
5284.00413,0.06084
5285.93259,0.06382
5287.86106,0.07214
5289.78953,0.07344
5291.71800,0.05661
5293.64647,0.04604
5295.57494,0.05579
5297.50341,0.06347
5299.43188,0.04828
5301.36034,0.02077
5303.28881,0.00565
5305.21728,0.01510
5307.14575,0.04441
5309.07422,0.06669
5311.00269,0.06777
5312.93116,0.06787
5314.85962,0.06750
5316.78809,0.04711
5318.71656,0.02539
5320.64503,0.03581
5322.57350,0.05529
5324.50197,0.04890
5326.43044,0.03785
5328.35891,0.04416
5330.28737,0.05651
5332.21584,0.06730
5334.14431,0.07174
5336.07278,0.07124
5338.00125,0.07046
5339.92972,0.06756
5341.85819,0.06105
5343.78665,0.05457
5345.71512,0.05965
5347.64359,0.07203
5349.57206,0.07333
5351.50053,0.05425
5353.42900,0.02909
5355.35747,0.03169
5357.28594,0.04815
5359.21440,0.04675
5361.14287,0.03098
5363.07134,0.02112
5364.99981,0.03540
5366.92828,0.05961
5368.85675,0.06879
5370.78522,0.07019
5372.71368,0.07414
5374.64215,0.07446
5376.57062,0.06696
5378.49909,0.06056
5380.42756,0.05622
5382.35603,0.04398
5384.28450,0.03696
5386.21297,0.05005
5388.14143,0.05806
5390.06990,0.05958
5391.99837,0.06757
5393.92684,0.06638
5395.85531,0.05530
5397.78378,0.05984
5399.71225,0.07495
5401.64071,0.08348
5403.56918,0.09682
5405.49765,0.10851
5407.42612,0.09201
5409.35459,0.05979
5411.28306,0.05223
5413.21153,0.08094
5415.13999,0.10364
5417.06846,0.10100
5418.99693,0.08883
5420.92540,0.07926
5422.85387,0.07869
5424.78234,0.08388
5426.71081,0.09518
5428.63928,0.11044
5430.56774,0.10762
5432.49621,0.08302
5434.42468,0.06284
5436.35315,0.06625
5438.28162,0.08168
5440.21009,0.09323
5442.13856,0.09985
5444.06702,0.09884
5445.99549,0.08711
5447.92396,0.07840
5449.85243,0.07763
5451.78090,0.07308
5453.70937,0.06154
5455.63784,0.05584
5457.56631,0.06462
5459.49477,0.08900
5461.42324,0.11896
5463.35171,0.11542
5465.28018,0.07555
5467.20865,0.05390
5469.13712,0.07152
5471.06559,0.07766
5472.99405,0.06241
5474.92252,0.05643
5476.85099,0.04891
5478.77946,0.04493
5480.70793,0.05678
5482.63640,0.07165
5484.56487,0.07770
5486.49334,0.06538
5488.42180,0.04132
5490.35027,0.02773
5492.27874,0.03953
5494.20721,0.06173
5496.13568,0.06608
5498.06415,0.05177
5499.99262,0.03772
5501.92108,0.03637
5503.84955,0.04300
5505.77802,0.05492
5507.70649,0.06612
5509.63496,0.07370
5511.56343,0.08527
5513.49190,0.09224
5515.42037,0.09013
5517.34883,0.09196
5519.27730,0.10028
5521.20577,0.10857
5523.13424,0.10690
5525.06271,0.08724
5526.99118,0.06084
5528.91965,0.05292
5530.84811,0.06240
5532.77658,0.06074
5534.70505,0.04847
5536.63352,0.04177
5538.56199,0.05420
5540.49046,0.09095
5542.41893,0.11695
5544.34740,0.10951
5546.27586,0.08860
5548.20433,0.07612
5550.13280,0.08204
5552.06127,0.07967
5553.98974,0.06104
5555.91821,0.05499
5557.84668,0.05424
5559.77514,0.04965
5561.70361,0.04775
5563.63208,0.04243
5565.56055,0.03933
5567.48902,0.04560
5569.41749,0.06441
5571.34596,0.08685
5573.27443,0.08295
5575.20289,0.05884
5577.13136,0.04052
5579.05983,0.02593
5580.98830,0.02945
5582.91677,0.05488
5584.84524,0.07008
5586.77371,0.06821
5588.70217,0.07201
5590.63064,0.09093
5592.55911,0.09658
5594.48758,0.07070
5596.41605,0.04330
5598.34452,0.04609
5600.27299,0.06364
5602.20145,0.05964
5604.12992,0.04205
5606.05839,0.04633
5607.98686,0.07035
5609.91533,0.09034
5611.84380,0.10266
5613.77227,0.11455
5615.70074,0.12798
5617.62920,0.13389
5619.55767,0.12348
5621.48614,0.10794
5623.41461,0.10848
5625.34308,0.12460
5627.27155,0.13559
5629.20002,0.13117
5631.12848,0.10352
5633.05695,0.05838
5634.98542,0.03822
5636.91389,0.05872
5638.84236,0.07108
5640.77083,0.04810
5642.69930,0.02071
5644.62777,0.02498
5646.55623,0.05921
5648.48470,0.07140
5650.41317,0.04329
5652.34164,0.02526
5654.27011,0.04461
5656.19858,0.08985
5658.12705,0.12985
5660.05551,0.13014
5661.98398,0.09834
5663.91245,0.07175
5665.84092,0.06449
5667.76939,0.05971
5669.69786,0.05972
5671.62633,0.08113
5673.55480,0.09822
5675.48326,0.09026
5677.41173,0.08578
5679.34020,0.09120
5681.26867,0.08683
5683.19714,0.08250
5685.12561,0.07881
5687.05408,0.06784
5688.98254,0.07131
5690.91101,0.09163
5692.83948,0.09988
5694.76795,0.09681
5696.69642,0.09866
5698.62489,0.09398
5700.55336,0.08240
5702.48183,0.08127
5704.41029,0.07270
5706.33876,0.04920
5708.26723,0.04314
5710.19570,0.04982
5712.12417,0.04491
5714.05264,0.05070
5715.98111,0.08089
5717.90957,0.10938
5719.83804,0.11754
5721.76651,0.11532
5723.69498,0.11631
5725.62345,0.12788
5727.55192,0.14894
5729.48039,0.15297
5731.40886,0.14066
5733.33732,0.13852
5735.26579,0.14283
5737.19426,0.13988
5739.12273,0.12856
5741.05120,0.11364
5742.97967,0.10925
5744.90814,0.12005
5746.83660,0.12050
5748.76507,0.10274
5750.69354,0.08787
5752.62201,0.07584
5754.55048,0.06970
5756.47895,0.08099
5758.40742,0.09781
5760.33588,0.10561
5762.26435,0.10512
5764.19282,0.09971
5766.12129,0.09629
5768.04976,0.10127
5769.97823,0.08445
5771.90670,0.04134
5773.83517,0.02210
5775.76363,0.03321
5777.69210,0.05521
5779.62057,0.08575
5781.54904,0.12466
5783.47751,0.16705
5785.40598,0.18498
5787.33445,0.15749
5789.26291,0.10320
5791.19138,0.04488
5793.11985,0.01535
5795.04832,0.04548
5796.97679,0.09501
5798.90526,0.11597
5800.83373,0.10926
5802.76220,0.07489
5804.69066,0.05169
5806.61913,0.07182
5808.54760,0.08827
5810.47607,0.08322
5812.40454,0.08806
5814.33301,0.09533
5816.26148,0.08946
5818.18994,0.10578
5820.11841,0.13802
5822.04688,0.11876
5823.97535,0.06828
5825.90382,0.05248
5827.83229,0.05823
5829.76076,0.05870
5831.68923,0.07018
5833.61769,0.09307
5835.54616,0.09845
5837.47463,0.07255
5839.40310,0.04374
5841.33157,0.05615
5843.26004,0.09306
5845.18851,0.10005
5847.11697,0.08487
5849.04544,0.08456
5850.97391,0.09158
5852.90238,0.07936
5854.83085,0.04274
5856.75932,0.01637
5858.68779,0.03491
5860.61626,0.07596
5862.54472,0.09527
5864.47319,0.08115
5866.40166,0.06914
5868.33013,0.08163
5870.25860,0.09793
5872.18707,0.10682
5874.11554,0.10371
5876.04400,0.09670
5877.97247,0.11547
5879.90094,0.12325
5881.82941,0.08090
5883.75788,0.05993
5885.68635,0.10251
5887.61482,0.15112
5889.54329,0.15969
5891.47175,0.14885
5893.40022,0.14469
5895.32869,0.14961
5897.25716,0.15961
5899.18563,0.16614
5901.11410,0.17833
5903.04257,0.17781
5904.97103,0.14028
5906.89950,0.10535
5908.82797,0.09516
5910.75644,0.11428
5912.68491,0.16482
5914.61338,0.18690
5916.54185,0.14136
5918.47032,0.07857
5920.39878,0.05015
5922.32725,0.05356
5924.25572,0.08085
5926.18419,0.12658
5928.11266,0.14377
5930.04113,0.11671
5931.96960,0.11654
5933.89806,0.16379
5935.82653,0.17529
5937.75500,0.13063
5939.68347,0.09038
5941.61194,0.06972
5943.54041,0.04626
5945.46888,0.01726
5947.39734,0.02522
5949.32581,0.08160
5951.25428,0.10161
5953.18275,0.07998
5955.11122,0.08148
5957.03969,0.08658
5958.96816,0.07485
5960.89663,0.05359
5962.82509,0.03246
5964.75356,0.02725
5966.68203,0.02084
5968.61050,0.00472
5970.53897,0.01470
5972.46744,0.05723
5974.39591,0.10414
5976.32437,0.13272
5978.25284,0.13350
5980.18131,0.11734
5982.10978,0.09089
5984.03825,0.05557
5985.96672,0.04199
5987.89519,0.07725
5989.82366,0.11624
5991.75212,0.11002
5993.68059,0.07796
5995.60906,0.05203
5997.53753,0.04508
5999.46600,0.05326
6001.39447,0.06504
6003.32294,0.06551
6005.25140,0.06226
6007.17987,0.06752
6009.10834,0.05070
6011.03681,0.02745
6012.96528,0.04336
6014.89375,0.07441
6016.82222,0.09753
6018.75069,0.11452
6020.67915,0.11537
6022.60762,0.13336
6024.53609,0.18721
6026.46456,0.22279
6028.39303,0.18966
6030.32150,0.11222
6032.24997,0.07558
6034.17843,0.08677
6036.10690,0.10295
6038.03537,0.13949
6039.96384,0.16073
6041.89231,0.11691
6043.82078,0.06985
6045.74925,0.08257
6047.67772,0.11661
6049.60618,0.12492
6051.53465,0.12915
6053.46312,0.14148
6055.39159,0.11848
6057.32006,0.04898
6059.24853,-0.01360
6061.17700,-0.03026
6063.10546,-0.01323
6065.03393,0.01683
6066.96240,0.04721
6068.89087,0.05899
6070.81934,0.05948
6072.74781,0.06516
6074.67628,0.07395
6076.60475,0.08576
6078.53321,0.11081
6080.46168,0.15765
6082.39015,0.18180
6084.31862,0.13534
6086.24709,0.06558
6088.17556,0.05739
6090.10403,0.11475
6092.03249,0.17055
6093.96096,0.18286
6095.88943,0.16892
6097.81790,0.13903
6099.74637,0.10502
6101.67484,0.10033
6103.60331,0.09931
6105.53177,0.04775
6107.46024,-0.00611
6109.38871,0.01336
6111.31718,0.05513
6113.24565,0.04897
6115.17412,0.01406
6117.10259,0.00827
6119.03106,0.05118
6120.95952,0.08826
6122.88799,0.10133
6124.81646,0.11290
6126.74493,0.11774
6128.67340,0.11257
6130.60187,0.10638
6132.53034,0.10259
6134.45880,0.09961
6136.38727,0.08969
6138.31574,0.06896
6140.24421,0.06034
6142.17268,0.09653
6144.10115,0.14536
6146.02962,0.14097
6147.95809,0.09643
6149.88655,0.08380
6151.81502,0.11955
6153.74349,0.12586
6155.67196,0.08070
6157.60043,0.04127
6159.52890,0.03148
6161.45737,0.04183
6163.38583,0.06112
6165.31430,0.07822
6167.24277,0.08361
6169.17124,0.08164
6171.09971,0.07419
6173.02818,0.05701
6174.95665,0.04593
6176.88512,0.06533
6178.81358,0.10598
6180.74205,0.12619
6182.67052,0.09050
6184.59899,0.01741
6186.52746,-0.00832
6188.45593,0.06818
6190.38440,0.15708
6192.31286,0.14787
6194.24133,0.08593
6196.16980,0.08015
6198.09827,0.11317
6200.02674,0.11535
6201.95521,0.08339
6203.88368,0.04011
6205.81215,0.01523
6207.74061,0.04123
6209.66908,0.10215
6211.59755,0.11108
6213.52602,0.07543
6215.45449,0.07459
6217.38296,0.08691
6219.31143,0.05552
6221.23989,0.00774
6223.16836,0.00873
6225.09683,0.04300
6227.02530,0.04765
6228.95377,0.04623
6230.88224,0.03503
6232.81071,-0.02931
6234.73918,-0.05000
6236.66764,0.01686
6238.59611,0.07584
6240.52458,0.09457
6242.45305,0.10354
6244.38152,0.09247
6246.30999,0.04949
6248.23846,0.01854
6250.16692,0.02127
6252.09539,0.02111
6254.02386,0.00058
6255.95233,-0.00970
6257.88080,0.00524
6259.80927,0.00127
6261.73774,-0.03836
6263.66621,-0.06659
6265.59467,-0.06965
6267.52314,-0.07484
6269.45161,-0.06575
6271.38008,-0.03155
6273.30855,0.00615
6275.23702,0.04229
6277.16549,0.09902
6279.09395,0.15106
6281.02242,0.12859
6282.95089,0.04003
6284.87936,-0.02138
6286.80783,-0.00931
6288.73630,0.03630
6290.66477,0.06524
6292.59323,0.07071
6294.52170,0.07870
6296.45017,0.10368
6298.37864,0.13951
6300.30711,0.16622
6302.23558,0.14785
6304.16405,0.11145
6306.09252,0.11981
6308.02098,0.14426
6309.94945,0.12669
6311.87792,0.09829
6313.80639,0.11136
6315.73486,0.14351
6317.66333,0.16344
6319.59180,0.17560
6321.52026,0.19485
6323.44873,0.20288
6325.37720,0.18896
6327.30567,0.18441
6329.23414,0.16962
6331.16261,0.11735
6333.09108,0.07753
6335.01955,0.06744
6336.94801,0.06050
6338.87648,0.06285
6340.80495,0.04707
6342.73342,-0.02223
6344.66189,-0.08931
6346.59036,-0.09549
6348.51883,-0.04061
6350.44729,0.04715
6352.37576,0.11178
6354.30423,0.15558
6356.23270,0.19022
6358.16117,0.14882
6360.08964,0.03445
6362.01811,-0.02758
6363.94658,-0.00721
6365.87504,0.00688
6367.80351,0.01270
6369.73198,0.05779
6371.66045,0.11213
6373.58892,0.15471
6375.51739,0.17236
6377.44586,0.13281
6379.37432,0.08684
6381.30279,0.10284
6383.23126,0.12890
6385.15973,0.10896
6387.08820,0.09235
6389.01667,0.09609
6390.94514,0.09968
6392.87361,0.08174
6394.80207,0.06827
6396.73054,0.12361
6398.65901,0.20606
6400.58748,0.20233
6402.51595,0.12908
6404.44442,0.09275
6406.37289,0.07122
6408.30135,0.04419
6410.22982,0.08002
6412.15829,0.14948
6414.08676,0.15599
6416.01523,0.10510
6417.94370,0.06212
6419.87217,0.06330
6421.80064,0.09875
6423.72910,0.13624
6425.65757,0.14280
6427.58604,0.14846
6429.51451,0.16479
6431.44298,0.10460
6433.37145,0.00615
6435.29992,-0.01688
6437.22838,-0.00298
6439.15685,-0.00163
6441.08532,0.00360
6443.01379,0.02714
6444.94226,0.06555
6446.87073,0.08467
6448.79920,0.06925
6450.72766,0.02451
6452.65613,-0.01562
6454.58460,-0.00131
6456.51307,0.05616
6458.44154,0.10436
6460.37001,0.11407
6462.29848,0.10858
6464.22695,0.11503
6466.15541,0.09888
6468.08388,0.06460
6470.01235,0.07712
6471.94082,0.16190
6473.86929,0.24268
6475.79776,0.21852
6477.72623,0.14507
6479.65469,0.11644
6481.58316,0.11914
6483.51163,0.14720
6485.44010,0.20772
6487.36857,0.25200
6489.29704,0.21045
6491.22551,0.12599
6493.15398,0.10256
6495.08244,0.11952
6497.01091,0.08665
6498.93938,0.03155
6500.86785,0.05139
6502.79632,0.09565
6504.72479,0.08342
6506.65326,0.07597
6508.58172,0.09137
6510.51019,0.08128
6512.43866,0.05906
6514.36713,0.04096
6516.29560,0.02743
6518.22407,0.02763
6520.15254,-0.00063
6522.08101,-0.02967
6524.00947,0.00455
6525.93794,0.03864
6527.86641,0.02683
6529.79488,0.04983
6531.72335,0.14659
6533.65182,0.20236
6535.58029,0.13724
6537.50875,0.07015
6539.43722,0.09948
6541.36569,0.15963
6543.29416,0.15041
6545.22263,0.06902
6547.15110,0.00695
6549.07957,0.02079
6551.00804,0.07089
6552.93650,0.09203
6554.86497,0.08964
6556.79344,0.07839
6558.72191,0.08633
6560.65038,0.11494
6562.57885,0.11661
6564.50732,0.09262
6566.43578,0.06725
6568.36425,0.05322
6570.29272,0.05793
6572.22119,0.05938
6574.14966,0.04082
6576.07813,0.02939
6578.00660,0.06320
6579.93507,0.09282
6581.86353,0.07309
6583.79200,0.05811
6585.72047,0.03405
6587.64894,0.00236
6589.57741,0.04374
6591.50588,0.10487
6593.43435,0.08691
6595.36281,0.05068
6597.29128,0.06253
6599.21975,0.05678
6601.14822,0.00318
6603.07669,-0.01728
6605.00516,0.04688
6606.93363,0.11279
6608.86210,0.08082
6610.79056,-0.00747
6612.71903,-0.04895
6614.64750,-0.00535
6616.57597,0.04013
6618.50444,0.02681
6620.43291,0.05102
6622.36138,0.11390
6624.28984,0.08295
6626.21831,-0.03076
6628.14678,-0.09141
6630.07525,-0.06528
6632.00372,-0.01250
6633.93219,0.09339
6635.86066,0.22005
6637.78912,0.19768
6639.71759,0.08083
6641.64606,0.03132
6643.57453,0.04074
6645.50300,0.04171
6647.43147,0.03694
6649.35994,0.05153
6651.28841,0.09202
6653.21687,0.13522
6655.14534,0.14096
6657.07381,0.16019
6659.00228,0.24231
6660.93075,0.24257
6662.85922,0.12227
6664.78769,0.06915
6666.71615,0.15011
6668.64462,0.22235
6670.57309,0.20189
6672.50156,0.10680
6674.43003,0.01025
6676.35850,0.03324
6678.28697,0.12769
6680.21544,0.17303
6682.14390,0.15850
6684.07237,0.12324
6686.00084,0.10402
6687.92931,0.10800
6689.85778,0.11125
6691.78625,0.06721
6693.71472,-0.01444
6695.64318,-0.06479
6697.57165,-0.04407
6699.50012,0.01989
6701.42859,0.09085
6703.35706,0.11579
6705.28553,0.07301
6707.21400,0.00462
6709.14247,-0.03104
6711.07093,0.00532
6712.99940,0.07605
6714.92787,0.12125
6716.85634,0.14013
6718.78481,0.17484
6720.71328,0.22205
6722.64175,0.22747
6724.57021,0.15204
6726.49868,0.04780
6728.42715,-0.00886
6730.35562,-0.03321
6732.28409,-0.02913
6734.21256,-0.00107
6736.14103,-0.00819
6738.06950,0.00573
6739.99796,0.10404
6741.92643,0.17098
6743.85490,0.11565
6745.78337,0.04605
6747.71184,0.03381
6749.64031,0.07653
6751.56878,0.15961
6753.49724,0.20539
6755.42571,0.13588
6757.35418,0.01306
6759.28265,-0.04284
6761.21112,0.00481
6763.13959,0.07747
6765.06806,0.10553
6766.99653,0.11503
6768.92499,0.16016
6770.85346,0.14620
6772.78193,0.00851
6774.71040,-0.09883
6776.63887,-0.05466
6778.56734,0.05713
6780.49581,0.15397
6782.42427,0.19578
6784.35274,0.16057
6786.28121,0.08380
6788.20968,0.03602
6790.13815,0.08305
6792.06662,0.13803
6793.99509,0.08893
6795.92355,0.03536
6797.85202,0.03079
6799.78049,-0.01841
6801.70896,-0.13413
6803.63743,-0.17099
6805.56590,-0.09807
6807.49437,-0.09155
6809.42284,-0.18260
6811.35130,-0.24497
6813.27977,-0.16476
6815.20824,0.01836
6817.13671,0.14071
6819.06518,0.15399
6820.99365,0.18003
6822.92212,0.21612
6824.85058,0.18163
6826.77905,0.15724
6828.70752,0.11651
6830.63599,-0.03490
6832.56446,-0.14272
6834.49293,-0.09301
6836.42140,-0.00349
6838.34987,-0.01407
6840.27833,-0.05197
6842.20680,-0.01052
6844.13527,0.06588
6846.06374,0.09752
6847.99221,0.05227
6849.92068,-0.00648
6851.84915,0.04067
6853.77761,0.12931
6855.70608,0.13217
6857.63455,0.03119
6859.56302,-0.08925
6861.49149,-0.11754
6863.41996,-0.06033
6865.34843,-0.01680
6867.27690,0.02257
6869.20536,0.07251
6871.13383,0.12208
6873.06230,0.15767
6874.99077,0.12411
6876.91924,0.06516
6878.84771,0.08683
6880.77618,0.12940
6882.70464,0.11098
6884.63311,0.13489
6886.56158,0.19118
6888.49005,0.19599
6890.41852,0.13841
6892.34699,0.06187
6894.27546,0.02612
6896.20393,0.05078
6898.13239,0.10886
6900.06086,0.14759
6901.98933,0.19931
6903.91780,0.30311
6905.84627,0.32157
6907.77474,0.20903
6909.70321,0.17354
6911.63167,0.20453
6913.56014,0.10556
6915.48861,-0.03836
6917.41708,-0.02759
6919.34555,0.07693
6921.27402,0.09032
6923.20249,0.04321
6925.13096,0.03624
6927.05942,0.06618
6928.98789,0.09579
6930.91636,0.09308
6932.84483,0.03700
6934.77330,-0.02211
6936.70177,-0.01730
6938.63024,0.07258
6940.55870,0.21419
6942.48717,0.26622
6944.41564,0.14179
6946.34411,-0.09186
6948.27258,-0.21384
6950.20105,-0.13775
6952.12952,0.00060
6954.05799,0.13248
6955.98645,0.19587
6957.91492,0.12456
6959.84339,0.00026
6961.77186,-0.07743
6963.70033,-0.07689
6965.62880,-0.04644
6967.55727,-0.02654
6969.48573,0.02366
6971.41420,0.13516
6973.34267,0.20255
6975.27114,0.10467
6977.19961,-0.05269
6979.12808,-0.09138
6981.05655,-0.02699
6982.98501,0.02983
6984.91348,0.07534
6986.84195,0.11186
6988.77042,0.11102
6990.69889,0.12611
6992.62736,0.14797
6994.55583,0.08513
6996.48430,-0.04447
6998.41276,-0.06197
7000.34123,0.01329
7002.26970,0.04175
7004.19817,0.07737
7006.12664,0.09166
7008.05511,0.03962
7009.98358,0.02014
7011.91204,0.04919
7013.84051,0.04288
7015.76898,-0.00819
7017.69745,-0.01867
7019.62592,0.01644
7021.55439,0.04410
7023.48286,0.08688
7025.41133,0.16763
7027.33979,0.22740
7029.26826,0.19256
7031.19673,0.07889
7033.12520,0.00934
7035.05367,0.02756
7036.98214,0.02082
7038.91061,-0.01780
7040.83907,-0.01283
7042.76754,0.05061
7044.69601,0.13805
7046.62448,0.24896
7048.55295,0.30663
7050.48142,0.23192
7052.40989,0.16222
7054.33836,0.16539
7056.26682,0.15536
7058.19529,0.12276
7060.12376,0.11929
7062.05223,0.12173
7063.98070,0.05398
7065.90917,-0.00472
7067.83764,0.06223
7069.76610,0.17632
7071.69457,0.18844
7073.62304,0.12140
7075.55151,0.07472
7077.47998,0.03703
7079.40845,-0.00222
7081.33692,0.01475
7083.26539,0.07227
7085.19385,0.08085
7087.12232,0.00731
7089.05079,-0.08185
7090.97926,-0.05657
7092.90773,0.08516
7094.83620,0.22156
7096.76467,0.26884
7098.69313,0.21822
7100.62160,0.17484
7102.55007,0.20891
7104.47854,0.25390
7106.40701,0.27183
7108.33548,0.27469
7110.26395,0.24425
7112.19242,0.17504
7114.12088,0.12484
7116.04935,0.09107
7117.97782,0.01047
7119.90629,-0.04223
7121.83476,-0.00184
7123.76323,0.06528
7125.69170,0.05445
7127.62016,-0.00529
7129.54863,0.00996
7131.47710,0.05379
7133.40557,0.05865
7135.33404,0.06191
7137.26251,0.12300
7139.19098,0.23536
7141.11944,0.24779
7143.04791,0.07293
7144.97638,-0.11779
7146.90485,-0.10462
7148.83332,-0.04359
7150.76179,-0.06382
7152.69026,-0.01979
7154.61873,0.11533
7156.54719,0.18788
7158.47566,0.14360
7160.40413,0.04950
7162.33260,-0.00330
7164.26107,-0.06681
7166.18954,-0.14993
7168.11801,-0.12429
7170.04647,-0.00793
7171.97494,0.07593
7173.90341,0.03005
7175.83188,-0.07303
7177.76035,-0.08575
7179.68882,-0.03523
7181.61729,0.11743
7183.54576,0.28008
7185.47422,0.19530
7187.40269,0.01648
7189.33116,-0.08683
7191.25963,-0.04990
7193.18810,0.08382
7195.11657,0.19949
7197.04504,0.25202
7198.97350,0.23746
7200.90197,0.22680
7202.83044,0.21130
7204.75891,0.12746
7206.68738,0.10720
7208.61585,0.15827
7210.54432,0.16585
7212.47279,0.13847
7214.40125,0.06866
7216.32972,0.00217
7218.25819,0.10037
7220.18666,0.21135
7222.11513,0.19686
7224.04360,0.12537
7225.97207,-0.02159
7227.90053,-0.18849
7229.82900,-0.26127
7231.75747,-0.21232
7233.68594,-0.12092
7235.61441,-0.08981
7237.54288,-0.15748
7239.47135,-0.16733
7241.39982,0.07413
7243.32828,0.31059
7245.25675,0.21962
7247.18522,0.12818
7249.11369,0.16346
7251.04216,0.10466
7252.97063,-0.08939
7254.89910,-0.03492
7256.82756,0.19698
7258.75603,0.30979
7260.68450,0.22242
7262.61297,0.15336
7264.54144,0.19571
7266.46991,0.18004
7268.39838,0.17695
7270.32685,0.24271
7272.25531,0.27767
7274.18378,0.28035
7276.11225,0.30555
7278.04072,0.27978
7279.96919,0.10806
7281.89766,-0.01764
7283.82613,0.08350
7285.75459,0.24850
7287.68306,0.31433
7289.61153,0.25236
7291.54000,0.09661
7293.46847,-0.03375
7295.39694,-0.04711
7297.32541,-0.03759
7299.25387,-0.08942
7301.18234,-0.12959
7303.11081,-0.14332
7305.03928,-0.19553
7306.96775,-0.18287
7308.89622,0.02328
7310.82469,0.20974
7312.75316,0.23032
7314.68162,0.31246
7316.61009,0.51962
7318.53856,0.51408
7320.46703,0.27410
7322.39550,-0.03996
7324.32397,-0.23056
7326.25244,-0.12074
7328.18090,0.10280
7330.10937,0.20336
7332.03784,0.23525
7333.96631,0.18653
7335.89478,0.04632
7337.82325,-0.03783
7339.75172,-0.03920
7341.68019,0.01007
7343.60865,0.09974
7345.53712,0.10175
7347.46559,0.06942
7349.39406,0.03704
7351.32253,-0.14777
7353.25100,-0.29083
7355.17947,-0.16844
7357.10793,0.19147
7359.03640,0.56425
7360.96487,0.63654
7362.89334,0.41121
7364.82181,0.09851
7366.75028,-0.08585
7368.67875,-0.10387
7370.60722,-0.06741
7372.53568,-0.03232
7374.46415,0.01997
7376.39262,0.10929
7378.32109,0.14357
7380.24956,0.07604
7382.17803,0.05539
7384.10650,0.15722
7386.03496,0.25369
7387.96343,0.25558
7389.89190,0.25049
7391.82037,0.24121
7393.74884,0.03630
7395.67731,-0.25687
7397.60578,-0.27427
7399.53425,-0.05988
7401.46271,0.11834
7403.39118,0.14757
7405.31965,0.11962
7407.24812,0.18294
7409.17659,0.29545
7411.10506,0.32389
7413.03353,0.26670
7414.96199,0.25559
7416.89046,0.34790
7418.81893,0.44709
7420.74740,0.38279
7422.67587,0.19202
7424.60434,-0.01603
7426.53281,-0.16310
7428.46128,-0.18664
7430.38974,-0.05100
7432.31821,0.15369
7434.24668,0.27743
7436.17515,0.25953
7438.10362,0.26175
7440.03209,0.30364
7441.96056,0.12999
7443.88902,-0.13436
7445.81749,-0.15809
7447.74596,-0.00631
7449.67443,0.06587
7451.60290,-0.02259
7453.53137,-0.09020
7455.45984,-0.06838
7457.38831,0.00022
7459.31677,0.05806
7461.24524,0.04849
7463.17371,0.08822
7465.10218,0.15031
7467.03065,0.15368
7468.95912,0.14889
7470.88759,0.10454
7472.81605,0.05519
7474.74452,0.07619
7476.67299,0.09921
7478.60146,0.12711
7480.52993,0.25895
7482.45840,0.46781
7484.38687,0.59541
7486.31533,0.54942
7488.24380,0.30509
7490.17227,-0.01288
7492.10074,-0.14046
7494.02921,-0.03024
7495.95768,0.12791
7497.88615,0.22201
