399.19301,5.28903
401.12148,0.80112
403.04995,0.32084
404.97842,0.27284
406.90689,0.17603
408.83536,0.07012
410.76382,-0.02804
412.69229,-0.08027
414.62076,-0.08150
416.54923,-0.04679
418.47770,0.03365
420.40617,0.00438
422.33464,-0.09911
424.26311,-0.09156
426.19157,0.03285
428.12004,0.11591
430.04851,0.06652
431.97698,-0.05306
433.90545,-0.03966
435.83392,0.09000
437.76239,0.17827
439.69085,0.21487
441.61932,0.20690
443.54779,0.08306
445.47626,-0.06726
447.40473,-0.07935
449.33320,-0.03203
451.26167,-0.05734
453.19013,-0.07949
455.11860,-0.04803
457.04707,-0.03340
458.97554,-0.01380
460.90401,0.03206
462.83248,0.02560
464.76095,-0.01964
466.68942,-0.02058
468.61788,0.04149
470.54635,0.25861
472.47482,1.11817
474.40329,2.04978
476.33176,1.30442
478.26023,0.38188
480.18870,0.07415
482.11716,0.08213
484.04563,0.12496
485.97410,0.08856
487.90257,-0.00387
489.83104,-0.01645
491.75951,0.05303
493.68798,0.11116
495.61645,0.14809
497.54491,0.15721
499.47338,0.11817
501.40185,0.06799
503.33032,0.04793
505.25879,0.08217
507.18726,0.15364
509.11573,0.17422
511.04419,0.14948
512.97266,0.14622
514.90113,0.15569
516.82960,0.17112
518.75807,0.19150
520.68654,0.17705
522.61501,0.13159
524.54348,0.08247
526.47194,0.06239
528.40041,0.08989
530.32888,0.12097
532.25735,0.10850
534.18582,0.08411
536.11429,0.08131
538.04276,0.07581
539.97122,0.06637
541.89969,0.06726
543.82816,0.08365
545.75663,0.12024
547.68510,0.15967
549.61357,0.18970
551.54204,0.25671
553.47051,0.32987
555.39897,0.28848
557.32744,0.19124
559.25591,0.15591
561.18438,0.13676
563.11285,0.11559
565.04132,0.11577
566.96979,0.11430
568.89825,0.11896
570.82672,0.14091
572.75519,0.14810
574.68366,0.13510
576.61213,0.12980
578.54060,0.14471
580.46907,0.16090
582.39754,0.14709
584.32600,0.11664
586.25447,0.10808
588.18294,0.12124
590.11141,0.13895
592.03988,0.15406
593.96835,0.14705
595.89682,0.12364
597.82528,0.11148
599.75375,0.10812
601.68222,0.11085
603.61069,0.12204
605.53916,0.12643
607.46763,0.11598
609.39610,0.09853
611.32456,0.08340
613.25303,0.07331
615.18150,0.07092
617.10997,0.08238
619.03844,0.10385
620.96691,0.12218
622.89538,0.12964
624.82385,0.12953
626.75231,0.13008
628.68078,0.13481
630.60925,0.13449
632.53772,0.11802
634.46619,0.10342
636.39466,0.11428
638.32313,0.13765
640.25159,0.14952
642.18006,0.14489
644.10853,0.13395
646.03700,0.12890
647.96547,0.12946
649.89394,0.12812
651.82241,0.14013
653.75088,0.15896
655.67934,0.14724
657.60781,0.11425
659.53628,0.09334
661.46475,0.09523
663.39322,0.11215
665.32169,0.12782
667.25016,0.13545
669.17862,0.13043
671.10709,0.12264
673.03556,0.12418
674.96403,0.12920
676.89250,0.13202
678.82097,0.13853
680.74944,0.14544
682.67791,0.14362
684.60637,0.13968
686.53484,0.13603
688.46331,0.12501
690.39178,0.11256
692.32025,0.11663
694.24872,0.13817
696.17719,0.15132
698.10565,0.13999
700.03412,0.11925
701.96259,0.10767
703.89106,0.10686
705.81953,0.10993
707.74800,0.11534
709.67647,0.12276
711.60494,0.13198
713.53340,0.14264
715.46187,0.14530
717.39034,0.13187
719.31881,0.11165
721.24728,0.10943
723.17575,0.13077
725.10422,0.15013
727.03268,0.15311
728.96115,0.14582
730.88962,0.14013
732.81809,0.14322
734.74656,0.14614
736.67503,0.14204
738.60350,0.13924
740.53197,0.14155
742.46043,0.14030
744.38890,0.13251
746.31737,0.12990
748.24584,0.13828
750.17431,0.14750
752.10278,0.14799
754.03125,0.14342
755.95971,0.14416
757.88818,0.14813
759.81665,0.14332
761.74512,0.13341
763.67359,0.12862
765.60206,0.13221
767.53053,0.14721
769.45900,0.15815
771.38746,0.15202
773.31593,0.14723
775.24440,0.14996
777.17287,0.14824
779.10134,0.14124
781.02981,0.13061
782.95828,0.12160
784.88674,0.12568
786.81521,0.14549
788.74368,0.16754
790.67215,0.17553
792.60062,0.16822
794.52909,0.14771
796.45756,0.12660
798.38602,0.13148
800.31449,0.15123
802.24296,0.15290
804.17143,0.14243
806.09990,0.13662
808.02837,0.13951
809.95684,0.14950
811.88531,0.15225
813.81377,0.14065
815.74224,0.12491
817.67071,0.11590
819.59918,0.11703
821.52765,0.12470
823.45612,0.13486
825.38459,0.14193
827.31305,0.14086
829.24152,0.13526
831.16999,0.13522
833.09846,0.14384
835.02693,0.14782
836.95540,0.14353
838.88387,0.14348
840.81234,0.14883
842.74080,0.15132
844.66927,0.14858
846.59774,0.14537
848.52621,0.14679
850.45468,0.15175
852.38315,0.15285
854.31162,0.15625
856.24008,0.16666
858.16855,0.16746
860.09702,0.15642
862.02549,0.15117
863.95396,0.15745
865.88243,0.15890
867.81090,0.15249
869.73937,0.15729
871.66783,0.16444
873.59630,0.15891
875.52477,0.15168
877.45324,0.14790
879.38171,0.14728
881.31018,0.15148
883.23865,0.15550
885.16711,0.15435
887.09558,0.14922
889.02405,0.14779
890.95252,0.15020
892.88099,0.14648
894.80946,0.14099
896.73793,0.14536
898.66640,0.15232
900.59486,0.14960
902.52333,0.13761
904.45180,0.12873
906.38027,0.13659
908.30874,0.15145
910.23721,0.15183
912.16568,0.14305
914.09414,0.14236
916.02261,0.14723
917.95108,0.14921
919.87955,0.14676
921.80802,0.14121
923.73649,0.13605
925.66496,0.12951
927.59343,0.12477
929.52189,0.13314
931.45036,0.14805
933.37883,0.15420
935.30730,0.15221
937.23577,0.14887
939.16424,0.14579
941.09271,0.14638
943.02117,0.15009
944.94964,0.15163
946.87811,0.15275
948.80658,0.15712
950.73505,0.16507
952.66352,0.16949
954.59199,0.16565
956.52045,0.15822
958.44892,0.14826
960.37739,0.14438
962.30586,0.15198
964.23433,0.15787
966.16280,0.15832
968.09127,0.15605
970.01974,0.14617
971.94820,0.13732
973.87667,0.14081
975.80514,0.14631
977.73361,0.14583
979.66208,0.14773
981.59055,0.14956
983.51902,0.14340
985.44748,0.13909
987.37595,0.14263
989.30442,0.14869
991.23289,0.15283
993.16136,0.15420
995.08983,0.15954
997.01830,0.16545
998.94677,0.16158
1000.87523,0.15476
1002.80370,0.15391
1004.73217,0.15688
1006.66064,0.16398
1008.58911,0.17298
1010.51758,0.17429
1012.44605,0.16955
1014.37451,0.16753
1016.30298,0.16845
1018.23145,0.16704
1020.15992,0.16253
1022.08839,0.15757
1024.01686,0.14912
1025.94533,0.14476
1027.87380,0.15382
1029.80226,0.15701
1031.73073,0.14637
1033.65920,0.14405
1035.58767,0.15298
1037.51614,0.16103
1039.44461,0.16655
1041.37308,0.16811
1043.30154,0.16330
1045.23001,0.15849
1047.15848,0.15984
1049.08695,0.16424
1051.01542,0.16597
1052.94389,0.16093
1054.87236,0.15442
1056.80083,0.15468
1058.72929,0.15805
1060.65776,0.15846
1062.58623,0.15934
1064.51470,0.16513
1066.44317,0.17025
1068.37164,0.17342
1070.30011,0.17676
1072.22857,0.17306
1074.15704,0.16482
1076.08551,0.16342
1078.01398,0.16705
1079.94245,0.16875
1081.87092,0.16815
1083.79939,0.16447
1085.72786,0.15680
1087.65632,0.14993
1089.58479,0.15030
1091.51326,0.15619
1093.44173,0.16078
1095.37020,0.16296
1097.29867,0.16565
1099.22714,0.16796
1101.15560,0.16507
1103.08407,0.15848
1105.01254,0.15256
1106.94101,0.14992
1108.86948,0.15553
1110.79795,0.16769
1112.72642,0.17744
1114.65489,0.18046
1116.58335,0.17843
1118.51182,0.17366
1120.44029,0.16811
1122.36876,0.16364
1124.29723,0.16304
1126.22570,0.16670
1128.15417,0.16653
1130.08263,0.15936
1132.01110,0.15248
1133.93957,0.14808
1135.86804,0.14818
1137.79651,0.15433
1139.72498,0.15741
1141.65345,0.15661
1143.58191,0.15989
1145.51038,0.16651
1147.43885,0.17106
1149.36732,0.16934
1151.29579,0.16551
1153.22426,0.16830
1155.15273,0.17512
1157.08120,0.17867
1159.00966,0.18050
1160.93813,0.18078
1162.86660,0.17335
1164.79507,0.16225
1166.72354,0.15891
1168.65201,0.16445
1170.58048,0.16971
1172.50894,0.16952
1174.43741,0.16891
1176.36588,0.17075
1178.29435,0.17027
1180.22282,0.16595
1182.15129,0.16235
1184.07976,0.16307
1186.00823,0.16496
1187.93669,0.16609
1189.86516,0.16953
1191.79363,0.17337
1193.72210,0.17343
1195.65057,0.16972
1197.57904,0.16764
1199.50751,0.16988
1201.43597,0.17111
1203.36444,0.17084
1205.29291,0.17135
1207.22138,0.16969
1209.14985,0.16571
1211.07832,0.16464
1213.00679,0.16807
1214.93526,0.17168
1216.86372,0.17186
1218.79219,0.16865
1220.72066,0.16435
1222.64913,0.16317
1224.57760,0.16698
1226.50607,0.17084
1228.43454,0.17047
1230.36300,0.16634
1232.29147,0.16109
1234.21994,0.15914
1236.14841,0.16238
1238.07688,0.16563
1240.00535,0.16255
1241.93382,0.15746
1243.86229,0.15725
1245.79075,0.15957
1247.71922,0.15986
1249.64769,0.15718
1251.57616,0.15477
1253.50463,0.15782
1255.43310,0.16541
1257.36157,0.17070
1259.29003,0.17142
1261.21850,0.16991
1263.14697,0.16714
1265.07544,0.16153
1267.00391,0.15526
1268.93238,0.15650
1270.86085,0.16536
1272.78932,0.17314
1274.71778,0.17547
1276.64625,0.17552
1278.57472,0.17558
1280.50319,0.17239
1282.43166,0.16793
1284.36013,0.16938
1286.28860,0.17422
1288.21706,0.17523
1290.14553,0.17263
1292.07400,0.16907
1294.00247,0.16630
1295.93094,0.16510
1297.85941,0.16478
1299.78788,0.16147
1301.71634,0.14633
1303.64481,0.12435
1305.57328,0.12204
1307.50175,0.14724
1309.43022,0.17133
1311.35869,0.17638
1313.28716,0.17426
1315.21563,0.17468
1317.14409,0.17547
1319.07256,0.17377
1321.00103,0.17138
1322.92950,0.16956
1324.85797,0.16451
1326.78644,0.16000
1328.71491,0.16190
1330.64337,0.16366
1332.57184,0.16439
1334.50031,0.16834
1336.42878,0.17161
1338.35725,0.17319
1340.28572,0.16960
1342.21419,0.16548
1344.14266,0.17406
1346.07112,0.18108
1347.99959,0.17290
1349.92806,0.16597
1351.85653,0.16729
1353.78500,0.16841
1355.71347,0.17084
1357.64194,0.17677
1359.57040,0.18069
1361.49887,0.17875
1363.42734,0.17415
1365.35581,0.17218
1367.28428,0.17312
1369.21275,0.17502
1371.14122,0.17726
1373.06969,0.18040
1374.99815,0.18116
1376.92662,0.17726
1378.85509,0.17407
1380.78356,0.17379
1382.71203,0.17421
1384.64050,0.17669
1386.56897,0.18111
1388.49743,0.18271
1390.42590,0.18245
1392.35437,0.18581
1394.28284,0.19507
1396.21131,0.20072
1398.13978,0.19505
1400.06825,0.18469
1401.99672,0.17671
1403.92518,0.17480
1405.85365,0.17869
1407.78212,0.18325
1409.71059,0.18432
1411.63906,0.18073
1413.56753,0.17933
1415.49600,0.18661
1417.42446,0.19681
1419.35293,0.19846
1421.28140,0.19527
1423.20987,0.19524
1425.13834,0.19376
1427.06681,0.19032
1428.99528,0.18901
1430.92375,0.18817
1432.85221,0.18782
1434.78068,0.18910
1436.70915,0.18497
1438.63762,0.18010
1440.56609,0.18309
1442.49456,0.18463
1444.42303,0.18245
1446.35149,0.18444
1448.27996,0.19013
1450.20843,0.19328
1452.13690,0.19511
1454.06537,0.20214
1455.99384,0.21804
1457.92231,0.22068
1459.85077,0.20303
1461.77924,0.19388
1463.70771,0.19404
1465.63618,0.19545
1467.56465,0.19246
1469.49312,0.19023
1471.42159,0.19304
1473.35006,0.19724
1475.27852,0.19504
1477.20699,0.19132
1479.13546,0.19124
1481.06393,0.18975
1482.99240,0.18415
1484.92087,0.18341
1486.84934,0.19268
1488.77780,0.20406
1490.70627,0.20012
1492.63474,0.18922
1494.56321,0.18858
1496.49168,0.19582
1498.42015,0.19532
1500.34862,0.18707
1502.27709,0.18312
1504.20555,0.18953
1506.13402,0.21351
1508.06249,0.22462
1509.99096,0.20712
1511.91943,0.19828
1513.84790,0.20218
1515.77637,0.21133
1517.70483,0.21617
1519.63330,0.21731
1521.56177,0.21496
1523.49024,0.20605
1525.41871,0.20194
1527.34718,0.20145
1529.27565,0.20070
1531.20412,0.20380
1533.13258,0.20955
1535.06105,0.21076
1536.98952,0.21235
1538.91799,0.22061
1540.84646,0.22811
1542.77493,0.22503
1544.70340,0.21400
1546.63186,0.20050
1548.56033,0.19462
1550.48880,0.19687
1552.41727,0.20245
1554.34574,0.21048
1556.27421,0.22129
1558.20268,0.22669
1560.13115,0.20517
1562.05961,0.19311
1563.98808,0.19444
1565.91655,0.19616
1567.84502,0.19467
1569.77349,0.19081
1571.70196,0.18764
1573.63043,0.19101
1575.55889,0.19715
1577.48736,0.19420
1579.41583,0.18729
1581.34430,0.18305
1583.27277,0.18155
1585.20124,0.18285
1587.12971,0.18470
1589.05818,0.18506
1590.98664,0.18325
1592.91511,0.18137
1594.84358,0.17980
1596.77205,0.17569
1598.70052,0.17294
1600.62899,0.17553
1602.55746,0.17905
1604.48592,0.18079
1606.41439,0.18277
1608.34286,0.18338
1610.27133,0.18179
1612.19980,0.18294
1614.12827,0.19163
1616.05674,0.20464
1617.98521,0.20468
1619.91367,0.19895
1621.84214,0.20126
1623.77061,0.20363
1625.69908,0.20267
1627.62755,0.20437
1629.55602,0.20292
1631.48449,0.19868
1633.41295,0.20111
1635.34142,0.21224
1637.26989,0.21359
1639.19836,0.20594
1641.12683,0.20360
1643.05530,0.20776
1644.98377,0.21852
1646.91223,0.22982
1648.84070,0.22686
1650.76917,0.22501
1652.69764,0.23177
1654.62611,0.21931
1656.55458,0.20138
1658.48305,0.19441
1660.41152,0.19414
1662.33998,0.19744
1664.26845,0.20328
1666.19692,0.21119
1668.12539,0.22071
1670.05386,0.22270
1671.98233,0.21564
1673.91080,0.21137
1675.83926,0.20692
1677.76773,0.20204
1679.69620,0.20321
1681.62467,0.21209
1683.55314,0.22265
1685.48161,0.21713
1687.41008,0.20675
1689.33855,0.20189
1691.26701,0.19976
1693.19548,0.20092
1695.12395,0.20661
1697.05242,0.21163
1698.98089,0.20910
1700.90936,0.20410
1702.83783,0.20510
1704.76629,0.20816
1706.69476,0.20513
1708.62323,0.19645
1710.55170,0.19066
1712.48017,0.19299
1714.40864,0.20468
1716.33711,0.21802
1718.26558,0.21259
1720.19404,0.19998
1722.12251,0.19532
1724.05098,0.19354
1725.97945,0.19300
1727.90792,0.19464
1729.83639,0.19689
1731.76486,0.20170
1733.69332,0.20690
1735.62179,0.20280
1737.55026,0.19964
1739.47873,0.20041
1741.40720,0.19841
1743.33567,0.19610
1745.26414,0.19757
1747.19261,0.20127
1749.12107,0.20537
1751.04954,0.20527
1752.97801,0.19939
1754.90648,0.19353
1756.83495,0.19333
1758.76342,0.19968
1760.69189,0.20517
1762.62035,0.20301
1764.54882,0.19920
1766.47729,0.20117
1768.40576,0.20533
1770.33423,0.20857
1772.26270,0.20902
1774.19117,0.20135
1776.11964,0.19330
1778.04810,0.19208
1779.97657,0.19509
1781.90504,0.19567
1783.83351,0.19447
1785.76198,0.19351
1787.69045,0.19254
1789.61892,0.19456
1791.54738,0.19792
1793.47585,0.19740
1795.40432,0.19692
1797.33279,0.19743
1799.26126,0.19623
1801.18973,0.19406
1803.11820,0.19191
1805.04666,0.19100
1806.97513,0.19318
1808.90360,0.19780
1810.83207,0.19930
1812.76054,0.19238
1814.68901,0.18372
1816.61748,0.18047
1818.54595,0.17660
1820.47441,0.17025
1822.40288,0.17489
1824.33135,0.19078
1826.25982,0.19943
1828.18829,0.19893
1830.11676,0.19644
1832.04523,0.19206
1833.97369,0.19079
1835.90216,0.19360
1837.83063,0.19513
1839.75910,0.19518
1841.68757,0.19804
1843.61604,0.20294
1845.54451,0.20463
1847.47298,0.20135
1849.40144,0.19554
1851.32991,0.19143
1853.25838,0.19026
1855.18685,0.18919
1857.11532,0.18790
1859.04379,0.18840
1860.97226,0.19212
1862.90072,0.19628
1864.82919,0.19664
1866.75766,0.19487
1868.68613,0.19384
1870.61460,0.19133
1872.54307,0.18660
1874.47154,0.18335
1876.40001,0.18486
1878.32847,0.18973
1880.25694,0.19311
1882.18541,0.19378
1884.11388,0.19378
1886.04235,0.19348
1887.97082,0.19270
1889.89929,0.19157
1891.82775,0.19169
1893.75622,0.19340
1895.68469,0.19269
1897.61316,0.18929
1899.54163,0.18835
1901.47010,0.19024
1903.39857,0.19152
1905.32704,0.19181
1907.25550,0.19332
1909.18397,0.19586
1911.11244,0.19480
1913.04091,0.19014
1914.96938,0.18805
1916.89785,0.19027
1918.82632,0.19264
1920.75478,0.19275
1922.68325,0.19103
1924.61172,0.18773
1926.54019,0.18567
1928.46866,0.18570
1930.39713,0.18604
1932.32560,0.18613
1934.25407,0.18665
1936.18253,0.18903
1938.11100,0.19210
1940.03947,0.19311
1941.96794,0.19155
1943.89641,0.18955
1945.82488,0.18880
1947.75335,0.18933
1949.68181,0.19007
1951.61028,0.18913
1953.53875,0.18818
1955.46722,0.18921
1957.39569,0.19086
1959.32416,0.19196
1961.25263,0.19249
1963.18110,0.19253
1965.10956,0.19227
1967.03803,0.19159
1968.96650,0.19055
1970.89497,0.19118
1972.82344,0.19221
1974.75191,0.19367
1976.68038,0.19805
1978.60884,0.20202
1980.53731,0.20328
1982.46578,0.20041
1984.39425,0.19477
1986.32272,0.19218
1988.25119,0.19253
1990.17966,0.19396
1992.10812,0.19568
1994.03659,0.19551
1995.96506,0.19244
1997.89353,0.18927
1999.82200,0.19046
2001.75047,0.19308
2003.67894,0.19341
2005.60741,0.19374
2007.53587,0.19355
2009.46434,0.19161
2011.39281,0.19006
2013.32128,0.18838
2015.24975,0.18611
2017.17822,0.18594
2019.10669,0.18760
2021.03515,0.18952
2022.96362,0.19115
2024.89209,0.19086
2026.82056,0.18881
2028.74903,0.18731
2030.67750,0.18762
2032.60597,0.18927
2034.53444,0.19135
2036.46290,0.19337
2038.39137,0.19438
2040.31984,0.19443
2042.24831,0.19604
2044.17678,0.19750
2046.10525,0.19458
2048.03372,0.19032
2049.96218,0.18832
2051.89065,0.18808
2053.81912,0.18927
2055.74759,0.19059
2057.67606,0.19188
2059.60453,0.19347
2061.53300,0.19396
2063.46147,0.19382
2065.38993,0.19390
2067.31840,0.19285
2069.24687,0.19108
2071.17534,0.19115
2073.10381,0.19246
2075.03228,0.19214
2076.96075,0.19115
2078.88921,0.19123
2080.81768,0.19106
2082.74615,0.19084
2084.67462,0.19072
2086.60309,0.18964
2088.53156,0.18897
2090.46003,0.18974
2092.38850,0.19170
2094.31696,0.19417
2096.24543,0.19472
2098.17390,0.19339
2100.10237,0.19272
2102.03084,0.19266
2103.95931,0.19310
2105.88778,0.19436
2107.81624,0.19450
2109.74471,0.19258
2111.67318,0.19095
2113.60165,0.19324
2115.53012,0.19767
2117.45859,0.19750
2119.38706,0.19297
2121.31553,0.19018
2123.24399,0.19044
2125.17246,0.19296
2127.10093,0.19653
2129.02940,0.19747
2130.95787,0.19657
2132.88634,0.19547
2134.81481,0.19537
2136.74327,0.19939
2138.67174,0.20199
2140.60021,0.19909
2142.52868,0.19699
2144.45715,0.19796
2146.38562,0.19812
2148.31409,0.19556
2150.24255,0.19241
2152.17102,0.19092
2154.09949,0.18993
2156.02796,0.18981
2157.95643,0.19215
2159.88490,0.19453
2161.81337,0.19582
2163.74184,0.19665
2165.67030,0.19764
2167.59877,0.19969
2169.52724,0.19956
2171.45571,0.19649
2173.38418,0.19468
2175.31265,0.19576
2177.24112,0.19793
2179.16958,0.19896
2181.09805,0.19806
2183.02652,0.19582
2184.95499,0.19446
2186.88346,0.19583
2188.81193,0.19803
2190.74040,0.19808
2192.66887,0.19709
2194.59733,0.19659
2196.52580,0.19557
2198.45427,0.19436
2200.38274,0.19382
2202.31121,0.19400
2204.23968,0.19435
2206.16815,0.19380
2208.09661,0.19203
2210.02508,0.19104
2211.95355,0.19231
2213.88202,0.19399
2215.81049,0.19448
2217.73896,0.19408
2219.66743,0.19313
2221.59590,0.19210
2223.52436,0.19101
2225.45283,0.18954
2227.38130,0.18997
2229.30977,0.19276
2231.23824,0.19339
2233.16671,0.19178
2235.09518,0.19227
2237.02364,0.19511
2238.95211,0.19708
2240.88058,0.19605
2242.80905,0.19338
2244.73752,0.19109
2246.66599,0.18963
2248.59446,0.18977
2250.52293,0.19121
2252.45139,0.19134
2254.37986,0.18999
2256.30833,0.18894
2258.23680,0.18659
2260.16527,0.18377
2262.09374,0.18574
2264.02221,0.19052
2265.95067,0.19309
2267.87914,0.19419
2269.80761,0.19405
2271.73608,0.19222
2273.66455,0.19060
2275.59302,0.19100
2277.52149,0.19274
2279.44996,0.19377
2281.37842,0.19310
2283.30689,0.19074
2285.23536,0.18878
2287.16383,0.18879
2289.09230,0.18875
2291.02077,0.18801
2292.94924,0.18896
2294.87770,0.19176
2296.80617,0.19230
2298.73464,0.18792
2300.66311,0.18308
2302.59158,0.18252
2304.52005,0.18453
2306.44852,0.18551
2308.37699,0.18292
2310.30545,0.17664
2312.23392,0.16989
2314.16239,0.16714
2316.09086,0.16965
2318.01933,0.17359
2319.94780,0.17577
2321.87627,0.17599
2323.80473,0.17612
2325.73320,0.17347
2327.66167,0.16246
2329.59014,0.15541
2331.51861,0.16467
2333.44708,0.17409
2335.37555,0.17213
2337.30401,0.16956
2339.23248,0.17168
2341.16095,0.16904
2343.08942,0.16257
2345.01789,0.16278
2346.94636,0.16520
2348.87483,0.16429
2350.80330,0.16415
2352.73176,0.16781
2354.66023,0.16612
2356.58870,0.15513
2358.51717,0.15409
2360.44564,0.16270
2362.37411,0.16351
2364.30258,0.16306
2366.23104,0.17232
2368.15951,0.18273
2370.08798,0.18336
2372.01645,0.17839
2373.94492,0.17784
2375.87339,0.18224
2377.80186,0.18823
2379.73033,0.19232
2381.65879,0.19180
2383.58726,0.19030
2385.51573,0.19141
2387.44420,0.19327
2389.37267,0.19247
2391.30114,0.19043
2393.22961,0.19193
2395.15807,0.19435
2397.08654,0.19352
2399.01501,0.19199
2400.94348,0.19099
2402.87195,0.19018
2404.80042,0.19125
2406.72889,0.19369
2408.65736,0.19450
2410.58582,0.19417
2412.51429,0.19494
2414.44276,0.19510
2416.37123,0.19297
2418.29970,0.19043
2420.22817,0.19008
2422.15664,0.19261
2424.08510,0.19536
2426.01357,0.19510
2427.94204,0.19311
2429.87051,0.19329
2431.79898,0.19495
2433.72745,0.19499
2435.65592,0.19480
2437.58439,0.19527
2439.51285,0.19515
2441.44132,0.19579
2443.36979,0.19640
2445.29826,0.19490
2447.22673,0.19421
2449.15520,0.19386
2451.08367,0.18956
2453.01213,0.18619
2454.94060,0.18961
2456.86907,0.19568
2458.79754,0.19748
2460.72601,0.19373
2462.65448,0.18901
2464.58295,0.18737
2466.51142,0.18953
2468.43988,0.19204
2470.36835,0.19121
2472.29682,0.18999
2474.22529,0.19114
2476.15376,0.19282
2478.08223,0.19348
2480.01070,0.19281
2481.93916,0.19178
2483.86763,0.19177
2485.79610,0.19203
2487.72457,0.19145
2489.65304,0.19037
2491.58151,0.18977
2493.50998,0.18998
2495.43844,0.19008
2497.36691,0.19077
2499.29538,0.19345
2501.22385,0.19699
2503.15232,0.19801
2505.08079,0.19558
2507.00926,0.19355
2508.93773,0.19360
2510.86619,0.19321
2512.79466,0.19133
2514.72313,0.19026
2516.65160,0.19142
2518.58007,0.19408
2520.50854,0.19703
2522.43701,0.19783
2524.36547,0.19632
2526.29394,0.19528
2528.22241,0.19589
2530.15088,0.19730
2532.07935,0.19715
2534.00782,0.19525
2535.93629,0.19447
2537.86476,0.19351
2539.79322,0.19155
2541.72169,0.19232
2543.65016,0.19457
2545.57863,0.19492
2547.50710,0.19567
2549.43557,0.19796
2551.36404,0.19855
2553.29250,0.19711
2555.22097,0.19534
2557.14944,0.19316
2559.07791,0.19205
2561.00638,0.19341
2562.93485,0.19480
2564.86332,0.19371
2566.79179,0.19229
2568.72025,0.19330
2570.64872,0.19544
2572.57719,0.19649
2574.50566,0.19694
2576.43413,0.19771
2578.36260,0.19705
2580.29107,0.19604
2582.21953,0.19716
2584.14800,0.19807
2586.07647,0.19792
2588.00494,0.19850
2589.93341,0.19870
2591.86188,0.19760
2593.79035,0.19628
2595.71882,0.19442
2597.64728,0.19241
2599.57575,0.19206
2601.50422,0.19289
2603.43269,0.19476
2605.36116,0.19753
2607.28963,0.20076
2609.21810,0.20574
2611.14656,0.21026
2613.07503,0.20960
2615.00350,0.20346
2616.93197,0.19823
2618.86044,0.19924
2620.78891,0.20155
2622.71738,0.20104
2624.64585,0.20247
2626.57431,0.20600
2628.50278,0.20608
2630.43125,0.20361
2632.35972,0.20212
2634.28819,0.20028
2636.21666,0.19681
2638.14513,0.19457
2640.07359,0.19614
2642.00206,0.19921
2643.93053,0.20015
2645.85900,0.19917
2647.78747,0.19854
2649.71594,0.19852
2651.64441,0.19859
2653.57288,0.19812
2655.50134,0.19648
2657.42981,0.19658
2659.35828,0.19981
2661.28675,0.20278
2663.21522,0.20351
2665.14369,0.20346
2667.07216,0.20382
2669.00062,0.20230
2670.92909,0.19779
2672.85756,0.19450
2674.78603,0.19629
2676.71450,0.20034
2678.64297,0.20164
2680.57144,0.19979
2682.49990,0.19763
2684.42837,0.19762
2686.35684,0.19877
2688.28531,0.19953
2690.21378,0.19886
2692.14225,0.19635
2694.07072,0.19469
2695.99919,0.19571
2697.92765,0.19780
2699.85612,0.19853
2701.78459,0.19823
2703.71306,0.19862
2705.64153,0.20014
2707.57000,0.20295
2709.49847,0.20609
2711.42693,0.20655
2713.35540,0.20327
2715.28387,0.19982
2717.21234,0.19854
2719.14081,0.19816
2721.06928,0.19781
2722.99775,0.19906
2724.92622,0.20126
2726.85468,0.20172
2728.78315,0.20174
2730.71162,0.20179
2732.64009,0.20057
2734.56856,0.20017
2736.49703,0.20238
2738.42550,0.20401
2740.35396,0.20295
2742.28243,0.20169
2744.21090,0.20115
2746.13937,0.20130
2748.06784,0.20245
2749.99631,0.20393
2751.92478,0.20473
2753.85325,0.20368
2755.78171,0.20207
2757.71018,0.20234
2759.63865,0.20354
2761.56712,0.20345
2763.49559,0.20348
2765.42406,0.20429
2767.35253,0.20296
2769.28099,0.19999
2771.20946,0.19857
2773.13793,0.20006
2775.06640,0.20421
2776.99487,0.20741
2778.92334,0.20544
2780.85181,0.20209
2782.78028,0.20402
2784.70874,0.20854
2786.63721,0.20899
2788.56568,0.20603
2790.49415,0.20543
2792.42262,0.20848
2794.35109,0.21141
2796.27956,0.21182
2798.20802,0.21063
2800.13649,0.21007
2802.06496,0.21023
2803.99343,0.20960
2805.92190,0.20957
2807.85037,0.21142
2809.77884,0.21230
2811.70731,0.21070
2813.63577,0.20884
2815.56424,0.20824
2817.49271,0.20780
2819.42118,0.20558
2821.34965,0.20224
2823.27812,0.20293
2825.20659,0.20974
2827.13505,0.21571
2829.06352,0.21557
2830.99199,0.21297
2832.92046,0.21181
2834.84893,0.21077
2836.77740,0.20924
2838.70587,0.21062
2840.63433,0.21184
2842.56280,0.20742
2844.49127,0.20248
2846.41974,0.20246
2848.34821,0.20539
2850.27668,0.20752
2852.20515,0.20800
2854.13362,0.20877
2856.06208,0.21137
2857.99055,0.21540
2859.91902,0.21935
2861.84749,0.22215
2863.77596,0.22165
2865.70443,0.21858
2867.63290,0.21536
2869.56136,0.21190
2871.48983,0.21010
2873.41830,0.21050
2875.34677,0.21076
2877.27524,0.21059
2879.20371,0.21099
2881.13218,0.21083
2883.06065,0.20823
2884.98911,0.20504
2886.91758,0.20366
2888.84605,0.20522
2890.77452,0.20947
2892.70299,0.21217
2894.63146,0.21164
2896.55993,0.21267
2898.48839,0.21451
2900.41686,0.21217
2902.34533,0.20832
2904.27380,0.20597
2906.20227,0.20286
2908.13074,0.20013
2910.05921,0.20067
2911.98768,0.20201
2913.91614,0.20096
2915.84461,0.19842
2917.77308,0.19802
2919.70155,0.20134
2921.63002,0.20527
2923.55849,0.20567
2925.48696,0.20199
2927.41542,0.20201
2929.34389,0.21180
2931.27236,0.22208
2933.20083,0.21926
2935.12930,0.20389
2937.05777,0.19108
2938.98624,0.19239
2940.91471,0.20075
2942.84317,0.20533
2944.77164,0.20372
2946.70011,0.19602
2948.62858,0.19414
2950.55705,0.20492
2952.48552,0.21349
2954.41399,0.21070
2956.34245,0.19766
2958.27092,0.18788
2960.19939,0.19713
2962.12786,0.21241
2964.05633,0.21518
2965.98480,0.20705
2967.91327,0.19839
2969.84174,0.19847
2971.77020,0.20494
2973.69867,0.20792
2975.62714,0.20390
2977.55561,0.19901
2979.48408,0.20186
2981.41255,0.21028
2983.34102,0.21655
2985.26948,0.21599
2987.19795,0.20720
2989.12642,0.20139
2991.05489,0.20618
2992.98336,0.21097
2994.91183,0.21298
2996.84030,0.21737
2998.76877,0.22105
3000.69723,0.22169
3002.62570,0.21831
3004.55417,0.20939
3006.48264,0.20006
3008.41111,0.19520
3010.33958,0.18801
3012.26805,0.16776
3014.19651,0.13343
3016.12498,0.10553
3018.05345,0.11807
3019.98192,0.16366
3021.91039,0.19849
3023.83886,0.21277
3025.76733,0.21722
3027.69579,0.21350
3029.62426,0.21055
3031.55273,0.21426
3033.48120,0.21908
3035.40967,0.21897
3037.33814,0.21434
3039.26661,0.21590
3041.19508,0.22339
3043.12354,0.22274
3045.05201,0.21396
3046.98048,0.20688
3048.90895,0.20692
3050.83742,0.21208
3052.76589,0.21462
3054.69436,0.20965
3056.62282,0.20214
3058.55129,0.20320
3060.47976,0.21083
3062.40823,0.21564
3064.33670,0.21354
3066.26517,0.20545
3068.19364,0.20396
3070.12211,0.21067
3072.05057,0.21303
3073.97904,0.20953
3075.90751,0.20432
3077.83598,0.20362
3079.76445,0.20849
3081.69292,0.20824
3083.62139,0.19649
3085.54985,0.18371
3087.47832,0.18755
3089.40679,0.20405
3091.33526,0.21101
3093.26373,0.20077
3095.19220,0.19035
3097.12067,0.19456
3099.04914,0.20420
3100.97760,0.20663
3102.90607,0.20136
3104.83454,0.19858
3106.76301,0.20428
3108.69148,0.21034
3110.61995,0.20796
3112.54842,0.19800
3114.47688,0.19592
3116.40535,0.20811
3118.33382,0.21559
3120.26229,0.20768
3122.19076,0.19894
3124.11923,0.20441
3126.04770,0.21753
3127.97617,0.22342
3129.90463,0.21970
3131.83310,0.21427
3133.76157,0.21431
3135.69004,0.21817
3137.61851,0.21673
3139.54698,0.21162
3141.47545,0.21388
3143.40391,0.21954
3145.33238,0.21959
3147.26085,0.21847
3149.18932,0.22243
3151.11779,0.22841
3153.04626,0.23032
3154.97473,0.22521
3156.90320,0.21863
3158.83166,0.21917
3160.76013,0.21972
3162.68860,0.21377
3164.61707,0.21027
3166.54554,0.21419
3168.47401,0.22013
3170.40248,0.22125
3172.33094,0.21535
3174.25941,0.20590
3176.18788,0.20236
3178.11635,0.20805
3180.04482,0.21565
3181.97329,0.22168
3183.90176,0.22582
3185.83022,0.22693
3187.75869,0.22571
3189.68716,0.22258
3191.61563,0.21800
3193.54410,0.21528
3195.47257,0.21635
3197.40104,0.21957
3199.32951,0.22501
3201.25797,0.22993
3203.18644,0.22745
3205.11491,0.21888
3207.04338,0.21414
3208.97185,0.21679
3210.90032,0.22118
3212.82879,0.22298
3214.75725,0.22175
3216.68572,0.21667
3218.61419,0.21060
3220.54266,0.21036
3222.47113,0.21644
3224.39960,0.22313
3226.32807,0.22413
3228.25654,0.21801
3230.18500,0.21062
3232.11347,0.20823
3234.04194,0.21238
3235.97041,0.21855
3237.89888,0.22119
3239.82735,0.22266
3241.75582,0.22791
3243.68428,0.23389
3245.61275,0.23400
3247.54122,0.22669
3249.46969,0.21757
3251.39816,0.21280
3253.32663,0.21139
3255.25510,0.21157
3257.18357,0.21448
3259.11203,0.21690
3261.04050,0.21530
3262.96897,0.21501
3264.89744,0.21795
3266.82591,0.21666
3268.75438,0.21177
3270.68285,0.21128
3272.61131,0.21464
3274.53978,0.21429
3276.46825,0.21092
3278.39672,0.21022
3280.32519,0.21058
3282.25366,0.20891
3284.18213,0.20780
3286.11060,0.20913
3288.03906,0.20962
3289.96753,0.20987
3291.89600,0.21170
3293.82447,0.21332
3295.75294,0.21254
3297.68141,0.20919
3299.60988,0.21024
3301.53834,0.21478
3303.46681,0.21408
3305.39528,0.21261
3307.32375,0.21633
3309.25222,0.22137
3311.18069,0.22315
3313.10916,0.22026
3315.03763,0.21600
3316.96609,0.21471
3318.89456,0.21609
3320.82303,0.21629
3322.75150,0.21354
3324.67997,0.21204
3326.60844,0.21417
3328.53691,0.21780
3330.46537,0.22013
3332.39384,0.21828
3334.32231,0.21603
3336.25078,0.21857
3338.17925,0.22187
3340.10772,0.22236
3342.03619,0.22214
3343.96466,0.22030
3345.89312,0.21649
3347.82159,0.21603
3349.75006,0.22082
3351.67853,0.22216
3353.60700,0.21385
3355.53547,0.20772
3357.46394,0.21232
3359.39240,0.21916
3361.32087,0.22349
3363.24934,0.22681
3365.17781,0.22844
3367.10628,0.22676
3369.03475,0.22378
3370.96322,0.22303
3372.89168,0.22282
3374.82015,0.22110
3376.74862,0.22052
3378.67709,0.22056
3380.60556,0.21646
3382.53403,0.21220
3384.46250,0.21268
3386.39097,0.21328
3388.31943,0.21392
3390.24790,0.21538
3392.17637,0.21400
3394.10484,0.21298
3396.03331,0.21374
3397.96178,0.21165
3399.89025,0.20995
3401.81871,0.21032
3403.74718,0.20622
3405.67565,0.20127
3407.60412,0.20502
3409.53259,0.21351
3411.46106,0.21431
3413.38953,0.20799
3415.31800,0.20584
3417.24646,0.20918
3419.17493,0.21174
3421.10340,0.21034
3423.03187,0.20631
3424.96034,0.20452
3426.88881,0.20769
3428.81728,0.21340
3430.74574,0.21723
3432.67421,0.21700
3434.60268,0.21349
3436.53115,0.21088
3438.45962,0.21259
3440.38809,0.21525
3442.31656,0.21428
3444.24503,0.21183
3446.17349,0.21115
3448.10196,0.20951
3450.03043,0.20523
3451.95890,0.20019
3453.88737,0.19637
3455.81584,0.19549
3457.74431,0.19621
3459.67277,0.19562
3461.60124,0.19358
3463.52971,0.19413
3465.45818,0.19761
3467.38665,0.19938
3469.31512,0.19909
3471.24359,0.19679
3473.17206,0.19144
3475.10052,0.18713
3477.02899,0.18706
3478.95746,0.18597
3480.88593,0.18016
3482.81440,0.17839
3484.74287,0.18668
3486.67134,0.19673
3488.59980,0.19858
3490.52827,0.19233
3492.45674,0.18707
3494.38521,0.18645
3496.31368,0.18509
3498.24215,0.18346
3500.17062,0.18690
3502.09909,0.19257
3504.02755,0.19490
3505.95602,0.19289
3507.88449,0.18826
3509.81296,0.18455
3511.74143,0.18552
3513.66990,0.18757
3515.59837,0.18449
3517.52683,0.17877
3519.45530,0.17763
3521.38377,0.18188
3523.31224,0.18148
3525.24071,0.17240
3527.16918,0.16786
3529.09765,0.17258
3531.02611,0.17790
3532.95458,0.17874
3534.88305,0.17615
3536.81152,0.17587
3538.73999,0.17826
3540.66846,0.17838
3542.59693,0.17651
3544.52540,0.17415
3546.45386,0.17426
3548.38233,0.17708
3550.31080,0.17601
3552.23927,0.17128
3554.16774,0.16925
3556.09621,0.17073
3558.02468,0.17100
3559.95314,0.16699
3561.88161,0.16315
3563.81008,0.16597
3565.73855,0.17181
3567.66702,0.17080
3569.59549,0.16815
3571.52396,0.16870
3573.45243,0.16825
3575.38089,0.16758
3577.30936,0.16644
3579.23783,0.16268
3581.16630,0.16067
3583.09477,0.16627
3585.02324,0.17769
3586.95171,0.18235
3588.88017,0.17110
3590.80864,0.16247
3592.73711,0.16502
3594.66558,0.16782
3596.59405,0.16411
3598.52252,0.16047
3600.45099,0.15620
3602.37946,0.14921
3604.30792,0.14683
3606.23639,0.15083
3608.16486,0.15643
3610.09333,0.16066
3612.02180,0.16207
3613.95027,0.15916
3615.87874,0.15401
3617.80720,0.14995
3619.73567,0.14776
3621.66414,0.14687
3623.59261,0.14529
3625.52108,0.14377
3627.44955,0.14637
3629.37802,0.15196
3631.30649,0.15414
3633.23495,0.15124
3635.16342,0.14317
3637.09189,0.13857
3639.02036,0.14076
3640.94883,0.14223
3642.87730,0.14087
3644.80577,0.14277
3646.73423,0.15235
3648.66270,0.16361
3650.59117,0.16225
3652.51964,0.15506
3654.44811,0.14748
3656.37658,0.14079
3658.30505,0.13907
3660.23352,0.13754
3662.16198,0.13493
3664.09045,0.13575
3666.01892,0.13951
3667.94739,0.14528
3669.87586,0.15084
3671.80433,0.15214
3673.73280,0.15673
3675.66126,0.16241
3677.58973,0.15476
3679.51820,0.14370
3681.44667,0.13766
3683.37514,0.13618
3685.30361,0.13797
3687.23208,0.14371
3689.16055,0.14918
3691.08901,0.14363
3693.01748,0.13545
3694.94595,0.13358
3696.87442,0.13600
3698.80289,0.13915
3700.73136,0.14175
3702.65983,0.14135
3704.58829,0.13833
3706.51676,0.13837
3708.44523,0.14468
3710.37370,0.15473
3712.30217,0.15391
3714.23064,0.14590
3716.15911,0.14397
3718.08757,0.14388
3720.01604,0.14505
3721.94451,0.14619
3723.87298,0.13934
3725.80145,0.13255
3727.72992,0.13456
3729.65839,0.14257
3731.58686,0.15456
3733.51532,0.16102
3735.44379,0.15336
3737.37226,0.14367
3739.30073,0.13885
3741.22920,0.13670
3743.15767,0.13579
3745.08614,0.13436
3747.01460,0.13263
3748.94307,0.13257
3750.87154,0.13815
3752.80001,0.14122
3754.72848,0.13501
3756.65695,0.13158
3758.58542,0.13471
3760.51389,0.13282
3762.44235,0.12734
3764.37082,0.12711
3766.29929,0.12913
3768.22776,0.13086
3770.15623,0.13339
3772.08470,0.13266
3774.01317,0.12946
3775.94163,0.12912
3777.87010,0.13111
3779.79857,0.13083
3781.72704,0.13118
3783.65551,0.13454
3785.58398,0.13423
3787.51245,0.12675
3789.44092,0.12010
3791.36938,0.12104
3793.29785,0.12676
3795.22632,0.13218
3797.15479,0.13431
3799.08326,0.13793
3801.01173,0.14860
3802.94020,0.15099
3804.86866,0.14031
3806.79713,0.12574
3808.72560,0.11580
3810.65407,0.11599
3812.58254,0.12095
3814.51101,0.12877
3816.43948,0.13946
3818.36795,0.14795
3820.29641,0.15019
3822.22488,0.14315
3824.15335,0.13499
3826.08182,0.12987
3828.01029,0.12755
3829.93876,0.12828
3831.86723,0.12940
3833.79569,0.12970
3835.72416,0.13381
3837.65263,0.14159
3839.58110,0.13801
3841.50957,0.12589
3843.43804,0.12132
3845.36651,0.12256
3847.29498,0.12364
3849.22344,0.12439
3851.15191,0.12238
3853.08038,0.11630
3855.00885,0.11622
3856.93732,0.11900
3858.86579,0.11998
3860.79426,0.12146
3862.72272,0.12611
3864.65119,0.13237
3866.57966,0.13802
3868.50813,0.14324
3870.43660,0.14106
3872.36507,0.13497
3874.29354,0.13322
3876.22200,0.13253
3878.15047,0.13405
3880.07894,0.13424
3882.00741,0.12807
3883.93588,0.12184
3885.86435,0.11520
3887.79282,0.11119
3889.72129,0.11490
3891.64975,0.12175
3893.57822,0.12445
3895.50669,0.12569
3897.43516,0.12948
3899.36363,0.13283
3901.29210,0.13027
3903.22057,0.12149
3905.14903,0.11163
3907.07750,0.10898
3909.00597,0.11168
3910.93444,0.11368
3912.86291,0.11667
3914.79138,0.12055
3916.71985,0.12042
3918.64832,0.11991
3920.57678,0.12140
3922.50525,0.12127
3924.43372,0.11877
3926.36219,0.11591
3928.29066,0.11762
3930.21913,0.12171
3932.14760,0.12048
3934.07606,0.11729
3936.00453,0.11697
3937.93300,0.11483
3939.86147,0.11076
3941.78994,0.10906
3943.71841,0.10944
3945.64688,0.10977
3947.57535,0.10940
3949.50381,0.10891
3951.43228,0.10942
3953.36075,0.11082
3955.28922,0.11225
3957.21769,0.11090
3959.14616,0.10762
3961.07463,0.10974
3963.00309,0.11420
3964.93156,0.11175
3966.86003,0.10761
3968.78850,0.10743
3970.71697,0.10636
3972.64544,0.10522
3974.57391,0.10977
3976.50238,0.11599
3978.43084,0.11728
3980.35931,0.11454
3982.28778,0.11126
3984.21625,0.10893
3986.14472,0.10625
3988.07319,0.10348
3990.00166,0.10308
3991.93012,0.10525
3993.85859,0.10632
3995.78706,0.10485
3997.71553,0.10508
3999.64400,0.10681
4001.57247,0.10595
4003.50094,0.10421
4005.42941,0.10256
4007.35787,0.09891
4009.28634,0.09671
4011.21481,0.09746
4013.14328,0.09897
4015.07175,0.10190
4017.00022,0.10493
4018.92869,0.10533
4020.85715,0.10243
4022.78562,0.09964
4024.71409,0.09745
4026.64256,0.09268
4028.57103,0.09153
4030.49950,0.09769
4032.42797,0.10129
4034.35644,0.09805
4036.28490,0.09476
4038.21337,0.09555
4040.14184,0.10081
4042.07031,0.10648
4043.99878,0.10616
4045.92725,0.10118
4047.85572,0.09775
4049.78418,0.09547
4051.71265,0.09173
4053.64112,0.09138
4055.56959,0.09455
4057.49806,0.09705
4059.42653,0.09884
4061.35500,0.09857
4063.28346,0.09823
4065.21193,0.09887
4067.14040,0.09861
4069.06887,0.09695
4070.99734,0.09379
4072.92581,0.09136
4074.85428,0.08989
4076.78275,0.08899
4078.71121,0.09050
4080.63968,0.09365
4082.56815,0.09545
4084.49662,0.09593
4086.42509,0.09805
4088.35356,0.10138
4090.28203,0.10093
4092.21049,0.09531
4094.13896,0.09161
4096.06743,0.09604
4097.99590,0.10238
4099.92437,0.09954
4101.85284,0.09172
4103.78131,0.08926
4105.70978,0.09116
4107.63824,0.09382
4109.56671,0.09401
4111.49518,0.09281
4113.42365,0.09654
4115.35212,0.10237
4117.28059,0.10233
4119.20906,0.09653
4121.13752,0.09073
4123.06599,0.08731
4124.99446,0.08677
4126.92293,0.08939
4128.85140,0.08972
4130.77987,0.08567
4132.70834,0.08231
4134.63681,0.08310
4136.56527,0.08927
4138.49374,0.09579
4140.42221,0.09367
4142.35068,0.08570
4144.27915,0.08175
4146.20762,0.07947
4148.13609,0.07378
4150.06455,0.07321
4151.99302,0.08246
4153.92149,0.09196
4155.84996,0.09515
4157.77843,0.09356
4159.70690,0.08882
4161.63537,0.08473
4163.56384,0.08219
4165.49230,0.08032
4167.42077,0.08260
4169.34924,0.08389
4171.27771,0.08079
4173.20618,0.08066
4175.13465,0.08408
4177.06312,0.08709
4178.99158,0.08694
4180.92005,0.08326
4182.84852,0.07789
4184.77699,0.07372
4186.70546,0.07347
4188.63393,0.07527
4190.56240,0.07831
4192.49087,0.08475
4194.41933,0.09329
4196.34780,0.09926
4198.27627,0.09684
4200.20474,0.08440
4202.13321,0.07375
4204.06168,0.07543
4205.99015,0.08073
4207.91861,0.08263
4209.84708,0.08419
4211.77555,0.08693
4213.70402,0.09183
4215.63249,0.09285
4217.56096,0.08546
4219.48943,0.07676
4221.41789,0.07245
4223.34636,0.07484
4225.27483,0.08023
4227.20330,0.07866
4229.13177,0.07209
4231.06024,0.07117
4232.98871,0.07445
4234.91718,0.07370
4236.84564,0.06860
4238.77411,0.06543
4240.70258,0.06572
4242.63105,0.06157
4244.55952,0.05398
4246.48799,0.05325
4248.41646,0.05877
4250.34492,0.06398
4252.27339,0.06784
4254.20186,0.07260
4256.13033,0.07620
4258.05880,0.07492
4259.98727,0.07212
4261.91574,0.07193
4263.84421,0.07119
4265.77267,0.06729
4267.70114,0.06536
4269.62961,0.06931
4271.55808,0.07454
4273.48655,0.07395
4275.41502,0.06707
4277.34349,0.05825
4279.27195,0.05080
4281.20042,0.04747
4283.12889,0.04964
4285.05736,0.05632
4286.98583,0.06319
4288.91430,0.06703
4290.84277,0.06856
4292.77124,0.06829
4294.69970,0.06685
4296.62817,0.06518
4298.55664,0.06424
4300.48511,0.06432
4302.41358,0.06370
4304.34205,0.06402
4306.27052,0.06619
4308.19898,0.06346
4310.12745,0.05523
4312.05592,0.04957
4313.98439,0.04828
4315.91286,0.04909
4317.84133,0.05375
4319.76980,0.05974
4321.69827,0.06200
4323.62673,0.06281
4325.55520,0.06226
4327.48367,0.05942
4329.41214,0.05526
4331.34061,0.05087
4333.26908,0.05078
4335.19755,0.05305
4337.12601,0.05241
4339.05448,0.04868
4340.98295,0.04519
4342.91142,0.04733
4344.83989,0.05329
4346.76836,0.05203
4348.69683,0.04649
4350.62530,0.05177
4352.55376,0.05972
4354.48223,0.05493
4356.41070,0.04510
4358.33917,0.04177
4360.26764,0.04172
4362.19611,0.03882
4364.12458,0.03590
4366.05304,0.03543
4367.98151,0.03733
4369.90998,0.04164
4371.83845,0.04409
4373.76692,0.04073
4375.69539,0.03421
4377.62386,0.02859
4379.55232,0.02534
4381.48079,0.03044
4383.40926,0.03985
4385.33773,0.04146
4387.26620,0.04157
4389.19467,0.04866
4391.12314,0.05595
4393.05161,0.05447
4394.98007,0.04786
4396.90854,0.04647
4398.83701,0.04768
4400.76548,0.04448
4402.69395,0.03938
4404.62242,0.03602
4406.55089,0.03602
4408.47935,0.03985
4410.40782,0.04373
4412.33629,0.04308
4414.26476,0.03921
4416.19323,0.03471
4418.12170,0.02695
4420.05017,0.02082
4421.97864,0.02500
4423.90710,0.03193
4425.83557,0.03418
4427.76404,0.03567
4429.69251,0.03483
4431.62098,0.03057
4433.54945,0.02827
4435.47792,0.02512
4437.40638,0.01885
4439.33485,0.01958
4441.26332,0.02716
4443.19179,0.02813
4445.12026,0.02378
4447.04873,0.02560
4448.97720,0.03363
4450.90567,0.03928
4452.83413,0.03619
4454.76260,0.02825
4456.69107,0.02217
4458.61954,0.01979
4460.54801,0.02299
4462.47648,0.02865
4464.40495,0.03007
4466.33341,0.03034
4468.26188,0.03544
4470.19035,0.03969
4472.11882,0.03783
4474.04729,0.03427
4475.97576,0.03322
4477.90423,0.03356
4479.83270,0.02835
4481.76116,0.01652
4483.68963,0.00758
4485.61810,0.01074
4487.54657,0.01847
4489.47504,0.01763
4491.40351,0.01716
4493.33198,0.02307
4495.26044,0.02524
4497.18891,0.02338
4499.11738,0.02150
4501.04585,0.01929
4502.97432,0.01713
4504.90279,0.01468
4506.83126,0.01614
4508.75973,0.02284
4510.68819,0.02275
4512.61666,0.01909
4514.54513,0.02066
4516.47360,0.01756
4518.40207,0.01196
4520.33054,0.01336
4522.25901,0.01711
4524.18747,0.01825
4526.11594,0.01830
4528.04441,0.01905
4529.97288,0.01949
4531.90135,0.01513
4533.82982,0.00696
4535.75829,0.00493
4537.68676,0.00899
4539.61522,0.01261
4541.54369,0.01667
4543.47216,0.02056
4545.40063,0.02234
4547.32910,0.02394
4549.25757,0.02317
4551.18604,0.01604
4553.11450,0.00918
4555.04297,0.00939
4556.97144,0.01567
4558.89991,0.02576
4560.82838,0.02934
4562.75685,0.01833
4564.68532,0.00608
4566.61378,0.00204
4568.54225,0.00081
4570.47072,0.00532
4572.39919,0.01306
4574.32766,0.01769
4576.25613,0.02346
4578.18460,0.03009
4580.11307,0.03403
4582.04153,0.03522
4583.97000,0.03224
4585.89847,0.02328
4587.82694,0.01378
4589.75541,0.01130
4591.68388,0.01566
4593.61235,0.02673
4595.54081,0.03769
4597.46928,0.03154
4599.39775,0.01308
4601.32622,0.00497
4603.25469,0.00472
4605.18316,-0.00089
4607.11163,-0.00086
4609.04010,0.01393
4610.96856,0.02936
4612.89703,0.02990
4614.82550,0.01384
4616.75397,-0.00383
4618.68244,-0.00986
4620.61091,-0.00916
4622.53938,-0.00618
4624.46784,-0.00185
4626.39631,0.00330
4628.32478,0.01063
4630.25325,0.01203
4632.18172,0.00653
4634.11019,0.00778
4636.03866,0.01229
4637.96713,0.00952
4639.89559,0.00519
4641.82406,0.00509
4643.75253,0.00839
4645.68100,0.01149
4647.60947,0.01156
4649.53794,0.00813
4651.46641,0.00578
4653.39487,0.00892
4655.32334,0.01091
4657.25181,0.00927
4659.18028,0.00849
4661.10875,0.00727
4663.03722,0.00574
4664.96569,0.00970
4666.89416,0.01788
4668.82262,0.02272
4670.75109,0.02474
4672.67956,0.02399
4674.60803,0.01482
4676.53650,0.00131
4678.46497,-0.00569
4680.39344,-0.00485
4682.32190,-0.00188
4684.25037,-0.00041
4686.17884,-0.00057
4688.10731,0.00087
4690.03578,0.00518
4691.96425,0.01141
4693.89272,0.01931
4695.82119,0.02324
4697.74965,0.01990
4699.67812,0.01682
4701.60659,0.01892
4703.53506,0.02281
4705.46353,0.02214
4707.39200,0.01511
4709.32047,0.00646
4711.24893,-0.00475
4713.17740,-0.01499
4715.10587,-0.00930
4717.03434,0.00498
4718.96281,0.00433
4720.89128,-0.00260
4722.81975,0.00297
4724.74821,0.01165
4726.67668,0.01739
4728.60515,0.02721
4730.53362,0.03479
4732.46209,0.02619
4734.39056,0.00745
4736.31903,0.00450
4738.24750,0.01946
4740.17596,0.02349
4742.10443,0.01512
4744.03290,0.01312
4745.96137,0.01097
4747.88984,0.00152
4749.81831,-0.00677
4751.74678,-0.00626
4753.67524,-0.00082
4755.60371,0.00395
4757.53218,0.00661
4759.46065,0.00202
4761.38912,-0.00429
4763.31759,-0.00498
4765.24606,-0.00554
4767.17453,-0.01104
4769.10299,-0.01539
4771.03146,-0.01070
4772.95993,-0.00141
4774.88840,0.00507
4776.81687,0.00355
4778.74534,-0.00201
4780.67381,-0.00208
4782.60227,0.00148
4784.53074,0.00271
4786.45921,-0.00066
4788.38768,-0.00264
4790.31615,0.00288
4792.24462,0.00367
4794.17309,-0.00900
4796.10156,-0.01477
4798.03002,-0.00263
4799.95849,0.01013
4801.88696,0.01133
4803.81543,0.00274
4805.74390,-0.00400
4807.67237,0.00181
4809.60084,0.01458
4811.52930,0.01921
4813.45777,0.01608
4815.38624,0.01293
4817.31471,0.00810
4819.24318,0.00610
4821.17165,0.00600
4823.10012,0.00414
4825.02859,-0.00135
4826.95705,-0.00737
4828.88552,-0.00457
4830.81399,0.00306
4832.74246,0.00645
4834.67093,0.00732
4836.59940,0.01479
4838.52787,0.02440
4840.45633,0.02154
4842.38480,0.01247
4844.31327,0.01200
4846.24174,0.01577
4848.17021,0.01519
4850.09868,0.01050
4852.02715,0.00596
4853.95562,0.00507
4855.88408,0.00003
4857.81255,-0.00807
4859.74102,-0.00988
4861.66949,-0.01030
4863.59796,-0.01033
4865.52643,-0.00584
4867.45490,-0.00262
4869.38336,-0.00117
4871.31183,0.00232
4873.24030,0.00845
4875.16877,0.01907
4877.09724,0.02781
4879.02571,0.02893
4880.95418,0.02758
4882.88265,0.02289
4884.81111,0.00904
4886.73958,-0.01210
4888.66805,-0.03028
4890.59652,-0.02811
4892.52499,-0.00559
4894.45346,0.01097
4896.38193,0.01258
4898.31039,0.01428
4900.23886,0.02076
4902.16733,0.02165
4904.09580,0.00955
4906.02427,-0.00415
4907.95274,-0.00382
4909.88121,0.00515
4911.80967,0.01160
4913.73814,0.01164
4915.66661,0.01045
4917.59508,0.01668
4919.52355,0.02212
4921.45202,0.01659
4923.38049,0.00481
4925.30896,-0.00017
4927.23742,0.00565
4929.16589,0.00833
4931.09436,0.00215
4933.02283,-0.00475
4934.95130,-0.00489
4936.87977,-0.00021
4938.80824,0.00691
4940.73670,0.01817
4942.66517,0.02046
4944.59364,0.00628
4946.52211,-0.00770
4948.45058,-0.00974
4950.37905,-0.00437
4952.30752,0.00442
4954.23599,0.01410
4956.16445,0.02103
4958.09292,0.02846
4960.02139,0.03929
4961.94986,0.04569
4963.87833,0.03725
4965.80680,0.01955
4967.73527,0.00845
4969.66373,0.00960
4971.59220,0.01901
4973.52067,0.02336
4975.44914,0.01787
4977.37761,0.01485
4979.30608,0.01267
4981.23455,0.00497
4983.16302,0.00355
4985.09148,0.00890
4987.01995,0.00619
4988.94842,-0.00237
4990.87689,-0.00487
4992.80536,0.00435
4994.73383,0.02495
4996.66230,0.04311
4998.59076,0.04385
5000.51923,0.03195
5002.44770,0.02107
5004.37617,0.01557
5006.30464,0.02015
5008.23311,0.03773
5010.16158,0.04353
5012.09005,0.02543
5014.01851,0.00946
5015.94698,0.00357
5017.87545,0.00188
5019.80392,0.00780
5021.73239,0.01182
5023.66086,0.00440
5025.58933,-0.00472
5027.51779,-0.00266
5029.44626,0.00291
5031.37473,0.00395
5033.30320,0.01423
5035.23167,0.02578
5037.16014,0.01785
5039.08861,0.00610
5041.01708,0.00950
5042.94554,0.01840
5044.87401,0.02261
5046.80248,0.02644
5048.73095,0.02687
5050.65942,0.01804
5052.58789,0.01020
5054.51636,0.00805
5056.44482,0.00532
5058.37329,0.00608
5060.30176,0.01614
5062.23023,0.02612
5064.15870,0.03214
5066.08717,0.03774
5068.01564,0.03832
5069.94410,0.03819
5071.87257,0.04526
5073.80104,0.05250
5075.72951,0.04586
5077.65798,0.02444
5079.58645,0.00364
5081.51492,0.00022
5083.44339,0.01069
5085.37185,0.01102
5087.30032,0.00032
5089.22879,0.00231
5091.15726,0.02198
5093.08573,0.04433
5095.01420,0.05763
5096.94267,0.05833
5098.87113,0.04549
5100.79960,0.02926
5102.72807,0.02045
5104.65654,0.01395
5106.58501,0.01304
5108.51348,0.02959
5110.44195,0.05022
5112.37042,0.05202
5114.29888,0.04074
5116.22735,0.03968
5118.15582,0.05315
5120.08429,0.05841
5122.01276,0.05211
5123.94123,0.05727
5125.86970,0.06620
5127.79816,0.06127
5129.72663,0.04578
5131.65510,0.02618
5133.58357,0.01891
5135.51204,0.02477
5137.44051,0.02782
5139.36898,0.02961
5141.29745,0.03088
5143.22591,0.02144
5145.15438,-0.00287
5147.08285,-0.01671
5149.01132,0.00100
5150.93979,0.02160
5152.86826,0.02227
5154.79673,0.02082
5156.72519,0.02627
5158.65366,0.02441
5160.58213,0.02251
5162.51060,0.03101
5164.43907,0.03826
5166.36754,0.04047
5168.29601,0.03742
5170.22448,0.02866
5172.15294,0.01977
5174.08141,0.01285
5176.00988,0.00407
5177.93835,-0.00625
5179.86682,-0.00765
5181.79529,0.00180
5183.72376,0.01265
5185.65222,0.01931
5187.58069,0.02133
5189.50916,0.01860
5191.43763,0.01519
5193.36610,0.00856
5195.29457,-0.00026
5197.22304,0.01185
5199.15151,0.03838
5201.07997,0.04938
5203.00844,0.04117
5204.93691,0.02549
5206.86538,0.02519
5208.79385,0.03486
5210.72232,0.03123
5212.65079,0.03645
5214.57925,0.06805
5216.50772,0.09086
5218.43619,0.07329
5220.36466,0.03961
5222.29313,0.02884
5224.22160,0.05003
5226.15007,0.07208
5228.07854,0.05367
5230.00700,0.01608
5231.93547,-0.00141
5233.86394,0.00023
5235.79241,0.00693
5237.72088,0.01096
5239.64935,0.01184
5241.57782,0.02248
5243.50628,0.03964
5245.43475,0.04947
5247.36322,0.06086
5249.29169,0.07662
5251.22016,0.07859
5253.14863,0.05774
5255.07710,0.03082
5257.00556,0.02460
5258.93403,0.03713
5260.86250,0.05218
5262.79097,0.04995
5264.71944,0.03515
5266.64791,0.04653
5268.57638,0.07467
5270.50485,0.08305
5272.43331,0.06528
5274.36178,0.03841
5276.29025,0.02816
5278.21872,0.04026
5280.14719,0.05093
5282.07566,0.04224
5284.00413,0.02457
5285.93259,0.02579
5287.86106,0.04842
5289.78953,0.06345
5291.71800,0.06124
5293.64647,0.06108
5295.57494,0.06505
5297.50341,0.05948
5299.43188,0.04282
5301.36034,0.02436
5303.28881,0.00764
5305.21728,-0.00338
5307.14575,0.00258
5309.07422,0.02097
5311.00269,0.03303
5312.93116,0.03547
5314.85962,0.04019
5316.78809,0.05219
5318.71656,0.05485
5320.64503,0.04369
5322.57350,0.03436
5324.50197,0.03687
5326.43044,0.05239
5328.35891,0.06186
5330.28737,0.05355
5332.21584,0.05262
5334.14431,0.07098
5336.07278,0.08014
5338.00125,0.06131
5339.92972,0.03895
5341.85819,0.03539
5343.78665,0.04580
5345.71512,0.06344
5347.64359,0.07674
5349.57206,0.08132
5351.50053,0.08637
5353.42900,0.09413
5355.35747,0.09325
5357.28594,0.09013
5359.21440,0.09285
5361.14287,0.08830
5363.07134,0.07632
5364.99981,0.07712
5366.92828,0.08284
5368.85675,0.08113
5370.78522,0.08560
5372.71368,0.08884
5374.64215,0.07016
5376.57062,0.04444
5378.49909,0.04409
5380.42756,0.06651
5382.35603,0.07549
5384.28450,0.03885
5386.21297,-0.01330
5388.14143,-0.02539
5390.06990,-0.00410
5391.99837,0.02358
5393.92684,0.04459
5395.85531,0.06358
5397.78378,0.07368
5399.71225,0.05818
5401.64071,0.03875
5403.56918,0.04342
5405.49765,0.06393
5407.42612,0.08088
5409.35459,0.08242
5411.28306,0.07423
5413.21153,0.06667
5415.13999,0.04759
5417.06846,0.02247
5418.99693,0.02005
5420.92540,0.04703
5422.85387,0.07064
5424.78234,0.07358
5426.71081,0.07883
5428.63928,0.08548
5430.56774,0.07224
5432.49621,0.04402
5434.42468,0.01850
5436.35315,0.02569
5438.28162,0.06067
5440.21009,0.09374
5442.13856,0.11171
5444.06702,0.09990
5445.99549,0.05947
5447.92396,0.03238
5449.85243,0.03546
5451.78090,0.04189
5453.70937,0.04380
5455.63784,0.05041
5457.56631,0.05102
5459.49477,0.02968
5461.42324,0.01450
5463.35171,0.04046
5465.28018,0.08241
5467.20865,0.09793
5469.13712,0.08234
5471.06559,0.06240
5472.99405,0.06919
5474.92252,0.09250
5476.85099,0.09066
5478.77946,0.06956
5480.70793,0.05231
5482.63640,0.04684
5484.56487,0.05199
5486.49334,0.05776
5488.42180,0.06914
5490.35027,0.09475
5492.27874,0.13082
5494.20721,0.15351
5496.13568,0.14125
5498.06415,0.10245
5499.99262,0.06601
5501.92108,0.06335
5503.84955,0.08477
5505.77802,0.09313
5507.70649,0.07578
5509.63496,0.05939
5511.56343,0.05348
5513.49190,0.03949
5515.42037,0.02349
5517.34883,0.02167
5519.27730,0.02665
5521.20577,0.03847
5523.13424,0.07771
5525.06271,0.10812
5526.99118,0.06564
5528.91965,0.00714
5530.84811,0.02817
5532.77658,0.09235
5534.70505,0.12186
5536.63352,0.10968
5538.56199,0.08873
5540.49046,0.08048
5542.41893,0.08351
5544.34740,0.09837
5546.27586,0.11636
5548.20433,0.11341
5550.13280,0.09968
5552.06127,0.09003
5553.98974,0.07926
5555.91821,0.07376
5557.84668,0.06932
5559.77514,0.05997
5561.70361,0.06325
5563.63208,0.08845
5565.56055,0.11595
5567.48902,0.11739
5569.41749,0.10174
5571.34596,0.08077
5573.27443,0.04672
5575.20289,0.03519
5577.13136,0.05668
5579.05983,0.07244
5580.98830,0.07804
5582.91677,0.07817
5584.84524,0.07681
5586.77371,0.07892
5588.70217,0.07581
5590.63064,0.07592
5592.55911,0.07388
5594.48758,0.05600
5596.41605,0.04047
5598.34452,0.03102
5600.27299,0.03018
5602.20145,0.05819
5604.12992,0.09735
5606.05839,0.11980
5607.98686,0.12236
5609.91533,0.10531
5611.84380,0.07836
5613.77227,0.05885
5615.70074,0.05796
5617.62920,0.08968
5619.55767,0.13176
5621.48614,0.12306
5623.41461,0.07321
5625.34308,0.04670
5627.27155,0.05275
5629.20002,0.06377
5631.12848,0.06825
5633.05695,0.06651
5634.98542,0.06668
5636.91389,0.07471
5638.84236,0.07899
5640.77083,0.06465
5642.69930,0.04349
5644.62777,0.04017
5646.55623,0.05948
5648.48470,0.08425
5650.41317,0.09867
5652.34164,0.11432
5654.27011,0.14230
5656.19858,0.15468
5658.12705,0.13368
5660.05551,0.09716
5661.98398,0.06474
5663.91245,0.05157
5665.84092,0.06414
5667.76939,0.08294
5669.69786,0.07354
5671.62633,0.03172
5673.55480,0.00897
5675.48326,0.05326
5677.41173,0.13325
5679.34020,0.17441
5681.26867,0.16433
5683.19714,0.13885
5685.12561,0.12109
5687.05408,0.10389
5688.98254,0.07552
5690.91101,0.06210
5692.83948,0.07246
5694.76795,0.07825
5696.69642,0.08228
5698.62489,0.08623
5700.55336,0.08378
5702.48183,0.08959
5704.41029,0.10061
5706.33876,0.10282
5708.26723,0.09376
5710.19570,0.09345
5712.12417,0.11485
5714.05264,0.12591
5715.98111,0.09930
5717.90957,0.05792
5719.83804,0.03936
5721.76651,0.04337
5723.69498,0.04520
5725.62345,0.03586
5727.55192,0.03657
5729.48039,0.06215
5731.40886,0.07834
5733.33732,0.06061
5735.26579,0.02825
5737.19426,0.01751
5739.12273,0.03326
5741.05120,0.05148
5742.97967,0.06411
5744.90814,0.06595
5746.83660,0.05882
5748.76507,0.06607
5750.69354,0.08105
5752.62201,0.06805
5754.55048,0.04817
5756.47895,0.05556
5758.40742,0.06641
5760.33588,0.07053
5762.26435,0.09226
5764.19282,0.12664
5766.12129,0.13862
5768.04976,0.12183
5769.97823,0.09361
5771.90670,0.06499
5773.83517,0.05541
5775.76363,0.06526
5777.69210,0.06276
5779.62057,0.03551
5781.54904,0.01921
5783.47751,0.03759
5785.40598,0.05035
5787.33445,0.03722
5789.26291,0.03133
5791.19138,0.03429
5793.11985,0.02873
5795.04832,0.02245
5796.97679,0.02653
5798.90526,0.03424
5800.83373,0.03687
5802.76220,0.04468
5804.69066,0.06814
5806.61913,0.08459
5808.54760,0.07782
5810.47607,0.06525
5812.40454,0.05852
5814.33301,0.05893
5816.26148,0.06220
5818.18994,0.06964
5820.11841,0.10101
5822.04688,0.14679
5823.97535,0.16803
5825.90382,0.16289
5827.83229,0.14162
5829.76076,0.11203
5831.68923,0.09355
5833.61769,0.07632
5835.54616,0.04608
5837.47463,0.02120
5839.40310,0.02029
5841.33157,0.04337
5843.26004,0.06625
5845.18851,0.06621
5847.11697,0.05695
5849.04544,0.06743
5850.97391,0.10215
5852.90238,0.15174
5854.83085,0.17524
5856.75932,0.11741
5858.68779,0.03278
5860.61626,0.00882
5862.54472,0.02991
5864.47319,0.06237
5866.40166,0.10230
5868.33013,0.12294
5870.25860,0.11755
5872.18707,0.12158
5874.11554,0.14625
5876.04400,0.15707
5877.97247,0.12939
5879.90094,0.10927
5881.82941,0.12064
5883.75788,0.11042
5885.68635,0.08024
5887.61482,0.05671
5889.54329,0.02031
5891.47175,-0.00899
5893.40022,0.00956
5895.32869,0.05526
5897.25716,0.08499
5899.18563,0.09682
5901.11410,0.09473
5903.04257,0.07291
5904.97103,0.05921
5906.89950,0.06705
5908.82797,0.07408
5910.75644,0.06886
5912.68491,0.05933
5914.61338,0.06265
5916.54185,0.06848
5918.47032,0.04892
5920.39878,0.03117
5922.32725,0.04393
5924.25572,0.07171
5926.18419,0.10659
5928.11266,0.15071
5930.04113,0.18427
5931.96960,0.16274
5933.89806,0.10701
5935.82653,0.07989
5937.75500,0.06738
5939.68347,0.05860
5941.61194,0.06846
5943.54041,0.09151
5945.46888,0.10924
5947.39734,0.10054
5949.32581,0.08615
5951.25428,0.09938
5953.18275,0.11905
5955.11122,0.10872
5957.03969,0.08186
5958.96816,0.07807
5960.89663,0.10307
5962.82509,0.12428
5964.75356,0.11782
5966.68203,0.10551
5968.61050,0.10132
5970.53897,0.08774
5972.46744,0.08451
5974.39591,0.11144
5976.32437,0.14780
5978.25284,0.14987
5980.18131,0.10332
5982.10978,0.06667
5984.03825,0.06839
5985.96672,0.07972
5987.89519,0.09486
5989.82366,0.09340
5991.75212,0.06857
5993.68059,0.06008
5995.60906,0.06753
5997.53753,0.07489
5999.46600,0.09880
6001.39447,0.14561
6003.32294,0.18325
6005.25140,0.16560
6007.17987,0.12868
6009.10834,0.12760
6011.03681,0.12482
6012.96528,0.09405
6014.89375,0.07483
6016.82222,0.09866
6018.75069,0.13683
6020.67915,0.14304
6022.60762,0.15016
6024.53609,0.15750
6026.46456,0.10411
6028.39303,0.04197
6030.32150,0.04967
6032.24997,0.08257
6034.17843,0.11443
6036.10690,0.16454
6038.03537,0.18739
6039.96384,0.15328
6041.89231,0.10861
6043.82078,0.08268
6045.74925,0.07985
6047.67772,0.08467
6049.60618,0.07799
6051.53465,0.08701
6053.46312,0.10316
6055.39159,0.09567
6057.32006,0.10220
6059.24853,0.13636
6061.17700,0.15755
6063.10546,0.16723
6065.03393,0.17834
6066.96240,0.16874
6068.89087,0.14014
6070.81934,0.09682
6072.74781,0.02633
6074.67628,-0.02772
6076.60475,-0.01900
6078.53321,0.00960
6080.46168,0.00076
6082.39015,-0.01430
6084.31862,0.05588
6086.24709,0.18509
6088.17556,0.22468
6090.10403,0.16177
6092.03249,0.10625
6093.96096,0.11227
6095.88943,0.13973
6097.81790,0.15100
6099.74637,0.15675
6101.67484,0.14300
6103.60331,0.10329
6105.53177,0.07408
6107.46024,0.05413
6109.38871,0.03311
6111.31718,0.03929
6113.24565,0.06239
6115.17412,0.08378
6117.10259,0.11116
6119.03106,0.13782
6120.95952,0.15093
6122.88799,0.14944
6124.81646,0.13118
6126.74493,0.08480
6128.67340,0.03399
6130.60187,0.02539
6132.53034,0.05184
6134.45880,0.07256
6136.38727,0.07748
6138.31574,0.08657
6140.24421,0.10180
6142.17268,0.12465
6144.10115,0.14142
6146.02962,0.12858
6147.95809,0.11334
6149.88655,0.09588
6151.81502,0.05069
6153.74349,0.01462
6155.67196,0.01008
6157.60043,0.01624
6159.52890,0.04213
6161.45737,0.07833
6163.38583,0.09768
6165.31430,0.11594
6167.24277,0.14281
6169.17124,0.13644
6171.09971,0.08040
6173.02818,0.03916
6174.95665,0.03289
6176.88512,0.01723
6178.81358,0.00006
6180.74205,0.03050
6182.67052,0.10049
6184.59899,0.12438
6186.52746,0.07640
6188.45593,0.05245
6190.38440,0.10461
6192.31286,0.15073
6194.24133,0.13634
6196.16980,0.10937
6198.09827,0.10857
6200.02674,0.09789
6201.95521,0.06909
6203.88368,0.04763
6205.81215,0.04600
6207.74061,0.05347
6209.66908,0.04322
6211.59755,0.00949
6213.52602,-0.02621
6215.45449,-0.02843
6217.38296,0.00135
6219.31143,0.01211
6221.23989,0.01250
6223.16836,0.04743
6225.09683,0.09661
6227.02530,0.09842
6228.95377,0.09354
6230.88224,0.13252
6232.81071,0.13971
6234.73918,0.08833
6236.66764,0.03156
6238.59611,0.01407
6240.52458,0.06366
6242.45305,0.12444
6244.38152,0.13218
6246.30999,0.09453
6248.23846,0.06490
6250.16692,0.07390
6252.09539,0.09236
6254.02386,0.10833
6255.95233,0.11883
6257.88080,0.10024
6259.80927,0.06260
6261.73774,0.04066
6263.66621,0.03337
6265.59467,0.00779
6267.52314,-0.01873
6269.45161,0.00081
6271.38008,0.05363
6273.30855,0.09109
6275.23702,0.08120
6277.16549,0.06952
6279.09395,0.13441
6281.02242,0.21225
6282.95089,0.16048
6284.87936,0.04223
6286.80783,0.02355
6288.73630,0.09469
6290.66477,0.17533
6292.59323,0.22051
6294.52170,0.21156
6296.45017,0.16198
6298.37864,0.08587
6300.30711,0.01504
6302.23558,0.00347
6304.16405,0.02937
6306.09252,0.05200
6308.02098,0.06282
6309.94945,0.05823
6311.87792,0.07720
6313.80639,0.14681
6315.73486,0.20055
6317.66333,0.14550
6319.59180,0.03995
6321.52026,0.02679
6323.44873,0.07137
6325.37720,0.05901
6327.30567,0.03071
6329.23414,0.06317
6331.16261,0.14363
6333.09108,0.21878
6335.01955,0.23746
6336.94801,0.21182
6338.87648,0.18696
6340.80495,0.16767
6342.73342,0.13273
6344.66189,0.08134
6346.59036,0.05711
6348.51883,0.06157
6350.44729,0.06159
6352.37576,0.04923
6354.30423,0.03250
6356.23270,0.04315
6358.16117,0.07309
6360.08964,0.08005
6362.01811,0.06339
6363.94658,0.07986
6365.87504,0.14935
6367.80351,0.16439
6369.73198,0.08642
6371.66045,0.03342
6373.58892,0.08741
6375.51739,0.16986
6377.44586,0.15799
6379.37432,0.08533
6381.30279,0.05954
6383.23126,0.07394
6385.15973,0.06016
6387.08820,0.04187
6389.01667,0.02382
6390.94514,-0.00851
6392.87361,0.01201
6394.80207,0.07579
6396.73054,0.08201
6398.65901,0.03813
6400.58748,-0.00063
6402.51595,-0.00212
6404.44442,0.00636
6406.37289,0.01157
6408.30135,0.04479
6410.22982,0.08019
6412.15829,0.09462
6414.08676,0.08520
6416.01523,0.03410
6417.94370,-0.00910
6419.87217,-0.02174
6421.80064,-0.04749
6423.72910,-0.04072
6425.65757,0.00811
6427.58604,0.02732
6429.51451,0.02499
6431.44298,0.03892
6433.37145,0.05657
6435.29992,0.04706
6437.22838,0.01294
6439.15685,0.01930
6441.08532,0.08585
6443.01379,0.13269
6444.94226,0.09154
6446.87073,0.02338
6448.79920,0.01991
6450.72766,0.07951
6452.65613,0.11585
6454.58460,0.10473
6456.51307,0.11286
6458.44154,0.15909
6460.37001,0.16019
6462.29848,0.07371
6464.22695,-0.00442
6466.15541,0.01176
6468.08388,0.07320
6470.01235,0.12942
6471.94082,0.18415
6473.86929,0.20270
6475.79776,0.16159
6477.72623,0.09162
6479.65469,0.03196
6481.58316,-0.00780
6483.51163,-0.02247
6485.44010,-0.01979
6487.36857,-0.00929
6489.29704,0.01843
6491.22551,0.03608
6493.15398,0.03055
6495.08244,0.05669
6497.01091,0.10994
6498.93938,0.13532
6500.86785,0.11253
6502.79632,0.06747
6504.72479,0.02492
6506.65326,-0.02729
6508.58172,-0.08059
6510.51019,-0.07693
6512.43866,-0.00244
6514.36713,0.05814
6516.29560,0.06331
6518.22407,0.05066
6520.15254,0.06313
6522.08101,0.11346
6524.00947,0.15632
6525.93794,0.14130
6527.86641,0.08847
6529.79488,0.02827
6531.72335,0.00637
6533.65182,0.03491
6535.58029,0.04844
6537.50875,0.03199
6539.43722,0.03136
6541.36569,0.05223
6543.29416,0.05413
6545.22263,0.03193
6547.15110,0.01941
6549.07957,0.02092
6551.00804,0.03270
6552.93650,0.07467
6554.86497,0.12456
6556.79344,0.11151
6558.72191,0.03782
6560.65038,-0.02221
6562.57885,-0.02975
6564.50732,-0.01231
6566.43578,0.04433
6568.36425,0.16171
6570.29272,0.20592
6572.22119,0.10339
6574.14966,0.02823
6576.07813,0.10593
6578.00660,0.18608
6579.93507,0.11851
6581.86353,0.01019
6583.79200,-0.00806
6585.72047,0.03780
6587.64894,0.08094
6589.57741,0.10607
6591.50588,0.13093
6593.43435,0.15793
6595.36281,0.16057
6597.29128,0.13071
6599.21975,0.09065
6601.14822,0.06099
6603.07669,0.08374
6605.00516,0.16275
6606.93363,0.19401
6608.86210,0.13964
6610.79056,0.11063
6612.71903,0.10641
6614.64750,0.06237
6616.57597,0.05040
6618.50444,0.07384
6620.43291,0.05414
6622.36138,0.04223
6624.28984,0.07473
6626.21831,0.10224
6628.14678,0.11094
6630.07525,0.06526
6632.00372,-0.02424
6633.93219,-0.06046
6635.86066,-0.04011
6637.78912,-0.00379
6639.71759,0.04776
6641.64606,0.06554
6643.57453,0.03792
6645.50300,0.05478
6647.43147,0.10781
6649.35994,0.11898
6651.28841,0.09953
6653.21687,0.07557
6655.14534,0.08901
6657.07381,0.15409
6659.00228,0.19789
6660.93075,0.19075
6662.85922,0.18367
6664.78769,0.21110
6666.71615,0.20200
6668.64462,0.09617
6670.57309,-0.04509
6672.50156,-0.16005
6674.43003,-0.18655
6676.35850,-0.13961
6678.28697,-0.09166
6680.21544,-0.03298
6682.14390,0.05147
6684.07237,0.11889
6686.00084,0.13015
6687.92931,0.11823
6689.85778,0.08685
6691.78625,0.02963
6693.71472,0.01755
6695.64318,0.04186
6697.57165,0.04334
6699.50012,0.04828
6701.42859,0.09037
6703.35706,0.12114
6705.28553,0.13667
6707.21400,0.15567
6709.14247,0.11928
6711.07093,0.06575
6712.99940,0.05127
6714.92787,0.04364
6716.85634,0.01582
6718.78481,0.01761
6720.71328,0.05700
6722.64175,0.01911
6724.57021,-0.04895
6726.49868,-0.02644
6728.42715,0.05659
6730.35562,0.13268
6732.28409,0.13639
6734.21256,0.05718
6736.14103,0.01130
6738.06950,0.06215
6739.99796,0.07181
6741.92643,0.00362
6743.85490,0.03927
6745.78337,0.17768
6747.71184,0.20753
6749.64031,0.06839
6751.56878,-0.03785
6753.49724,-0.03195
6755.42571,-0.01847
6757.35418,-0.03902
6759.28265,-0.02448
6761.21112,0.06932
6763.13959,0.13876
6765.06806,0.14180
6766.99653,0.15645
6768.92499,0.18994
6770.85346,0.16968
6772.78193,0.12489
6774.71040,0.12224
6776.63887,0.09340
6778.56734,0.01422
6780.49581,-0.00843
6782.42427,0.03505
6784.35274,0.04400
6786.28121,-0.00948
6788.20968,-0.03669
6790.13815,-0.00383
6792.06662,-0.00525
6793.99509,-0.06164
6795.92355,-0.08180
6797.85202,-0.03472
6799.78049,0.05134
6801.70896,0.13717
6803.63743,0.16583
6805.56590,0.13688
6807.49437,0.12596
6809.42284,0.14930
6811.35130,0.14253
6813.27977,0.11307
6815.20824,0.12236
6817.13671,0.12340
6819.06518,0.11986
6820.99365,0.12694
6822.92212,0.04439
6824.85058,-0.05290
6826.77905,0.00410
6828.70752,0.14802
6830.63599,0.18627
6832.56446,0.09794
6834.49293,0.03119
6836.42140,0.02865
6838.34987,0.04704
6840.27833,0.10250
6842.20680,0.16017
6844.13527,0.14472
6846.06374,0.07625
6847.99221,0.06501
6849.92068,0.17516
6851.84915,0.23108
6853.77761,0.13952
6855.70608,0.03100
6857.63455,0.01522
6859.56302,0.03374
6861.49149,-0.00208
6863.41996,-0.06618
6865.34843,-0.04924
6867.27690,0.03802
6869.20536,0.07650
6871.13383,0.04256
6873.06230,0.03859
6874.99077,0.08439
6876.91924,0.06010
6878.84771,0.00943
6880.77618,0.07759
6882.70464,0.14574
6884.63311,0.13552
6886.56158,0.14810
6888.49005,0.15066
6890.41852,0.08939
6892.34699,0.03539
6894.27546,0.03030
6896.20393,0.04763
6898.13239,0.07119
6900.06086,0.07997
6901.98933,0.02090
6903.91780,-0.10333
6905.84627,-0.14071
6907.77474,-0.00492
6909.70321,0.13986
6911.63167,0.14316
6913.56014,0.07022
6915.48861,0.04073
6917.41708,-0.00182
6919.34555,-0.07504
6921.27402,-0.04984
6923.20249,0.06733
6925.13096,0.17635
6927.05942,0.20910
6928.98789,0.09836
6930.91636,-0.10998
6932.84483,-0.16891
6934.77330,-0.06015
6936.70177,0.01850
6938.63024,0.08525
6940.55870,0.17437
6942.48717,0.14617
6944.41564,0.00371
6946.34411,-0.07264
6948.27258,0.00977
6950.20105,0.09556
6952.12952,0.09044
6954.05799,0.06185
6955.98645,0.03630
6957.91492,0.00878
6959.84339,-0.01065
6961.77186,0.01716
6963.70033,0.09201
6965.62880,0.13616
6967.55727,0.13720
6969.48573,0.17936
6971.41420,0.26437
6973.34267,0.25780
6975.27114,0.16066
6977.19961,0.04341
6979.12808,-0.05605
6981.05655,-0.01120
6982.98501,0.14167
6984.91348,0.20661
6986.84195,0.14373
6988.77042,0.01145
6990.69889,-0.10011
6992.62736,-0.14413
6994.55583,-0.18253
6996.48430,-0.20573
6998.41276,-0.10533
7000.34123,0.04017
7002.26970,0.04001
7004.19817,-0.06086
7006.12664,-0.03781
7008.05511,0.08445
7009.98358,0.08692
7011.91204,0.04980
7013.84051,0.05928
7015.76898,0.09660
7017.69745,0.16829
7019.62592,0.20006
7021.55439,0.19822
7023.48286,0.21271
7025.41133,0.13880
7027.33979,0.00758
7029.26826,0.03974
7031.19673,0.18593
7033.12520,0.25575
7035.05367,0.24954
7036.98214,0.20155
7038.91061,0.13836
7040.83907,0.10280
7042.76754,0.08886
7044.69601,0.05426
7046.62448,0.00268
7048.55295,-0.04398
7050.48142,-0.02910
7052.40989,0.02799
7054.33836,0.04266
7056.26682,0.03474
7058.19529,0.07405
7060.12376,0.15466
7062.05223,0.20012
7063.98070,0.13338
7065.90917,0.02927
7067.83764,0.01799
7069.76610,0.10815
7071.69457,0.13632
7073.62304,0.02511
7075.55151,-0.02380
7077.47998,0.01297
7079.40845,0.00694
7081.33692,-0.01964
7083.26539,-0.04002
7085.19385,-0.08159
7087.12232,-0.07046
7089.05079,-0.02075
7090.97926,-0.03633
7092.90773,-0.05719
7094.83620,0.01502
7096.76467,0.07746
7098.69313,0.04536
7100.62160,0.00247
7102.55007,0.02974
7104.47854,0.09919
7106.40701,0.07231
7108.33548,0.01902
7110.26395,0.06252
7112.19242,0.09310
7114.12088,0.10088
7116.04935,0.13838
7117.97782,0.12843
7119.90629,0.09922
7121.83476,0.11370
7123.76323,0.11585
7125.69170,0.14668
7127.62016,0.19657
7129.54863,0.18605
7131.47710,0.16393
7133.40557,0.18387
7135.33404,0.21768
7137.26251,0.18925
7139.19098,0.07054
7141.11944,-0.02570
7143.04791,0.01891
7144.97638,0.13418
7146.90485,0.16471
7148.83332,0.15702
7150.76179,0.21036
7152.69026,0.23889
7154.61873,0.10562
7156.54719,-0.06971
7158.47566,-0.11136
7160.40413,0.00681
7162.33260,0.13839
7164.26107,0.10632
7166.18954,-0.01132
7168.11801,-0.04267
7170.04647,0.06801
7171.97494,0.22589
7173.90341,0.25175
7175.83188,0.13631
7177.76035,0.04966
7179.68882,0.01386
7181.61729,-0.07723
7183.54576,-0.07936
7185.47422,0.09081
7187.40269,0.20244
7189.33116,0.09101
7191.25963,-0.11322
7193.18810,-0.11702
7195.11657,0.02403
7197.04504,0.15077
7198.97350,0.18458
7200.90197,0.17091
7202.83044,0.20896
7204.75891,0.21969
7206.68738,0.08592
7208.61585,-0.02903
7210.54432,-0.01022
7212.47279,0.06955
7214.40125,0.06680
7216.32972,0.06702
7218.25819,0.24749
7220.18666,0.23195
7222.11513,-0.03922
7224.04360,-0.19624
7225.97207,-0.12872
7227.90053,0.00036
7229.82900,0.13280
7231.75747,0.23979
7233.68594,0.16980
7235.61441,0.01172
7237.54288,-0.09180
7239.47135,-0.07728
7241.39982,0.11883
7243.32828,0.36547
7245.25675,0.37863
7247.18522,0.29231
7249.11369,0.28597
7251.04216,0.29710
7252.97063,0.10642
7254.89910,-0.09262
7256.82756,-0.05364
7258.75603,0.06739
7260.68450,0.13582
7262.61297,0.12465
7264.54144,0.11290
7266.46991,0.16006
7268.39838,0.21031
7270.32685,0.18846
7272.25531,0.10341
7274.18378,0.10571
7276.11225,0.20342
7278.04072,0.27052
7279.96919,0.23274
7281.89766,0.18322
7283.82613,0.20518
7285.75459,0.19885
7287.68306,0.14317
7289.61153,-0.03054
7291.54000,-0.32510
7293.46847,-0.42877
7295.39694,-0.31739
7297.32541,-0.26161
7299.25387,-0.27875
7301.18234,-0.22922
7303.11081,-0.10360
7305.03928,0.02843
7306.96775,0.11839
7308.89622,0.10965
7310.82469,0.08428
7312.75316,0.14503
7314.68162,0.19173
7316.61009,0.16312
7318.53856,0.17846
7320.46703,0.24650
7322.39550,0.29371
7324.32397,0.25963
7326.25244,0.17925
7328.18090,0.18849
7330.10937,0.24360
7332.03784,0.20962
7333.96631,0.12264
7335.89478,0.06311
7337.82325,0.05621
7339.75172,0.08739
7341.68019,0.07360
7343.60865,-0.06196
7345.53712,-0.25438
7347.46559,-0.30532
7349.39406,-0.19555
7351.32253,-0.15605
7353.25100,-0.13949
7355.17947,-0.00241
7357.10793,0.11620
7359.03640,0.09016
7360.96487,-0.00107
7362.89334,-0.12048
7364.82181,-0.18520
7366.75028,-0.15882
7368.67875,-0.05798
7370.60722,0.01155
7372.53568,-0.04592
7374.46415,-0.08945
7376.39262,0.01216
7378.32109,0.06324
7380.24956,0.00221
7382.17803,-0.05669
7384.10650,-0.00549
7386.03496,0.07403
7387.96343,0.17091
7389.89190,0.30493
7391.82037,0.36775
7393.74884,0.38543
7395.67731,0.36860
7397.60578,0.24826
7399.53425,0.14877
7401.46271,0.10894
7403.39118,0.05710
7405.31965,0.03350
7407.24812,0.01590
7409.17659,-0.01611
7411.10506,0.02312
7413.03353,0.10924
7414.96199,0.13916
7416.89046,0.05172
7418.81893,-0.02315
7420.74740,0.07685
7422.67587,0.16595
7424.60434,0.19904
7426.53281,0.22108
7428.46128,0.16597
7430.38974,0.06047
7432.31821,0.09849
7434.24668,0.15815
7436.17515,0.11196
7438.10362,0.09658
7440.03209,0.09547
7441.96056,0.01885
7443.88902,-0.01904
7445.81749,0.04492
7447.74596,0.03489
7449.67443,-0.15383
7451.60290,-0.26277
7453.53137,-0.15395
7455.45984,-0.08237
7457.38831,-0.13401
7459.31677,-0.21508
7461.24524,-0.17273
7463.17371,-0.06168
7465.10218,0.04008
7467.03065,0.17243
7468.95912,0.22642
7470.88759,0.06845
7472.81605,-0.10242
7474.74452,-0.04080
7476.67299,0.11097
7478.60146,0.23525
7480.52993,0.40695
7482.45840,0.46350
7484.38687,0.28140
7486.31533,0.19442
7488.24380,0.29712
7490.17227,0.32547
7492.10074,0.16438
7494.02921,-0.08627
7495.95768,-0.27098
7497.88615,-0.19472
