399.19301,1.02838
401.12148,0.20990
403.04995,-0.28726
404.97842,-0.37859
406.90689,-0.15759
408.83536,0.15530
410.76382,0.35961
412.69229,0.44970
414.62076,0.46008
416.54923,0.30230
418.47770,0.08643
420.40617,0.14156
422.33464,0.23818
424.26311,0.14990
426.19157,0.01062
428.12004,-0.01985
430.04851,0.03047
431.97698,0.06653
433.90545,0.04229
435.83392,0.02633
437.76239,0.09465
439.69085,0.18936
441.61932,0.18757
443.54779,0.13730
445.47626,0.14772
447.40473,0.13962
449.33320,0.07962
451.26167,0.03644
453.19013,0.04734
455.11860,0.07943
457.04707,0.07143
458.97554,0.05906
460.90401,0.09280
462.83248,0.11677
464.76095,0.10575
466.68942,0.06673
468.61788,0.00507
470.54635,-0.00847
472.47482,0.10140
474.40329,0.23090
476.33176,0.16058
478.26023,0.03152
480.18870,-0.01734
482.11716,0.02010
484.04563,0.06778
485.97410,0.09943
487.90257,0.10450
489.83104,0.06800
491.75951,0.05600
493.68798,0.11041
495.61645,0.15704
497.54491,0.12193
499.47338,0.06677
501.40185,0.07535
503.33032,0.13032
505.25879,0.18443
507.18726,0.20680
509.11573,0.17710
511.04419,0.13891
512.97266,0.12680
514.90113,0.12925
516.82960,0.12503
518.75807,0.10637
520.68654,0.07105
522.61501,0.02938
524.54348,0.02381
526.47194,0.07399
528.40041,0.11752
530.32888,0.11388
532.25735,0.10847
534.18582,0.12920
536.11429,0.12106
538.04276,0.06882
539.97122,0.02998
541.89969,0.03732
543.82816,0.08346
545.75663,0.12461
547.68510,0.10946
549.61357,0.10280
551.54204,0.30151
553.47051,0.56029
555.39897,0.50611
557.32744,0.25599
559.25591,0.12759
561.18438,0.09898
563.11285,0.10885
565.04132,0.15245
566.96979,0.17465
568.89825,0.16039
570.82672,0.14597
572.75519,0.13613
574.68366,0.13055
576.61213,0.14015
578.54060,0.13988
580.46907,0.11602
582.39754,0.09815
584.32600,0.10487
586.25447,0.11667
588.18294,0.11521
590.11141,0.11598
592.03988,0.13225
593.96835,0.13167
595.89682,0.10310
597.82528,0.09114
599.75375,0.11407
601.68222,0.14004
603.61069,0.14614
605.53916,0.14718
607.46763,0.14635
609.39610,0.13789
611.32456,0.13399
613.25303,0.13082
615.18150,0.11857
617.10997,0.10520
619.03844,0.10199
620.96691,0.11621
622.89538,0.14406
624.82385,0.16730
626.75231,0.16181
628.68078,0.12793
630.60925,0.09782
632.53772,0.08695
634.46619,0.08898
636.39466,0.09849
638.32313,0.10934
640.25159,0.11844
642.18006,0.11406
644.10853,0.09654
646.03700,0.10765
647.96547,0.14849
649.89394,0.15883
651.82241,0.12691
653.75088,0.09501
655.67934,0.09277
657.60781,0.11074
659.53628,0.12350
661.46475,0.12635
663.39322,0.12877
665.32169,0.13635
667.25016,0.13364
669.17862,0.10572
671.10709,0.09235
673.03556,0.10208
674.96403,0.12815
676.89250,0.14806
678.82097,0.14288
680.74944,0.13232
682.67791,0.13308
684.60637,0.12725
686.53484,0.11138
688.46331,0.11253
690.39178,0.12787
692.32025,0.13751
694.24872,0.14658
696.17719,0.15338
698.10565,0.14065
700.03412,0.12544
701.96259,0.12951
703.89106,0.13808
705.81953,0.14517
707.74800,0.15493
709.67647,0.16618
711.60494,0.17886
713.53340,0.17694
715.46187,0.15354
717.39034,0.13053
719.31881,0.11908
721.24728,0.11058
723.17575,0.11026
725.10422,0.12673
727.03268,0.14403
728.96115,0.14696
730.88962,0.14324
732.81809,0.14281
734.74656,0.14354
736.67503,0.13899
738.60350,0.12768
740.53197,0.12436
742.46043,0.13618
744.38890,0.14279
746.31737,0.13885
748.24584,0.14060
750.17431,0.14398
752.10278,0.13770
754.03125,0.13306
755.95971,0.13574
757.88818,0.13918
759.81665,0.14589
761.74512,0.14915
763.67359,0.13852
765.60206,0.12293
767.53053,0.11616
769.45900,0.12333
771.38746,0.13997
773.31593,0.15009
775.24440,0.15038
777.17287,0.15294
779.10134,0.15316
781.02981,0.14618
782.95828,0.14145
784.88674,0.14113
786.81521,0.13793
788.74368,0.12779
790.67215,0.12082
792.60062,0.12828
794.52909,0.14281
796.45756,0.15227
798.38602,0.14924
800.31449,0.13207
802.24296,0.12978
804.17143,0.14903
806.09990,0.14967
808.02837,0.13286
809.95684,0.12821
811.88531,0.13609
813.81377,0.14606
815.74224,0.14808
817.67071,0.13769
819.59918,0.12902
821.52765,0.13513
823.45612,0.14527
825.38459,0.14384
827.31305,0.13486
829.24152,0.13017
831.16999,0.12760
833.09846,0.12775
835.02693,0.13521
836.95540,0.13897
838.88387,0.13632
840.81234,0.13337
842.74080,0.12384
844.66927,0.11114
846.59774,0.11681
848.52621,0.13808
850.45468,0.15030
852.38315,0.15165
854.31162,0.14773
856.24008,0.13929
858.16855,0.13276
860.09702,0.12779
862.02549,0.12470
863.95396,0.12645
865.88243,0.13064
867.81090,0.13860
869.73937,0.14752
871.66783,0.14522
873.59630,0.13272
875.52477,0.12414
877.45324,0.12574
879.38171,0.13226
881.31018,0.13298
883.23865,0.12672
885.16711,0.12673
887.09558,0.13150
889.02405,0.12809
890.95252,0.12450
892.88099,0.12535
894.80946,0.12466
896.73793,0.12740
898.66640,0.13631
900.59486,0.14581
902.52333,0.14802
904.45180,0.14329
906.38027,0.13901
908.30874,0.13859
910.23721,0.14010
912.16568,0.13757
914.09414,0.13515
916.02261,0.14014
917.95108,0.14596
919.87955,0.14632
921.80802,0.14315
923.73649,0.13840
925.66496,0.13667
927.59343,0.13949
929.52189,0.14129
931.45036,0.14287
933.37883,0.14647
935.30730,0.14877
937.23577,0.14925
939.16424,0.15060
941.09271,0.15033
943.02117,0.14502
944.94964,0.13806
946.87811,0.13493
948.80658,0.13833
950.73505,0.14076
952.66352,0.13886
954.59199,0.14334
956.52045,0.15326
958.44892,0.15588
960.37739,0.15127
962.30586,0.14864
964.23433,0.15052
966.16280,0.15478
968.09127,0.15623
970.01974,0.15114
971.94820,0.14401
973.87667,0.13741
975.80514,0.13592
977.73361,0.14427
979.66208,0.15221
981.59055,0.15052
983.51902,0.14819
985.44748,0.15384
987.37595,0.15833
989.30442,0.15566
991.23289,0.15685
993.16136,0.16581
995.08983,0.17044
997.01830,0.16650
998.94677,0.16159
1000.87523,0.15549
1002.80370,0.14660
1004.73217,0.14335
1006.66064,0.15132
1008.58911,0.16241
1010.51758,0.16788
1012.44605,0.16839
1014.37451,0.16519
1016.30298,0.16092
1018.23145,0.15834
1020.15992,0.15687
1022.08839,0.15277
1024.01686,0.14794
1025.94533,0.15782
1027.87380,0.17702
1029.80226,0.18006
1031.73073,0.16825
1033.65920,0.15669
1035.58767,0.14706
1037.51614,0.14640
1039.44461,0.15883
1041.37308,0.16331
1043.30154,0.15179
1045.23001,0.14477
1047.15848,0.15140
1049.08695,0.16513
1051.01542,0.17387
1052.94389,0.16736
1054.87236,0.15347
1056.80083,0.14797
1058.72929,0.15316
1060.65776,0.15892
1062.58623,0.16379
1064.51470,0.17199
1066.44317,0.17356
1068.37164,0.16856
1070.30011,0.17045
1072.22857,0.17509
1074.15704,0.17528
1076.08551,0.17121
1078.01398,0.16296
1079.94245,0.15971
1081.87092,0.16252
1083.79939,0.16038
1085.72786,0.15678
1087.65632,0.15803
1089.58479,0.15735
1091.51326,0.15403
1093.44173,0.15604
1095.37020,0.16154
1097.29867,0.16555
1099.22714,0.17213
1101.15560,0.18074
1103.08407,0.18087
1105.01254,0.17263
1106.94101,0.16825
1108.86948,0.16940
1110.79795,0.17224
1112.72642,0.17706
1114.65489,0.18081
1116.58335,0.17755
1118.51182,0.16497
1120.44029,0.15222
1122.36876,0.14890
1124.29723,0.15069
1126.22570,0.15367
1128.15417,0.15880
1130.08263,0.15944
1132.01110,0.15384
1133.93957,0.14975
1135.86804,0.15155
1137.79651,0.15883
1139.72498,0.16465
1141.65345,0.16476
1143.58191,0.16355
1145.51038,0.16285
1147.43885,0.16006
1149.36732,0.15628
1151.29579,0.15679
1153.22426,0.15962
1155.15273,0.16056
1157.08120,0.16334
1159.00966,0.16907
1160.93813,0.17169
1162.86660,0.16842
1164.79507,0.16294
1166.72354,0.16045
1168.65201,0.16176
1170.58048,0.16203
1172.50894,0.16096
1174.43741,0.16202
1176.36588,0.16384
1178.29435,0.16712
1180.22282,0.16992
1182.15129,0.16341
1184.07976,0.15366
1186.00823,0.15441
1187.93669,0.16014
1189.86516,0.16185
1191.79363,0.16283
1193.72210,0.16467
1195.65057,0.16783
1197.57904,0.17327
1199.50751,0.17547
1201.43597,0.17232
1203.36444,0.17063
1205.29291,0.17392
1207.22138,0.17617
1209.14985,0.17490
1211.07832,0.17433
1213.00679,0.17179
1214.93526,0.16563
1216.86372,0.16183
1218.79219,0.16216
1220.72066,0.16385
1222.64913,0.16465
1224.57760,0.16410
1226.50607,0.16492
1228.43454,0.16822
1230.36300,0.16941
1232.29147,0.16707
1234.21994,0.16745
1236.14841,0.17293
1238.07688,0.17623
1240.00535,0.17359
1241.93382,0.17046
1243.86229,0.16789
1245.79075,0.16331
1247.71922,0.15961
1249.64769,0.15862
1251.57616,0.15880
1253.50463,0.15946
1255.43310,0.15953
1257.36157,0.15883
1259.29003,0.15839
1261.21850,0.15789
1263.14697,0.15912
1265.07544,0.16205
1267.00391,0.16196
1268.93238,0.15934
1270.86085,0.15901
1272.78932,0.16105
1274.71778,0.16393
1276.64625,0.16823
1278.57472,0.17056
1280.50319,0.16770
1282.43166,0.16504
1284.36013,0.16711
1286.28860,0.16974
1288.21706,0.17056
1290.14553,0.17196
1292.07400,0.17123
1294.00247,0.16708
1295.93094,0.16457
1297.85941,0.16417
1299.78788,0.16097
1301.71634,0.14937
1303.64481,0.13279
1305.57328,0.13033
1307.50175,0.14859
1309.43022,0.16676
1311.35869,0.17359
1313.28716,0.17543
1315.21563,0.17455
1317.14409,0.17421
1319.07256,0.17585
1321.00103,0.17466
1322.92950,0.17130
1324.85797,0.16717
1326.78644,0.16315
1328.71491,0.16322
1330.64337,0.16439
1332.57184,0.16368
1334.50031,0.16431
1336.42878,0.16733
1338.35725,0.17210
1340.28572,0.17208
1342.21419,0.16440
1344.14266,0.15396
1346.07112,0.14865
1347.99959,0.15747
1349.92806,0.16800
1351.85653,0.16717
1353.78500,0.16469
1355.71347,0.16760
1357.64194,0.17131
1359.57040,0.17278
1361.49887,0.17559
1363.42734,0.17752
1365.35581,0.17462
1367.28428,0.17238
1369.21275,0.17287
1371.14122,0.17573
1373.06969,0.18172
1374.99815,0.18928
1376.92662,0.19269
1378.85509,0.18907
1380.78356,0.18226
1382.71203,0.17862
1384.64050,0.18086
1386.56897,0.18560
1388.49743,0.18621
1390.42590,0.18488
1392.35437,0.18687
1394.28284,0.19087
1396.21131,0.19344
1398.13978,0.19142
1400.06825,0.18440
1401.99672,0.17970
1403.92518,0.18007
1405.85365,0.17912
1407.78212,0.17571
1409.71059,0.17599
1411.63906,0.18002
1413.56753,0.18464
1415.49600,0.19271
1417.42446,0.20450
1419.35293,0.20519
1421.28140,0.19536
1423.20987,0.19018
1425.13834,0.18633
1427.06681,0.18575
1428.99528,0.19176
1430.92375,0.19476
1432.85221,0.19298
1434.78068,0.19305
1436.70915,0.19013
1438.63762,0.18512
1440.56609,0.18527
1442.49456,0.18633
1444.42303,0.18600
1446.35149,0.18826
1448.27996,0.19351
1450.20843,0.19690
1452.13690,0.19903
1454.06537,0.20392
1455.99384,0.21614
1457.92231,0.22068
1459.85077,0.20497
1461.77924,0.19581
1463.70771,0.19376
1465.63618,0.18762
1467.56465,0.18225
1469.49312,0.18834
1471.42159,0.20481
1473.35006,0.21755
1475.27852,0.21273
1477.20699,0.19995
1479.13546,0.19094
1481.06393,0.18968
1482.99240,0.19045
1484.92087,0.19149
1486.84934,0.19976
1488.77780,0.21316
1490.70627,0.21085
1492.63474,0.19842
1494.56321,0.19530
1496.49168,0.20096
1498.42015,0.20452
1500.34862,0.19879
1502.27709,0.18552
1504.20555,0.17697
1506.13402,0.19752
1508.06249,0.23168
1509.99096,0.22624
1511.91943,0.21386
1513.84790,0.21049
1515.77637,0.21618
1517.70483,0.22219
1519.63330,0.22638
1521.56177,0.22875
1523.49024,0.22068
1525.41871,0.21212
1527.34718,0.20634
1529.27565,0.20128
1531.20412,0.20255
1533.13258,0.20983
1535.06105,0.21213
1536.98952,0.21228
1538.91799,0.22121
1540.84646,0.23803
1542.77493,0.24154
1544.70340,0.22866
1546.63186,0.21193
1548.56033,0.20313
1550.48880,0.19870
1552.41727,0.19761
1554.34574,0.20688
1556.27421,0.22513
1558.20268,0.24181
1560.13115,0.22562
1562.05961,0.20752
1563.98808,0.20234
1565.91655,0.20335
1567.84502,0.20831
1569.77349,0.20810
1571.70196,0.20149
1573.63043,0.20144
1575.55889,0.20625
1577.48736,0.20270
1579.41583,0.19245
1581.34430,0.18500
1583.27277,0.18152
1585.20124,0.17876
1587.12971,0.17632
1589.05818,0.17704
1590.98664,0.17935
1592.91511,0.18018
1594.84358,0.18013
1596.77205,0.18020
1598.70052,0.18103
1600.62899,0.18230
1602.55746,0.18180
1604.48592,0.18100
1606.41439,0.18263
1608.34286,0.18472
1610.27133,0.18543
1612.19980,0.18725
1614.12827,0.19412
1616.05674,0.20502
1617.98521,0.20590
1619.91367,0.20010
1621.84214,0.20112
1623.77061,0.20403
1625.69908,0.20059
1627.62755,0.19577
1629.55602,0.19245
1631.48449,0.19187
1633.41295,0.19828
1635.34142,0.21380
1637.26989,0.21829
1639.19836,0.20774
1641.12683,0.20088
1643.05530,0.20580
1644.98377,0.22329
1646.91223,0.23782
1648.84070,0.22958
1650.76917,0.22493
1652.69764,0.23731
1654.62611,0.23318
1656.55458,0.21288
1658.48305,0.20023
1660.41152,0.19787
1662.33998,0.20169
1664.26845,0.20043
1666.19692,0.20048
1668.12539,0.21121
1670.05386,0.22093
1671.98233,0.21937
1673.91080,0.21846
1675.83926,0.21331
1677.76773,0.20538
1679.69620,0.20721
1681.62467,0.22310
1683.55314,0.24758
1685.48161,0.24398
1687.41008,0.22415
1689.33855,0.21262
1691.26701,0.20604
1693.19548,0.20749
1695.12395,0.22050
1697.05242,0.23467
1698.98089,0.23593
1700.90936,0.22649
1702.83783,0.22017
1704.76629,0.21762
1706.69476,0.20952
1708.62323,0.20150
1710.55170,0.20126
1712.48017,0.20712
1714.40864,0.21536
1716.33711,0.21988
1718.26558,0.21246
1720.19404,0.20201
1722.12251,0.19904
1724.05098,0.19942
1725.97945,0.19738
1727.90792,0.19668
1729.83639,0.20006
1731.76486,0.20648
1733.69332,0.21156
1735.62179,0.20539
1737.55026,0.19967
1739.47873,0.20106
1741.40720,0.20413
1743.33567,0.20573
1745.26414,0.20875
1747.19261,0.21234
1749.12107,0.21110
1751.04954,0.20274
1752.97801,0.19428
1754.90648,0.19299
1756.83495,0.19792
1758.76342,0.20150
1760.69189,0.20162
1762.62035,0.19905
1764.54882,0.19469
1766.47729,0.19373
1768.40576,0.19894
1770.33423,0.20924
1772.26270,0.21733
1774.19117,0.21283
1776.11964,0.20307
1778.04810,0.19758
1779.97657,0.19755
1781.90504,0.19742
1783.83351,0.19452
1785.76198,0.19290
1787.69045,0.19587
1789.61892,0.20292
1791.54738,0.20815
1793.47585,0.20396
1795.40432,0.19761
1797.33279,0.19748
1799.26126,0.20212
1801.18973,0.20295
1803.11820,0.19808
1805.04666,0.19570
1806.97513,0.19590
1808.90360,0.19462
1810.83207,0.19298
1812.76054,0.19245
1814.68901,0.19245
1816.61748,0.19623
1818.54595,0.20561
1820.47441,0.21167
1822.40288,0.20878
1824.33135,0.20282
1826.25982,0.20154
1828.18829,0.20612
1830.11676,0.20785
1832.04523,0.20234
1833.97369,0.19925
1835.90216,0.20185
1837.83063,0.20306
1839.75910,0.19923
1841.68757,0.19779
1843.61604,0.20133
1845.54451,0.19991
1847.47298,0.19376
1849.40144,0.18972
1851.32991,0.18673
1853.25838,0.18570
1855.18685,0.18819
1857.11532,0.19112
1859.04379,0.19282
1860.97226,0.19345
1862.90072,0.19367
1864.82919,0.19482
1866.75766,0.19770
1868.68613,0.19935
1870.61460,0.19556
1872.54307,0.19171
1874.47154,0.19115
1876.40001,0.19034
1878.32847,0.18899
1880.25694,0.19030
1882.18541,0.19186
1884.11388,0.19085
1886.04235,0.19150
1887.97082,0.19566
1889.89929,0.19745
1891.82775,0.19445
1893.75622,0.19095
1895.68469,0.18823
1897.61316,0.18666
1899.54163,0.18744
1901.47010,0.18917
1903.39857,0.18963
1905.32704,0.18951
1907.25550,0.18964
1909.18397,0.18827
1911.11244,0.18738
1913.04091,0.18972
1914.96938,0.19257
1916.89785,0.19435
1918.82632,0.19540
1920.75478,0.19478
1922.68325,0.19200
1924.61172,0.18898
1926.54019,0.18919
1928.46866,0.19020
1930.39713,0.18817
1932.32560,0.18591
1934.25407,0.18588
1936.18253,0.18693
1938.11100,0.18895
1940.03947,0.19239
1941.96794,0.19554
1943.89641,0.19522
1945.82488,0.19208
1947.75335,0.19011
1949.68181,0.19080
1951.61028,0.19061
1953.53875,0.18808
1955.46722,0.18718
1957.39569,0.18890
1959.32416,0.19022
1961.25263,0.19027
1963.18110,0.19125
1965.10956,0.19332
1967.03803,0.19253
1968.96650,0.18954
1970.89497,0.19012
1972.82344,0.19387
1974.75191,0.19575
1976.68038,0.19294
1978.60884,0.18964
1980.53731,0.19164
1982.46578,0.19383
1984.39425,0.19244
1986.32272,0.19330
1988.25119,0.19688
1990.17966,0.19922
1992.10812,0.19999
1994.03659,0.19915
1995.96506,0.19517
1997.89353,0.18923
1999.82200,0.18630
2001.75047,0.18794
2003.67894,0.19062
2005.60741,0.19244
2007.53587,0.19424
2009.46434,0.19598
2011.39281,0.19594
2013.32128,0.19364
2015.24975,0.19201
2017.17822,0.19214
2019.10669,0.19078
2021.03515,0.18821
2022.96362,0.18800
2024.89209,0.18941
2026.82056,0.18946
2028.74903,0.18770
2030.67750,0.18606
2032.60597,0.18783
2034.53444,0.19169
2036.46290,0.19244
2038.39137,0.18985
2040.31984,0.18764
2042.24831,0.18777
2044.17678,0.18940
2046.10525,0.19024
2048.03372,0.18939
2049.96218,0.18821
2051.89065,0.18847
2053.81912,0.19105
2055.74759,0.19237
2057.67606,0.18925
2059.60453,0.18661
2061.53300,0.18729
2063.46147,0.18736
2065.38993,0.18569
2067.31840,0.18538
2069.24687,0.18756
2071.17534,0.18964
2073.10381,0.19005
2075.03228,0.19086
2076.96075,0.19329
2078.88921,0.19425
2080.81768,0.19232
2082.74615,0.19016
2084.67462,0.18819
2086.60309,0.18658
2088.53156,0.18755
2090.46003,0.19022
2092.38850,0.19192
2094.31696,0.19175
2096.24543,0.19076
2098.17390,0.19119
2100.10237,0.19330
2102.03084,0.19548
2103.95931,0.19629
2105.88778,0.19505
2107.81624,0.19333
2109.74471,0.19325
2111.67318,0.19445
2113.60165,0.19468
2115.53012,0.19312
2117.45859,0.19146
2119.38706,0.19066
2121.31553,0.19014
2123.24399,0.19006
2125.17246,0.18963
2127.10093,0.18765
2129.02940,0.18747
2130.95787,0.19008
2132.88634,0.19084
2134.81481,0.18982
2136.74327,0.19076
2138.67174,0.19370
2140.60021,0.19516
2142.52868,0.19335
2144.45715,0.19117
2146.38562,0.18974
2148.31409,0.18772
2150.24255,0.18642
2152.17102,0.18673
2154.09949,0.18831
2156.02796,0.19063
2157.95643,0.19148
2159.88490,0.18973
2161.81337,0.18760
2163.74184,0.18881
2165.67030,0.19282
2167.59877,0.19487
2169.52724,0.19420
2171.45571,0.19369
2173.38418,0.19423
2175.31265,0.19443
2177.24112,0.19314
2179.16958,0.19184
2181.09805,0.19156
2183.02652,0.19175
2184.95499,0.19192
2186.88346,0.19058
2188.81193,0.18827
2190.74040,0.18841
2192.66887,0.19284
2194.59733,0.19781
2196.52580,0.19713
2198.45427,0.19359
2200.38274,0.19390
2202.31121,0.19585
2204.23968,0.19563
2206.16815,0.19468
2208.09661,0.19406
2210.02508,0.19267
2211.95355,0.19090
2213.88202,0.19083
2215.81049,0.19149
2217.73896,0.19060
2219.66743,0.19101
2221.59590,0.19357
2223.52436,0.19409
2225.45283,0.19368
2227.38130,0.19434
2229.30977,0.19289
2231.23824,0.18995
2233.16671,0.18900
2235.09518,0.19045
2237.02364,0.19344
2238.95211,0.19495
2240.88058,0.19325
2242.80905,0.19104
2244.73752,0.19048
2246.66599,0.19139
2248.59446,0.19217
2250.52293,0.19126
2252.45139,0.19058
2254.37986,0.19253
2256.30833,0.19378
2258.23680,0.19213
2260.16527,0.19128
2262.09374,0.19148
2264.02221,0.18985
2265.95067,0.18875
2267.87914,0.19034
2269.80761,0.19080
2271.73608,0.18926
2273.66455,0.18914
2275.59302,0.18887
2277.52149,0.18667
2279.44996,0.18548
2281.37842,0.18635
2283.30689,0.18828
2285.23536,0.18917
2287.16383,0.18788
2289.09230,0.18679
2291.02077,0.18611
2292.94924,0.18473
2294.87770,0.18510
2296.80617,0.18909
2298.73464,0.19304
2300.66311,0.19177
2302.59158,0.18812
2304.52005,0.18741
2306.44852,0.18933
2308.37699,0.19288
2310.30545,0.19464
2312.23392,0.19153
2314.16239,0.18890
2316.09086,0.19116
2318.01933,0.19520
2319.94780,0.19801
2321.87627,0.20025
2323.80473,0.20155
2325.73320,0.20176
2327.66167,0.20216
2329.59014,0.19936
2331.51861,0.19203
2333.44708,0.18474
2335.37555,0.18361
2337.30401,0.18912
2339.23248,0.19228
2341.16095,0.19906
2343.08942,0.21489
2345.01789,0.21685
2346.94636,0.20620
2348.87483,0.19993
2350.80330,0.19596
2352.73176,0.19535
2354.66023,0.21015
2356.58870,0.22982
2358.51717,0.22221
2360.44564,0.20064
2362.37411,0.20707
2364.30258,0.22532
2366.23104,0.22196
2368.15951,0.20972
2370.08798,0.20425
2372.01645,0.20318
2373.94492,0.20154
2375.87339,0.19895
2377.80186,0.19827
2379.73033,0.19865
2381.65879,0.19665
2383.58726,0.19282
2385.51573,0.19038
2387.44420,0.18900
2389.37267,0.18715
2391.30114,0.18688
2393.22961,0.18828
2395.15807,0.18831
2397.08654,0.18820
2399.01501,0.19003
2400.94348,0.19149
2402.87195,0.19192
2404.80042,0.19189
2406.72889,0.19049
2408.65736,0.18944
2410.58582,0.19123
2412.51429,0.19464
2414.44276,0.19701
2416.37123,0.19779
2418.29970,0.19647
2420.22817,0.19219
2422.15664,0.18870
2424.08510,0.18875
2426.01357,0.18863
2427.94204,0.18773
2429.87051,0.18951
2431.79898,0.19224
2433.72745,0.19118
2435.65592,0.18750
2437.58439,0.18716
2439.51285,0.19157
2441.44132,0.19642
2443.36979,0.19761
2445.29826,0.19570
2447.22673,0.19443
2449.15520,0.19505
2451.08367,0.19824
2453.01213,0.20403
2454.94060,0.20624
2456.86907,0.20051
2458.79754,0.19347
2460.72601,0.19193
2462.65448,0.19374
2464.58295,0.19458
2466.51142,0.19336
2468.43988,0.19196
2470.36835,0.19145
2472.29682,0.19118
2474.22529,0.19237
2476.15376,0.19516
2478.08223,0.19680
2480.01070,0.19659
2481.93916,0.19580
2483.86763,0.19500
2485.79610,0.19532
2487.72457,0.19620
2489.65304,0.19579
2491.58151,0.19498
2493.50998,0.19477
2495.43844,0.19615
2497.36691,0.19800
2499.29538,0.19685
2501.22385,0.19281
2503.15232,0.18837
2505.08079,0.18711
2507.00926,0.18916
2508.93773,0.19056
2510.86619,0.19162
2512.79466,0.19394
2514.72313,0.19550
2516.65160,0.19465
2518.58007,0.19420
2520.50854,0.19569
2522.43701,0.19598
2524.36547,0.19479
2526.29394,0.19443
2528.22241,0.19504
2530.15088,0.19494
2532.07935,0.19366
2534.00782,0.19219
2535.93629,0.19058
2537.86476,0.18986
2539.79322,0.19042
2541.72169,0.19035
2543.65016,0.18996
2545.57863,0.19129
2547.50710,0.19313
2549.43557,0.19277
2551.36404,0.19111
2553.29250,0.19174
2555.22097,0.19436
2557.14944,0.19418
2559.07791,0.19119
2561.00638,0.19058
2562.93485,0.19411
2564.86332,0.19768
2566.79179,0.19719
2568.72025,0.19407
2570.64872,0.19158
2572.57719,0.19230
2574.50566,0.19616
2576.43413,0.19766
2578.36260,0.19411
2580.29107,0.19138
2582.21953,0.19418
2584.14800,0.19849
2586.07647,0.19975
2588.00494,0.19879
2589.93341,0.19743
2591.86188,0.19715
2593.79035,0.19817
2595.71882,0.19835
2597.64728,0.19649
2599.57575,0.19388
2601.50422,0.19224
2603.43269,0.19316
2605.36116,0.19765
2607.28963,0.20295
2609.21810,0.20568
2611.14656,0.20498
2613.07503,0.20022
2615.00350,0.19390
2616.93197,0.19083
2618.86044,0.19274
2620.78891,0.19598
2622.71738,0.19574
2624.64585,0.19364
2626.57431,0.19432
2628.50278,0.19672
2630.43125,0.19716
2632.35972,0.19690
2634.28819,0.19691
2636.21666,0.19452
2638.14513,0.19126
2640.07359,0.19115
2642.00206,0.19388
2643.93053,0.19678
2645.85900,0.19746
2647.78747,0.19607
2649.71594,0.19676
2651.64441,0.19928
2653.57288,0.19894
2655.50134,0.19893
2657.42981,0.20232
2659.35828,0.20324
2661.28675,0.20074
2663.21522,0.19951
2665.14369,0.19827
2667.07216,0.19647
2669.00062,0.19752
2670.92909,0.20063
2672.85756,0.20261
2674.78603,0.20299
2676.71450,0.20293
2678.64297,0.20326
2680.57144,0.20507
2682.49990,0.20717
2684.42837,0.20573
2686.35684,0.20268
2688.28531,0.20188
2690.21378,0.20189
2692.14225,0.20070
2694.07072,0.19956
2695.99919,0.20129
2697.92765,0.20375
2699.85612,0.20253
2701.78459,0.20065
2703.71306,0.20171
2705.64153,0.20291
2707.57000,0.20268
2709.49847,0.20188
2711.42693,0.19975
2713.35540,0.19824
2715.28387,0.19867
2717.21234,0.19854
2719.14081,0.19871
2721.06928,0.19981
2722.99775,0.19874
2724.92622,0.19678
2726.85468,0.19896
2728.78315,0.20443
2730.71162,0.20708
2732.64009,0.20566
2734.56856,0.20372
2736.49703,0.20341
2738.42550,0.20431
2740.35396,0.20481
2742.28243,0.20313
2744.21090,0.20035
2746.13937,0.19972
2748.06784,0.20118
2749.99631,0.20183
2751.92478,0.20089
2753.85325,0.20082
2755.78171,0.20314
2757.71018,0.20717
2759.63865,0.21111
2761.56712,0.21184
2763.49559,0.20961
2765.42406,0.20761
2767.35253,0.20698
2769.28099,0.20799
2771.20946,0.20934
2773.13793,0.20753
2775.06640,0.20381
2776.99487,0.20335
2778.92334,0.20536
2780.85181,0.20690
2782.78028,0.20859
2784.70874,0.20917
2786.63721,0.20722
2788.56568,0.20519
2790.49415,0.20338
2792.42262,0.20065
2794.35109,0.19942
2796.27956,0.20048
2798.20802,0.20297
2800.13649,0.20601
2802.06496,0.20792
2803.99343,0.20915
2805.92190,0.20985
2807.85037,0.21094
2809.77884,0.21266
2811.70731,0.21180
2813.63577,0.20989
2815.56424,0.20960
2817.49271,0.20858
2819.42118,0.20657
2821.34965,0.20515
2823.27812,0.20457
2825.20659,0.20523
2827.13505,0.20662
2829.06352,0.20779
2830.99199,0.20757
2832.92046,0.20563
2834.84893,0.20514
2836.77740,0.20735
2838.70587,0.20870
2840.63433,0.20831
2842.56280,0.20743
2844.49127,0.20543
2846.41974,0.20272
2848.34821,0.20071
2850.27668,0.20108
2852.20515,0.20390
2854.13362,0.20620
2856.06208,0.20705
2857.99055,0.20809
2859.91902,0.21135
2861.84749,0.21607
2863.77596,0.21774
2865.70443,0.21591
2867.63290,0.21341
2869.56136,0.21182
2871.48983,0.21136
2873.41830,0.20960
2875.34677,0.20689
2877.27524,0.20631
2879.20371,0.20671
2881.13218,0.20608
2883.06065,0.20522
2884.98911,0.20482
2886.91758,0.20586
2888.84605,0.20807
2890.77452,0.20798
2892.70299,0.20591
2894.63146,0.20535
2896.55993,0.20673
2898.48839,0.20815
2900.41686,0.20659
2902.34533,0.20103
2904.27380,0.19526
2906.20227,0.19394
2908.13074,0.19652
2910.05921,0.19998
2911.98768,0.20246
2913.91614,0.20159
2915.84461,0.19870
2917.77308,0.19792
2919.70155,0.19915
2921.63002,0.20030
2923.55849,0.19954
2925.48696,0.19516
2927.41542,0.19139
2929.34389,0.19417
2931.27236,0.19998
2933.20083,0.20224
2935.12930,0.19946
2937.05777,0.19555
2938.98624,0.19624
2940.91471,0.19889
2942.84317,0.19865
2944.77164,0.19477
2946.70011,0.18806
2948.62858,0.18820
2950.55705,0.19840
2952.48552,0.20485
2954.41399,0.20104
2956.34245,0.19222
2958.27092,0.18815
2960.19939,0.19662
2962.12786,0.20957
2964.05633,0.21497
2965.98480,0.21039
2967.91327,0.20239
2969.84174,0.20297
2971.77020,0.20960
2973.69867,0.21377
2975.62714,0.21431
2977.55561,0.20773
2979.48408,0.20143
2981.41255,0.20496
2983.34102,0.21069
2985.26948,0.20908
2987.19795,0.20218
2989.12642,0.20155
2991.05489,0.20896
2992.98336,0.21271
2994.91183,0.20902
2996.84030,0.20363
2998.76877,0.20364
3000.69723,0.20943
3002.62570,0.21154
3004.55417,0.20707
3006.48264,0.20263
3008.41111,0.20086
3010.33958,0.19611
3012.26805,0.17867
3014.19651,0.14567
3016.12498,0.11854
3018.05345,0.12987
3019.98192,0.17041
3021.91039,0.20050
3023.83886,0.21003
3025.76733,0.21009
3027.69579,0.20926
3029.62426,0.21289
3031.55273,0.21694
3033.48120,0.21697
3035.40967,0.21656
3037.33814,0.21564
3039.26661,0.21154
3041.19508,0.20744
3043.12354,0.20560
3045.05201,0.20304
3046.98048,0.20068
3048.90895,0.20371
3050.83742,0.20972
3052.76589,0.21138
3054.69436,0.20450
3056.62282,0.19450
3058.55129,0.19555
3060.47976,0.20578
3062.40823,0.21238
3064.33670,0.21140
3066.26517,0.20266
3068.19364,0.19656
3070.12211,0.20146
3072.05057,0.20659
3073.97904,0.20190
3075.90751,0.19393
3077.83598,0.19575
3079.76445,0.20299
3081.69292,0.20258
3083.62139,0.19242
3085.54985,0.18391
3087.47832,0.19172
3089.40679,0.20878
3091.33526,0.21810
3093.26373,0.21293
3095.19220,0.20279
3097.12067,0.20282
3099.04914,0.20778
3100.97760,0.20555
3102.90607,0.19580
3104.83454,0.19127
3106.76301,0.19978
3108.69148,0.20928
3110.61995,0.20712
3112.54842,0.19718
3114.47688,0.19516
3116.40535,0.20548
3118.33382,0.21387
3120.26229,0.20921
3122.19076,0.20172
3124.11923,0.20684
3126.04770,0.21800
3127.97617,0.21972
3129.90463,0.21148
3131.83310,0.20742
3133.76157,0.21367
3135.69004,0.21877
3137.61851,0.21794
3139.54698,0.21748
3141.47545,0.21766
3143.40391,0.21700
3145.33238,0.21847
3147.26085,0.22222
3149.18932,0.22695
3151.11779,0.22979
3153.04626,0.22542
3154.97473,0.21476
3156.90320,0.20642
3158.83166,0.20757
3160.76013,0.21451
3162.68860,0.21801
3164.61707,0.21697
3166.54554,0.21546
3168.47401,0.21449
3170.40248,0.21444
3172.33094,0.21530
3174.25941,0.21665
3176.18788,0.22133
3178.11635,0.22935
3180.04482,0.23302
3181.97329,0.22853
3183.90176,0.21965
3185.83022,0.21159
3187.75869,0.20925
3189.68716,0.21192
3191.61563,0.21664
3193.54410,0.22179
3195.47257,0.22239
3197.40104,0.21671
3199.32951,0.21028
3201.25797,0.20762
3203.18644,0.21075
3205.11491,0.21768
3207.04338,0.22369
3208.97185,0.22719
3210.90032,0.22663
3212.82879,0.22394
3214.75725,0.22248
3216.68572,0.22026
3218.61419,0.21731
3220.54266,0.21386
3222.47113,0.20979
3224.39960,0.20862
3226.32807,0.21014
3228.25654,0.21110
3230.18500,0.21003
3232.11347,0.20801
3234.04194,0.20818
3235.97041,0.20819
3237.89888,0.20694
3239.82735,0.21060
3241.75582,0.21586
3243.68428,0.21392
3245.61275,0.20758
3247.54122,0.20603
3249.46969,0.21186
3251.39816,0.21942
3253.32663,0.22272
3255.25510,0.22265
3257.18357,0.22276
3259.11203,0.22260
3261.04050,0.22128
3262.96897,0.21716
3264.89744,0.21190
3266.82591,0.21366
3268.75438,0.21970
3270.68285,0.21865
3272.61131,0.21134
3274.53978,0.20501
3276.46825,0.20340
3278.39672,0.20847
3280.32519,0.21394
3282.25366,0.21412
3284.18213,0.21289
3286.11060,0.21303
3288.03906,0.21359
3289.96753,0.21287
3291.89600,0.21172
3293.82447,0.21187
3295.75294,0.21341
3297.68141,0.21554
3299.60988,0.21395
3301.53834,0.20932
3303.46681,0.20828
3305.39528,0.20849
3307.32375,0.20755
3309.25222,0.21279
3311.18069,0.22018
3313.10916,0.21829
3315.03763,0.21028
3316.96609,0.20625
3318.89456,0.20946
3320.82303,0.21375
3322.75150,0.21435
3324.67997,0.21323
3326.60844,0.21318
3328.53691,0.21569
3330.46537,0.21920
3332.39384,0.22181
3334.32231,0.22239
3336.25078,0.21834
3338.17925,0.21285
3340.10772,0.21268
3342.03619,0.21474
3343.96466,0.21647
3345.89312,0.22092
3347.82159,0.22233
3349.75006,0.21831
3351.67853,0.21810
3353.60700,0.22197
3355.53547,0.22301
3357.46394,0.22252
3359.39240,0.22111
3361.32087,0.21434
3363.24934,0.20699
3365.17781,0.20831
3367.10628,0.21344
3369.03475,0.21560
3370.96322,0.21800
3372.89168,0.22131
3374.82015,0.22341
3376.74862,0.22275
3378.67709,0.21928
3380.60556,0.21582
3382.53403,0.21059
3384.46250,0.20159
3386.39097,0.19593
3388.31943,0.19901
3390.24790,0.20631
3392.17637,0.21095
3394.10484,0.21003
3396.03331,0.20892
3397.96178,0.21241
3399.89025,0.21303
3401.81871,0.20772
3403.74718,0.20679
3405.67565,0.20998
3407.60412,0.20729
3409.53259,0.20145
3411.46106,0.19933
3413.38953,0.20030
3415.31800,0.20213
3417.24646,0.20466
3419.17493,0.20811
3421.10340,0.21055
3423.03187,0.21178
3424.96034,0.21144
3426.88881,0.20733
3428.81728,0.20195
3430.74574,0.19962
3432.67421,0.20095
3434.60268,0.20400
3436.53115,0.20744
3438.45962,0.21064
3440.38809,0.21195
3442.31656,0.21307
3444.24503,0.21733
3446.17349,0.22018
3448.10196,0.21583
3450.03043,0.20711
3451.95890,0.19994
3453.88737,0.19604
3455.81584,0.19380
3457.74431,0.19570
3459.67277,0.20240
3461.60124,0.20556
3463.52971,0.20257
3465.45818,0.20161
3467.38665,0.20588
3469.31512,0.20988
3471.24359,0.20826
3473.17206,0.20000
3475.10052,0.19118
3477.02899,0.19051
3478.95746,0.19642
3480.88593,0.20033
3482.81440,0.19880
3484.74287,0.19514
3486.67134,0.19402
3488.59980,0.19231
3490.52827,0.18585
3492.45674,0.18163
3494.38521,0.18189
3496.31368,0.18242
3498.24215,0.18337
3500.17062,0.18388
3502.09909,0.18542
3504.02755,0.18844
3505.95602,0.18805
3507.88449,0.18657
3509.81296,0.18698
3511.74143,0.18518
3513.66990,0.18148
3515.59837,0.18025
3517.52683,0.18037
3519.45530,0.18000
3521.38377,0.18167
3523.31224,0.18595
3525.24071,0.18999
3527.16918,0.19102
3529.09765,0.18592
3531.02611,0.17531
3532.95458,0.16516
3534.88305,0.16318
3536.81152,0.16895
3538.73999,0.17223
3540.66846,0.17165
3542.59693,0.17122
3544.52540,0.17246
3546.45386,0.17483
3548.38233,0.17399
3550.31080,0.17259
3552.23927,0.17196
3554.16774,0.16819
3556.09621,0.16515
3558.02468,0.16626
3559.95314,0.16847
3561.88161,0.17040
3563.81008,0.17540
3565.73855,0.18690
3567.66702,0.19637
3569.59549,0.19000
3571.52396,0.17666
3573.45243,0.16666
3575.38089,0.16314
3577.30936,0.16332
3579.23783,0.16249
3581.16630,0.16095
3583.09477,0.16167
3585.02324,0.16723
3586.95171,0.17243
3588.88017,0.16417
3590.80864,0.15371
3592.73711,0.15460
3594.66558,0.16172
3596.59405,0.16535
3598.52252,0.16541
3600.45099,0.16179
3602.37946,0.15506
3604.30792,0.15331
3606.23639,0.15903
3608.16486,0.16463
3610.09333,0.16650
3612.02180,0.16921
3613.95027,0.16894
3615.87874,0.16572
3617.80720,0.16594
3619.73567,0.16481
3621.66414,0.15837
3623.59261,0.15457
3625.52108,0.15764
3627.44955,0.16595
3629.37802,0.16885
3631.30649,0.16109
3633.23495,0.15106
3635.16342,0.13996
3637.09189,0.13315
3639.02036,0.13432
3640.94883,0.13938
3642.87730,0.14360
3644.80577,0.14872
3646.73423,0.16177
3648.66270,0.17843
3650.59117,0.16836
3652.51964,0.14879
3654.44811,0.14115
3656.37658,0.13773
3658.30505,0.13358
3660.23352,0.13218
3662.16198,0.13261
3664.09045,0.13493
3666.01892,0.14220
3667.94739,0.15409
3669.87586,0.16094
3671.80433,0.15636
3673.73280,0.15547
3675.66126,0.15312
3677.58973,0.14151
3679.51820,0.13621
3681.44667,0.13553
3683.37514,0.13514
3685.30361,0.13507
3687.23208,0.13691
3689.16055,0.14209
3691.08901,0.13853
3693.01748,0.12788
3694.94595,0.12519
3696.87442,0.12976
3698.80289,0.13418
3700.73136,0.13760
3702.65983,0.13964
3704.58829,0.13943
3706.51676,0.13865
3708.44523,0.13719
3710.37370,0.13928
3712.30217,0.14354
3714.23064,0.14124
3716.15911,0.13839
3718.08757,0.13889
3720.01604,0.14117
3721.94451,0.14245
3723.87298,0.14144
3725.80145,0.13709
3727.72992,0.13171
3729.65839,0.13233
3731.58686,0.14069
3733.51532,0.15024
3735.44379,0.15381
3737.37226,0.15042
3739.30073,0.14269
3741.22920,0.13960
3743.15767,0.14903
3745.08614,0.16227
3747.01460,0.15720
3748.94307,0.14918
3750.87154,0.15278
3752.80001,0.15111
3754.72848,0.14252
3756.65695,0.13873
3758.58542,0.14010
3760.51389,0.13964
3762.44235,0.13453
3764.37082,0.12893
3766.29929,0.12549
3768.22776,0.12766
3770.15623,0.13336
3772.08470,0.13712
3774.01317,0.13723
3775.94163,0.13398
3777.87010,0.13069
3779.79857,0.12829
3781.72704,0.12799
3783.65551,0.12879
3785.58398,0.12383
3787.51245,0.11706
3789.44092,0.11885
3791.36938,0.12656
3793.29785,0.13179
3795.22632,0.13671
3797.15479,0.14411
3799.08326,0.14923
3801.01173,0.15109
3802.94020,0.14738
3804.86866,0.14582
3806.79713,0.14639
3808.72560,0.13603
3810.65407,0.12459
3812.58254,0.12452
3814.51101,0.13330
3816.43948,0.14136
3818.36795,0.14534
3820.29641,0.14927
3822.22488,0.14261
3824.15335,0.12966
3826.08182,0.12406
3828.01029,0.12597
3829.93876,0.12973
3831.86723,0.13525
3833.79569,0.14308
3835.72416,0.14732
3837.65263,0.14805
3839.58110,0.14523
3841.50957,0.13762
3843.43804,0.13028
3845.36651,0.12675
3847.29498,0.12811
3849.22344,0.13159
3851.15191,0.13421
3853.08038,0.13594
3855.00885,0.13102
3856.93732,0.12304
3858.86579,0.12148
3860.79426,0.12811
3862.72272,0.13867
3864.65119,0.13993
3866.57966,0.13040
3868.50813,0.12813
3870.43660,0.13368
3872.36507,0.13422
3874.29354,0.13182
3876.22200,0.12938
3878.15047,0.12928
3880.07894,0.13408
3882.00741,0.13731
3883.93588,0.13383
3885.86435,0.12976
3887.79282,0.13043
3889.72129,0.13291
3891.64975,0.12792
3893.57822,0.11398
3895.50669,0.10877
3897.43516,0.11650
3899.36363,0.12607
3901.29210,0.12775
3903.22057,0.12867
3905.14903,0.12950
3907.07750,0.12003
3909.00597,0.10795
3910.93444,0.10516
3912.86291,0.10999
3914.79138,0.11516
3916.71985,0.12044
3918.64832,0.12542
3920.57678,0.12587
3922.50525,0.12109
3924.43372,0.11472
3926.36219,0.11285
3928.29066,0.11495
3930.21913,0.11721
3932.14760,0.12180
3934.07606,0.12509
3936.00453,0.12057
3937.93300,0.11460
3939.86147,0.11548
3941.78994,0.12024
3943.71841,0.11912
3945.64688,0.11417
3947.57535,0.11016
3949.50381,0.10460
3951.43228,0.10134
3953.36075,0.10316
3955.28922,0.10874
3957.21769,0.11477
3959.14616,0.11492
3961.07463,0.11200
3963.00309,0.11296
3964.93156,0.11596
3966.86003,0.11743
3968.78850,0.11816
3970.71697,0.11437
3972.64544,0.10548
3974.57391,0.10199
3976.50238,0.10450
3978.43084,0.10378
3980.35931,0.10037
3982.28778,0.09939
3984.21625,0.09995
3986.14472,0.10009
3988.07319,0.10112
3990.00166,0.10459
3991.93012,0.10989
3993.85859,0.11396
3995.78706,0.11497
3997.71553,0.11196
3999.64400,0.10624
4001.57247,0.10272
4003.50094,0.10035
4005.42941,0.09674
4007.35787,0.09346
4009.28634,0.09002
4011.21481,0.08925
4013.14328,0.09281
4015.07175,0.09807
4017.00022,0.10456
4018.92869,0.10697
4020.85715,0.10125
4022.78562,0.09601
4024.71409,0.09791
4026.64256,0.10263
4028.57103,0.10568
4030.49950,0.10573
4032.42797,0.10299
4034.35644,0.10082
4036.28490,0.09985
4038.21337,0.09984
4040.14184,0.10318
4042.07031,0.10636
4043.99878,0.10344
4045.92725,0.09815
4047.85572,0.09611
4049.78418,0.09331
4051.71265,0.08840
4053.64112,0.08774
4055.56959,0.09204
4057.49806,0.09770
4059.42653,0.10347
4061.35500,0.10535
4063.28346,0.10227
4065.21193,0.09824
4067.14040,0.09388
4069.06887,0.09238
4070.99734,0.09480
4072.92581,0.09400
4074.85428,0.09168
4076.78275,0.09401
4078.71121,0.09567
4080.63968,0.09356
4082.56815,0.09352
4084.49662,0.09578
4086.42509,0.09417
4088.35356,0.08788
4090.28203,0.08271
4092.21049,0.08233
4094.13896,0.08532
4096.06743,0.08913
4097.99590,0.09188
4099.92437,0.09046
4101.85284,0.08658
4103.78131,0.08816
4105.70978,0.09400
4107.63824,0.09601
4109.56671,0.09391
4111.49518,0.09210
4113.42365,0.09371
4115.35212,0.09919
4117.28059,0.10405
4119.20906,0.10390
4121.13752,0.09961
4123.06599,0.09342
4124.99446,0.08848
4126.92293,0.08508
4128.85140,0.08249
4130.77987,0.08648
4132.70834,0.09571
4134.63681,0.09811
4136.56527,0.09088
4138.49374,0.08358
4140.42221,0.08105
4142.35068,0.08159
4144.27915,0.08630
4146.20762,0.09332
4148.13609,0.09369
4150.06455,0.08787
4151.99302,0.08385
4153.92149,0.08059
4155.84996,0.07939
4157.77843,0.08242
4159.70690,0.08161
4161.63537,0.07764
4163.56384,0.07873
4165.49230,0.08421
4167.42077,0.08762
4169.34924,0.08583
4171.27771,0.08225
4173.20618,0.08049
4175.13465,0.08134
4177.06312,0.08411
4178.99158,0.08329
4180.92005,0.07697
4182.84852,0.07325
4184.77699,0.07428
4186.70546,0.07509
4188.63393,0.07422
4190.56240,0.07288
4192.49087,0.07633
4194.41933,0.08408
4196.34780,0.08673
4198.27627,0.08212
4200.20474,0.07806
4202.13321,0.07747
4204.06168,0.07419
4205.99015,0.06673
4207.91861,0.06098
4209.84708,0.06390
4211.77555,0.07543
4213.70402,0.08238
4215.63249,0.07674
4217.56096,0.06937
4219.48943,0.07056
4221.41789,0.07521
4223.34636,0.07542
4225.27483,0.07119
4227.20330,0.06571
4229.13177,0.06327
4231.06024,0.06748
4232.98871,0.07493
4234.91718,0.07790
4236.84564,0.07396
4238.77411,0.06829
4240.70258,0.06617
4242.63105,0.06665
4244.55952,0.06572
4246.48799,0.06275
4248.41646,0.06038
4250.34492,0.06009
4252.27339,0.06208
4254.20186,0.06650
4256.13033,0.06999
4258.05880,0.06924
4259.98727,0.06801
4261.91574,0.06995
4263.84421,0.07136
4265.77267,0.07011
4267.70114,0.07008
4269.62961,0.07157
4271.55808,0.06853
4273.48655,0.06055
4275.41502,0.05543
4277.34349,0.05632
4279.27195,0.06113
4281.20042,0.06805
4283.12889,0.07307
4285.05736,0.07301
4286.98583,0.06844
4288.91430,0.06389
4290.84277,0.06319
4292.77124,0.06103
4294.69970,0.05427
4296.62817,0.05241
4298.55664,0.05721
4300.48511,0.05844
4302.41358,0.05596
4304.34205,0.05669
4306.27052,0.05995
4308.19898,0.06054
4310.12745,0.05775
4312.05592,0.05237
4313.98439,0.04476
4315.91286,0.04115
4317.84133,0.04537
4319.76980,0.05290
4321.69827,0.05925
4323.62673,0.06014
4325.55520,0.05453
4327.48367,0.05017
4329.41214,0.04978
4331.34061,0.04750
4333.26908,0.04369
4335.19755,0.04326
4337.12601,0.04487
4339.05448,0.04573
4340.98295,0.04902
4342.91142,0.05590
4344.83989,0.06099
4346.76836,0.05694
4348.69683,0.04613
4350.62530,0.04054
4352.55376,0.04201
4354.48223,0.04655
4356.41070,0.05385
4358.33917,0.06010
4360.26764,0.05939
4362.19611,0.05184
4364.12458,0.04718
4366.05304,0.05204
4367.98151,0.05889
4369.90998,0.06023
4371.83845,0.05687
4373.76692,0.05016
4375.69539,0.04283
4377.62386,0.04042
4379.55232,0.04631
4381.48079,0.05422
4383.40926,0.05531
4385.33773,0.05318
4387.26620,0.05086
4389.19467,0.04761
4391.12314,0.04839
4393.05161,0.05020
4394.98007,0.04382
4396.90854,0.03494
4398.83701,0.03377
4400.76548,0.03557
4402.69395,0.03662
4404.62242,0.04121
4406.55089,0.04841
4408.47935,0.05193
4410.40782,0.04874
4412.33629,0.04625
4414.26476,0.05123
4416.19323,0.05299
4418.12170,0.04165
4420.05017,0.03141
4421.97864,0.03518
4423.90710,0.04416
4425.83557,0.04724
4427.76404,0.04340
4429.69251,0.03829
4431.62098,0.03459
4433.54945,0.03117
4435.47792,0.02829
4437.40638,0.02631
4439.33485,0.02999
4441.26332,0.04094
4443.19179,0.04638
4445.12026,0.04111
4447.04873,0.03681
4448.97720,0.03319
4450.90567,0.02426
4452.83413,0.02027
4454.76260,0.02462
4456.69107,0.02859
4458.61954,0.02937
4460.54801,0.02801
4462.47648,0.02820
4464.40495,0.03089
4466.33341,0.03307
4468.26188,0.03378
4470.19035,0.03187
4472.11882,0.02920
4474.04729,0.02752
4475.97576,0.02342
4477.90423,0.01993
4479.83270,0.02357
4481.76116,0.02787
4483.68963,0.02656
4485.61810,0.02529
4487.54657,0.02657
4489.47504,0.02756
4491.40351,0.02699
4493.33198,0.02400
4495.26044,0.01789
4497.18891,0.00953
4499.11738,0.00311
4501.04585,0.00524
4502.97432,0.01319
4504.90279,0.01879
4506.83126,0.02457
4508.75973,0.02994
4510.68819,0.03023
4512.61666,0.02904
4514.54513,0.02758
4516.47360,0.02629
4518.40207,0.02686
4520.33054,0.02503
4522.25901,0.02143
4524.18747,0.02230
4526.11594,0.02126
4528.04441,0.01492
4529.97288,0.01658
4531.90135,0.02523
4533.82982,0.02664
4535.75829,0.02356
4537.68676,0.02277
4539.61522,0.01948
4541.54369,0.01282
4543.47216,0.00964
4545.40063,0.01077
4547.32910,0.01155
4549.25757,0.01742
4551.18604,0.03051
4553.11450,0.03216
4555.04297,0.02034
4556.97144,0.01885
4558.89991,0.02620
4560.82838,0.02615
4562.75685,0.02183
4564.68532,0.01437
4566.61378,0.00654
4568.54225,0.00634
4570.47072,0.01212
4572.39919,0.02392
4574.32766,0.03451
4576.25613,0.03093
4578.18460,0.01544
4580.11307,0.00037
4582.04153,-0.00445
4583.97000,0.00022
4585.89847,0.00652
4587.82694,0.00701
4589.75541,0.00185
4591.68388,0.00064
4593.61235,0.00447
4595.54081,0.00321
4597.46928,0.00246
4599.39775,0.01018
4601.32622,0.01418
4603.25469,0.00759
4605.18316,-0.00174
4607.11163,-0.00456
4609.04010,-0.00128
4610.96856,0.00223
4612.89703,0.00545
4614.82550,0.00346
4616.75397,-0.00502
4618.68244,-0.00941
4620.61091,-0.01000
4622.53938,-0.01060
4624.46784,-0.00510
4626.39631,0.00530
4628.32478,0.01351
4630.25325,0.01711
4632.18172,0.01739
4634.11019,0.01787
4636.03866,0.01692
4637.96713,0.01407
4639.89559,0.01228
4641.82406,0.00780
4643.75253,0.00079
4645.68100,-0.00609
4647.60947,-0.01409
4649.53794,-0.01296
4651.46641,-0.00038
4653.39487,0.00632
4655.32334,0.00635
4657.25181,0.00990
4659.18028,0.01411
4661.10875,0.01541
4663.03722,0.01432
4664.96569,0.01571
4666.89416,0.02222
4668.82262,0.02388
4670.75109,0.02087
4672.67956,0.01826
4674.60803,0.00559
4676.53650,-0.00844
4678.46497,-0.00156
4680.39344,0.01152
4682.32190,0.01090
4684.25037,0.00903
4686.17884,0.01218
4688.10731,0.01339
4690.03578,0.01553
4691.96425,0.02125
4693.89272,0.02694
4695.82119,0.02746
4697.74965,0.02196
4699.67812,0.01945
4701.60659,0.02406
4703.53506,0.02495
4705.46353,0.01714
4707.39200,0.00887
4709.32047,0.00615
4711.24893,0.00835
4713.17740,0.01067
4715.10587,0.00894
4717.03434,0.00885
4718.96281,0.01610
4720.89128,0.01740
4722.81975,0.00569
4724.74821,-0.00140
4726.67668,0.00367
4728.60515,0.00982
4730.53362,0.01128
4732.46209,0.00888
4734.39056,0.00284
4736.31903,-0.00597
4738.24750,-0.01777
4740.17596,-0.02815
4742.10443,-0.02839
4744.03290,-0.01858
4745.96137,-0.00829
4747.88984,-0.00377
4749.81831,-0.00429
4751.74678,-0.01358
4753.67524,-0.02999
4755.60371,-0.03616
4757.53218,-0.02363
4759.46065,-0.00304
4761.38912,0.00927
4763.31759,0.00756
4765.24606,0.00055
4767.17453,-0.00102
4769.10299,0.00555
4771.03146,0.01206
4772.95993,0.01115
4774.88840,0.00823
4776.81687,0.00998
4778.74534,0.01626
4780.67381,0.01567
4782.60227,0.00044
4784.53074,-0.00789
4786.45921,-0.00091
4788.38768,-0.00152
4790.31615,-0.00317
4792.24462,0.01104
4794.17309,0.01963
4796.10156,0.01335
4798.03002,0.00729
4799.95849,0.00437
4801.88696,0.00828
4803.81543,0.01685
4805.74390,0.01301
4807.67237,0.00309
4809.60084,0.00842
4811.52930,0.01870
4813.45777,0.01826
4815.38624,0.01041
4817.31471,0.00591
4819.24318,0.01331
4821.17165,0.02263
4823.10012,0.02051
4825.02859,0.01421
4826.95705,0.01353
4828.88552,0.01088
4830.81399,-0.00510
4832.74246,-0.02074
4834.67093,-0.02135
4836.59940,-0.01476
4838.52787,-0.00841
4840.45633,-0.00310
4842.38480,-0.00262
4844.31327,-0.01262
4846.24174,-0.02019
4848.17021,-0.01016
4850.09868,0.00279
4852.02715,0.00608
4853.95562,0.00407
4855.88408,-0.00263
4857.81255,-0.00549
4859.74102,0.00466
4861.66949,0.01161
4863.59796,0.00293
4865.52643,-0.00735
4867.45490,-0.00715
4869.38336,0.00205
4871.31183,0.01210
4873.24030,0.01598
4875.16877,0.01817
4877.09724,0.02063
4879.02571,0.01167
4880.95418,-0.00221
4882.88265,-0.00571
4884.81111,-0.00459
4886.73958,0.00062
4888.66805,0.01353
4890.59652,0.02544
4892.52499,0.02694
4894.45346,0.01664
4896.38193,0.00467
4898.31039,0.00067
4900.23886,0.00458
4902.16733,0.01039
4904.09580,0.01345
4906.02427,0.01193
4907.95274,0.00487
4909.88121,-0.00173
4911.80967,-0.00407
4913.73814,-0.00464
4915.66661,-0.00567
4917.59508,-0.00825
4919.52355,-0.00688
4921.45202,-0.00111
4923.38049,0.00151
4925.30896,-0.00078
4927.23742,0.00154
4929.16589,0.02209
4931.09436,0.04966
4933.02283,0.05563
4934.95130,0.04136
4936.87977,0.02833
4938.80824,0.02156
4940.73670,0.01578
4942.66517,0.01192
4944.59364,0.01451
4946.52211,0.02030
4948.45058,0.02291
4950.37905,0.02288
4952.30752,0.02163
4954.23599,0.01746
4956.16445,0.01006
4958.09292,0.00313
4960.02139,-0.00332
4961.94986,-0.00429
4963.87833,0.01021
4965.80680,0.02444
4967.73527,0.01495
4969.66373,-0.00656
4971.59220,-0.00861
4973.52067,0.00749
4975.44914,0.01395
4977.37761,0.00821
4979.30608,0.00141
4981.23455,-0.00321
4983.16302,-0.00663
4985.09148,-0.01054
4987.01995,-0.00889
4988.94842,0.00071
4990.87689,0.00888
4992.80536,0.01028
4994.73383,0.00998
4996.66230,0.00964
4998.59076,0.00582
5000.51923,-0.00136
5002.44770,-0.01059
5004.37617,-0.01687
5006.30464,-0.01278
5008.23311,-0.00086
5010.16158,0.01610
5012.09005,0.03090
5014.01851,0.02382
5015.94698,0.00810
5017.87545,0.01236
5019.80392,0.02030
5021.73239,0.01736
5023.66086,0.01930
5025.58933,0.02710
5027.51779,0.02609
5029.44626,0.01806
5031.37473,0.01992
5033.30320,0.02899
5035.23167,0.02782
5037.16014,0.01886
5039.08861,0.00907
5041.01708,0.00019
5042.94554,-0.00462
5044.87401,-0.00928
5046.80248,-0.01139
5048.73095,-0.00540
5050.65942,0.00244
5052.58789,0.00635
5054.51636,0.01253
5056.44482,0.02746
5058.37329,0.03491
5060.30176,0.02382
5062.23023,0.00769
5064.15870,-0.00179
5066.08717,0.00509
5068.01564,0.02171
5069.94410,0.02916
5071.87257,0.02363
5073.80104,0.01498
5075.72951,0.01333
5077.65798,0.01060
5079.58645,0.01448
5081.51492,0.04168
5083.44339,0.06417
5085.37185,0.05504
5087.30032,0.02782
5089.22879,0.00977
5091.15726,0.01091
5093.08573,0.01952
5095.01420,0.02858
5096.94267,0.04021
5098.87113,0.04572
5100.79960,0.04217
5102.72807,0.04597
5104.65654,0.05440
5106.58501,0.04858
5108.51348,0.03545
5110.44195,0.02516
5112.37042,0.01355
5114.29888,0.00836
5116.22735,0.01331
5118.15582,0.02057
5120.08429,0.02954
5122.01276,0.03500
5123.94123,0.03938
5125.86970,0.05687
5127.79816,0.06845
5129.72663,0.05540
5131.65510,0.04473
5133.58357,0.04149
5135.51204,0.02149
5137.44051,0.00277
5139.36898,0.01329
5141.29745,0.02922
5143.22591,0.02231
5145.15438,0.00707
5147.08285,0.00618
5149.01132,0.01618
5150.93979,0.02012
5152.86826,0.01540
5154.79673,0.01398
5156.72519,0.01661
5158.65366,0.00971
5160.58213,0.00262
5162.51060,0.01635
5164.43907,0.03813
5166.36754,0.04984
5168.29601,0.05532
5170.22448,0.05387
5172.15294,0.04173
5174.08141,0.02963
5176.00988,0.02684
5177.93835,0.03254
5179.86682,0.05177
5181.79529,0.07233
5183.72376,0.06676
5185.65222,0.04042
5187.58069,0.01668
5189.50916,0.00627
5191.43763,0.01316
5193.36610,0.02252
5195.29457,0.02254
5197.22304,0.02316
5199.15151,0.03044
5201.07997,0.05007
5203.00844,0.07870
5204.93691,0.09812
5206.86538,0.09921
5208.79385,0.08872
5210.72232,0.07628
5212.65079,0.06462
5214.57925,0.06030
5216.50772,0.06393
5218.43619,0.06047
5220.36466,0.04607
5222.29313,0.03259
5224.22160,0.02328
5226.15007,0.01823
5228.07854,0.02286
5230.00700,0.03183
5231.93547,0.04189
5233.86394,0.05908
5235.79241,0.07096
5237.72088,0.06873
5239.64935,0.06978
5241.57782,0.07510
5243.50628,0.06791
5245.43475,0.05424
5247.36322,0.04260
5249.29169,0.03453
5251.22016,0.05143
5253.14863,0.08499
5255.07710,0.09529
5257.00556,0.07667
5258.93403,0.04590
5260.86250,0.01438
5262.79097,0.01073
5264.71944,0.04373
5266.64791,0.06498
5268.57638,0.05334
5270.50485,0.04424
5272.43331,0.05207
5274.36178,0.05675
5276.29025,0.05130
5278.21872,0.04525
5280.14719,0.04699
5282.07566,0.05022
5284.00413,0.04831
5285.93259,0.04544
5287.86106,0.04449
5289.78953,0.04232
5291.71800,0.03340
5293.64647,0.02701
5295.57494,0.03445
5297.50341,0.04477
5299.43188,0.04790
5301.36034,0.05000
5303.28881,0.04361
5305.21728,0.02759
5307.14575,0.02744
5309.07422,0.03625
5311.00269,0.03000
5312.93116,0.02980
5314.85962,0.04414
5316.78809,0.04076
5318.71656,0.01798
5320.64503,0.01481
5322.57350,0.04236
5324.50197,0.05946
5326.43044,0.03755
5328.35891,0.01898
5330.28737,0.03952
5332.21584,0.06012
5334.14431,0.04320
5336.07278,0.02616
5338.00125,0.04308
5339.92972,0.05943
5341.85819,0.06094
5343.78665,0.06562
5345.71512,0.07210
5347.64359,0.07571
5349.57206,0.07454
5351.50053,0.06468
5353.42900,0.05255
5355.35747,0.05267
5357.28594,0.05877
5359.21440,0.06274
5361.14287,0.07625
5363.07134,0.09263
5364.99981,0.08717
5366.92828,0.07316
5368.85675,0.06372
5370.78522,0.04730
5372.71368,0.04395
5374.64215,0.07244
5376.57062,0.10370
5378.49909,0.10538
5380.42756,0.07613
5382.35603,0.03858
5384.28450,0.02306
5386.21297,0.02322
5388.14143,0.01842
5390.06990,0.01836
5391.99837,0.03080
5393.92684,0.05404
5395.85531,0.07079
5397.78378,0.06097
5399.71225,0.04165
5401.64071,0.04187
5403.56918,0.05508
5405.49765,0.06306
5407.42612,0.07141
5409.35459,0.08572
5411.28306,0.09122
5413.21153,0.07920
5415.13999,0.07682
5417.06846,0.08326
5418.99693,0.06298
5420.92540,0.02786
5422.85387,0.01722
5424.78234,0.02571
5426.71081,0.04434
5428.63928,0.06864
5430.56774,0.06089
5432.49621,0.03698
5434.42468,0.05235
5436.35315,0.09817
5438.28162,0.11936
5440.21009,0.11091
5442.13856,0.10702
5444.06702,0.11686
5445.99549,0.12418
5447.92396,0.11188
5449.85243,0.08138
5451.78090,0.06189
5453.70937,0.06413
5455.63784,0.06957
5457.56631,0.05014
5459.49477,0.01709
5461.42324,0.02166
5463.35171,0.06661
5465.28018,0.10436
5467.20865,0.11672
5469.13712,0.10010
5471.06559,0.06201
5472.99405,0.04590
5474.92252,0.06079
5476.85099,0.07151
5478.77946,0.07421
5480.70793,0.07708
5482.63640,0.06742
5484.56487,0.04526
5486.49334,0.03544
5488.42180,0.05143
5490.35027,0.06802
5492.27874,0.06968
5494.20721,0.07617
5496.13568,0.09018
5498.06415,0.10880
5499.99262,0.12458
5501.92108,0.10612
5503.84955,0.06004
5505.77802,0.02593
5507.70649,0.01547
5509.63496,0.01859
5511.56343,0.03182
5513.49190,0.06379
5515.42037,0.11190
5517.34883,0.13927
5519.27730,0.11599
5521.20577,0.06841
5523.13424,0.04873
5525.06271,0.06677
5526.99118,0.07986
5528.91965,0.07025
5530.84811,0.05625
5532.77658,0.04044
5534.70505,0.02565
5536.63352,0.02660
5538.56199,0.03733
5540.49046,0.05550
5542.41893,0.08652
5544.34740,0.11164
5546.27586,0.12483
5548.20433,0.13350
5550.13280,0.11976
5552.06127,0.08584
5553.98974,0.06812
5555.91821,0.05837
5557.84668,0.04160
5559.77514,0.05033
5561.70361,0.07786
5563.63208,0.08806
5565.56055,0.07891
5567.48902,0.06457
5569.41749,0.05206
5571.34596,0.04742
5573.27443,0.05391
5575.20289,0.05966
5577.13136,0.06447
5579.05983,0.07845
5580.98830,0.08986
5582.91677,0.08567
5584.84524,0.08037
5586.77371,0.07916
5588.70217,0.06134
5590.63064,0.03434
5592.55911,0.02964
5594.48758,0.04494
5596.41605,0.06570
5598.34452,0.08754
5600.27299,0.09214
5602.20145,0.06871
5604.12992,0.04632
5606.05839,0.04875
5607.98686,0.06009
5609.91533,0.07820
5611.84380,0.11057
5613.77227,0.13363
5615.70074,0.15629
5617.62920,0.18535
5619.55767,0.18283
5621.48614,0.15787
5623.41461,0.13426
5625.34308,0.10402
5627.27155,0.08123
5629.20002,0.07160
5631.12848,0.06130
5633.05695,0.05178
5634.98542,0.03955
5636.91389,0.03525
5638.84236,0.04786
5640.77083,0.05773
5642.69930,0.06624
5644.62777,0.08667
5646.55623,0.11911
5648.48470,0.14698
5650.41317,0.14144
5652.34164,0.10522
5654.27011,0.07389
5656.19858,0.05924
5658.12705,0.05265
5660.05551,0.06339
5661.98398,0.08548
5663.91245,0.09424
5665.84092,0.08562
5667.76939,0.05792
5669.69786,0.01078
5671.62633,-0.02819
5673.55480,-0.01697
5675.48326,0.03698
5677.41173,0.06802
5679.34020,0.05562
5681.26867,0.04610
5683.19714,0.04426
5685.12561,0.02862
5687.05408,0.03421
5688.98254,0.06722
5690.91101,0.06746
5692.83948,0.04045
5694.76795,0.02921
5696.69642,0.02776
5698.62489,0.03779
5700.55336,0.07540
5702.48183,0.10844
5704.41029,0.10312
5706.33876,0.08855
5708.26723,0.10275
5710.19570,0.12618
5712.12417,0.12382
5714.05264,0.09275
5715.98111,0.04460
5717.90957,0.01604
5719.83804,0.04458
5721.76651,0.08022
5723.69498,0.06495
5725.62345,0.05273
5727.55192,0.09732
5729.48039,0.14123
5731.40886,0.12857
5733.33732,0.09089
5735.26579,0.07371
5737.19426,0.08736
5739.12273,0.10423
5741.05120,0.08442
5742.97967,0.05307
5744.90814,0.07005
5746.83660,0.11992
5748.76507,0.15764
5750.69354,0.16722
5752.62201,0.14673
5754.55048,0.12234
5756.47895,0.11337
5758.40742,0.09464
5760.33588,0.05533
5762.26435,0.04029
5764.19282,0.06651
5766.12129,0.08375
5768.04976,0.07919
5769.97823,0.07630
5771.90670,0.05239
5773.83517,0.00550
5775.76363,-0.00539
5777.69210,0.01632
5779.62057,0.02275
5781.54904,0.02769
5783.47751,0.05030
5785.40598,0.07320
5787.33445,0.08301
5789.26291,0.09115
5791.19138,0.10817
5793.11985,0.10970
5795.04832,0.08667
5796.97679,0.06738
5798.90526,0.04525
5800.83373,0.01944
5802.76220,0.02840
5804.69066,0.05546
5806.61913,0.06167
5808.54760,0.04324
5810.47607,0.02760
5812.40454,0.06164
5814.33301,0.10566
5816.26148,0.10057
5818.18994,0.08032
5820.11841,0.09410
5822.04688,0.13872
5823.97535,0.16882
5825.90382,0.15726
5827.83229,0.12343
5829.76076,0.09594
5831.68923,0.06846
5833.61769,0.04195
5835.54616,0.04948
5837.47463,0.08155
5839.40310,0.10567
5841.33157,0.11653
5843.26004,0.12069
5845.18851,0.12584
5847.11697,0.12259
5849.04544,0.10190
5850.97391,0.08808
5852.90238,0.07148
5854.83085,0.04291
5856.75932,0.05254
5858.68779,0.10388
5860.61626,0.14361
5862.54472,0.15761
5864.47319,0.16266
5866.40166,0.15533
5868.33013,0.14120
5870.25860,0.13226
5872.18707,0.11995
5874.11554,0.11217
5876.04400,0.12348
5877.97247,0.14029
5879.90094,0.13895
5881.82941,0.12668
5883.75788,0.11983
5885.68635,0.12169
5887.61482,0.13227
5889.54329,0.12514
5891.47175,0.09977
5893.40022,0.09581
5895.32869,0.11163
5897.25716,0.11004
5899.18563,0.07352
5901.11410,0.03178
5903.04257,0.04028
5904.97103,0.08973
5906.89950,0.11075
5908.82797,0.09256
5910.75644,0.08393
5912.68491,0.09354
5914.61338,0.09763
5916.54185,0.10829
5918.47032,0.13130
5920.39878,0.13746
5922.32725,0.12687
5924.25572,0.12061
5926.18419,0.11507
5928.11266,0.11110
5930.04113,0.11758
5931.96960,0.12644
5933.89806,0.12982
5935.82653,0.10599
5937.75500,0.05494
5939.68347,0.01638
5941.61194,0.02060
5943.54041,0.05567
5945.46888,0.06447
5947.39734,0.05832
5949.32581,0.07312
5951.25428,0.09502
5953.18275,0.14187
5955.11122,0.18027
5957.03969,0.14225
5958.96816,0.06613
5960.89663,0.03263
5962.82509,0.03852
5964.75356,0.05740
5966.68203,0.08642
5968.61050,0.09397
5970.53897,0.08330
5972.46744,0.09196
5974.39591,0.09834
5976.32437,0.08537
5978.25284,0.07535
5980.18131,0.06582
5982.10978,0.03525
5984.03825,-0.00630
5985.96672,-0.00824
5987.89519,0.04377
5989.82366,0.09487
5991.75212,0.09563
5993.68059,0.06238
5995.60906,0.04193
5997.53753,0.03041
5999.46600,0.02773
6001.39447,0.06446
6003.32294,0.12209
6005.25140,0.13914
6007.17987,0.09909
6009.10834,0.05860
6011.03681,0.04510
6012.96528,0.02878
6014.89375,-0.00017
6016.82222,-0.00620
6018.75069,0.03751
6020.67915,0.08727
6022.60762,0.09822
6024.53609,0.08676
6026.46456,0.07993
6028.39303,0.06388
6030.32150,0.03063
6032.24997,0.02720
6034.17843,0.08299
6036.10690,0.15294
6038.03537,0.15567
6039.96384,0.08963
6041.89231,0.03769
6043.82078,0.04344
6045.74925,0.06071
6047.67772,0.06196
6049.60618,0.07841
6051.53465,0.09409
6053.46312,0.06583
6055.39159,0.02826
6057.32006,0.02783
6059.24853,0.04870
6061.17700,0.08486
6063.10546,0.12276
6065.03393,0.12351
6066.96240,0.10871
6068.89087,0.11630
6070.81934,0.12698
6072.74781,0.10855
6074.67628,0.07623
6076.60475,0.07009
6078.53321,0.08774
6080.46168,0.09047
6082.39015,0.09120
6084.31862,0.11594
6086.24709,0.12182
6088.17556,0.10408
6090.10403,0.09022
6092.03249,0.03790
6093.96096,-0.03352
6095.88943,-0.03720
6097.81790,0.02466
6099.74637,0.08500
6101.67484,0.10623
6103.60331,0.11325
6105.53177,0.14393
6107.46024,0.18795
6109.38871,0.19420
6111.31718,0.14924
6113.24565,0.10368
6115.17412,0.09279
6117.10259,0.10608
6119.03106,0.10039
6120.95952,0.07205
6122.88799,0.08118
6124.81646,0.12302
6126.74493,0.12450
6128.67340,0.07362
6130.60187,0.03741
6132.53034,0.03054
6134.45880,0.01973
6136.38727,0.00297
6138.31574,-0.01991
6140.24421,-0.04714
6142.17268,-0.03411
6144.10115,0.02645
6146.02962,0.07788
6147.95809,0.10685
6149.88655,0.11847
6151.81502,0.10987
6153.74349,0.08175
6155.67196,0.02840
6157.60043,0.00319
6159.52890,0.05030
6161.45737,0.09427
6163.38583,0.07845
6165.31430,0.04674
6167.24277,0.03754
6169.17124,0.05879
6171.09971,0.09803
6173.02818,0.10276
6174.95665,0.06278
6176.88512,0.04377
6178.81358,0.05386
6180.74205,0.04790
6182.67052,0.04726
6184.59899,0.07427
6186.52746,0.09963
6188.45593,0.09587
6190.38440,0.06421
6192.31286,0.02827
6194.24133,0.02389
6196.16980,0.05837
6198.09827,0.09195
6200.02674,0.11765
6201.95521,0.14695
6203.88368,0.13926
6205.81215,0.09168
6207.74061,0.07534
6209.66908,0.13204
6211.59755,0.20026
6213.52602,0.18039
6215.45449,0.11914
6217.38296,0.05869
6219.31143,-0.03476
6221.23989,-0.07511
6223.16836,-0.00564
6225.09683,0.06346
6227.02530,0.09807
6228.95377,0.17833
6230.88224,0.27941
6232.81071,0.27837
6234.73918,0.20365
6236.66764,0.16402
6238.59611,0.12507
6240.52458,0.02829
6242.45305,-0.07054
6244.38152,-0.08157
6246.30999,-0.00442
6248.23846,0.08058
6250.16692,0.08398
6252.09539,0.03189
6254.02386,0.01228
6255.95233,0.01461
6257.88080,0.02708
6259.80927,0.05774
6261.73774,0.08683
6263.66621,0.11025
6265.59467,0.10463
6267.52314,0.05311
6269.45161,0.04470
6271.38008,0.12085
6273.30855,0.19290
6275.23702,0.17851
6277.16549,0.12291
6279.09395,0.10094
6281.02242,0.11549
6282.95089,0.13882
6284.87936,0.13361
6286.80783,0.07874
6288.73630,0.01323
6290.66477,-0.00656
6292.59323,0.02312
6294.52170,0.08460
6296.45017,0.13494
6298.37864,0.12012
6300.30711,0.07389
6302.23558,0.03859
6304.16405,0.02783
6306.09252,0.07593
6308.02098,0.14328
6309.94945,0.15573
6311.87792,0.11088
6313.80639,0.06222
6315.73486,0.03921
6317.66333,0.02434
6319.59180,0.00089
6321.52026,-0.03132
6323.44873,-0.01442
6325.37720,0.03782
6327.30567,0.00924
6329.23414,-0.08970
6331.16261,-0.11464
6333.09108,-0.03120
6335.01955,0.05744
6336.94801,0.10827
6338.87648,0.11861
6340.80495,0.06893
6342.73342,0.02332
6344.66189,0.03420
6346.59036,0.08022
6348.51883,0.14859
6350.44729,0.20756
6352.37576,0.18555
6354.30423,0.10004
6356.23270,0.05684
6358.16117,0.08789
6360.08964,0.11526
6362.01811,0.12561
6363.94658,0.14400
6365.87504,0.09510
6367.80351,-0.00383
6369.73198,-0.00731
6371.66045,0.04477
6373.58892,0.01539
6375.51739,-0.02621
6377.44586,0.01765
6379.37432,0.08121
6381.30279,0.10920
6383.23126,0.11387
6385.15973,0.09972
6387.08820,0.08327
6389.01667,0.10921
6390.94514,0.16770
6392.87361,0.16940
6394.80207,0.10566
6396.73054,0.08727
6398.65901,0.12312
6400.58748,0.14342
6402.51595,0.12971
6404.44442,0.11476
6406.37289,0.12703
6408.30135,0.16435
6410.22982,0.17415
6412.15829,0.13939
6414.08676,0.09823
6416.01523,0.06218
6417.94370,0.01763
6419.87217,-0.04361
6421.80064,-0.05210
6423.72910,0.03612
6425.65757,0.11271
6427.58604,0.12930
6429.51451,0.16356
6431.44298,0.16484
6433.37145,0.07034
6435.29992,-0.00439
6437.22838,0.00281
6439.15685,0.03650
6441.08532,0.08020
6443.01379,0.10406
6444.94226,0.10324
6446.87073,0.14566
6448.79920,0.18223
6450.72766,0.16098
6452.65613,0.11957
6454.58460,0.06743
6456.51307,0.00857
6458.44154,-0.02602
6460.37001,-0.01555
6462.29848,0.02955
6464.22695,0.06044
6466.15541,0.05967
6468.08388,0.07314
6470.01235,0.10437
6471.94082,0.10799
6473.86929,0.13142
6475.79776,0.18999
6477.72623,0.19054
6479.65469,0.15432
6481.58316,0.16536
6483.51163,0.16669
6485.44010,0.10511
6487.36857,0.07039
6489.29704,0.11762
6491.22551,0.19533
6493.15398,0.22951
6495.08244,0.16624
6497.01091,0.07333
6498.93938,0.03920
6500.86785,0.07091
6502.79632,0.14142
6504.72479,0.18727
6506.65326,0.18388
6508.58172,0.18424
6510.51019,0.22346
6512.43866,0.22509
6514.36713,0.12630
6516.29560,-0.00295
6518.22407,-0.07906
6520.15254,-0.07661
6522.08101,0.01340
6524.00947,0.14239
6525.93794,0.19777
6527.86641,0.18140
6529.79488,0.12792
6531.72335,0.03176
6533.65182,-0.05228
6535.58029,-0.10005
6537.50875,-0.14299
6539.43722,-0.16105
6541.36569,-0.10301
6543.29416,-0.01736
6545.22263,-0.00655
6547.15110,-0.02384
6549.07957,0.02908
6551.00804,0.10120
6552.93650,0.10001
6554.86497,0.07530
6556.79344,0.07474
6558.72191,0.08741
6560.65038,0.08718
6562.57885,0.02563
6564.50732,-0.06917
6566.43578,-0.05870
6568.36425,0.04251
6570.29272,0.07432
6572.22119,0.03669
6574.14966,0.02851
6576.07813,0.03688
6578.00660,0.00898
6579.93507,-0.00498
6581.86353,0.02726
6583.79200,0.03874
6585.72047,0.06297
6587.64894,0.13404
6589.57741,0.16010
6591.50588,0.12159
6593.43435,0.07505
6595.36281,0.03999
6597.29128,0.01273
6599.21975,0.00678
6601.14822,0.04110
6603.07669,0.08110
6605.00516,0.07144
6606.93363,0.04943
6608.86210,0.09504
6610.79056,0.15875
6612.71903,0.14476
6614.64750,0.07656
6616.57597,0.02664
6618.50444,0.06374
6620.43291,0.16085
6622.36138,0.18668
6624.28984,0.11226
6626.21831,0.07529
6628.14678,0.13688
6630.07525,0.17614
6632.00372,0.12823
6633.93219,0.11133
6635.86066,0.16734
6637.78912,0.19179
6639.71759,0.14665
6641.64606,0.07695
6643.57453,0.03765
6645.50300,0.04746
6647.43147,0.05784
6649.35994,0.06129
6651.28841,0.04934
6653.21687,-0.03230
6655.14534,-0.14844
6657.07381,-0.19683
6659.00228,-0.18262
6660.93075,-0.09851
6662.85922,0.06592
6664.78769,0.12317
6666.71615,0.01173
6668.64462,-0.03952
6670.57309,0.05967
6672.50156,0.12462
6674.43003,0.10470
6676.35850,0.09003
6678.28697,0.06337
6680.21544,0.01131
6682.14390,-0.00215
6684.07237,0.06881
6686.00084,0.13066
6687.92931,0.05596
6689.85778,-0.07257
6691.78625,-0.09836
6693.71472,-0.05985
6695.64318,-0.02935
6697.57165,-0.01074
6699.50012,0.02154
6701.42859,0.07711
6703.35706,0.10165
6705.28553,0.04289
6707.21400,0.00371
6709.14247,0.02897
6711.07093,0.01634
6712.99940,0.00051
6714.92787,0.05424
6716.85634,0.10435
6718.78481,0.06430
6720.71328,0.02866
6722.64175,0.07734
6724.57021,0.08892
6726.49868,0.05098
6728.42715,0.06556
6730.35562,0.09513
6732.28409,0.06232
6734.21256,0.01960
6736.14103,0.02825
6738.06950,0.06854
6739.99796,0.07624
6741.92643,0.04766
6743.85490,0.06981
6745.78337,0.14365
6747.71184,0.23595
6749.64031,0.29532
6751.56878,0.22705
6753.49724,0.09114
6755.42571,0.00295
6757.35418,-0.06935
6759.28265,-0.15055
6761.21112,-0.12041
6763.13959,0.04573
6765.06806,0.15595
6766.99653,0.14878
6768.92499,0.12457
6770.85346,0.09357
6772.78193,0.06426
6774.71040,0.09223
6776.63887,0.16716
6778.56734,0.19708
6780.49581,0.14321
6782.42427,0.09519
6784.35274,0.08961
6786.28121,0.04503
6788.20968,-0.01652
6790.13815,-0.03912
6792.06662,-0.08432
6793.99509,-0.12754
6795.92355,-0.06964
6797.85202,0.01825
6799.78049,0.06620
6801.70896,0.12544
6803.63743,0.17294
6805.56590,0.12435
6807.49437,0.07260
6809.42284,0.10079
6811.35130,0.10312
6813.27977,-0.00876
6815.20824,-0.10806
6817.13671,-0.04429
6819.06518,0.10707
6820.99365,0.16825
6822.92212,0.09738
6824.85058,0.03032
6826.77905,0.03599
6828.70752,0.05080
6830.63599,0.04684
6832.56446,0.06901
6834.49293,0.10393
6836.42140,0.06577
6838.34987,-0.00220
6840.27833,0.03386
6842.20680,0.09880
6844.13527,0.03555
6846.06374,-0.08204
6847.99221,-0.09497
6849.92068,0.01977
6851.84915,0.13039
6853.77761,0.09558
6855.70608,-0.01602
6857.63455,-0.01723
6859.56302,0.03102
6861.49149,0.03408
6863.41996,0.03395
6865.34843,0.09104
6867.27690,0.16283
6869.20536,0.18892
6871.13383,0.21438
6873.06230,0.21608
6874.99077,0.19673
6876.91924,0.21856
6878.84771,0.18782
6880.77618,0.05875
6882.70464,-0.03072
6884.63311,-0.07061
6886.56158,-0.12224
6888.49005,-0.08502
6890.41852,0.05053
6892.34699,0.08520
6894.27546,0.05567
6896.20393,0.05560
6898.13239,-0.03451
6900.06086,-0.16013
6901.98933,-0.14268
6903.91780,-0.01098
6905.84627,0.06138
6907.77474,0.03849
6909.70321,0.00233
6911.63167,-0.05236
6913.56014,-0.12852
6915.48861,-0.17553
6917.41708,-0.15144
6919.34555,-0.03627
6921.27402,0.08186
6923.20249,0.13048
6925.13096,0.15035
6927.05942,0.15157
6928.98789,0.11713
6930.91636,0.05509
6932.84483,-0.04176
6934.77330,-0.12258
6936.70177,-0.08028
6938.63024,0.08060
6940.55870,0.17536
6942.48717,0.09705
6944.41564,-0.01067
6946.34411,-0.04037
6948.27258,0.01069
6950.20105,0.05060
6952.12952,0.05523
6954.05799,0.13503
6955.98645,0.24147
6957.91492,0.18440
6959.84339,0.12990
6961.77186,0.17934
6963.70033,0.12581
6965.62880,-0.00047
6967.55727,-0.03438
6969.48573,0.00307
6971.41420,0.03203
6973.34267,0.02298
6975.27114,-0.03124
6977.19961,-0.00735
6979.12808,0.10165
6981.05655,0.12125
6982.98501,0.05163
6984.91348,0.03534
6986.84195,0.05311
6988.77042,0.09179
6990.69889,0.14568
6992.62736,0.11928
6994.55583,0.04375
6996.48430,0.00852
6998.41276,0.01693
7000.34123,0.04514
7002.26970,0.05382
7004.19817,-0.01821
7006.12664,-0.16476
7008.05511,-0.24128
7009.98358,-0.18126
7011.91204,-0.06124
7013.84051,0.06541
7015.76898,0.11454
7017.69745,0.10297
7019.62592,0.06801
7021.55439,-0.00492
7023.48286,-0.01622
7025.41133,0.08532
7027.33979,0.15557
7029.26826,0.12218
7031.19673,0.13837
7033.12520,0.28135
7035.05367,0.36311
7036.98214,0.25530
7038.91061,0.09701
7040.83907,-0.03812
7042.76754,-0.10621
7044.69601,-0.03137
7046.62448,0.09495
7048.55295,0.14621
7050.48142,0.13016
7052.40989,0.04175
7054.33836,-0.08884
7056.26682,-0.09283
7058.19529,0.11194
7060.12376,0.32126
7062.05223,0.36374
7063.98070,0.28366
7065.90917,0.21335
7067.83764,0.21716
7069.76610,0.25118
7071.69457,0.22456
7073.62304,0.15232
7075.55151,0.06589
7077.47998,-0.01674
7079.40845,-0.01878
7081.33692,0.12407
7083.26539,0.21945
7085.19385,0.14801
7087.12232,0.06701
7089.05079,0.03221
7090.97926,0.01365
7092.90773,0.00845
7094.83620,-0.05157
7096.76467,-0.08694
7098.69313,0.05850
7100.62160,0.22293
7102.55007,0.25834
7104.47854,0.22669
7106.40701,0.09105
7108.33548,-0.03735
7110.26395,0.00997
7112.19242,0.10639
7114.12088,0.14541
7116.04935,0.15989
7117.97782,0.17568
7119.90629,0.20582
7121.83476,0.22572
7123.76323,0.18357
7125.69170,0.07308
7127.62016,-0.04124
7129.54863,-0.06973
7131.47710,0.00625
7133.40557,0.05322
7135.33404,-0.01637
7137.26251,-0.08334
7139.19098,-0.00164
7141.11944,0.17706
7143.04791,0.26302
7144.97638,0.20532
7146.90485,0.12259
7148.83332,0.12037
7150.76179,0.16960
7152.69026,0.22424
7154.61873,0.23936
7156.54719,0.20640
7158.47566,0.11463
7160.40413,0.01266
7162.33260,0.01279
7164.26107,0.06446
7166.18954,0.13274
7168.11801,0.23811
7170.04647,0.30134
7171.97494,0.31654
7173.90341,0.33163
7175.83188,0.31723
7177.76035,0.22247
7179.68882,0.10452
7181.61729,0.01029
7183.54576,-0.13871
7185.47422,-0.29182
7187.40269,-0.30504
7189.33116,-0.24268
7191.25963,-0.17436
7193.18810,-0.05925
7195.11657,0.02475
7197.04504,0.04009
7198.97350,0.06220
7200.90197,0.10946
7202.83044,0.12515
7204.75891,0.07035
7206.68738,0.05593
7208.61585,0.08712
7210.54432,0.09563
7212.47279,0.10993
7214.40125,0.16654
7216.32972,0.27998
7218.25819,0.37365
7220.18666,0.29871
7222.11513,0.14024
7224.04360,0.06684
7225.97207,0.13472
7227.90053,0.26585
7229.82900,0.45475
7231.75747,0.62501
7233.68594,0.57800
7235.61441,0.38118
7237.54288,0.19365
7239.47135,0.12631
7241.39982,0.09161
7243.32828,-0.06257
7245.25675,-0.24366
7247.18522,-0.29908
7249.11369,-0.21853
7251.04216,-0.07413
7252.97063,0.03149
7254.89910,0.07881
7256.82756,0.12083
7258.75603,0.13574
7260.68450,0.09317
7262.61297,0.07029
7264.54144,0.08435
7266.46991,0.06432
7268.39838,0.03599
7270.32685,-0.03520
7272.25531,-0.12100
7274.18378,-0.03796
7276.11225,0.07195
7278.04072,0.14566
7279.96919,0.29906
7281.89766,0.40539
7283.82613,0.34025
7285.75459,0.21221
7287.68306,0.11317
7289.61153,0.09733
7291.54000,0.19460
7293.46847,0.27916
7295.39694,0.27952
7297.32541,0.21258
7299.25387,0.09684
7301.18234,0.01365
7303.11081,-0.05438
7305.03928,-0.05651
7306.96775,0.22429
7308.89622,0.61786
7310.82469,0.60785
7312.75316,0.32458
7314.68162,0.04111
7316.61009,-0.21759
7318.53856,-0.31614
7320.46703,-0.22957
7322.39550,-0.15101
7324.32397,-0.19289
7326.25244,-0.26573
7328.18090,-0.24795
7330.10937,-0.10490
7332.03784,0.03672
7333.96631,0.08068
7335.89478,0.07281
7337.82325,0.10135
7339.75172,0.20012
7341.68019,0.36403
7343.60865,0.53257
7345.53712,0.55729
7347.46559,0.38197
7349.39406,0.22073
7351.32253,0.14641
7353.25100,0.06988
7355.17947,0.04633
7357.10793,0.09213
7359.03640,0.01418
7360.96487,-0.13482
7362.89334,-0.16859
7364.82181,-0.13634
7366.75028,-0.06488
7368.67875,0.03000
7370.60722,0.08026
7372.53568,0.03243
7374.46415,-0.06540
7376.39262,-0.03930
7378.32109,0.12155
7380.24956,0.20522
7382.17803,0.16856
7384.10650,0.15604
7386.03496,0.19489
7387.96343,0.10151
7389.89190,-0.02917
7391.82037,0.01029
7393.74884,0.17592
7395.67731,0.32170
7397.60578,0.34330
7399.53425,0.25499
7401.46271,0.17989
7403.39118,0.20792
7405.31965,0.24198
7407.24812,0.16855
7409.17659,0.07368
7411.10506,-0.02205
7413.03353,-0.01276
7414.96199,0.09420
7416.89046,0.07955
7418.81893,-0.16329
7420.74740,-0.35795
7422.67587,-0.31716
7424.60434,-0.15785
7426.53281,-0.05766
7428.46128,-0.07353
7430.38974,-0.04832
7432.31821,0.03927
7434.24668,0.12629
7436.17515,0.26975
7438.10362,0.30949
7440.03209,0.15701
7441.96056,0.00577
7443.88902,-0.00163
7445.81749,0.03755
7447.74596,-0.02849
7449.67443,-0.14710
7451.60290,-0.17047
7453.53137,-0.10028
7455.45984,-0.01973
7457.38831,0.04174
7459.31677,0.12673
7461.24524,0.24155
7463.17371,0.28604
7465.10218,0.25013
7467.03065,0.13189
7468.95912,0.02275
7470.88759,0.09598
7472.81605,0.25749
7474.74452,0.29030
7476.67299,0.22619
7478.60146,0.06677
7480.52993,-0.03181
7482.45840,0.24465
7484.38687,0.57797
7486.31533,0.54792
7488.24380,0.29184
7490.17227,0.13985
7492.10074,0.16571
7494.02921,0.22381
7495.95768,0.22620
7497.88615,0.23837
