399.19301,2.07318
401.12148,0.66979
403.04995,0.30395
404.97842,0.10678
406.90689,-0.04018
408.83536,-0.09718
410.76382,-0.06504
412.69229,-0.02268
414.62076,0.01393
416.54923,0.13411
418.47770,0.32191
420.40617,0.30330
422.33464,0.18076
424.26311,0.11560
426.19157,0.11393
428.12004,0.18901
430.04851,0.25452
431.97698,0.23746
433.90545,0.24831
435.83392,0.22659
437.76239,0.11744
439.69085,0.07693
441.61932,0.14989
443.54779,0.18656
445.47626,0.15641
447.40473,0.07872
449.33320,-0.04745
451.26167,-0.09557
453.19013,-0.04786
455.11860,-0.01273
457.04707,-0.01369
458.97554,0.01747
460.90401,0.10084
462.83248,0.17943
464.76095,0.15589
466.68942,0.01424
468.61788,-0.09087
470.54635,-0.05199
472.47482,0.34251
474.40329,0.92575
476.33176,0.69404
478.26023,0.26379
480.18870,0.09378
482.11716,0.03235
484.04563,0.00549
485.97410,0.04370
487.90257,0.08472
489.83104,0.10290
491.75951,0.11327
493.68798,0.10375
495.61645,0.08641
497.54491,0.07546
499.47338,0.05340
501.40185,0.02999
503.33032,0.03550
505.25879,0.06395
507.18726,0.09226
509.11573,0.10223
511.04419,0.10591
512.97266,0.13555
514.90113,0.17598
516.82960,0.17201
518.75807,0.12767
520.68654,0.08387
522.61501,0.06041
524.54348,0.08389
526.47194,0.12854
528.40041,0.13507
530.32888,0.10797
532.25735,0.10436
534.18582,0.15506
536.11429,0.20639
538.04276,0.20355
539.97122,0.18601
541.89969,0.18195
543.82816,0.15314
545.75663,0.12209
547.68510,0.13060
549.61357,0.15990
551.54204,0.14711
553.47051,0.08784
555.39897,0.07553
557.32744,0.09731
559.25591,0.09795
561.18438,0.10299
563.11285,0.11072
565.04132,0.10893
566.96979,0.10670
568.89825,0.09683
570.82672,0.08215
572.75519,0.09889
574.68366,0.13970
576.61213,0.15683
578.54060,0.15407
580.46907,0.13881
582.39754,0.10512
584.32600,0.08217
586.25447,0.10172
588.18294,0.14405
590.11141,0.15345
592.03988,0.11857
593.96835,0.08865
595.89682,0.08242
597.82528,0.09207
599.75375,0.12159
601.68222,0.14750
603.61069,0.14479
605.53916,0.13110
607.46763,0.12474
609.39610,0.12196
611.32456,0.12523
613.25303,0.13581
615.18150,0.14494
617.10997,0.14604
619.03844,0.14128
620.96691,0.14510
622.89538,0.15169
624.82385,0.14166
626.75231,0.12559
628.68078,0.12529
630.60925,0.14241
632.53772,0.15905
634.46619,0.15534
636.39466,0.14089
638.32313,0.13680
640.25159,0.13939
642.18006,0.12960
644.10853,0.11428
646.03700,0.12194
647.96547,0.14067
649.89394,0.13660
651.82241,0.12930
653.75088,0.13908
655.67934,0.14209
657.60781,0.14049
659.53628,0.14534
661.46475,0.14037
663.39322,0.13659
665.32169,0.14123
667.25016,0.13872
669.17862,0.14354
671.10709,0.15896
673.03556,0.14977
674.96403,0.12014
676.89250,0.10698
678.82097,0.11593
680.74944,0.12890
682.67791,0.14187
684.60637,0.14478
686.53484,0.14186
688.46331,0.14169
690.39178,0.13860
692.32025,0.13461
694.24872,0.12953
696.17719,0.12607
698.10565,0.12984
700.03412,0.13561
701.96259,0.14082
703.89106,0.14877
705.81953,0.15527
707.74800,0.15902
709.67647,0.17928
711.60494,0.21168
713.53340,0.20950
715.46187,0.17023
717.39034,0.13951
719.31881,0.12669
721.24728,0.11989
723.17575,0.11492
725.10422,0.10993
727.03268,0.10880
728.96115,0.11910
730.88962,0.14277
732.81809,0.15930
734.74656,0.15490
736.67503,0.14631
738.60350,0.14468
740.53197,0.14924
742.46043,0.15624
744.38890,0.15578
746.31737,0.14601
748.24584,0.14170
750.17431,0.14822
752.10278,0.15417
754.03125,0.15176
755.95971,0.14347
757.88818,0.13858
759.81665,0.13869
761.74512,0.13753
763.67359,0.13451
765.60206,0.13232
767.53053,0.13286
769.45900,0.13818
771.38746,0.14726
773.31593,0.15342
775.24440,0.15033
777.17287,0.14120
779.10134,0.13797
781.02981,0.14522
782.95828,0.15404
784.88674,0.15904
786.81521,0.16007
788.74368,0.15060
790.67215,0.13334
792.60062,0.12343
794.52909,0.12633
796.45756,0.13482
798.38602,0.14423
800.31449,0.14736
802.24296,0.13905
804.17143,0.13477
806.09990,0.14122
808.02837,0.14094
809.95684,0.12915
811.88531,0.12535
813.81377,0.13312
815.74224,0.13259
817.67071,0.12610
819.59918,0.12671
821.52765,0.12753
823.45612,0.12903
825.38459,0.13928
827.31305,0.14693
829.24152,0.14357
831.16999,0.14163
833.09846,0.14610
835.02693,0.14474
836.95540,0.13735
838.88387,0.13802
840.81234,0.14603
842.74080,0.15047
844.66927,0.14569
846.59774,0.13768
848.52621,0.13640
850.45468,0.14190
852.38315,0.14617
854.31162,0.14380
856.24008,0.13874
858.16855,0.13418
860.09702,0.13277
862.02549,0.13928
863.95396,0.14723
865.88243,0.14864
867.81090,0.15199
869.73937,0.16363
871.66783,0.16853
873.59630,0.15807
875.52477,0.14266
877.45324,0.13161
879.38171,0.13096
881.31018,0.14163
883.23865,0.15575
885.16711,0.16389
887.09558,0.16360
889.02405,0.15909
890.95252,0.15196
892.88099,0.14901
894.80946,0.15419
896.73793,0.15462
898.66640,0.14807
900.59486,0.14888
902.52333,0.15934
904.45180,0.16695
906.38027,0.16298
908.30874,0.14830
910.23721,0.13562
912.16568,0.13875
914.09414,0.15328
916.02261,0.16615
917.95108,0.17001
919.87955,0.16822
921.80802,0.16448
923.73649,0.15637
925.66496,0.15103
927.59343,0.15351
929.52189,0.15476
931.45036,0.15236
933.37883,0.15168
935.30730,0.15375
937.23577,0.15696
939.16424,0.15655
941.09271,0.15004
943.02117,0.14334
944.94964,0.14032
946.87811,0.13244
948.80658,0.11894
950.73505,0.11881
952.66352,0.13379
954.59199,0.14460
956.52045,0.14608
958.44892,0.14530
960.37739,0.13994
962.30586,0.13001
964.23433,0.12861
966.16280,0.13726
968.09127,0.14267
970.01974,0.13929
971.94820,0.13737
973.87667,0.14500
975.80514,0.15119
977.73361,0.15115
979.66208,0.15385
981.59055,0.15676
983.51902,0.15151
985.44748,0.14462
987.37595,0.14472
989.30442,0.14693
991.23289,0.14806
993.16136,0.14974
995.08983,0.14949
997.01830,0.14924
998.94677,0.15591
1000.87523,0.16521
1002.80370,0.16337
1004.73217,0.15401
1006.66064,0.15322
1008.58911,0.15749
1010.51758,0.15405
1012.44605,0.14976
1014.37451,0.15576
1016.30298,0.15973
1018.23145,0.14918
1020.15992,0.13803
1022.08839,0.13872
1024.01686,0.14485
1025.94533,0.15161
1027.87380,0.15784
1029.80226,0.15741
1031.73073,0.15083
1033.65920,0.14649
1035.58767,0.14815
1037.51614,0.15535
1039.44461,0.16194
1041.37308,0.16004
1043.30154,0.15393
1045.23001,0.15144
1047.15848,0.15093
1049.08695,0.14898
1051.01542,0.14666
1052.94389,0.14803
1054.87236,0.15283
1056.80083,0.15455
1058.72929,0.15192
1060.65776,0.14892
1062.58623,0.15199
1064.51470,0.16414
1066.44317,0.17201
1068.37164,0.17031
1070.30011,0.16810
1072.22857,0.16595
1074.15704,0.16957
1076.08551,0.18097
1078.01398,0.18455
1079.94245,0.17445
1081.87092,0.16197
1083.79939,0.15535
1085.72786,0.15294
1087.65632,0.15340
1089.58479,0.15613
1091.51326,0.15649
1093.44173,0.15570
1095.37020,0.16197
1097.29867,0.17172
1099.22714,0.17493
1101.15560,0.17329
1103.08407,0.16890
1105.01254,0.16432
1106.94101,0.16347
1108.86948,0.16515
1110.79795,0.16897
1112.72642,0.17239
1114.65489,0.17370
1116.58335,0.17218
1118.51182,0.16509
1120.44029,0.15844
1122.36876,0.15844
1124.29723,0.16253
1126.22570,0.16758
1128.15417,0.16964
1130.08263,0.16616
1132.01110,0.16207
1133.93957,0.16286
1135.86804,0.16439
1137.79651,0.15952
1139.72498,0.15251
1141.65345,0.15396
1143.58191,0.16387
1145.51038,0.16932
1147.43885,0.16467
1149.36732,0.16144
1151.29579,0.16723
1153.22426,0.17435
1155.15273,0.17717
1157.08120,0.17801
1159.00966,0.17771
1160.93813,0.17434
1162.86660,0.16871
1164.79507,0.16752
1166.72354,0.17343
1168.65201,0.17965
1170.58048,0.17994
1172.50894,0.17494
1174.43741,0.16990
1176.36588,0.16868
1178.29435,0.17138
1180.22282,0.17295
1182.15129,0.16878
1184.07976,0.16239
1186.00823,0.15911
1187.93669,0.16166
1189.86516,0.16622
1191.79363,0.16613
1193.72210,0.16490
1195.65057,0.16718
1197.57904,0.16831
1199.50751,0.16641
1201.43597,0.16707
1203.36444,0.17021
1205.29291,0.17013
1207.22138,0.16841
1209.14985,0.16895
1211.07832,0.16877
1213.00679,0.16681
1214.93526,0.16492
1216.86372,0.16274
1218.79219,0.16359
1220.72066,0.16801
1222.64913,0.17001
1224.57760,0.16870
1226.50607,0.16584
1228.43454,0.16465
1230.36300,0.16934
1232.29147,0.17367
1234.21994,0.17068
1236.14841,0.16630
1238.07688,0.16686
1240.00535,0.17026
1241.93382,0.17085
1243.86229,0.16622
1245.79075,0.16278
1247.71922,0.16571
1249.64769,0.16804
1251.57616,0.16253
1253.50463,0.15709
1255.43310,0.16159
1257.36157,0.16813
1259.29003,0.16674
1261.21850,0.16264
1263.14697,0.16298
1265.07544,0.16414
1267.00391,0.16216
1268.93238,0.16221
1270.86085,0.16674
1272.78932,0.17113
1274.71778,0.17231
1276.64625,0.17287
1278.57472,0.17507
1280.50319,0.17419
1282.43166,0.17127
1284.36013,0.17259
1286.28860,0.17331
1288.21706,0.16958
1290.14553,0.16711
1292.07400,0.16632
1294.00247,0.16551
1295.93094,0.16663
1297.85941,0.16630
1299.78788,0.15998
1301.71634,0.14680
1303.64481,0.13159
1305.57328,0.13083
1307.50175,0.14917
1309.43022,0.16653
1311.35869,0.17331
1313.28716,0.17640
1315.21563,0.17607
1317.14409,0.17275
1319.07256,0.17195
1321.00103,0.17443
1322.92950,0.17547
1324.85797,0.17150
1326.78644,0.16763
1328.71491,0.16924
1330.64337,0.16996
1332.57184,0.16771
1334.50031,0.16544
1336.42878,0.16274
1338.35725,0.16455
1340.28572,0.16720
1342.21419,0.16584
1344.14266,0.16752
1346.07112,0.16937
1347.99959,0.16706
1349.92806,0.16340
1351.85653,0.16218
1353.78500,0.16301
1355.71347,0.16427
1357.64194,0.16920
1359.57040,0.17548
1361.49887,0.17674
1363.42734,0.17328
1365.35581,0.17184
1367.28428,0.17306
1369.21275,0.17222
1371.14122,0.17231
1373.06969,0.17740
1374.99815,0.18217
1376.92662,0.18284
1378.85509,0.18280
1380.78356,0.18258
1382.71203,0.18119
1384.64050,0.18139
1386.56897,0.18544
1388.49743,0.18776
1390.42590,0.18428
1392.35437,0.18002
1394.28284,0.17944
1396.21131,0.18314
1398.13978,0.18653
1400.06825,0.18587
1401.99672,0.18278
1403.92518,0.18147
1405.85365,0.18150
1407.78212,0.17763
1409.71059,0.17325
1411.63906,0.17470
1413.56753,0.18032
1415.49600,0.18873
1417.42446,0.19933
1419.35293,0.20318
1421.28140,0.19924
1423.20987,0.19495
1425.13834,0.19033
1427.06681,0.18840
1428.99528,0.18906
1430.92375,0.18796
1432.85221,0.18569
1434.78068,0.18705
1436.70915,0.19254
1438.63762,0.19348
1440.56609,0.18971
1442.49456,0.18598
1444.42303,0.18517
1446.35149,0.18867
1448.27996,0.19272
1450.20843,0.19214
1452.13690,0.18874
1454.06537,0.18913
1455.99384,0.19846
1457.92231,0.20755
1459.85077,0.20330
1461.77924,0.19846
1463.70771,0.19598
1465.63618,0.19364
1467.56465,0.19208
1469.49312,0.19273
1471.42159,0.19778
1473.35006,0.20459
1475.27852,0.20349
1477.20699,0.19677
1479.13546,0.18985
1481.06393,0.18647
1482.99240,0.18802
1484.92087,0.19404
1486.84934,0.20326
1488.77780,0.20964
1490.70627,0.20448
1492.63474,0.19574
1494.56321,0.19378
1496.49168,0.19843
1498.42015,0.19890
1500.34862,0.19027
1502.27709,0.18341
1504.20555,0.18447
1506.13402,0.19682
1508.06249,0.20766
1509.99096,0.20007
1511.91943,0.19422
1513.84790,0.19769
1515.77637,0.20668
1517.70483,0.21374
1519.63330,0.21553
1521.56177,0.21288
1523.49024,0.20667
1525.41871,0.20179
1527.34718,0.19866
1529.27565,0.19889
1531.20412,0.20376
1533.13258,0.20784
1535.06105,0.20930
1536.98952,0.21903
1538.91799,0.24132
1540.84646,0.25183
1542.77493,0.23144
1544.70340,0.21263
1546.63186,0.20338
1548.56033,0.20239
1550.48880,0.20302
1552.41727,0.20138
1554.34574,0.20259
1556.27421,0.20706
1558.20268,0.20511
1560.13115,0.19455
1562.05961,0.19219
1563.98808,0.19328
1565.91655,0.19450
1567.84502,0.19645
1569.77349,0.19765
1571.70196,0.19767
1573.63043,0.20160
1575.55889,0.20625
1577.48736,0.20001
1579.41583,0.19042
1581.34430,0.18502
1583.27277,0.18136
1585.20124,0.18075
1587.12971,0.18361
1589.05818,0.18581
1590.98664,0.18708
1592.91511,0.18792
1594.84358,0.18635
1596.77205,0.18236
1598.70052,0.17883
1600.62899,0.17909
1602.55746,0.18439
1604.48592,0.19010
1606.41439,0.19022
1608.34286,0.18708
1610.27133,0.18521
1612.19980,0.18588
1614.12827,0.19008
1616.05674,0.19439
1617.98521,0.19136
1619.91367,0.18927
1621.84214,0.19385
1623.77061,0.19706
1625.69908,0.19334
1627.62755,0.18920
1629.55602,0.18935
1631.48449,0.19380
1633.41295,0.20187
1635.34142,0.21263
1637.26989,0.21248
1639.19836,0.20326
1641.12683,0.19600
1643.05530,0.19472
1644.98377,0.20358
1646.91223,0.21905
1648.84070,0.22403
1650.76917,0.22580
1652.69764,0.23126
1654.62611,0.22052
1656.55458,0.20621
1658.48305,0.20224
1660.41152,0.20798
1662.33998,0.21347
1664.26845,0.20623
1666.19692,0.20013
1668.12539,0.20464
1670.05386,0.20964
1671.98233,0.20879
1673.91080,0.20820
1675.83926,0.20569
1677.76773,0.20303
1679.69620,0.20507
1681.62467,0.21270
1683.55314,0.22322
1685.48161,0.22077
1687.41008,0.20950
1689.33855,0.20076
1691.26701,0.19655
1693.19548,0.19979
1695.12395,0.21092
1697.05242,0.22208
1698.98089,0.22287
1700.90936,0.21375
1702.83783,0.20808
1704.76629,0.21205
1706.69476,0.21435
1708.62323,0.20582
1710.55170,0.19609
1712.48017,0.19441
1714.40864,0.20253
1716.33711,0.21179
1718.26558,0.20664
1720.19404,0.19804
1722.12251,0.19534
1724.05098,0.19510
1725.97945,0.19574
1727.90792,0.19797
1729.83639,0.20156
1731.76486,0.20476
1733.69332,0.20552
1735.62179,0.20319
1737.55026,0.20220
1739.47873,0.20149
1741.40720,0.19921
1743.33567,0.19890
1745.26414,0.20285
1747.19261,0.20916
1749.12107,0.21042
1751.04954,0.20215
1752.97801,0.19545
1754.90648,0.19518
1756.83495,0.19748
1758.76342,0.19868
1760.69189,0.19712
1762.62035,0.19415
1764.54882,0.19306
1766.47729,0.19398
1768.40576,0.19673
1770.33423,0.20400
1772.26270,0.21028
1774.19117,0.20429
1776.11964,0.19488
1778.04810,0.19169
1779.97657,0.19446
1781.90504,0.19693
1783.83351,0.19700
1785.76198,0.19524
1787.69045,0.19318
1789.61892,0.19526
1791.54738,0.20036
1793.47585,0.20205
1795.40432,0.20049
1797.33279,0.19978
1799.26126,0.19996
1801.18973,0.19841
1803.11820,0.19415
1805.04666,0.18949
1806.97513,0.18714
1808.90360,0.18793
1810.83207,0.19057
1812.76054,0.19266
1814.68901,0.19241
1816.61748,0.19203
1818.54595,0.19860
1820.47441,0.20779
1822.40288,0.20638
1824.33135,0.19842
1826.25982,0.19647
1828.18829,0.20017
1830.11676,0.20328
1832.04523,0.20158
1833.97369,0.19805
1835.90216,0.19619
1837.83063,0.19514
1839.75910,0.19416
1841.68757,0.19487
1843.61604,0.19821
1845.54451,0.20152
1847.47298,0.20006
1849.40144,0.19495
1851.32991,0.19086
1853.25838,0.18868
1855.18685,0.18628
1857.11532,0.18499
1859.04379,0.18755
1860.97226,0.19285
1862.90072,0.19684
1864.82919,0.19840
1866.75766,0.20016
1868.68613,0.20189
1870.61460,0.19919
1872.54307,0.19257
1874.47154,0.18859
1876.40001,0.18974
1878.32847,0.19104
1880.25694,0.19214
1882.18541,0.19373
1884.11388,0.19299
1886.04235,0.19232
1887.97082,0.19243
1889.89929,0.18883
1891.82775,0.18392
1893.75622,0.18418
1895.68469,0.18731
1897.61316,0.18716
1899.54163,0.18569
1901.47010,0.18725
1903.39857,0.18892
1905.32704,0.18798
1907.25550,0.18813
1909.18397,0.19063
1911.11244,0.19270
1913.04091,0.19278
1914.96938,0.19160
1916.89785,0.19007
1918.82632,0.18806
1920.75478,0.18785
1922.68325,0.18998
1924.61172,0.19095
1926.54019,0.19213
1928.46866,0.19559
1930.39713,0.19663
1932.32560,0.19435
1934.25407,0.19243
1936.18253,0.19135
1938.11100,0.19125
1940.03947,0.19222
1941.96794,0.19293
1943.89641,0.19348
1945.82488,0.19484
1947.75335,0.19487
1949.68181,0.19283
1951.61028,0.19168
1953.53875,0.19194
1955.46722,0.19184
1957.39569,0.19087
1959.32416,0.19007
1961.25263,0.19012
1963.18110,0.18953
1965.10956,0.18848
1967.03803,0.18864
1968.96650,0.18860
1970.89497,0.18831
1972.82344,0.18972
1974.75191,0.19071
1976.68038,0.18580
1978.60884,0.17858
1980.53731,0.18158
1982.46578,0.19027
1984.39425,0.19169
1986.32272,0.18908
1988.25119,0.18826
1990.17966,0.19008
1992.10812,0.19333
1994.03659,0.19404
1995.96506,0.19206
1997.89353,0.19082
1999.82200,0.19198
2001.75047,0.19435
2003.67894,0.19454
2005.60741,0.19102
2007.53587,0.18641
2009.46434,0.18378
2011.39281,0.18366
2013.32128,0.18468
2015.24975,0.18742
2017.17822,0.19067
2019.10669,0.19054
2021.03515,0.18871
2022.96362,0.18836
2024.89209,0.18950
2026.82056,0.19060
2028.74903,0.19027
2030.67750,0.18942
2032.60597,0.18914
2034.53444,0.18907
2036.46290,0.18981
2038.39137,0.19098
2040.31984,0.19116
2042.24831,0.19100
2044.17678,0.19057
2046.10525,0.18934
2048.03372,0.18851
2049.96218,0.18930
2051.89065,0.19017
2053.81912,0.18955
2055.74759,0.18959
2057.67606,0.19095
2059.60453,0.19105
2061.53300,0.18945
2063.46147,0.18813
2065.38993,0.18749
2067.31840,0.18832
2069.24687,0.19109
2071.17534,0.19260
2073.10381,0.19311
2075.03228,0.19524
2076.96075,0.19700
2078.88921,0.19729
2080.81768,0.19774
2082.74615,0.19774
2084.67462,0.19620
2086.60309,0.19468
2088.53156,0.19344
2090.46003,0.19075
2092.38850,0.18878
2094.31696,0.19013
2096.24543,0.19212
2098.17390,0.19122
2100.10237,0.18823
2102.03084,0.18797
2103.95931,0.19158
2105.88778,0.19571
2107.81624,0.19838
2109.74471,0.19733
2111.67318,0.19300
2113.60165,0.19102
2115.53012,0.19367
2117.45859,0.19637
2119.38706,0.19502
2121.31553,0.19098
2123.24399,0.18750
2125.17246,0.18619
2127.10093,0.18656
2129.02940,0.18759
2130.95787,0.18964
2132.88634,0.19237
2134.81481,0.19605
2136.74327,0.19968
2138.67174,0.19753
2140.60021,0.19175
2142.52868,0.18972
2144.45715,0.19041
2146.38562,0.19200
2148.31409,0.19341
2150.24255,0.19383
2152.17102,0.19545
2154.09949,0.19626
2156.02796,0.19472
2157.95643,0.19345
2159.88490,0.19223
2161.81337,0.19079
2163.74184,0.19145
2165.67030,0.19366
2167.59877,0.19509
2169.52724,0.19609
2171.45571,0.19722
2173.38418,0.19743
2175.31265,0.19556
2177.24112,0.19286
2179.16958,0.19241
2181.09805,0.19399
2183.02652,0.19492
2184.95499,0.19481
2186.88346,0.19475
2188.81193,0.19539
2190.74040,0.19639
2192.66887,0.19627
2194.59733,0.19532
2196.52580,0.19514
2198.45427,0.19473
2200.38274,0.19365
2202.31121,0.19384
2204.23968,0.19530
2206.16815,0.19684
2208.09661,0.19773
2210.02508,0.19739
2211.95355,0.19665
2213.88202,0.19540
2215.81049,0.19295
2217.73896,0.19131
2219.66743,0.19215
2221.59590,0.19478
2223.52436,0.19740
2225.45283,0.19845
2227.38130,0.19764
2229.30977,0.19607
2231.23824,0.19510
2233.16671,0.19415
2235.09518,0.19393
2237.02364,0.19569
2238.95211,0.19657
2240.88058,0.19547
2242.80905,0.19474
2244.73752,0.19417
2246.66599,0.19258
2248.59446,0.19041
2250.52293,0.18973
2252.45139,0.19092
2254.37986,0.19130
2256.30833,0.19117
2258.23680,0.19188
2260.16527,0.19277
2262.09374,0.19324
2264.02221,0.19194
2265.95067,0.18971
2267.87914,0.18917
2269.80761,0.19082
2271.73608,0.19380
2273.66455,0.19602
2275.59302,0.19550
2277.52149,0.19271
2279.44996,0.18968
2281.37842,0.19075
2283.30689,0.19551
2285.23536,0.19557
2287.16383,0.19047
2289.09230,0.18709
2291.02077,0.18618
2292.94924,0.18607
2294.87770,0.18601
2296.80617,0.18519
2298.73464,0.18479
2300.66311,0.18548
2302.59158,0.18554
2304.52005,0.18319
2306.44852,0.17861
2308.37699,0.17562
2310.30545,0.17696
2312.23392,0.18070
2314.16239,0.18417
2316.09086,0.18491
2318.01933,0.18285
2319.94780,0.17869
2321.87627,0.17387
2323.80473,0.17293
2325.73320,0.17489
2327.66167,0.17847
2329.59014,0.18445
2331.51861,0.18419
2333.44708,0.17355
2335.37555,0.16255
2337.30401,0.15603
2339.23248,0.15317
2341.16095,0.15684
2343.08942,0.16279
2345.01789,0.16493
2346.94636,0.16518
2348.87483,0.16238
2350.80330,0.15562
2352.73176,0.14890
2354.66023,0.14796
2356.58870,0.15220
2358.51717,0.15874
2360.44564,0.16553
2362.37411,0.16982
2364.30258,0.17345
2366.23104,0.17386
2368.15951,0.17112
2370.08798,0.17509
2372.01645,0.18033
2373.94492,0.17746
2375.87339,0.17456
2377.80186,0.17820
2379.73033,0.18328
2381.65879,0.18714
2383.58726,0.19113
2385.51573,0.19342
2387.44420,0.19262
2389.37267,0.19061
2391.30114,0.18896
2393.22961,0.18786
2395.15807,0.18759
2397.08654,0.19007
2399.01501,0.19414
2400.94348,0.19490
2402.87195,0.19327
2404.80042,0.19210
2406.72889,0.19100
2408.65736,0.19097
2410.58582,0.19245
2412.51429,0.19339
2414.44276,0.19166
2416.37123,0.18802
2418.29970,0.18701
2420.22817,0.19051
2422.15664,0.19445
2424.08510,0.19604
2426.01357,0.19618
2427.94204,0.19526
2429.87051,0.19502
2431.79898,0.19705
2433.72745,0.19841
2435.65592,0.19723
2437.58439,0.19582
2439.51285,0.19481
2441.44132,0.19316
2443.36979,0.19281
2445.29826,0.19538
2447.22673,0.19725
2449.15520,0.19531
2451.08367,0.19575
2453.01213,0.20320
2454.94060,0.20664
2456.86907,0.19927
2458.79754,0.19355
2460.72601,0.19552
2462.65448,0.19684
2464.58295,0.19533
2466.51142,0.19446
2468.43988,0.19462
2470.36835,0.19629
2472.29682,0.19943
2474.22529,0.20053
2476.15376,0.19757
2478.08223,0.19413
2480.01070,0.19396
2481.93916,0.19571
2483.86763,0.19573
2485.79610,0.19348
2487.72457,0.19041
2489.65304,0.18877
2491.58151,0.19083
2493.50998,0.19490
2495.43844,0.19750
2497.36691,0.19664
2499.29538,0.19467
2501.22385,0.19575
2503.15232,0.19737
2505.08079,0.19680
2507.00926,0.19658
2508.93773,0.19736
2510.86619,0.19667
2512.79466,0.19347
2514.72313,0.19079
2516.65160,0.19124
2518.58007,0.19316
2520.50854,0.19443
2522.43701,0.19574
2524.36547,0.19819
2526.29394,0.20010
2528.22241,0.20071
2530.15088,0.20186
2532.07935,0.20261
2534.00782,0.19982
2535.93629,0.19520
2537.86476,0.19249
2539.79322,0.19107
2541.72169,0.19051
2543.65016,0.19155
2545.57863,0.19195
2547.50710,0.19078
2549.43557,0.19181
2551.36404,0.19665
2553.29250,0.20154
2555.22097,0.20299
2557.14944,0.19934
2559.07791,0.19393
2561.00638,0.19482
2562.93485,0.20006
2564.86332,0.20032
2566.79179,0.19692
2568.72025,0.19614
2570.64872,0.19693
2572.57719,0.19669
2574.50566,0.19752
2576.43413,0.19969
2578.36260,0.19924
2580.29107,0.19777
2582.21953,0.19916
2584.14800,0.20131
2586.07647,0.20174
2588.00494,0.20185
2589.93341,0.20324
2591.86188,0.20275
2593.79035,0.19768
2595.71882,0.19380
2597.64728,0.19554
2599.57575,0.19843
2601.50422,0.19890
2603.43269,0.19752
2605.36116,0.19720
2607.28963,0.19825
2609.21810,0.19686
2611.14656,0.19480
2613.07503,0.19497
2615.00350,0.19699
2616.93197,0.19931
2618.86044,0.19802
2620.78891,0.19470
2622.71738,0.19392
2624.64585,0.19494
2626.57431,0.19598
2628.50278,0.19649
2630.43125,0.19590
2632.35972,0.19592
2634.28819,0.19853
2636.21666,0.20221
2638.14513,0.20386
2640.07359,0.20219
2642.00206,0.19850
2643.93053,0.19365
2645.85900,0.19015
2647.78747,0.19065
2649.71594,0.19289
2651.64441,0.19513
2653.57288,0.19631
2655.50134,0.19570
2657.42981,0.19587
2659.35828,0.19664
2661.28675,0.19574
2663.21522,0.19578
2665.14369,0.19871
2667.07216,0.20106
2669.00062,0.20011
2670.92909,0.19633
2672.85756,0.19307
2674.78603,0.19393
2676.71450,0.19761
2678.64297,0.20053
2680.57144,0.20159
2682.49990,0.20077
2684.42837,0.19785
2686.35684,0.19420
2688.28531,0.19231
2690.21378,0.19268
2692.14225,0.19483
2694.07072,0.19868
2695.99919,0.20175
2697.92765,0.20292
2699.85612,0.20306
2701.78459,0.20135
2703.71306,0.19931
2705.64153,0.19882
2707.57000,0.19826
2709.49847,0.19701
2711.42693,0.19805
2713.35540,0.20190
2715.28387,0.20356
2717.21234,0.20087
2719.14081,0.19791
2721.06928,0.19788
2722.99775,0.19933
2724.92622,0.20063
2726.85468,0.20153
2728.78315,0.20163
2730.71162,0.20166
2732.64009,0.20216
2734.56856,0.20270
2736.49703,0.20430
2738.42550,0.20685
2740.35396,0.20744
2742.28243,0.20576
2744.21090,0.20358
2746.13937,0.20200
2748.06784,0.20179
2749.99631,0.20198
2751.92478,0.20329
2753.85325,0.20615
2755.78171,0.20776
2757.71018,0.20745
2759.63865,0.20694
2761.56712,0.20702
2763.49559,0.20662
2765.42406,0.20369
2767.35253,0.20148
2769.28099,0.20306
2771.20946,0.20197
2773.13793,0.19897
2775.06640,0.20194
2776.99487,0.20680
2778.92334,0.20804
2780.85181,0.20775
2782.78028,0.20830
2784.70874,0.20925
2786.63721,0.20900
2788.56568,0.20702
2790.49415,0.20438
2792.42262,0.20359
2794.35109,0.20351
2796.27956,0.20194
2798.20802,0.20181
2800.13649,0.20429
2802.06496,0.20594
2803.99343,0.20589
2805.92190,0.20593
2807.85037,0.20614
2809.77884,0.20707
2811.70731,0.20897
2813.63577,0.20955
2815.56424,0.20845
2817.49271,0.20722
2819.42118,0.20702
2821.34965,0.20832
2823.27812,0.20797
2825.20659,0.20504
2827.13505,0.20509
2829.06352,0.20821
2830.99199,0.20965
2832.92046,0.20913
2834.84893,0.20828
2836.77740,0.20787
2838.70587,0.20840
2840.63433,0.20993
2842.56280,0.20928
2844.49127,0.20652
2846.41974,0.20762
2848.34821,0.21148
2850.27668,0.21236
2852.20515,0.21000
2854.13362,0.20586
2856.06208,0.20095
2857.99055,0.19897
2859.91902,0.20158
2861.84749,0.20556
2863.77596,0.20796
2865.70443,0.20677
2867.63290,0.20330
2869.56136,0.20333
2871.48983,0.20651
2873.41830,0.20672
2875.34677,0.20478
2877.27524,0.20428
2879.20371,0.20517
2881.13218,0.20628
2883.06065,0.20452
2884.98911,0.20081
2886.91758,0.20106
2888.84605,0.20546
2890.77452,0.20806
2892.70299,0.20645
2894.63146,0.20425
2896.55993,0.20447
2898.48839,0.20522
2900.41686,0.20400
2902.34533,0.20153
2904.27380,0.19886
2906.20227,0.19763
2908.13074,0.19904
2910.05921,0.20140
2911.98768,0.20407
2913.91614,0.20443
2915.84461,0.20012
2917.77308,0.19867
2919.70155,0.20319
2921.63002,0.20738
2923.55849,0.20302
2925.48696,0.18138
2927.41542,0.15979
2929.34389,0.16516
2931.27236,0.18914
2933.20083,0.20752
2935.12930,0.20786
2937.05777,0.19689
2938.98624,0.19299
2940.91471,0.20014
2942.84317,0.20799
2944.77164,0.20822
2946.70011,0.20150
2948.62858,0.19810
2950.55705,0.20341
2952.48552,0.21163
2954.41399,0.21377
2956.34245,0.20222
2958.27092,0.18918
2960.19939,0.19175
2962.12786,0.20072
2964.05633,0.20464
2965.98480,0.20266
2967.91327,0.19705
2969.84174,0.19712
2971.77020,0.20402
2973.69867,0.20921
2975.62714,0.20690
2977.55561,0.19868
2979.48408,0.19826
2981.41255,0.20919
2983.34102,0.21639
2985.26948,0.21393
2987.19795,0.20746
2989.12642,0.20654
2991.05489,0.21337
2992.98336,0.21616
2994.91183,0.21196
2996.84030,0.20715
2998.76877,0.20460
3000.69723,0.20441
3002.62570,0.20629
3004.55417,0.20877
3006.48264,0.20466
3008.41111,0.19564
3010.33958,0.18838
3012.26805,0.17247
3014.19651,0.14050
3016.12498,0.11571
3018.05345,0.12869
3019.98192,0.16946
3021.91039,0.20164
3023.83886,0.21380
3025.76733,0.21271
3027.69579,0.20608
3029.62426,0.20414
3031.55273,0.20875
3033.48120,0.21308
3035.40967,0.21157
3037.33814,0.20571
3039.26661,0.20382
3041.19508,0.20817
3043.12354,0.21223
3045.05201,0.21129
3046.98048,0.20788
3048.90895,0.20771
3050.83742,0.21040
3052.76589,0.21020
3054.69436,0.20328
3056.62282,0.19567
3058.55129,0.19770
3060.47976,0.20628
3062.40823,0.21163
3064.33670,0.20841
3066.26517,0.19849
3068.19364,0.19435
3070.12211,0.20067
3072.05057,0.20649
3073.97904,0.20282
3075.90751,0.19672
3077.83598,0.20160
3079.76445,0.21159
3081.69292,0.21286
3083.62139,0.20146
3085.54985,0.18738
3087.47832,0.18992
3089.40679,0.20490
3091.33526,0.21116
3093.26373,0.20399
3095.19220,0.19679
3097.12067,0.19895
3099.04914,0.20552
3100.97760,0.20927
3102.90607,0.20457
3104.83454,0.20053
3106.76301,0.20614
3108.69148,0.21209
3110.61995,0.20978
3112.54842,0.20077
3114.47688,0.19760
3116.40535,0.20394
3118.33382,0.20873
3120.26229,0.20644
3122.19076,0.20437
3124.11923,0.20971
3126.04770,0.21300
3127.97617,0.20761
3129.90463,0.20122
3131.83310,0.20356
3133.76157,0.21327
3135.69004,0.21709
3137.61851,0.21287
3139.54698,0.21058
3141.47545,0.21494
3143.40391,0.22042
3145.33238,0.22007
3147.26085,0.21527
3149.18932,0.21365
3151.11779,0.21793
3153.04626,0.21936
3154.97473,0.21177
3156.90320,0.20423
3158.83166,0.20645
3160.76013,0.21219
3162.68860,0.21168
3164.61707,0.20945
3166.54554,0.21162
3168.47401,0.21461
3170.40248,0.21698
3172.33094,0.21800
3174.25941,0.21659
3176.18788,0.21759
3178.11635,0.22096
3180.04482,0.22238
3181.97329,0.22346
3183.90176,0.22622
3185.83022,0.22633
3187.75869,0.21973
3189.68716,0.21331
3191.61563,0.21570
3193.54410,0.22122
3195.47257,0.22065
3197.40104,0.21765
3199.32951,0.21792
3201.25797,0.21943
3203.18644,0.22012
3205.11491,0.21936
3207.04338,0.21655
3208.97185,0.21268
3210.90032,0.21025
3212.82879,0.21114
3214.75725,0.21303
3216.68572,0.21374
3218.61419,0.21475
3220.54266,0.21613
3222.47113,0.21705
3224.39960,0.21824
3226.32807,0.22020
3228.25654,0.22171
3230.18500,0.22302
3232.11347,0.22475
3234.04194,0.22483
3235.97041,0.22233
3237.89888,0.21973
3239.82735,0.22045
3241.75582,0.22185
3243.68428,0.22051
3245.61275,0.21888
3247.54122,0.21761
3249.46969,0.21548
3251.39816,0.21345
3253.32663,0.21369
3255.25510,0.21531
3257.18357,0.21641
3259.11203,0.21668
3261.04050,0.21433
3262.96897,0.21089
3264.89744,0.20944
3266.82591,0.20904
3268.75438,0.21105
3270.68285,0.21542
3272.61131,0.21729
3274.53978,0.21961
3276.46825,0.22527
3278.39672,0.22703
3280.32519,0.22176
3282.25366,0.21521
3284.18213,0.21360
3286.11060,0.21500
3288.03906,0.21362
3289.96753,0.20856
3291.89600,0.20568
3293.82447,0.21084
3295.75294,0.21769
3297.68141,0.21844
3299.60988,0.21557
3301.53834,0.21172
3303.46681,0.20797
3305.39528,0.20886
3307.32375,0.21476
3309.25222,0.21916
3311.18069,0.21630
3313.10916,0.20894
3315.03763,0.20721
3316.96609,0.21341
3318.89456,0.21992
3320.82303,0.22139
3322.75150,0.21870
3324.67997,0.21524
3326.60844,0.21199
3328.53691,0.20892
3330.46537,0.20715
3332.39384,0.20852
3334.32231,0.21316
3336.25078,0.21748
3338.17925,0.22021
3340.10772,0.22297
3342.03619,0.22193
3343.96466,0.21184
3345.89312,0.20098
3347.82159,0.20461
3349.75006,0.21914
3351.67853,0.22679
3353.60700,0.22480
3355.53547,0.22071
3357.46394,0.21775
3359.39240,0.21964
3361.32087,0.22437
3363.24934,0.22476
3365.17781,0.22085
3367.10628,0.21750
3369.03475,0.21665
3370.96322,0.21462
3372.89168,0.20941
3374.82015,0.20617
3376.74862,0.20574
3378.67709,0.20335
3380.60556,0.20202
3382.53403,0.20688
3384.46250,0.21373
3386.39097,0.21735
3388.31943,0.22028
3390.24790,0.22484
3392.17637,0.22698
3394.10484,0.22485
3396.03331,0.22201
3397.96178,0.21810
3399.89025,0.21087
3401.81871,0.20282
3403.74718,0.19520
3405.67565,0.19315
3407.60412,0.20163
3409.53259,0.20948
3411.46106,0.20971
3413.38953,0.20728
3415.31800,0.20401
3417.24646,0.20525
3419.17493,0.21429
3421.10340,0.21977
3423.03187,0.21442
3424.96034,0.20893
3426.88881,0.20929
3428.81728,0.21071
3430.74574,0.21078
3432.67421,0.21010
3434.60268,0.20951
3436.53115,0.20811
3438.45962,0.20529
3440.38809,0.20352
3442.31656,0.20617
3444.24503,0.20980
3446.17349,0.20613
3448.10196,0.19787
3450.03043,0.19308
3451.95890,0.19325
3453.88737,0.19665
3455.81584,0.19744
3457.74431,0.19586
3459.67277,0.20042
3461.60124,0.20713
3463.52971,0.20578
3465.45818,0.19910
3467.38665,0.19361
3469.31512,0.19117
3471.24359,0.19054
3473.17206,0.19228
3475.10052,0.19646
3477.02899,0.19607
3478.95746,0.18924
3480.88593,0.18458
3482.81440,0.18536
3484.74287,0.18560
3486.67134,0.18532
3488.59980,0.18835
3490.52827,0.19247
3492.45674,0.19528
3494.38521,0.19698
3496.31368,0.19800
3498.24215,0.19663
3500.17062,0.18980
3502.09909,0.18081
3504.02755,0.17722
3505.95602,0.17870
3507.88449,0.18025
3509.81296,0.18074
3511.74143,0.17897
3513.66990,0.17523
3515.59837,0.17362
3517.52683,0.17531
3519.45530,0.17765
3521.38377,0.17964
3523.31224,0.18228
3525.24071,0.18600
3527.16918,0.18830
3529.09765,0.18368
3531.02611,0.17306
3532.95458,0.16560
3534.88305,0.16623
3536.81152,0.17265
3538.73999,0.17982
3540.66846,0.18366
3542.59693,0.18248
3544.52540,0.17886
3546.45386,0.17737
3548.38233,0.17649
3550.31080,0.17450
3552.23927,0.17151
3554.16774,0.16731
3556.09621,0.16555
3558.02468,0.16667
3559.95314,0.16885
3561.88161,0.17169
3563.81008,0.17548
3565.73855,0.18213
3567.66702,0.18450
3569.59549,0.17666
3571.52396,0.16764
3573.45243,0.16161
3575.38089,0.15935
3577.30936,0.16086
3579.23783,0.16339
3581.16630,0.16265
3583.09477,0.16252
3585.02324,0.16913
3586.95171,0.17360
3588.88017,0.16566
3590.80864,0.15709
3592.73711,0.15456
3594.66558,0.15535
3596.59405,0.15569
3598.52252,0.15694
3600.45099,0.16167
3602.37946,0.16439
3604.30792,0.16204
3606.23639,0.16138
3608.16486,0.16354
3610.09333,0.15973
3612.02180,0.15269
3613.95027,0.14936
3615.87874,0.14843
3617.80720,0.14928
3619.73567,0.14963
3621.66414,0.14416
3623.59261,0.14037
3625.52108,0.14606
3627.44955,0.16058
3629.37802,0.17017
3631.30649,0.16147
3633.23495,0.14907
3635.16342,0.14125
3637.09189,0.13929
3639.02036,0.14043
3640.94883,0.14252
3642.87730,0.14514
3644.80577,0.14516
3646.73423,0.13962
3648.66270,0.13540
3650.59117,0.13971
3652.51964,0.13955
3654.44811,0.13674
3656.37658,0.13490
3658.30505,0.13238
3660.23352,0.13039
3662.16198,0.13052
3664.09045,0.13284
3666.01892,0.13700
3667.94739,0.14336
3669.87586,0.14677
3671.80433,0.14005
3673.73280,0.13617
3675.66126,0.14365
3677.58973,0.15073
3679.51820,0.14988
3681.44667,0.14520
3683.37514,0.13964
3685.30361,0.13825
3687.23208,0.14403
3689.16055,0.14963
3691.08901,0.14328
3693.01748,0.13386
3694.94595,0.12841
3696.87442,0.12417
3698.80289,0.12331
3700.73136,0.13112
3702.65983,0.13900
3704.58829,0.13930
3706.51676,0.14093
3708.44523,0.14453
3710.37370,0.14372
3712.30217,0.13949
3714.23064,0.13836
3716.15911,0.13995
3718.08757,0.13825
3720.01604,0.13314
3721.94451,0.13519
3723.87298,0.14107
3725.80145,0.13825
3727.72992,0.13121
3729.65839,0.12836
3731.58686,0.13212
3733.51532,0.13934
3735.44379,0.13927
3737.37226,0.13147
3739.30073,0.12663
3741.22920,0.13099
3743.15767,0.14467
3745.08614,0.15076
3747.01460,0.14041
3748.94307,0.13716
3750.87154,0.14679
3752.80001,0.14781
3754.72848,0.14210
3756.65695,0.14300
3758.58542,0.14437
3760.51389,0.13608
3762.44235,0.12847
3764.37082,0.12865
3766.29929,0.13204
3768.22776,0.13466
3770.15623,0.13486
3772.08470,0.13250
3774.01317,0.12829
3775.94163,0.12516
3777.87010,0.12866
3779.79857,0.13442
3781.72704,0.13420
3783.65551,0.13293
3785.58398,0.13266
3787.51245,0.13131
3789.44092,0.12880
3791.36938,0.12555
3793.29785,0.12444
3795.22632,0.12804
3797.15479,0.13669
3799.08326,0.14607
3801.01173,0.14956
3802.94020,0.14570
3804.86866,0.14292
3806.79713,0.14144
3808.72560,0.13739
3810.65407,0.13340
3812.58254,0.13181
3814.51101,0.13383
3816.43948,0.13657
3818.36795,0.13600
3820.29641,0.14044
3822.22488,0.14451
3824.15335,0.13922
3826.08182,0.13568
3828.01029,0.13518
3829.93876,0.13445
3831.86723,0.13356
3833.79569,0.13007
3835.72416,0.12873
3837.65263,0.13888
3839.58110,0.14788
3841.50957,0.14181
3843.43804,0.13062
3845.36651,0.12386
3847.29498,0.12376
3849.22344,0.12912
3851.15191,0.14077
3853.08038,0.14805
3855.00885,0.13133
3856.93732,0.11894
3858.86579,0.11732
3860.79426,0.12104
3862.72272,0.12519
3864.65119,0.12236
3866.57966,0.11637
3868.50813,0.11526
3870.43660,0.11862
3872.36507,0.12189
3874.29354,0.12159
3876.22200,0.11874
3878.15047,0.11824
3880.07894,0.11944
3882.00741,0.11941
3883.93588,0.12264
3885.86435,0.12731
3887.79282,0.12523
3889.72129,0.11916
3891.64975,0.11318
3893.57822,0.10946
3895.50669,0.10868
3897.43516,0.11150
3899.36363,0.11926
3901.29210,0.12870
3903.22057,0.13311
3905.14903,0.12916
3907.07750,0.12430
3909.00597,0.12601
3910.93444,0.12982
3912.86291,0.12864
3914.79138,0.12335
3916.71985,0.11880
3918.64832,0.12014
3920.57678,0.12331
3922.50525,0.11978
3924.43372,0.11463
3926.36219,0.11606
3928.29066,0.12112
3930.21913,0.12336
3932.14760,0.11681
3934.07606,0.10616
3936.00453,0.10204
3937.93300,0.10412
3939.86147,0.10908
3941.78994,0.11549
3943.71841,0.11859
3945.64688,0.11784
3947.57535,0.11819
3949.50381,0.11874
3951.43228,0.11553
3953.36075,0.10915
3955.28922,0.10270
3957.21769,0.09879
3959.14616,0.09965
3961.07463,0.10415
3963.00309,0.10642
3964.93156,0.10484
3966.86003,0.10465
3968.78850,0.10557
3970.71697,0.10503
3972.64544,0.10771
3974.57391,0.11206
3976.50238,0.11197
3978.43084,0.11092
3980.35931,0.11125
3982.28778,0.11090
3984.21625,0.11058
3986.14472,0.11012
3988.07319,0.10865
3990.00166,0.11021
3991.93012,0.11499
3993.85859,0.11562
3995.78706,0.11153
3997.71553,0.10873
3999.64400,0.11017
4001.57247,0.11180
4003.50094,0.10831
4005.42941,0.10464
4007.35787,0.10552
4009.28634,0.10682
4011.21481,0.10810
4013.14328,0.10985
4015.07175,0.10803
4017.00022,0.10378
4018.92869,0.10359
4020.85715,0.10812
4022.78562,0.10901
4024.71409,0.10392
4026.64256,0.10107
4028.57103,0.10331
4030.49950,0.10585
4032.42797,0.10723
4034.35644,0.10863
4036.28490,0.10593
4038.21337,0.09849
4040.14184,0.09362
4042.07031,0.09249
4043.99878,0.09292
4045.92725,0.09382
4047.85572,0.09071
4049.78418,0.08689
4051.71265,0.09351
4053.64112,0.10662
4055.56959,0.11153
4057.49806,0.10697
4059.42653,0.09861
4061.35500,0.09100
4063.28346,0.09103
4065.21193,0.09596
4067.14040,0.09630
4069.06887,0.09269
4070.99734,0.09062
4072.92581,0.08823
4074.85428,0.08535
4076.78275,0.08965
4078.71121,0.09738
4080.63968,0.09702
4082.56815,0.09249
4084.49662,0.09287
4086.42509,0.09644
4088.35356,0.09591
4090.28203,0.09048
4092.21049,0.08854
4094.13896,0.09430
4096.06743,0.09990
4097.99590,0.09771
4099.92437,0.09217
4101.85284,0.09274
4103.78131,0.09848
4105.70978,0.09874
4107.63824,0.09058
4109.56671,0.08397
4111.49518,0.08844
4113.42365,0.09784
4115.35212,0.09964
4117.28059,0.09548
4119.20906,0.09118
4121.13752,0.08533
4123.06599,0.08060
4124.99446,0.08092
4126.92293,0.08262
4128.85140,0.08335
4130.77987,0.08392
4132.70834,0.08546
4134.63681,0.08937
4136.56527,0.09256
4138.49374,0.09376
4140.42221,0.09428
4142.35068,0.09149
4144.27915,0.08726
4146.20762,0.08806
4148.13609,0.09082
4150.06455,0.08716
4151.99302,0.08075
4153.92149,0.07920
4155.84996,0.07850
4157.77843,0.07755
4159.70690,0.08227
4161.63537,0.08940
4163.56384,0.09037
4165.49230,0.08518
4167.42077,0.08084
4169.34924,0.07740
4171.27771,0.07213
4173.20618,0.07000
4175.13465,0.07481
4177.06312,0.08146
4178.99158,0.08176
4180.92005,0.07703
4182.84852,0.07430
4184.77699,0.07455
4186.70546,0.07509
4188.63393,0.07151
4190.56240,0.06311
4192.49087,0.05910
4194.41933,0.06576
4196.34780,0.07651
4198.27627,0.08176
4200.20474,0.07858
4202.13321,0.07354
4204.06168,0.07347
4205.99015,0.07588
4207.91861,0.07530
4209.84708,0.07315
4211.77555,0.07409
4213.70402,0.07651
4215.63249,0.07733
4217.56096,0.07482
4219.48943,0.06858
4221.41789,0.06455
4223.34636,0.06709
4225.27483,0.07195
4227.20330,0.07437
4229.13177,0.07450
4231.06024,0.07246
4232.98871,0.06951
4234.91718,0.06960
4236.84564,0.07251
4238.77411,0.07486
4240.70258,0.07547
4242.63105,0.07514
4244.55952,0.07214
4246.48799,0.06641
4248.41646,0.06592
4250.34492,0.07008
4252.27339,0.06692
4254.20186,0.05960
4256.13033,0.05833
4258.05880,0.05963
4259.98727,0.06065
4261.91574,0.06200
4263.84421,0.06040
4265.77267,0.05770
4267.70114,0.05740
4269.62961,0.05879
4271.55808,0.06271
4273.48655,0.06613
4275.41502,0.06410
4277.34349,0.05983
4279.27195,0.05983
4281.20042,0.06471
4283.12889,0.06669
4285.05736,0.06314
4286.98583,0.05888
4288.91430,0.05848
4290.84277,0.06340
4292.77124,0.06435
4294.69970,0.05832
4296.62817,0.05577
4298.55664,0.05916
4300.48511,0.06237
4302.41358,0.06055
4304.34205,0.05342
4306.27052,0.04685
4308.19898,0.04486
4310.12745,0.04555
4312.05592,0.04797
4313.98439,0.05021
4315.91286,0.04994
4317.84133,0.04787
4319.76980,0.04565
4321.69827,0.04736
4323.62673,0.05478
4325.55520,0.06107
4327.48367,0.05810
4329.41214,0.04921
4331.34061,0.04444
4333.26908,0.04553
4335.19755,0.04899
4337.12601,0.05169
4339.05448,0.05088
4340.98295,0.04986
4342.91142,0.05080
4344.83989,0.04951
4346.76836,0.04895
4348.69683,0.05133
4350.62530,0.04989
4352.55376,0.04760
4354.48223,0.04825
4356.41070,0.04556
4358.33917,0.04342
4360.26764,0.04649
4362.19611,0.04825
4364.12458,0.04929
4366.05304,0.05354
4367.98151,0.05689
4369.90998,0.05489
4371.83845,0.04756
4373.76692,0.03779
4375.69539,0.03329
4377.62386,0.04023
4379.55232,0.04978
4381.48079,0.05013
4383.40926,0.04250
4385.33773,0.03265
4387.26620,0.02512
4389.19467,0.02814
4391.12314,0.03962
4393.05161,0.04338
4394.98007,0.03988
4396.90854,0.04318
4398.83701,0.04940
4400.76548,0.04938
4402.69395,0.04925
4404.62242,0.04981
4406.55089,0.04628
4408.47935,0.04353
4410.40782,0.03861
4412.33629,0.02915
4414.26476,0.02800
4416.19323,0.03533
4418.12170,0.03687
4420.05017,0.03296
4421.97864,0.03139
4423.90710,0.03195
4425.83557,0.03431
4427.76404,0.03850
4429.69251,0.04413
4431.62098,0.04585
4433.54945,0.03669
4435.47792,0.02583
4437.40638,0.02280
4439.33485,0.02359
4441.26332,0.02512
4443.19179,0.02387
4445.12026,0.01950
4447.04873,0.02080
4448.97720,0.02686
4450.90567,0.02849
4452.83413,0.02725
4454.76260,0.02971
4456.69107,0.03354
4458.61954,0.03384
4460.54801,0.03230
4462.47648,0.03013
4464.40495,0.02756
4466.33341,0.02963
4468.26188,0.03483
4470.19035,0.03487
4472.11882,0.03059
4474.04729,0.02548
4475.97576,0.02402
4477.90423,0.03079
4479.83270,0.03423
4481.76116,0.03187
4483.68963,0.03527
4485.61810,0.03794
4487.54657,0.03331
4489.47504,0.02711
4491.40351,0.02211
4493.33198,0.02079
4495.26044,0.02252
4497.18891,0.02340
4499.11738,0.02293
4501.04585,0.02317
4502.97432,0.02622
4504.90279,0.02830
4506.83126,0.02628
4508.75973,0.02316
4510.68819,0.01917
4512.61666,0.01551
4514.54513,0.01654
4516.47360,0.02313
4518.40207,0.02975
4520.33054,0.02860
4522.25901,0.02161
4524.18747,0.01848
4526.11594,0.02066
4528.04441,0.01958
4529.97288,0.01305
4531.90135,0.00949
4533.82982,0.01074
4535.75829,0.01263
4537.68676,0.01788
4539.61522,0.02323
4541.54369,0.02020
4543.47216,0.01476
4545.40063,0.01523
4547.32910,0.02473
4549.25757,0.03847
4551.18604,0.03817
4553.11450,0.02108
4555.04297,0.00497
4556.97144,-0.00061
4558.89991,0.00272
4560.82838,0.01216
4562.75685,0.02528
4564.68532,0.02713
4566.61378,0.01456
4568.54225,0.01201
4570.47072,0.02018
4572.39919,0.02143
4574.32766,0.01440
4576.25613,0.00974
4578.18460,0.01802
4580.11307,0.02634
4582.04153,0.02212
4583.97000,0.01831
4585.89847,0.01398
4587.82694,0.00121
4589.75541,-0.00220
4591.68388,0.00894
4593.61235,0.01306
4595.54081,0.00983
4597.46928,0.01289
4599.39775,0.01996
4601.32622,0.02500
4603.25469,0.02691
4605.18316,0.02279
4607.11163,0.01104
4609.04010,0.00157
4610.96856,0.00459
4612.89703,0.01244
4614.82550,0.01459
4616.75397,0.01144
4618.68244,0.00431
4620.61091,-0.00194
4622.53938,-0.00038
4624.46784,0.00356
4626.39631,0.00099
4628.32478,-0.00152
4630.25325,0.00437
4632.18172,0.01201
4634.11019,0.01584
4636.03866,0.01796
4637.96713,0.01660
4639.89559,0.00978
4641.82406,0.00172
4643.75253,-0.00232
4645.68100,-0.00274
4647.60947,0.00001
4649.53794,0.00498
4651.46641,0.00530
4653.39487,0.00130
4655.32334,0.00667
4657.25181,0.01992
4659.18028,0.02567
4661.10875,0.02930
4663.03722,0.03210
4664.96569,0.02524
4666.89416,0.01900
4668.82262,0.01628
4670.75109,0.01224
4672.67956,0.01110
4674.60803,0.00941
4676.53650,0.00134
4678.46497,-0.00839
4680.39344,-0.01139
4682.32190,-0.00530
4684.25037,0.00310
4686.17884,0.00213
4688.10731,-0.00301
4690.03578,0.00347
4691.96425,0.01379
4693.89272,0.01161
4695.82119,0.00147
4697.74965,0.00054
4699.67812,0.00774
4701.60659,0.00842
4703.53506,0.00699
4705.46353,0.00846
4707.39200,0.00555
4709.32047,0.00115
4711.24893,0.00441
4713.17740,0.01427
4715.10587,0.02095
4717.03434,0.01893
4718.96281,0.00846
4720.89128,-0.00693
4722.81975,-0.01482
4724.74821,-0.00471
4726.67668,0.01556
4728.60515,0.02661
4730.53362,0.02147
4732.46209,0.01120
4734.39056,0.00352
4736.31903,-0.00499
4738.24750,-0.00896
4740.17596,-0.00014
4742.10443,0.01089
4744.03290,0.00614
4745.96137,-0.00987
4747.88984,-0.01414
4749.81831,-0.00032
4751.74678,0.01699
4753.67524,0.02243
4755.60371,0.01443
4757.53218,0.00893
4759.46065,0.01525
4761.38912,0.02126
4763.31759,0.01630
4765.24606,0.01111
4767.17453,0.01600
4769.10299,0.02035
4771.03146,0.01968
4772.95993,0.02091
4774.88840,0.01876
4776.81687,0.00878
4778.74534,-0.00030
4780.67381,-0.00354
4782.60227,-0.00377
4784.53074,0.00277
4786.45921,0.01295
4788.38768,0.01449
4790.31615,0.01570
4792.24462,0.02337
4794.17309,0.02243
4796.10156,0.01090
4798.03002,0.00470
4799.95849,0.00755
4801.88696,0.00840
4803.81543,0.00485
4805.74390,0.00363
4807.67237,0.00150
4809.60084,-0.00764
4811.52930,-0.01626
4813.45777,-0.01537
4815.38624,-0.00564
4817.31471,0.00915
4819.24318,0.01937
4821.17165,0.01940
4823.10012,0.01686
4825.02859,0.01434
4826.95705,0.01271
4828.88552,0.01485
4830.81399,0.01361
4832.74246,0.00927
4834.67093,0.00932
4836.59940,0.00680
4838.52787,-0.00592
4840.45633,-0.01159
4842.38480,0.00132
4844.31327,0.01174
4846.24174,0.01237
4848.17021,0.00963
4850.09868,0.00227
4852.02715,0.00375
4853.95562,0.01533
4855.88408,0.02067
4857.81255,0.01757
4859.74102,0.01927
4861.66949,0.02696
4863.59796,0.02526
4865.52643,0.01549
4867.45490,0.00821
4869.38336,0.00430
4871.31183,0.00394
4873.24030,0.00714
4875.16877,0.01289
4877.09724,0.02017
4879.02571,0.01871
4880.95418,0.00841
4882.88265,0.00646
4884.81111,0.00442
4886.73958,-0.00512
4888.66805,-0.00194
4890.59652,0.00769
4892.52499,0.00677
4894.45346,0.00462
4896.38193,0.00016
4898.31039,-0.01340
4900.23886,-0.02010
4902.16733,-0.00915
4904.09580,0.00606
4906.02427,0.00978
4907.95274,0.00706
4909.88121,0.01298
4911.80967,0.01963
4913.73814,0.00777
4915.66661,-0.01139
4917.59508,-0.01668
4919.52355,-0.01125
4921.45202,-0.00162
4923.38049,0.01043
4925.30896,0.01381
4927.23742,0.00356
4929.16589,-0.00702
4931.09436,-0.00328
4933.02283,0.01088
4934.95130,0.01759
4936.87977,0.01954
4938.80824,0.03102
4940.73670,0.03975
4942.66517,0.03116
4944.59364,0.01264
4946.52211,0.00162
4948.45058,0.01206
4950.37905,0.03119
4952.30752,0.03383
4954.23599,0.01380
4956.16445,-0.01314
4958.09292,-0.02545
4960.02139,-0.01742
4961.94986,-0.00273
4963.87833,0.00489
4965.80680,0.00783
4967.73527,0.00941
4969.66373,0.00793
4971.59220,0.00321
4973.52067,-0.00327
4975.44914,-0.00150
4977.37761,0.01084
4979.30608,0.02641
4981.23455,0.03787
4983.16302,0.03450
4985.09148,0.02322
4987.01995,0.01934
4988.94842,0.01606
4990.87689,0.00961
4992.80536,0.01311
4994.73383,0.01790
4996.66230,0.00832
4998.59076,-0.00219
5000.51923,0.00521
5002.44770,0.02653
5004.37617,0.03627
5006.30464,0.02679
5008.23311,0.01894
5010.16158,0.02148
5012.09005,0.02336
5014.01851,0.02316
5015.94698,0.02805
5017.87545,0.03370
5019.80392,0.03972
5021.73239,0.03908
5023.66086,0.01776
5025.58933,-0.00137
5027.51779,0.00646
5029.44626,0.01861
5031.37473,0.01438
5033.30320,0.00912
5035.23167,0.01326
5037.16014,0.02003
5039.08861,0.02953
5041.01708,0.04605
5042.94554,0.06526
5044.87401,0.06272
5046.80248,0.02855
5048.73095,-0.00106
5050.65942,-0.00476
5052.58789,0.00124
5054.51636,0.00203
5056.44482,-0.00331
5058.37329,-0.00413
5060.30176,0.00572
5062.23023,0.01720
5064.15870,0.02093
5066.08717,0.01842
5068.01564,0.01661
5069.94410,0.01222
5071.87257,0.00649
5073.80104,0.01243
5075.72951,0.02140
5077.65798,0.01673
5079.58645,0.00823
5081.51492,0.01518
5083.44339,0.03649
5085.37185,0.05104
5087.30032,0.05116
5089.22879,0.04562
5091.15726,0.03589
5093.08573,0.02693
5095.01420,0.01908
5096.94267,0.00623
5098.87113,0.00249
5100.79960,0.00982
5102.72807,0.01142
5104.65654,0.01608
5106.58501,0.03051
5108.51348,0.03764
5110.44195,0.02887
5112.37042,0.02032
5114.29888,0.03036
5116.22735,0.05231
5118.15582,0.06886
5120.08429,0.06476
5122.01276,0.04111
5123.94123,0.01702
5125.86970,0.00348
5127.79816,0.00674
5129.72663,0.02367
5131.65510,0.03492
5133.58357,0.03527
5135.51204,0.04065
5137.44051,0.05631
5139.36898,0.06249
5141.29745,0.04469
5143.22591,0.02514
5145.15438,0.02536
5147.08285,0.03334
5149.01132,0.04162
5150.93979,0.04596
5152.86826,0.04413
5154.79673,0.05353
5156.72519,0.06170
5158.65366,0.04475
5160.58213,0.02306
5162.51060,0.01000
5164.43907,-0.00004
5166.36754,0.00026
5168.29601,0.01528
5170.22448,0.03335
5172.15294,0.03573
5174.08141,0.03072
5176.00988,0.03610
5177.93835,0.03611
5179.86682,0.02849
5181.79529,0.03662
5183.72376,0.05490
5185.65222,0.05923
5187.58069,0.04526
5189.50916,0.02788
5191.43763,0.01892
5193.36610,0.02270
5195.29457,0.03615
5197.22304,0.04839
5199.15151,0.05394
5201.07997,0.05287
5203.00844,0.04593
5204.93691,0.04437
5206.86538,0.05667
5208.79385,0.05829
5210.72232,0.03893
5212.65079,0.03163
5214.57925,0.04386
5216.50772,0.04792
5218.43619,0.04031
5220.36466,0.04460
5222.29313,0.06219
5224.22160,0.07177
5226.15007,0.06288
5228.07854,0.03926
5230.00700,0.01909
5231.93547,0.02067
5233.86394,0.03579
5235.79241,0.05222
5237.72088,0.06645
5239.64935,0.07132
5241.57782,0.06412
5243.50628,0.04903
5245.43475,0.03592
5247.36322,0.02910
5249.29169,0.02984
5251.22016,0.04081
5253.14863,0.05911
5255.07710,0.07398
5257.00556,0.06690
5258.93403,0.05044
5260.86250,0.05169
5262.79097,0.06015
5264.71944,0.05073
5266.64791,0.02673
5268.57638,0.01064
5270.50485,0.01468
5272.43331,0.02893
5274.36178,0.03457
5276.29025,0.02892
5278.21872,0.03188
5280.14719,0.04417
5282.07566,0.04760
5284.00413,0.04357
5285.93259,0.03724
5287.86106,0.03290
5289.78953,0.03060
5291.71800,0.02359
5293.64647,0.02096
5295.57494,0.02801
5297.50341,0.03218
5299.43188,0.02682
5301.36034,0.02608
5303.28881,0.03925
5305.21728,0.04542
5307.14575,0.03323
5309.07422,0.01772
5311.00269,0.01332
5312.93116,0.02808
5314.85962,0.04693
5316.78809,0.05177
5318.71656,0.05644
5320.64503,0.06219
5322.57350,0.05241
5324.50197,0.03231
5326.43044,0.01322
5328.35891,0.00938
5330.28737,0.03568
5332.21584,0.06777
5334.14431,0.07270
5336.07278,0.05904
5338.00125,0.05553
5339.92972,0.06438
5341.85819,0.05692
5343.78665,0.03747
5345.71512,0.03802
5347.64359,0.05054
5349.57206,0.05370
5351.50053,0.04763
5353.42900,0.03767
5355.35747,0.03750
5357.28594,0.04791
5359.21440,0.05414
5361.14287,0.05105
5363.07134,0.05023
5364.99981,0.06947
5366.92828,0.09012
5368.85675,0.08142
5370.78522,0.05753
5372.71368,0.04964
5374.64215,0.06759
5376.57062,0.08682
5378.49909,0.07750
5380.42756,0.06380
5382.35603,0.06994
5384.28450,0.08163
5386.21297,0.08683
5388.14143,0.08772
5390.06990,0.07467
5391.99837,0.05074
5393.92684,0.03958
5395.85531,0.04467
5397.78378,0.04746
5399.71225,0.04331
5401.64071,0.03353
5403.56918,0.04022
5405.49765,0.07766
5407.42612,0.11163
5409.35459,0.10666
5411.28306,0.06056
5413.21153,0.01406
5415.13999,0.00715
5417.06846,0.02225
5418.99693,0.03840
5420.92540,0.04969
5422.85387,0.04776
5424.78234,0.03634
5426.71081,0.03233
5428.63928,0.03649
5430.56774,0.04813
5432.49621,0.07886
5434.42468,0.10714
5436.35315,0.09956
5438.28162,0.07689
5440.21009,0.05504
5442.13856,0.03101
5444.06702,0.01209
5445.99549,-0.00250
5447.92396,0.00474
5449.85243,0.03131
5451.78090,0.04623
5453.70937,0.05227
5455.63784,0.04829
5457.56631,0.02643
5459.49477,0.00622
5461.42324,0.01689
5463.35171,0.05020
5465.28018,0.06066
5467.20865,0.04586
5469.13712,0.04088
5471.06559,0.05100
5472.99405,0.06210
5474.92252,0.07311
5476.85099,0.07342
5478.77946,0.05905
5480.70793,0.04972
5482.63640,0.05533
5484.56487,0.06546
5486.49334,0.06818
5488.42180,0.06167
5490.35027,0.04909
5492.27874,0.04481
5494.20721,0.05807
5496.13568,0.06817
5498.06415,0.06412
5499.99262,0.05506
5501.92108,0.05292
5503.84955,0.06665
5505.77802,0.08356
5507.70649,0.08091
5509.63496,0.06672
5511.56343,0.06408
5513.49190,0.08147
5515.42037,0.10520
5517.34883,0.11404
5519.27730,0.10383
5521.20577,0.09324
5523.13424,0.09462
5525.06271,0.08600
5526.99118,0.06290
5528.91965,0.05350
5530.84811,0.05544
5532.77658,0.04830
5534.70505,0.05023
5536.63352,0.07489
5538.56199,0.08583
5540.49046,0.07290
5542.41893,0.07144
5544.34740,0.07736
5546.27586,0.05754
5548.20433,0.02774
5550.13280,0.02169
5552.06127,0.02784
5553.98974,0.03183
5555.91821,0.04783
5557.84668,0.07406
5559.77514,0.09129
5561.70361,0.09493
5563.63208,0.08528
5565.56055,0.07840
5567.48902,0.08306
5569.41749,0.08246
5571.34596,0.08234
5573.27443,0.08788
5575.20289,0.08262
5577.13136,0.07750
5579.05983,0.09008
5580.98830,0.10272
5582.91677,0.09457
5584.84524,0.06615
5586.77371,0.03479
5588.70217,0.03205
5590.63064,0.05750
5592.55911,0.08411
5594.48758,0.10001
5596.41605,0.09111
5598.34452,0.05713
5600.27299,0.03485
5602.20145,0.04154
5604.12992,0.05739
5606.05839,0.07692
5607.98686,0.09509
5609.91533,0.09736
5611.84380,0.09461
5613.77227,0.10991
5615.70074,0.13363
5617.62920,0.14375
5619.55767,0.13843
5621.48614,0.13136
5623.41461,0.13469
5625.34308,0.12652
5627.27155,0.09885
5629.20002,0.09448
5631.12848,0.10348
5633.05695,0.08647
5634.98542,0.07033
5636.91389,0.07186
5638.84236,0.05117
5640.77083,0.01968
5642.69930,0.01919
5644.62777,0.03065
5646.55623,0.01925
5648.48470,0.00981
5650.41317,0.03377
5652.34164,0.07263
5654.27011,0.10778
5656.19858,0.12447
5658.12705,0.10999
5660.05551,0.08687
5661.98398,0.08405
5663.91245,0.09485
5665.84092,0.08954
5667.76939,0.06052
5669.69786,0.02951
5671.62633,0.01318
5673.55480,0.02911
5675.48326,0.07330
5677.41173,0.08702
5679.34020,0.06367
5681.26867,0.05756
5683.19714,0.06651
5685.12561,0.06042
5687.05408,0.05431
5688.98254,0.06542
5690.91101,0.06621
5692.83948,0.05041
5694.76795,0.03447
5696.69642,0.02218
5698.62489,0.03262
5700.55336,0.06029
5702.48183,0.07315
5704.41029,0.07967
5706.33876,0.09702
5708.26723,0.12647
5710.19570,0.15761
5712.12417,0.16194
5714.05264,0.13283
5715.98111,0.09293
5717.90957,0.08410
5719.83804,0.11625
5721.76651,0.13843
5723.69498,0.13158
5725.62345,0.10525
5727.55192,0.07987
5729.48039,0.09152
5731.40886,0.12969
5733.33732,0.14937
5735.26579,0.12884
5737.19426,0.08599
5739.12273,0.05020
5741.05120,0.03926
5742.97967,0.04695
5744.90814,0.06395
5746.83660,0.08707
5748.76507,0.09163
5750.69354,0.08596
5752.62201,0.12222
5754.55048,0.17335
5756.47895,0.16635
5758.40742,0.11194
5760.33588,0.06077
5762.26435,0.04481
5764.19282,0.06631
5766.12129,0.09762
5768.04976,0.11264
5769.97823,0.10557
5771.90670,0.09310
5773.83517,0.08888
5775.76363,0.09729
5777.69210,0.10826
5779.62057,0.10104
5781.54904,0.08983
5783.47751,0.08987
5785.40598,0.08405
5787.33445,0.06954
5789.26291,0.07493
5791.19138,0.09284
5793.11985,0.10433
5795.04832,0.12292
5796.97679,0.11944
5798.90526,0.08477
5800.83373,0.07124
5802.76220,0.08840
5804.69066,0.10089
5806.61913,0.08605
5808.54760,0.06802
5810.47607,0.06346
5812.40454,0.04668
5814.33301,0.03052
5816.26148,0.06668
5818.18994,0.13501
5820.11841,0.16392
5822.04688,0.14788
5823.97535,0.12143
5825.90382,0.11236
5827.83229,0.13389
5829.76076,0.15248
5831.68923,0.14420
5833.61769,0.12988
5835.54616,0.12739
5837.47463,0.12660
5839.40310,0.10764
5841.33157,0.07115
5843.26004,0.03721
5845.18851,0.03267
5847.11697,0.07171
5849.04544,0.12875
5850.97391,0.14952
5852.90238,0.13618
5854.83085,0.12903
5856.75932,0.13170
5858.68779,0.13174
5860.61626,0.12441
5862.54472,0.10263
5864.47319,0.07251
5866.40166,0.06331
5868.33013,0.08806
5870.25860,0.11206
5872.18707,0.10395
5874.11554,0.08064
5876.04400,0.06711
5877.97247,0.06685
5879.90094,0.09642
5881.82941,0.14810
5883.75788,0.16998
5885.68635,0.14726
5887.61482,0.09179
5889.54329,0.03978
5891.47175,0.03558
5893.40022,0.05120
5895.32869,0.06429
5897.25716,0.08754
5899.18563,0.08073
5901.11410,0.03001
5903.04257,0.00231
5904.97103,0.02406
5906.89950,0.06663
5908.82797,0.10392
5910.75644,0.11403
5912.68491,0.10488
5914.61338,0.09717
5916.54185,0.10377
5918.47032,0.11532
5920.39878,0.10976
5922.32725,0.09683
5924.25572,0.08480
5926.18419,0.07705
5928.11266,0.08833
5930.04113,0.08996
5931.96960,0.07771
5933.89806,0.10846
5935.82653,0.15706
5937.75500,0.14114
5939.68347,0.08120
5941.61194,0.06245
5943.54041,0.09478
5945.46888,0.11075
5947.39734,0.10958
5949.32581,0.11998
5951.25428,0.11735
5953.18275,0.10323
5955.11122,0.09680
5957.03969,0.08327
5958.96816,0.06922
5960.89663,0.08255
5962.82509,0.12231
5964.75356,0.14450
5966.68203,0.10909
5968.61050,0.05045
5970.53897,0.01867
5972.46744,0.01420
5974.39591,0.02952
5976.32437,0.06596
5978.25284,0.10330
5980.18131,0.09370
5982.10978,0.05706
5984.03825,0.05349
5985.96672,0.07294
5987.89519,0.09329
5989.82366,0.10689
5991.75212,0.10105
5993.68059,0.08356
5995.60906,0.06305
5997.53753,0.04895
5999.46600,0.05136
6001.39447,0.06631
6003.32294,0.08648
6005.25140,0.10967
6007.17987,0.12999
6009.10834,0.13935
6011.03681,0.13054
6012.96528,0.10299
6014.89375,0.09551
6016.82222,0.11869
6018.75069,0.11523
6020.67915,0.08896
6022.60762,0.07528
6024.53609,0.05907
6026.46456,0.05963
6028.39303,0.08748
6030.32150,0.07809
6032.24997,0.04260
6034.17843,0.05912
6036.10690,0.09197
6038.03537,0.08887
6039.96384,0.08794
6041.89231,0.10381
6043.82078,0.10683
6045.74925,0.09192
6047.67772,0.07928
6049.60618,0.08498
6051.53465,0.10167
6053.46312,0.08782
6055.39159,0.03473
6057.32006,0.00566
6059.24853,0.02023
6061.17700,0.01511
6063.10546,0.00913
6065.03393,0.03649
6066.96240,0.03955
6068.89087,0.05096
6070.81934,0.08150
6072.74781,0.08455
6074.67628,0.10890
6076.60475,0.13635
6078.53321,0.10320
6080.46168,0.07492
6082.39015,0.09840
6084.31862,0.11178
6086.24709,0.10136
6088.17556,0.10120
6090.10403,0.07995
6092.03249,0.05010
6093.96096,0.09165
6095.88943,0.16212
6097.81790,0.13972
6099.74637,0.06417
6101.67484,0.04343
6103.60331,0.06113
6105.53177,0.08749
6107.46024,0.13284
6109.38871,0.17199
6111.31718,0.17806
6113.24565,0.17141
6115.17412,0.15862
6117.10259,0.13321
6119.03106,0.11783
6120.95952,0.09794
6122.88799,0.05715
6124.81646,0.06134
6126.74493,0.14218
6128.67340,0.21229
6130.60187,0.21245
6132.53034,0.19399
6134.45880,0.16968
6136.38727,0.11480
6138.31574,0.06738
6140.24421,0.07514
6142.17268,0.09035
6144.10115,0.05890
6146.02962,0.03828
6147.95809,0.03497
6149.88655,0.01848
6151.81502,0.03855
6153.74349,0.08175
6155.67196,0.08701
6157.60043,0.09261
6159.52890,0.12091
6161.45737,0.13732
6163.38583,0.17056
6165.31430,0.21849
6167.24277,0.20751
6169.17124,0.15244
6171.09971,0.09741
6173.02818,0.07097
6174.95665,0.08582
6176.88512,0.11541
6178.81358,0.14997
6180.74205,0.17453
6182.67052,0.15865
6184.59899,0.12070
6186.52746,0.08551
6188.45593,0.06586
6190.38440,0.08577
6192.31286,0.10247
6194.24133,0.07227
6196.16980,0.03694
6198.09827,0.02547
6200.02674,0.03614
6201.95521,0.05912
6203.88368,0.07335
6205.81215,0.07207
6207.74061,0.06316
6209.66908,0.06220
6211.59755,0.08504
6213.52602,0.10529
6215.45449,0.07538
6217.38296,0.04548
6219.31143,0.07865
6221.23989,0.09812
6223.16836,0.04974
6225.09683,0.02094
6227.02530,0.05050
6228.95377,0.05154
6230.88224,0.02123
6232.81071,0.02456
6234.73918,0.05129
6236.66764,0.05304
6238.59611,0.01951
6240.52458,0.01066
6242.45305,0.06296
6244.38152,0.12210
6246.30999,0.13419
6248.23846,0.10945
6250.16692,0.08051
6252.09539,0.03498
6254.02386,-0.00105
6255.95233,0.01820
6257.88080,0.03668
6259.80927,0.02645
6261.73774,0.03757
6263.66621,0.05926
6265.59467,0.06664
6267.52314,0.08121
6269.45161,0.10881
6271.38008,0.11984
6273.30855,0.07437
6275.23702,0.01853
6277.16549,0.03678
6279.09395,0.07202
6281.02242,0.05470
6282.95089,0.02005
6284.87936,0.00672
6286.80783,0.01278
6288.73630,0.03553
6290.66477,0.07345
6292.59323,0.11450
6294.52170,0.13968
6296.45017,0.17235
6298.37864,0.21961
6300.30711,0.20635
6302.23558,0.11054
6304.16405,0.02327
6306.09252,-0.01364
6308.02098,-0.01128
6309.94945,0.01357
6311.87792,0.02838
6313.80639,0.04760
6315.73486,0.09508
6317.66333,0.13466
6319.59180,0.12780
6321.52026,0.09098
6323.44873,0.07744
6325.37720,0.10555
6327.30567,0.14976
6329.23414,0.15544
6331.16261,0.13082
6333.09108,0.11865
6335.01955,0.05802
6336.94801,-0.02949
6338.87648,-0.03135
6340.80495,0.04132
6342.73342,0.10258
6344.66189,0.11157
6346.59036,0.06160
6348.51883,0.02072
6350.44729,0.06457
6352.37576,0.12068
6354.30423,0.12394
6356.23270,0.11736
6358.16117,0.11871
6360.08964,0.10433
6362.01811,0.08012
6363.94658,0.09668
6365.87504,0.13187
6367.80351,0.11340
6369.73198,0.06060
6371.66045,0.03807
6373.58892,0.06522
6375.51739,0.07821
6377.44586,0.03187
6379.37432,-0.03811
6381.30279,-0.08764
6383.23126,-0.07699
6385.15973,0.00445
6387.08820,0.07430
6389.01667,0.07413
6390.94514,0.04707
6392.87361,0.06249
6394.80207,0.08700
6396.73054,0.06361
6398.65901,0.05949
6400.58748,0.12391
6402.51595,0.17095
6404.44442,0.13818
6406.37289,0.08301
6408.30135,0.04107
6410.22982,-0.02299
6412.15829,-0.06421
6414.08676,-0.01390
6416.01523,0.06745
6417.94370,0.10708
6419.87217,0.07458
6421.80064,0.00630
6423.72910,-0.00356
6425.65757,0.05071
6427.58604,0.07755
6429.51451,0.06833
6431.44298,0.07082
6433.37145,0.10085
6435.29992,0.13273
6437.22838,0.12044
6439.15685,0.08848
6441.08532,0.08565
6443.01379,0.08064
6444.94226,0.05497
6446.87073,0.03715
6448.79920,0.03689
6450.72766,0.04101
6452.65613,0.04631
6454.58460,0.06386
6456.51307,0.06823
6458.44154,0.06598
6460.37001,0.11688
6462.29848,0.16417
6464.22695,0.12534
6466.15541,0.06185
6468.08388,0.03808
6470.01235,0.04721
6471.94082,0.06634
6473.86929,0.08761
6475.79776,0.10720
6477.72623,0.10409
6479.65469,0.09285
6481.58316,0.07127
6483.51163,0.07423
6485.44010,0.14448
6487.36857,0.16825
6489.29704,0.09305
6491.22551,0.03780
6493.15398,0.04380
6495.08244,0.05677
6497.01091,0.05612
6498.93938,0.05414
6500.86785,0.07224
6502.79632,0.09918
6504.72479,0.13667
6506.65326,0.17129
6508.58172,0.15729
6510.51019,0.12256
6512.43866,0.09693
6514.36713,0.07364
6516.29560,0.09453
6518.22407,0.14134
6520.15254,0.12347
6522.08101,0.04126
6524.00947,-0.02228
6525.93794,-0.01728
6527.86641,-0.00611
6529.79488,-0.05258
6531.72335,-0.10948
6533.65182,-0.09251
6535.58029,-0.00655
6537.50875,0.05765
6539.43722,0.04851
6541.36569,0.01299
6543.29416,-0.01713
6545.22263,-0.04782
6547.15110,-0.04442
6549.07957,0.00859
6551.00804,0.05954
6552.93650,0.08054
6554.86497,0.08460
6556.79344,0.05871
6558.72191,0.02768
6560.65038,0.02001
6562.57885,-0.00971
6564.50732,-0.05628
6566.43578,-0.05412
6568.36425,-0.01038
6570.29272,0.03777
6572.22119,0.07173
6574.14966,0.07550
6576.07813,0.02609
6578.00660,-0.01473
6579.93507,0.04577
6581.86353,0.12362
6583.79200,0.11737
6585.72047,0.09916
6587.64894,0.10387
6589.57741,0.08881
6591.50588,0.09214
6593.43435,0.13328
6595.36281,0.15532
6597.29128,0.15128
6599.21975,0.14395
6601.14822,0.12047
6603.07669,0.06651
6605.00516,0.03896
6606.93363,0.08088
6608.86210,0.13362
6610.79056,0.12828
6612.71903,0.06445
6614.64750,-0.03495
6616.57597,-0.11242
6618.50444,-0.08203
6620.43291,0.00511
6622.36138,0.05779
6624.28984,0.09427
6626.21831,0.14668
6628.14678,0.17048
6630.07525,0.14393
6632.00372,0.11454
6633.93219,0.09140
6635.86066,0.06557
6637.78912,0.07320
6639.71759,0.10723
6641.64606,0.11713
6643.57453,0.11045
6645.50300,0.10430
6647.43147,0.08704
6649.35994,0.07307
6651.28841,0.04789
6653.21687,0.03415
6655.14534,0.08044
6657.07381,0.13134
6659.00228,0.11529
6660.93075,0.07951
6662.85922,0.06890
6664.78769,0.06783
6666.71615,0.05065
6668.64462,0.02676
6670.57309,0.07306
6672.50156,0.16672
6674.43003,0.16795
6676.35850,0.09114
6678.28697,0.02933
6680.21544,0.00764
6682.14390,0.00543
6684.07237,0.00128
6686.00084,0.00696
6687.92931,0.06560
6689.85778,0.10381
6691.78625,0.04467
6693.71472,-0.01431
6695.64318,-0.01753
6697.57165,0.05062
6699.50012,0.13602
6701.42859,0.10700
6703.35706,0.01882
6705.28553,0.02936
6707.21400,0.10324
6709.14247,0.08452
6711.07093,0.00209
6712.99940,0.00318
6714.92787,0.06329
6716.85634,0.06760
6718.78481,0.03433
6720.71328,0.02819
6722.64175,0.03109
6724.57021,0.02367
6726.49868,0.02451
6728.42715,0.03835
6730.35562,0.05852
6732.28409,0.07199
6734.21256,0.05943
6736.14103,0.03102
6738.06950,0.03767
6739.99796,0.06435
6741.92643,0.01625
6743.85490,-0.04386
6745.78337,-0.00166
6747.71184,0.03732
6749.64031,-0.01788
6751.56878,-0.02102
6753.49724,0.08340
6755.42571,0.09789
6757.35418,0.00587
6759.28265,0.00748
6761.21112,0.07569
6763.13959,0.04673
6765.06806,-0.00644
6766.99653,0.02410
6768.92499,0.09220
6770.85346,0.08072
6772.78193,-0.00137
6774.71040,-0.03490
6776.63887,0.01664
6778.56734,0.07473
6780.49581,0.08896
6782.42427,0.02992
6784.35274,-0.05355
6786.28121,-0.02865
6788.20968,0.08936
6790.13815,0.17184
6792.06662,0.14167
6793.99509,0.05322
6795.92355,0.00981
6797.85202,-0.01178
6799.78049,-0.04961
6801.70896,-0.07746
6803.63743,-0.07058
6805.56590,-0.05156
6807.49437,-0.04208
6809.42284,0.00151
6811.35130,0.04786
6813.27977,0.06996
6815.20824,0.12098
6817.13671,0.13812
6819.06518,0.11407
6820.99365,0.14578
6822.92212,0.20317
6824.85058,0.17933
6826.77905,0.13224
6828.70752,0.14118
6830.63599,0.16361
6832.56446,0.10070
6834.49293,-0.00989
6836.42140,-0.02444
6838.34987,0.02056
6840.27833,0.03834
6842.20680,0.06469
6844.13527,0.09874
6846.06374,0.13359
6847.99221,0.11370
6849.92068,0.03813
6851.84915,0.00940
6853.77761,-0.04506
6855.70608,-0.14053
6857.63455,-0.16538
6859.56302,-0.13102
6861.49149,-0.00469
6863.41996,0.15162
6865.34843,0.15687
6867.27690,0.08520
6869.20536,0.09642
6871.13383,0.14571
6873.06230,0.13183
6874.99077,0.07495
6876.91924,0.03957
6878.84771,0.04126
6880.77618,0.03413
6882.70464,-0.02049
6884.63311,-0.02416
6886.56158,0.04170
6888.49005,0.06099
6890.41852,0.01904
6892.34699,-0.01115
6894.27546,-0.03698
6896.20393,-0.07190
6898.13239,-0.04576
6900.06086,0.01655
6901.98933,0.03353
6903.91780,0.03360
6905.84627,0.05707
6907.77474,0.05586
6909.70321,-0.04013
6911.63167,-0.19815
6913.56014,-0.27192
6915.48861,-0.22494
6917.41708,-0.16126
6919.34555,-0.05245
6921.27402,0.13553
6923.20249,0.26540
6925.13096,0.26704
6927.05942,0.20752
6928.98789,0.14532
6930.91636,0.10158
6932.84483,0.09220
6934.77330,0.11029
6936.70177,0.12913
6938.63024,0.07895
6940.55870,0.02745
6942.48717,0.14087
6944.41564,0.25094
6946.34411,0.23757
6948.27258,0.22522
6950.20105,0.26346
6952.12952,0.27833
6954.05799,0.25974
6955.98645,0.16084
6957.91492,0.01682
6959.84339,-0.01415
6961.77186,0.01831
6963.70033,0.00894
6965.62880,0.01341
6967.55727,0.01925
6969.48573,-0.06434
6971.41420,-0.18161
6973.34267,-0.22148
6975.27114,-0.16883
6977.19961,-0.06360
6979.12808,0.03189
6981.05655,0.05748
6982.98501,-0.01276
6984.91348,-0.13714
6986.84195,-0.20656
6988.77042,-0.14045
6990.69889,-0.06156
6992.62736,-0.03796
6994.55583,0.08285
6996.48430,0.24708
6998.41276,0.18610
7000.34123,0.02296
7002.26970,-0.00919
7004.19817,0.00409
7006.12664,0.05166
7008.05511,0.11505
7009.98358,0.09510
7011.91204,0.06506
7013.84051,0.06773
7015.76898,0.10666
7017.69745,0.22692
7019.62592,0.29510
7021.55439,0.20460
7023.48286,0.09166
7025.41133,0.08229
7027.33979,0.15805
7029.26826,0.18640
7031.19673,0.10497
7033.12520,0.04183
7035.05367,0.07623
7036.98214,0.11406
7038.91061,0.08466
7040.83907,0.09163
7042.76754,0.14274
7044.69601,0.11663
7046.62448,0.08028
7048.55295,0.06657
7050.48142,0.01663
7052.40989,-0.04775
7054.33836,-0.12482
7056.26682,-0.18267
7058.19529,-0.08545
7060.12376,0.05668
7062.05223,0.05567
7063.98070,-0.01579
7065.90917,-0.02497
7067.83764,0.06182
7069.76610,0.15808
7071.69457,0.14111
7073.62304,0.08113
7075.55151,0.04939
7077.47998,0.00036
7079.40845,-0.04331
7081.33692,0.00282
7083.26539,0.11188
7085.19385,0.22337
7087.12232,0.29850
7089.05079,0.32068
7090.97926,0.30430
7092.90773,0.18261
7094.83620,0.06218
7096.76467,0.04696
7098.69313,0.00641
7100.62160,-0.05083
7102.55007,-0.04433
7104.47854,-0.01731
7106.40701,0.01515
7108.33548,0.06809
7110.26395,0.11791
7112.19242,0.14122
7114.12088,0.16142
7116.04935,0.18344
7117.97782,0.17532
7119.90629,0.08034
7121.83476,-0.07398
7123.76323,-0.11922
7125.69170,-0.09204
7127.62016,-0.18017
7129.54863,-0.27646
7131.47710,-0.19151
7133.40557,-0.01261
7135.33404,0.06276
7137.26251,0.02045
7139.19098,0.00642
7141.11944,0.06698
7143.04791,0.08847
7144.97638,0.05509
7146.90485,0.02199
7148.83332,0.02338
7150.76179,0.08664
7152.69026,0.14837
7154.61873,0.18578
7156.54719,0.24063
7158.47566,0.17824
7160.40413,-0.02349
7162.33260,-0.15995
7164.26107,-0.12306
7166.18954,0.05361
7168.11801,0.20659
7170.04647,0.19703
7171.97494,0.09549
7173.90341,0.00819
7175.83188,-0.00822
7177.76035,0.11222
7179.68882,0.23892
7181.61729,0.21302
7183.54576,0.08803
7185.47422,0.02856
7187.40269,0.13949
7189.33116,0.31020
7191.25963,0.22934
7193.18810,0.04344
7195.11657,0.15373
7197.04504,0.37211
7198.97350,0.39553
7200.90197,0.29972
7202.83044,0.22100
7204.75891,0.16480
7206.68738,0.12842
7208.61585,0.11447
7210.54432,0.09724
7212.47279,0.08580
7214.40125,0.11005
7216.32972,0.13307
7218.25819,0.03147
7220.18666,-0.09200
7222.11513,-0.08949
7224.04360,-0.02056
7225.97207,0.06274
7227.90053,0.13816
7229.82900,0.16628
7231.75747,0.09316
7233.68594,0.03782
7235.61441,0.12120
7237.54288,0.21804
7239.47135,0.15612
7241.39982,0.07002
7243.32828,0.14863
7245.25675,0.17110
7247.18522,0.10584
7249.11369,0.13505
7251.04216,0.19026
7252.97063,0.19136
7254.89910,0.15166
7256.82756,0.17053
7258.75603,0.26647
7260.68450,0.25538
7262.61297,-0.00636
7264.54144,-0.15233
7266.46991,-0.04230
7268.39838,0.08358
7270.32685,0.11227
7272.25531,0.06108
7274.18378,0.01881
7276.11225,-0.02821
7278.04072,-0.06021
7279.96919,-0.05346
7281.89766,-0.03352
7283.82613,0.03797
7285.75459,0.14025
7287.68306,0.23519
7289.61153,0.33377
7291.54000,0.24747
7293.46847,-0.01956
7295.39694,-0.12548
7297.32541,-0.04637
7299.25387,0.02758
7301.18234,0.07180
7303.11081,0.14639
7305.03928,0.18362
7306.96775,0.08814
7308.89622,0.01594
7310.82469,0.07691
7312.75316,0.10865
7314.68162,0.00995
7316.61009,-0.13647
7318.53856,-0.07894
7320.46703,0.11193
7322.39550,0.15782
7324.32397,0.03516
7326.25244,0.00108
7328.18090,0.15765
7330.10937,0.35535
7332.03784,0.36372
7333.96631,0.28743
7335.89478,0.27071
7337.82325,0.28544
7339.75172,0.36244
7341.68019,0.38595
7343.60865,0.18652
7345.53712,0.05259
7347.46559,0.25145
7349.39406,0.50906
7351.32253,0.49367
7353.25100,0.26980
7355.17947,0.07772
7357.10793,0.11035
7359.03640,0.19047
7360.96487,-0.05592
7362.89334,-0.21557
7364.82181,0.01478
7366.75028,0.21344
7368.67875,0.21010
7370.60722,0.22343
7372.53568,0.28633
7374.46415,0.35034
7376.39262,0.37106
7378.32109,0.29809
7380.24956,0.17291
7382.17803,0.00786
7384.10650,-0.20943
7386.03496,-0.27579
7387.96343,-0.05787
7389.89190,0.11049
7391.82037,0.03900
7393.74884,-0.10982
7395.67731,-0.12345
7397.60578,-0.07402
7399.53425,-0.08638
7401.46271,-0.08368
7403.39118,-0.00173
7405.31965,0.15465
7407.24812,0.28563
7409.17659,0.34075
7411.10506,0.36155
7413.03353,0.32010
7414.96199,0.20819
7416.89046,0.10076
7418.81893,-0.01011
7420.74740,-0.13949
7422.67587,-0.16365
7424.60434,-0.09006
7426.53281,-0.03321
7428.46128,-0.03779
7430.38974,-0.04300
7432.31821,-0.09303
7434.24668,-0.13276
7436.17515,-0.03087
7438.10362,0.09445
7440.03209,0.12713
7441.96056,0.02411
7443.88902,-0.09350
7445.81749,0.01495
7447.74596,0.09195
7449.67443,-0.07900
7451.60290,-0.17800
7453.53137,-0.07213
7455.45984,-0.00574
7457.38831,-0.03845
7459.31677,-0.10309
7461.24524,-0.08490
7463.17371,-0.02663
7465.10218,0.06733
7467.03065,0.23176
7468.95912,0.34893
7470.88759,0.23364
7472.81605,0.00858
7474.74452,-0.01367
7476.67299,0.07481
7478.60146,0.09011
7480.52993,0.08394
7482.45840,0.00342
7484.38687,-0.15907
7486.31533,-0.23542
7488.24380,-0.14301
7490.17227,0.05819
7492.10074,0.16973
7494.02921,0.12372
7495.95768,0.05063
7497.88615,0.04575
