399.19301,-1.06811
401.12148,-0.99847
403.04995,-0.78349
404.97842,-0.38257
406.90689,-0.07708
408.83536,0.04894
410.76382,0.02780
412.69229,0.01573
414.62076,0.11873
416.54923,0.26250
418.47770,0.29418
420.40617,0.17117
422.33464,0.10604
424.26311,0.09216
426.19157,0.06947
428.12004,0.07391
430.04851,0.14913
431.97698,0.25304
433.90545,0.27574
435.83392,0.21135
437.76239,0.16327
439.69085,0.19243
441.61932,0.24053
443.54779,0.22557
445.47626,0.19078
447.40473,0.17369
449.33320,0.15749
451.26167,0.15851
453.19013,0.13541
455.11860,0.07148
457.04707,0.06519
458.97554,0.11574
460.90401,0.10322
462.83248,0.03925
464.76095,-0.01184
466.68942,-0.03459
468.61788,-0.05585
470.54635,-0.05131
472.47482,0.16435
474.40329,0.50827
476.33176,0.43794
478.26023,0.26507
480.18870,0.19064
482.11716,0.15793
484.04563,0.12170
485.97410,0.09838
487.90257,0.11704
489.83104,0.15400
491.75951,0.18015
493.68798,0.16502
495.61645,0.11342
497.54491,0.09604
499.47338,0.13360
501.40185,0.15891
503.33032,0.13240
505.25879,0.11330
507.18726,0.14396
509.11573,0.17573
511.04419,0.16427
512.97266,0.12461
514.90113,0.09762
516.82960,0.11007
518.75807,0.13278
520.68654,0.13914
522.61501,0.13325
524.54348,0.12158
526.47194,0.12658
528.40041,0.12565
530.32888,0.09390
532.25735,0.07924
534.18582,0.09206
536.11429,0.08639
538.04276,0.07241
539.97122,0.08097
541.89969,0.10752
543.82816,0.13798
545.75663,0.16381
547.68510,0.16445
549.61357,0.10680
551.54204,-0.00033
553.47051,-0.06486
555.39897,-0.00934
557.32744,0.07594
559.25591,0.09018
561.18438,0.08914
563.11285,0.11436
565.04132,0.12440
566.96979,0.10437
568.89825,0.09701
570.82672,0.10455
572.75519,0.10348
574.68366,0.10766
576.61213,0.10814
578.54060,0.08367
580.46907,0.06131
582.39754,0.07403
584.32600,0.11627
586.25447,0.15745
588.18294,0.16828
590.11141,0.14679
592.03988,0.10873
593.96835,0.08466
595.89682,0.09257
597.82528,0.12020
599.75375,0.13587
601.68222,0.12011
603.61069,0.10484
605.53916,0.10884
607.46763,0.11395
609.39610,0.10468
611.32456,0.08341
613.25303,0.07290
615.18150,0.07570
617.10997,0.08201
619.03844,0.08883
620.96691,0.09691
622.89538,0.11050
624.82385,0.11976
626.75231,0.12038
628.68078,0.11302
630.60925,0.10034
632.53772,0.10271
634.46619,0.11669
636.39466,0.11763
638.32313,0.11430
640.25159,0.13212
642.18006,0.16095
644.10853,0.16340
646.03700,0.14092
647.96547,0.12015
649.89394,0.11389
651.82241,0.12916
653.75088,0.14715
655.67934,0.13772
657.60781,0.12390
659.53628,0.13911
661.46475,0.15733
663.39322,0.15072
665.32169,0.12880
667.25016,0.11191
669.17862,0.12377
671.10709,0.13801
673.03556,0.14091
674.96403,0.14225
676.89250,0.13295
678.82097,0.11469
680.74944,0.11178
682.67791,0.12219
684.60637,0.12970
686.53484,0.14168
688.46331,0.16168
690.39178,0.17285
692.32025,0.15719
694.24872,0.12509
696.17719,0.10908
698.10565,0.11350
700.03412,0.12651
701.96259,0.14095
703.89106,0.14184
705.81953,0.13419
707.74800,0.13915
709.67647,0.17701
711.60494,0.22326
713.53340,0.20849
715.46187,0.15683
717.39034,0.13801
719.31881,0.14234
721.24728,0.14853
723.17575,0.15203
725.10422,0.14404
727.03268,0.13104
728.96115,0.12977
730.88962,0.13905
732.81809,0.14967
734.74656,0.15347
736.67503,0.14199
738.60350,0.12793
740.53197,0.12695
742.46043,0.13284
744.38890,0.13024
746.31737,0.12106
748.24584,0.11907
750.17431,0.12039
752.10278,0.11871
754.03125,0.12019
755.95971,0.12454
757.88818,0.12386
759.81665,0.12605
761.74512,0.13477
763.67359,0.13373
765.60206,0.12958
767.53053,0.13654
769.45900,0.13889
771.38746,0.13283
773.31593,0.13472
775.24440,0.13862
777.17287,0.13115
779.10134,0.11987
781.02981,0.12319
782.95828,0.14076
784.88674,0.14498
786.81521,0.12700
788.74368,0.11941
790.67215,0.14131
792.60062,0.15925
794.52909,0.14849
796.45756,0.14026
798.38602,0.15091
800.31449,0.15396
802.24296,0.14131
804.17143,0.13121
806.09990,0.12551
808.02837,0.11380
809.95684,0.10276
811.88531,0.10707
813.81377,0.12523
815.74224,0.14074
817.67071,0.14380
819.59918,0.13845
821.52765,0.12643
823.45612,0.11313
825.38459,0.11882
827.31305,0.13979
829.24152,0.14559
831.16999,0.13433
833.09846,0.13176
835.02693,0.14826
836.95540,0.16370
838.88387,0.16476
840.81234,0.16168
842.74080,0.16117
844.66927,0.16023
846.59774,0.15491
848.52621,0.14677
850.45468,0.14116
852.38315,0.13764
854.31162,0.14013
856.24008,0.15170
858.16855,0.16001
860.09702,0.15666
862.02549,0.14448
863.95396,0.13257
865.88243,0.12881
867.81090,0.13219
869.73937,0.13724
871.66783,0.13441
873.59630,0.12890
875.52477,0.13334
877.45324,0.13658
879.38171,0.13203
881.31018,0.13304
883.23865,0.14038
885.16711,0.14522
887.09558,0.14939
889.02405,0.15360
890.95252,0.14787
892.88099,0.13172
894.80946,0.12238
896.73793,0.13138
898.66640,0.15028
900.59486,0.16216
902.52333,0.15997
904.45180,0.15342
906.38027,0.15100
908.30874,0.14750
910.23721,0.14194
912.16568,0.14227
914.09414,0.14653
916.02261,0.15035
917.95108,0.15441
919.87955,0.15271
921.80802,0.14552
923.73649,0.14375
925.66496,0.14727
927.59343,0.14855
929.52189,0.14570
931.45036,0.13971
933.37883,0.13463
935.30730,0.13705
937.23577,0.14340
939.16424,0.14513
941.09271,0.14692
943.02117,0.14871
944.94964,0.14395
946.87811,0.14459
948.80658,0.15248
950.73505,0.15186
952.66352,0.14451
954.59199,0.14117
956.52045,0.14517
958.44892,0.15429
960.37739,0.15888
962.30586,0.15476
964.23433,0.14942
966.16280,0.14637
968.09127,0.14748
970.01974,0.15064
971.94820,0.14846
973.87667,0.14994
975.80514,0.15980
977.73361,0.16486
979.66208,0.16400
981.59055,0.16140
983.51902,0.15731
985.44748,0.15668
987.37595,0.15772
989.30442,0.15495
991.23289,0.15348
993.16136,0.15915
995.08983,0.16662
997.01830,0.16715
998.94677,0.16285
1000.87523,0.16002
1002.80370,0.15560
1004.73217,0.15037
1006.66064,0.15185
1008.58911,0.15719
1010.51758,0.15900
1012.44605,0.15879
1014.37451,0.15775
1016.30298,0.14941
1018.23145,0.13913
1020.15992,0.14012
1022.08839,0.14750
1024.01686,0.14977
1025.94533,0.14628
1027.87380,0.14260
1029.80226,0.14201
1031.73073,0.14118
1033.65920,0.14363
1035.58767,0.15521
1037.51614,0.16462
1039.44461,0.16519
1041.37308,0.16556
1043.30154,0.16402
1045.23001,0.15554
1047.15848,0.15084
1049.08695,0.16009
1051.01542,0.17508
1052.94389,0.18174
1054.87236,0.17755
1056.80083,0.16691
1058.72929,0.15548
1060.65776,0.15746
1062.58623,0.16996
1064.51470,0.16830
1066.44317,0.15371
1068.37164,0.14694
1070.30011,0.15015
1072.22857,0.15440
1074.15704,0.16038
1076.08551,0.16734
1078.01398,0.16764
1079.94245,0.16424
1081.87092,0.15925
1083.79939,0.15434
1085.72786,0.15514
1087.65632,0.15425
1089.58479,0.14725
1091.51326,0.14608
1093.44173,0.15499
1095.37020,0.16265
1097.29867,0.16475
1099.22714,0.16955
1101.15560,0.17743
1103.08407,0.17859
1105.01254,0.17122
1106.94101,0.16357
1108.86948,0.16195
1110.79795,0.16031
1112.72642,0.15671
1114.65489,0.16259
1116.58335,0.17069
1118.51182,0.16912
1120.44029,0.16640
1122.36876,0.16587
1124.29723,0.16146
1126.22570,0.15282
1128.15417,0.14751
1130.08263,0.15005
1132.01110,0.15554
1133.93957,0.16125
1135.86804,0.16638
1137.79651,0.16356
1139.72498,0.15373
1141.65345,0.15181
1143.58191,0.15971
1145.51038,0.16375
1147.43885,0.16107
1149.36732,0.15901
1151.29579,0.15884
1153.22426,0.15879
1155.15273,0.15930
1157.08120,0.16146
1159.00966,0.16696
1160.93813,0.17197
1162.86660,0.16988
1164.79507,0.16406
1166.72354,0.15948
1168.65201,0.15456
1170.58048,0.15399
1172.50894,0.16249
1174.43741,0.17009
1176.36588,0.17065
1178.29435,0.17100
1180.22282,0.17040
1182.15129,0.16580
1184.07976,0.16646
1186.00823,0.17464
1187.93669,0.17577
1189.86516,0.16609
1191.79363,0.15939
1193.72210,0.16091
1195.65057,0.16324
1197.57904,0.16134
1199.50751,0.15836
1201.43597,0.15937
1203.36444,0.16140
1205.29291,0.15787
1207.22138,0.15174
1209.14985,0.15159
1211.07832,0.15701
1213.00679,0.16256
1214.93526,0.16788
1216.86372,0.17180
1218.79219,0.17095
1220.72066,0.16751
1222.64913,0.16634
1224.57760,0.16914
1226.50607,0.17323
1228.43454,0.17326
1230.36300,0.16841
1232.29147,0.16257
1234.21994,0.15901
1236.14841,0.15910
1238.07688,0.16145
1240.00535,0.16480
1241.93382,0.16757
1243.86229,0.16694
1245.79075,0.16470
1247.71922,0.16496
1249.64769,0.16685
1251.57616,0.16698
1253.50463,0.16632
1255.43310,0.16692
1257.36157,0.16646
1259.29003,0.16451
1261.21850,0.16595
1263.14697,0.17213
1265.07544,0.17746
1267.00391,0.17667
1268.93238,0.17212
1270.86085,0.17109
1272.78932,0.17280
1274.71778,0.17137
1276.64625,0.16913
1278.57472,0.17062
1280.50319,0.17353
1282.43166,0.17545
1284.36013,0.17611
1286.28860,0.17149
1288.21706,0.16487
1290.14553,0.16665
1292.07400,0.17359
1294.00247,0.17545
1295.93094,0.17133
1297.85941,0.16441
1299.78788,0.15489
1301.71634,0.14188
1303.64481,0.12953
1305.57328,0.13026
1307.50175,0.14604
1309.43022,0.16038
1311.35869,0.16580
1313.28716,0.16974
1315.21563,0.17754
1317.14409,0.18470
1319.07256,0.18250
1321.00103,0.17322
1322.92950,0.16616
1324.85797,0.16237
1326.78644,0.16117
1328.71491,0.16260
1330.64337,0.16111
1332.57184,0.15919
1334.50031,0.16222
1336.42878,0.16578
1338.35725,0.16831
1340.28572,0.16715
1342.21419,0.16156
1344.14266,0.15825
1346.07112,0.15931
1347.99959,0.16239
1349.92806,0.16273
1351.85653,0.16159
1353.78500,0.16411
1355.71347,0.16838
1357.64194,0.17126
1359.57040,0.17315
1361.49887,0.17470
1363.42734,0.17475
1365.35581,0.17396
1367.28428,0.17473
1369.21275,0.17541
1371.14122,0.17392
1373.06969,0.17100
1374.99815,0.16940
1376.92662,0.17265
1378.85509,0.17686
1380.78356,0.17723
1382.71203,0.17751
1384.64050,0.18185
1386.56897,0.18481
1388.49743,0.18071
1390.42590,0.17918
1392.35437,0.18608
1394.28284,0.19464
1396.21131,0.19640
1398.13978,0.19248
1400.06825,0.18914
1401.99672,0.18788
1403.92518,0.18660
1405.85365,0.18540
1407.78212,0.18536
1409.71059,0.18463
1411.63906,0.18248
1413.56753,0.18273
1415.49600,0.18683
1417.42446,0.19086
1419.35293,0.19099
1421.28140,0.19080
1423.20987,0.19152
1425.13834,0.18914
1427.06681,0.18659
1428.99528,0.18631
1430.92375,0.18393
1432.85221,0.18172
1434.78068,0.18633
1436.70915,0.19293
1438.63762,0.19008
1440.56609,0.18523
1442.49456,0.18283
1444.42303,0.18163
1446.35149,0.18522
1448.27996,0.19171
1450.20843,0.19478
1452.13690,0.19794
1454.06537,0.20387
1455.99384,0.21031
1457.92231,0.20851
1459.85077,0.19997
1461.77924,0.19664
1463.70771,0.19774
1465.63618,0.19679
1467.56465,0.19280
1469.49312,0.19322
1471.42159,0.20028
1473.35006,0.20589
1475.27852,0.20221
1477.20699,0.19647
1479.13546,0.19377
1481.06393,0.19417
1482.99240,0.19509
1484.92087,0.19621
1486.84934,0.19952
1488.77780,0.20196
1490.70627,0.19771
1492.63474,0.19356
1494.56321,0.19639
1496.49168,0.20637
1498.42015,0.21078
1500.34862,0.20223
1502.27709,0.19458
1504.20555,0.19757
1506.13402,0.21353
1508.06249,0.22017
1509.99096,0.20814
1511.91943,0.19685
1513.84790,0.19296
1515.77637,0.19879
1517.70483,0.20681
1519.63330,0.21259
1521.56177,0.21570
1523.49024,0.21187
1525.41871,0.21133
1527.34718,0.21055
1529.27565,0.20215
1531.20412,0.19681
1533.13258,0.20118
1535.06105,0.20653
1536.98952,0.21286
1538.91799,0.23254
1540.84646,0.25111
1542.77493,0.23356
1544.70340,0.21033
1546.63186,0.19940
1548.56033,0.19784
1550.48880,0.19826
1552.41727,0.20168
1554.34574,0.20951
1556.27421,0.21853
1558.20268,0.22781
1560.13115,0.21590
1562.05961,0.19779
1563.98808,0.18936
1565.91655,0.18777
1567.84502,0.19173
1569.77349,0.19570
1571.70196,0.19223
1573.63043,0.18938
1575.55889,0.19407
1577.48736,0.19793
1579.41583,0.19302
1581.34430,0.18627
1583.27277,0.18191
1585.20124,0.18012
1587.12971,0.17989
1589.05818,0.18137
1590.98664,0.18241
1592.91511,0.18111
1594.84358,0.18091
1596.77205,0.18297
1598.70052,0.18296
1600.62899,0.18244
1602.55746,0.18566
1604.48592,0.18870
1606.41439,0.18736
1608.34286,0.18454
1610.27133,0.18433
1612.19980,0.18790
1614.12827,0.19341
1616.05674,0.19813
1617.98521,0.19882
1619.91367,0.19837
1621.84214,0.20004
1623.77061,0.20026
1625.69908,0.19862
1627.62755,0.19762
1629.55602,0.19398
1631.48449,0.19103
1633.41295,0.19614
1635.34142,0.20722
1637.26989,0.20286
1639.19836,0.19339
1641.12683,0.19415
1643.05530,0.20106
1644.98377,0.21220
1646.91223,0.22074
1648.84070,0.21635
1650.76917,0.21937
1652.69764,0.23798
1654.62611,0.23502
1656.55458,0.21724
1658.48305,0.20863
1660.41152,0.20633
1662.33998,0.20647
1664.26845,0.20668
1666.19692,0.20925
1668.12539,0.21660
1670.05386,0.22088
1671.98233,0.21533
1673.91080,0.20898
1675.83926,0.20411
1677.76773,0.20367
1679.69620,0.20964
1681.62467,0.21941
1683.55314,0.22760
1685.48161,0.22151
1687.41008,0.21158
1689.33855,0.20779
1691.26701,0.20738
1693.19548,0.20992
1695.12395,0.21507
1697.05242,0.21640
1698.98089,0.21504
1700.90936,0.21244
1702.83783,0.20681
1704.76629,0.20392
1706.69476,0.20147
1708.62323,0.19527
1710.55170,0.19076
1712.48017,0.19368
1714.40864,0.20273
1716.33711,0.21042
1718.26558,0.20693
1720.19404,0.19854
1722.12251,0.19229
1724.05098,0.18643
1725.97945,0.18451
1727.90792,0.18989
1729.83639,0.19619
1731.76486,0.19902
1733.69332,0.19996
1735.62179,0.19828
1737.55026,0.19820
1739.47873,0.20142
1741.40720,0.20451
1743.33567,0.20360
1745.26414,0.20248
1747.19261,0.20615
1749.12107,0.21085
1751.04954,0.20717
1752.97801,0.19674
1754.90648,0.19020
1756.83495,0.19093
1758.76342,0.19552
1760.69189,0.19838
1762.62035,0.19489
1764.54882,0.18988
1766.47729,0.19122
1768.40576,0.19814
1770.33423,0.20463
1772.26270,0.20508
1774.19117,0.19974
1776.11964,0.19603
1778.04810,0.19775
1779.97657,0.20133
1781.90504,0.20102
1783.83351,0.19932
1785.76198,0.19718
1787.69045,0.19400
1789.61892,0.19421
1791.54738,0.20072
1793.47585,0.20687
1795.40432,0.20343
1797.33279,0.19680
1799.26126,0.19594
1801.18973,0.19806
1803.11820,0.19519
1805.04666,0.19118
1806.97513,0.19118
1808.90360,0.19378
1810.83207,0.19557
1812.76054,0.19348
1814.68901,0.19069
1816.61748,0.19200
1818.54595,0.19478
1820.47441,0.19445
1822.40288,0.19345
1824.33135,0.19529
1826.25982,0.19807
1828.18829,0.20146
1830.11676,0.20250
1832.04523,0.19825
1833.97369,0.19704
1835.90216,0.19982
1837.83063,0.19989
1839.75910,0.19659
1841.68757,0.19497
1843.61604,0.19641
1845.54451,0.19635
1847.47298,0.19436
1849.40144,0.19298
1851.32991,0.19197
1853.25838,0.19221
1855.18685,0.19350
1857.11532,0.19423
1859.04379,0.19495
1860.97226,0.19538
1862.90072,0.19523
1864.82919,0.19747
1866.75766,0.20289
1868.68613,0.20459
1870.61460,0.19829
1872.54307,0.19252
1874.47154,0.19031
1876.40001,0.18834
1878.32847,0.18687
1880.25694,0.18752
1882.18541,0.18832
1884.11388,0.18890
1886.04235,0.19142
1887.97082,0.19522
1889.89929,0.19597
1891.82775,0.19330
1893.75622,0.19215
1895.68469,0.19322
1897.61316,0.19416
1899.54163,0.19312
1901.47010,0.19028
1903.39857,0.18847
1905.32704,0.18807
1907.25550,0.18797
1909.18397,0.18855
1911.11244,0.18952
1913.04091,0.19046
1914.96938,0.19197
1916.89785,0.19314
1918.82632,0.19174
1920.75478,0.19064
1922.68325,0.19213
1924.61172,0.19233
1926.54019,0.19034
1928.46866,0.18922
1930.39713,0.18990
1932.32560,0.19056
1934.25407,0.18966
1936.18253,0.18953
1938.11100,0.19122
1940.03947,0.19142
1941.96794,0.18936
1943.89641,0.18869
1945.82488,0.19057
1947.75335,0.19153
1949.68181,0.19067
1951.61028,0.19083
1953.53875,0.19224
1955.46722,0.19282
1957.39569,0.19225
1959.32416,0.19113
1961.25263,0.19080
1963.18110,0.19176
1965.10956,0.19159
1967.03803,0.18963
1968.96650,0.18854
1970.89497,0.18957
1972.82344,0.19174
1974.75191,0.19356
1976.68038,0.19460
1978.60884,0.19441
1980.53731,0.19306
1982.46578,0.19193
1984.39425,0.19015
1986.32272,0.18760
1988.25119,0.18794
1990.17966,0.19158
1992.10812,0.19412
1994.03659,0.19328
1995.96506,0.19058
1997.89353,0.18838
1999.82200,0.18820
2001.75047,0.18917
2003.67894,0.19020
2005.60741,0.19125
2007.53587,0.19158
2009.46434,0.19074
2011.39281,0.18983
2013.32128,0.18943
2015.24975,0.18961
2017.17822,0.19166
2019.10669,0.19376
2021.03515,0.19215
2022.96362,0.18857
2024.89209,0.18695
2026.82056,0.18687
2028.74903,0.18653
2030.67750,0.18736
2032.60597,0.18933
2034.53444,0.19029
2036.46290,0.19130
2038.39137,0.19279
2040.31984,0.19226
2042.24831,0.19044
2044.17678,0.19075
2046.10525,0.19164
2048.03372,0.19051
2049.96218,0.19053
2051.89065,0.19301
2053.81912,0.19394
2055.74759,0.19203
2057.67606,0.18942
2059.60453,0.18827
2061.53300,0.19028
2063.46147,0.19360
2065.38993,0.19480
2067.31840,0.19491
2069.24687,0.19593
2071.17534,0.19683
2073.10381,0.19604
2075.03228,0.19399
2076.96075,0.19235
2078.88921,0.19199
2080.81768,0.19349
2082.74615,0.19537
2084.67462,0.19471
2086.60309,0.19287
2088.53156,0.19275
2090.46003,0.19283
2092.38850,0.19029
2094.31696,0.18729
2096.24543,0.18817
2098.17390,0.19063
2100.10237,0.19081
2102.03084,0.19117
2103.95931,0.19328
2105.88778,0.19377
2107.81624,0.19121
2109.74471,0.18888
2111.67318,0.18911
2113.60165,0.19102
2115.53012,0.19217
2117.45859,0.19132
2119.38706,0.19035
2121.31553,0.19140
2123.24399,0.19370
2125.17246,0.19514
2127.10093,0.19473
2129.02940,0.19205
2130.95787,0.18983
2132.88634,0.19091
2134.81481,0.19243
2136.74327,0.19284
2138.67174,0.19331
2140.60021,0.19269
2142.52868,0.19086
2144.45715,0.18974
2146.38562,0.18948
2148.31409,0.19042
2150.24255,0.19187
2152.17102,0.19126
2154.09949,0.19099
2156.02796,0.19300
2157.95643,0.19428
2159.88490,0.19423
2161.81337,0.19441
2163.74184,0.19438
2165.67030,0.19382
2167.59877,0.19445
2169.52724,0.19517
2171.45571,0.19309
2173.38418,0.19062
2175.31265,0.19115
2177.24112,0.19347
2179.16958,0.19504
2181.09805,0.19428
2183.02652,0.19200
2184.95499,0.19179
2186.88346,0.19389
2188.81193,0.19531
2190.74040,0.19612
2192.66887,0.19633
2194.59733,0.19448
2196.52580,0.19317
2198.45427,0.19441
2200.38274,0.19433
2202.31121,0.19204
2204.23968,0.19167
2206.16815,0.19429
2208.09661,0.19782
2210.02508,0.19868
2211.95355,0.19520
2213.88202,0.19239
2215.81049,0.19359
2217.73896,0.19520
2219.66743,0.19515
2221.59590,0.19556
2223.52436,0.19639
2225.45283,0.19585
2227.38130,0.19405
2229.30977,0.19184
2231.23824,0.19137
2233.16671,0.19328
2235.09518,0.19449
2237.02364,0.19302
2238.95211,0.19036
2240.88058,0.18950
2242.80905,0.19120
2244.73752,0.19377
2246.66599,0.19522
2248.59446,0.19431
2250.52293,0.19215
2252.45139,0.19102
2254.37986,0.19092
2256.30833,0.19069
2258.23680,0.19032
2260.16527,0.18980
2262.09374,0.18898
2264.02221,0.18856
2265.95067,0.18898
2267.87914,0.18947
2269.80761,0.18959
2271.73608,0.18889
2273.66455,0.18847
2275.59302,0.19059
2277.52149,0.19365
2279.44996,0.19560
2281.37842,0.19629
2283.30689,0.19620
2285.23536,0.19505
2287.16383,0.19154
2289.09230,0.18868
2291.02077,0.19009
2292.94924,0.19158
2294.87770,0.18735
2296.80617,0.18105
2298.73464,0.18008
2300.66311,0.18214
2302.59158,0.18212
2304.52005,0.18242
2306.44852,0.18449
2308.37699,0.18504
2310.30545,0.18329
2312.23392,0.18016
2314.16239,0.17611
2316.09086,0.17333
2318.01933,0.17158
2319.94780,0.16873
2321.87627,0.16799
2323.80473,0.16768
2325.73320,0.15998
2327.66167,0.15300
2329.59014,0.15804
2331.51861,0.16947
2333.44708,0.17669
2335.37555,0.17776
2337.30401,0.17646
2339.23248,0.17015
2341.16095,0.16036
2343.08942,0.16156
2345.01789,0.17208
2346.94636,0.17865
2348.87483,0.17981
2350.80330,0.17577
2352.73176,0.16653
2354.66023,0.15893
2356.58870,0.16237
2358.51717,0.17449
2360.44564,0.17879
2362.37411,0.16497
2364.30258,0.15144
2366.23104,0.15920
2368.15951,0.16867
2370.08798,0.16643
2372.01645,0.16747
2373.94492,0.17431
2375.87339,0.17933
2377.80186,0.18037
2379.73033,0.17900
2381.65879,0.17901
2383.58726,0.18340
2385.51573,0.18917
2387.44420,0.19174
2389.37267,0.19199
2391.30114,0.19237
2393.22961,0.19198
2395.15807,0.19083
2397.08654,0.19145
2399.01501,0.19283
2400.94348,0.19302
2402.87195,0.19281
2404.80042,0.19208
2406.72889,0.19102
2408.65736,0.19071
2410.58582,0.19157
2412.51429,0.19463
2414.44276,0.19883
2416.37123,0.20028
2418.29970,0.19876
2420.22817,0.19676
2422.15664,0.19441
2424.08510,0.19181
2426.01357,0.19040
2427.94204,0.19097
2429.87051,0.19255
2431.79898,0.19404
2433.72745,0.19427
2435.65592,0.19290
2437.58439,0.19256
2439.51285,0.19378
2441.44132,0.19399
2443.36979,0.19250
2445.29826,0.19163
2447.22673,0.19317
2449.15520,0.19671
2451.08367,0.20160
2453.01213,0.20428
2454.94060,0.20084
2456.86907,0.19519
2458.79754,0.19304
2460.72601,0.19312
2462.65448,0.19233
2464.58295,0.19103
2466.51142,0.19037
2468.43988,0.18937
2470.36835,0.18755
2472.29682,0.18774
2474.22529,0.19016
2476.15376,0.19132
2478.08223,0.19174
2480.01070,0.19387
2481.93916,0.19620
2483.86763,0.19630
2485.79610,0.19411
2487.72457,0.19188
2489.65304,0.19209
2491.58151,0.19294
2493.50998,0.19243
2495.43844,0.19316
2497.36691,0.19464
2499.29538,0.19455
2501.22385,0.19474
2503.15232,0.19682
2505.08079,0.19954
2507.00926,0.19969
2508.93773,0.19674
2510.86619,0.19536
2512.79466,0.19766
2514.72313,0.19941
2516.65160,0.19757
2518.58007,0.19543
2520.50854,0.19577
2522.43701,0.19611
2524.36547,0.19556
2526.29394,0.19585
2528.22241,0.19651
2530.15088,0.19632
2532.07935,0.19585
2534.00782,0.19678
2535.93629,0.19850
2537.86476,0.19984
2539.79322,0.20056
2541.72169,0.19887
2543.65016,0.19660
2545.57863,0.19637
2547.50710,0.19590
2549.43557,0.19577
2551.36404,0.19706
2553.29250,0.19655
2555.22097,0.19434
2557.14944,0.19249
2559.07791,0.18971
2561.00638,0.18744
2562.93485,0.18956
2564.86332,0.19472
2566.79179,0.19805
2568.72025,0.19858
2570.64872,0.19909
2572.57719,0.19944
2574.50566,0.19977
2576.43413,0.20198
2578.36260,0.20277
2580.29107,0.20037
2582.21953,0.19828
2584.14800,0.19708
2586.07647,0.19542
2588.00494,0.19313
2589.93341,0.19145
2591.86188,0.19215
2593.79035,0.19377
2595.71882,0.19310
2597.64728,0.19179
2599.57575,0.19434
2601.50422,0.19750
2603.43269,0.19538
2605.36116,0.19124
2607.28963,0.19033
2609.21810,0.19067
2611.14656,0.18837
2613.07503,0.18587
2615.00350,0.18704
2616.93197,0.18864
2618.86044,0.18814
2620.78891,0.18834
2622.71738,0.19118
2624.64585,0.19520
2626.57431,0.19634
2628.50278,0.19331
2630.43125,0.19004
2632.35972,0.19047
2634.28819,0.19408
2636.21666,0.19713
2638.14513,0.19839
2640.07359,0.19976
2642.00206,0.20125
2643.93053,0.20047
2645.85900,0.19877
2647.78747,0.19892
2649.71594,0.19896
2651.64441,0.19672
2653.57288,0.19336
2655.50134,0.19382
2657.42981,0.20067
2659.35828,0.20634
2661.28675,0.20388
2663.21522,0.19834
2665.14369,0.19692
2667.07216,0.19890
2669.00062,0.20078
2670.92909,0.20157
2672.85756,0.20120
2674.78603,0.19959
2676.71450,0.19768
2678.64297,0.19724
2680.57144,0.19772
2682.49990,0.19590
2684.42837,0.19277
2686.35684,0.19386
2688.28531,0.19835
2690.21378,0.20052
2692.14225,0.19973
2694.07072,0.19887
2695.99919,0.20009
2697.92765,0.20249
2699.85612,0.20181
2701.78459,0.19801
2703.71306,0.19766
2705.64153,0.20292
2707.57000,0.20693
2709.49847,0.20462
2711.42693,0.19952
2713.35540,0.19699
2715.28387,0.19672
2717.21234,0.19639
2719.14081,0.19761
2721.06928,0.20004
2722.99775,0.20046
2724.92622,0.20015
2726.85468,0.20082
2728.78315,0.20137
2730.71162,0.20160
2732.64009,0.20115
2734.56856,0.19956
2736.49703,0.19861
2738.42550,0.19932
2740.35396,0.19987
2742.28243,0.20068
2744.21090,0.20365
2746.13937,0.20610
2748.06784,0.20531
2749.99631,0.20425
2751.92478,0.20496
2753.85325,0.20536
2755.78171,0.20567
2757.71018,0.20734
2759.63865,0.20887
2761.56712,0.20786
2763.49559,0.20461
2765.42406,0.20374
2767.35253,0.20950
2769.28099,0.21613
2771.20946,0.21527
2773.13793,0.20997
2775.06640,0.20656
2776.99487,0.20656
2778.92334,0.20949
2780.85181,0.21210
2782.78028,0.21156
2784.70874,0.21150
2786.63721,0.21339
2788.56568,0.21101
2790.49415,0.20568
2792.42262,0.20395
2794.35109,0.20533
2796.27956,0.20715
2798.20802,0.20702
2800.13649,0.20575
2802.06496,0.20569
2803.99343,0.20540
2805.92190,0.20481
2807.85037,0.20494
2809.77884,0.20659
2811.70731,0.20986
2813.63577,0.21029
2815.56424,0.20725
2817.49271,0.20651
2819.42118,0.20769
2821.34965,0.20712
2823.27812,0.20646
2825.20659,0.20776
2827.13505,0.20951
2829.06352,0.21017
2830.99199,0.20976
2832.92046,0.20905
2834.84893,0.21065
2836.77740,0.21378
2838.70587,0.21340
2840.63433,0.20994
2842.56280,0.20832
2844.49127,0.20944
2846.41974,0.21120
2848.34821,0.21173
2850.27668,0.20916
2852.20515,0.20545
2854.13362,0.20410
2856.06208,0.20502
2857.99055,0.20733
2859.91902,0.20995
2861.84749,0.21154
2863.77596,0.21155
2865.70443,0.21013
2867.63290,0.20704
2869.56136,0.20408
2871.48983,0.20514
2873.41830,0.20798
2875.34677,0.20999
2877.27524,0.21164
2879.20371,0.20897
2881.13218,0.20305
2883.06065,0.20151
2884.98911,0.20425
2886.91758,0.20594
2888.84605,0.20497
2890.77452,0.20278
2892.70299,0.20218
2894.63146,0.20406
2896.55993,0.20647
2898.48839,0.20732
2900.41686,0.20622
2902.34533,0.20499
2904.27380,0.20327
2906.20227,0.20203
2908.13074,0.20322
2910.05921,0.20391
2911.98768,0.20447
2913.91614,0.20477
2915.84461,0.20182
2917.77308,0.20112
2919.70155,0.20462
2921.63002,0.20607
2923.55849,0.20889
2925.48696,0.21932
2927.41542,0.22781
2929.34389,0.22093
2931.27236,0.20636
2933.20083,0.20107
2935.12930,0.20030
2937.05777,0.19699
2938.98624,0.20031
2940.91471,0.20753
2942.84317,0.20702
2944.77164,0.19843
2946.70011,0.18923
2948.62858,0.18950
2950.55705,0.19797
2952.48552,0.20559
2954.41399,0.20753
2956.34245,0.19785
2958.27092,0.18638
2960.19939,0.19227
2962.12786,0.20876
2964.05633,0.21790
2965.98480,0.21502
2967.91327,0.20805
2969.84174,0.20734
2971.77020,0.21020
2973.69867,0.21154
2975.62714,0.21088
2977.55561,0.20545
2979.48408,0.20121
2981.41255,0.20509
2983.34102,0.21285
2985.26948,0.21598
2987.19795,0.20986
2989.12642,0.20553
2991.05489,0.21149
2992.98336,0.21768
2994.91183,0.21864
2996.84030,0.21639
2998.76877,0.21418
3000.69723,0.21628
3002.62570,0.22019
3004.55417,0.21942
3006.48264,0.20982
3008.41111,0.19650
3010.33958,0.18491
3012.26805,0.16759
3014.19651,0.13807
3016.12498,0.11359
3018.05345,0.12688
3019.98192,0.17245
3021.91039,0.20683
3023.83886,0.21555
3025.76733,0.21363
3027.69579,0.21089
3029.62426,0.21279
3031.55273,0.21908
3033.48120,0.22029
3035.40967,0.21402
3037.33814,0.20991
3039.26661,0.21180
3041.19508,0.21462
3043.12354,0.21805
3045.05201,0.21842
3046.98048,0.21049
3048.90895,0.20591
3050.83742,0.21092
3052.76589,0.21422
3054.69436,0.20743
3056.62282,0.19532
3058.55129,0.19560
3060.47976,0.20777
3062.40823,0.21345
3064.33670,0.20869
3066.26517,0.19962
3068.19364,0.19854
3070.12211,0.20892
3072.05057,0.21766
3073.97904,0.21769
3075.90751,0.21261
3077.83598,0.21089
3079.76445,0.21247
3081.69292,0.20782
3083.62139,0.19416
3085.54985,0.18275
3087.47832,0.18781
3089.40679,0.20311
3091.33526,0.21135
3093.26373,0.20679
3095.19220,0.20134
3097.12067,0.20762
3099.04914,0.21800
3100.97760,0.21860
3102.90607,0.20659
3104.83454,0.19636
3106.76301,0.19892
3108.69148,0.20578
3110.61995,0.20636
3112.54842,0.20174
3114.47688,0.20395
3116.40535,0.21455
3118.33382,0.22065
3120.26229,0.21480
3122.19076,0.20497
3124.11923,0.20251
3126.04770,0.20528
3127.97617,0.20833
3129.90463,0.20950
3131.83310,0.20903
3133.76157,0.20942
3135.69004,0.21061
3137.61851,0.21029
3139.54698,0.20813
3141.47545,0.20934
3143.40391,0.21272
3145.33238,0.21214
3147.26085,0.20966
3149.18932,0.21071
3151.11779,0.21617
3153.04626,0.22119
3154.97473,0.22103
3156.90320,0.21945
3158.83166,0.22051
3160.76013,0.21891
3162.68860,0.21582
3164.61707,0.21744
3166.54554,0.22042
3168.47401,0.22130
3170.40248,0.21945
3172.33094,0.21563
3174.25941,0.21514
3176.18788,0.21913
3178.11635,0.22332
3180.04482,0.22574
3181.97329,0.22518
3183.90176,0.22230
3185.83022,0.22015
3187.75869,0.21782
3189.68716,0.21311
3191.61563,0.20900
3193.54410,0.21173
3195.47257,0.22187
3197.40104,0.22945
3199.32951,0.22714
3201.25797,0.22237
3203.18644,0.22080
3205.11491,0.21857
3207.04338,0.21639
3208.97185,0.21687
3210.90032,0.21889
3212.82879,0.22137
3214.75725,0.22304
3216.68572,0.22420
3218.61419,0.22436
3220.54266,0.22167
3222.47113,0.21888
3224.39960,0.21705
3226.32807,0.21362
3228.25654,0.21141
3230.18500,0.21366
3232.11347,0.21647
3234.04194,0.21725
3235.97041,0.21936
3237.89888,0.22239
3239.82735,0.22119
3241.75582,0.21610
3243.68428,0.21416
3245.61275,0.21688
3247.54122,0.21716
3249.46969,0.21359
3251.39816,0.21374
3253.32663,0.21937
3255.25510,0.22262
3257.18357,0.22208
3259.11203,0.22174
3261.04050,0.22161
3262.96897,0.22003
3264.89744,0.21495
3266.82591,0.20863
3268.75438,0.20613
3270.68285,0.20782
3272.61131,0.21029
3274.53978,0.21244
3276.46825,0.21467
3278.39672,0.21657
3280.32519,0.21828
3282.25366,0.21881
3284.18213,0.21925
3286.11060,0.22106
3288.03906,0.22168
3289.96753,0.21918
3291.89600,0.21560
3293.82447,0.21401
3295.75294,0.21404
3297.68141,0.21378
3299.60988,0.21312
3301.53834,0.21319
3303.46681,0.21371
3305.39528,0.21176
3307.32375,0.20683
3309.25222,0.20639
3311.18069,0.21274
3313.10916,0.21515
3315.03763,0.21184
3316.96609,0.21034
3318.89456,0.21249
3320.82303,0.21519
3322.75150,0.21464
3324.67997,0.21230
3326.60844,0.20932
3328.53691,0.20529
3330.46537,0.20631
3332.39384,0.21417
3334.32231,0.22057
3336.25078,0.22175
3338.17925,0.22290
3340.10772,0.22372
3342.03619,0.21950
3343.96466,0.21560
3345.89312,0.21963
3347.82159,0.22651
3349.75006,0.22657
3351.67853,0.22239
3353.60700,0.22071
3355.53547,0.22005
3357.46394,0.22075
3359.39240,0.22254
3361.32087,0.22148
3363.24934,0.22012
3365.17781,0.21951
3367.10628,0.21581
3369.03475,0.21127
3370.96322,0.21098
3372.89168,0.21427
3374.82015,0.21632
3376.74862,0.21557
3378.67709,0.21364
3380.60556,0.21286
3382.53403,0.21609
3384.46250,0.22086
3386.39097,0.22430
3388.31943,0.22738
3390.24790,0.22677
3392.17637,0.22222
3394.10484,0.21820
3396.03331,0.21517
3397.96178,0.21401
3399.89025,0.21476
3401.81871,0.21486
3403.74718,0.21392
3405.67565,0.21265
3407.60412,0.21290
3409.53259,0.21321
3411.46106,0.20978
3413.38953,0.20681
3415.31800,0.20698
3417.24646,0.20751
3419.17493,0.20885
3421.10340,0.20838
3423.03187,0.20433
3424.96034,0.20120
3426.88881,0.20071
3428.81728,0.20339
3430.74574,0.20730
3432.67421,0.20643
3434.60268,0.20278
3436.53115,0.20399
3438.45962,0.20884
3440.38809,0.21058
3442.31656,0.20754
3444.24503,0.20529
3446.17349,0.20703
3448.10196,0.20626
3450.03043,0.20107
3451.95890,0.19878
3453.88737,0.20025
3455.81584,0.20203
3457.74431,0.20259
3459.67277,0.19907
3461.60124,0.19601
3463.52971,0.20148
3465.45818,0.20818
3467.38665,0.20596
3469.31512,0.19810
3471.24359,0.19211
3473.17206,0.19026
3475.10052,0.19057
3477.02899,0.18970
3478.95746,0.19005
3480.88593,0.19654
3482.81440,0.20164
3484.74287,0.19844
3486.67134,0.19278
3488.59980,0.18733
3490.52827,0.18400
3492.45674,0.18846
3494.38521,0.19568
3496.31368,0.19560
3498.24215,0.19241
3500.17062,0.19222
3502.09909,0.19259
3504.02755,0.19109
3505.95602,0.18764
3507.88449,0.18463
3509.81296,0.18240
3511.74143,0.18201
3513.66990,0.18427
3515.59837,0.18386
3517.52683,0.18166
3519.45530,0.18468
3521.38377,0.18974
3523.31224,0.18926
3525.24071,0.18692
3527.16918,0.18713
3529.09765,0.18506
3531.02611,0.17926
3532.95458,0.17343
3534.88305,0.17014
3536.81152,0.17160
3538.73999,0.17612
3540.66846,0.17586
3542.59693,0.16917
3544.52540,0.16621
3546.45386,0.17246
3548.38233,0.17836
3550.31080,0.17854
3552.23927,0.17690
3554.16774,0.17682
3556.09621,0.17465
3558.02468,0.16604
3559.95314,0.15707
3561.88161,0.15441
3563.81008,0.15739
3565.73855,0.16469
3567.66702,0.17344
3569.59549,0.17819
3571.52396,0.17721
3573.45243,0.17254
3575.38089,0.16604
3577.30936,0.15908
3579.23783,0.15495
3581.16630,0.15370
3583.09477,0.15268
3585.02324,0.15124
3586.95171,0.15250
3588.88017,0.15748
3590.80864,0.15882
3592.73711,0.15619
3594.66558,0.15461
3596.59405,0.15657
3598.52252,0.15842
3600.45099,0.15518
3602.37946,0.15020
3604.30792,0.15229
3606.23639,0.16050
3608.16486,0.16560
3610.09333,0.16403
3612.02180,0.16372
3613.95027,0.16591
3615.87874,0.16349
3617.80720,0.15779
3619.73567,0.15348
3621.66414,0.14936
3623.59261,0.14598
3625.52108,0.14634
3627.44955,0.15119
3629.37802,0.15434
3631.30649,0.15427
3633.23495,0.15719
3635.16342,0.15811
3637.09189,0.15278
3639.02036,0.14502
3640.94883,0.14069
3642.87730,0.14257
3644.80577,0.15034
3646.73423,0.16215
3648.66270,0.16908
3650.59117,0.16154
3652.51964,0.15513
3654.44811,0.15519
3656.37658,0.15463
3658.30505,0.15001
3660.23352,0.14496
3662.16198,0.13969
3664.09045,0.13589
3666.01892,0.13517
3667.94739,0.13676
3669.87586,0.14097
3671.80433,0.14417
3673.73280,0.14596
3675.66126,0.14916
3677.58973,0.15014
3679.51820,0.14682
3681.44667,0.14039
3683.37514,0.13409
3685.30361,0.13078
3687.23208,0.13202
3689.16055,0.13628
3691.08901,0.13182
3693.01748,0.12273
3694.94595,0.12071
3696.87442,0.12622
3698.80289,0.13371
3700.73136,0.13758
3702.65983,0.13620
3704.58829,0.13132
3706.51676,0.12813
3708.44523,0.13353
3710.37370,0.14585
3712.30217,0.15011
3714.23064,0.14141
3716.15911,0.12703
3718.08757,0.11435
3720.01604,0.11535
3721.94451,0.13060
3723.87298,0.14135
3725.80145,0.14003
3727.72992,0.13729
3729.65839,0.13781
3731.58686,0.14174
3733.51532,0.14642
3735.44379,0.14601
3737.37226,0.14314
3739.30073,0.14212
3741.22920,0.14270
3743.15767,0.14008
3745.08614,0.13691
3747.01460,0.14718
3748.94307,0.16320
3750.87154,0.16640
3752.80001,0.15133
3754.72848,0.14022
3756.65695,0.13537
3758.58542,0.13220
3760.51389,0.13014
3762.44235,0.13085
3764.37082,0.13311
3766.29929,0.13256
3768.22776,0.13041
3770.15623,0.13079
3772.08470,0.13016
3774.01317,0.12754
3775.94163,0.12827
3777.87010,0.13349
3779.79857,0.13469
3781.72704,0.13116
3783.65551,0.13133
3785.58398,0.13209
3787.51245,0.12971
3789.44092,0.12739
3791.36938,0.12676
3793.29785,0.12723
3795.22632,0.12717
3797.15479,0.12800
3799.08326,0.13362
3801.01173,0.13658
3802.94020,0.12764
3804.86866,0.12461
3806.79713,0.12948
3808.72560,0.12867
3810.65407,0.12583
3812.58254,0.12683
3814.51101,0.13143
3816.43948,0.13525
3818.36795,0.13500
3820.29641,0.13610
3822.22488,0.13305
3824.15335,0.12920
3826.08182,0.13123
3828.01029,0.13213
3829.93876,0.13075
3831.86723,0.13258
3833.79569,0.13704
3835.72416,0.14438
3837.65263,0.15213
3839.58110,0.14970
3841.50957,0.14074
3843.43804,0.13066
3845.36651,0.12409
3847.29498,0.12505
3849.22344,0.12766
3851.15191,0.12749
3853.08038,0.12563
3855.00885,0.12457
3856.93732,0.12716
3858.86579,0.13129
3860.79426,0.13632
3862.72272,0.14264
3864.65119,0.13989
3866.57966,0.12885
3868.50813,0.12591
3870.43660,0.12883
3872.36507,0.12801
3874.29354,0.12633
3876.22200,0.12676
3878.15047,0.13108
3880.07894,0.13546
3882.00741,0.13161
3883.93588,0.12755
3885.86435,0.12629
3887.79282,0.12119
3889.72129,0.11860
3891.64975,0.12188
3893.57822,0.12149
3895.50669,0.11759
3897.43516,0.11923
3899.36363,0.12813
3901.29210,0.13809
3903.22057,0.14027
3905.14903,0.13258
3907.07750,0.12630
3909.00597,0.12466
3910.93444,0.12282
3912.86291,0.11949
3914.79138,0.11721
3916.71985,0.11722
3918.64832,0.11613
3920.57678,0.11326
3922.50525,0.11032
3924.43372,0.10621
3926.36219,0.10170
3928.29066,0.10145
3930.21913,0.10715
3932.14760,0.11274
3934.07606,0.11364
3936.00453,0.11288
3937.93300,0.11262
3939.86147,0.11119
3941.78994,0.10514
3943.71841,0.09927
3945.64688,0.10155
3947.57535,0.10782
3949.50381,0.10976
3951.43228,0.10712
3953.36075,0.10654
3955.28922,0.10752
3957.21769,0.10562
3959.14616,0.10427
3961.07463,0.10753
3963.00309,0.11185
3964.93156,0.11173
3966.86003,0.10814
3968.78850,0.10757
3970.71697,0.11016
3972.64544,0.11066
3974.57391,0.10995
3976.50238,0.10847
3978.43084,0.10472
3980.35931,0.10223
3982.28778,0.10269
3984.21625,0.10356
3986.14472,0.10350
3988.07319,0.10370
3990.00166,0.10389
3991.93012,0.10433
3993.85859,0.10653
3995.78706,0.10558
3997.71553,0.10197
3999.64400,0.10202
4001.57247,0.10152
4003.50094,0.09911
4005.42941,0.10207
4007.35787,0.10900
4009.28634,0.11163
4011.21481,0.10841
4013.14328,0.10486
4015.07175,0.10390
4017.00022,0.10269
4018.92869,0.10023
4020.85715,0.09852
4022.78562,0.09818
4024.71409,0.09831
4026.64256,0.09817
4028.57103,0.09910
4030.49950,0.10001
4032.42797,0.10159
4034.35644,0.10789
4036.28490,0.11218
4038.21337,0.10703
4040.14184,0.10162
4042.07031,0.10314
4043.99878,0.10281
4045.92725,0.09776
4047.85572,0.09746
4049.78418,0.10169
4051.71265,0.10223
4053.64112,0.09760
4055.56959,0.09167
4057.49806,0.08846
4059.42653,0.08793
4061.35500,0.08862
4063.28346,0.09252
4065.21193,0.09544
4067.14040,0.09252
4069.06887,0.09050
4070.99734,0.09233
4072.92581,0.09147
4074.85428,0.08669
4076.78275,0.08709
4078.71121,0.09468
4080.63968,0.09859
4082.56815,0.09775
4084.49662,0.09772
4086.42509,0.09502
4088.35356,0.08860
4090.28203,0.08592
4092.21049,0.09050
4094.13896,0.09646
4096.06743,0.09860
4097.99590,0.09794
4099.92437,0.09482
4101.85284,0.08932
4103.78131,0.08572
4105.70978,0.08620
4107.63824,0.08755
4109.56671,0.08813
4111.49518,0.09092
4113.42365,0.09508
4115.35212,0.09433
4117.28059,0.08972
4119.20906,0.08918
4121.13752,0.09115
4123.06599,0.08849
4124.99446,0.08321
4126.92293,0.07907
4128.85140,0.07696
4130.77987,0.07702
4132.70834,0.07758
4134.63681,0.08134
4136.56527,0.08816
4138.49374,0.09270
4140.42221,0.09744
4142.35068,0.10490
4144.27915,0.10857
4146.20762,0.10277
4148.13609,0.09038
4150.06455,0.08102
4151.99302,0.07996
4153.92149,0.08193
4155.84996,0.08243
4157.77843,0.08194
4159.70690,0.08118
4161.63537,0.08289
4163.56384,0.08529
4165.49230,0.08185
4167.42077,0.07450
4169.34924,0.07044
4171.27771,0.07122
4173.20618,0.07415
4175.13465,0.07760
4177.06312,0.08105
4178.99158,0.08240
4180.92005,0.08203
4182.84852,0.08293
4184.77699,0.08318
4186.70546,0.08265
4188.63393,0.08656
4190.56240,0.09552
4192.49087,0.10309
4194.41933,0.10341
4196.34780,0.09847
4198.27627,0.09246
4200.20474,0.08638
4202.13321,0.08136
4204.06168,0.07836
4205.99015,0.07809
4207.91861,0.07761
4209.84708,0.07383
4211.77555,0.07106
4213.70402,0.07067
4215.63249,0.06833
4217.56096,0.06413
4219.48943,0.06425
4221.41789,0.07101
4223.34636,0.07612
4225.27483,0.07205
4227.20330,0.06243
4229.13177,0.05791
4231.06024,0.06276
4232.98871,0.06798
4234.91718,0.06551
4236.84564,0.06110
4238.77411,0.06406
4240.70258,0.06904
4242.63105,0.06588
4244.55952,0.05980
4246.48799,0.06124
4248.41646,0.06761
4250.34492,0.06863
4252.27339,0.06689
4254.20186,0.07212
4256.13033,0.07856
4258.05880,0.07836
4259.98727,0.07484
4261.91574,0.06919
4263.84421,0.06414
4265.77267,0.06509
4267.70114,0.06921
4269.62961,0.06981
4271.55808,0.06684
4273.48655,0.06595
4275.41502,0.06695
4277.34349,0.06623
4279.27195,0.06475
4281.20042,0.06341
4283.12889,0.06298
4285.05736,0.06362
4286.98583,0.06361
4288.91430,0.06319
4290.84277,0.06355
4292.77124,0.06232
4294.69970,0.05783
4296.62817,0.05497
4298.55664,0.05737
4300.48511,0.06152
4302.41358,0.06284
4304.34205,0.05961
4306.27052,0.05393
4308.19898,0.05039
4310.12745,0.04845
4312.05592,0.04835
4313.98439,0.05523
4315.91286,0.06369
4317.84133,0.06342
4319.76980,0.05599
4321.69827,0.05040
4323.62673,0.04930
4325.55520,0.04831
4327.48367,0.04725
4329.41214,0.04722
4331.34061,0.04715
4333.26908,0.05079
4335.19755,0.05622
4337.12601,0.05389
4339.05448,0.04701
4340.98295,0.04508
4342.91142,0.04684
4344.83989,0.04871
4346.76836,0.05397
4348.69683,0.06283
4350.62530,0.06861
4352.55376,0.06748
4354.48223,0.06079
4356.41070,0.05692
4358.33917,0.05951
4360.26764,0.05978
4362.19611,0.05552
4364.12458,0.05002
4366.05304,0.04529
4367.98151,0.04675
4369.90998,0.05328
4371.83845,0.05529
4373.76692,0.05154
4375.69539,0.04956
4377.62386,0.04809
4379.55232,0.04054
4381.48079,0.03471
4383.40926,0.04091
4385.33773,0.05027
4387.26620,0.05060
4389.19467,0.04555
4391.12314,0.04470
4393.05161,0.04672
4394.98007,0.04510
4396.90854,0.03897
4398.83701,0.03177
4400.76548,0.02927
4402.69395,0.03216
4404.62242,0.03687
4406.55089,0.03913
4408.47935,0.03481
4410.40782,0.02883
4412.33629,0.02807
4414.26476,0.03041
4416.19323,0.03227
4418.12170,0.03520
4420.05017,0.03950
4421.97864,0.04003
4423.90710,0.03410
4425.83557,0.02712
4427.76404,0.02731
4429.69251,0.03484
4431.62098,0.04041
4433.54945,0.03808
4435.47792,0.03529
4437.40638,0.03977
4439.33485,0.04580
4441.26332,0.04378
4443.19179,0.03467
4445.12026,0.03031
4447.04873,0.03478
4448.97720,0.03674
4450.90567,0.03155
4452.83413,0.02706
4454.76260,0.02468
4456.69107,0.02221
4458.61954,0.01958
4460.54801,0.01517
4462.47648,0.01658
4464.40495,0.02675
4466.33341,0.03205
4468.26188,0.02891
4470.19035,0.02339
4472.11882,0.01825
4474.04729,0.02240
4475.97576,0.03536
4477.90423,0.03826
4479.83270,0.02895
4481.76116,0.02290
4483.68963,0.02553
4485.61810,0.03031
4487.54657,0.03132
4489.47504,0.03004
4491.40351,0.02949
4493.33198,0.02936
4495.26044,0.02752
4497.18891,0.02562
4499.11738,0.02281
4501.04585,0.01528
4502.97432,0.01301
4504.90279,0.02074
4506.83126,0.02784
4508.75973,0.02931
4510.68819,0.02608
4512.61666,0.02212
4514.54513,0.02297
4516.47360,0.03042
4518.40207,0.03659
4520.33054,0.03346
4522.25901,0.02794
4524.18747,0.02458
4526.11594,0.02173
4528.04441,0.01871
4529.97288,0.01281
4531.90135,0.00946
4533.82982,0.01137
4535.75829,0.01268
4537.68676,0.01291
4539.61522,0.01307
4541.54369,0.01460
4543.47216,0.01591
4545.40063,0.01176
4547.32910,0.00831
4549.25757,0.00979
4551.18604,0.00692
4553.11450,-0.00009
4555.04297,-0.00225
4556.97144,0.00190
4558.89991,0.01051
4560.82838,0.01778
4562.75685,0.01765
4564.68532,0.01347
4566.61378,0.01002
4568.54225,0.00934
4570.47072,0.01167
4572.39919,0.01316
4574.32766,0.01036
4576.25613,0.00211
4578.18460,-0.00057
4580.11307,0.01125
4582.04153,0.01939
4583.97000,0.01786
4585.89847,0.02136
4587.82694,0.02616
4589.75541,0.02265
4591.68388,0.01224
4593.61235,0.00236
4595.54081,0.00240
4597.46928,0.00992
4599.39775,0.01095
4601.32622,0.00786
4603.25469,0.01539
4605.18316,0.02495
4607.11163,0.02037
4609.04010,0.01034
4610.96856,0.00905
4612.89703,0.01731
4614.82550,0.02542
4616.75397,0.02588
4618.68244,0.02187
4620.61091,0.01739
4622.53938,0.01524
4624.46784,0.01615
4626.39631,0.01682
4628.32478,0.01887
4630.25325,0.02130
4632.18172,0.01778
4634.11019,0.01158
4636.03866,0.01192
4637.96713,0.01567
4639.89559,0.01378
4641.82406,0.01105
4643.75253,0.01349
4645.68100,0.01621
4647.60947,0.01460
4649.53794,0.00750
4651.46641,0.00319
4653.39487,0.00979
4655.32334,0.01787
4657.25181,0.01758
4659.18028,0.01240
4661.10875,0.00765
4663.03722,0.00910
4664.96569,0.01817
4666.89416,0.02512
4668.82262,0.02719
4670.75109,0.02581
4672.67956,0.01899
4674.60803,0.01336
4676.53650,0.00864
4678.46497,0.00078
4680.39344,-0.00291
4682.32190,0.00071
4684.25037,0.00756
4686.17884,0.01110
4688.10731,0.00822
4690.03578,0.00457
4691.96425,0.00667
4693.89272,0.01369
4695.82119,0.01846
4697.74965,0.01981
4699.67812,0.02251
4701.60659,0.02212
4703.53506,0.01617
4705.46353,0.01492
4707.39200,0.01650
4709.32047,0.01259
4711.24893,0.01369
4713.17740,0.02413
4715.10587,0.02662
4717.03434,0.01910
4718.96281,0.01715
4720.89128,0.01948
4722.81975,0.01933
4724.74821,0.01984
4726.67668,0.01960
4728.60515,0.01360
4730.53362,0.00253
4732.46209,-0.00634
4734.39056,-0.00588
4736.31903,0.00124
4738.24750,0.00921
4740.17596,0.01315
4742.10443,0.00724
4744.03290,0.00085
4745.96137,0.00572
4747.88984,0.01256
4749.81831,0.01401
4751.74678,0.01472
4753.67524,0.01791
4755.60371,0.02126
4757.53218,0.01834
4759.46065,0.01274
4761.38912,0.01469
4763.31759,0.01744
4765.24606,0.00827
4767.17453,-0.00164
4769.10299,0.00340
4771.03146,0.01377
4772.95993,0.01783
4774.88840,0.01915
4776.81687,0.01488
4778.74534,0.00426
4780.67381,0.00093
4782.60227,0.00401
4784.53074,0.00281
4786.45921,0.00027
4788.38768,-0.00044
4790.31615,0.00086
4792.24462,0.00773
4794.17309,0.01261
4796.10156,0.00644
4798.03002,0.00318
4799.95849,0.00935
4801.88696,0.01186
4803.81543,0.01036
4805.74390,0.01262
4807.67237,0.01241
4809.60084,0.00532
4811.52930,0.00239
4813.45777,0.00658
4815.38624,0.00847
4817.31471,0.00517
4819.24318,0.00322
4821.17165,0.00559
4823.10012,0.00221
4825.02859,-0.00727
4826.95705,-0.00675
4828.88552,0.00248
4830.81399,0.00667
4832.74246,0.00640
4834.67093,0.00702
4836.59940,0.01116
4838.52787,0.01891
4840.45633,0.02610
4842.38480,0.03182
4844.31327,0.03545
4846.24174,0.03934
4848.17021,0.04505
4850.09868,0.03829
4852.02715,0.02360
4853.95562,0.02588
4855.88408,0.03454
4857.81255,0.02565
4859.74102,0.00685
4861.66949,-0.00031
4863.59796,0.00343
4865.52643,0.00469
4867.45490,0.00485
4869.38336,0.00591
4871.31183,0.00778
4873.24030,0.01596
4875.16877,0.02430
4877.09724,0.02239
4879.02571,0.00551
4880.95418,-0.01485
4882.88265,-0.01499
4884.81111,0.00094
4886.73958,0.00893
4888.66805,0.00460
4890.59652,-0.00174
4892.52499,-0.00172
4894.45346,0.00253
4896.38193,0.00233
4898.31039,-0.00061
4900.23886,-0.00015
4902.16733,0.00086
4904.09580,0.00264
4906.02427,0.00521
4907.95274,0.00234
4909.88121,-0.00209
4911.80967,0.00078
4913.73814,0.01165
4915.66661,0.02234
4917.59508,0.02421
4919.52355,0.02377
4921.45202,0.02755
4923.38049,0.02200
4925.30896,0.00468
4927.23742,-0.00599
4929.16589,-0.00423
4931.09436,0.00473
4933.02283,0.01160
4934.95130,0.00911
4936.87977,0.00515
4938.80824,0.00858
4940.73670,0.01988
4942.66517,0.03410
4944.59364,0.04084
4946.52211,0.03364
4948.45058,0.02176
4950.37905,0.02020
4952.30752,0.02202
4954.23599,0.01164
4956.16445,-0.00072
4958.09292,0.00011
4960.02139,0.00799
4961.94986,0.01332
4963.87833,0.01766
4965.80680,0.01769
4967.73527,0.00237
4969.66373,-0.01445
4971.59220,-0.00405
4973.52067,0.02072
4975.44914,0.02604
4977.37761,0.01656
4979.30608,0.01144
4981.23455,0.01220
4983.16302,0.02013
4985.09148,0.03126
4987.01995,0.03190
4988.94842,0.02121
4990.87689,0.01142
4992.80536,0.00821
4994.73383,0.01355
4996.66230,0.02554
4998.59076,0.02843
5000.51923,0.01826
5002.44770,0.00822
5004.37617,0.00083
5006.30464,-0.00928
5008.23311,-0.01106
5010.16158,0.00684
5012.09005,0.02206
5014.01851,0.01117
5015.94698,-0.00429
5017.87545,0.00777
5019.80392,0.02925
5021.73239,0.02536
5023.66086,0.00582
5025.58933,-0.00640
5027.51779,-0.00948
5029.44626,-0.00255
5031.37473,0.01395
5033.30320,0.01568
5035.23167,-0.00032
5037.16014,-0.00133
5039.08861,0.01312
5041.01708,0.02037
5042.94554,0.01953
5044.87401,0.01952
5046.80248,0.01701
5048.73095,0.00859
5050.65942,0.00201
5052.58789,-0.00093
5054.51636,-0.00309
5056.44482,-0.00144
5058.37329,0.00834
5060.30176,0.01866
5062.23023,0.02003
5064.15870,0.02258
5066.08717,0.03144
5068.01564,0.03934
5069.94410,0.04758
5071.87257,0.05093
5073.80104,0.04438
5075.72951,0.03542
5077.65798,0.02174
5079.58645,0.00977
5081.51492,0.01751
5083.44339,0.03958
5085.37185,0.05865
5087.30032,0.05872
5089.22879,0.04347
5091.15726,0.03449
5093.08573,0.03071
5095.01420,0.02579
5096.94267,0.02527
5098.87113,0.02771
5100.79960,0.02888
5102.72807,0.02345
5104.65654,0.01077
5106.58501,0.00482
5108.51348,0.01458
5110.44195,0.02225
5112.37042,0.01706
5114.29888,0.01633
5116.22735,0.01549
5118.15582,0.00213
5120.08429,-0.00495
5122.01276,0.00257
5123.94123,0.00957
5125.86970,0.01054
5127.79816,0.01229
5129.72663,0.01707
5131.65510,0.01749
5133.58357,0.01669
5135.51204,0.02507
5137.44051,0.02433
5139.36898,0.00421
5141.29745,-0.01120
5143.22591,-0.01884
5145.15438,-0.01959
5147.08285,0.00153
5149.01132,0.02716
5150.93979,0.04004
5152.86826,0.04923
5154.79673,0.04874
5156.72519,0.03476
5158.65366,0.02662
5160.58213,0.03781
5162.51060,0.05780
5164.43907,0.05948
5166.36754,0.04261
5168.29601,0.03425
5170.22448,0.04046
5172.15294,0.04390
5174.08141,0.04291
5176.00988,0.05121
5177.93835,0.06087
5179.86682,0.05729
5181.79529,0.04927
5183.72376,0.04683
5185.65222,0.04252
5187.58069,0.03507
5189.50916,0.03355
5191.43763,0.03480
5193.36610,0.03237
5195.29457,0.02388
5197.22304,0.01425
5199.15151,0.01432
5201.07997,0.01961
5203.00844,0.02855
5204.93691,0.04247
5206.86538,0.04818
5208.79385,0.03702
5210.72232,0.01620
5212.65079,0.00601
5214.57925,0.01805
5216.50772,0.04459
5218.43619,0.06934
5220.36466,0.07736
5222.29313,0.07620
5224.22160,0.06813
5226.15007,0.04493
5228.07854,0.02468
5230.00700,0.01876
5231.93547,0.01723
5233.86394,0.01714
5235.79241,0.01612
5237.72088,0.01877
5239.64935,0.03266
5241.57782,0.04378
5243.50628,0.05113
5245.43475,0.06777
5247.36322,0.07253
5249.29169,0.05477
5251.22016,0.04765
5253.14863,0.05008
5255.07710,0.04006
5257.00556,0.02884
5258.93403,0.02296
5260.86250,0.02517
5262.79097,0.04588
5264.71944,0.06998
5266.64791,0.07482
5268.57638,0.06225
5270.50485,0.03868
5272.43331,0.01990
5274.36178,0.02870
5276.29025,0.05458
5278.21872,0.06981
5280.14719,0.07373
5282.07566,0.07970
5284.00413,0.08877
5285.93259,0.08944
5287.86106,0.07190
5289.78953,0.04982
5291.71800,0.05212
5293.64647,0.06369
5295.57494,0.06199
5297.50341,0.06408
5299.43188,0.07499
5301.36034,0.07841
5303.28881,0.06676
5305.21728,0.05251
5307.14575,0.05262
5309.07422,0.06121
5311.00269,0.06695
5312.93116,0.07150
5314.85962,0.07197
5316.78809,0.06108
5318.71656,0.04506
5320.64503,0.03983
5322.57350,0.04901
5324.50197,0.07527
5326.43044,0.10833
5328.35891,0.10323
5330.28737,0.06369
5332.21584,0.04277
5334.14431,0.04098
5336.07278,0.03044
5338.00125,0.02821
5339.92972,0.04326
5341.85819,0.04401
5343.78665,0.03361
5345.71512,0.04269
5347.64359,0.06617
5349.57206,0.07409
5351.50053,0.05963
5353.42900,0.04239
5355.35747,0.03715
5357.28594,0.04471
5359.21440,0.06654
5361.14287,0.09006
5363.07134,0.09807
5364.99981,0.09067
5366.92828,0.07808
5368.85675,0.06953
5370.78522,0.06491
5372.71368,0.06374
5374.64215,0.07459
5376.57062,0.09025
5378.49909,0.07395
5380.42756,0.03738
5382.35603,0.03278
5384.28450,0.06299
5386.21297,0.07775
5388.14143,0.05332
5390.06990,0.02363
5391.99837,0.02039
5393.92684,0.03276
5395.85531,0.04468
5397.78378,0.06124
5399.71225,0.07000
5401.64071,0.06097
5403.56918,0.04669
5405.49765,0.03653
5407.42612,0.03233
5409.35459,0.04203
5411.28306,0.05128
5413.21153,0.03621
5415.13999,0.02272
5417.06846,0.03437
5418.99693,0.04698
5420.92540,0.03935
5422.85387,0.02825
5424.78234,0.03079
5426.71081,0.03659
5428.63928,0.03921
5430.56774,0.04656
5432.49621,0.05728
5434.42468,0.05573
5436.35315,0.04377
5438.28162,0.04970
5440.21009,0.07411
5442.13856,0.08780
5444.06702,0.08831
5445.99549,0.09116
5447.92396,0.08545
5449.85243,0.06954
5451.78090,0.07067
5453.70937,0.08856
5455.63784,0.08408
5457.56631,0.04105
5459.49477,0.00624
5461.42324,0.01845
5463.35171,0.05129
5465.28018,0.06091
5467.20865,0.05822
5469.13712,0.06231
5471.06559,0.05922
5472.99405,0.04948
5474.92252,0.03766
5476.85099,0.02694
5478.77946,0.03977
5480.70793,0.06936
5482.63640,0.08139
5484.56487,0.07061
5486.49334,0.05850
5488.42180,0.06461
5490.35027,0.08706
5492.27874,0.08869
5494.20721,0.06879
5496.13568,0.07194
5498.06415,0.08619
5499.99262,0.07490
5501.92108,0.04775
5503.84955,0.03383
5505.77802,0.03294
5507.70649,0.02866
5509.63496,0.02605
5511.56343,0.04302
5513.49190,0.06594
5515.42037,0.07176
5517.34883,0.07451
5519.27730,0.08977
5521.20577,0.11055
5523.13424,0.12252
5525.06271,0.11013
5526.99118,0.08062
5528.91965,0.05979
5530.84811,0.06886
5532.77658,0.09206
5534.70505,0.08793
5536.63352,0.06694
5538.56199,0.06995
5540.49046,0.08957
5542.41893,0.09696
5544.34740,0.08287
5546.27586,0.06274
5548.20433,0.05975
5550.13280,0.07145
5552.06127,0.08053
5553.98974,0.07950
5555.91821,0.06719
5557.84668,0.04865
5559.77514,0.03848
5561.70361,0.05176
5563.63208,0.08332
5565.56055,0.09907
5567.48902,0.09384
5569.41749,0.09798
5571.34596,0.09702
5573.27443,0.07351
5575.20289,0.06296
5577.13136,0.07034
5579.05983,0.08023
5580.98830,0.09334
5582.91677,0.07962
5584.84524,0.04514
5586.77371,0.04009
5588.70217,0.06830
5590.63064,0.10130
5592.55911,0.11094
5594.48758,0.09020
5596.41605,0.07712
5598.34452,0.09482
5600.27299,0.10636
5602.20145,0.09024
5604.12992,0.07655
5606.05839,0.07132
5607.98686,0.05607
5609.91533,0.04402
5611.84380,0.04576
5613.77227,0.04120
5615.70074,0.01866
5617.62920,0.00637
5619.55767,0.04455
5621.48614,0.09463
5623.41461,0.08517
5625.34308,0.04577
5627.27155,0.04062
5629.20002,0.06155
5631.12848,0.08289
5633.05695,0.08709
5634.98542,0.05634
5636.91389,0.02934
5638.84236,0.04931
5640.77083,0.08050
5642.69930,0.08693
5644.62777,0.08298
5646.55623,0.08772
5648.48470,0.09999
5650.41317,0.10290
5652.34164,0.08363
5654.27011,0.06412
5656.19858,0.07582
5658.12705,0.09712
5660.05551,0.09196
5661.98398,0.07193
5663.91245,0.05772
5665.84092,0.05394
5667.76939,0.06484
5669.69786,0.07675
5671.62633,0.07705
5673.55480,0.07696
5675.48326,0.07786
5677.41173,0.08488
5679.34020,0.09702
5681.26867,0.07739
5683.19714,0.03802
5685.12561,0.03298
5687.05408,0.05221
5688.98254,0.05303
5690.91101,0.04945
5692.83948,0.06291
5694.76795,0.07323
5696.69642,0.08462
5698.62489,0.11713
5700.55336,0.14995
5702.48183,0.15197
5704.41029,0.12921
5706.33876,0.10356
5708.26723,0.09930
5710.19570,0.13684
5712.12417,0.16390
5714.05264,0.12695
5715.98111,0.09322
5717.90957,0.10509
5719.83804,0.10605
5721.76651,0.09478
5723.69498,0.09961
5725.62345,0.09423
5727.55192,0.08308
5729.48039,0.09287
5731.40886,0.11085
5733.33732,0.10879
5735.26579,0.06623
5737.19426,0.02265
5739.12273,0.03081
5741.05120,0.05858
5742.97967,0.05360
5744.90814,0.04234
5746.83660,0.07176
5748.76507,0.09463
5750.69354,0.06559
5752.62201,0.05719
5754.55048,0.09271
5756.47895,0.11659
5758.40742,0.12721
5760.33588,0.12974
5762.26435,0.12042
5764.19282,0.10768
5766.12129,0.09320
5768.04976,0.09196
5769.97823,0.10823
5771.90670,0.11626
5773.83517,0.08845
5775.76363,0.04346
5777.69210,0.02791
5779.62057,0.03743
5781.54904,0.05181
5783.47751,0.09014
5785.40598,0.14301
5787.33445,0.15583
5789.26291,0.12633
5791.19138,0.10120
5793.11985,0.08463
5795.04832,0.06893
5796.97679,0.07099
5798.90526,0.07232
5800.83373,0.05850
5802.76220,0.05388
5804.69066,0.05330
5806.61913,0.06373
5808.54760,0.09665
5810.47607,0.11039
5812.40454,0.09059
5814.33301,0.06796
5816.26148,0.06345
5818.18994,0.06715
5820.11841,0.06318
5822.04688,0.06177
5823.97535,0.07093
5825.90382,0.08183
5827.83229,0.08876
5829.76076,0.08783
5831.68923,0.08095
5833.61769,0.09447
5835.54616,0.12173
5837.47463,0.12161
5839.40310,0.10336
5841.33157,0.08859
5843.26004,0.08001
5845.18851,0.09500
5847.11697,0.12404
5849.04544,0.11593
5850.97391,0.07928
5852.90238,0.06477
5854.83085,0.06550
5856.75932,0.07989
5858.68779,0.11952
5860.61626,0.15370
5862.54472,0.14943
5864.47319,0.11752
5866.40166,0.08980
5868.33013,0.07978
5870.25860,0.07438
5872.18707,0.08318
5874.11554,0.11403
5876.04400,0.12696
5877.97247,0.12512
5879.90094,0.13694
5881.82941,0.12809
5883.75788,0.07839
5885.68635,0.03240
5887.61482,0.03690
5889.54329,0.06679
5891.47175,0.07128
5893.40022,0.05679
5895.32869,0.06117
5897.25716,0.08770
5899.18563,0.09972
5901.11410,0.09180
5903.04257,0.10721
5904.97103,0.14939
5906.89950,0.16164
5908.82797,0.12406
5910.75644,0.08831
5912.68491,0.09948
5914.61338,0.12473
5916.54185,0.10675
5918.47032,0.06410
5920.39878,0.04961
5922.32725,0.06773
5924.25572,0.10124
5926.18419,0.11641
5928.11266,0.08872
5930.04113,0.07761
5931.96960,0.10069
5933.89806,0.08817
5935.82653,0.04077
5937.75500,0.02797
5939.68347,0.06774
5941.61194,0.11142
5943.54041,0.11597
5945.46888,0.08956
5947.39734,0.06538
5949.32581,0.07388
5951.25428,0.10121
5953.18275,0.11424
5955.11122,0.11666
5957.03969,0.11109
5958.96816,0.09000
5960.89663,0.06634
5962.82509,0.04890
5964.75356,0.05620
5966.68203,0.09793
5968.61050,0.12457
5970.53897,0.10321
5972.46744,0.06607
5974.39591,0.04207
5976.32437,0.02092
5978.25284,0.00740
5980.18131,0.00948
5982.10978,0.02500
5984.03825,0.05239
5985.96672,0.06193
5987.89519,0.06335
5989.82366,0.08119
5991.75212,0.08445
5993.68059,0.07005
5995.60906,0.06149
5997.53753,0.04555
5999.46600,0.02340
6001.39447,0.03359
6003.32294,0.06898
6005.25140,0.06668
6007.17987,0.03512
6009.10834,0.04877
6011.03681,0.06953
6012.96528,0.03789
6014.89375,0.02991
6016.82222,0.07397
6018.75069,0.08481
6020.67915,0.07310
6022.60762,0.08770
6024.53609,0.07350
6026.46456,0.04314
6028.39303,0.06368
6030.32150,0.09435
6032.24997,0.10133
6034.17843,0.11265
6036.10690,0.12579
6038.03537,0.14097
6039.96384,0.14794
6041.89231,0.13527
6043.82078,0.13154
6045.74925,0.13118
6047.67772,0.10036
6049.60618,0.04977
6051.53465,0.01932
6053.46312,0.00195
6055.39159,-0.04345
6057.32006,-0.05829
6059.24853,0.05192
6061.17700,0.18837
6063.10546,0.20257
6065.03393,0.15711
6066.96240,0.13404
6068.89087,0.09762
6070.81934,0.05611
6072.74781,0.04287
6074.67628,0.04155
6076.60475,0.04126
6078.53321,0.05014
6080.46168,0.05708
6082.39015,0.06226
6084.31862,0.07936
6086.24709,0.09698
6088.17556,0.11765
6090.10403,0.14935
6092.03249,0.12562
6093.96096,0.01564
6095.88943,-0.05813
6097.81790,-0.04289
6099.74637,-0.01796
6101.67484,0.00123
6103.60331,0.04764
6105.53177,0.10350
6107.46024,0.11268
6109.38871,0.07275
6111.31718,0.04980
6113.24565,0.05812
6115.17412,0.07331
6117.10259,0.10368
6119.03106,0.13804
6120.95952,0.13917
6122.88799,0.12468
6124.81646,0.12585
6126.74493,0.14691
6128.67340,0.15573
6130.60187,0.12445
6132.53034,0.09013
6134.45880,0.07649
6136.38727,0.06765
6138.31574,0.06223
6140.24421,0.05752
6142.17268,0.04934
6144.10115,0.05205
6146.02962,0.05905
6147.95809,0.05248
6149.88655,0.03588
6151.81502,0.04352
6153.74349,0.07390
6155.67196,0.06794
6157.60043,0.04017
6159.52890,0.05019
6161.45737,0.11203
6163.38583,0.16376
6165.31430,0.12843
6167.24277,0.06579
6169.17124,0.05366
6171.09971,0.05884
6173.02818,0.05470
6174.95665,0.08743
6176.88512,0.15969
6178.81358,0.19081
6180.74205,0.16300
6182.67052,0.13293
6184.59899,0.10620
6186.52746,0.07477
6188.45593,0.05696
6190.38440,0.05545
6192.31286,0.08197
6194.24133,0.13409
6196.16980,0.16205
6198.09827,0.14548
6200.02674,0.11605
6201.95521,0.09307
6203.88368,0.08315
6205.81215,0.10024
6207.74061,0.15053
6209.66908,0.21503
6211.59755,0.23268
6213.52602,0.18426
6215.45449,0.12623
6217.38296,0.10936
6219.31143,0.10262
6221.23989,0.03416
6223.16836,-0.07134
6225.09683,-0.09030
6227.02530,0.00666
6228.95377,0.11311
6230.88224,0.15552
6232.81071,0.14954
6234.73918,0.16140
6236.66764,0.18680
6238.59611,0.15307
6240.52458,0.09172
6242.45305,0.08619
6244.38152,0.10566
6246.30999,0.10782
6248.23846,0.11760
6250.16692,0.13119
6252.09539,0.10819
6254.02386,0.05304
6255.95233,-0.00631
6257.88080,-0.04421
6259.80927,-0.01269
6261.73774,0.07333
6263.66621,0.13317
6265.59467,0.14349
6267.52314,0.11282
6269.45161,0.04286
6271.38008,-0.01782
6273.30855,-0.01701
6275.23702,0.02793
6277.16549,0.05413
6279.09395,0.07462
6281.02242,0.11587
6282.95089,0.14559
6284.87936,0.16470
6286.80783,0.18148
6288.73630,0.16154
6290.66477,0.12434
6292.59323,0.10316
6294.52170,0.09157
6296.45017,0.10756
6298.37864,0.14057
6300.30711,0.15180
6302.23558,0.14014
6304.16405,0.13835
6306.09252,0.14580
6308.02098,0.15161
6309.94945,0.18504
6311.87792,0.19769
6313.80639,0.15275
6315.73486,0.13651
6317.66333,0.14981
6319.59180,0.13080
6321.52026,0.11901
6323.44873,0.17139
6325.37720,0.21149
6327.30567,0.14107
6329.23414,0.00094
6331.16261,-0.09183
6333.09108,-0.08281
6335.01955,-0.02426
6336.94801,0.01001
6338.87648,0.04253
6340.80495,0.09127
6342.73342,0.11155
6344.66189,0.09813
6346.59036,0.06822
6348.51883,0.01885
6350.44729,-0.01907
6352.37576,0.01374
6354.30423,0.09238
6356.23270,0.15094
6358.16117,0.16268
6360.08964,0.13153
6362.01811,0.10076
6363.94658,0.11494
6365.87504,0.14864
6367.80351,0.16668
6369.73198,0.16211
6371.66045,0.11901
6373.58892,0.07753
6375.51739,0.10111
6377.44586,0.16052
6379.37432,0.16677
6381.30279,0.10639
6383.23126,0.06821
6385.15973,0.08688
6387.08820,0.10344
6389.01667,0.09627
6390.94514,0.08544
6392.87361,0.09462
6394.80207,0.09091
6396.73054,0.02690
6398.65901,-0.05627
6400.58748,-0.05903
6402.51595,0.03769
6404.44442,0.14493
6406.37289,0.18824
6408.30135,0.13246
6410.22982,0.03899
6412.15829,0.00057
6414.08676,0.01629
6416.01523,0.06616
6417.94370,0.11307
6419.87217,0.09788
6421.80064,0.06967
6423.72910,0.06620
6425.65757,0.05661
6427.58604,0.03743
6429.51451,0.03231
6431.44298,0.05426
6433.37145,0.07579
6435.29992,0.09223
6437.22838,0.11897
6439.15685,0.10796
6441.08532,0.06443
6443.01379,0.03499
6444.94226,0.02000
6446.87073,0.02118
6448.79920,0.01802
6450.72766,0.01540
6452.65613,0.06615
6454.58460,0.13873
6456.51307,0.19510
6458.44154,0.24978
6460.37001,0.27892
6462.29848,0.24877
6464.22695,0.19403
6466.15541,0.14778
6468.08388,0.08030
6470.01235,-0.01488
6471.94082,-0.04261
6473.86929,0.01742
6475.79776,0.05742
6477.72623,0.06238
6479.65469,0.08059
6481.58316,0.11464
6483.51163,0.12685
6485.44010,0.07153
6487.36857,0.00757
6489.29704,0.01391
6491.22551,0.06208
6493.15398,0.09866
6495.08244,0.12358
6497.01091,0.12192
6498.93938,0.06946
6500.86785,0.00069
6502.79632,-0.02512
6504.72479,-0.00638
6506.65326,-0.01037
6508.58172,-0.07016
6510.51019,-0.11843
6512.43866,-0.10548
6514.36713,-0.04804
6516.29560,0.02982
6518.22407,0.08715
6520.15254,0.12174
6522.08101,0.16327
6524.00947,0.19360
6525.93794,0.19976
6527.86641,0.15787
6529.79488,0.04563
6531.72335,-0.02844
6533.65182,0.02478
6535.58029,0.12355
6537.50875,0.14792
6539.43722,0.07498
6541.36569,-0.01645
6543.29416,-0.03920
6545.22263,0.01456
6547.15110,0.07193
6549.07957,0.08619
6551.00804,0.08018
6552.93650,0.09991
6554.86497,0.10575
6556.79344,0.06612
6558.72191,0.07437
6560.65038,0.17852
6562.57885,0.24874
6564.50732,0.18844
6566.43578,0.08994
6568.36425,0.04764
6570.29272,0.05022
6572.22119,0.07148
6574.14966,0.08822
6576.07813,0.08925
6578.00660,0.10156
6579.93507,0.14423
6581.86353,0.13443
6583.79200,0.03218
6585.72047,-0.04231
6587.64894,-0.01600
6589.57741,0.05974
6591.50588,0.10423
6593.43435,0.08151
6595.36281,0.02820
6597.29128,0.01837
6599.21975,0.05281
6601.14822,0.06203
6603.07669,0.01363
6605.00516,-0.04550
6606.93363,-0.06589
6608.86210,-0.01878
6610.79056,0.06793
6612.71903,0.12849
6614.64750,0.16700
6616.57597,0.21708
6618.50444,0.25208
6620.43291,0.22458
6622.36138,0.10058
6624.28984,-0.04874
6626.21831,-0.09000
6628.14678,-0.02053
6630.07525,0.05257
6632.00372,0.08897
6633.93219,0.11872
6635.86066,0.11805
6637.78912,0.07824
6639.71759,0.04641
6641.64606,0.04054
6643.57453,0.03960
6645.50300,0.03963
6647.43147,0.06589
6649.35994,0.11289
6651.28841,0.14456
6653.21687,0.13768
6655.14534,0.12984
6657.07381,0.13989
6659.00228,0.15723
6660.93075,0.19699
6662.85922,0.18807
6664.78769,0.11612
6666.71615,0.02997
6668.64462,-0.05169
6670.57309,-0.04469
6672.50156,0.06238
6674.43003,0.11867
6676.35850,0.09287
6678.28697,0.07334
6680.21544,0.07812
6682.14390,0.09635
6684.07237,0.15237
6686.00084,0.20778
6687.92931,0.18196
6689.85778,0.13388
6691.78625,0.13818
6693.71472,0.11372
6695.64318,0.07974
6697.57165,0.12992
6699.50012,0.16923
6701.42859,0.14864
6703.35706,0.15792
6705.28553,0.16286
6707.21400,0.13539
6709.14247,0.14352
6711.07093,0.17556
6712.99940,0.17970
6714.92787,0.14141
6716.85634,0.07537
6718.78481,0.03119
6720.71328,0.05277
6722.64175,0.11407
6724.57021,0.15753
6726.49868,0.19281
6728.42715,0.20819
6730.35562,0.12670
6732.28409,0.02384
6734.21256,0.00390
6736.14103,-0.00256
6738.06950,-0.00094
6739.99796,0.08577
6741.92643,0.20744
6743.85490,0.24468
6745.78337,0.20684
6747.71184,0.13788
6749.64031,0.08022
6751.56878,0.07418
6753.49724,0.07774
6755.42571,0.07383
6757.35418,0.07921
6759.28265,0.06007
6761.21112,0.01758
6763.13959,0.00894
6765.06806,0.03904
6766.99653,0.05309
6768.92499,0.02830
6770.85346,0.02194
6772.78193,0.05748
6774.71040,0.09661
6776.63887,0.14086
6778.56734,0.18075
6780.49581,0.15200
6782.42427,0.07652
6784.35274,0.02444
6786.28121,0.01143
6788.20968,0.02956
6790.13815,0.02745
6792.06662,-0.00597
6793.99509,0.00649
6795.92355,0.05515
6797.85202,0.07900
6799.78049,0.08547
6801.70896,0.08502
6803.63743,0.05832
6805.56590,0.03895
6807.49437,0.06556
6809.42284,0.07074
6811.35130,0.00100
6813.27977,-0.03835
6815.20824,0.00901
6817.13671,0.05575
6819.06518,0.05737
6820.99365,0.02636
6822.92212,0.01592
6824.85058,0.08619
6826.77905,0.13803
6828.70752,0.11814
6830.63599,0.12472
6832.56446,0.14502
6834.49293,0.11429
6836.42140,0.05148
6838.34987,-0.00583
6840.27833,-0.00740
6842.20680,0.02743
6844.13527,0.03131
6846.06374,0.03023
6847.99221,0.06763
6849.92068,0.07829
6851.84915,0.05754
6853.77761,0.08033
6855.70608,0.10444
6857.63455,0.07498
6859.56302,0.06664
6861.49149,0.13128
6863.41996,0.20254
6865.34843,0.19926
6867.27690,0.12475
6869.20536,0.08748
6871.13383,0.11983
6873.06230,0.14928
6874.99077,0.16800
6876.91924,0.15499
6878.84771,0.11232
6880.77618,0.11065
6882.70464,0.09812
6884.63311,0.02783
6886.56158,-0.05057
6888.49005,-0.07674
6890.41852,-0.05053
6892.34699,-0.05108
6894.27546,-0.04152
6896.20393,0.06937
6898.13239,0.16866
6900.06086,0.15720
6901.98933,0.12553
6903.91780,0.06208
6905.84627,-0.07217
6907.77474,-0.12245
6909.70321,-0.00249
6911.63167,0.12745
6913.56014,0.11547
6915.48861,0.03765
6917.41708,0.02463
6919.34555,0.08105
6921.27402,0.10656
6923.20249,0.11127
6925.13096,0.16091
6927.05942,0.22850
6928.98789,0.29209
6930.91636,0.32015
6932.84483,0.22945
6934.77330,0.03976
6936.70177,-0.10876
6938.63024,-0.09278
6940.55870,0.02901
6942.48717,0.08565
6944.41564,0.10519
6946.34411,0.08169
6948.27258,-0.03705
6950.20105,-0.16295
6952.12952,-0.21100
6954.05799,-0.17104
6955.98645,0.00150
6957.91492,0.19307
6959.84339,0.20147
6961.77186,0.08389
6963.70033,0.03274
6965.62880,0.05863
6967.55727,0.05999
6969.48573,0.04564
6971.41420,0.09392
6973.34267,0.11355
6975.27114,0.03755
6977.19961,0.02471
6979.12808,0.10553
6981.05655,0.15607
6982.98501,0.16593
6984.91348,0.16883
6986.84195,0.12486
6988.77042,0.10400
6990.69889,0.14552
6992.62736,0.12711
6994.55583,0.05378
6996.48430,0.09758
6998.41276,0.24339
7000.34123,0.24781
7002.26970,0.15521
7004.19817,0.10588
7006.12664,0.08004
7008.05511,0.07517
7009.98358,0.11543
7011.91204,0.15494
7013.84051,0.13644
7015.76898,0.09981
7017.69745,0.04107
7019.62592,-0.01175
7021.55439,0.00727
7023.48286,-0.01136
7025.41133,-0.04459
7027.33979,0.03041
7029.26826,0.07587
7031.19673,0.03370
7033.12520,0.04923
7035.05367,0.10683
7036.98214,0.11844
7038.91061,0.09635
7040.83907,0.04481
7042.76754,-0.00503
7044.69601,0.04036
7046.62448,0.14424
7048.55295,0.16313
7050.48142,0.10102
7052.40989,0.09635
7054.33836,0.13422
7056.26682,0.05919
7058.19529,-0.06748
7060.12376,-0.03185
7062.05223,0.08014
7063.98070,0.08832
7065.90917,-0.03675
7067.83764,-0.24510
7069.76610,-0.37153
7071.69457,-0.24733
7073.62304,-0.06038
7075.55151,0.05743
7077.47998,0.13999
7079.40845,0.14937
7081.33692,0.08246
7083.26539,0.06717
7085.19385,0.06101
7087.12232,-0.01529
7089.05079,-0.08140
7090.97926,-0.07590
7092.90773,-0.01078
7094.83620,0.04858
7096.76467,0.03182
7098.69313,-0.04293
7100.62160,-0.04221
7102.55007,0.08290
7104.47854,0.23989
7106.40701,0.34203
7108.33548,0.32134
7110.26395,0.23481
7112.19242,0.20264
7114.12088,0.22195
7116.04935,0.18475
7117.97782,-0.00997
7119.90629,-0.19462
7121.83476,-0.16744
7123.76323,-0.02330
7125.69170,0.07338
7127.62016,0.06758
7129.54863,0.04495
7131.47710,0.01181
7133.40557,-0.04193
7135.33404,-0.01481
7137.26251,0.08198
7139.19098,0.11143
7141.11944,0.05230
7143.04791,0.03511
7144.97638,0.12377
7146.90485,0.15585
7148.83332,0.06048
7150.76179,0.01119
7152.69026,0.13339
7154.61873,0.26898
7156.54719,0.18069
7158.47566,0.02949
7160.40413,0.05281
7162.33260,0.14162
7164.26107,0.12631
7166.18954,0.11359
7168.11801,0.17140
7170.04647,0.26173
7171.97494,0.35307
7173.90341,0.39471
7175.83188,0.41898
7177.76035,0.34035
7179.68882,0.13921
7181.61729,0.05569
7183.54576,0.12615
7185.47422,0.04400
7187.40269,-0.13201
7189.33116,-0.11725
7191.25963,0.10872
7193.18810,0.28574
7195.11657,0.26421
7197.04504,0.14524
7198.97350,0.09619
7200.90197,0.18301
7202.83044,0.28840
7204.75891,0.23447
7206.68738,0.04985
7208.61585,-0.04641
7210.54432,-0.02297
7212.47279,-0.00269
7214.40125,-0.05739
7216.32972,-0.14508
7218.25819,-0.13215
7220.18666,0.06060
7222.11513,0.20131
7224.04360,0.11208
7225.97207,-0.12317
7227.90053,-0.21113
7229.82900,-0.09738
7231.75747,-0.00027
7233.68594,0.01546
7235.61441,0.03766
7237.54288,0.03725
7239.47135,-0.01455
7241.39982,-0.15419
7243.32828,-0.37797
7245.25675,-0.38607
7247.18522,-0.10247
7249.11369,0.18712
7251.04216,0.23128
7252.97063,0.04550
7254.89910,-0.07451
7256.82756,0.01566
7258.75603,0.15907
7260.68450,0.25236
7262.61297,0.31099
7264.54144,0.27548
7266.46991,0.13619
7268.39838,0.01851
7270.32685,0.04589
7272.25531,0.17438
7274.18378,0.18287
7276.11225,0.16878
7278.04072,0.18660
7279.96919,0.14515
7281.89766,0.12971
7283.82613,0.22425
7285.75459,0.24716
7287.68306,0.18326
7289.61153,0.21393
7291.54000,0.30397
7293.46847,0.33252
7295.39694,0.33511
7297.32541,0.27420
7299.25387,0.16354
7301.18234,0.10985
7303.11081,0.09773
7305.03928,0.04876
7306.96775,0.03878
7308.89622,0.06695
7310.82469,-0.03637
7312.75316,-0.17436
7314.68162,-0.26823
7316.61009,-0.28156
7318.53856,-0.11161
7320.46703,0.04238
7322.39550,-0.02738
7324.32397,-0.11011
7326.25244,0.00539
7328.18090,0.12192
7330.10937,0.13479
7332.03784,0.26683
7333.96631,0.42991
7335.89478,0.47296
7337.82325,0.44256
7339.75172,0.25876
7341.68019,0.00723
7343.60865,-0.06953
7345.53712,-0.03582
7347.46559,0.07290
7349.39406,0.20368
7351.32253,0.22397
7353.25100,0.20039
7355.17947,0.28227
7357.10793,0.38967
7359.03640,0.34169
7360.96487,0.15327
7362.89334,0.03223
7364.82181,0.02266
7366.75028,-0.00786
7368.67875,-0.08452
7370.60722,-0.08266
7372.53568,0.05834
7374.46415,0.16268
7376.39262,-0.05429
7378.32109,-0.22418
7380.24956,-0.12040
7382.17803,-0.00727
7384.10650,-0.02211
7386.03496,0.02887
7387.96343,0.18035
7389.89190,0.34815
7391.82037,0.42560
7393.74884,0.34695
7395.67731,0.24287
7397.60578,0.15998
7399.53425,0.07194
7401.46271,-0.00737
7403.39118,-0.16658
7405.31965,-0.30047
7407.24812,-0.16183
7409.17659,0.04627
7411.10506,0.04597
7413.03353,-0.02378
7414.96199,0.06057
7416.89046,0.23700
7418.81893,0.26140
7420.74740,0.14124
7422.67587,0.15588
7424.60434,0.24418
7426.53281,0.21503
7428.46128,0.08078
7430.38974,0.10850
7432.31821,0.36137
7434.24668,0.52806
7436.17515,0.49137
7438.10362,0.30154
7440.03209,0.14669
7441.96056,0.13571
7443.88902,0.05051
7445.81749,-0.08975
7447.74596,-0.14671
7449.67443,-0.21691
7451.60290,-0.30769
7453.53137,-0.29177
7455.45984,-0.17356
7457.38831,-0.01323
7459.31677,0.12380
7461.24524,0.15954
7463.17371,0.17944
7465.10218,0.21449
7467.03065,0.14096
7468.95912,-0.00757
7470.88759,-0.10274
7472.81605,-0.14619
7474.74452,-0.20037
7476.67299,-0.18413
7478.60146,-0.07723
7480.52993,0.01014
7482.45840,0.06243
7484.38687,0.10049
7486.31533,0.17990
7488.24380,0.29271
7490.17227,0.30085
7492.10074,0.18054
7494.02921,0.09594
7495.95768,0.12550
7497.88615,0.18347
