399.19301,-0.37462
401.12148,-0.40317
403.04995,-0.19828
404.97842,-0.10773
406.90689,-0.12951
408.83536,-0.11782
410.76382,-0.12515
412.69229,-0.13803
414.62076,0.00893
416.54923,0.26677
418.47770,0.54924
420.40617,0.61190
422.33464,0.38910
424.26311,0.14448
426.19157,0.05227
428.12004,0.10816
430.04851,0.23001
431.97698,0.31996
433.90545,0.27940
435.83392,0.13859
437.76239,0.03376
439.69085,-0.00206
441.61932,-0.03343
443.54779,-0.01142
445.47626,0.10216
447.40473,0.14713
449.33320,0.09513
451.26167,0.07091
453.19013,0.07441
455.11860,0.08751
457.04707,0.13000
458.97554,0.13933
460.90401,0.07512
462.83248,0.03071
464.76095,0.10665
466.68942,0.26182
468.61788,0.32909
470.54635,0.25901
472.47482,0.13230
474.40329,-0.01058
476.33176,-0.02695
478.26023,0.08183
480.18870,0.19247
482.11716,0.26281
484.04563,0.23207
485.97410,0.11671
487.90257,0.08201
489.83104,0.15390
491.75951,0.22836
493.68798,0.24982
495.61645,0.21230
497.54491,0.15725
499.47338,0.15443
501.40185,0.21069
503.33032,0.26202
505.25879,0.25212
507.18726,0.15940
509.11573,0.04759
511.04419,0.02457
512.97266,0.09190
514.90113,0.16984
516.82960,0.18013
518.75807,0.13216
520.68654,0.07918
522.61501,0.02962
524.54348,0.02691
526.47194,0.11021
528.40041,0.20105
530.32888,0.22648
532.25735,0.19825
534.18582,0.15151
536.11429,0.12888
538.04276,0.16868
539.97122,0.21401
541.89969,0.17823
543.82816,0.09801
545.75663,0.06681
547.68510,0.07768
549.61357,0.11521
551.54204,0.18733
553.47051,0.23217
555.39897,0.19443
557.32744,0.09902
559.25591,0.01950
561.18438,0.01655
563.11285,0.08331
565.04132,0.14419
566.96979,0.14940
568.89825,0.13227
570.82672,0.13261
572.75519,0.15940
574.68366,0.20498
576.61213,0.22764
578.54060,0.20273
580.46907,0.15224
582.39754,0.10092
584.32600,0.07373
586.25447,0.09635
588.18294,0.14524
590.11141,0.16935
592.03988,0.15310
593.96835,0.11619
595.89682,0.09502
597.82528,0.11057
599.75375,0.14779
601.68222,0.16693
603.61069,0.15095
605.53916,0.12348
607.46763,0.10736
609.39610,0.11976
611.32456,0.15308
613.25303,0.16640
615.18150,0.15013
617.10997,0.12687
619.03844,0.10991
620.96691,0.11288
622.89538,0.13477
624.82385,0.15022
626.75231,0.14914
628.68078,0.14548
630.60925,0.13812
632.53772,0.11818
634.46619,0.10637
636.39466,0.11142
638.32313,0.11166
640.25159,0.10383
642.18006,0.10200
644.10853,0.10401
646.03700,0.10922
647.96547,0.12939
649.89394,0.14822
651.82241,0.13914
653.75088,0.11189
655.67934,0.09455
657.60781,0.10111
659.53628,0.11742
661.46475,0.12928
663.39322,0.13141
665.32169,0.12414
667.25016,0.11429
669.17862,0.10606
671.10709,0.11078
673.03556,0.12612
674.96403,0.14480
676.89250,0.15291
678.82097,0.14107
680.74944,0.11855
682.67791,0.09819
684.60637,0.10302
686.53484,0.13533
688.46331,0.15584
690.39178,0.15444
692.32025,0.14666
694.24872,0.12903
696.17719,0.11717
698.10565,0.13361
700.03412,0.15225
701.96259,0.14119
703.89106,0.11601
705.81953,0.11173
707.74800,0.15266
709.67647,0.26352
711.60494,0.36545
713.53340,0.31864
715.46187,0.19325
717.39034,0.13092
719.31881,0.12321
721.24728,0.14124
723.17575,0.16395
725.10422,0.15611
727.03268,0.12843
728.96115,0.11681
730.88962,0.12671
732.81809,0.14692
734.74656,0.16514
736.67503,0.16639
738.60350,0.15409
740.53197,0.13696
742.46043,0.11980
744.38890,0.11503
746.31737,0.12753
748.24584,0.14432
750.17431,0.15384
752.10278,0.15229
754.03125,0.14148
755.95971,0.13324
757.88818,0.13629
759.81665,0.14618
761.74512,0.15233
763.67359,0.14619
765.60206,0.12975
767.53053,0.11701
769.45900,0.11794
771.38746,0.12880
773.31593,0.14014
775.24440,0.14151
777.17287,0.13222
779.10134,0.12537
781.02981,0.13071
782.95828,0.14591
784.88674,0.16044
786.81521,0.16174
788.74368,0.14857
790.67215,0.13768
792.60062,0.14227
794.52909,0.15771
796.45756,0.16878
798.38602,0.16706
800.31449,0.15592
802.24296,0.14372
804.17143,0.13888
806.09990,0.14233
808.02837,0.15033
809.95684,0.16177
811.88531,0.16450
813.81377,0.14581
815.74224,0.12810
817.67071,0.13201
819.59918,0.13953
821.52765,0.13792
823.45612,0.13753
825.38459,0.13656
827.31305,0.12341
829.24152,0.11526
831.16999,0.13063
833.09846,0.15456
835.02693,0.16244
836.95540,0.14815
838.88387,0.12944
840.81234,0.12469
842.74080,0.13517
844.66927,0.14949
846.59774,0.15630
848.52621,0.15233
850.45468,0.14256
852.38315,0.13755
854.31162,0.13770
856.24008,0.14128
858.16855,0.15172
860.09702,0.16237
862.02549,0.16367
863.95396,0.15776
865.88243,0.14176
867.81090,0.09695
869.73937,0.05609
871.66783,0.08148
873.59630,0.13449
875.52477,0.14631
877.45324,0.13213
879.38171,0.12781
881.31018,0.14003
883.23865,0.15615
885.16711,0.15896
887.09558,0.14829
889.02405,0.13857
890.95252,0.13545
892.88099,0.13666
894.80946,0.14429
896.73793,0.15262
898.66640,0.15343
900.59486,0.15013
902.52333,0.14544
904.45180,0.14065
906.38027,0.14376
908.30874,0.15566
910.23721,0.16104
912.16568,0.15062
914.09414,0.13557
916.02261,0.13268
917.95108,0.14530
919.87955,0.15893
921.80802,0.15854
923.73649,0.14479
925.66496,0.13015
927.59343,0.12500
929.52189,0.12799
931.45036,0.13300
933.37883,0.13652
935.30730,0.13368
937.23577,0.12631
939.16424,0.12782
941.09271,0.14348
943.02117,0.15811
944.94964,0.15894
946.87811,0.14841
948.80658,0.13433
950.73505,0.12892
952.66352,0.13442
954.59199,0.14285
956.52045,0.15173
958.44892,0.15525
960.37739,0.14799
962.30586,0.14047
964.23433,0.14528
966.16280,0.15744
968.09127,0.16465
970.01974,0.16305
971.94820,0.15993
973.87667,0.15867
975.80514,0.15025
977.73361,0.14211
979.66208,0.14798
981.59055,0.15729
983.51902,0.15647
985.44748,0.14805
987.37595,0.14220
989.30442,0.14756
991.23289,0.15902
993.16136,0.16379
995.08983,0.16201
997.01830,0.15733
998.94677,0.15112
1000.87523,0.14882
1002.80370,0.15095
1004.73217,0.15487
1006.66064,0.15909
1008.58911,0.15805
1010.51758,0.15131
1012.44605,0.15183
1014.37451,0.16469
1016.30298,0.17443
1018.23145,0.16841
1020.15992,0.15644
1022.08839,0.15524
1024.01686,0.16772
1025.94533,0.18527
1027.87380,0.19406
1029.80226,0.18189
1031.73073,0.15486
1033.65920,0.13502
1035.58767,0.13329
1037.51614,0.14152
1039.44461,0.14779
1041.37308,0.14786
1043.30154,0.14368
1045.23001,0.14204
1047.15848,0.14769
1049.08695,0.15156
1051.01542,0.15018
1052.94389,0.15602
1054.87236,0.17115
1056.80083,0.17786
1058.72929,0.16985
1060.65776,0.16331
1062.58623,0.16587
1064.51470,0.17110
1066.44317,0.16935
1068.37164,0.16249
1070.30011,0.16180
1072.22857,0.16689
1074.15704,0.17182
1076.08551,0.17397
1078.01398,0.17421
1079.94245,0.17000
1081.87092,0.16028
1083.79939,0.15478
1085.72786,0.15498
1087.65632,0.15638
1089.58479,0.16420
1091.51326,0.17386
1093.44173,0.17417
1095.37020,0.16825
1097.29867,0.16310
1099.22714,0.16478
1101.15560,0.17158
1103.08407,0.17411
1105.01254,0.17211
1106.94101,0.17011
1108.86948,0.16710
1110.79795,0.16120
1112.72642,0.15928
1114.65489,0.16222
1116.58335,0.16117
1118.51182,0.15638
1120.44029,0.15246
1122.36876,0.15170
1124.29723,0.15329
1126.22570,0.15484
1128.15417,0.15903
1130.08263,0.16341
1132.01110,0.15907
1133.93957,0.15264
1135.86804,0.15888
1137.79651,0.16929
1139.72498,0.16639
1141.65345,0.15639
1143.58191,0.15132
1145.51038,0.15220
1147.43885,0.15817
1149.36732,0.16409
1151.29579,0.16787
1153.22426,0.17251
1155.15273,0.17263
1157.08120,0.16621
1159.00966,0.16244
1160.93813,0.16443
1162.86660,0.16865
1164.79507,0.17192
1166.72354,0.17064
1168.65201,0.16757
1170.58048,0.16505
1172.50894,0.16113
1174.43741,0.16118
1176.36588,0.16688
1178.29435,0.16739
1180.22282,0.15830
1182.15129,0.15199
1184.07976,0.15874
1186.00823,0.16865
1187.93669,0.17015
1189.86516,0.16784
1191.79363,0.16627
1193.72210,0.16479
1195.65057,0.16325
1197.57904,0.16039
1199.50751,0.15779
1201.43597,0.15751
1203.36444,0.15859
1205.29291,0.15545
1207.22138,0.14672
1209.14985,0.14357
1211.07832,0.15059
1213.00679,0.16032
1214.93526,0.16594
1216.86372,0.16536
1218.79219,0.16229
1220.72066,0.16171
1222.64913,0.16676
1224.57760,0.17449
1226.50607,0.17704
1228.43454,0.17401
1230.36300,0.17073
1232.29147,0.16845
1234.21994,0.16657
1236.14841,0.16615
1238.07688,0.16694
1240.00535,0.16823
1241.93382,0.17008
1243.86229,0.16986
1245.79075,0.16457
1247.71922,0.15864
1249.64769,0.15999
1251.57616,0.16540
1253.50463,0.16774
1255.43310,0.16838
1257.36157,0.16703
1259.29003,0.16197
1261.21850,0.15987
1263.14697,0.16547
1265.07544,0.17168
1267.00391,0.17148
1268.93238,0.16767
1270.86085,0.16641
1272.78932,0.16716
1274.71778,0.16541
1276.64625,0.16315
1278.57472,0.16260
1280.50319,0.16085
1282.43166,0.16082
1284.36013,0.16702
1286.28860,0.17275
1288.21706,0.17196
1290.14553,0.16746
1292.07400,0.16129
1294.00247,0.15585
1295.93094,0.15425
1297.85941,0.15497
1299.78788,0.15215
1301.71634,0.13861
1303.64481,0.12082
1305.57328,0.12138
1307.50175,0.14230
1309.43022,0.16050
1311.35869,0.16956
1313.28716,0.17670
1315.21563,0.17896
1317.14409,0.17476
1319.07256,0.17005
1321.00103,0.16832
1322.92950,0.16993
1324.85797,0.17076
1326.78644,0.16748
1328.71491,0.16361
1330.64337,0.15949
1332.57184,0.15849
1334.50031,0.16367
1336.42878,0.16764
1338.35725,0.16803
1340.28572,0.16303
1342.21419,0.14923
1344.14266,0.13831
1346.07112,0.14389
1347.99959,0.16147
1349.92806,0.17495
1351.85653,0.17885
1353.78500,0.17607
1355.71347,0.17104
1357.64194,0.16961
1359.57040,0.17343
1361.49887,0.17979
1363.42734,0.18283
1365.35581,0.17954
1367.28428,0.17422
1369.21275,0.17208
1371.14122,0.17576
1373.06969,0.18072
1374.99815,0.17921
1376.92662,0.17474
1378.85509,0.17358
1380.78356,0.17433
1382.71203,0.17818
1384.64050,0.18578
1386.56897,0.19067
1388.49743,0.18672
1390.42590,0.18148
1392.35437,0.18395
1394.28284,0.19131
1396.21131,0.19448
1398.13978,0.19105
1400.06825,0.18278
1401.99672,0.17620
1403.92518,0.17711
1405.85365,0.18248
1407.78212,0.18605
1409.71059,0.18643
1411.63906,0.18506
1413.56753,0.18442
1415.49600,0.18710
1417.42446,0.19671
1419.35293,0.20562
1421.28140,0.20100
1423.20987,0.19520
1425.13834,0.19402
1427.06681,0.19265
1428.99528,0.18968
1430.92375,0.18525
1432.85221,0.18329
1434.78068,0.19078
1436.70915,0.20160
1438.63762,0.19659
1440.56609,0.18547
1442.49456,0.17965
1444.42303,0.18025
1446.35149,0.18844
1448.27996,0.19681
1450.20843,0.19508
1452.13690,0.19275
1454.06537,0.20169
1455.99384,0.22153
1457.92231,0.22529
1459.85077,0.20554
1461.77924,0.19541
1463.70771,0.19538
1465.63618,0.19434
1467.56465,0.19142
1469.49312,0.19577
1471.42159,0.20965
1473.35006,0.21940
1475.27852,0.21135
1477.20699,0.19801
1479.13546,0.18856
1481.06393,0.18697
1482.99240,0.19113
1484.92087,0.19879
1486.84934,0.21090
1488.77780,0.21680
1490.70627,0.20377
1492.63474,0.19167
1494.56321,0.19429
1496.49168,0.20569
1498.42015,0.20851
1500.34862,0.20908
1502.27709,0.22195
1504.20555,0.24186
1506.13402,0.26139
1508.06249,0.24875
1509.99096,0.21773
1511.91943,0.20282
1513.84790,0.20300
1515.77637,0.20899
1517.70483,0.21390
1519.63330,0.22196
1521.56177,0.23138
1523.49024,0.22875
1525.41871,0.22136
1527.34718,0.21063
1529.27565,0.20091
1531.20412,0.20201
1533.13258,0.21001
1535.06105,0.21222
1536.98952,0.21561
1538.91799,0.23565
1540.84646,0.25618
1542.77493,0.23854
1544.70340,0.21171
1546.63186,0.19595
1548.56033,0.19532
1550.48880,0.20169
1552.41727,0.20582
1554.34574,0.20859
1556.27421,0.21883
1558.20268,0.24351
1560.13115,0.23372
1562.05961,0.20513
1563.98808,0.19265
1565.91655,0.18978
1567.84502,0.19432
1569.77349,0.20114
1571.70196,0.20220
1573.63043,0.20423
1575.55889,0.20649
1577.48736,0.19995
1579.41583,0.19231
1581.34430,0.18850
1583.27277,0.18626
1585.20124,0.18419
1587.12971,0.18172
1589.05818,0.17764
1590.98664,0.17309
1592.91511,0.17314
1594.84358,0.17724
1596.77205,0.17829
1598.70052,0.17711
1600.62899,0.17800
1602.55746,0.18078
1604.48592,0.18533
1606.41439,0.18984
1608.34286,0.18997
1610.27133,0.18589
1612.19980,0.18372
1614.12827,0.18606
1616.05674,0.19168
1617.98521,0.19293
1619.91367,0.18898
1621.84214,0.18935
1623.77061,0.19441
1625.69908,0.19739
1627.62755,0.19675
1629.55602,0.19363
1631.48449,0.19284
1633.41295,0.20060
1635.34142,0.21721
1637.26989,0.21815
1639.19836,0.20567
1641.12683,0.20031
1643.05530,0.20550
1644.98377,0.22138
1646.91223,0.23747
1648.84070,0.23517
1650.76917,0.23637
1652.69764,0.24931
1654.62611,0.23684
1656.55458,0.21571
1658.48305,0.20978
1660.41152,0.21599
1662.33998,0.21679
1664.26845,0.20346
1666.19692,0.20059
1668.12539,0.21539
1670.05386,0.22876
1671.98233,0.22424
1673.91080,0.21709
1675.83926,0.21179
1677.76773,0.20782
1679.69620,0.20812
1681.62467,0.21393
1683.55314,0.22432
1685.48161,0.22456
1687.41008,0.21491
1689.33855,0.20612
1691.26701,0.20062
1693.19548,0.20180
1695.12395,0.20899
1697.05242,0.21567
1698.98089,0.22097
1700.90936,0.22346
1702.83783,0.22061
1704.76629,0.21812
1706.69476,0.21023
1708.62323,0.19936
1710.55170,0.19569
1712.48017,0.19925
1714.40864,0.20816
1716.33711,0.22060
1718.26558,0.21773
1720.19404,0.20065
1722.12251,0.19087
1724.05098,0.18971
1725.97945,0.19151
1727.90792,0.19435
1729.83639,0.19967
1731.76486,0.20487
1733.69332,0.20269
1735.62179,0.19763
1737.55026,0.19928
1739.47873,0.20122
1741.40720,0.20064
1743.33567,0.20190
1745.26414,0.20352
1747.19261,0.20388
1749.12107,0.20641
1751.04954,0.20695
1752.97801,0.20084
1754.90648,0.19630
1756.83495,0.19510
1758.76342,0.19372
1760.69189,0.19582
1762.62035,0.19847
1764.54882,0.19720
1766.47729,0.19999
1768.40576,0.20800
1770.33423,0.21597
1772.26270,0.21808
1774.19117,0.20920
1776.11964,0.19992
1778.04810,0.19746
1779.97657,0.19875
1781.90504,0.19694
1783.83351,0.19272
1785.76198,0.19066
1787.69045,0.19198
1789.61892,0.19634
1791.54738,0.20025
1793.47585,0.20162
1795.40432,0.20330
1797.33279,0.20392
1799.26126,0.20228
1801.18973,0.19787
1803.11820,0.19247
1805.04666,0.19083
1806.97513,0.19229
1808.90360,0.19380
1810.83207,0.19387
1812.76054,0.19262
1814.68901,0.19624
1816.61748,0.20873
1818.54595,0.21844
1820.47441,0.21266
1822.40288,0.19992
1824.33135,0.19480
1826.25982,0.19830
1828.18829,0.20308
1830.11676,0.20307
1832.04523,0.19670
1833.97369,0.19188
1835.90216,0.19170
1837.83063,0.19254
1839.75910,0.19468
1841.68757,0.20116
1843.61604,0.20535
1845.54451,0.20037
1847.47298,0.19498
1849.40144,0.19100
1851.32991,0.18750
1853.25838,0.18627
1855.18685,0.18569
1857.11532,0.18573
1859.04379,0.18634
1860.97226,0.18611
1862.90072,0.18743
1864.82919,0.19255
1866.75766,0.19868
1868.68613,0.20119
1870.61460,0.19693
1872.54307,0.18943
1874.47154,0.18465
1876.40001,0.18348
1878.32847,0.18346
1880.25694,0.18412
1882.18541,0.18631
1884.11388,0.18977
1886.04235,0.19334
1887.97082,0.19618
1889.89929,0.19497
1891.82775,0.19049
1893.75622,0.19019
1895.68469,0.19289
1897.61316,0.19118
1899.54163,0.18672
1901.47010,0.18538
1903.39857,0.18644
1905.32704,0.18775
1907.25550,0.19082
1909.18397,0.19365
1911.11244,0.19369
1913.04091,0.19406
1914.96938,0.19479
1916.89785,0.19352
1918.82632,0.19153
1920.75478,0.19120
1922.68325,0.19221
1924.61172,0.19212
1926.54019,0.19098
1928.46866,0.19040
1930.39713,0.19075
1932.32560,0.19217
1934.25407,0.19329
1936.18253,0.19271
1938.11100,0.19170
1940.03947,0.19196
1941.96794,0.19255
1943.89641,0.19129
1945.82488,0.18901
1947.75335,0.18841
1949.68181,0.18958
1951.61028,0.18923
1953.53875,0.18655
1955.46722,0.18465
1957.39569,0.18455
1959.32416,0.18609
1961.25263,0.18994
1963.18110,0.19475
1965.10956,0.19823
1967.03803,0.19799
1968.96650,0.19374
1970.89497,0.18888
1972.82344,0.18638
1974.75191,0.18719
1976.68038,0.18914
1978.60884,0.18958
1980.53731,0.18953
1982.46578,0.19067
1984.39425,0.19150
1986.32272,0.19077
1988.25119,0.19040
1990.17966,0.19155
1992.10812,0.19346
1994.03659,0.19562
1995.96506,0.19639
1997.89353,0.19442
1999.82200,0.19128
2001.75047,0.18889
2003.67894,0.18853
2005.60741,0.19021
2007.53587,0.19111
2009.46434,0.19005
2011.39281,0.18835
2013.32128,0.18715
2015.24975,0.18833
2017.17822,0.19150
2019.10669,0.19326
2021.03515,0.19262
2022.96362,0.19098
2024.89209,0.19063
2026.82056,0.19130
2028.74903,0.18944
2030.67750,0.18594
2032.60597,0.18534
2034.53444,0.18772
2036.46290,0.19019
2038.39137,0.19193
2040.31984,0.19262
2042.24831,0.19183
2044.17678,0.19031
2046.10525,0.18898
2048.03372,0.18903
2049.96218,0.19035
2051.89065,0.18960
2053.81912,0.18627
2055.74759,0.18667
2057.67606,0.19161
2059.60453,0.19312
2061.53300,0.19009
2063.46147,0.18824
2065.38993,0.18900
2067.31840,0.18957
2069.24687,0.18943
2071.17534,0.19162
2073.10381,0.19639
2075.03228,0.19784
2076.96075,0.19358
2078.88921,0.18924
2080.81768,0.18843
2082.74615,0.18992
2084.67462,0.19196
2086.60309,0.19324
2088.53156,0.19283
2090.46003,0.19127
2092.38850,0.19080
2094.31696,0.19123
2096.24543,0.19098
2098.17390,0.19111
2100.10237,0.19259
2102.03084,0.19398
2103.95931,0.19366
2105.88778,0.19125
2107.81624,0.18861
2109.74471,0.18858
2111.67318,0.19042
2113.60165,0.19028
2115.53012,0.18791
2117.45859,0.18853
2119.38706,0.19346
2121.31553,0.19629
2123.24399,0.19430
2125.17246,0.19284
2127.10093,0.19482
2129.02940,0.19562
2130.95787,0.19289
2132.88634,0.19192
2134.81481,0.19397
2136.74327,0.19318
2138.67174,0.19055
2140.60021,0.19001
2142.52868,0.18945
2144.45715,0.18896
2146.38562,0.19003
2148.31409,0.19060
2150.24255,0.19101
2152.17102,0.19328
2154.09949,0.19466
2156.02796,0.19261
2157.95643,0.19041
2159.88490,0.19181
2161.81337,0.19487
2163.74184,0.19553
2165.67030,0.19504
2167.59877,0.19510
2169.52724,0.19374
2171.45571,0.19131
2173.38418,0.19021
2175.31265,0.19096
2177.24112,0.19334
2179.16958,0.19652
2181.09805,0.19717
2183.02652,0.19424
2184.95499,0.19049
2186.88346,0.18855
2188.81193,0.18874
2190.74040,0.18816
2192.66887,0.18766
2194.59733,0.19024
2196.52580,0.19218
2198.45427,0.19054
2200.38274,0.18909
2202.31121,0.18958
2204.23968,0.19029
2206.16815,0.19154
2208.09661,0.19302
2210.02508,0.19328
2211.95355,0.19265
2213.88202,0.19141
2215.81049,0.19112
2217.73896,0.19294
2219.66743,0.19403
2221.59590,0.19315
2223.52436,0.19064
2225.45283,0.18660
2227.38130,0.18502
2229.30977,0.18883
2231.23824,0.19465
2233.16671,0.19734
2235.09518,0.19633
2237.02364,0.19418
2238.95211,0.19305
2240.88058,0.19420
2242.80905,0.19479
2244.73752,0.19302
2246.66599,0.19273
2248.59446,0.19456
2250.52293,0.19472
2252.45139,0.19251
2254.37986,0.19011
2256.30833,0.18965
2258.23680,0.19065
2260.16527,0.19048
2262.09374,0.19009
2264.02221,0.19077
2265.95067,0.19113
2267.87914,0.19142
2269.80761,0.19234
2271.73608,0.19334
2273.66455,0.19268
2275.59302,0.18917
2277.52149,0.18665
2279.44996,0.18899
2281.37842,0.19361
2283.30689,0.19668
2285.23536,0.19659
2287.16383,0.19370
2289.09230,0.19177
2291.02077,0.19269
2292.94924,0.19342
2294.87770,0.19195
2296.80617,0.18969
2298.73464,0.18946
2300.66311,0.19134
2302.59158,0.19302
2304.52005,0.19416
2306.44852,0.19483
2308.37699,0.19388
2310.30545,0.19194
2312.23392,0.19106
2314.16239,0.19028
2316.09086,0.18942
2318.01933,0.19162
2319.94780,0.19659
2321.87627,0.20113
2323.80473,0.20009
2325.73320,0.19170
2327.66167,0.18618
2329.59014,0.19210
2331.51861,0.20248
2333.44708,0.20755
2335.37555,0.20837
2337.30401,0.20724
2339.23248,0.20687
2341.16095,0.21315
2343.08942,0.21958
2345.01789,0.21057
2346.94636,0.19759
2348.87483,0.19587
2350.80330,0.19937
2352.73176,0.20188
2354.66023,0.20944
2356.58870,0.22610
2358.51717,0.23363
2360.44564,0.21041
2362.37411,0.17318
2364.30258,0.16194
2366.23104,0.17607
2368.15951,0.19218
2370.08798,0.20408
2372.01645,0.20793
2373.94492,0.20364
2375.87339,0.19871
2377.80186,0.19764
2379.73033,0.19769
2381.65879,0.19505
2383.58726,0.19333
2385.51573,0.19560
2387.44420,0.19646
2389.37267,0.19399
2391.30114,0.19249
2393.22961,0.19028
2395.15807,0.18430
2397.08654,0.17955
2399.01501,0.18085
2400.94348,0.18625
2402.87195,0.19144
2404.80042,0.19301
2406.72889,0.19166
2408.65736,0.19038
2410.58582,0.18854
2412.51429,0.18789
2414.44276,0.19052
2416.37123,0.19214
2418.29970,0.19124
2420.22817,0.18938
2422.15664,0.18779
2424.08510,0.18951
2426.01357,0.19234
2427.94204,0.19235
2429.87051,0.19062
2431.79898,0.18912
2433.72745,0.18995
2435.65592,0.19279
2437.58439,0.19464
2439.51285,0.19465
2441.44132,0.19392
2443.36979,0.19295
2445.29826,0.19131
2447.22673,0.19151
2449.15520,0.19286
2451.08367,0.19057
2453.01213,0.18937
2454.94060,0.19116
2456.86907,0.18901
2458.79754,0.18596
2460.72601,0.18703
2462.65448,0.18867
2464.58295,0.19022
2466.51142,0.19336
2468.43988,0.19537
2470.36835,0.19485
2472.29682,0.19464
2474.22529,0.19589
2476.15376,0.19627
2478.08223,0.19481
2480.01070,0.19347
2481.93916,0.19300
2483.86763,0.19267
2485.79610,0.19293
2487.72457,0.19384
2489.65304,0.19294
2491.58151,0.18962
2493.50998,0.18796
2495.43844,0.19135
2497.36691,0.19708
2499.29538,0.19871
2501.22385,0.19589
2503.15232,0.19385
2505.08079,0.19355
2507.00926,0.19288
2508.93773,0.19061
2510.86619,0.18793
2512.79466,0.18860
2514.72313,0.19253
2516.65160,0.19548
2518.58007,0.19494
2520.50854,0.19180
2522.43701,0.19031
2524.36547,0.19110
2526.29394,0.19161
2528.22241,0.19355
2530.15088,0.19597
2532.07935,0.19622
2534.00782,0.19616
2535.93629,0.19629
2537.86476,0.19504
2539.79322,0.19256
2541.72169,0.19093
2543.65016,0.19098
2545.57863,0.19068
2547.50710,0.18911
2549.43557,0.18851
2551.36404,0.18941
2553.29250,0.18940
2555.22097,0.18809
2557.14944,0.18714
2559.07791,0.18783
2561.00638,0.19144
2562.93485,0.19670
2564.86332,0.19843
2566.79179,0.19596
2568.72025,0.19474
2570.64872,0.19614
2572.57719,0.19776
2574.50566,0.19818
2576.43413,0.19783
2578.36260,0.19800
2580.29107,0.19791
2582.21953,0.19717
2584.14800,0.19739
2586.07647,0.19822
2588.00494,0.19815
2589.93341,0.19760
2591.86188,0.19659
2593.79035,0.19493
2595.71882,0.19469
2597.64728,0.19630
2599.57575,0.19782
2601.50422,0.19718
2603.43269,0.19409
2605.36116,0.19166
2607.28963,0.19251
2609.21810,0.19595
2611.14656,0.19782
2613.07503,0.19593
2615.00350,0.19376
2616.93197,0.19318
2618.86044,0.19404
2620.78891,0.19623
2622.71738,0.19729
2624.64585,0.19701
2626.57431,0.19710
2628.50278,0.19589
2630.43125,0.19359
2632.35972,0.19348
2634.28819,0.19554
2636.21666,0.19828
2638.14513,0.19904
2640.07359,0.19610
2642.00206,0.19275
2643.93053,0.19161
2645.85900,0.19268
2647.78747,0.19512
2649.71594,0.19606
2651.64441,0.19438
2653.57288,0.19512
2655.50134,0.20003
2657.42981,0.20152
2659.35828,0.19907
2661.28675,0.19900
2663.21522,0.19942
2665.14369,0.19819
2667.07216,0.19902
2669.00062,0.20097
2670.92909,0.19953
2672.85756,0.19636
2674.78603,0.19585
2676.71450,0.19809
2678.64297,0.20101
2680.57144,0.20279
2682.49990,0.20253
2684.42837,0.20172
2686.35684,0.20126
2688.28531,0.19942
2690.21378,0.19533
2692.14225,0.19141
2694.07072,0.19104
2695.99919,0.19396
2697.92765,0.19754
2699.85612,0.20035
2701.78459,0.20194
2703.71306,0.20277
2705.64153,0.20278
2707.57000,0.20170
2709.49847,0.20045
2711.42693,0.20048
2713.35540,0.20308
2715.28387,0.20653
2717.21234,0.20694
2719.14081,0.20521
2721.06928,0.20551
2722.99775,0.20781
2724.92622,0.20953
2726.85468,0.20948
2728.78315,0.20729
2730.71162,0.20320
2732.64009,0.19952
2734.56856,0.19983
2736.49703,0.20287
2738.42550,0.20355
2740.35396,0.20146
2742.28243,0.20040
2744.21090,0.20180
2746.13937,0.20428
2748.06784,0.20629
2749.99631,0.20718
2751.92478,0.20749
2753.85325,0.20777
2755.78171,0.20697
2757.71018,0.20506
2759.63865,0.20370
2761.56712,0.20265
2763.49559,0.20138
2765.42406,0.20014
2767.35253,0.19936
2769.28099,0.19964
2771.20946,0.20048
2773.13793,0.20277
2775.06640,0.20617
2776.99487,0.20791
2778.92334,0.20766
2780.85181,0.20621
2782.78028,0.20522
2784.70874,0.20651
2786.63721,0.20929
2788.56568,0.21148
2790.49415,0.21166
2792.42262,0.21024
2794.35109,0.20918
2796.27956,0.20994
2798.20802,0.21106
2800.13649,0.21061
2802.06496,0.20979
2803.99343,0.20857
2805.92190,0.20550
2807.85037,0.20359
2809.77884,0.20647
2811.70731,0.21012
2813.63577,0.20945
2815.56424,0.20952
2817.49271,0.21429
2819.42118,0.21790
2821.34965,0.21610
2823.27812,0.21075
2825.20659,0.20675
2827.13505,0.20626
2829.06352,0.20745
2830.99199,0.20936
2832.92046,0.21189
2834.84893,0.21605
2836.77740,0.21787
2838.70587,0.21279
2840.63433,0.20765
2842.56280,0.20739
2844.49127,0.20847
2846.41974,0.21029
2848.34821,0.21157
2850.27668,0.20912
2852.20515,0.20784
2854.13362,0.21030
2856.06208,0.21011
2857.99055,0.20850
2859.91902,0.21166
2861.84749,0.21624
2863.77596,0.21566
2865.70443,0.21036
2867.63290,0.20615
2869.56136,0.20661
2871.48983,0.20785
2873.41830,0.20649
2875.34677,0.20615
2877.27524,0.20711
2879.20371,0.20694
2881.13218,0.20703
2883.06065,0.20529
2884.98911,0.20058
2886.91758,0.19815
2888.84605,0.20035
2890.77452,0.20439
2892.70299,0.20609
2894.63146,0.20525
2896.55993,0.20435
2898.48839,0.20201
2900.41686,0.19890
2902.34533,0.19695
2904.27380,0.19527
2906.20227,0.19558
2908.13074,0.19741
2910.05921,0.19687
2911.98768,0.19715
2913.91614,0.20110
2915.84461,0.20283
2917.77308,0.20002
2919.70155,0.19716
2921.63002,0.19866
2923.55849,0.20127
2925.48696,0.19654
2927.41542,0.18939
2929.34389,0.19105
2931.27236,0.19933
2933.20083,0.20448
2935.12930,0.20174
2937.05777,0.19616
2938.98624,0.19866
2940.91471,0.20818
2942.84317,0.21286
2944.77164,0.21036
2946.70011,0.20455
2948.62858,0.20114
2950.55705,0.20241
2952.48552,0.20397
2954.41399,0.20291
2956.34245,0.19381
2958.27092,0.18423
2960.19939,0.18938
2962.12786,0.20026
2964.05633,0.20186
2965.98480,0.19503
2967.91327,0.18999
2969.84174,0.19342
2971.77020,0.19885
2973.69867,0.20237
2975.62714,0.20401
2977.55561,0.20041
2979.48408,0.19941
2981.41255,0.20633
2983.34102,0.21279
2985.26948,0.21397
2987.19795,0.20918
2989.12642,0.20503
2991.05489,0.20893
2992.98336,0.21365
2994.91183,0.21353
2996.84030,0.21051
2998.76877,0.20633
3000.69723,0.20426
3002.62570,0.20329
3004.55417,0.20199
3006.48264,0.20127
3008.41111,0.19843
3010.33958,0.19064
3012.26805,0.17426
3014.19651,0.14664
3016.12498,0.12249
3018.05345,0.13188
3019.98192,0.17042
3021.91039,0.19870
3023.83886,0.20794
3025.76733,0.21321
3027.69579,0.21633
3029.62426,0.21530
3031.55273,0.21280
3033.48120,0.21246
3035.40967,0.21355
3037.33814,0.21147
3039.26661,0.20831
3041.19508,0.21003
3043.12354,0.21380
3045.05201,0.21238
3046.98048,0.20841
3048.90895,0.20973
3050.83742,0.21246
3052.76589,0.20917
3054.69436,0.20079
3056.62282,0.19257
3058.55129,0.19394
3060.47976,0.20318
3062.40823,0.20724
3064.33670,0.20189
3066.26517,0.19390
3068.19364,0.19451
3070.12211,0.20225
3072.05057,0.20838
3073.97904,0.21101
3075.90751,0.21006
3077.83598,0.21093
3079.76445,0.21437
3081.69292,0.21194
3083.62139,0.19801
3085.54985,0.18351
3087.47832,0.18991
3089.40679,0.20860
3091.33526,0.21404
3093.26373,0.20430
3095.19220,0.19546
3097.12067,0.19953
3099.04914,0.20782
3100.97760,0.20621
3102.90607,0.19850
3104.83454,0.20088
3106.76301,0.21303
3108.69148,0.21917
3110.61995,0.21555
3112.54842,0.21033
3114.47688,0.21197
3116.40535,0.21703
3118.33382,0.21565
3120.26229,0.20731
3122.19076,0.20154
3124.11923,0.20622
3126.04770,0.21229
3127.97617,0.21060
3129.90463,0.20665
3131.83310,0.20562
3133.76157,0.20641
3135.69004,0.20721
3137.61851,0.20691
3139.54698,0.20681
3141.47545,0.21088
3143.40391,0.21898
3145.33238,0.22428
3147.26085,0.22090
3149.18932,0.21462
3151.11779,0.21331
3153.04626,0.21484
3154.97473,0.21602
3156.90320,0.21578
3158.83166,0.21607
3160.76013,0.22084
3162.68860,0.22671
3164.61707,0.22704
3166.54554,0.22459
3168.47401,0.22566
3170.40248,0.22534
3172.33094,0.22040
3174.25941,0.21882
3176.18788,0.22152
3178.11635,0.22253
3180.04482,0.22001
3181.97329,0.21611
3183.90176,0.21651
3185.83022,0.22144
3187.75869,0.22363
3189.68716,0.22055
3191.61563,0.21606
3193.54410,0.21288
3195.47257,0.21159
3197.40104,0.21257
3199.32951,0.21437
3201.25797,0.21677
3203.18644,0.21869
3205.11491,0.21734
3207.04338,0.21660
3208.97185,0.21770
3210.90032,0.21519
3212.82879,0.21195
3214.75725,0.21316
3216.68572,0.21587
3218.61419,0.21818
3220.54266,0.22105
3222.47113,0.22234
3224.39960,0.22096
3226.32807,0.21968
3228.25654,0.21741
3230.18500,0.21289
3232.11347,0.21077
3234.04194,0.21231
3235.97041,0.21395
3237.89888,0.21409
3239.82735,0.21528
3241.75582,0.21766
3243.68428,0.21636
3245.61275,0.21272
3247.54122,0.21297
3249.46969,0.21599
3251.39816,0.21810
3253.32663,0.21916
3255.25510,0.21743
3257.18357,0.21426
3259.11203,0.21346
3261.04050,0.21133
3262.96897,0.20428
3264.89744,0.19904
3266.82591,0.20354
3268.75438,0.21365
3270.68285,0.22022
3272.61131,0.22009
3274.53978,0.21586
3276.46825,0.21054
3278.39672,0.20619
3280.32519,0.20638
3282.25366,0.21144
3284.18213,0.21833
3286.11060,0.22223
3288.03906,0.21799
3289.96753,0.21123
3291.89600,0.20961
3293.82447,0.20867
3295.75294,0.20664
3297.68141,0.20825
3299.60988,0.21177
3301.53834,0.21167
3303.46681,0.20843
3305.39528,0.20820
3307.32375,0.21355
3309.25222,0.22000
3311.18069,0.22041
3313.10916,0.21517
3315.03763,0.21141
3316.96609,0.20962
3318.89456,0.20845
3320.82303,0.20885
3322.75150,0.20906
3324.67997,0.20912
3326.60844,0.21243
3328.53691,0.21801
3330.46537,0.21946
3332.39384,0.21601
3334.32231,0.21407
3336.25078,0.21514
3338.17925,0.21423
3340.10772,0.21150
3342.03619,0.21096
3343.96466,0.21241
3345.89312,0.21550
3347.82159,0.21922
3349.75006,0.21880
3351.67853,0.21361
3353.60700,0.21048
3355.53547,0.21273
3357.46394,0.21789
3359.39240,0.22309
3361.32087,0.22335
3363.24934,0.21847
3365.17781,0.21695
3367.10628,0.22117
3369.03475,0.22508
3370.96322,0.22388
3372.89168,0.21933
3374.82015,0.21792
3376.74862,0.21812
3378.67709,0.21253
3380.60556,0.20407
3382.53403,0.20244
3384.46250,0.20790
3386.39097,0.21144
3388.31943,0.21073
3390.24790,0.21035
3392.17637,0.21128
3394.10484,0.21410
3396.03331,0.22009
3397.96178,0.22411
3399.89025,0.22057
3401.81871,0.21232
3403.74718,0.20733
3405.67565,0.21049
3407.60412,0.21550
3409.53259,0.21458
3411.46106,0.20996
3413.38953,0.20840
3415.31800,0.21251
3417.24646,0.21555
3419.17493,0.21325
3421.10340,0.20899
3423.03187,0.20395
3424.96034,0.20164
3426.88881,0.20563
3428.81728,0.21216
3430.74574,0.21729
3432.67421,0.21806
3434.60268,0.21255
3436.53115,0.20575
3438.45962,0.20154
3440.38809,0.20004
3442.31656,0.20184
3444.24503,0.20322
3446.17349,0.20113
3448.10196,0.19948
3450.03043,0.20240
3451.95890,0.20556
3453.88737,0.20206
3455.81584,0.19651
3457.74431,0.19836
3459.67277,0.20477
3461.60124,0.20726
3463.52971,0.20430
3465.45818,0.20111
3467.38665,0.20292
3469.31512,0.20716
3471.24359,0.20866
3473.17206,0.20524
3475.10052,0.19817
3477.02899,0.19541
3478.95746,0.20069
3480.88593,0.20642
3482.81440,0.20545
3484.74287,0.20116
3486.67134,0.19654
3488.59980,0.19093
3490.52827,0.18990
3492.45674,0.19301
3494.38521,0.19341
3496.31368,0.19098
3498.24215,0.18914
3500.17062,0.18872
3502.09909,0.18784
3504.02755,0.18606
3505.95602,0.18320
3507.88449,0.17943
3509.81296,0.17944
3511.74143,0.18296
3513.66990,0.18172
3515.59837,0.17676
3517.52683,0.17713
3519.45530,0.18374
3521.38377,0.19189
3523.31224,0.19675
3525.24071,0.19383
3527.16918,0.18559
3529.09765,0.17949
3531.02611,0.18088
3532.95458,0.18513
3534.88305,0.18502
3536.81152,0.18114
3538.73999,0.17654
3540.66846,0.17207
3542.59693,0.16930
3544.52540,0.17023
3546.45386,0.17209
3548.38233,0.17099
3550.31080,0.16924
3552.23927,0.16736
3554.16774,0.16345
3556.09621,0.16023
3558.02468,0.16076
3559.95314,0.16332
3561.88161,0.16486
3563.81008,0.16770
3565.73855,0.17653
3567.66702,0.18354
3569.59549,0.17785
3571.52396,0.16838
3573.45243,0.16114
3575.38089,0.15777
3577.30936,0.15869
3579.23783,0.16270
3581.16630,0.16816
3583.09477,0.17113
3585.02324,0.17145
3586.95171,0.17167
3588.88017,0.17107
3590.80864,0.16976
3592.73711,0.16848
3594.66558,0.16793
3596.59405,0.16886
3598.52252,0.16827
3600.45099,0.16235
3602.37946,0.15665
3604.30792,0.15806
3606.23639,0.16234
3608.16486,0.16320
3610.09333,0.16183
3612.02180,0.16181
3613.95027,0.16092
3615.87874,0.15946
3617.80720,0.15946
3619.73567,0.15793
3621.66414,0.15477
3623.59261,0.15201
3625.52108,0.15411
3627.44955,0.16639
3629.37802,0.17071
3631.30649,0.15768
3633.23495,0.15202
3635.16342,0.14971
3637.09189,0.14589
3639.02036,0.14498
3640.94883,0.14452
3642.87730,0.14316
3644.80577,0.14675
3646.73423,0.16439
3648.66270,0.19262
3650.59117,0.18696
3652.51964,0.16095
3654.44811,0.14759
3656.37658,0.14424
3658.30505,0.14400
3660.23352,0.14345
3662.16198,0.14125
3664.09045,0.13720
3666.01892,0.13479
3667.94739,0.13996
3669.87586,0.15252
3671.80433,0.16156
3673.73280,0.16946
3675.66126,0.17018
3677.58973,0.15232
3679.51820,0.13859
3681.44667,0.13523
3683.37514,0.13825
3685.30361,0.14586
3687.23208,0.15644
3689.16055,0.16187
3691.08901,0.15366
3693.01748,0.14412
3694.94595,0.14048
3696.87442,0.13904
3698.80289,0.13678
3700.73136,0.13494
3702.65983,0.13445
3704.58829,0.13372
3706.51676,0.13431
3708.44523,0.14090
3710.37370,0.15460
3712.30217,0.15750
3714.23064,0.14479
3716.15911,0.13582
3718.08757,0.13106
3720.01604,0.12780
3721.94451,0.13224
3723.87298,0.14186
3725.80145,0.14456
3727.72992,0.14000
3729.65839,0.13893
3731.58686,0.14726
3733.51532,0.16130
3735.44379,0.16620
3737.37226,0.15733
3739.30073,0.14910
3741.22920,0.14768
3743.15767,0.15591
3745.08614,0.16587
3747.01460,0.16313
3748.94307,0.16642
3750.87154,0.17896
3752.80001,0.17028
3754.72848,0.15247
3756.65695,0.14274
3758.58542,0.13557
3760.51389,0.12770
3762.44235,0.12676
3764.37082,0.13140
3766.29929,0.13416
3768.22776,0.13385
3770.15623,0.13214
3772.08470,0.12886
3774.01317,0.12563
3775.94163,0.12504
3777.87010,0.12782
3779.79857,0.12969
3781.72704,0.12764
3783.65551,0.12443
3785.58398,0.12211
3787.51245,0.12182
3789.44092,0.12306
3791.36938,0.12535
3793.29785,0.13039
3795.22632,0.13564
3797.15479,0.13625
3799.08326,0.13759
3801.01173,0.14287
3802.94020,0.14557
3804.86866,0.14216
3806.79713,0.13149
3808.72560,0.12002
3810.65407,0.11476
3812.58254,0.11501
3814.51101,0.12357
3816.43948,0.13776
3818.36795,0.14707
3820.29641,0.14896
3822.22488,0.13901
3824.15335,0.12719
3826.08182,0.12148
3828.01029,0.12316
3829.93876,0.13259
3831.86723,0.14083
3833.79569,0.14222
3835.72416,0.14522
3837.65263,0.15103
3839.58110,0.14802
3841.50957,0.14000
3843.43804,0.13616
3845.36651,0.13453
3847.29498,0.13345
3849.22344,0.13428
3851.15191,0.13689
3853.08038,0.13935
3855.00885,0.13764
3856.93732,0.13385
3858.86579,0.13103
3860.79426,0.13201
3862.72272,0.13812
3864.65119,0.14166
3866.57966,0.13685
3868.50813,0.13080
3870.43660,0.12876
3872.36507,0.12859
3874.29354,0.12506
3876.22200,0.12189
3878.15047,0.12423
3880.07894,0.12676
3882.00741,0.12466
3883.93588,0.12364
3885.86435,0.12423
3887.79282,0.12584
3889.72129,0.13023
3891.64975,0.13026
3893.57822,0.12005
3895.50669,0.11340
3897.43516,0.11936
3899.36363,0.13400
3901.29210,0.14347
3903.22057,0.13899
3905.14903,0.12464
3907.07750,0.11276
3909.00597,0.10986
3910.93444,0.11295
3912.86291,0.11640
3914.79138,0.11694
3916.71985,0.11617
3918.64832,0.11724
3920.57678,0.11531
3922.50525,0.11070
3924.43372,0.11138
3926.36219,0.11503
3928.29066,0.11814
3930.21913,0.12090
3932.14760,0.12157
3934.07606,0.12182
3936.00453,0.11925
3937.93300,0.11316
3939.86147,0.11012
3941.78994,0.11155
3943.71841,0.11330
3945.64688,0.11468
3947.57535,0.11617
3949.50381,0.11614
3951.43228,0.11733
3953.36075,0.12027
3955.28922,0.12073
3957.21769,0.11861
3959.14616,0.11453
3961.07463,0.11088
3963.00309,0.11106
3964.93156,0.11184
3966.86003,0.10872
3968.78850,0.10237
3970.71697,0.09832
3972.64544,0.10191
3974.57391,0.10996
3976.50238,0.11279
3978.43084,0.10953
3980.35931,0.10690
3982.28778,0.10616
3984.21625,0.10618
3986.14472,0.10493
3988.07319,0.10177
3990.00166,0.10223
3991.93012,0.10665
3993.85859,0.10898
3995.78706,0.10720
3997.71553,0.10571
3999.64400,0.10880
4001.57247,0.11289
4003.50094,0.11435
4005.42941,0.11358
4007.35787,0.11143
4009.28634,0.11004
4011.21481,0.10932
4013.14328,0.10872
4015.07175,0.10848
4017.00022,0.10619
4018.92869,0.10053
4020.85715,0.09646
4022.78562,0.09929
4024.71409,0.10629
4026.64256,0.11198
4028.57103,0.11436
4030.49950,0.11323
4032.42797,0.10939
4034.35644,0.10661
4036.28490,0.10585
4038.21337,0.10400
4040.14184,0.10136
4042.07031,0.09966
4043.99878,0.09761
4045.92725,0.09363
4047.85572,0.09169
4049.78418,0.09342
4051.71265,0.09352
4053.64112,0.09378
4055.56959,0.09634
4057.49806,0.09874
4059.42653,0.10281
4061.35500,0.10627
4063.28346,0.10649
4065.21193,0.10692
4067.14040,0.10664
4069.06887,0.10443
4070.99734,0.10306
4072.92581,0.10203
4074.85428,0.09816
4076.78275,0.09435
4078.71121,0.09668
4080.63968,0.09869
4082.56815,0.09253
4084.49662,0.08479
4086.42509,0.08126
4088.35356,0.08287
4090.28203,0.09018
4092.21049,0.09744
4094.13896,0.09818
4096.06743,0.09575
4097.99590,0.09600
4099.92437,0.09482
4101.85284,0.09072
4103.78131,0.08911
4105.70978,0.09020
4107.63824,0.09237
4109.56671,0.09627
4111.49518,0.10044
4113.42365,0.09979
4115.35212,0.09430
4117.28059,0.08821
4119.20906,0.07999
4121.13752,0.07191
4123.06599,0.07169
4124.99446,0.07931
4126.92293,0.08649
4128.85140,0.08627
4130.77987,0.08417
4132.70834,0.08907
4134.63681,0.09632
4136.56527,0.09708
4138.49374,0.09241
4140.42221,0.09086
4142.35068,0.09380
4144.27915,0.09340
4146.20762,0.09179
4148.13609,0.09443
4150.06455,0.09415
4151.99302,0.08608
4153.92149,0.08065
4155.84996,0.08522
4157.77843,0.08866
4159.70690,0.08450
4161.63537,0.07956
4163.56384,0.07797
4165.49230,0.07993
4167.42077,0.08146
4169.34924,0.07861
4171.27771,0.07547
4173.20618,0.07644
4175.13465,0.07611
4177.06312,0.07113
4178.99158,0.06949
4180.92005,0.07513
4182.84852,0.08182
4184.77699,0.08362
4186.70546,0.08318
4188.63393,0.08247
4190.56240,0.07807
4192.49087,0.07519
4194.41933,0.07857
4196.34780,0.08179
4198.27627,0.07878
4200.20474,0.07191
4202.13321,0.06818
4204.06168,0.06944
4205.99015,0.06979
4207.91861,0.06483
4209.84708,0.06267
4211.77555,0.06814
4213.70402,0.07322
4215.63249,0.07514
4217.56096,0.07628
4219.48943,0.07734
4221.41789,0.07854
4223.34636,0.07926
4225.27483,0.07550
4227.20330,0.06516
4229.13177,0.05564
4231.06024,0.05297
4232.98871,0.05367
4234.91718,0.05582
4236.84564,0.06109
4238.77411,0.06414
4240.70258,0.06329
4242.63105,0.06371
4244.55952,0.06555
4246.48799,0.06793
4248.41646,0.06724
4250.34492,0.06144
4252.27339,0.05824
4254.20186,0.06003
4256.13033,0.06051
4258.05880,0.06145
4259.98727,0.06437
4261.91574,0.06249
4263.84421,0.05863
4265.77267,0.06203
4267.70114,0.06979
4269.62961,0.07003
4271.55808,0.06429
4273.48655,0.06527
4275.41502,0.07385
4277.34349,0.07630
4279.27195,0.06315
4281.20042,0.04858
4283.12889,0.04904
4285.05736,0.05904
4286.98583,0.06676
4288.91430,0.06765
4290.84277,0.06332
4292.77124,0.05728
4294.69970,0.05262
4296.62817,0.05012
4298.55664,0.04950
4300.48511,0.05151
4302.41358,0.05452
4304.34205,0.05483
4306.27052,0.05488
4308.19898,0.05846
4310.12745,0.05809
4312.05592,0.05078
4313.98439,0.04703
4315.91286,0.05014
4317.84133,0.05323
4319.76980,0.05405
4321.69827,0.05246
4323.62673,0.04770
4325.55520,0.04622
4327.48367,0.05036
4329.41214,0.05092
4331.34061,0.04582
4333.26908,0.04482
4335.19755,0.04766
4337.12601,0.04527
4339.05448,0.04203
4340.98295,0.04448
4342.91142,0.05076
4344.83989,0.05896
4346.76836,0.06297
4348.69683,0.05648
4350.62530,0.04455
4352.55376,0.03849
4354.48223,0.03976
4356.41070,0.04127
4358.33917,0.04053
4360.26764,0.03864
4362.19611,0.03765
4364.12458,0.03717
4366.05304,0.03565
4367.98151,0.03873
4369.90998,0.04897
4371.83845,0.05899
4373.76692,0.06132
4375.69539,0.05451
4377.62386,0.04463
4379.55232,0.03734
4381.48079,0.03307
4383.40926,0.03522
4385.33773,0.04287
4387.26620,0.04506
4389.19467,0.04246
4391.12314,0.04234
4393.05161,0.04099
4394.98007,0.03880
4396.90854,0.03803
4398.83701,0.03725
4400.76548,0.03976
4402.69395,0.04327
4404.62242,0.04202
4406.55089,0.03895
4408.47935,0.03445
4410.40782,0.02600
4412.33629,0.02477
4414.26476,0.03569
4416.19323,0.04121
4418.12170,0.03369
4420.05017,0.02818
4421.97864,0.03271
4423.90710,0.03452
4425.83557,0.02895
4427.76404,0.02861
4429.69251,0.03441
4431.62098,0.03989
4433.54945,0.04516
4435.47792,0.04398
4437.40638,0.03223
4439.33485,0.02181
4441.26332,0.02280
4443.19179,0.02888
4445.12026,0.03293
4447.04873,0.03846
4448.97720,0.04502
4450.90567,0.04501
4452.83413,0.03648
4454.76260,0.02581
4456.69107,0.02404
4458.61954,0.03373
4460.54801,0.04129
4462.47648,0.03649
4464.40495,0.02743
4466.33341,0.02633
4468.26188,0.03357
4470.19035,0.04085
4472.11882,0.04099
4474.04729,0.03436
4475.97576,0.02667
4477.90423,0.02289
4479.83270,0.02541
4481.76116,0.03217
4483.68963,0.03540
4485.61810,0.02994
4487.54657,0.02174
4489.47504,0.02075
4491.40351,0.02757
4493.33198,0.03237
4495.26044,0.03141
4497.18891,0.03215
4499.11738,0.03448
4501.04585,0.02534
4502.97432,0.00798
4504.90279,0.00454
4506.83126,0.01471
4508.75973,0.02140
4510.68819,0.02229
4512.61666,0.02240
4514.54513,0.02183
4516.47360,0.02035
4518.40207,0.02127
4520.33054,0.02434
4522.25901,0.02835
4524.18747,0.02955
4526.11594,0.02263
4528.04441,0.01631
4529.97288,0.01616
4531.90135,0.01691
4533.82982,0.01926
4535.75829,0.02111
4537.68676,0.01928
4539.61522,0.01810
4541.54369,0.01773
4543.47216,0.01474
4545.40063,0.00999
4547.32910,0.00925
4549.25757,0.01244
4551.18604,0.01550
4553.11450,0.02186
4555.04297,0.02591
4556.97144,0.02004
4558.89991,0.01451
4560.82838,0.01729
4562.75685,0.02028
4564.68532,0.01544
4566.61378,0.00718
4568.54225,0.00324
4570.47072,0.00828
4572.39919,0.01979
4574.32766,0.02627
4576.25613,0.02211
4578.18460,0.01705
4580.11307,0.01826
4582.04153,0.01862
4583.97000,0.01610
4585.89847,0.01276
4587.82694,0.00820
4589.75541,0.00909
4591.68388,0.01794
4593.61235,0.02374
4595.54081,0.01935
4597.46928,0.01460
4599.39775,0.01703
4601.32622,0.01746
4603.25469,0.01216
4605.18316,0.00784
4607.11163,0.00345
4609.04010,0.00046
4610.96856,0.00699
4612.89703,0.01457
4614.82550,0.01296
4616.75397,0.01004
4618.68244,0.00980
4620.61091,0.00977
4622.53938,0.01029
4624.46784,0.01232
4626.39631,0.02346
4628.32478,0.03702
4630.25325,0.03371
4632.18172,0.02160
4634.11019,0.01741
4636.03866,0.01565
4637.96713,0.01337
4639.89559,0.01357
4641.82406,0.01174
4643.75253,0.01182
4645.68100,0.01633
4647.60947,0.01749
4649.53794,0.01579
4651.46641,0.01589
4653.39487,0.02077
4655.32334,0.02799
4657.25181,0.02525
4659.18028,0.01072
4661.10875,0.00147
4663.03722,0.00084
4664.96569,-0.00088
4666.89416,0.00175
4668.82262,0.00710
4670.75109,0.00249
4672.67956,-0.00600
4674.60803,-0.00501
4676.53650,0.00120
4678.46497,0.00224
4680.39344,-0.00104
4682.32190,-0.00126
4684.25037,0.00531
4686.17884,0.00854
4688.10731,0.00123
4690.03578,-0.00501
4691.96425,-0.00274
4693.89272,0.00088
4695.82119,0.00005
4697.74965,-0.00115
4699.67812,0.00133
4701.60659,0.00591
4703.53506,0.01062
4705.46353,0.01385
4707.39200,0.01477
4709.32047,0.01644
4711.24893,0.02025
4713.17740,0.02357
4715.10587,0.02409
4717.03434,0.01975
4718.96281,0.01330
4720.89128,0.01078
4722.81975,0.01434
4724.74821,0.01845
4726.67668,0.01492
4728.60515,0.00775
4730.53362,0.00498
4732.46209,0.00340
4734.39056,0.00155
4736.31903,0.00581
4738.24750,0.01371
4740.17596,0.01749
4742.10443,0.01887
4744.03290,0.02093
4745.96137,0.01639
4747.88984,-0.00109
4749.81831,-0.01499
4751.74678,-0.00554
4753.67524,0.01445
4755.60371,0.02153
4757.53218,0.01570
4759.46065,0.01296
4761.38912,0.01669
4763.31759,0.01672
4765.24606,0.01666
4767.17453,0.02112
4769.10299,0.02057
4771.03146,0.01711
4772.95993,0.01673
4774.88840,0.01578
4776.81687,0.01412
4778.74534,0.01307
4780.67381,0.00927
4782.60227,0.00447
4784.53074,0.00865
4786.45921,0.01837
4788.38768,0.01918
4790.31615,0.00984
4792.24462,-0.00073
4794.17309,-0.00405
4796.10156,0.00705
4798.03002,0.02542
4799.95849,0.03188
4801.88696,0.02511
4803.81543,0.02129
4805.74390,0.02485
4807.67237,0.01913
4809.60084,0.00153
4811.52930,-0.00547
4813.45777,0.00105
4815.38624,0.00505
4817.31471,0.00525
4819.24318,0.00892
4821.17165,0.00692
4823.10012,-0.00534
4825.02859,-0.00714
4826.95705,0.00874
4828.88552,0.02054
4830.81399,0.01023
4832.74246,-0.00706
4834.67093,-0.00438
4836.59940,0.01203
4838.52787,0.02039
4840.45633,0.01687
4842.38480,0.00803
4844.31327,0.00061
4846.24174,0.00237
4848.17021,0.00755
4850.09868,0.00276
4852.02715,-0.00852
4853.95562,-0.01321
4855.88408,-0.00751
4857.81255,0.00266
4859.74102,0.01630
4861.66949,0.03209
4863.59796,0.04063
4865.52643,0.03280
4867.45490,0.01138
4869.38336,-0.00360
4871.31183,-0.00533
4873.24030,-0.00233
4875.16877,0.00644
4877.09724,0.01891
4879.02571,0.02015
4880.95418,0.00528
4882.88265,-0.00558
4884.81111,-0.00203
4886.73958,0.00264
4888.66805,0.00285
4890.59652,0.00343
4892.52499,0.00453
4894.45346,0.00324
4896.38193,0.00546
4898.31039,0.02071
4900.23886,0.03263
4902.16733,0.02401
4904.09580,0.00799
4906.02427,-0.00169
4907.95274,-0.00798
4909.88121,-0.01809
4911.80967,-0.02339
4913.73814,-0.01522
4915.66661,-0.00144
4917.59508,0.01617
4919.52355,0.03370
4921.45202,0.03898
4923.38049,0.02982
4925.30896,0.01332
4927.23742,-0.00409
4929.16589,-0.01617
4931.09436,-0.01450
4933.02283,0.00389
4934.95130,0.02376
4936.87977,0.01960
4938.80824,-0.00136
4940.73670,-0.00420
4942.66517,0.01213
4944.59364,0.01884
4946.52211,0.01013
4948.45058,0.00321
4950.37905,0.00338
4952.30752,0.00079
4954.23599,-0.00647
4956.16445,-0.00635
4958.09292,-0.00106
4960.02139,-0.00041
4961.94986,0.00290
4963.87833,0.00943
4965.80680,0.00682
4967.73527,0.00050
4969.66373,0.00313
4971.59220,0.00884
4973.52067,0.00916
4975.44914,0.00791
4977.37761,0.00657
4979.30608,-0.00341
4981.23455,-0.01851
4983.16302,-0.01708
4985.09148,-0.00331
4987.01995,0.00283
4988.94842,0.00089
4990.87689,-0.00259
4992.80536,0.00079
4994.73383,0.01350
4996.66230,0.02203
4998.59076,0.01478
5000.51923,0.00206
5002.44770,0.00224
5004.37617,0.01482
5006.30464,0.02275
5008.23311,0.01816
5010.16158,0.01465
5012.09005,0.02294
5014.01851,0.03082
5015.94698,0.02869
5017.87545,0.02267
5019.80392,0.01890
5021.73239,0.01340
5023.66086,0.00344
5025.58933,0.00264
5027.51779,0.01671
5029.44626,0.02544
5031.37473,0.02304
5033.30320,0.01888
5035.23167,0.00647
5037.16014,-0.00265
5039.08861,0.01289
5041.01708,0.02637
5042.94554,0.01028
5044.87401,-0.00704
5046.80248,0.00412
5048.73095,0.02916
5050.65942,0.04496
5052.58789,0.04909
5054.51636,0.04069
5056.44482,0.01997
5058.37329,0.00745
5060.30176,0.01794
5062.23023,0.03258
5064.15870,0.03268
5066.08717,0.02474
5068.01564,0.01985
5069.94410,0.02091
5071.87257,0.02194
5073.80104,0.01697
5075.72951,0.02050
5077.65798,0.03423
5079.58645,0.03126
5081.51492,0.01521
5083.44339,0.01147
5085.37185,0.01935
5087.30032,0.02028
5089.22879,0.01021
5091.15726,0.01005
5093.08573,0.02555
5095.01420,0.03932
5096.94267,0.04564
5098.87113,0.04953
5100.79960,0.05007
5102.72807,0.04470
5104.65654,0.03475
5106.58501,0.02480
5108.51348,0.02478
5110.44195,0.02772
5112.37042,0.01868
5114.29888,0.01013
5116.22735,0.01037
5118.15582,0.01124
5120.08429,0.01576
5122.01276,0.03020
5123.94123,0.04584
5125.86970,0.04933
5127.79816,0.04716
5129.72663,0.04367
5131.65510,0.02973
5133.58357,0.01784
5135.51204,0.01851
5137.44051,0.01929
5139.36898,0.02677
5141.29745,0.04684
5143.22591,0.05197
5145.15438,0.03571
5147.08285,0.02864
5149.01132,0.03560
5150.93979,0.02790
5152.86826,0.00773
5154.79673,0.00885
5156.72519,0.02910
5158.65366,0.03614
5160.58213,0.02063
5162.51060,-0.00372
5164.43907,-0.00799
5166.36754,0.01998
5168.29601,0.04987
5170.22448,0.05154
5172.15294,0.03143
5174.08141,0.01782
5176.00988,0.01750
5177.93835,0.02326
5179.86682,0.03529
5181.79529,0.04112
5183.72376,0.03722
5185.65222,0.03266
5187.58069,0.02347
5189.50916,0.01877
5191.43763,0.02593
5193.36610,0.03632
5195.29457,0.04500
5197.22304,0.04899
5199.15151,0.05225
5201.07997,0.05940
5203.00844,0.06806
5204.93691,0.06928
5206.86538,0.05164
5208.79385,0.03267
5210.72232,0.03388
5212.65079,0.04812
5214.57925,0.05509
5216.50772,0.04413
5218.43619,0.03254
5220.36466,0.02627
5222.29313,0.01092
5224.22160,0.00648
5226.15007,0.04005
5228.07854,0.07469
5230.00700,0.07350
5231.93547,0.06764
5233.86394,0.07973
5235.79241,0.07993
5237.72088,0.05252
5239.64935,0.02475
5241.57782,0.02263
5243.50628,0.04064
5245.43475,0.05931
5247.36322,0.06661
5249.29169,0.05903
5251.22016,0.04846
5253.14863,0.04423
5255.07710,0.04100
5257.00556,0.04367
5258.93403,0.04226
5260.86250,0.02057
5262.79097,0.01383
5264.71944,0.04858
5266.64791,0.08091
5268.57638,0.08139
5270.50485,0.06600
5272.43331,0.05547
5274.36178,0.05010
5276.29025,0.04552
5278.21872,0.03709
5280.14719,0.02491
5282.07566,0.03253
5284.00413,0.06338
5285.93259,0.08544
5287.86106,0.08449
5289.78953,0.06674
5291.71800,0.04170
5293.64647,0.03685
5295.57494,0.05634
5297.50341,0.06880
5299.43188,0.07248
5301.36034,0.08371
5303.28881,0.08845
5305.21728,0.07814
5307.14575,0.05706
5309.07422,0.03972
5311.00269,0.04228
5312.93116,0.05300
5314.85962,0.06227
5316.78809,0.06626
5318.71656,0.05186
5320.64503,0.02921
5322.57350,0.02890
5324.50197,0.05821
5326.43044,0.08942
5328.35891,0.08612
5330.28737,0.05294
5332.21584,0.02879
5334.14431,0.02507
5336.07278,0.01788
5338.00125,0.01199
5339.92972,0.02782
5341.85819,0.04122
5343.78665,0.04487
5345.71512,0.05910
5347.64359,0.06877
5349.57206,0.05648
5351.50053,0.04177
5353.42900,0.04677
5355.35747,0.06220
5357.28594,0.06825
5359.21440,0.06364
5361.14287,0.06285
5363.07134,0.07017
5364.99981,0.07411
5366.92828,0.06777
5368.85675,0.04959
5370.78522,0.04485
5372.71368,0.07221
5374.64215,0.10474
5376.57062,0.12373
5378.49909,0.12856
5380.42756,0.11327
5382.35603,0.08473
5384.28450,0.06243
5386.21297,0.05392
5388.14143,0.04318
5390.06990,0.05062
5391.99837,0.08694
5393.92684,0.08942
5395.85531,0.05262
5397.78378,0.04230
5399.71225,0.04886
5401.64071,0.05356
5403.56918,0.05840
5405.49765,0.04966
5407.42612,0.03582
5409.35459,0.04563
5411.28306,0.07463
5413.21153,0.09398
5415.13999,0.09469
5417.06846,0.09745
5418.99693,0.11200
5420.92540,0.11121
5422.85387,0.08428
5424.78234,0.07572
5426.71081,0.10443
5428.63928,0.12296
5430.56774,0.11339
5432.49621,0.10359
5434.42468,0.08817
5436.35315,0.07599
5438.28162,0.08608
5440.21009,0.09848
5442.13856,0.09376
5444.06702,0.08337
5445.99549,0.07300
5447.92396,0.05915
5449.85243,0.05916
5451.78090,0.06978
5453.70937,0.06968
5455.63784,0.06734
5457.56631,0.07147
5459.49477,0.06613
5461.42324,0.06037
5463.35171,0.07897
5465.28018,0.10504
5467.20865,0.10633
5469.13712,0.08763
5471.06559,0.08506
5472.99405,0.10252
5474.92252,0.10321
5476.85099,0.08838
5478.77946,0.09625
5480.70793,0.10933
5482.63640,0.10155
5484.56487,0.08717
5486.49334,0.08230
5488.42180,0.08237
5490.35027,0.08051
5492.27874,0.08974
5494.20721,0.09189
5496.13568,0.04789
5498.06415,-0.00642
5499.99262,-0.01046
5501.92108,0.02841
5503.84955,0.07061
5505.77802,0.10193
5507.70649,0.10247
5509.63496,0.07273
5511.56343,0.05984
5513.49190,0.07672
5515.42037,0.08181
5517.34883,0.07452
5519.27730,0.08792
5521.20577,0.09818
5523.13424,0.08115
5525.06271,0.06445
5526.99118,0.06565
5528.91965,0.07049
5530.84811,0.06322
5532.77658,0.05792
5534.70505,0.07291
5536.63352,0.08857
5538.56199,0.08170
5540.49046,0.06074
5542.41893,0.04301
5544.34740,0.03946
5546.27586,0.06195
5548.20433,0.09758
5550.13280,0.10385
5552.06127,0.07848
5553.98974,0.05712
5555.91821,0.05494
5557.84668,0.05886
5559.77514,0.05196
5561.70361,0.04608
5563.63208,0.06238
5565.56055,0.08993
5567.48902,0.10222
5569.41749,0.08678
5571.34596,0.05613
5573.27443,0.04423
5575.20289,0.07427
5577.13136,0.11557
5579.05983,0.12518
5580.98830,0.09960
5582.91677,0.08005
5584.84524,0.09873
5586.77371,0.12662
5588.70217,0.12012
5590.63064,0.08045
5592.55911,0.03911
5594.48758,0.02404
5596.41605,0.05467
5598.34452,0.09564
5600.27299,0.09854
5602.20145,0.08742
5604.12992,0.07730
5606.05839,0.05851
5607.98686,0.03906
5609.91533,0.02016
5611.84380,0.00702
5613.77227,0.01323
5615.70074,0.04676
5617.62920,0.09280
5619.55767,0.11804
5621.48614,0.11753
5623.41461,0.11016
5625.34308,0.09573
5627.27155,0.08655
5629.20002,0.09907
5631.12848,0.11221
5633.05695,0.12110
5634.98542,0.12515
5636.91389,0.10286
5638.84236,0.06135
5640.77083,0.03770
5642.69930,0.04621
5644.62777,0.07435
5646.55623,0.10729
5648.48470,0.11813
5650.41317,0.09672
5652.34164,0.08270
5654.27011,0.10174
5656.19858,0.11876
5658.12705,0.11596
5660.05551,0.10825
5661.98398,0.09107
5663.91245,0.07442
5665.84092,0.06803
5667.76939,0.04678
5669.69786,0.01664
5671.62633,0.02207
5673.55480,0.06014
5675.48326,0.08742
5677.41173,0.09576
5679.34020,0.10366
5681.26867,0.10774
5683.19714,0.10325
5685.12561,0.11487
5687.05408,0.13298
5688.98254,0.10084
5690.91101,0.03300
5692.83948,0.00833
5694.76795,0.03477
5696.69642,0.06207
5698.62489,0.08423
5700.55336,0.10420
5702.48183,0.10619
5704.41029,0.10560
5706.33876,0.10579
5708.26723,0.09270
5710.19570,0.07281
5712.12417,0.05871
5714.05264,0.04715
5715.98111,0.03352
5717.90957,0.04628
5719.83804,0.09311
5721.76651,0.12734
5723.69498,0.12712
5725.62345,0.11037
5727.55192,0.10085
5729.48039,0.10632
5731.40886,0.10885
5733.33732,0.10945
5735.26579,0.11411
5737.19426,0.11282
5739.12273,0.10145
5741.05120,0.06947
5742.97967,0.04855
5744.90814,0.06249
5746.83660,0.06236
5748.76507,0.04667
5750.69354,0.05723
5752.62201,0.07866
5754.55048,0.08600
5756.47895,0.08985
5758.40742,0.10097
5760.33588,0.10727
5762.26435,0.11324
5764.19282,0.13039
5766.12129,0.13726
5768.04976,0.12970
5769.97823,0.10475
5771.90670,0.06420
5773.83517,0.04516
5775.76363,0.05216
5777.69210,0.05576
5779.62057,0.04097
5781.54904,0.02522
5783.47751,0.03081
5785.40598,0.06070
5787.33445,0.09680
5789.26291,0.11260
5791.19138,0.12152
5793.11985,0.13456
5795.04832,0.12361
5796.97679,0.09564
5798.90526,0.08651
5800.83373,0.09678
5802.76220,0.11227
5804.69066,0.11404
5806.61913,0.10034
5808.54760,0.08778
5810.47607,0.06329
5812.40454,0.04084
5814.33301,0.03816
5816.26148,0.04095
5818.18994,0.06845
5820.11841,0.10726
5822.04688,0.11230
5823.97535,0.10234
5825.90382,0.10315
5827.83229,0.10714
5829.76076,0.12570
5831.68923,0.15916
5833.61769,0.15127
5835.54616,0.09523
5837.47463,0.06466
5839.40310,0.08814
5841.33157,0.12788
5843.26004,0.14460
5845.18851,0.13062
5847.11697,0.11019
5849.04544,0.09999
5850.97391,0.08200
5852.90238,0.05496
5854.83085,0.04208
5856.75932,0.05205
5858.68779,0.07969
5860.61626,0.12187
5862.54472,0.15002
5864.47319,0.13924
5866.40166,0.12419
5868.33013,0.12352
5870.25860,0.12673
5872.18707,0.13961
5874.11554,0.15238
5876.04400,0.14966
5877.97247,0.12954
5879.90094,0.09410
5881.82941,0.07316
5883.75788,0.09086
5885.68635,0.11658
5887.61482,0.12693
5889.54329,0.12073
5891.47175,0.08759
5893.40022,0.05613
5895.32869,0.06484
5897.25716,0.08162
5899.18563,0.07447
5901.11410,0.07956
5903.04257,0.10268
5904.97103,0.11120
5906.89950,0.11062
5908.82797,0.10810
5910.75644,0.10996
5912.68491,0.12046
5914.61338,0.12241
5916.54185,0.11991
5918.47032,0.13043
5920.39878,0.14849
5922.32725,0.14585
5924.25572,0.11582
5926.18419,0.09814
5928.11266,0.10732
5930.04113,0.10135
5931.96960,0.07091
5933.89806,0.06147
5935.82653,0.08062
5937.75500,0.08876
5939.68347,0.07005
5941.61194,0.04824
5943.54041,0.05223
5945.46888,0.05435
5947.39734,0.02211
5949.32581,-0.01457
5951.25428,-0.00252
5953.18275,0.05441
5955.11122,0.08877
5957.03969,0.06994
5958.96816,0.07114
5960.89663,0.13395
5962.82509,0.16413
5964.75356,0.14616
5966.68203,0.14840
5968.61050,0.16444
5970.53897,0.15964
5972.46744,0.12566
5974.39591,0.07681
5976.32437,0.04531
5978.25284,0.04319
5980.18131,0.05563
5982.10978,0.06056
5984.03825,0.04774
5985.96672,0.04093
5987.89519,0.06737
5989.82366,0.11026
5991.75212,0.15169
5993.68059,0.18443
5995.60906,0.19594
5997.53753,0.17737
5999.46600,0.13243
6001.39447,0.08992
6003.32294,0.07411
6005.25140,0.08844
6007.17987,0.11758
6009.10834,0.13857
6011.03681,0.14011
6012.96528,0.11495
6014.89375,0.07553
6016.82222,0.05420
6018.75069,0.07424
6020.67915,0.12459
6022.60762,0.15342
6024.53609,0.12539
6026.46456,0.07830
6028.39303,0.08506
6030.32150,0.14279
6032.24997,0.15120
6034.17843,0.06775
6036.10690,-0.00650
6038.03537,0.03022
6039.96384,0.09797
6041.89231,0.08943
6043.82078,0.04494
6045.74925,0.02183
6047.67772,0.01598
6049.60618,0.04053
6051.53465,0.08380
6053.46312,0.10129
6055.39159,0.09608
6057.32006,0.10445
6059.24853,0.10702
6061.17700,0.09778
6063.10546,0.10768
6065.03393,0.09394
6066.96240,0.06676
6068.89087,0.08374
6070.81934,0.10333
6072.74781,0.09024
6074.67628,0.07738
6076.60475,0.08390
6078.53321,0.07265
6080.46168,0.03600
6082.39015,0.04379
6084.31862,0.08761
6086.24709,0.12023
6088.17556,0.15685
6090.10403,0.16932
6092.03249,0.12933
6093.96096,0.07551
6095.88943,0.03617
6097.81790,0.01793
6099.74637,0.04665
6101.67484,0.11540
6103.60331,0.14025
6105.53177,0.08583
6107.46024,0.04864
6109.38871,0.10177
6111.31718,0.15868
6113.24565,0.16368
6115.17412,0.14966
6117.10259,0.11474
6119.03106,0.09265
6120.95952,0.12757
6122.88799,0.15393
6124.81646,0.12375
6126.74493,0.09143
6128.67340,0.11749
6130.60187,0.15902
6132.53034,0.16455
6134.45880,0.13993
6136.38727,0.08008
6138.31574,0.00999
6140.24421,-0.02899
6142.17268,-0.04804
6144.10115,-0.05260
6146.02962,-0.01451
6147.95809,0.05613
6149.88655,0.08821
6151.81502,0.05238
6153.74349,0.02499
6155.67196,0.03351
6157.60043,0.04488
6159.52890,0.06057
6161.45737,0.05510
6163.38583,0.01307
6165.31430,-0.01751
6167.24277,-0.02746
6169.17124,-0.01445
6171.09971,0.03820
6173.02818,0.07143
6174.95665,0.05587
6176.88512,0.04491
6178.81358,0.03959
6180.74205,0.02747
6182.67052,0.05812
6184.59899,0.12580
6186.52746,0.14687
6188.45593,0.09776
6190.38440,0.06964
6192.31286,0.10319
6194.24133,0.12486
6196.16980,0.08966
6198.09827,0.05384
6200.02674,0.05839
6201.95521,0.06115
6203.88368,0.04413
6205.81215,0.04709
6207.74061,0.07057
6209.66908,0.08149
6211.59755,0.08224
6213.52602,0.09128
6215.45449,0.09257
6217.38296,0.08500
6219.31143,0.10168
6221.23989,0.15347
6223.16836,0.18681
6225.09683,0.13934
6227.02530,0.08358
6228.95377,0.07916
6230.88224,0.06802
6232.81071,0.05126
6234.73918,0.06726
6236.66764,0.08144
6238.59611,0.07759
6240.52458,0.09927
6242.45305,0.13790
6244.38152,0.13747
6246.30999,0.07979
6248.23846,-0.00557
6250.16692,-0.03690
6252.09539,0.00895
6254.02386,0.05326
6255.95233,0.05728
6257.88080,0.03985
6259.80927,0.01750
6261.73774,0.00439
6263.66621,0.00858
6265.59467,0.01216
6267.52314,0.00633
6269.45161,0.00582
6271.38008,0.03304
6273.30855,0.05774
6275.23702,0.01880
6277.16549,-0.02717
6279.09395,0.01427
6281.02242,0.11017
6282.95089,0.14936
6284.87936,0.11107
6286.80783,0.07515
6288.73630,0.07331
6290.66477,0.10246
6292.59323,0.13723
6294.52170,0.12058
6296.45017,0.06327
6298.37864,0.02640
6300.30711,0.01537
6302.23558,0.01292
6304.16405,-0.00549
6306.09252,-0.01617
6308.02098,0.03784
6309.94945,0.07781
6311.87792,0.04194
6313.80639,0.04290
6315.73486,0.11364
6317.66333,0.14855
6319.59180,0.10840
6321.52026,0.04466
6323.44873,0.02573
6325.37720,0.06635
6327.30567,0.11791
6329.23414,0.16461
6331.16261,0.19432
6333.09108,0.16606
6335.01955,0.10803
6336.94801,0.08525
6338.87648,0.08993
6340.80495,0.06591
6342.73342,0.03090
6344.66189,0.05678
6346.59036,0.14831
6348.51883,0.22155
6350.44729,0.21364
6352.37576,0.18411
6354.30423,0.18352
6356.23270,0.16987
6358.16117,0.16062
6360.08964,0.18889
6362.01811,0.20580
6363.94658,0.16681
6365.87504,0.12555
6367.80351,0.16524
6369.73198,0.23201
6371.66045,0.24517
6373.58892,0.21429
6375.51739,0.16973
6377.44586,0.12173
6379.37432,0.07401
6381.30279,0.05161
6383.23126,0.07064
6385.15973,0.09282
6387.08820,0.09085
6389.01667,0.08039
6390.94514,0.08185
6392.87361,0.09191
6394.80207,0.09157
6396.73054,0.09450
6398.65901,0.09357
6400.58748,0.06032
6402.51595,0.00019
6404.44442,-0.07438
6406.37289,-0.11344
6408.30135,-0.06305
6410.22982,0.00522
6412.15829,0.03037
6414.08676,0.03106
6416.01523,0.01243
6417.94370,-0.00824
6419.87217,-0.00906
6421.80064,0.01384
6423.72910,0.06518
6425.65757,0.11511
6427.58604,0.15127
6429.51451,0.19510
6431.44298,0.19605
6433.37145,0.11432
6435.29992,0.01203
6437.22838,-0.04270
6439.15685,-0.02298
6441.08532,0.02682
6443.01379,0.04755
6444.94226,0.02625
6446.87073,0.03486
6448.79920,0.08916
6450.72766,0.09320
6452.65613,0.03730
6454.58460,-0.00102
6456.51307,0.01974
6458.44154,0.10703
6460.37001,0.19495
6462.29848,0.21584
6464.22695,0.17185
6466.15541,0.11681
6468.08388,0.10421
6470.01235,0.10477
6471.94082,0.06536
6473.86929,0.03260
6475.79776,0.04468
6477.72623,0.03725
6479.65469,0.02175
6481.58316,0.10489
6483.51163,0.20693
6485.44010,0.18635
6487.36857,0.08342
6489.29704,0.00744
6491.22551,-0.02205
6493.15398,-0.04121
6495.08244,-0.01432
6497.01091,0.04242
6498.93938,0.06519
6500.86785,0.08976
6502.79632,0.14542
6504.72479,0.17818
6506.65326,0.17328
6508.58172,0.17151
6510.51019,0.18231
6512.43866,0.16219
6514.36713,0.11093
6516.29560,0.06927
6518.22407,0.05520
6520.15254,0.05229
6522.08101,0.02568
6524.00947,-0.03145
6525.93794,-0.07609
6527.86641,-0.08140
6529.79488,-0.06141
6531.72335,-0.03400
6533.65182,0.00165
6535.58029,0.05646
6537.50875,0.08557
6539.43722,0.05157
6541.36569,0.05455
6543.29416,0.15582
6545.22263,0.21649
6547.15110,0.17557
6549.07957,0.10458
6551.00804,0.04979
6552.93650,0.02958
6554.86497,0.04581
6556.79344,0.10483
6558.72191,0.17233
6560.65038,0.16754
6562.57885,0.11223
6564.50732,0.11090
6566.43578,0.14427
6568.36425,0.12571
6570.29272,0.07184
6572.22119,-0.00066
6574.14966,-0.04988
6576.07813,-0.03607
6578.00660,-0.01219
6579.93507,0.02190
6581.86353,0.09512
6583.79200,0.16445
6585.72047,0.19633
6587.64894,0.18173
6589.57741,0.13489
6591.50588,0.12402
6593.43435,0.19269
6595.36281,0.23873
6597.29128,0.15759
6599.21975,0.03588
6601.14822,0.00745
6603.07669,0.06375
6605.00516,0.11169
6606.93363,0.10745
6608.86210,0.07767
6610.79056,0.11237
6612.71903,0.21921
6614.64750,0.30181
6616.57597,0.26964
6618.50444,0.17008
6620.43291,0.14476
6622.36138,0.16447
6624.28984,0.18180
6626.21831,0.24394
6628.14678,0.28046
6630.07525,0.18589
6632.00372,0.06672
6633.93219,0.03230
6635.86066,0.05221
6637.78912,0.07835
6639.71759,0.10429
6641.64606,0.14206
6643.57453,0.15835
6645.50300,0.10693
6647.43147,0.05740
6649.35994,0.08312
6651.28841,0.12047
6653.21687,0.12958
6655.14534,0.12277
6657.07381,0.07615
6659.00228,0.03502
6660.93075,0.06156
6662.85922,0.09860
6664.78769,0.10158
6666.71615,0.07667
6668.64462,0.06655
6670.57309,0.11217
6672.50156,0.14640
6674.43003,0.09663
6676.35850,0.06122
6678.28697,0.13271
6680.21544,0.19171
6682.14390,0.11688
6684.07237,-0.00775
6686.00084,-0.09466
6687.92931,-0.16551
6689.85778,-0.16733
6691.78625,-0.07059
6693.71472,0.02437
6695.64318,0.06900
6697.57165,0.09314
6699.50012,0.13437
6701.42859,0.20560
6703.35706,0.26028
6705.28553,0.23249
6707.21400,0.12099
6709.14247,0.00069
6711.07093,-0.05048
6712.99940,-0.02120
6714.92787,0.05983
6716.85634,0.10259
6718.78481,0.05431
6720.71328,-0.03892
6722.64175,-0.11118
6724.57021,-0.10725
6726.49868,-0.05597
6728.42715,-0.03541
6730.35562,-0.05565
6732.28409,-0.05616
6734.21256,-0.04625
6736.14103,-0.06438
6738.06950,-0.04529
6739.99796,0.01729
6741.92643,0.05915
6743.85490,0.07733
6745.78337,0.07964
6747.71184,0.04384
6749.64031,-0.00949
6751.56878,0.00941
6753.49724,0.08231
6755.42571,0.08011
6757.35418,0.00308
6759.28265,-0.02481
6761.21112,0.04319
6763.13959,0.05210
6765.06806,-0.04707
6766.99653,-0.09358
6768.92499,-0.00120
6770.85346,0.10741
6772.78193,0.08193
6774.71040,-0.02133
6776.63887,-0.04667
6778.56734,0.01514
6780.49581,0.08185
6782.42427,0.08773
6784.35274,0.04214
6786.28121,0.04947
6788.20968,0.11708
6790.13815,0.16326
6792.06662,0.18214
6793.99509,0.20084
6795.92355,0.24780
6797.85202,0.30767
6799.78049,0.30821
6801.70896,0.27641
6803.63743,0.24983
6805.56590,0.18593
6807.49437,0.12506
6809.42284,0.09500
6811.35130,0.07719
6813.27977,0.10399
6815.20824,0.16951
6817.13671,0.20100
6819.06518,0.16495
6820.99365,0.09697
6822.92212,0.03924
6824.85058,-0.02718
6826.77905,-0.10184
6828.70752,-0.14327
6830.63599,-0.12213
6832.56446,-0.05484
6834.49293,0.00805
6836.42140,0.05164
6838.34987,0.05807
6840.27833,0.08137
6842.20680,0.17451
6844.13527,0.23629
6846.06374,0.16703
6847.99221,0.04073
6849.92068,0.07777
6851.84915,0.20896
6853.77761,0.21006
6855.70608,0.11948
6857.63455,0.06360
6859.56302,0.03418
6861.49149,0.01281
6863.41996,0.01053
6865.34843,-0.00518
6867.27690,-0.04232
6869.20536,-0.03689
6871.13383,0.02338
6873.06230,0.05044
6874.99077,0.01650
6876.91924,-0.00813
6878.84771,0.01669
6880.77618,0.07098
6882.70464,0.02492
6884.63311,-0.11520
6886.56158,-0.18503
6888.49005,-0.15344
6890.41852,-0.10881
6892.34699,-0.03751
6894.27546,0.07357
6896.20393,0.14132
6898.13239,0.13790
6900.06086,0.10944
6901.98933,0.08393
6903.91780,0.11650
6905.84627,0.21821
6907.77474,0.30925
6909.70321,0.35396
6911.63167,0.27900
6913.56014,0.06723
6915.48861,-0.09535
6917.41708,-0.12954
6919.34555,-0.04296
6921.27402,0.11072
6923.20249,0.19172
6925.13096,0.23181
6927.05942,0.28764
6928.98789,0.30198
6930.91636,0.21055
6932.84483,0.05925
6934.77330,-0.01567
6936.70177,-0.01795
6938.63024,0.01446
6940.55870,0.12974
6942.48717,0.25569
6944.41564,0.26526
6946.34411,0.15773
6948.27258,0.03513
6950.20105,0.04911
6952.12952,0.14296
6954.05799,0.14985
6955.98645,0.10499
6957.91492,0.09702
6959.84339,0.08693
6961.77186,0.06481
6963.70033,0.07316
6965.62880,0.07576
6967.55727,0.03091
6969.48573,-0.00218
6971.41420,-0.01911
6973.34267,-0.01569
6975.27114,0.00163
6977.19961,-0.04714
6979.12808,-0.06263
6981.05655,-0.00444
6982.98501,0.02881
6984.91348,0.02203
6986.84195,-0.01535
6988.77042,-0.05202
6990.69889,0.00714
6992.62736,0.11727
6994.55583,0.22945
6996.48430,0.32323
6998.41276,0.28813
7000.34123,0.18452
7002.26970,0.18046
7004.19817,0.22827
7006.12664,0.19365
7008.05511,0.07456
7009.98358,-0.01826
7011.91204,-0.05164
7013.84051,-0.04289
7015.76898,-0.02167
7017.69745,0.01118
7019.62592,0.05990
7021.55439,0.10940
7023.48286,0.15644
7025.41133,0.21316
7027.33979,0.27386
7029.26826,0.27308
7031.19673,0.22677
7033.12520,0.18474
7035.05367,0.09194
7036.98214,-0.00869
7038.91061,-0.04771
7040.83907,-0.08068
7042.76754,-0.05349
7044.69601,0.07486
7046.62448,0.08438
7048.55295,-0.01356
7050.48142,0.00582
7052.40989,0.14779
7054.33836,0.25964
7056.26682,0.23242
7058.19529,0.12430
7060.12376,0.08281
7062.05223,0.11404
7063.98070,0.16680
7065.90917,0.20794
7067.83764,0.19585
7069.76610,0.19184
7071.69457,0.23400
7073.62304,0.15415
7075.55151,-0.00896
7077.47998,-0.08708
7079.40845,-0.03252
7081.33692,0.11373
7083.26539,0.23158
7085.19385,0.23427
7087.12232,0.11053
7089.05079,-0.00097
7090.97926,0.00164
7092.90773,-0.01516
7094.83620,-0.05218
7096.76467,0.05937
7098.69313,0.23179
7100.62160,0.25206
7102.55007,0.21944
7104.47854,0.19095
7106.40701,0.08589
7108.33548,-0.01577
7110.26395,-0.02213
7112.19242,0.01540
7114.12088,0.09218
7116.04935,0.20100
7117.97782,0.23261
7119.90629,0.18714
7121.83476,0.17368
7123.76323,0.14264
7125.69170,0.06225
7127.62016,0.05049
7129.54863,0.12177
7131.47710,0.14065
7133.40557,0.10236
7135.33404,0.12998
7137.26251,0.19769
7139.19098,0.18216
7141.11944,0.07428
7143.04791,-0.04958
7144.97638,-0.10688
7146.90485,-0.07599
7148.83332,-0.00238
7150.76179,0.12025
7152.69026,0.27865
7154.61873,0.32000
7156.54719,0.12324
7158.47566,-0.02521
7160.40413,0.11125
7162.33260,0.20416
7164.26107,-0.00670
7166.18954,-0.12958
7168.11801,0.00850
7170.04647,0.06093
7171.97494,0.00554
7173.90341,-0.04052
7175.83188,-0.10198
7177.76035,-0.06747
7179.68882,0.08334
7181.61729,0.15682
7183.54576,0.06070
7185.47422,-0.02810
7187.40269,-0.04380
7189.33116,-0.04623
7191.25963,-0.03608
7193.18810,0.03142
7195.11657,0.11666
7197.04504,0.15408
7198.97350,0.18165
7200.90197,0.19120
7202.83044,0.16718
7204.75891,0.21052
7206.68738,0.26450
7208.61585,0.20326
7210.54432,0.06624
7212.47279,-0.05858
7214.40125,-0.08592
7216.32972,-0.06894
7218.25819,-0.04160
7220.18666,0.08109
7222.11513,0.17139
7224.04360,0.19262
7225.97207,0.24378
7227.90053,0.24767
7229.82900,0.15505
7231.75747,0.16802
7233.68594,0.24552
7235.61441,0.25148
7237.54288,0.28507
7239.47135,0.33714
7241.39982,0.26295
7243.32828,0.12002
7245.25675,0.12403
7247.18522,0.13873
7249.11369,0.00787
7251.04216,-0.14174
7252.97063,-0.09548
7254.89910,-0.03177
7256.82756,-0.10828
7258.75603,-0.10861
7260.68450,0.03181
7262.61297,0.06499
7264.54144,-0.02306
7266.46991,-0.02925
7268.39838,0.05427
7270.32685,0.13798
7272.25531,0.11800
7274.18378,0.06687
7276.11225,0.10441
7278.04072,0.17259
7279.96919,0.26074
7281.89766,0.37344
7283.82613,0.33901
7285.75459,0.10275
7287.68306,-0.11880
7289.61153,-0.12202
7291.54000,0.04614
7293.46847,0.12518
7295.39694,0.06475
7297.32541,0.01719
7299.25387,0.02335
7301.18234,0.05458
7303.11081,0.09858
7305.03928,0.22040
7306.96775,0.47542
7308.89622,0.55808
7310.82469,0.34952
7312.75316,0.27014
7314.68162,0.31106
7316.61009,0.30376
7318.53856,0.27397
7320.46703,0.19325
7322.39550,0.00643
7324.32397,-0.16457
7326.25244,-0.23327
7328.18090,-0.25509
7330.10937,-0.24702
7332.03784,-0.22965
7333.96631,-0.13050
7335.89478,0.06830
7337.82325,0.17362
7339.75172,0.03696
7341.68019,-0.00088
7343.60865,0.18976
7345.53712,0.30217
7347.46559,0.24653
7349.39406,0.18097
7351.32253,0.22097
7353.25100,0.31145
7355.17947,0.44793
7357.10793,0.58822
7359.03640,0.45821
7360.96487,0.18318
7362.89334,0.09015
7364.82181,0.06505
7366.75028,0.03693
7368.67875,0.00028
7370.60722,-0.00994
7372.53568,0.09325
7374.46415,0.23193
7376.39262,0.24347
7378.32109,0.18316
7380.24956,0.05947
7382.17803,-0.15407
7384.10650,-0.29002
7386.03496,-0.32012
7387.96343,-0.36844
7389.89190,-0.34308
7391.82037,-0.16714
7393.74884,-0.01048
7395.67731,-0.02894
7397.60578,-0.12072
7399.53425,-0.12153
7401.46271,-0.03004
7403.39118,0.12430
7405.31965,0.34376
7407.24812,0.42197
7409.17659,0.31497
7411.10506,0.26218
7413.03353,0.26280
7414.96199,0.14427
7416.89046,-0.00533
7418.81893,0.10553
7420.74740,0.28823
7422.67587,0.20634
7424.60434,0.05154
7426.53281,-0.02931
7428.46128,0.01210
7430.38974,0.13730
7432.31821,0.21118
7434.24668,0.20806
7436.17515,0.10758
7438.10362,0.02990
7440.03209,0.14486
7441.96056,0.24361
7443.88902,0.13629
7445.81749,0.08455
7447.74596,0.17252
7449.67443,0.19319
7451.60290,0.10954
7453.53137,0.11404
7455.45984,0.21787
7457.38831,0.25142
7459.31677,0.19791
7461.24524,0.19784
7463.17371,0.16517
7465.10218,0.06111
7467.03065,0.05803
7468.95912,0.09675
7470.88759,0.06941
7472.81605,0.07327
7474.74452,0.10074
7476.67299,-0.00021
7478.60146,-0.15563
7480.52993,-0.12469
7482.45840,-0.01814
7484.38687,-0.10697
7486.31533,-0.22727
7488.24380,-0.13754
7490.17227,-0.00296
7492.10074,0.01796
7494.02921,0.07142
7495.95768,0.16937
7497.88615,0.24228
