399.19301,5.01186
401.12148,-0.00144
403.04995,-0.34654
404.97842,-0.23545
406.90689,-0.11926
408.83536,-0.05764
410.76382,-0.07693
412.69229,-0.03830
414.62076,0.09170
416.54923,0.15417
418.47770,0.06601
420.40617,-0.04702
422.33464,-0.04643
424.26311,0.01439
426.19157,0.03247
428.12004,-0.03225
430.04851,-0.03767
431.97698,0.08498
433.90545,0.14042
435.83392,0.10746
437.76239,0.07772
439.69085,0.07524
441.61932,0.07642
443.54779,0.05790
445.47626,0.06544
447.40473,0.13009
449.33320,0.18431
451.26167,0.16044
453.19013,0.10353
455.11860,0.04067
457.04707,-0.05111
458.97554,-0.10787
460.90401,-0.07486
462.83248,-0.02488
464.76095,-0.02024
466.68942,-0.01351
468.61788,0.02885
470.54635,0.04616
472.47482,-0.02793
474.40329,-0.14623
476.33176,-0.08462
478.26023,0.03223
480.18870,0.08429
482.11716,0.08100
484.04563,0.05737
485.97410,0.06997
487.90257,0.08740
489.83104,0.05057
491.75951,-0.00874
493.68798,-0.03019
495.61645,0.02492
497.54491,0.09496
499.47338,0.12197
501.40185,0.14162
503.33032,0.14654
505.25879,0.12534
507.18726,0.11707
509.11573,0.11219
511.04419,0.08499
512.97266,0.07009
514.90113,0.06731
516.82960,0.03780
518.75807,0.02623
520.68654,0.07641
522.61501,0.12589
524.54348,0.11575
526.47194,0.07463
528.40041,0.05245
530.32888,0.06254
532.25735,0.10617
534.18582,0.15683
536.11429,0.18145
538.04276,0.17925
539.97122,0.17689
541.89969,0.18156
543.82816,0.17052
545.75663,0.14997
547.68510,0.14059
549.61357,0.12183
551.54204,0.10113
553.47051,0.11340
555.39897,0.13204
557.32744,0.12987
559.25591,0.11766
561.18438,0.09228
563.11285,0.06971
565.04132,0.06449
566.96979,0.05179
568.89825,0.04297
570.82672,0.05997
572.75519,0.07873
574.68366,0.08057
576.61213,0.08263
578.54060,0.10531
580.46907,0.13600
582.39754,0.14985
584.32600,0.14982
586.25447,0.15409
588.18294,0.15609
590.11141,0.13259
592.03988,0.08983
593.96835,0.07043
595.89682,0.08896
597.82528,0.11490
599.75375,0.12812
601.68222,0.13302
603.61069,0.13373
605.53916,0.12979
607.46763,0.12740
609.39610,0.13120
611.32456,0.13252
613.25303,0.12155
615.18150,0.09868
617.10997,0.08238
619.03844,0.09037
620.96691,0.10426
622.89538,0.10653
624.82385,0.11330
626.75231,0.12868
628.68078,0.13746
630.60925,0.13771
632.53772,0.13107
634.46619,0.12047
636.39466,0.12835
638.32313,0.16195
640.25159,0.18267
642.18006,0.17291
644.10853,0.15887
646.03700,0.13939
647.96547,0.11180
649.89394,0.09218
651.82241,0.08394
653.75088,0.09471
655.67934,0.11654
657.60781,0.12476
659.53628,0.12716
661.46475,0.13146
663.39322,0.12004
665.32169,0.08517
667.25016,0.04557
669.17862,0.06134
671.10709,0.09958
673.03556,0.11071
674.96403,0.11054
676.89250,0.10840
678.82097,0.10868
680.74944,0.11264
682.67791,0.11758
684.60637,0.11439
686.53484,0.10607
688.46331,0.10845
690.39178,0.11743
692.32025,0.12449
694.24872,0.12836
696.17719,0.12215
698.10565,0.11106
700.03412,0.11273
701.96259,0.12543
703.89106,0.13741
705.81953,0.14459
707.74800,0.14138
709.67647,0.13344
711.60494,0.13809
713.53340,0.14687
715.46187,0.14161
717.39034,0.13452
719.31881,0.13886
721.24728,0.14586
723.17575,0.14476
725.10422,0.13757
727.03268,0.13218
728.96115,0.13161
730.88962,0.13988
732.81809,0.15387
734.74656,0.15982
736.67503,0.15587
738.60350,0.14745
740.53197,0.14149
742.46043,0.14549
744.38890,0.15494
746.31737,0.16411
748.24584,0.17054
750.17431,0.17054
752.10278,0.16754
754.03125,0.16197
755.95971,0.15009
757.88818,0.13554
759.81665,0.11931
761.74512,0.10722
763.67359,0.10957
765.60206,0.12032
767.53053,0.13215
769.45900,0.14711
771.38746,0.16220
773.31593,0.16989
775.24440,0.16703
777.17287,0.15823
779.10134,0.14906
781.02981,0.13973
782.95828,0.13065
784.88674,0.12481
786.81521,0.12711
788.74368,0.13420
790.67215,0.13485
792.60062,0.13274
794.52909,0.13287
796.45756,0.13575
798.38602,0.14806
800.31449,0.15652
802.24296,0.15184
804.17143,0.15488
806.09990,0.16245
808.02837,0.15113
809.95684,0.12811
811.88531,0.11432
813.81377,0.11564
815.74224,0.13004
817.67071,0.14225
819.59918,0.13452
821.52765,0.12454
823.45612,0.13139
825.38459,0.13592
827.31305,0.12828
829.24152,0.12326
831.16999,0.12494
833.09846,0.12710
835.02693,0.12668
836.95540,0.12664
838.88387,0.12845
840.81234,0.13165
842.74080,0.13731
844.66927,0.14167
846.59774,0.14203
848.52621,0.14446
850.45468,0.14957
852.38315,0.15183
854.31162,0.15025
856.24008,0.14334
858.16855,0.13594
860.09702,0.14113
862.02549,0.15587
863.95396,0.15814
865.88243,0.14627
867.81090,0.13980
869.73937,0.13978
871.66783,0.14066
873.59630,0.14505
875.52477,0.15027
877.45324,0.15548
879.38171,0.15960
881.31018,0.15498
883.23865,0.14422
885.16711,0.13576
887.09558,0.13365
889.02405,0.14018
890.95252,0.14694
892.88099,0.14813
894.80946,0.14623
896.73793,0.14214
898.66640,0.14456
900.59486,0.15605
902.52333,0.16323
904.45180,0.15838
906.38027,0.14886
908.30874,0.14306
910.23721,0.14291
912.16568,0.14876
914.09414,0.15603
916.02261,0.16085
917.95108,0.16353
919.87955,0.16134
921.80802,0.15815
923.73649,0.15813
925.66496,0.15459
927.59343,0.14479
929.52189,0.13598
931.45036,0.13716
933.37883,0.14559
935.30730,0.15199
937.23577,0.15578
939.16424,0.15480
941.09271,0.14848
943.02117,0.14599
944.94964,0.15015
946.87811,0.15711
948.80658,0.16136
950.73505,0.15552
952.66352,0.14496
954.59199,0.14360
956.52045,0.14799
958.44892,0.14801
960.37739,0.14534
962.30586,0.14095
964.23433,0.13336
966.16280,0.12904
968.09127,0.13498
970.01974,0.14330
971.94820,0.14648
973.87667,0.15297
975.80514,0.15878
977.73361,0.14886
979.66208,0.13370
981.59055,0.13458
983.51902,0.14751
985.44748,0.15442
987.37595,0.15133
989.30442,0.14833
991.23289,0.15111
993.16136,0.15264
995.08983,0.14860
997.01830,0.14594
998.94677,0.15097
1000.87523,0.16156
1002.80370,0.16641
1004.73217,0.16421
1006.66064,0.16576
1008.58911,0.16617
1010.51758,0.16071
1012.44605,0.15926
1014.37451,0.16037
1016.30298,0.15851
1018.23145,0.15869
1020.15992,0.15945
1022.08839,0.15747
1024.01686,0.15855
1025.94533,0.16128
1027.87380,0.16048
1029.80226,0.16129
1031.73073,0.16599
1033.65920,0.16557
1035.58767,0.15774
1037.51614,0.14973
1039.44461,0.14499
1041.37308,0.14683
1043.30154,0.15419
1045.23001,0.15784
1047.15848,0.15793
1049.08695,0.16250
1051.01542,0.16952
1052.94389,0.16905
1054.87236,0.16279
1056.80083,0.16345
1058.72929,0.17189
1060.65776,0.17595
1062.58623,0.17002
1064.51470,0.16173
1066.44317,0.15844
1068.37164,0.16072
1070.30011,0.16825
1072.22857,0.17571
1074.15704,0.18079
1076.08551,0.18352
1078.01398,0.17694
1079.94245,0.16751
1081.87092,0.16332
1083.79939,0.15950
1085.72786,0.15856
1087.65632,0.16407
1089.58479,0.17351
1091.51326,0.18014
1093.44173,0.17769
1095.37020,0.17324
1097.29867,0.17375
1099.22714,0.17581
1101.15560,0.18007
1103.08407,0.18730
1105.01254,0.18831
1106.94101,0.17934
1108.86948,0.16873
1110.79795,0.16218
1112.72642,0.15582
1114.65489,0.14815
1116.58335,0.14674
1118.51182,0.15259
1120.44029,0.15901
1122.36876,0.16283
1124.29723,0.16225
1126.22570,0.16007
1128.15417,0.15958
1130.08263,0.15747
1132.01110,0.15514
1133.93957,0.15715
1135.86804,0.15893
1137.79651,0.15486
1139.72498,0.15161
1141.65345,0.15651
1143.58191,0.16168
1145.51038,0.16105
1147.43885,0.16324
1149.36732,0.16842
1151.29579,0.16721
1153.22426,0.16141
1155.15273,0.15995
1157.08120,0.16514
1159.00966,0.17114
1160.93813,0.17506
1162.86660,0.17750
1164.79507,0.17753
1166.72354,0.17698
1168.65201,0.17607
1170.58048,0.17195
1172.50894,0.16648
1174.43741,0.16376
1176.36588,0.16206
1178.29435,0.15835
1180.22282,0.15674
1182.15129,0.16097
1184.07976,0.16736
1186.00823,0.17171
1187.93669,0.17246
1189.86516,0.16926
1191.79363,0.16499
1193.72210,0.16092
1195.65057,0.15617
1197.57904,0.15344
1199.50751,0.15524
1201.43597,0.16093
1203.36444,0.16669
1205.29291,0.16777
1207.22138,0.16411
1209.14985,0.16120
1211.07832,0.16194
1213.00679,0.16366
1214.93526,0.16604
1216.86372,0.16853
1218.79219,0.16891
1220.72066,0.17168
1222.64913,0.17704
1224.57760,0.17537
1226.50607,0.16716
1228.43454,0.16101
1230.36300,0.16054
1232.29147,0.16475
1234.21994,0.16763
1236.14841,0.16909
1238.07688,0.17286
1240.00535,0.17544
1241.93382,0.17464
1243.86229,0.17236
1245.79075,0.16858
1247.71922,0.16443
1249.64769,0.16416
1251.57616,0.16510
1253.50463,0.16473
1255.43310,0.16772
1257.36157,0.16995
1259.29003,0.16601
1261.21850,0.16260
1263.14697,0.16472
1265.07544,0.16781
1267.00391,0.16873
1268.93238,0.16908
1270.86085,0.16942
1272.78932,0.16921
1274.71778,0.16821
1276.64625,0.16925
1278.57472,0.17367
1280.50319,0.17376
1282.43166,0.16694
1284.36013,0.16339
1286.28860,0.16613
1288.21706,0.16961
1290.14553,0.17232
1292.07400,0.17265
1294.00247,0.16914
1295.93094,0.16400
1297.85941,0.16013
1299.78788,0.15698
1301.71634,0.15046
1303.64481,0.14097
1305.57328,0.14021
1307.50175,0.15421
1309.43022,0.16678
1311.35869,0.16887
1313.28716,0.17002
1315.21563,0.17291
1317.14409,0.17570
1319.07256,0.17646
1321.00103,0.17271
1322.92950,0.16877
1324.85797,0.16620
1326.78644,0.16464
1328.71491,0.16542
1330.64337,0.16437
1332.57184,0.16191
1334.50031,0.16104
1336.42878,0.15962
1338.35725,0.15990
1340.28572,0.15977
1342.21419,0.15774
1344.14266,0.15779
1346.07112,0.15709
1347.99959,0.15844
1349.92806,0.16486
1351.85653,0.17079
1353.78500,0.17215
1355.71347,0.16927
1357.64194,0.16754
1359.57040,0.17081
1361.49887,0.17615
1363.42734,0.17821
1365.35581,0.17833
1367.28428,0.17934
1369.21275,0.17972
1371.14122,0.18137
1373.06969,0.18583
1374.99815,0.18806
1376.92662,0.18348
1378.85509,0.17663
1380.78356,0.17278
1382.71203,0.17292
1384.64050,0.17849
1386.56897,0.18860
1388.49743,0.19161
1390.42590,0.18557
1392.35437,0.18543
1394.28284,0.19536
1396.21131,0.20089
1398.13978,0.19539
1400.06825,0.18782
1401.99672,0.18334
1403.92518,0.18080
1405.85365,0.17888
1407.78212,0.17774
1409.71059,0.17668
1411.63906,0.17630
1413.56753,0.17835
1415.49600,0.18495
1417.42446,0.19754
1419.35293,0.20270
1421.28140,0.19160
1423.20987,0.18187
1425.13834,0.17985
1427.06681,0.18404
1428.99528,0.19047
1430.92375,0.19281
1432.85221,0.19392
1434.78068,0.19825
1436.70915,0.19935
1438.63762,0.19474
1440.56609,0.19127
1442.49456,0.18858
1444.42303,0.18602
1446.35149,0.18428
1448.27996,0.18342
1450.20843,0.18406
1452.13690,0.18608
1454.06537,0.19356
1455.99384,0.21373
1457.92231,0.22280
1459.85077,0.20505
1461.77924,0.19693
1463.70771,0.19937
1465.63618,0.20041
1467.56465,0.19852
1469.49312,0.20000
1471.42159,0.20433
1473.35006,0.20562
1475.27852,0.20336
1477.20699,0.20046
1479.13546,0.19802
1481.06393,0.19667
1482.99240,0.19495
1484.92087,0.19485
1486.84934,0.19779
1488.77780,0.19936
1490.70627,0.19682
1492.63474,0.19809
1494.56321,0.20721
1496.49168,0.21700
1498.42015,0.21302
1500.34862,0.20475
1502.27709,0.20830
1504.20555,0.22404
1506.13402,0.24271
1508.06249,0.23440
1509.99096,0.21454
1511.91943,0.20052
1513.84790,0.19413
1515.77637,0.19900
1517.70483,0.20916
1519.63330,0.21653
1521.56177,0.21798
1523.49024,0.21279
1525.41871,0.20751
1527.34718,0.20185
1529.27565,0.19674
1531.20412,0.19628
1533.13258,0.20125
1535.06105,0.20588
1536.98952,0.21142
1538.91799,0.22660
1540.84646,0.24039
1542.77493,0.22641
1544.70340,0.20583
1546.63186,0.19450
1548.56033,0.19275
1550.48880,0.19504
1552.41727,0.19997
1554.34574,0.20900
1556.27421,0.22308
1558.20268,0.24208
1560.13115,0.23048
1562.05961,0.20776
1563.98808,0.19771
1565.91655,0.19389
1567.84502,0.19387
1569.77349,0.19343
1571.70196,0.19094
1573.63043,0.19283
1575.55889,0.19628
1577.48736,0.19122
1579.41583,0.18485
1581.34430,0.18363
1583.27277,0.18309
1585.20124,0.18124
1587.12971,0.18110
1589.05818,0.18259
1590.98664,0.18391
1592.91511,0.18513
1594.84358,0.18513
1596.77205,0.18322
1598.70052,0.18213
1600.62899,0.18229
1602.55746,0.18213
1604.48592,0.18186
1606.41439,0.18224
1608.34286,0.18300
1610.27133,0.18303
1612.19980,0.18402
1614.12827,0.18945
1616.05674,0.19837
1617.98521,0.20005
1619.91367,0.19690
1621.84214,0.19888
1623.77061,0.20336
1625.69908,0.20401
1627.62755,0.20072
1629.55602,0.19703
1631.48449,0.19831
1633.41295,0.20659
1635.34142,0.21790
1637.26989,0.21467
1639.19836,0.20688
1641.12683,0.20629
1643.05530,0.20966
1644.98377,0.21799
1646.91223,0.22726
1648.84070,0.22397
1650.76917,0.22303
1652.69764,0.22939
1654.62611,0.21793
1656.55458,0.20376
1658.48305,0.19853
1660.41152,0.19713
1662.33998,0.19619
1664.26845,0.19711
1666.19692,0.20283
1668.12539,0.21080
1670.05386,0.21401
1671.98233,0.21290
1673.91080,0.21273
1675.83926,0.20941
1677.76773,0.20338
1679.69620,0.20017
1681.62467,0.20190
1683.55314,0.20664
1685.48161,0.20573
1687.41008,0.20259
1689.33855,0.20079
1691.26701,0.19938
1693.19548,0.20251
1695.12395,0.21408
1697.05242,0.22718
1698.98089,0.22654
1700.90936,0.21336
1702.83783,0.20666
1704.76629,0.20719
1706.69476,0.20562
1708.62323,0.19971
1710.55170,0.19389
1712.48017,0.19286
1714.40864,0.20018
1716.33711,0.21254
1718.26558,0.21138
1720.19404,0.20023
1722.12251,0.19474
1724.05098,0.19325
1725.97945,0.19290
1727.90792,0.19433
1729.83639,0.19625
1731.76486,0.19923
1733.69332,0.20556
1735.62179,0.20567
1737.55026,0.20161
1739.47873,0.20074
1741.40720,0.20131
1743.33567,0.19936
1745.26414,0.19644
1747.19261,0.19931
1749.12107,0.20541
1751.04954,0.20050
1752.97801,0.19108
1754.90648,0.19003
1756.83495,0.19337
1758.76342,0.19534
1760.69189,0.19603
1762.62035,0.19324
1764.54882,0.19023
1766.47729,0.19214
1768.40576,0.19751
1770.33423,0.20511
1772.26270,0.20976
1774.19117,0.20533
1776.11964,0.20079
1778.04810,0.19916
1779.97657,0.19737
1781.90504,0.19574
1783.83351,0.19528
1785.76198,0.19438
1787.69045,0.19386
1789.61892,0.19574
1791.54738,0.19826
1793.47585,0.19877
1795.40432,0.19887
1797.33279,0.19878
1799.26126,0.19791
1801.18973,0.19657
1803.11820,0.19439
1805.04666,0.19299
1806.97513,0.19306
1808.90360,0.19284
1810.83207,0.19213
1812.76054,0.19100
1814.68901,0.18999
1816.61748,0.19173
1818.54595,0.19540
1820.47441,0.19739
1822.40288,0.19845
1824.33135,0.19904
1826.25982,0.19815
1828.18829,0.19878
1830.11676,0.19843
1832.04523,0.19426
1833.97369,0.19277
1835.90216,0.19525
1837.83063,0.19604
1839.75910,0.19378
1841.68757,0.19565
1843.61604,0.20234
1845.54451,0.20146
1847.47298,0.19399
1849.40144,0.19021
1851.32991,0.19061
1853.25838,0.19166
1855.18685,0.19146
1857.11532,0.19057
1859.04379,0.19128
1860.97226,0.19262
1862.90072,0.19205
1864.82919,0.19245
1866.75766,0.19677
1868.68613,0.20050
1870.61460,0.19773
1872.54307,0.19492
1874.47154,0.19520
1876.40001,0.19311
1878.32847,0.18900
1880.25694,0.18811
1882.18541,0.18936
1884.11388,0.18947
1886.04235,0.18991
1887.97082,0.19216
1889.89929,0.19360
1891.82775,0.19236
1893.75622,0.19058
1895.68469,0.19050
1897.61316,0.19187
1899.54163,0.19347
1901.47010,0.19521
1903.39857,0.19581
1905.32704,0.19380
1907.25550,0.19095
1909.18397,0.18854
1911.11244,0.18736
1913.04091,0.19008
1914.96938,0.19550
1916.89785,0.19876
1918.82632,0.19792
1920.75478,0.19653
1922.68325,0.19537
1924.61172,0.19294
1926.54019,0.19120
1928.46866,0.19156
1930.39713,0.19367
1932.32560,0.19539
1934.25407,0.19473
1936.18253,0.19305
1938.11100,0.19253
1940.03947,0.19310
1941.96794,0.19428
1943.89641,0.19489
1945.82488,0.19374
1947.75335,0.19303
1949.68181,0.19393
1951.61028,0.19519
1953.53875,0.19626
1955.46722,0.19640
1957.39569,0.19486
1959.32416,0.19274
1961.25263,0.19167
1963.18110,0.19183
1965.10956,0.19303
1967.03803,0.19379
1968.96650,0.19171
1970.89497,0.18729
1972.82344,0.18468
1974.75191,0.18711
1976.68038,0.19026
1978.60884,0.19022
1980.53731,0.19082
1982.46578,0.19238
1984.39425,0.19213
1986.32272,0.19312
1988.25119,0.19572
1990.17966,0.19726
1992.10812,0.19683
1994.03659,0.19249
1995.96506,0.18761
1997.89353,0.18678
1999.82200,0.18816
2001.75047,0.18811
2003.67894,0.18706
2005.60741,0.18841
2007.53587,0.19113
2009.46434,0.19103
2011.39281,0.18912
2013.32128,0.18837
2015.24975,0.18857
2017.17822,0.18931
2019.10669,0.19008
2021.03515,0.18999
2022.96362,0.18918
2024.89209,0.18892
2026.82056,0.18984
2028.74903,0.19038
2030.67750,0.19057
2032.60597,0.19188
2034.53444,0.19287
2036.46290,0.19201
2038.39137,0.19148
2040.31984,0.19304
2042.24831,0.19442
2044.17678,0.19374
2046.10525,0.19235
2048.03372,0.19164
2049.96218,0.19152
2051.89065,0.19132
2053.81912,0.19108
2055.74759,0.19106
2057.67606,0.19091
2059.60453,0.19105
2061.53300,0.19190
2063.46147,0.19397
2065.38993,0.19670
2067.31840,0.19771
2069.24687,0.19670
2071.17534,0.19497
2073.10381,0.19337
2075.03228,0.19149
2076.96075,0.18996
2078.88921,0.19098
2080.81768,0.19264
2082.74615,0.19262
2084.67462,0.19273
2086.60309,0.19274
2088.53156,0.19089
2090.46003,0.18963
2092.38850,0.19024
2094.31696,0.19067
2096.24543,0.19180
2098.17390,0.19422
2100.10237,0.19463
2102.03084,0.19154
2103.95931,0.18871
2105.88778,0.19044
2107.81624,0.19367
2109.74471,0.19295
2111.67318,0.19128
2113.60165,0.19285
2115.53012,0.19530
2117.45859,0.19713
2119.38706,0.19852
2121.31553,0.19757
2123.24399,0.19539
2125.17246,0.19476
2127.10093,0.19521
2129.02940,0.19562
2130.95787,0.19425
2132.88634,0.19062
2134.81481,0.18655
2136.74327,0.18226
2138.67174,0.18108
2140.60021,0.18620
2142.52868,0.19160
2144.45715,0.19236
2146.38562,0.19162
2148.31409,0.19207
2150.24255,0.19339
2152.17102,0.19528
2154.09949,0.19635
2156.02796,0.19515
2157.95643,0.19378
2159.88490,0.19372
2161.81337,0.19277
2163.74184,0.19120
2165.67030,0.19170
2167.59877,0.19426
2169.52724,0.19602
2171.45571,0.19500
2173.38418,0.19381
2175.31265,0.19456
2177.24112,0.19442
2179.16958,0.19213
2181.09805,0.19075
2183.02652,0.19271
2184.95499,0.19591
2186.88346,0.19608
2188.81193,0.19403
2190.74040,0.19335
2192.66887,0.19390
2194.59733,0.19391
2196.52580,0.19354
2198.45427,0.19479
2200.38274,0.19628
2202.31121,0.19507
2204.23968,0.19402
2206.16815,0.19550
2208.09661,0.19648
2210.02508,0.19501
2211.95355,0.19242
2213.88202,0.18952
2215.81049,0.18753
2217.73896,0.18973
2219.66743,0.19441
2221.59590,0.19544
2223.52436,0.19338
2225.45283,0.19362
2227.38130,0.19625
2229.30977,0.19720
2231.23824,0.19508
2233.16671,0.19273
2235.09518,0.19264
2237.02364,0.19324
2238.95211,0.19327
2240.88058,0.19401
2242.80905,0.19560
2244.73752,0.19652
2246.66599,0.19498
2248.59446,0.19218
2250.52293,0.19129
2252.45139,0.19203
2254.37986,0.19224
2256.30833,0.19174
2258.23680,0.19127
2260.16527,0.18970
2262.09374,0.18772
2264.02221,0.18930
2265.95067,0.19265
2267.87914,0.19315
2269.80761,0.19238
2271.73608,0.19214
2273.66455,0.19149
2275.59302,0.19141
2277.52149,0.19146
2279.44996,0.19027
2281.37842,0.18977
2283.30689,0.19153
2285.23536,0.19420
2287.16383,0.19482
2289.09230,0.19340
2291.02077,0.19263
2292.94924,0.19127
2294.87770,0.18750
2296.80617,0.18367
2298.73464,0.18232
2300.66311,0.18180
2302.59158,0.18085
2304.52005,0.18112
2306.44852,0.18119
2308.37699,0.17960
2310.30545,0.17940
2312.23392,0.18159
2314.16239,0.18061
2316.09086,0.17505
2318.01933,0.17252
2319.94780,0.17667
2321.87627,0.18225
2323.80473,0.18186
2325.73320,0.17847
2327.66167,0.17549
2329.59014,0.16636
2331.51861,0.15726
2333.44708,0.15622
2335.37555,0.15961
2337.30401,0.16519
2339.23248,0.16335
2341.16095,0.15692
2343.08942,0.16377
2345.01789,0.17309
2346.94636,0.17141
2348.87483,0.16659
2350.80330,0.16016
2352.73176,0.14835
2354.66023,0.13470
2356.58870,0.13344
2358.51717,0.14331
2360.44564,0.14785
2362.37411,0.14634
2364.30258,0.15124
2366.23104,0.17138
2368.15951,0.18702
2370.08798,0.18570
2372.01645,0.17882
2373.94492,0.17388
2375.87339,0.17640
2377.80186,0.18369
2379.73033,0.18749
2381.65879,0.18876
2383.58726,0.19002
2385.51573,0.19063
2387.44420,0.19252
2389.37267,0.19525
2391.30114,0.19561
2393.22961,0.19508
2395.15807,0.19508
2397.08654,0.19278
2399.01501,0.18915
2400.94348,0.18910
2402.87195,0.19233
2404.80042,0.19356
2406.72889,0.19123
2408.65736,0.19043
2410.58582,0.19378
2412.51429,0.19643
2414.44276,0.19511
2416.37123,0.19255
2418.29970,0.19190
2420.22817,0.19313
2422.15664,0.19348
2424.08510,0.19170
2426.01357,0.19072
2427.94204,0.19154
2429.87051,0.19198
2431.79898,0.19283
2433.72745,0.19326
2435.65592,0.19013
2437.58439,0.18698
2439.51285,0.18773
2441.44132,0.19017
2443.36979,0.19235
2445.29826,0.19407
2447.22673,0.19436
2449.15520,0.19315
2451.08367,0.19323
2453.01213,0.19678
2454.94060,0.19941
2456.86907,0.19647
2458.79754,0.19213
2460.72601,0.19021
2462.65448,0.18959
2464.58295,0.19104
2466.51142,0.19364
2468.43988,0.19509
2470.36835,0.19643
2472.29682,0.19775
2474.22529,0.19818
2476.15376,0.19759
2478.08223,0.19472
2480.01070,0.19099
2481.93916,0.19087
2483.86763,0.19367
2485.79610,0.19510
2487.72457,0.19364
2489.65304,0.19187
2491.58151,0.19317
2493.50998,0.19552
2495.43844,0.19593
2497.36691,0.19502
2499.29538,0.19486
2501.22385,0.19720
2503.15232,0.20033
2505.08079,0.20057
2507.00926,0.19713
2508.93773,0.19360
2510.86619,0.19271
2512.79466,0.19343
2514.72313,0.19485
2516.65160,0.19521
2518.58007,0.19392
2520.50854,0.19409
2522.43701,0.19605
2524.36547,0.19762
2526.29394,0.19868
2528.22241,0.19947
2530.15088,0.19948
2532.07935,0.19768
2534.00782,0.19523
2535.93629,0.19446
2537.86476,0.19490
2539.79322,0.19483
2541.72169,0.19326
2543.65016,0.19095
2545.57863,0.18982
2547.50710,0.19092
2549.43557,0.19363
2551.36404,0.19540
2553.29250,0.19489
2555.22097,0.19477
2557.14944,0.19595
2559.07791,0.19466
2561.00638,0.19158
2562.93485,0.19130
2564.86332,0.19263
2566.79179,0.19204
2568.72025,0.19041
2570.64872,0.19037
2572.57719,0.19204
2574.50566,0.19321
2576.43413,0.19249
2578.36260,0.19110
2580.29107,0.19104
2582.21953,0.19265
2584.14800,0.19359
2586.07647,0.19238
2588.00494,0.19153
2589.93341,0.19287
2591.86188,0.19421
2593.79035,0.19341
2595.71882,0.19291
2597.64728,0.19446
2599.57575,0.19563
2601.50422,0.19712
2603.43269,0.19993
2605.36116,0.20102
2607.28963,0.20007
2609.21810,0.20018
2611.14656,0.20291
2613.07503,0.20582
2615.00350,0.20444
2616.93197,0.19821
2618.86044,0.19197
2620.78891,0.19104
2622.71738,0.19400
2624.64585,0.19606
2626.57431,0.19664
2628.50278,0.19694
2630.43125,0.19743
2632.35972,0.19786
2634.28819,0.19801
2636.21666,0.19912
2638.14513,0.19932
2640.07359,0.19646
2642.00206,0.19440
2643.93053,0.19554
2645.85900,0.19763
2647.78747,0.19915
2649.71594,0.20031
2651.64441,0.20138
2653.57288,0.20155
2655.50134,0.20111
2657.42981,0.20176
2659.35828,0.20206
2661.28675,0.19892
2663.21522,0.19484
2665.14369,0.19585
2667.07216,0.20169
2669.00062,0.20580
2670.92909,0.20483
2672.85756,0.20235
2674.78603,0.20159
2676.71450,0.20230
2678.64297,0.20231
2680.57144,0.19930
2682.49990,0.19481
2684.42837,0.19370
2686.35684,0.19782
2688.28531,0.20123
2690.21378,0.19999
2692.14225,0.19799
2694.07072,0.19848
2695.99919,0.20084
2697.92765,0.20021
2699.85612,0.19577
2701.78459,0.19483
2703.71306,0.19875
2705.64153,0.20259
2707.57000,0.20470
2709.49847,0.20536
2711.42693,0.20406
2713.35540,0.20093
2715.28387,0.19955
2717.21234,0.20329
2719.14081,0.20707
2721.06928,0.20404
2722.99775,0.19885
2724.92622,0.19959
2726.85468,0.20296
2728.78315,0.20325
2730.71162,0.20289
2732.64009,0.20382
2734.56856,0.20450
2736.49703,0.20418
2738.42550,0.20364
2740.35396,0.20332
2742.28243,0.20131
2744.21090,0.19921
2746.13937,0.20024
2748.06784,0.20167
2749.99631,0.20197
2751.92478,0.20343
2753.85325,0.20605
2755.78171,0.20872
2757.71018,0.20982
2759.63865,0.20871
2761.56712,0.20737
2763.49559,0.20608
2765.42406,0.20395
2767.35253,0.20115
2769.28099,0.19826
2771.20946,0.19692
2773.13793,0.19936
2775.06640,0.20394
2776.99487,0.20535
2778.92334,0.20399
2780.85181,0.20450
2782.78028,0.20569
2784.70874,0.20616
2786.63721,0.20707
2788.56568,0.20632
2790.49415,0.20452
2792.42262,0.20411
2794.35109,0.20344
2796.27956,0.20262
2798.20802,0.20370
2800.13649,0.20574
2802.06496,0.20683
2803.99343,0.20718
2805.92190,0.20860
2807.85037,0.21121
2809.77884,0.21239
2811.70731,0.21179
2813.63577,0.21054
2815.56424,0.20755
2817.49271,0.20518
2819.42118,0.20623
2821.34965,0.20612
2823.27812,0.20460
2825.20659,0.20748
2827.13505,0.21100
2829.06352,0.21101
2830.99199,0.21153
2832.92046,0.21336
2834.84893,0.21353
2836.77740,0.21085
2838.70587,0.20895
2840.63433,0.21035
2842.56280,0.21273
2844.49127,0.21305
2846.41974,0.20972
2848.34821,0.20744
2850.27668,0.20885
2852.20515,0.20943
2854.13362,0.20903
2856.06208,0.20985
2857.99055,0.21129
2859.91902,0.21332
2861.84749,0.21438
2863.77596,0.21184
2865.70443,0.20882
2867.63290,0.20935
2869.56136,0.21223
2871.48983,0.21384
2873.41830,0.21147
2875.34677,0.20887
2877.27524,0.21143
2879.20371,0.21538
2881.13218,0.21586
2883.06065,0.21468
2884.98911,0.21210
2886.91758,0.20748
2888.84605,0.20355
2890.77452,0.20254
2892.70299,0.20407
2894.63146,0.20444
2896.55993,0.20337
2898.48839,0.20489
2900.41686,0.20756
2902.34533,0.20810
2904.27380,0.20676
2906.20227,0.20572
2908.13074,0.20681
2910.05921,0.20624
2911.98768,0.20176
2913.91614,0.19654
2915.84461,0.19273
2917.77308,0.19369
2919.70155,0.19925
2921.63002,0.20671
2923.55849,0.21149
2925.48696,0.20706
2927.41542,0.20686
2929.34389,0.22322
2931.27236,0.23249
2933.20083,0.21733
2935.12930,0.19993
2937.05777,0.19683
2938.98624,0.20128
2940.91471,0.20825
2942.84317,0.21245
2944.77164,0.20666
2946.70011,0.19568
2948.62858,0.19442
2950.55705,0.20274
2952.48552,0.20809
2954.41399,0.20818
2956.34245,0.20064
2958.27092,0.19106
2960.19939,0.19400
2962.12786,0.20393
2964.05633,0.20810
2965.98480,0.20582
2967.91327,0.20195
2969.84174,0.20313
2971.77020,0.20783
2973.69867,0.20802
2975.62714,0.20349
2977.55561,0.19842
2979.48408,0.19852
2981.41255,0.20634
2983.34102,0.21444
2985.26948,0.21697
2987.19795,0.21417
2989.12642,0.20966
2991.05489,0.20845
2992.98336,0.21098
2994.91183,0.21416
2996.84030,0.21395
2998.76877,0.21117
3000.69723,0.21028
3002.62570,0.21110
3004.55417,0.21203
3006.48264,0.21098
3008.41111,0.20521
3010.33958,0.19287
3012.26805,0.17125
3014.19651,0.14092
3016.12498,0.11811
3018.05345,0.12923
3019.98192,0.16976
3021.91039,0.20453
3023.83886,0.21631
3025.76733,0.21361
3027.69579,0.20913
3029.62426,0.20973
3031.55273,0.21583
3033.48120,0.22045
3035.40967,0.21751
3037.33814,0.21167
3039.26661,0.21101
3041.19508,0.21555
3043.12354,0.21800
3045.05201,0.21339
3046.98048,0.20601
3048.90895,0.20696
3050.83742,0.21498
3052.76589,0.21764
3054.69436,0.21219
3056.62282,0.20601
3058.55129,0.20873
3060.47976,0.21804
3062.40823,0.22294
3064.33670,0.21768
3066.26517,0.20617
3068.19364,0.20338
3070.12211,0.21080
3072.05057,0.21389
3073.97904,0.20802
3075.90751,0.19990
3077.83598,0.19939
3079.76445,0.20776
3081.69292,0.21468
3083.62139,0.20860
3085.54985,0.19472
3087.47832,0.19345
3089.40679,0.20486
3091.33526,0.20919
3093.26373,0.19948
3095.19220,0.19251
3097.12067,0.20276
3099.04914,0.21612
3100.97760,0.21592
3102.90607,0.20660
3104.83454,0.20363
3106.76301,0.21036
3108.69148,0.21435
3110.61995,0.20779
3112.54842,0.19778
3114.47688,0.19743
3116.40535,0.20374
3118.33382,0.20616
3120.26229,0.20365
3122.19076,0.20072
3124.11923,0.20618
3126.04770,0.21692
3127.97617,0.21937
3129.90463,0.21387
3131.83310,0.21324
3133.76157,0.21922
3135.69004,0.22252
3137.61851,0.22023
3139.54698,0.21613
3141.47545,0.21526
3143.40391,0.21631
3145.33238,0.21740
3147.26085,0.21957
3149.18932,0.21965
3151.11779,0.21838
3153.04626,0.21942
3154.97473,0.22120
3156.90320,0.22238
3158.83166,0.22442
3160.76013,0.22424
3162.68860,0.22047
3164.61707,0.21916
3166.54554,0.22117
3168.47401,0.22401
3170.40248,0.22703
3172.33094,0.22679
3174.25941,0.22411
3176.18788,0.22320
3178.11635,0.22147
3180.04482,0.21680
3181.97329,0.21446
3183.90176,0.21674
3185.83022,0.22001
3187.75869,0.22297
3189.68716,0.22624
3191.61563,0.22860
3193.54410,0.22833
3195.47257,0.22421
3197.40104,0.21802
3199.32951,0.21458
3201.25797,0.21520
3203.18644,0.21447
3205.11491,0.21197
3207.04338,0.21496
3208.97185,0.21894
3210.90032,0.21824
3212.82879,0.22065
3214.75725,0.22657
3216.68572,0.22923
3218.61419,0.22640
3220.54266,0.21919
3222.47113,0.21564
3224.39960,0.21944
3226.32807,0.22402
3228.25654,0.22439
3230.18500,0.22000
3232.11347,0.21430
3234.04194,0.21112
3235.97041,0.20807
3237.89888,0.20483
3239.82735,0.20677
3241.75582,0.21117
3243.68428,0.21442
3245.61275,0.22094
3247.54122,0.22418
3249.46969,0.21692
3251.39816,0.21081
3253.32663,0.21256
3255.25510,0.21317
3257.18357,0.21178
3259.11203,0.21374
3261.04050,0.21516
3262.96897,0.21432
3264.89744,0.21433
3266.82591,0.21327
3268.75438,0.20982
3270.68285,0.20953
3272.61131,0.21282
3274.53978,0.21287
3276.46825,0.21292
3278.39672,0.21691
3280.32519,0.21842
3282.25366,0.21445
3284.18213,0.20908
3286.11060,0.20670
3288.03906,0.20595
3289.96753,0.20552
3291.89600,0.20856
3293.82447,0.21424
3295.75294,0.21936
3297.68141,0.22333
3299.60988,0.22505
3301.53834,0.22352
3303.46681,0.22129
3305.39528,0.21949
3307.32375,0.21601
3309.25222,0.21385
3311.18069,0.21504
3313.10916,0.21463
3315.03763,0.21201
3316.96609,0.21089
3318.89456,0.21308
3320.82303,0.21637
3322.75150,0.21597
3324.67997,0.21430
3326.60844,0.21813
3328.53691,0.22381
3330.46537,0.22223
3332.39384,0.21434
3334.32231,0.20832
3336.25078,0.20977
3338.17925,0.21608
3340.10772,0.22016
3342.03619,0.22171
3343.96466,0.22175
3345.89312,0.21859
3347.82159,0.21533
3349.75006,0.21483
3351.67853,0.21754
3353.60700,0.22252
3355.53547,0.22511
3357.46394,0.22576
3359.39240,0.22670
3361.32087,0.22304
3363.24934,0.21651
3365.17781,0.21702
3367.10628,0.22451
3369.03475,0.23005
3370.96322,0.22871
3372.89168,0.22294
3374.82015,0.21799
3376.74862,0.21607
3378.67709,0.21571
3380.60556,0.21407
3382.53403,0.21192
3384.46250,0.21147
3386.39097,0.20804
3388.31943,0.20142
3390.24790,0.19925
3392.17637,0.20161
3394.10484,0.20520
3396.03331,0.20941
3397.96178,0.21317
3399.89025,0.21413
3401.81871,0.21120
3403.74718,0.20862
3405.67565,0.20894
3407.60412,0.21129
3409.53259,0.21414
3411.46106,0.21284
3413.38953,0.20731
3415.31800,0.20320
3417.24646,0.20395
3419.17493,0.20876
3421.10340,0.21276
3423.03187,0.21097
3424.96034,0.20577
3426.88881,0.20348
3428.81728,0.20406
3430.74574,0.20259
3432.67421,0.19796
3434.60268,0.19476
3436.53115,0.19772
3438.45962,0.20601
3440.38809,0.21166
3442.31656,0.20971
3444.24503,0.20744
3446.17349,0.20747
3448.10196,0.20389
3450.03043,0.20005
3451.95890,0.19965
3453.88737,0.19891
3455.81584,0.19814
3457.74431,0.19766
3459.67277,0.19446
3461.60124,0.19282
3463.52971,0.19607
3465.45818,0.19889
3467.38665,0.19744
3469.31512,0.19614
3471.24359,0.19988
3473.17206,0.20387
3475.10052,0.20493
3477.02899,0.20420
3478.95746,0.20224
3480.88593,0.20196
3482.81440,0.20152
3484.74287,0.19848
3486.67134,0.19335
3488.59980,0.18375
3490.52827,0.17398
3492.45674,0.17276
3494.38521,0.17883
3496.31368,0.18453
3498.24215,0.18680
3500.17062,0.18652
3502.09909,0.18472
3504.02755,0.18271
3505.95602,0.18147
3507.88449,0.18183
3509.81296,0.18189
3511.74143,0.17946
3513.66990,0.17840
3515.59837,0.17952
3517.52683,0.17889
3519.45530,0.17846
3521.38377,0.18263
3523.31224,0.18907
3525.24071,0.19244
3527.16918,0.19112
3529.09765,0.18877
3531.02611,0.18772
3532.95458,0.18172
3534.88305,0.17179
3536.81152,0.16831
3538.73999,0.17216
3540.66846,0.17569
3542.59693,0.17512
3544.52540,0.17575
3546.45386,0.17886
3548.38233,0.17579
3550.31080,0.17068
3552.23927,0.17029
3554.16774,0.17099
3556.09621,0.17031
3558.02468,0.16962
3559.95314,0.16708
3561.88161,0.16217
3563.81008,0.16084
3565.73855,0.16589
3567.66702,0.17197
3569.59549,0.17406
3571.52396,0.17173
3573.45243,0.16586
3575.38089,0.15944
3577.30936,0.15393
3579.23783,0.15096
3581.16630,0.15141
3583.09477,0.15345
3585.02324,0.15709
3586.95171,0.16145
3588.88017,0.16194
3590.80864,0.15783
3592.73711,0.15414
3594.66558,0.15389
3596.59405,0.15481
3598.52252,0.15462
3600.45099,0.15401
3602.37946,0.15325
3604.30792,0.15197
3606.23639,0.15413
3608.16486,0.16279
3610.09333,0.16909
3612.02180,0.16836
3613.95027,0.16491
3615.87874,0.16270
3617.80720,0.16151
3619.73567,0.15599
3621.66414,0.14823
3623.59261,0.14332
3625.52108,0.14048
3627.44955,0.14253
3629.37802,0.15120
3631.30649,0.15317
3633.23495,0.14840
3635.16342,0.14549
3637.09189,0.14727
3639.02036,0.14841
3640.94883,0.14616
3642.87730,0.14314
3644.80577,0.14183
3646.73423,0.14531
3648.66270,0.15181
3650.59117,0.14968
3652.51964,0.14335
3654.44811,0.14084
3656.37658,0.14085
3658.30505,0.13872
3660.23352,0.13582
3662.16198,0.13636
3664.09045,0.13906
3666.01892,0.14244
3667.94739,0.14906
3669.87586,0.15436
3671.80433,0.15307
3673.73280,0.15528
3675.66126,0.15450
3677.58973,0.14251
3679.51820,0.13617
3681.44667,0.13534
3683.37514,0.13363
3685.30361,0.13189
3687.23208,0.13292
3689.16055,0.13543
3691.08901,0.13378
3693.01748,0.13104
3694.94595,0.13186
3696.87442,0.13372
3698.80289,0.13364
3700.73136,0.13311
3702.65983,0.13427
3704.58829,0.13600
3706.51676,0.13779
3708.44523,0.14087
3710.37370,0.14373
3712.30217,0.14050
3714.23064,0.13550
3716.15911,0.13451
3718.08757,0.13840
3720.01604,0.14845
3721.94451,0.15869
3723.87298,0.15940
3725.80145,0.14766
3727.72992,0.13286
3729.65839,0.12831
3731.58686,0.13524
3733.51532,0.14809
3735.44379,0.15384
3737.37226,0.14790
3739.30073,0.14204
3741.22920,0.14157
3743.15767,0.15172
3745.08614,0.16468
3747.01460,0.15614
3748.94307,0.14105
3750.87154,0.14017
3752.80001,0.14505
3754.72848,0.14282
3756.65695,0.14312
3758.58542,0.14605
3760.51389,0.14179
3762.44235,0.13508
3764.37082,0.13380
3766.29929,0.13423
3768.22776,0.13159
3770.15623,0.12539
3772.08470,0.11897
3774.01317,0.11771
3775.94163,0.12164
3777.87010,0.12630
3779.79857,0.12809
3781.72704,0.12728
3783.65551,0.12372
3785.58398,0.12077
3787.51245,0.12368
3789.44092,0.12639
3791.36938,0.12449
3793.29785,0.12513
3795.22632,0.13115
3797.15479,0.13761
3799.08326,0.14537
3801.01173,0.15437
3802.94020,0.14945
3804.86866,0.13659
3806.79713,0.13054
3808.72560,0.13117
3810.65407,0.13452
3812.58254,0.14046
3814.51101,0.14575
3816.43948,0.14542
3818.36795,0.14117
3820.29641,0.13493
3822.22488,0.12804
3824.15335,0.12668
3826.08182,0.12784
3828.01029,0.12896
3829.93876,0.13011
3831.86723,0.13232
3833.79569,0.13647
3835.72416,0.14346
3837.65263,0.15183
3839.58110,0.14645
3841.50957,0.13228
3843.43804,0.12614
3845.36651,0.12197
3847.29498,0.11678
3849.22344,0.11841
3851.15191,0.13286
3853.08038,0.15362
3855.00885,0.14896
3856.93732,0.13703
3858.86579,0.13449
3860.79426,0.13533
3862.72272,0.13503
3864.65119,0.13351
3866.57966,0.13043
3868.50813,0.12788
3870.43660,0.13261
3872.36507,0.14028
3874.29354,0.13595
3876.22200,0.12254
3878.15047,0.11427
3880.07894,0.11398
3882.00741,0.11951
3883.93588,0.12748
3885.86435,0.13000
3887.79282,0.12583
3889.72129,0.12520
3891.64975,0.12704
3893.57822,0.12347
3895.50669,0.11788
3897.43516,0.11530
3899.36363,0.11744
3901.29210,0.12244
3903.22057,0.12380
3905.14903,0.11926
3907.07750,0.11508
3909.00597,0.11318
3910.93444,0.11183
3912.86291,0.11132
3914.79138,0.11142
3916.71985,0.11332
3918.64832,0.11789
3920.57678,0.12397
3922.50525,0.12956
3924.43372,0.12771
3926.36219,0.11921
3928.29066,0.11524
3930.21913,0.11603
3932.14760,0.11426
3934.07606,0.11080
3936.00453,0.10923
3937.93300,0.10841
3939.86147,0.11021
3941.78994,0.11347
3943.71841,0.11098
3945.64688,0.10500
3947.57535,0.10387
3949.50381,0.11015
3951.43228,0.11889
3953.36075,0.12289
3955.28922,0.12067
3957.21769,0.11684
3959.14616,0.11478
3961.07463,0.11157
3963.00309,0.10793
3964.93156,0.10884
3966.86003,0.11090
3968.78850,0.10846
3970.71697,0.10486
3972.64544,0.10538
3974.57391,0.10609
3976.50238,0.10238
3978.43084,0.09866
3980.35931,0.09720
3982.28778,0.09600
3984.21625,0.09597
3986.14472,0.09935
3988.07319,0.10617
3990.00166,0.11205
3991.93012,0.11248
3993.85859,0.10798
3995.78706,0.10263
3997.71553,0.09944
3999.64400,0.09778
4001.57247,0.09755
4003.50094,0.09825
4005.42941,0.09770
4007.35787,0.09816
4009.28634,0.10219
4011.21481,0.10686
4013.14328,0.10868
4015.07175,0.10647
4017.00022,0.10270
4018.92869,0.10181
4020.85715,0.10342
4022.78562,0.10235
4024.71409,0.09805
4026.64256,0.09695
4028.57103,0.10129
4030.49950,0.10598
4032.42797,0.10666
4034.35644,0.10551
4036.28490,0.10931
4038.21337,0.11572
4040.14184,0.11417
4042.07031,0.10480
4043.99878,0.09790
4045.92725,0.09937
4047.85572,0.10357
4049.78418,0.10351
4051.71265,0.10265
4053.64112,0.10214
4055.56959,0.09896
4057.49806,0.09823
4059.42653,0.10191
4061.35500,0.10367
4063.28346,0.10091
4065.21193,0.09771
4067.14040,0.09792
4069.06887,0.09887
4070.99734,0.09821
4072.92581,0.09817
4074.85428,0.09842
4076.78275,0.09874
4078.71121,0.10265
4080.63968,0.10804
4082.56815,0.10725
4084.49662,0.09988
4086.42509,0.09311
4088.35356,0.08928
4090.28203,0.08623
4092.21049,0.08612
4094.13896,0.08852
4096.06743,0.09017
4097.99590,0.09428
4099.92437,0.10098
4101.85284,0.10244
4103.78131,0.09768
4105.70978,0.09355
4107.63824,0.09274
4109.56671,0.09330
4111.49518,0.09339
4113.42365,0.09273
4115.35212,0.09106
4117.28059,0.08851
4119.20906,0.08612
4121.13752,0.08201
4123.06599,0.07744
4124.99446,0.07723
4126.92293,0.07965
4128.85140,0.08190
4130.77987,0.08422
4132.70834,0.08539
4134.63681,0.08445
4136.56527,0.08169
4138.49374,0.07728
4140.42221,0.07173
4142.35068,0.06904
4144.27915,0.07264
4146.20762,0.07806
4148.13609,0.08113
4150.06455,0.08419
4151.99302,0.08674
4153.92149,0.08566
4155.84996,0.08277
4157.77843,0.08039
4159.70690,0.07951
4161.63537,0.08125
4163.56384,0.08267
4165.49230,0.08170
4167.42077,0.08067
4169.34924,0.07815
4171.27771,0.07520
4173.20618,0.07995
4175.13465,0.08836
4177.06312,0.09066
4178.99158,0.09085
4180.92005,0.09439
4182.84852,0.09851
4184.77699,0.09682
4186.70546,0.08782
4188.63393,0.07968
4190.56240,0.07787
4192.49087,0.07734
4194.41933,0.07564
4196.34780,0.07741
4198.27627,0.08005
4200.20474,0.07920
4202.13321,0.07604
4204.06168,0.07058
4205.99015,0.06885
4207.91861,0.07416
4209.84708,0.07637
4211.77555,0.07175
4213.70402,0.07090
4215.63249,0.07700
4217.56096,0.07925
4219.48943,0.07389
4221.41789,0.06874
4223.34636,0.06913
4225.27483,0.07230
4227.20330,0.07253
4229.13177,0.06934
4231.06024,0.06555
4232.98871,0.06414
4234.91718,0.06816
4236.84564,0.07504
4238.77411,0.08030
4240.70258,0.08111
4242.63105,0.07571
4244.55952,0.07128
4246.48799,0.07264
4248.41646,0.07251
4250.34492,0.06963
4252.27339,0.07051
4254.20186,0.07506
4256.13033,0.07822
4258.05880,0.07628
4259.98727,0.06913
4261.91574,0.06383
4263.84421,0.06734
4265.77267,0.07309
4267.70114,0.07244
4269.62961,0.07002
4271.55808,0.06912
4273.48655,0.06609
4275.41502,0.06112
4277.34349,0.05525
4279.27195,0.05039
4281.20042,0.05027
4283.12889,0.05384
4285.05736,0.05157
4286.98583,0.04114
4288.91430,0.03873
4290.84277,0.04797
4292.77124,0.05526
4294.69970,0.06006
4296.62817,0.06404
4298.55664,0.06042
4300.48511,0.05327
4302.41358,0.05164
4304.34205,0.05291
4306.27052,0.05340
4308.19898,0.05534
4310.12745,0.05881
4312.05592,0.06055
4313.98439,0.06015
4315.91286,0.05907
4317.84133,0.05363
4319.76980,0.04603
4321.69827,0.04463
4323.62673,0.04672
4325.55520,0.04712
4327.48367,0.04642
4329.41214,0.04697
4331.34061,0.05155
4333.26908,0.05658
4335.19755,0.05680
4337.12601,0.05619
4339.05448,0.05828
4340.98295,0.06098
4342.91142,0.06019
4344.83989,0.05078
4346.76836,0.03934
4348.69683,0.03761
4350.62530,0.04462
4352.55376,0.05403
4354.48223,0.06143
4356.41070,0.06234
4358.33917,0.05138
4360.26764,0.03286
4362.19611,0.02564
4364.12458,0.03673
4366.05304,0.04946
4367.98151,0.05211
4369.90998,0.05075
4371.83845,0.05142
4373.76692,0.04949
4375.69539,0.04109
4377.62386,0.03445
4379.55232,0.03536
4381.48079,0.03667
4383.40926,0.03595
4385.33773,0.03773
4387.26620,0.03854
4389.19467,0.03572
4391.12314,0.03419
4393.05161,0.03356
4394.98007,0.03260
4396.90854,0.03467
4398.83701,0.03950
4400.76548,0.04601
4402.69395,0.04793
4404.62242,0.03768
4406.55089,0.02860
4408.47935,0.03400
4410.40782,0.04365
4412.33629,0.04756
4414.26476,0.04651
4416.19323,0.04194
4418.12170,0.03594
4420.05017,0.03457
4421.97864,0.03795
4423.90710,0.03574
4425.83557,0.02984
4427.76404,0.03087
4429.69251,0.03485
4431.62098,0.03075
4433.54945,0.02105
4435.47792,0.02146
4437.40638,0.03174
4439.33485,0.03470
4441.26332,0.03131
4443.19179,0.03565
4445.12026,0.04245
4447.04873,0.04021
4448.97720,0.03335
4450.90567,0.02598
4452.83413,0.02014
4454.76260,0.02143
4456.69107,0.02631
4458.61954,0.02751
4460.54801,0.02463
4462.47648,0.02091
4464.40495,0.01957
4466.33341,0.02364
4468.26188,0.03368
4470.19035,0.04357
4472.11882,0.04423
4474.04729,0.03376
4475.97576,0.02132
4477.90423,0.01807
4479.83270,0.02228
4481.76116,0.02772
4483.68963,0.03258
4485.61810,0.03012
4487.54657,0.02079
4489.47504,0.01641
4491.40351,0.02114
4493.33198,0.02674
4495.26044,0.02302
4497.18891,0.01730
4499.11738,0.02013
4501.04585,0.02321
4502.97432,0.02457
4504.90279,0.03205
4506.83126,0.03557
4508.75973,0.02620
4510.68819,0.02202
4512.61666,0.03112
4514.54513,0.03640
4516.47360,0.03255
4518.40207,0.03164
4520.33054,0.03987
4522.25901,0.04571
4524.18747,0.03826
4526.11594,0.02554
4528.04441,0.01963
4529.97288,0.02024
4531.90135,0.01860
4533.82982,0.01143
4535.75829,0.00560
4537.68676,0.01066
4539.61522,0.02303
4541.54369,0.02702
4543.47216,0.01865
4545.40063,0.01033
4547.32910,0.00988
4549.25757,0.01063
4551.18604,0.00935
4553.11450,0.01328
4555.04297,0.02097
4556.97144,0.02224
4558.89991,0.02065
4560.82838,0.02278
4562.75685,0.02053
4564.68532,0.01040
4566.61378,0.00275
4568.54225,0.00533
4570.47072,0.01409
4572.39919,0.02228
4574.32766,0.02570
4576.25613,0.02216
4578.18460,0.01385
4580.11307,0.00493
4582.04153,-0.00051
4583.97000,-0.00066
4585.89847,0.00386
4587.82694,0.00760
4589.75541,0.00489
4591.68388,-0.00122
4593.61235,-0.00224
4595.54081,0.00371
4597.46928,0.00889
4599.39775,0.01126
4601.32622,0.00963
4603.25469,0.00170
4605.18316,-0.00202
4607.11163,0.00527
4609.04010,0.01736
4610.96856,0.02461
4612.89703,0.02207
4614.82550,0.01952
4616.75397,0.02025
4618.68244,0.01325
4620.61091,0.00166
4622.53938,-0.00469
4624.46784,-0.00333
4626.39631,0.00015
4628.32478,-0.00357
4630.25325,-0.00855
4632.18172,-0.00579
4634.11019,0.00101
4636.03866,0.00619
4637.96713,0.01064
4639.89559,0.01364
4641.82406,0.00883
4643.75253,0.00029
4645.68100,-0.00118
4647.60947,0.00112
4649.53794,-0.00134
4651.46641,-0.00123
4653.39487,0.00651
4655.32334,0.01217
4657.25181,0.01569
4659.18028,0.02456
4661.10875,0.02897
4663.03722,0.01652
4664.96569,0.00050
4666.89416,-0.00279
4668.82262,-0.00137
4670.75109,-0.00550
4672.67956,-0.00770
4674.60803,0.00117
4676.53650,0.01731
4678.46497,0.02893
4680.39344,0.02913
4682.32190,0.02148
4684.25037,0.01142
4686.17884,0.00362
4688.10731,0.00220
4690.03578,0.00741
4691.96425,0.01618
4693.89272,0.02053
4695.82119,0.01729
4697.74965,0.01491
4699.67812,0.01473
4701.60659,0.01462
4703.53506,0.02046
4705.46353,0.02922
4707.39200,0.02897
4709.32047,0.01123
4711.24893,-0.01258
4713.17740,-0.01267
4715.10587,0.00709
4717.03434,0.01027
4718.96281,-0.00653
4720.89128,-0.01376
4722.81975,-0.00497
4724.74821,0.00347
4726.67668,0.00624
4728.60515,0.00799
4730.53362,0.00951
4732.46209,0.00909
4734.39056,0.00884
4736.31903,0.01316
4738.24750,0.02327
4740.17596,0.02826
4742.10443,0.01890
4744.03290,0.00858
4745.96137,0.00865
4747.88984,0.00734
4749.81831,-0.00387
4751.74678,-0.01173
4753.67524,-0.00791
4755.60371,0.00160
4757.53218,0.00840
4759.46065,0.00954
4761.38912,0.01136
4763.31759,0.01299
4765.24606,0.00927
4767.17453,0.00468
4769.10299,0.00160
4771.03146,0.00218
4772.95993,0.00657
4774.88840,0.00458
4776.81687,-0.00344
4778.74534,-0.00374
4780.67381,0.00468
4782.60227,0.00925
4784.53074,0.00100
4786.45921,-0.01121
4788.38768,-0.00876
4790.31615,0.00014
4792.24462,0.00192
4794.17309,0.00940
4796.10156,0.02328
4798.03002,0.02752
4799.95849,0.02056
4801.88696,0.01013
4803.81543,0.00124
4805.74390,-0.00224
4807.67237,-0.00217
4809.60084,-0.00556
4811.52930,-0.00828
4813.45777,-0.00375
4815.38624,-0.00057
4817.31471,-0.00360
4819.24318,-0.00073
4821.17165,0.01150
4823.10012,0.02058
4825.02859,0.02105
4826.95705,0.01519
4828.88552,0.00662
4830.81399,0.00177
4832.74246,0.00152
4834.67093,0.00296
4836.59940,0.00877
4838.52787,0.01507
4840.45633,0.01460
4842.38480,0.01443
4844.31327,0.01673
4846.24174,0.01248
4848.17021,0.00692
4850.09868,0.00760
4852.02715,0.00727
4853.95562,0.00268
4855.88408,0.00154
4857.81255,0.01001
4859.74102,0.02328
4861.66949,0.02966
4863.59796,0.02379
4865.52643,0.01129
4867.45490,0.00696
4869.38336,0.00775
4871.31183,-0.00294
4873.24030,-0.01149
4875.16877,-0.00288
4877.09724,0.00397
4879.02571,-0.00048
4880.95418,-0.00079
4882.88265,0.00586
4884.81111,0.00760
4886.73958,0.00543
4888.66805,0.00520
4890.59652,0.00850
4892.52499,0.01691
4894.45346,0.02355
4896.38193,0.01892
4898.31039,0.00765
4900.23886,0.00505
4902.16733,0.01163
4904.09580,0.01112
4906.02427,0.00295
4907.95274,0.00258
4909.88121,0.00336
4911.80967,-0.00762
4913.73814,-0.01655
4915.66661,-0.01669
4917.59508,-0.01571
4919.52355,-0.00588
4921.45202,0.01508
4923.38049,0.02544
4925.30896,0.01320
4927.23742,0.00176
4929.16589,0.01114
4931.09436,0.02565
4933.02283,0.02737
4934.95130,0.01767
4936.87977,-0.00053
4938.80824,-0.01206
4940.73670,-0.00032
4942.66517,0.01461
4944.59364,0.01295
4946.52211,0.00595
4948.45058,0.00300
4950.37905,0.00417
4952.30752,0.00874
4954.23599,0.00641
4956.16445,-0.00606
4958.09292,-0.01020
4960.02139,-0.00142
4961.94986,0.00497
4963.87833,0.00517
4965.80680,0.00470
4967.73527,0.00514
4969.66373,0.00546
4971.59220,0.00404
4973.52067,0.00085
4975.44914,0.00113
4977.37761,0.00738
4979.30608,0.00902
4981.23455,-0.00138
4983.16302,-0.01089
4985.09148,-0.00796
4987.01995,-0.00499
4988.94842,-0.00953
4990.87689,-0.01020
4992.80536,0.00104
4994.73383,0.01825
4996.66230,0.02614
4998.59076,0.02218
5000.51923,0.01458
5002.44770,0.00596
5004.37617,0.01159
5006.30464,0.03674
5008.23311,0.04419
5010.16158,0.01986
5012.09005,0.00100
5014.01851,0.00293
5015.94698,0.00398
5017.87545,-0.00289
5019.80392,0.00212
5021.73239,0.02108
5023.66086,0.03086
5025.58933,0.02956
5027.51779,0.03127
5029.44626,0.03136
5031.37473,0.02406
5033.30320,0.02457
5035.23167,0.03439
5037.16014,0.03194
5039.08861,0.01550
5041.01708,0.00929
5042.94554,0.02274
5044.87401,0.03819
5046.80248,0.04731
5048.73095,0.05374
5050.65942,0.05830
5052.58789,0.06132
5054.51636,0.05198
5056.44482,0.02836
5058.37329,0.01374
5060.30176,0.02140
5062.23023,0.03746
5064.15870,0.04769
5066.08717,0.04396
5068.01564,0.02719
5069.94410,0.01877
5071.87257,0.02587
5073.80104,0.03117
5075.72951,0.02479
5077.65798,0.01454
5079.58645,0.01073
5081.51492,0.01600
5083.44339,0.03077
5085.37185,0.04570
5087.30032,0.04633
5089.22879,0.03342
5091.15726,0.01706
5093.08573,0.00597
5095.01420,0.00694
5096.94267,0.01659
5098.87113,0.02384
5100.79960,0.02911
5102.72807,0.04216
5104.65654,0.05581
5106.58501,0.04857
5108.51348,0.02982
5110.44195,0.01978
5112.37042,0.01440
5114.29888,0.01692
5116.22735,0.02952
5118.15582,0.03899
5120.08429,0.03646
5122.01276,0.02893
5123.94123,0.02940
5125.86970,0.03729
5127.79816,0.04201
5129.72663,0.03355
5131.65510,0.01990
5133.58357,0.02064
5135.51204,0.03065
5137.44051,0.03521
5139.36898,0.04091
5141.29745,0.05185
5143.22591,0.05381
5145.15438,0.03635
5147.08285,0.02067
5149.01132,0.03608
5150.93979,0.06793
5152.86826,0.07966
5154.79673,0.06284
5156.72519,0.04450
5158.65366,0.04230
5160.58213,0.04128
5162.51060,0.04061
5164.43907,0.04726
5166.36754,0.05209
5168.29601,0.04378
5170.22448,0.02563
5172.15294,0.01835
5174.08141,0.02879
5176.00988,0.04492
5177.93835,0.05800
5179.86682,0.06469
5181.79529,0.06321
5183.72376,0.05289
5185.65222,0.04233
5187.58069,0.04262
5189.50916,0.04193
5191.43763,0.03184
5193.36610,0.02356
5195.29457,0.02376
5197.22304,0.03873
5199.15151,0.06245
5201.07997,0.06334
5203.00844,0.03921
5204.93691,0.02527
5206.86538,0.02706
5208.79385,0.02283
5210.72232,0.02167
5212.65079,0.02929
5214.57925,0.03788
5216.50772,0.04543
5218.43619,0.04555
5220.36466,0.04060
5222.29313,0.05016
5224.22160,0.06613
5226.15007,0.05738
5228.07854,0.03589
5230.00700,0.02935
5231.93547,0.02983
5233.86394,0.02994
5235.79241,0.03366
5237.72088,0.03954
5239.64935,0.05233
5241.57782,0.07102
5243.50628,0.07751
5245.43475,0.06986
5247.36322,0.05956
5249.29169,0.04768
5251.22016,0.04094
5253.14863,0.04179
5255.07710,0.04436
5257.00556,0.04559
5258.93403,0.04694
5260.86250,0.05461
5262.79097,0.05958
5264.71944,0.05554
5266.64791,0.06185
5268.57638,0.07061
5270.50485,0.05768
5272.43331,0.03691
5274.36178,0.03981
5276.29025,0.06123
5278.21872,0.07484
5280.14719,0.07959
5282.07566,0.08107
5284.00413,0.07131
5285.93259,0.05457
5287.86106,0.04646
5289.78953,0.04965
5291.71800,0.05921
5293.64647,0.06622
5295.57494,0.06806
5297.50341,0.06897
5299.43188,0.07279
5301.36034,0.08121
5303.28881,0.07322
5305.21728,0.04315
5307.14575,0.02439
5309.07422,0.02706
5311.00269,0.02618
5312.93116,0.02174
5314.85962,0.03412
5316.78809,0.05169
5318.71656,0.06197
5320.64503,0.07491
5322.57350,0.08278
5324.50197,0.07183
5326.43044,0.05437
5328.35891,0.05477
5330.28737,0.05736
5332.21584,0.04714
5334.14431,0.04900
5336.07278,0.07024
5338.00125,0.08284
5339.92972,0.07129
5341.85819,0.06521
5343.78665,0.07733
5345.71512,0.08410
5347.64359,0.07371
5349.57206,0.06347
5351.50053,0.06132
5353.42900,0.04616
5355.35747,0.01793
5357.28594,0.00784
5359.21440,0.02162
5361.14287,0.04364
5363.07134,0.05114
5364.99981,0.04361
5366.92828,0.04388
5368.85675,0.05613
5370.78522,0.07856
5372.71368,0.10991
5374.64215,0.12687
5376.57062,0.11761
5378.49909,0.10417
5380.42756,0.10030
5382.35603,0.10270
5384.28450,0.10213
5386.21297,0.09112
5388.14143,0.07462
5390.06990,0.06508
5391.99837,0.06583
5393.92684,0.06354
5395.85531,0.04795
5397.78378,0.04799
5399.71225,0.07870
5401.64071,0.09509
5403.56918,0.07530
5405.49765,0.06586
5407.42612,0.08027
5409.35459,0.07505
5411.28306,0.04756
5413.21153,0.03815
5415.13999,0.04541
5417.06846,0.03979
5418.99693,0.02684
5420.92540,0.02865
5422.85387,0.04517
5424.78234,0.06660
5426.71081,0.07579
5428.63928,0.05700
5430.56774,0.04043
5432.49621,0.03509
5434.42468,0.02309
5436.35315,0.03060
5438.28162,0.06359
5440.21009,0.08067
5442.13856,0.06169
5444.06702,0.03943
5445.99549,0.04449
5447.92396,0.06785
5449.85243,0.07963
5451.78090,0.07215
5453.70937,0.06390
5455.63784,0.05899
5457.56631,0.05499
5459.49477,0.06244
5461.42324,0.08742
5463.35171,0.11495
5465.28018,0.11066
5467.20865,0.07367
5469.13712,0.04359
5471.06559,0.04734
5472.99405,0.06845
5474.92252,0.06631
5476.85099,0.03663
5478.77946,0.02055
5480.70793,0.03652
5482.63640,0.06613
5484.56487,0.06376
5486.49334,0.03491
5488.42180,0.03306
5490.35027,0.05137
5492.27874,0.05437
5494.20721,0.06090
5496.13568,0.07632
5498.06415,0.07519
5499.99262,0.07408
5501.92108,0.09296
5503.84955,0.09852
5505.77802,0.07222
5507.70649,0.05280
5509.63496,0.07141
5511.56343,0.09369
5513.49190,0.07682
5515.42037,0.04142
5517.34883,0.03641
5519.27730,0.05215
5521.20577,0.05035
5523.13424,0.03801
5525.06271,0.04689
5526.99118,0.07990
5528.91965,0.10616
5530.84811,0.11025
5532.77658,0.10510
5534.70505,0.08697
5536.63352,0.06404
5538.56199,0.07053
5540.49046,0.10036
5542.41893,0.11619
5544.34740,0.10187
5546.27586,0.08547
5548.20433,0.10450
5550.13280,0.12843
5552.06127,0.11443
5553.98974,0.08463
5555.91821,0.06774
5557.84668,0.06572
5559.77514,0.07784
5561.70361,0.09799
5563.63208,0.10849
5565.56055,0.09545
5567.48902,0.07509
5569.41749,0.05975
5571.34596,0.04105
5573.27443,0.03754
5575.20289,0.05364
5577.13136,0.05234
5579.05983,0.03076
5580.98830,0.03485
5582.91677,0.07282
5584.84524,0.08222
5586.77371,0.05698
5588.70217,0.04973
5590.63064,0.07200
5592.55911,0.09185
5594.48758,0.08687
5596.41605,0.07370
5598.34452,0.07215
5600.27299,0.07460
5602.20145,0.07789
5604.12992,0.08775
5606.05839,0.09411
5607.98686,0.08760
5609.91533,0.07481
5611.84380,0.07416
5613.77227,0.09059
5615.70074,0.09289
5617.62920,0.09210
5619.55767,0.10626
5621.48614,0.09243
5623.41461,0.07083
5625.34308,0.10089
5627.27155,0.13549
5629.20002,0.10860
5631.12848,0.08078
5633.05695,0.10989
5634.98542,0.13690
5636.91389,0.10673
5638.84236,0.06009
5640.77083,0.04912
5642.69930,0.06648
5644.62777,0.07018
5646.55623,0.05471
5648.48470,0.06083
5650.41317,0.08763
5652.34164,0.08774
5654.27011,0.05111
5656.19858,0.02029
5658.12705,0.02687
5660.05551,0.05015
5661.98398,0.06711
5663.91245,0.08652
5665.84092,0.09872
5667.76939,0.08313
5669.69786,0.06275
5671.62633,0.06233
5673.55480,0.06506
5675.48326,0.06039
5677.41173,0.06091
5679.34020,0.07663
5681.26867,0.09417
5683.19714,0.09813
5685.12561,0.10290
5687.05408,0.11913
5688.98254,0.12704
5690.91101,0.10555
5692.83948,0.06959
5694.76795,0.06302
5696.69642,0.10338
5698.62489,0.14302
5700.55336,0.14573
5702.48183,0.12897
5704.41029,0.10134
5706.33876,0.07425
5708.26723,0.07133
5710.19570,0.08492
5712.12417,0.08449
5714.05264,0.07248
5715.98111,0.06905
5717.90957,0.06152
5719.83804,0.03899
5721.76651,0.03554
5723.69498,0.08385
5725.62345,0.14300
5727.55192,0.15670
5729.48039,0.12847
5731.40886,0.08951
5733.33732,0.06523
5735.26579,0.07207
5737.19426,0.09689
5739.12273,0.11256
5741.05120,0.11639
5742.97967,0.12425
5744.90814,0.13551
5746.83660,0.13214
5748.76507,0.12181
5750.69354,0.12014
5752.62201,0.12625
5754.55048,0.14475
5756.47895,0.15055
5758.40742,0.11314
5760.33588,0.05785
5762.26435,0.04017
5764.19282,0.07039
5766.12129,0.09545
5768.04976,0.08413
5769.97823,0.06521
5771.90670,0.07518
5773.83517,0.10747
5775.76363,0.12850
5777.69210,0.12092
5779.62057,0.09261
5781.54904,0.05708
5783.47751,0.03037
5785.40598,0.03476
5787.33445,0.06565
5789.26291,0.08472
5791.19138,0.06998
5793.11985,0.05645
5795.04832,0.07675
5796.97679,0.10608
5798.90526,0.09786
5800.83373,0.05999
5802.76220,0.05886
5804.69066,0.09137
5806.61913,0.09909
5808.54760,0.08628
5810.47607,0.07032
5812.40454,0.05129
5814.33301,0.02951
5816.26148,0.01185
5818.18994,0.01648
5820.11841,0.04443
5822.04688,0.06981
5823.97535,0.08289
5825.90382,0.09554
5827.83229,0.09950
5829.76076,0.07585
5831.68923,0.04439
5833.61769,0.04887
5835.54616,0.08524
5837.47463,0.11996
5839.40310,0.14853
5841.33157,0.16155
5843.26004,0.14435
5845.18851,0.11949
5847.11697,0.11112
5849.04544,0.10570
5850.97391,0.09589
5852.90238,0.09475
5854.83085,0.09384
5856.75932,0.08854
5858.68779,0.08996
5860.61626,0.09470
5862.54472,0.11065
5864.47319,0.13311
5866.40166,0.13321
5868.33013,0.12935
5870.25860,0.14428
5872.18707,0.16235
5874.11554,0.15919
5876.04400,0.13781
5877.97247,0.12877
5879.90094,0.11365
5881.82941,0.07877
5883.75788,0.06301
5885.68635,0.07984
5887.61482,0.10589
5889.54329,0.10339
5891.47175,0.06871
5893.40022,0.03855
5895.32869,0.03367
5897.25716,0.04106
5899.18563,0.02897
5901.11410,0.00652
5903.04257,0.01659
5904.97103,0.05160
5906.89950,0.06747
5908.82797,0.04165
5910.75644,0.02553
5912.68491,0.08954
5914.61338,0.16985
5916.54185,0.16324
5918.47032,0.10161
5920.39878,0.07388
5922.32725,0.08883
5924.25572,0.07786
5926.18419,0.04060
5928.11266,0.03978
5930.04113,0.05782
5931.96960,0.06682
5933.89806,0.06218
5935.82653,0.04487
5937.75500,0.05238
5939.68347,0.06657
5941.61194,0.05611
5943.54041,0.05398
5945.46888,0.06999
5947.39734,0.07095
5949.32581,0.03523
5951.25428,-0.00558
5953.18275,0.00799
5955.11122,0.06872
5957.03969,0.10802
5958.96816,0.08552
5960.89663,0.05816
5962.82509,0.08075
5964.75356,0.11923
5966.68203,0.14948
5968.61050,0.15105
5970.53897,0.11445
5972.46744,0.08142
5974.39591,0.05769
5976.32437,0.04222
5978.25284,0.06494
5980.18131,0.10328
5982.10978,0.11461
5984.03825,0.11571
5985.96672,0.11896
5987.89519,0.08641
5989.82366,0.04924
5991.75212,0.05640
5993.68059,0.05032
5995.60906,0.00019
5997.53753,-0.00082
5999.46600,0.07057
6001.39447,0.10454
6003.32294,0.06932
6005.25140,0.06457
6007.17987,0.11129
6009.10834,0.12931
6011.03681,0.11131
6012.96528,0.10529
6014.89375,0.10528
6016.82222,0.08610
6018.75069,0.05681
6020.67915,0.04558
6022.60762,0.06546
6024.53609,0.08680
6026.46456,0.09029
6028.39303,0.10360
6030.32150,0.14195
6032.24997,0.16710
6034.17843,0.14391
6036.10690,0.11827
6038.03537,0.13724
6039.96384,0.14718
6041.89231,0.12441
6043.82078,0.09823
6045.74925,0.05839
6047.67772,0.01590
6049.60618,0.01621
6051.53465,0.04049
6053.46312,0.04785
6055.39159,0.05903
6057.32006,0.06721
6059.24853,0.02434
6061.17700,-0.00416
6063.10546,0.03655
6065.03393,0.06468
6066.96240,0.04488
6068.89087,0.03226
6070.81934,0.06342
6072.74781,0.10486
6074.67628,0.13055
6076.60475,0.15086
6078.53321,0.15929
6080.46168,0.14177
6082.39015,0.10878
6084.31862,0.09161
6086.24709,0.08763
6088.17556,0.07479
6090.10403,0.05923
6092.03249,0.04966
6093.96096,0.04363
6095.88943,0.03870
6097.81790,0.04209
6099.74637,0.04755
6101.67484,0.03173
6103.60331,0.00487
6105.53177,0.03800
6107.46024,0.13985
6109.38871,0.20360
6111.31718,0.18549
6113.24565,0.12926
6115.17412,0.08863
6117.10259,0.10330
6119.03106,0.12633
6120.95952,0.10598
6122.88799,0.07655
6124.81646,0.05845
6126.74493,0.05305
6128.67340,0.06438
6130.60187,0.07379
6132.53034,0.07890
6134.45880,0.06812
6136.38727,0.01778
6138.31574,-0.01530
6140.24421,0.01788
6142.17268,0.06773
6144.10115,0.10074
6146.02962,0.11643
6147.95809,0.10075
6149.88655,0.06503
6151.81502,0.04921
6153.74349,0.08414
6155.67196,0.13555
6157.60043,0.14770
6159.52890,0.14335
6161.45737,0.15883
6163.38583,0.15155
6165.31430,0.10602
6167.24277,0.05803
6169.17124,0.01041
6171.09971,-0.02055
6173.02818,-0.00870
6174.95665,0.03315
6176.88512,0.08246
6178.81358,0.12280
6180.74205,0.14969
6182.67052,0.16357
6184.59899,0.17768
6186.52746,0.19050
6188.45593,0.17796
6190.38440,0.16942
6192.31286,0.17325
6194.24133,0.13326
6196.16980,0.06620
6198.09827,0.06232
6200.02674,0.12224
6201.95521,0.15129
6203.88368,0.11901
6205.81215,0.09764
6207.74061,0.11858
6209.66908,0.12615
6211.59755,0.09782
6213.52602,0.06668
6215.45449,0.03557
6217.38296,0.01721
6219.31143,0.03542
6221.23989,0.06813
6223.16836,0.10177
6225.09683,0.13266
6227.02530,0.09620
6228.95377,0.01721
6230.88224,0.01261
6232.81071,0.06154
6234.73918,0.09480
6236.66764,0.11796
6238.59611,0.12545
6240.52458,0.12967
6242.45305,0.15691
6244.38152,0.16910
6246.30999,0.11565
6248.23846,0.03954
6250.16692,0.00522
6252.09539,0.01309
6254.02386,0.03906
6255.95233,0.06516
6257.88080,0.08450
6259.80927,0.10373
6261.73774,0.12781
6263.66621,0.13582
6265.59467,0.09262
6267.52314,0.03426
6269.45161,0.01919
6271.38008,0.02425
6273.30855,0.01754
6275.23702,0.00745
6277.16549,0.01217
6279.09395,0.02151
6281.02242,0.02460
6282.95089,0.04183
6284.87936,0.07690
6286.80783,0.09352
6288.73630,0.07338
6290.66477,0.02313
6292.59323,-0.03700
6294.52170,-0.06576
6296.45017,-0.03382
6298.37864,0.05244
6300.30711,0.13412
6302.23558,0.13025
6304.16405,0.08647
6306.09252,0.08646
6308.02098,0.11385
6309.94945,0.14041
6311.87792,0.13838
6313.80639,0.10737
6315.73486,0.09392
6317.66333,0.09728
6319.59180,0.09363
6321.52026,0.11274
6323.44873,0.16322
6325.37720,0.17745
6327.30567,0.11160
6329.23414,-0.00084
6331.16261,-0.07644
6333.09108,-0.06635
6335.01955,0.00262
6336.94801,0.05491
6338.87648,0.05204
6340.80495,0.03728
6342.73342,0.04665
6344.66189,0.07365
6346.59036,0.11264
6348.51883,0.16333
6350.44729,0.20524
6352.37576,0.20181
6354.30423,0.19353
6356.23270,0.21312
6358.16117,0.19494
6360.08964,0.10575
6362.01811,0.04229
6363.94658,0.07532
6365.87504,0.10761
6367.80351,0.06228
6369.73198,0.06252
6371.66045,0.14186
6373.58892,0.16511
6375.51739,0.10129
6377.44586,0.01919
6379.37432,-0.02703
6381.30279,-0.00657
6383.23126,0.06493
6385.15973,0.12263
6387.08820,0.14206
6389.01667,0.17377
6390.94514,0.21016
6392.87361,0.17271
6394.80207,0.07897
6396.73054,0.03265
6398.65901,0.05302
6400.58748,0.10577
6402.51595,0.15027
6404.44442,0.16007
6406.37289,0.13713
6408.30135,0.11492
6410.22982,0.12620
6412.15829,0.13495
6414.08676,0.08199
6416.01523,0.02137
6417.94370,0.04827
6419.87217,0.08332
6421.80064,0.03041
6423.72910,-0.00083
6425.65757,0.04908
6427.58604,0.10722
6429.51451,0.13002
6431.44298,0.12260
6433.37145,0.10582
6435.29992,0.07053
6437.22838,0.03006
6439.15685,0.03637
6441.08532,0.09184
6443.01379,0.14118
6444.94226,0.12797
6446.87073,0.09922
6448.79920,0.09739
6450.72766,0.11550
6452.65613,0.14894
6454.58460,0.15585
6456.51307,0.10023
6458.44154,0.01842
6460.37001,-0.01228
6462.29848,0.03125
6464.22695,0.08003
6466.15541,0.09145
6468.08388,0.11119
6470.01235,0.15294
6471.94082,0.16250
6473.86929,0.14220
6475.79776,0.15456
6477.72623,0.18326
6479.65469,0.15238
6481.58316,0.09975
6483.51163,0.09723
6485.44010,0.08598
6487.36857,0.03841
6489.29704,0.02501
6491.22551,0.06060
6493.15398,0.12345
6495.08244,0.18787
6497.01091,0.18279
6498.93938,0.10930
6500.86785,0.05157
6502.79632,0.05608
6504.72479,0.08897
6506.65326,0.08733
6508.58172,0.02695
6510.51019,-0.01281
6512.43866,0.01936
6514.36713,0.05564
6516.29560,0.07084
6518.22407,0.07904
6520.15254,0.09343
6522.08101,0.12842
6524.00947,0.13994
6525.93794,0.11293
6527.86641,0.13043
6529.79488,0.22162
6531.72335,0.30589
6533.65182,0.25745
6535.58029,0.08201
6537.50875,-0.03531
6539.43722,0.02268
6541.36569,0.12554
6543.29416,0.10089
6545.22263,0.02709
6547.15110,0.02275
6549.07957,0.04131
6551.00804,0.06178
6552.93650,0.07258
6554.86497,0.03295
6556.79344,-0.00033
6558.72191,0.01364
6560.65038,0.03921
6562.57885,0.07151
6564.50732,0.11127
6566.43578,0.14225
6568.36425,0.17633
6570.29272,0.19781
6572.22119,0.18094
6574.14966,0.17646
6576.07813,0.18542
6578.00660,0.11421
6579.93507,-0.01274
6581.86353,-0.05716
6583.79200,-0.00971
6585.72047,0.00884
6587.64894,0.01157
6589.57741,0.05375
6591.50588,0.05248
6593.43435,-0.01376
6595.36281,-0.01034
6597.29128,0.07486
6599.21975,0.11084
6601.14822,0.06972
6603.07669,0.02627
6605.00516,-0.00293
6606.93363,0.00653
6608.86210,0.09819
6610.79056,0.21306
6612.71903,0.25357
6614.64750,0.21145
6616.57597,0.14046
6618.50444,0.13767
6620.43291,0.21629
6622.36138,0.23065
6624.28984,0.12078
6626.21831,0.01323
6628.14678,-0.01896
6630.07525,-0.00731
6632.00372,0.05060
6633.93219,0.11573
6635.86066,0.09612
6637.78912,0.05550
6639.71759,0.07398
6641.64606,0.09519
6643.57453,0.09762
6645.50300,0.09469
6647.43147,0.09572
6649.35994,0.12097
6651.28841,0.14014
6653.21687,0.13179
6655.14534,0.09492
6657.07381,-0.00665
6659.00228,-0.11552
6660.93075,-0.09790
6662.85922,0.01561
6664.78769,0.07382
6666.71615,0.05439
6668.64462,0.01093
6670.57309,-0.00983
6672.50156,0.08661
6674.43003,0.21531
6676.35850,0.17999
6678.28697,0.03889
6680.21544,0.00384
6682.14390,0.10082
6684.07237,0.15074
6686.00084,0.12662
6687.92931,0.13457
6689.85778,0.11588
6691.78625,0.05162
6693.71472,0.02810
6695.64318,0.03429
6697.57165,0.03953
6699.50012,0.04255
6701.42859,0.02487
6703.35706,0.02638
6705.28553,0.08690
6707.21400,0.11583
6709.14247,0.05518
6711.07093,0.00625
6712.99940,0.02434
6714.92787,0.03616
6716.85634,0.00332
6718.78481,0.02931
6720.71328,0.13513
6722.64175,0.17444
6724.57021,0.12202
6726.49868,0.06116
6728.42715,0.00495
6730.35562,-0.04483
6732.28409,-0.03015
6734.21256,0.03276
6736.14103,0.05870
6738.06950,0.06292
6739.99796,0.10823
6741.92643,0.14963
6743.85490,0.15158
6745.78337,0.15798
6747.71184,0.16924
6749.64031,0.14707
6751.56878,0.08097
6753.49724,0.01801
6755.42571,0.02150
6757.35418,0.07144
6759.28265,0.09116
6761.21112,0.07483
6763.13959,0.08041
6765.06806,0.10038
6766.99653,0.10496
6768.92499,0.08760
6770.85346,0.05188
6772.78193,0.01430
6774.71040,-0.02920
6776.63887,-0.05511
6778.56734,0.00474
6780.49581,0.08608
6782.42427,0.07201
6784.35274,-0.00554
6786.28121,-0.01860
6788.20968,0.04975
6790.13815,0.08266
6792.06662,0.05418
6793.99509,0.04069
6795.92355,0.05163
6797.85202,0.07216
6799.78049,0.08136
6801.70896,0.06206
6803.63743,-0.00739
6805.56590,-0.05363
6807.49437,0.03414
6809.42284,0.19680
6811.35130,0.27063
6813.27977,0.17365
6815.20824,0.07258
6817.13671,0.06981
6819.06518,0.04368
6820.99365,-0.02645
6822.92212,-0.04373
6824.85058,-0.04390
6826.77905,-0.07721
6828.70752,-0.06905
6830.63599,-0.06123
6832.56446,-0.12280
6834.49293,-0.12415
6836.42140,0.02782
6838.34987,0.17770
6840.27833,0.19326
6842.20680,0.11617
6844.13527,0.00783
6846.06374,-0.07066
6847.99221,-0.03084
6849.92068,0.09773
6851.84915,0.18284
6853.77761,0.24046
6855.70608,0.27407
6857.63455,0.21794
6859.56302,0.13025
6861.49149,0.14213
6863.41996,0.25799
6865.34843,0.35738
6867.27690,0.32982
6869.20536,0.16789
6871.13383,0.04321
6873.06230,0.04994
6874.99077,0.06266
6876.91924,0.03827
6878.84771,0.02846
6880.77618,0.04678
6882.70464,0.08594
6884.63311,0.08082
6886.56158,0.03505
6888.49005,0.02075
6890.41852,0.04093
6892.34699,0.07897
6894.27546,0.08388
6896.20393,0.02329
6898.13239,-0.07725
6900.06086,-0.15082
6901.98933,-0.07940
6903.91780,0.12018
6905.84627,0.23272
6907.77474,0.20095
6909.70321,0.17998
6911.63167,0.21638
6913.56014,0.22594
6915.48861,0.17299
6917.41708,0.12487
6919.34555,0.11553
6921.27402,0.10451
6923.20249,0.05517
6925.13096,-0.01970
6927.05942,-0.03260
6928.98789,0.02226
6930.91636,-0.03482
6932.84483,-0.16424
6934.77330,-0.12263
6936.70177,0.03773
6938.63024,0.19443
6940.55870,0.26107
6942.48717,0.21380
6944.41564,0.15473
6946.34411,0.14174
6948.27258,0.14857
6950.20105,0.10013
6952.12952,-0.02906
6954.05799,-0.16345
6955.98645,-0.18631
6957.91492,-0.11859
6959.84339,-0.07792
6961.77186,-0.07503
6963.70033,-0.03455
6965.62880,0.04427
6967.55727,0.10792
6969.48573,0.16321
6971.41420,0.23296
6973.34267,0.28606
6975.27114,0.21413
6977.19961,0.00227
6979.12808,-0.14997
6981.05655,-0.14382
6982.98501,-0.01451
6984.91348,0.13758
6986.84195,0.18571
6988.77042,0.14520
6990.69889,0.13472
6992.62736,0.15786
6994.55583,0.13845
6996.48430,0.06393
6998.41276,0.00802
7000.34123,0.07860
7002.26970,0.23018
7004.19817,0.33085
7006.12664,0.35459
7008.05511,0.27506
7009.98358,0.14090
7011.91204,0.06449
7013.84051,0.06208
7015.76898,0.02506
7017.69745,-0.02881
7019.62592,0.06614
7021.55439,0.22748
7023.48286,0.28363
7025.41133,0.30668
7027.33979,0.28633
7029.26826,0.10938
7031.19673,-0.00363
7033.12520,0.05927
7035.05367,0.09291
7036.98214,0.05902
7038.91061,0.08914
7040.83907,0.10317
7042.76754,0.01592
7044.69601,-0.02142
7046.62448,0.07749
7048.55295,0.19423
7050.48142,0.19836
7052.40989,0.09141
7054.33836,0.01698
7056.26682,0.04504
7058.19529,0.05447
7060.12376,0.05073
7062.05223,0.07849
7063.98070,0.04769
7065.90917,0.05344
7067.83764,0.17000
7069.76610,0.20589
7071.69457,0.10744
7073.62304,0.07044
7075.55151,0.03605
7077.47998,-0.08038
7079.40845,-0.16050
7081.33692,-0.10157
7083.26539,0.01371
7085.19385,0.10164
7087.12232,0.15773
7089.05079,0.12717
7090.97926,-0.03679
7092.90773,-0.19704
7094.83620,-0.14439
7096.76467,0.06456
7098.69313,0.15595
7100.62160,0.07343
7102.55007,0.03466
7104.47854,0.00826
7106.40701,-0.03352
7108.33548,0.08328
7110.26395,0.23516
7112.19242,0.25627
7114.12088,0.25981
7116.04935,0.34024
7117.97782,0.40488
7119.90629,0.35241
7121.83476,0.29167
7123.76323,0.24860
7125.69170,0.12244
7127.62016,0.00289
7129.54863,0.01060
7131.47710,0.00357
7133.40557,-0.04225
7135.33404,-0.01160
7137.26251,0.07821
7139.19098,0.13975
7141.11944,0.19043
7143.04791,0.26045
7144.97638,0.23279
7146.90485,0.05286
7148.83332,-0.06990
7150.76179,-0.08253
7152.69026,-0.14258
7154.61873,-0.26916
7156.54719,-0.30435
7158.47566,-0.21618
7160.40413,-0.13346
7162.33260,-0.09328
7164.26107,-0.01009
7166.18954,0.08818
7168.11801,0.13163
7170.04647,0.14812
7171.97494,0.14095
7173.90341,0.18847
7175.83188,0.28305
7177.76035,0.24522
7179.68882,0.10303
7181.61729,0.04790
7183.54576,0.09741
7185.47422,0.10665
7187.40269,0.07219
7189.33116,0.08973
7191.25963,0.14379
7193.18810,0.08734
7195.11657,-0.06752
7197.04504,-0.19814
7198.97350,-0.18936
7200.90197,-0.06791
7202.83044,0.02755
7204.75891,0.04742
7206.68738,0.02322
7208.61585,-0.02577
7210.54432,-0.04690
7212.47279,0.03312
7214.40125,0.15195
7216.32972,0.15055
7218.25819,0.05135
7220.18666,0.01323
7222.11513,0.05611
7224.04360,0.13672
7225.97207,0.19252
7227.90053,0.22877
7229.82900,0.22259
7231.75747,0.14841
7233.68594,0.14682
7235.61441,0.14992
7237.54288,0.06214
7239.47135,0.04115
7241.39982,0.08043
7243.32828,-0.02582
7245.25675,-0.16691
7247.18522,-0.17915
7249.11369,-0.09510
7251.04216,0.01078
7252.97063,-0.01005
7254.89910,-0.07386
7256.82756,0.03558
7258.75603,0.12633
7260.68450,0.00730
7262.61297,-0.16000
7264.54144,-0.21936
7266.46991,-0.17876
7268.39838,-0.08523
7270.32685,0.04424
7272.25531,0.27715
7274.18378,0.41702
7276.11225,0.39649
7278.04072,0.45856
7279.96919,0.54881
7281.89766,0.37430
7283.82613,0.10063
7285.75459,-0.06466
7287.68306,-0.05638
7289.61153,0.10569
7291.54000,0.28005
7293.46847,0.33882
7295.39694,0.27298
7297.32541,0.16071
7299.25387,0.08461
7301.18234,0.11226
7303.11081,0.19892
7305.03928,0.19071
7306.96775,0.19621
7308.89622,0.40103
7310.82469,0.53612
7312.75316,0.39415
7314.68162,0.16342
7316.61009,0.04315
7318.53856,0.01625
7320.46703,-0.06168
7322.39550,-0.14020
7324.32397,-0.08880
7326.25244,0.10014
7328.18090,0.36572
7330.10937,0.46631
7332.03784,0.25018
7333.96631,0.02421
7335.89478,-0.02117
7337.82325,0.02699
7339.75172,0.06295
7341.68019,0.11007
7343.60865,0.18766
7345.53712,0.18582
7347.46559,0.15186
7349.39406,0.16208
7351.32253,0.09651
7353.25100,0.01814
7355.17947,0.04149
7357.10793,0.04078
7359.03640,-0.11140
7360.96487,-0.18370
7362.89334,-0.05723
7364.82181,0.02064
7366.75028,-0.00848
7368.67875,0.02157
7370.60722,0.08706
7372.53568,0.02409
7374.46415,-0.12042
7376.39262,-0.06477
7378.32109,0.05944
7380.24956,0.07611
7382.17803,0.04601
7384.10650,-0.04157
7386.03496,-0.09580
7387.96343,-0.02891
7389.89190,-0.02919
7391.82037,-0.08740
7393.74884,-0.00825
7395.67731,0.18060
7397.60578,0.26773
7399.53425,0.25691
7401.46271,0.23771
7403.39118,0.17982
7405.31965,0.14223
7407.24812,0.15574
7409.17659,0.13490
7411.10506,0.10604
7413.03353,0.16970
7414.96199,0.31059
7416.89046,0.38771
7418.81893,0.35589
7420.74740,0.24336
7422.67587,0.09206
7424.60434,0.01908
7426.53281,0.04600
7428.46128,0.14180
7430.38974,0.20848
7432.31821,0.14887
7434.24668,0.02698
7436.17515,-0.08781
7438.10362,-0.07186
7440.03209,0.15808
7441.96056,0.37532
7443.88902,0.38034
7445.81749,0.30283
7447.74596,0.28069
7449.67443,0.28052
7451.60290,0.20532
7453.53137,0.16982
7455.45984,0.24123
7457.38831,0.29711
7459.31677,0.27353
7461.24524,0.24255
7463.17371,0.26554
7465.10218,0.20470
7467.03065,0.14448
7468.95912,0.15374
7470.88759,0.01699
7472.81605,-0.17137
7474.74452,-0.11768
7476.67299,0.08274
7478.60146,0.18142
7480.52993,0.12543
7482.45840,0.09130
7484.38687,0.12292
7486.31533,0.05802
7488.24380,-0.10147
7490.17227,-0.20893
7492.10074,-0.19726
7494.02921,-0.06038
7495.95768,0.12807
7497.88615,0.28644
