399.19301,0.84731
401.12148,0.41180
403.04995,-0.34811
404.97842,-0.44050
406.90689,-0.22173
408.83536,0.05218
410.76382,0.17530
412.69229,0.05606
414.62076,-0.08447
416.54923,-0.14654
418.47770,-0.21645
420.40617,-0.22721
422.33464,-0.11956
424.26311,0.05602
426.19157,0.23384
428.12004,0.31711
430.04851,0.31150
431.97698,0.34954
433.90545,0.43895
435.83392,0.39138
437.76239,0.22939
439.69085,0.07228
441.61932,-0.03220
443.54779,-0.00620
445.47626,0.11362
447.40473,0.17474
449.33320,0.13631
451.26167,0.05654
453.19013,-0.04126
455.11860,-0.10003
457.04707,-0.05795
458.97554,0.03510
460.90401,0.11024
462.83248,0.13976
464.76095,0.16591
466.68942,0.22274
468.61788,0.25937
470.54635,0.25764
472.47482,0.25420
474.40329,0.24171
476.33176,0.14475
478.26023,0.06130
480.18870,0.04208
482.11716,0.04513
484.04563,0.02404
485.97410,0.00529
487.90257,0.01564
489.83104,0.01271
491.75951,0.01338
493.68798,0.06493
495.61645,0.11103
497.54491,0.10168
499.47338,0.10149
501.40185,0.14219
503.33032,0.17077
505.25879,0.17152
507.18726,0.18586
509.11573,0.21493
511.04419,0.20820
512.97266,0.16146
514.90113,0.13605
516.82960,0.15583
518.75807,0.14236
520.68654,0.09982
522.61501,0.11352
524.54348,0.16725
526.47194,0.17769
528.40041,0.12790
530.32888,0.07862
532.25735,0.05830
534.18582,0.04456
536.11429,0.04917
538.04276,0.07430
539.97122,0.09197
541.89969,0.13074
543.82816,0.19606
545.75663,0.22873
547.68510,0.19954
549.61357,0.11887
551.54204,0.03831
553.47051,0.02298
555.39897,0.06216
557.32744,0.08233
559.25591,0.06452
561.18438,0.05032
563.11285,0.06296
565.04132,0.10964
566.96979,0.15838
568.89825,0.14709
570.82672,0.11237
572.75519,0.11628
574.68366,0.14058
576.61213,0.16270
578.54060,0.17365
580.46907,0.16971
582.39754,0.15879
584.32600,0.15049
586.25447,0.14357
588.18294,0.12506
590.11141,0.11345
592.03988,0.12850
593.96835,0.15518
595.89682,0.17661
597.82528,0.17907
599.75375,0.16235
601.68222,0.14651
603.61069,0.13941
605.53916,0.12395
607.46763,0.09929
609.39610,0.09103
611.32456,0.10765
613.25303,0.13143
615.18150,0.15912
617.10997,0.19907
619.03844,0.21614
620.96691,0.17576
622.89538,0.12086
624.82385,0.10837
626.75231,0.12985
628.68078,0.13548
630.60925,0.11360
632.53772,0.10457
634.46619,0.12853
636.39466,0.15175
638.32313,0.13881
640.25159,0.10840
642.18006,0.10055
644.10853,0.10985
646.03700,0.11351
647.96547,0.11655
649.89394,0.13534
651.82241,0.15694
653.75088,0.15776
655.67934,0.14117
657.60781,0.13094
659.53628,0.13266
661.46475,0.13455
663.39322,0.13281
665.32169,0.13348
667.25016,0.15355
669.17862,0.16588
671.10709,0.13510
673.03556,0.11087
674.96403,0.10818
676.89250,0.11799
678.82097,0.12571
680.74944,0.12335
682.67791,0.12069
684.60637,0.12782
686.53484,0.14328
688.46331,0.16297
690.39178,0.17037
692.32025,0.16301
694.24872,0.16619
696.17719,0.17433
698.10565,0.15964
700.03412,0.13909
701.96259,0.13653
703.89106,0.13562
705.81953,0.12883
707.74800,0.12547
709.67647,0.12789
711.60494,0.14001
713.53340,0.14795
715.46187,0.13792
717.39034,0.12723
719.31881,0.12497
721.24728,0.11564
723.17575,0.09760
725.10422,0.09255
727.03268,0.10867
728.96115,0.13630
730.88962,0.16456
732.81809,0.17889
734.74656,0.17095
736.67503,0.14833
738.60350,0.12795
740.53197,0.12199
742.46043,0.12566
744.38890,0.12916
746.31737,0.13397
748.24584,0.14141
750.17431,0.14310
752.10278,0.14253
754.03125,0.14411
755.95971,0.14098
757.88818,0.13408
759.81665,0.13036
761.74512,0.13380
763.67359,0.14147
765.60206,0.14713
767.53053,0.14552
769.45900,0.14149
771.38746,0.13936
773.31593,0.13542
775.24440,0.13775
777.17287,0.14309
779.10134,0.13804
781.02981,0.13428
782.95828,0.14144
784.88674,0.14766
786.81521,0.13989
788.74368,0.12235
790.67215,0.11890
792.60062,0.13019
794.52909,0.13190
796.45756,0.12858
798.38602,0.13419
800.31449,0.13795
802.24296,0.13539
804.17143,0.13782
806.09990,0.14661
808.02837,0.14816
809.95684,0.13070
811.88531,0.10996
813.81377,0.11073
815.74224,0.12756
817.67071,0.14439
819.59918,0.15285
821.52765,0.14890
823.45612,0.14012
825.38459,0.14073
827.31305,0.14962
829.24152,0.15061
831.16999,0.14134
833.09846,0.13304
835.02693,0.13324
836.95540,0.14018
838.88387,0.14846
840.81234,0.15559
842.74080,0.16057
844.66927,0.15830
846.59774,0.14848
848.52621,0.14202
850.45468,0.14116
852.38315,0.13564
854.31162,0.12570
856.24008,0.12850
858.16855,0.15103
860.09702,0.17495
862.02549,0.18063
863.95396,0.16790
865.88243,0.14944
867.81090,0.13980
869.73937,0.14090
871.66783,0.13926
873.59630,0.13237
875.52477,0.13072
877.45324,0.13527
879.38171,0.14470
881.31018,0.15986
883.23865,0.17125
885.16711,0.17258
887.09558,0.16738
889.02405,0.15788
890.95252,0.14797
892.88099,0.14249
894.80946,0.14753
896.73793,0.16073
898.66640,0.16521
900.59486,0.15218
902.52333,0.13639
904.45180,0.13513
906.38027,0.13950
908.30874,0.13676
910.23721,0.13111
912.16568,0.13139
914.09414,0.13968
916.02261,0.14437
917.95108,0.13989
919.87955,0.13823
921.80802,0.14372
923.73649,0.14744
925.66496,0.14540
927.59343,0.14123
929.52189,0.14007
931.45036,0.14553
933.37883,0.15629
935.30730,0.16730
937.23577,0.17238
939.16424,0.16551
941.09271,0.15320
943.02117,0.14781
944.94964,0.14526
946.87811,0.14425
948.80658,0.15253
950.73505,0.16085
952.66352,0.15632
954.59199,0.14613
956.52045,0.14446
958.44892,0.14955
960.37739,0.15282
962.30586,0.15644
964.23433,0.16760
966.16280,0.17728
968.09127,0.16971
970.01974,0.15462
971.94820,0.15012
973.87667,0.15653
975.80514,0.16436
977.73361,0.16097
979.66208,0.14661
981.59055,0.13756
983.51902,0.13832
985.44748,0.14171
987.37595,0.14422
989.30442,0.14579
991.23289,0.14938
993.16136,0.15280
995.08983,0.15004
997.01830,0.14515
998.94677,0.14487
1000.87523,0.14585
1002.80370,0.14466
1004.73217,0.14990
1006.66064,0.16374
1008.58911,0.17117
1010.51758,0.16763
1012.44605,0.16413
1014.37451,0.16039
1016.30298,0.15856
1018.23145,0.16572
1020.15992,0.16985
1022.08839,0.16167
1024.01686,0.15628
1025.94533,0.18403
1027.87380,0.21751
1029.80226,0.19458
1031.73073,0.15495
1033.65920,0.14934
1035.58767,0.15150
1037.51614,0.15161
1039.44461,0.15872
1041.37308,0.16820
1043.30154,0.17414
1045.23001,0.17927
1047.15848,0.18502
1049.08695,0.18257
1051.01542,0.17263
1052.94389,0.16400
1054.87236,0.15470
1056.80083,0.14408
1058.72929,0.14223
1060.65776,0.14749
1062.58623,0.15136
1064.51470,0.15550
1066.44317,0.16025
1068.37164,0.16044
1070.30011,0.15445
1072.22857,0.14933
1074.15704,0.15035
1076.08551,0.15244
1078.01398,0.15413
1079.94245,0.16260
1081.87092,0.17639
1083.79939,0.18355
1085.72786,0.17965
1087.65632,0.17085
1089.58479,0.16190
1091.51326,0.15696
1093.44173,0.15890
1095.37020,0.16099
1097.29867,0.16075
1099.22714,0.16543
1101.15560,0.17130
1103.08407,0.17357
1105.01254,0.17773
1106.94101,0.18211
1108.86948,0.18338
1110.79795,0.18178
1112.72642,0.17895
1114.65489,0.18175
1116.58335,0.18864
1118.51182,0.18675
1120.44029,0.17508
1122.36876,0.16604
1124.29723,0.16052
1126.22570,0.15484
1128.15417,0.15496
1130.08263,0.16180
1132.01110,0.16561
1133.93957,0.15702
1135.86804,0.14378
1137.79651,0.14167
1139.72498,0.14797
1141.65345,0.15422
1143.58191,0.16170
1145.51038,0.16798
1147.43885,0.16923
1149.36732,0.16733
1151.29579,0.16172
1153.22426,0.15849
1155.15273,0.16491
1157.08120,0.17222
1159.00966,0.17352
1160.93813,0.17295
1162.86660,0.17316
1164.79507,0.17361
1166.72354,0.17255
1168.65201,0.17005
1170.58048,0.16940
1172.50894,0.17078
1174.43741,0.17120
1176.36588,0.17080
1178.29435,0.16910
1180.22282,0.16641
1182.15129,0.17161
1184.07976,0.19085
1186.00823,0.20473
1187.93669,0.19015
1189.86516,0.16516
1191.79363,0.15700
1193.72210,0.16162
1195.65057,0.16621
1197.57904,0.16646
1199.50751,0.16308
1201.43597,0.15930
1203.36444,0.15963
1205.29291,0.16240
1207.22138,0.16381
1209.14985,0.16824
1211.07832,0.17416
1213.00679,0.17479
1214.93526,0.17219
1216.86372,0.16870
1218.79219,0.16289
1220.72066,0.15689
1222.64913,0.15465
1224.57760,0.15804
1226.50607,0.16562
1228.43454,0.17354
1230.36300,0.18028
1232.29147,0.18360
1234.21994,0.17927
1236.14841,0.17143
1238.07688,0.16894
1240.00535,0.17055
1241.93382,0.16917
1243.86229,0.16566
1245.79075,0.16513
1247.71922,0.16708
1249.64769,0.16822
1251.57616,0.16694
1253.50463,0.16509
1255.43310,0.16423
1257.36157,0.16130
1259.29003,0.15739
1261.21850,0.15920
1263.14697,0.16739
1265.07544,0.17384
1267.00391,0.17316
1268.93238,0.16870
1270.86085,0.16649
1272.78932,0.16984
1274.71778,0.17239
1276.64625,0.16890
1278.57472,0.16675
1280.50319,0.16741
1282.43166,0.16572
1284.36013,0.16455
1286.28860,0.16500
1288.21706,0.16565
1290.14553,0.16854
1292.07400,0.17098
1294.00247,0.17017
1295.93094,0.16814
1297.85941,0.16565
1299.78788,0.16040
1301.71634,0.14817
1303.64481,0.13214
1305.57328,0.13057
1307.50175,0.14956
1309.43022,0.16708
1311.35869,0.17249
1313.28716,0.17585
1315.21563,0.18110
1317.14409,0.18617
1319.07256,0.18628
1321.00103,0.18010
1322.92950,0.17474
1324.85797,0.17019
1326.78644,0.16469
1328.71491,0.16214
1330.64337,0.15910
1332.57184,0.15606
1334.50031,0.15862
1336.42878,0.16334
1338.35725,0.16679
1340.28572,0.15449
1342.21419,0.11929
1344.14266,0.09809
1346.07112,0.11827
1347.99959,0.15417
1349.92806,0.16990
1351.85653,0.16838
1353.78500,0.16736
1355.71347,0.17089
1357.64194,0.17373
1359.57040,0.17517
1361.49887,0.17853
1363.42734,0.18048
1365.35581,0.17797
1367.28428,0.17573
1369.21275,0.17632
1371.14122,0.17844
1373.06969,0.18190
1374.99815,0.18377
1376.92662,0.18090
1378.85509,0.17819
1380.78356,0.17755
1382.71203,0.17783
1384.64050,0.18028
1386.56897,0.18550
1388.49743,0.18978
1390.42590,0.18930
1392.35437,0.18895
1394.28284,0.19274
1396.21131,0.19560
1398.13978,0.19500
1400.06825,0.19203
1401.99672,0.18704
1403.92518,0.18438
1405.85365,0.18476
1407.78212,0.18412
1409.71059,0.18227
1411.63906,0.18039
1413.56753,0.18098
1415.49600,0.18769
1417.42446,0.19753
1419.35293,0.19899
1421.28140,0.19288
1423.20987,0.18858
1425.13834,0.18548
1427.06681,0.18634
1428.99528,0.19187
1430.92375,0.19502
1432.85221,0.19655
1434.78068,0.20227
1436.70915,0.20112
1438.63762,0.18799
1440.56609,0.18152
1442.49456,0.18124
1444.42303,0.18332
1446.35149,0.18987
1448.27996,0.19453
1450.20843,0.19325
1452.13690,0.19344
1454.06537,0.19967
1455.99384,0.21392
1457.92231,0.22093
1459.85077,0.20948
1461.77924,0.20418
1463.70771,0.20724
1465.63618,0.20281
1467.56465,0.18988
1469.49312,0.18582
1471.42159,0.19260
1473.35006,0.19914
1475.27852,0.19887
1477.20699,0.19645
1479.13546,0.19331
1481.06393,0.19096
1482.99240,0.18956
1484.92087,0.19010
1486.84934,0.19581
1488.77780,0.20461
1490.70627,0.20581
1492.63474,0.20146
1494.56321,0.20110
1496.49168,0.20585
1498.42015,0.20302
1500.34862,0.18549
1502.27709,0.17254
1504.20555,0.18063
1506.13402,0.21209
1508.06249,0.22595
1509.99096,0.21435
1511.91943,0.20916
1513.84790,0.21179
1515.77637,0.21989
1517.70483,0.22625
1519.63330,0.23298
1521.56177,0.23996
1523.49024,0.22973
1525.41871,0.21573
1527.34718,0.20640
1529.27565,0.19861
1531.20412,0.19851
1533.13258,0.20436
1535.06105,0.20213
1536.98952,0.20026
1538.91799,0.21231
1540.84646,0.22993
1542.77493,0.23197
1544.70340,0.22205
1546.63186,0.20891
1548.56033,0.20450
1550.48880,0.20423
1552.41727,0.20048
1554.34574,0.20187
1556.27421,0.21972
1558.20268,0.24746
1560.13115,0.22940
1562.05961,0.20317
1563.98808,0.19541
1565.91655,0.19416
1567.84502,0.19872
1569.77349,0.20486
1571.70196,0.20157
1573.63043,0.19933
1575.55889,0.20167
1577.48736,0.19436
1579.41583,0.18330
1581.34430,0.17968
1583.27277,0.18141
1585.20124,0.18311
1587.12971,0.18376
1589.05818,0.18377
1590.98664,0.18247
1592.91511,0.18301
1594.84358,0.18453
1596.77205,0.18296
1598.70052,0.18210
1600.62899,0.18341
1602.55746,0.18119
1604.48592,0.17701
1606.41439,0.17824
1608.34286,0.18196
1610.27133,0.18111
1612.19980,0.17957
1614.12827,0.18465
1616.05674,0.19666
1617.98521,0.20174
1619.91367,0.19868
1621.84214,0.20031
1623.77061,0.20421
1625.69908,0.20450
1627.62755,0.20471
1629.55602,0.20512
1631.48449,0.20725
1633.41295,0.21596
1635.34142,0.22981
1637.26989,0.22775
1639.19836,0.21557
1641.12683,0.20907
1643.05530,0.20980
1644.98377,0.22098
1646.91223,0.23730
1648.84070,0.23513
1650.76917,0.23007
1652.69764,0.23239
1654.62611,0.21778
1656.55458,0.20254
1658.48305,0.19913
1660.41152,0.20477
1662.33998,0.21343
1664.26845,0.21386
1666.19692,0.21301
1668.12539,0.21936
1670.05386,0.22266
1671.98233,0.21867
1673.91080,0.21618
1675.83926,0.20874
1677.76773,0.20215
1679.69620,0.20781
1681.62467,0.22365
1683.55314,0.23956
1685.48161,0.23235
1687.41008,0.21749
1689.33855,0.20809
1691.26701,0.20071
1693.19548,0.20063
1695.12395,0.21079
1697.05242,0.22209
1698.98089,0.22440
1700.90936,0.21756
1702.83783,0.21057
1704.76629,0.20680
1706.69476,0.20086
1708.62323,0.19591
1710.55170,0.19629
1712.48017,0.20159
1714.40864,0.21334
1716.33711,0.22712
1718.26558,0.21889
1720.19404,0.19861
1722.12251,0.18935
1724.05098,0.18799
1725.97945,0.18888
1727.90792,0.19254
1729.83639,0.19784
1731.76486,0.20306
1733.69332,0.20718
1735.62179,0.20454
1737.55026,0.20319
1739.47873,0.20443
1741.40720,0.20297
1743.33567,0.20172
1745.26414,0.20410
1747.19261,0.21207
1749.12107,0.22089
1751.04954,0.21657
1752.97801,0.20652
1754.90648,0.20344
1756.83495,0.20096
1758.76342,0.19546
1760.69189,0.19517
1762.62035,0.19773
1764.54882,0.19750
1766.47729,0.19860
1768.40576,0.20162
1770.33423,0.20659
1772.26270,0.20975
1774.19117,0.20457
1776.11964,0.20009
1778.04810,0.20046
1779.97657,0.20174
1781.90504,0.20073
1783.83351,0.19828
1785.76198,0.19458
1787.69045,0.19249
1789.61892,0.19670
1791.54738,0.20387
1793.47585,0.20496
1795.40432,0.20285
1797.33279,0.20426
1799.26126,0.20752
1801.18973,0.20443
1803.11820,0.19410
1805.04666,0.18714
1806.97513,0.18704
1808.90360,0.18862
1810.83207,0.18821
1812.76054,0.18722
1814.68901,0.18792
1816.61748,0.18897
1818.54595,0.18881
1820.47441,0.19025
1822.40288,0.19417
1824.33135,0.19581
1826.25982,0.19466
1828.18829,0.19781
1830.11676,0.20242
1832.04523,0.19861
1833.97369,0.19304
1835.90216,0.19210
1837.83063,0.19184
1839.75910,0.19115
1841.68757,0.19302
1843.61604,0.19666
1845.54451,0.19864
1847.47298,0.19757
1849.40144,0.19452
1851.32991,0.19206
1853.25838,0.19057
1855.18685,0.18772
1857.11532,0.18495
1859.04379,0.18447
1860.97226,0.18594
1862.90072,0.19035
1864.82919,0.19800
1866.75766,0.20590
1868.68613,0.20757
1870.61460,0.20181
1872.54307,0.19524
1874.47154,0.18876
1876.40001,0.18372
1878.32847,0.18305
1880.25694,0.18497
1882.18541,0.18548
1884.11388,0.18462
1886.04235,0.18753
1887.97082,0.19474
1889.89929,0.19781
1891.82775,0.19447
1893.75622,0.19300
1895.68469,0.19415
1897.61316,0.19292
1899.54163,0.19180
1901.47010,0.19513
1903.39857,0.19879
1905.32704,0.19823
1907.25550,0.19814
1909.18397,0.19932
1911.11244,0.19544
1913.04091,0.18962
1914.96938,0.18969
1916.89785,0.19381
1918.82632,0.19312
1920.75478,0.19060
1922.68325,0.19285
1924.61172,0.19259
1926.54019,0.18697
1928.46866,0.18388
1930.39713,0.18537
1932.32560,0.18702
1934.25407,0.18645
1936.18253,0.18431
1938.11100,0.18393
1940.03947,0.18860
1941.96794,0.19415
1943.89641,0.19357
1945.82488,0.18989
1947.75335,0.18845
1949.68181,0.18813
1951.61028,0.18767
1953.53875,0.18792
1955.46722,0.18776
1957.39569,0.18584
1959.32416,0.18545
1961.25263,0.19034
1963.18110,0.19592
1965.10956,0.19626
1967.03803,0.19379
1968.96650,0.19329
1970.89497,0.19507
1972.82344,0.19460
1974.75191,0.19016
1976.68038,0.18793
1978.60884,0.18961
1980.53731,0.19062
1982.46578,0.18981
1984.39425,0.18934
1986.32272,0.19003
1988.25119,0.18994
1990.17966,0.18879
1992.10812,0.18903
1994.03659,0.19052
1995.96506,0.19077
1997.89353,0.18979
1999.82200,0.18938
2001.75047,0.18962
2003.67894,0.18904
2005.60741,0.18753
2007.53587,0.18761
2009.46434,0.18891
2011.39281,0.18894
2013.32128,0.19013
2015.24975,0.19383
2017.17822,0.19637
2019.10669,0.19592
2021.03515,0.19438
2022.96362,0.19214
2024.89209,0.18861
2026.82056,0.18610
2028.74903,0.18687
2030.67750,0.18992
2032.60597,0.19198
2034.53444,0.19137
2036.46290,0.19113
2038.39137,0.19261
2040.31984,0.19233
2042.24831,0.19025
2044.17678,0.18962
2046.10525,0.19009
2048.03372,0.18975
2049.96218,0.19040
2051.89065,0.19355
2053.81912,0.19490
2055.74759,0.19203
2057.67606,0.18923
2059.60453,0.18954
2061.53300,0.18962
2063.46147,0.18776
2065.38993,0.18760
2067.31840,0.18906
2069.24687,0.19032
2071.17534,0.19223
2073.10381,0.19336
2075.03228,0.19101
2076.96075,0.18637
2078.88921,0.18458
2080.81768,0.18832
2082.74615,0.19387
2084.67462,0.19624
2086.60309,0.19472
2088.53156,0.19250
2090.46003,0.19120
2092.38850,0.18940
2094.31696,0.18855
2096.24543,0.19038
2098.17390,0.19138
2100.10237,0.19033
2102.03084,0.19055
2103.95931,0.19229
2105.88778,0.19250
2107.81624,0.18946
2109.74471,0.18528
2111.67318,0.18418
2113.60165,0.18672
2115.53012,0.18950
2117.45859,0.19193
2119.38706,0.19396
2121.31553,0.19366
2123.24399,0.19162
2125.17246,0.18932
2127.10093,0.18860
2129.02940,0.19037
2130.95787,0.19349
2132.88634,0.19840
2134.81481,0.20289
2136.74327,0.20156
2138.67174,0.19528
2140.60021,0.19067
2142.52868,0.18973
2144.45715,0.19069
2146.38562,0.19210
2148.31409,0.19183
2150.24255,0.19119
2152.17102,0.19157
2154.09949,0.19091
2156.02796,0.18956
2157.95643,0.18834
2159.88490,0.18688
2161.81337,0.18789
2163.74184,0.19386
2165.67030,0.20004
2167.59877,0.20054
2169.52724,0.19733
2171.45571,0.19418
2173.38418,0.19138
2175.31265,0.18841
2177.24112,0.18616
2179.16958,0.18566
2181.09805,0.18617
2183.02652,0.18767
2184.95499,0.19103
2186.88346,0.19410
2188.81193,0.19281
2190.74040,0.18866
2192.66887,0.18721
2194.59733,0.18799
2196.52580,0.18806
2198.45427,0.18874
2200.38274,0.19179
2202.31121,0.19534
2204.23968,0.19557
2206.16815,0.19329
2208.09661,0.19247
2210.02508,0.19211
2211.95355,0.19021
2213.88202,0.18888
2215.81049,0.19013
2217.73896,0.19214
2219.66743,0.19301
2221.59590,0.19353
2223.52436,0.19311
2225.45283,0.19220
2227.38130,0.19286
2229.30977,0.19297
2231.23824,0.19012
2233.16671,0.18704
2235.09518,0.18738
2237.02364,0.19098
2238.95211,0.19437
2240.88058,0.19401
2242.80905,0.19151
2244.73752,0.19136
2246.66599,0.19342
2248.59446,0.19433
2250.52293,0.19237
2252.45139,0.18989
2254.37986,0.19038
2256.30833,0.19361
2258.23680,0.19502
2260.16527,0.19189
2262.09374,0.18931
2264.02221,0.19029
2265.95067,0.19091
2267.87914,0.18948
2269.80761,0.18746
2271.73608,0.18634
2273.66455,0.18809
2275.59302,0.19229
2277.52149,0.19541
2279.44996,0.19707
2281.37842,0.19808
2283.30689,0.19702
2285.23536,0.19528
2287.16383,0.19404
2289.09230,0.19205
2291.02077,0.18961
2292.94924,0.18821
2294.87770,0.18968
2296.80617,0.19246
2298.73464,0.19236
2300.66311,0.18977
2302.59158,0.18847
2304.52005,0.18958
2306.44852,0.19137
2308.37699,0.19333
2310.30545,0.19446
2312.23392,0.19360
2314.16239,0.19480
2316.09086,0.20091
2318.01933,0.20883
2319.94780,0.21393
2321.87627,0.21211
2323.80473,0.20318
2325.73320,0.19623
2327.66167,0.19973
2329.59014,0.20382
2331.51861,0.19583
2333.44708,0.18639
2335.37555,0.18962
2337.30401,0.19870
2339.23248,0.20297
2341.16095,0.20490
2343.08942,0.20378
2345.01789,0.19848
2346.94636,0.19643
2348.87483,0.19879
2350.80330,0.20225
2352.73176,0.20635
2354.66023,0.21892
2356.58870,0.23820
2358.51717,0.23766
2360.44564,0.21831
2362.37411,0.20652
2364.30258,0.20880
2366.23104,0.21928
2368.15951,0.22207
2370.08798,0.21265
2372.01645,0.19992
2373.94492,0.19000
2375.87339,0.18866
2377.80186,0.19251
2379.73033,0.19341
2381.65879,0.19079
2383.58726,0.18944
2385.51573,0.19222
2387.44420,0.19616
2389.37267,0.19760
2391.30114,0.19710
2393.22961,0.19519
2395.15807,0.19162
2397.08654,0.18957
2399.01501,0.19121
2400.94348,0.19386
2402.87195,0.19359
2404.80042,0.19024
2406.72889,0.18809
2408.65736,0.18822
2410.58582,0.18954
2412.51429,0.19158
2414.44276,0.19206
2416.37123,0.19146
2418.29970,0.19135
2420.22817,0.19072
2422.15664,0.18883
2424.08510,0.18661
2426.01357,0.18607
2427.94204,0.18829
2429.87051,0.19128
2431.79898,0.19344
2433.72745,0.19536
2435.65592,0.19550
2437.58439,0.19355
2439.51285,0.19062
2441.44132,0.18809
2443.36979,0.18958
2445.29826,0.19225
2447.22673,0.19149
2449.15520,0.19208
2451.08367,0.19529
2453.01213,0.19368
2454.94060,0.18844
2456.86907,0.18684
2458.79754,0.18719
2460.72601,0.18742
2462.65448,0.18977
2464.58295,0.19304
2466.51142,0.19493
2468.43988,0.19376
2470.36835,0.19004
2472.29682,0.18846
2474.22529,0.19079
2476.15376,0.19302
2478.08223,0.19169
2480.01070,0.18890
2481.93916,0.18858
2483.86763,0.19037
2485.79610,0.19210
2487.72457,0.19303
2489.65304,0.19157
2491.58151,0.18927
2493.50998,0.19086
2495.43844,0.19442
2497.36691,0.19548
2499.29538,0.19523
2501.22385,0.19530
2503.15232,0.19437
2505.08079,0.19323
2507.00926,0.19542
2508.93773,0.19960
2510.86619,0.19989
2512.79466,0.19605
2514.72313,0.19351
2516.65160,0.19406
2518.58007,0.19561
2520.50854,0.19691
2522.43701,0.19647
2524.36547,0.19318
2526.29394,0.18971
2528.22241,0.18945
2530.15088,0.19116
2532.07935,0.19196
2534.00782,0.19148
2535.93629,0.19246
2537.86476,0.19610
2539.79322,0.19803
2541.72169,0.19612
2543.65016,0.19310
2545.57863,0.19041
2547.50710,0.18842
2549.43557,0.18806
2551.36404,0.18955
2553.29250,0.19258
2555.22097,0.19590
2557.14944,0.19619
2559.07791,0.19204
2561.00638,0.18711
2562.93485,0.18567
2564.86332,0.18734
2566.79179,0.18829
2568.72025,0.18800
2570.64872,0.19027
2572.57719,0.19420
2574.50566,0.19445
2576.43413,0.19177
2578.36260,0.19023
2580.29107,0.19205
2582.21953,0.19622
2584.14800,0.19831
2586.07647,0.19763
2588.00494,0.19697
2589.93341,0.19741
2591.86188,0.19802
2593.79035,0.19725
2595.71882,0.19602
2597.64728,0.19601
2599.57575,0.19615
2601.50422,0.19613
2603.43269,0.19619
2605.36116,0.19503
2607.28963,0.19457
2609.21810,0.19535
2611.14656,0.19435
2613.07503,0.19272
2615.00350,0.19242
2616.93197,0.19253
2618.86044,0.19262
2620.78891,0.19397
2622.71738,0.19622
2624.64585,0.19681
2626.57431,0.19605
2628.50278,0.19602
2630.43125,0.19715
2632.35972,0.19846
2634.28819,0.19828
2636.21666,0.19792
2638.14513,0.19894
2640.07359,0.19835
2642.00206,0.19513
2643.93053,0.19259
2645.85900,0.19312
2647.78747,0.19519
2649.71594,0.19593
2651.64441,0.19654
2653.57288,0.19722
2655.50134,0.19655
2657.42981,0.19573
2659.35828,0.19349
2661.28675,0.19029
2663.21522,0.19182
2665.14369,0.19722
2667.07216,0.20136
2669.00062,0.20385
2670.92909,0.20433
2672.85756,0.20290
2674.78603,0.20111
2676.71450,0.19820
2678.64297,0.19528
2680.57144,0.19429
2682.49990,0.19423
2684.42837,0.19475
2686.35684,0.19634
2688.28531,0.19756
2690.21378,0.19743
2692.14225,0.19747
2694.07072,0.19767
2695.99919,0.19604
2697.92765,0.19386
2699.85612,0.19407
2701.78459,0.19721
2703.71306,0.20236
2705.64153,0.20582
2707.57000,0.20455
2709.49847,0.20059
2711.42693,0.19799
2713.35540,0.19838
2715.28387,0.20000
2717.21234,0.20172
2719.14081,0.20184
2721.06928,0.19976
2722.99775,0.20005
2724.92622,0.20163
2726.85468,0.19992
2728.78315,0.19813
2730.71162,0.19892
2732.64009,0.20081
2734.56856,0.20332
2736.49703,0.20514
2738.42550,0.20467
2740.35396,0.20357
2742.28243,0.20476
2744.21090,0.20755
2746.13937,0.20903
2748.06784,0.20856
2749.99631,0.20599
2751.92478,0.20302
2753.85325,0.20377
2755.78171,0.20443
2757.71018,0.20073
2759.63865,0.19848
2761.56712,0.20023
2763.49559,0.20373
2765.42406,0.20624
2767.35253,0.20551
2769.28099,0.20536
2771.20946,0.20720
2773.13793,0.20850
2775.06640,0.20978
2776.99487,0.20866
2778.92334,0.20514
2780.85181,0.20646
2782.78028,0.21038
2784.70874,0.20965
2786.63721,0.20825
2788.56568,0.21017
2790.49415,0.21132
2792.42262,0.20818
2794.35109,0.20314
2796.27956,0.20146
2798.20802,0.20524
2800.13649,0.21127
2802.06496,0.21429
2803.99343,0.21268
2805.92190,0.20903
2807.85037,0.20628
2809.77884,0.20615
2811.70731,0.20732
2813.63577,0.20674
2815.56424,0.20603
2817.49271,0.20777
2819.42118,0.20927
2821.34965,0.20858
2823.27812,0.20743
2825.20659,0.20808
2827.13505,0.21083
2829.06352,0.21251
2830.99199,0.21179
2832.92046,0.21121
2834.84893,0.21113
2836.77740,0.20972
2838.70587,0.20742
2840.63433,0.20604
2842.56280,0.20464
2844.49127,0.20162
2846.41974,0.20057
2848.34821,0.20546
2850.27668,0.21082
2852.20515,0.20899
2854.13362,0.20438
2856.06208,0.20550
2857.99055,0.20979
2859.91902,0.21053
2861.84749,0.20844
2863.77596,0.20544
2865.70443,0.20144
2867.63290,0.20065
2869.56136,0.20341
2871.48983,0.20462
2873.41830,0.20492
2875.34677,0.20530
2877.27524,0.20558
2879.20371,0.20820
2881.13218,0.21061
2883.06065,0.20967
2884.98911,0.20859
2886.91758,0.20891
2888.84605,0.20802
2890.77452,0.20697
2892.70299,0.20805
2894.63146,0.20732
2896.55993,0.20435
2898.48839,0.20526
2900.41686,0.20984
2902.34533,0.21161
2904.27380,0.20625
2906.20227,0.19853
2908.13074,0.19811
2910.05921,0.20315
2911.98768,0.20520
2913.91614,0.20175
2915.84461,0.19455
2917.77308,0.19149
2919.70155,0.19625
2921.63002,0.20122
2923.55849,0.20228
2925.48696,0.19953
2927.41542,0.19674
2929.34389,0.20030
2931.27236,0.20714
2933.20083,0.21002
2935.12930,0.20564
2937.05777,0.19863
2938.98624,0.19880
2940.91471,0.20324
2942.84317,0.20303
2944.77164,0.19790
2946.70011,0.19122
2948.62858,0.19085
2950.55705,0.19954
2952.48552,0.20792
2954.41399,0.20913
2956.34245,0.20022
2958.27092,0.18838
2960.19939,0.18893
2962.12786,0.19950
2964.05633,0.20929
2965.98480,0.21364
2967.91327,0.21004
2969.84174,0.20554
2971.77020,0.20765
2973.69867,0.21296
2975.62714,0.21225
2977.55561,0.20480
2979.48408,0.20397
2981.41255,0.21130
2983.34102,0.21397
2985.26948,0.20871
2987.19795,0.20143
2989.12642,0.20025
2991.05489,0.20811
2992.98336,0.21638
2994.91183,0.21810
2996.84030,0.21557
2998.76877,0.21153
3000.69723,0.20923
3002.62570,0.21195
3004.55417,0.21560
3006.48264,0.21454
3008.41111,0.20953
3010.33958,0.20033
3012.26805,0.18031
3014.19651,0.14695
3016.12498,0.11890
3018.05345,0.12800
3019.98192,0.16862
3021.91039,0.19900
3023.83886,0.20846
3025.76733,0.21231
3027.69579,0.21218
3029.62426,0.20869
3031.55273,0.20862
3033.48120,0.21267
3035.40967,0.21603
3037.33814,0.21571
3039.26661,0.21517
3041.19508,0.21880
3043.12354,0.22250
3045.05201,0.21876
3046.98048,0.21031
3048.90895,0.20715
3050.83742,0.21035
3052.76589,0.21332
3054.69436,0.20994
3056.62282,0.19979
3058.55129,0.19688
3060.47976,0.20753
3062.40823,0.21492
3064.33670,0.20855
3066.26517,0.20095
3068.19364,0.20603
3070.12211,0.21561
3072.05057,0.21672
3073.97904,0.20873
3075.90751,0.19836
3077.83598,0.19853
3079.76445,0.20788
3081.69292,0.20931
3083.62139,0.19700
3085.54985,0.18627
3087.47832,0.19563
3089.40679,0.21567
3091.33526,0.22308
3093.26373,0.21203
3095.19220,0.19791
3097.12067,0.19822
3099.04914,0.20836
3100.97760,0.21214
3102.90607,0.20390
3104.83454,0.19736
3106.76301,0.20230
3108.69148,0.20803
3110.61995,0.20531
3112.54842,0.19874
3114.47688,0.20106
3116.40535,0.21019
3118.33382,0.21122
3120.26229,0.20407
3122.19076,0.19935
3124.11923,0.20409
3126.04770,0.21347
3127.97617,0.21560
3129.90463,0.20983
3131.83310,0.20808
3133.76157,0.21479
3135.69004,0.21993
3137.61851,0.21649
3139.54698,0.20990
3141.47545,0.20750
3143.40391,0.21000
3145.33238,0.21496
3147.26085,0.21827
3149.18932,0.21850
3151.11779,0.22026
3153.04626,0.22634
3154.97473,0.23046
3156.90320,0.22546
3158.83166,0.21607
3160.76013,0.21237
3162.68860,0.21591
3164.61707,0.21936
3166.54554,0.21976
3168.47401,0.22002
3170.40248,0.22049
3172.33094,0.22125
3174.25941,0.21826
3176.18788,0.20882
3178.11635,0.20454
3180.04482,0.21062
3181.97329,0.21510
3183.90176,0.21498
3185.83022,0.21501
3187.75869,0.21651
3189.68716,0.22083
3191.61563,0.22479
3193.54410,0.22340
3195.47257,0.21720
3197.40104,0.21239
3199.32951,0.21114
3201.25797,0.21068
3203.18644,0.21364
3205.11491,0.21959
3207.04338,0.22141
3208.97185,0.21823
3210.90032,0.21576
3212.82879,0.21687
3214.75725,0.21903
3216.68572,0.21726
3218.61419,0.21115
3220.54266,0.20777
3222.47113,0.21024
3224.39960,0.21320
3226.32807,0.21465
3228.25654,0.21684
3230.18500,0.21592
3232.11347,0.21091
3234.04194,0.20938
3235.97041,0.21071
3237.89888,0.20901
3239.82735,0.20753
3241.75582,0.21040
3243.68428,0.21235
3245.61275,0.21000
3247.54122,0.21002
3249.46969,0.21314
3251.39816,0.21223
3253.32663,0.20845
3255.25510,0.20931
3257.18357,0.21615
3259.11203,0.22053
3261.04050,0.21607
3262.96897,0.20965
3264.89744,0.20940
3266.82591,0.21301
3268.75438,0.21533
3270.68285,0.21543
3272.61131,0.21496
3274.53978,0.21403
3276.46825,0.21195
3278.39672,0.21029
3280.32519,0.20895
3282.25366,0.20762
3284.18213,0.21007
3286.11060,0.21436
3288.03906,0.21346
3289.96753,0.21086
3291.89600,0.21238
3293.82447,0.21271
3295.75294,0.20967
3297.68141,0.20797
3299.60988,0.20892
3301.53834,0.21378
3303.46681,0.22228
3305.39528,0.22824
3307.32375,0.22629
3309.25222,0.21847
3311.18069,0.21236
3313.10916,0.20979
3315.03763,0.20871
3316.96609,0.20979
3318.89456,0.20908
3320.82303,0.20674
3322.75150,0.21112
3324.67997,0.22067
3326.60844,0.22573
3328.53691,0.22320
3330.46537,0.21768
3332.39384,0.21537
3334.32231,0.22104
3336.25078,0.22974
3338.17925,0.23106
3340.10772,0.22726
3342.03619,0.22494
3343.96466,0.22291
3345.89312,0.21841
3347.82159,0.21423
3349.75006,0.21394
3351.67853,0.21440
3353.60700,0.21325
3355.53547,0.21191
3357.46394,0.21057
3359.39240,0.21175
3361.32087,0.21820
3363.24934,0.22339
3365.17781,0.22053
3367.10628,0.21511
3369.03475,0.21417
3370.96322,0.21513
3372.89168,0.21372
3374.82015,0.21204
3376.74862,0.20971
3378.67709,0.20722
3380.60556,0.21054
3382.53403,0.21595
3384.46250,0.21631
3386.39097,0.21570
3388.31943,0.21774
3390.24790,0.21878
3392.17637,0.21774
3394.10484,0.21591
3396.03331,0.21391
3397.96178,0.21195
3399.89025,0.21062
3401.81871,0.21178
3403.74718,0.21298
3405.67565,0.21290
3407.60412,0.21384
3409.53259,0.21388
3411.46106,0.21152
3413.38953,0.20982
3415.31800,0.21057
3417.24646,0.21324
3419.17493,0.21770
3421.10340,0.22042
3423.03187,0.21760
3424.96034,0.21208
3426.88881,0.20983
3428.81728,0.21120
3430.74574,0.21119
3432.67421,0.20893
3434.60268,0.20703
3436.53115,0.20908
3438.45962,0.21318
3440.38809,0.21383
3442.31656,0.21320
3444.24503,0.21326
3446.17349,0.21202
3448.10196,0.20815
3450.03043,0.20092
3451.95890,0.19359
3453.88737,0.19252
3455.81584,0.19700
3457.74431,0.20129
3459.67277,0.20475
3461.60124,0.20597
3463.52971,0.20172
3465.45818,0.19280
3467.38665,0.18558
3469.31512,0.18844
3471.24359,0.20000
3473.17206,0.20851
3475.10052,0.20546
3477.02899,0.19559
3478.95746,0.19142
3480.88593,0.19318
3482.81440,0.18925
3484.74287,0.18201
3486.67134,0.18160
3488.59980,0.18794
3490.52827,0.19382
3492.45674,0.19219
3494.38521,0.18639
3496.31368,0.18401
3498.24215,0.18444
3500.17062,0.18666
3502.09909,0.19017
3504.02755,0.18871
3505.95602,0.18301
3507.88449,0.18172
3509.81296,0.18510
3511.74143,0.18763
3513.66990,0.18847
3515.59837,0.18786
3517.52683,0.18429
3519.45530,0.18113
3521.38377,0.18123
3523.31224,0.18075
3525.24071,0.17961
3527.16918,0.17866
3529.09765,0.17737
3531.02611,0.17748
3532.95458,0.17425
3534.88305,0.16521
3536.81152,0.15783
3538.73999,0.15847
3540.66846,0.16441
3542.59693,0.17164
3544.52540,0.17913
3546.45386,0.18444
3548.38233,0.18346
3550.31080,0.17713
3552.23927,0.17212
3554.16774,0.17121
3556.09621,0.17023
3558.02468,0.16553
3559.95314,0.15800
3561.88161,0.15747
3563.81008,0.16861
3565.73855,0.18087
3567.66702,0.17892
3569.59549,0.16701
3571.52396,0.15900
3573.45243,0.15381
3575.38089,0.15318
3577.30936,0.15991
3579.23783,0.16567
3581.16630,0.16681
3583.09477,0.16763
3585.02324,0.16978
3586.95171,0.17242
3588.88017,0.16959
3590.80864,0.16195
3592.73711,0.15786
3594.66558,0.16002
3596.59405,0.16374
3598.52252,0.16606
3600.45099,0.16702
3602.37946,0.16446
3604.30792,0.16111
3606.23639,0.15952
3608.16486,0.15640
3610.09333,0.15438
3612.02180,0.15772
3613.95027,0.16049
3615.87874,0.16145
3617.80720,0.16654
3619.73567,0.16794
3621.66414,0.15907
3623.59261,0.15322
3625.52108,0.15670
3627.44955,0.16819
3629.37802,0.17319
3631.30649,0.16328
3633.23495,0.15507
3635.16342,0.14839
3637.09189,0.14224
3639.02036,0.14076
3640.94883,0.14288
3642.87730,0.14471
3644.80577,0.14793
3646.73423,0.15675
3648.66270,0.16381
3650.59117,0.15274
3652.51964,0.14392
3654.44811,0.14520
3656.37658,0.14454
3658.30505,0.13845
3660.23352,0.13629
3662.16198,0.13858
3664.09045,0.13919
3666.01892,0.13891
3667.94739,0.14641
3669.87586,0.15939
3671.80433,0.16182
3673.73280,0.16286
3675.66126,0.16635
3677.58973,0.15507
3679.51820,0.13903
3681.44667,0.13073
3683.37514,0.13047
3685.30361,0.13521
3687.23208,0.14288
3689.16055,0.14952
3691.08901,0.14645
3693.01748,0.14014
3694.94595,0.13953
3696.87442,0.13963
3698.80289,0.13719
3700.73136,0.13678
3702.65983,0.13743
3704.58829,0.13850
3706.51676,0.14487
3708.44523,0.15391
3710.37370,0.15610
3712.30217,0.14652
3714.23064,0.13723
3716.15911,0.13518
3718.08757,0.13753
3720.01604,0.14406
3721.94451,0.15512
3723.87298,0.16106
3725.80145,0.15330
3727.72992,0.14051
3729.65839,0.13364
3731.58686,0.13347
3733.51532,0.13963
3735.44379,0.14671
3737.37226,0.14786
3739.30073,0.14636
3741.22920,0.14393
3743.15767,0.14381
3745.08614,0.15081
3747.01460,0.15847
3748.94307,0.16662
3750.87154,0.17290
3752.80001,0.16322
3754.72848,0.15084
3756.65695,0.14433
3758.58542,0.13886
3760.51389,0.13224
3762.44235,0.12870
3764.37082,0.12732
3766.29929,0.12782
3768.22776,0.13368
3770.15623,0.13762
3772.08470,0.13250
3774.01317,0.12882
3775.94163,0.13114
3777.87010,0.13257
3779.79857,0.12790
3781.72704,0.12353
3783.65551,0.12515
3785.58398,0.12995
3787.51245,0.13202
3789.44092,0.12808
3791.36938,0.12056
3793.29785,0.11678
3795.22632,0.11796
3797.15479,0.11965
3799.08326,0.12460
3801.01173,0.13298
3802.94020,0.13356
3804.86866,0.13180
3806.79713,0.13709
3808.72560,0.13898
3810.65407,0.13183
3812.58254,0.12679
3814.51101,0.12747
3816.43948,0.12711
3818.36795,0.12951
3820.29641,0.14031
3822.22488,0.14527
3824.15335,0.14526
3826.08182,0.14730
3828.01029,0.14112
3829.93876,0.13102
3831.86723,0.12815
3833.79569,0.12872
3835.72416,0.12908
3837.65263,0.13393
3839.58110,0.13750
3841.50957,0.13269
3843.43804,0.12841
3845.36651,0.12661
3847.29498,0.12296
3849.22344,0.12195
3851.15191,0.13307
3853.08038,0.15275
3855.00885,0.14495
3856.93732,0.12700
3858.86579,0.12098
3860.79426,0.12670
3862.72272,0.13837
3864.65119,0.14104
3866.57966,0.13490
3868.50813,0.13425
3870.43660,0.13970
3872.36507,0.14329
3874.29354,0.14220
3876.22200,0.13741
3878.15047,0.12874
3880.07894,0.11489
3882.00741,0.10785
3883.93588,0.11443
3885.86435,0.12092
3887.79282,0.12092
3889.72129,0.12512
3891.64975,0.13250
3893.57822,0.12985
3895.50669,0.12384
3897.43516,0.12324
3899.36363,0.12408
3901.29210,0.12336
3903.22057,0.12897
3905.14903,0.13498
3907.07750,0.12941
3909.00597,0.12094
3910.93444,0.11686
3912.86291,0.11596
3914.79138,0.11556
3916.71985,0.11665
3918.64832,0.12178
3920.57678,0.12690
3922.50525,0.12880
3924.43372,0.12674
3926.36219,0.11951
3928.29066,0.11326
3930.21913,0.11178
3932.14760,0.10918
3934.07606,0.10538
3936.00453,0.10718
3937.93300,0.11095
3939.86147,0.11125
3941.78994,0.11050
3943.71841,0.11084
3945.64688,0.11137
3947.57535,0.11276
3949.50381,0.11641
3951.43228,0.11850
3953.36075,0.11483
3955.28922,0.11145
3957.21769,0.11291
3959.14616,0.11599
3961.07463,0.12031
3963.00309,0.12327
3964.93156,0.11970
3966.86003,0.11479
3968.78850,0.11472
3970.71697,0.11331
3972.64544,0.10894
3974.57391,0.10964
3976.50238,0.11129
3978.43084,0.10633
3980.35931,0.09912
3982.28778,0.09567
3984.21625,0.09677
3986.14472,0.10169
3988.07319,0.11006
3990.00166,0.11604
3991.93012,0.11236
3993.85859,0.10403
3995.78706,0.10145
3997.71553,0.10426
3999.64400,0.10519
4001.57247,0.10298
4003.50094,0.10219
4005.42941,0.10316
4007.35787,0.10115
4009.28634,0.09662
4011.21481,0.09352
4013.14328,0.09190
4015.07175,0.09393
4017.00022,0.10235
4018.92869,0.10877
4020.85715,0.10372
4022.78562,0.09454
4024.71409,0.09326
4026.64256,0.09796
4028.57103,0.09954
4030.49950,0.09569
4032.42797,0.09293
4034.35644,0.09744
4036.28490,0.10315
4038.21337,0.10295
4040.14184,0.10199
4042.07031,0.10258
4043.99878,0.10009
4045.92725,0.09549
4047.85572,0.09220
4049.78418,0.09157
4051.71265,0.09359
4053.64112,0.09643
4055.56959,0.10020
4057.49806,0.10370
4059.42653,0.10321
4061.35500,0.09887
4063.28346,0.09442
4065.21193,0.09444
4067.14040,0.09855
4069.06887,0.10246
4070.99734,0.10379
4072.92581,0.10005
4074.85428,0.09397
4076.78275,0.09072
4078.71121,0.08813
4080.63968,0.08586
4082.56815,0.08800
4084.49662,0.09240
4086.42509,0.09412
4088.35356,0.09438
4090.28203,0.09472
4092.21049,0.09235
4094.13896,0.09026
4096.06743,0.09169
4097.99590,0.09077
4099.92437,0.08976
4101.85284,0.09441
4103.78131,0.09986
4105.70978,0.10492
4107.63824,0.10750
4109.56671,0.10272
4111.49518,0.09702
4113.42365,0.09392
4115.35212,0.08973
4117.28059,0.08583
4119.20906,0.08640
4121.13752,0.09261
4123.06599,0.09706
4124.99446,0.09370
4126.92293,0.08935
4128.85140,0.08875
4130.77987,0.08759
4132.70834,0.08508
4134.63681,0.08595
4136.56527,0.09227
4138.49374,0.09854
4140.42221,0.09737
4142.35068,0.09038
4144.27915,0.08525
4146.20762,0.08430
4148.13609,0.08605
4150.06455,0.08979
4151.99302,0.09474
4153.92149,0.10021
4155.84996,0.10114
4157.77843,0.09257
4159.70690,0.08179
4161.63537,0.07554
4163.56384,0.06857
4165.49230,0.06220
4167.42077,0.06718
4169.34924,0.07961
4171.27771,0.08656
4173.20618,0.08912
4175.13465,0.09092
4177.06312,0.09176
4178.99158,0.09251
4180.92005,0.08975
4182.84852,0.08338
4184.77699,0.07827
4186.70546,0.07494
4188.63393,0.06981
4190.56240,0.06374
4192.49087,0.06472
4194.41933,0.07103
4196.34780,0.07440
4198.27627,0.07550
4200.20474,0.07497
4202.13321,0.07265
4204.06168,0.07166
4205.99015,0.07412
4207.91861,0.07880
4209.84708,0.08014
4211.77555,0.07990
4213.70402,0.08329
4215.63249,0.08101
4217.56096,0.06866
4219.48943,0.06107
4221.41789,0.06393
4223.34636,0.06616
4225.27483,0.06332
4227.20330,0.06246
4229.13177,0.06733
4231.06024,0.07298
4232.98871,0.07396
4234.91718,0.07026
4236.84564,0.06590
4238.77411,0.06316
4240.70258,0.06326
4242.63105,0.06944
4244.55952,0.07756
4246.48799,0.07735
4248.41646,0.06653
4250.34492,0.05520
4252.27339,0.05351
4254.20186,0.05881
4256.13033,0.06005
4258.05880,0.05292
4259.98727,0.04516
4261.91574,0.04044
4263.84421,0.03722
4265.77267,0.04140
4267.70114,0.05305
4269.62961,0.06019
4271.55808,0.05957
4273.48655,0.05797
4275.41502,0.05412
4277.34349,0.04861
4279.27195,0.04987
4281.20042,0.05526
4283.12889,0.05898
4285.05736,0.06268
4286.98583,0.06414
4288.91430,0.06053
4290.84277,0.05862
4292.77124,0.06519
4294.69970,0.07083
4296.62817,0.06470
4298.55664,0.05802
4300.48511,0.06103
4302.41358,0.06386
4304.34205,0.06037
4306.27052,0.05609
4308.19898,0.05416
4310.12745,0.05391
4312.05592,0.05744
4313.98439,0.06358
4315.91286,0.06523
4317.84133,0.06305
4319.76980,0.06197
4321.69827,0.06128
4323.62673,0.05985
4325.55520,0.05670
4327.48367,0.05380
4329.41214,0.05437
4331.34061,0.05330
4333.26908,0.04871
4335.19755,0.04784
4337.12601,0.05029
4339.05448,0.05066
4340.98295,0.05033
4342.91142,0.05052
4344.83989,0.05009
4346.76836,0.05065
4348.69683,0.04900
4350.62530,0.04386
4352.55376,0.04585
4354.48223,0.05294
4356.41070,0.05244
4358.33917,0.04870
4360.26764,0.04854
4362.19611,0.05030
4364.12458,0.04903
4366.05304,0.04230
4367.98151,0.04044
4369.90998,0.04809
4371.83845,0.05409
4373.76692,0.04995
4375.69539,0.03958
4377.62386,0.03496
4379.55232,0.03736
4381.48079,0.03887
4383.40926,0.04251
4385.33773,0.04648
4387.26620,0.03975
4389.19467,0.03001
4391.12314,0.02736
4393.05161,0.03010
4394.98007,0.04001
4396.90854,0.04775
4398.83701,0.04280
4400.76548,0.03724
4402.69395,0.04174
4404.62242,0.04874
4406.55089,0.04933
4408.47935,0.04317
4410.40782,0.03288
4412.33629,0.02329
4414.26476,0.02065
4416.19323,0.02562
4418.12170,0.03287
4420.05017,0.03715
4421.97864,0.03907
4423.90710,0.04189
4425.83557,0.04172
4427.76404,0.03354
4429.69251,0.02207
4431.62098,0.01410
4433.54945,0.01323
4435.47792,0.02063
4437.40638,0.02805
4439.33485,0.02850
4441.26332,0.02706
4443.19179,0.02676
4445.12026,0.02376
4447.04873,0.01771
4448.97720,0.01577
4450.90567,0.01916
4452.83413,0.01848
4454.76260,0.01596
4456.69107,0.01943
4458.61954,0.02482
4460.54801,0.02598
4462.47648,0.01749
4464.40495,0.00542
4466.33341,0.00885
4468.26188,0.02451
4470.19035,0.03418
4472.11882,0.03852
4474.04729,0.04048
4475.97576,0.03232
4477.90423,0.01977
4479.83270,0.01563
4481.76116,0.01479
4483.68963,0.01154
4485.61810,0.01243
4487.54657,0.01734
4489.47504,0.01954
4491.40351,0.02142
4493.33198,0.02691
4495.26044,0.02873
4497.18891,0.02406
4499.11738,0.02157
4501.04585,0.02356
4502.97432,0.02244
4504.90279,0.01945
4506.83126,0.02557
4508.75973,0.03667
4510.68819,0.04004
4512.61666,0.03570
4514.54513,0.02809
4516.47360,0.02084
4518.40207,0.01773
4520.33054,0.01986
4522.25901,0.02576
4524.18747,0.03036
4526.11594,0.02788
4528.04441,0.01896
4529.97288,0.01429
4531.90135,0.01969
4533.82982,0.02448
4535.75829,0.02411
4537.68676,0.02253
4539.61522,0.01741
4541.54369,0.01266
4543.47216,0.01361
4545.40063,0.01132
4547.32910,0.00037
4549.25757,-0.00748
4551.18604,-0.00396
4553.11450,0.00245
4555.04297,0.00565
4556.97144,0.00870
4558.89991,0.01104
4560.82838,0.01211
4562.75685,0.01253
4564.68532,0.00997
4566.61378,0.00752
4568.54225,0.01220
4570.47072,0.02313
4572.39919,0.02961
4574.32766,0.02599
4576.25613,0.02104
4578.18460,0.02172
4580.11307,0.02237
4582.04153,0.01789
4583.97000,0.01545
4585.89847,0.02234
4587.82694,0.03469
4589.75541,0.04262
4591.68388,0.03766
4593.61235,0.02007
4595.54081,-0.00024
4597.46928,-0.01081
4599.39775,-0.01082
4601.32622,-0.00967
4603.25469,-0.00607
4605.18316,0.00553
4607.11163,0.01681
4609.04010,0.01515
4610.96856,0.00820
4612.89703,0.01432
4614.82550,0.02485
4616.75397,0.02343
4618.68244,0.01826
4620.61091,0.01757
4622.53938,0.02022
4624.46784,0.02303
4626.39631,0.01803
4628.32478,0.00837
4630.25325,0.00545
4632.18172,0.00593
4634.11019,0.00515
4636.03866,0.01281
4637.96713,0.02590
4639.89559,0.03128
4641.82406,0.03023
4643.75253,0.02474
4645.68100,0.01308
4647.60947,0.00344
4649.53794,0.00646
4651.46641,0.01783
4653.39487,0.02243
4655.32334,0.01909
4657.25181,0.01970
4659.18028,0.02331
4661.10875,0.02191
4663.03722,0.02001
4664.96569,0.02159
4666.89416,0.02064
4668.82262,0.01649
4670.75109,0.01586
4672.67956,0.01638
4674.60803,0.01089
4676.53650,0.00205
4678.46497,-0.00356
4680.39344,-0.00381
4682.32190,0.00031
4684.25037,0.00497
4686.17884,0.00688
4688.10731,0.01093
4690.03578,0.01582
4691.96425,0.01426
4693.89272,0.00982
4695.82119,0.00402
4697.74965,-0.00335
4699.67812,-0.00999
4701.60659,-0.01403
4703.53506,-0.01113
4705.46353,0.00183
4707.39200,0.01761
4709.32047,0.02095
4711.24893,0.01213
4713.17740,0.00139
4715.10587,-0.00613
4717.03434,-0.00661
4718.96281,-0.00220
4720.89128,0.00233
4722.81975,0.00386
4724.74821,0.00301
4726.67668,0.00262
4728.60515,0.00343
4730.53362,0.00842
4732.46209,0.01140
4734.39056,0.00565
4736.31903,-0.00094
4738.24750,-0.00049
4740.17596,0.00585
4742.10443,0.01374
4744.03290,0.01661
4745.96137,0.01235
4747.88984,0.00710
4749.81831,0.00244
4751.74678,-0.00074
4753.67524,0.00506
4755.60371,0.01255
4757.53218,0.01238
4759.46065,0.00996
4761.38912,0.00282
4763.31759,-0.00281
4765.24606,0.00198
4767.17453,0.00503
4769.10299,0.00518
4771.03146,0.01068
4772.95993,0.01530
4774.88840,0.01095
4776.81687,0.00007
4778.74534,-0.01159
4780.67381,-0.01393
4782.60227,0.00039
4784.53074,0.01660
4786.45921,0.02506
4788.38768,0.03371
4790.31615,0.04110
4792.24462,0.03998
4794.17309,0.03149
4796.10156,0.01860
4798.03002,0.00876
4799.95849,0.00310
4801.88696,-0.00153
4803.81543,0.00277
4805.74390,0.01332
4807.67237,0.01330
4809.60084,-0.00351
4811.52930,-0.02312
4813.45777,-0.02743
4815.38624,-0.01654
4817.31471,-0.00679
4819.24318,-0.00364
4821.17165,0.00960
4823.10012,0.03029
4825.02859,0.02723
4826.95705,0.00240
4828.88552,-0.00459
4830.81399,0.00991
4832.74246,0.01361
4834.67093,0.00388
4836.59940,-0.00176
4838.52787,0.00111
4840.45633,0.00735
4842.38480,0.00655
4844.31327,0.00109
4846.24174,-0.00169
4848.17021,-0.00667
4850.09868,-0.01009
4852.02715,-0.00040
4853.95562,0.01670
4855.88408,0.02460
4857.81255,0.01510
4859.74102,-0.00118
4861.66949,0.00032
4863.59796,0.02148
4865.52643,0.03400
4867.45490,0.02624
4869.38336,0.01990
4871.31183,0.02057
4873.24030,0.00840
4875.16877,-0.01031
4877.09724,-0.01766
4879.02571,-0.02165
4880.95418,-0.02368
4882.88265,-0.00971
4884.81111,0.00616
4886.73958,0.01389
4888.66805,0.02536
4890.59652,0.02642
4892.52499,0.00958
4894.45346,-0.00146
4896.38193,0.00101
4898.31039,0.00628
4900.23886,0.00882
4902.16733,0.01250
4904.09580,0.02112
4906.02427,0.02771
4907.95274,0.02196
4909.88121,0.00660
4911.80967,-0.00545
4913.73814,-0.00957
4915.66661,-0.01179
4917.59508,-0.00890
4919.52355,-0.00379
4921.45202,-0.00785
4923.38049,-0.01002
4925.30896,0.00170
4927.23742,0.01546
4929.16589,0.01913
4931.09436,0.02035
4933.02283,0.02457
4934.95130,0.02242
4936.87977,0.01299
4938.80824,0.00499
4940.73670,0.00645
4942.66517,0.01648
4944.59364,0.02271
4946.52211,0.01393
4948.45058,-0.00514
4950.37905,-0.01581
4952.30752,-0.01376
4954.23599,-0.00897
4956.16445,-0.00388
4958.09292,0.00116
4960.02139,0.00694
4961.94986,0.01296
4963.87833,0.01614
4965.80680,0.02524
4967.73527,0.03775
4969.66373,0.03333
4971.59220,0.02055
4973.52067,0.01905
4975.44914,0.01746
4977.37761,0.01314
4979.30608,0.01958
4981.23455,0.02445
4983.16302,0.01328
4985.09148,-0.00292
4987.01995,-0.00395
4988.94842,0.01454
4990.87689,0.02823
4992.80536,0.01730
4994.73383,-0.00128
4996.66230,-0.00520
4998.59076,-0.00226
5000.51923,-0.00227
5002.44770,0.00294
5004.37617,0.01559
5006.30464,0.02319
5008.23311,0.02209
5010.16158,0.02583
5012.09005,0.03054
5014.01851,0.02197
5015.94698,0.00330
5017.87545,-0.01656
5019.80392,-0.02116
5021.73239,0.00165
5023.66086,0.02620
5025.58933,0.02100
5027.51779,0.00700
5029.44626,0.01466
5031.37473,0.03118
5033.30320,0.03927
5035.23167,0.03723
5037.16014,0.02395
5039.08861,0.00933
5041.01708,0.01148
5042.94554,0.02460
5044.87401,0.03438
5046.80248,0.03736
5048.73095,0.02752
5050.65942,0.01043
5052.58789,0.00560
5054.51636,0.01830
5056.44482,0.03419
5058.37329,0.03844
5060.30176,0.02944
5062.23023,0.01166
5064.15870,-0.00331
5066.08717,-0.00248
5068.01564,0.00630
5069.94410,0.01921
5071.87257,0.04259
5073.80104,0.06448
5075.72951,0.07051
5077.65798,0.05227
5079.58645,0.02146
5081.51492,0.01090
5083.44339,0.02369
5085.37185,0.03535
5087.30032,0.03298
5089.22879,0.02541
5091.15726,0.02597
5093.08573,0.02974
5095.01420,0.02671
5096.94267,0.01940
5098.87113,0.00718
5100.79960,-0.00800
5102.72807,-0.01008
5104.65654,0.00187
5106.58501,0.01522
5108.51348,0.02686
5110.44195,0.03364
5112.37042,0.03052
5114.29888,0.02728
5116.22735,0.03210
5118.15582,0.03782
5120.08429,0.03811
5122.01276,0.03249
5123.94123,0.02591
5125.86970,0.01887
5127.79816,0.01525
5129.72663,0.02143
5131.65510,0.02061
5133.58357,0.00855
5135.51204,0.00451
5137.44051,0.00601
5139.36898,0.00348
5141.29745,0.00216
5143.22591,0.00907
5145.15438,0.02570
5147.08285,0.03994
5149.01132,0.04788
5150.93979,0.05490
5152.86826,0.04966
5154.79673,0.04021
5156.72519,0.03953
5158.65366,0.03666
5160.58213,0.03766
5162.51060,0.04362
5164.43907,0.03823
5166.36754,0.02275
5168.29601,0.01303
5170.22448,0.01445
5172.15294,0.01507
5174.08141,0.01858
5176.00988,0.03991
5177.93835,0.06093
5179.86682,0.05599
5181.79529,0.04006
5183.72376,0.03749
5185.65222,0.04589
5187.58069,0.05027
5189.50916,0.05101
5191.43763,0.05365
5193.36610,0.04571
5195.29457,0.03460
5197.22304,0.03401
5199.15151,0.03080
5201.07997,0.02396
5203.00844,0.02359
5204.93691,0.02928
5206.86538,0.03289
5208.79385,0.03385
5210.72232,0.03769
5212.65079,0.04312
5214.57925,0.04856
5216.50772,0.05048
5218.43619,0.03799
5220.36466,0.01434
5222.29313,0.00988
5224.22160,0.02495
5226.15007,0.03950
5228.07854,0.05467
5230.00700,0.05956
5231.93547,0.04895
5233.86394,0.04593
5235.79241,0.06160
5237.72088,0.07895
5239.64935,0.08036
5241.57782,0.07552
5243.50628,0.07392
5245.43475,0.06665
5247.36322,0.05884
5249.29169,0.05412
5251.22016,0.04625
5253.14863,0.05051
5255.07710,0.07330
5257.00556,0.09292
5258.93403,0.08967
5260.86250,0.06710
5262.79097,0.04312
5264.71944,0.02731
5266.64791,0.02461
5268.57638,0.03144
5270.50485,0.04345
5272.43331,0.06109
5274.36178,0.07142
5276.29025,0.06867
5278.21872,0.06542
5280.14719,0.06417
5282.07566,0.05719
5284.00413,0.04857
5285.93259,0.04738
5287.86106,0.05216
5289.78953,0.05880
5291.71800,0.05756
5293.64647,0.03790
5295.57494,0.01590
5297.50341,0.01254
5299.43188,0.03113
5301.36034,0.06427
5303.28881,0.08647
5305.21728,0.07887
5307.14575,0.05890
5309.07422,0.04587
5311.00269,0.04062
5312.93116,0.04102
5314.85962,0.05519
5316.78809,0.08236
5318.71656,0.08954
5320.64503,0.06563
5322.57350,0.03689
5324.50197,0.03023
5326.43044,0.05711
5328.35891,0.08484
5330.28737,0.08989
5332.21584,0.09228
5334.14431,0.09457
5336.07278,0.09515
5338.00125,0.09599
5339.92972,0.07887
5341.85819,0.05647
5343.78665,0.06186
5345.71512,0.08011
5347.64359,0.08193
5349.57206,0.07338
5351.50053,0.06339
5353.42900,0.06187
5355.35747,0.06188
5357.28594,0.05798
5359.21440,0.05897
5361.14287,0.06467
5363.07134,0.07923
5364.99981,0.09758
5366.92828,0.09218
5368.85675,0.06349
5370.78522,0.04356
5372.71368,0.04877
5374.64215,0.06855
5376.57062,0.07681
5378.49909,0.06875
5380.42756,0.06396
5382.35603,0.06174
5384.28450,0.06298
5386.21297,0.07306
5388.14143,0.07466
5390.06990,0.06339
5391.99837,0.04801
5393.92684,0.03472
5395.85531,0.04137
5397.78378,0.06231
5399.71225,0.07538
5401.64071,0.07254
5403.56918,0.05016
5405.49765,0.03821
5407.42612,0.07395
5409.35459,0.13213
5411.28306,0.15623
5413.21153,0.12313
5415.13999,0.07421
5417.06846,0.05400
5418.99693,0.04959
5420.92540,0.04048
5422.85387,0.03796
5424.78234,0.04920
5426.71081,0.05575
5428.63928,0.05018
5430.56774,0.04782
5432.49621,0.05709
5434.42468,0.07042
5436.35315,0.08575
5438.28162,0.09769
5440.21009,0.07425
5442.13856,0.02600
5444.06702,0.02468
5445.99549,0.06242
5447.92396,0.07460
5449.85243,0.07053
5451.78090,0.07183
5453.70937,0.07096
5455.63784,0.07705
5457.56631,0.09104
5459.49477,0.08774
5461.42324,0.04704
5463.35171,0.01086
5465.28018,0.02286
5467.20865,0.03585
5469.13712,0.02239
5471.06559,0.02873
5472.99405,0.07053
5474.92252,0.10813
5476.85099,0.10851
5478.77946,0.09338
5480.70793,0.07813
5482.63640,0.05995
5484.56487,0.04556
5486.49334,0.04101
5488.42180,0.04643
5490.35027,0.05431
5492.27874,0.06088
5494.20721,0.06333
5496.13568,0.06019
5498.06415,0.07145
5499.99262,0.09818
5501.92108,0.11365
5503.84955,0.12125
5505.77802,0.12287
5507.70649,0.10402
5509.63496,0.08597
5511.56343,0.08975
5513.49190,0.09077
5515.42037,0.07107
5517.34883,0.05248
5519.27730,0.04871
5521.20577,0.06310
5523.13424,0.08970
5525.06271,0.10219
5526.99118,0.09226
5528.91965,0.06678
5530.84811,0.04506
5532.77658,0.04703
5534.70505,0.06307
5536.63352,0.08078
5538.56199,0.09363
5540.49046,0.09098
5542.41893,0.07785
5544.34740,0.07856
5546.27586,0.09348
5548.20433,0.09309
5550.13280,0.06435
5552.06127,0.02906
5553.98974,0.01422
5555.91821,0.02809
5557.84668,0.06080
5559.77514,0.08346
5561.70361,0.08027
5563.63208,0.06131
5565.56055,0.04998
5567.48902,0.05790
5569.41749,0.06946
5571.34596,0.08278
5573.27443,0.09287
5575.20289,0.08408
5577.13136,0.07540
5579.05983,0.07730
5580.98830,0.06761
5582.91677,0.03822
5584.84524,0.02058
5586.77371,0.04216
5588.70217,0.08469
5590.63064,0.10604
5592.55911,0.10009
5594.48758,0.09515
5596.41605,0.09941
5598.34452,0.09498
5600.27299,0.07866
5602.20145,0.06145
5604.12992,0.04733
5606.05839,0.04733
5607.98686,0.05960
5609.91533,0.07392
5611.84380,0.10685
5613.77227,0.13249
5615.70074,0.10908
5617.62920,0.07543
5619.55767,0.05877
5621.48614,0.03790
5623.41461,0.02937
5625.34308,0.06177
5627.27155,0.10352
5629.20002,0.10684
5631.12848,0.08657
5633.05695,0.07625
5634.98542,0.07733
5636.91389,0.08034
5638.84236,0.08207
5640.77083,0.09120
5642.69930,0.12039
5644.62777,0.14419
5646.55623,0.12870
5648.48470,0.09891
5650.41317,0.07403
5652.34164,0.04675
5654.27011,0.04317
5656.19858,0.06064
5658.12705,0.05438
5660.05551,0.03309
5661.98398,0.04800
5663.91245,0.09518
5665.84092,0.12409
5667.76939,0.11719
5669.69786,0.08944
5671.62633,0.06458
5673.55480,0.06759
5675.48326,0.08950
5677.41173,0.09874
5679.34020,0.09479
5681.26867,0.08673
5683.19714,0.06342
5685.12561,0.03935
5687.05408,0.05488
5688.98254,0.09530
5690.91101,0.10214
5692.83948,0.07132
5694.76795,0.04051
5696.69642,0.02815
5698.62489,0.03900
5700.55336,0.07269
5702.48183,0.09783
5704.41029,0.09932
5706.33876,0.09938
5708.26723,0.10111
5710.19570,0.09877
5712.12417,0.08696
5714.05264,0.06359
5715.98111,0.05155
5717.90957,0.05979
5719.83804,0.06290
5721.76651,0.05744
5723.69498,0.07452
5725.62345,0.10686
5727.55192,0.12215
5729.48039,0.11738
5731.40886,0.09557
5733.33732,0.07029
5735.26579,0.06508
5737.19426,0.07436
5739.12273,0.08815
5741.05120,0.11064
5742.97967,0.13205
5744.90814,0.12467
5746.83660,0.08789
5748.76507,0.07046
5750.69354,0.08322
5752.62201,0.08690
5754.55048,0.07820
5756.47895,0.06937
5758.40742,0.06369
5760.33588,0.07008
5762.26435,0.08403
5764.19282,0.10127
5766.12129,0.12136
5768.04976,0.11665
5769.97823,0.08221
5771.90670,0.05285
5773.83517,0.05698
5775.76363,0.09305
5777.69210,0.12608
5779.62057,0.13611
5781.54904,0.14387
5783.47751,0.15194
5785.40598,0.14415
5787.33445,0.11392
5789.26291,0.06620
5791.19138,0.04243
5793.11985,0.06881
5795.04832,0.10433
5796.97679,0.11338
5798.90526,0.10973
5800.83373,0.11005
5802.76220,0.10821
5804.69066,0.10317
5806.61913,0.09684
5808.54760,0.10133
5810.47607,0.13179
5812.40454,0.15087
5814.33301,0.12749
5816.26148,0.10491
5818.18994,0.11423
5820.11841,0.12580
5822.04688,0.12496
5823.97535,0.11139
5825.90382,0.07673
5827.83229,0.04589
5829.76076,0.03823
5831.68923,0.04820
5833.61769,0.06846
5835.54616,0.08448
5837.47463,0.08295
5839.40310,0.06895
5841.33157,0.05511
5843.26004,0.04889
5845.18851,0.07107
5847.11697,0.11035
5849.04544,0.12283
5850.97391,0.11783
5852.90238,0.11557
5854.83085,0.08927
5856.75932,0.05319
5858.68779,0.05973
5860.61626,0.09122
5862.54472,0.10456
5864.47319,0.10316
5866.40166,0.08393
5868.33013,0.04271
5870.25860,0.01786
5872.18707,0.02577
5874.11554,0.04678
5876.04400,0.08886
5877.97247,0.13491
5879.90094,0.12975
5881.82941,0.08839
5883.75788,0.06665
5885.68635,0.06077
5887.61482,0.04128
5889.54329,0.02860
5891.47175,0.04070
5893.40022,0.06213
5895.32869,0.08576
5897.25716,0.09359
5899.18563,0.08738
5901.11410,0.10158
5903.04257,0.11445
5904.97103,0.08245
5906.89950,0.03836
5908.82797,0.03246
5910.75644,0.04535
5912.68491,0.03243
5914.61338,0.00735
5916.54185,0.00230
5918.47032,0.00937
5920.39878,0.02498
5922.32725,0.06876
5924.25572,0.11424
5926.18419,0.10778
5928.11266,0.07501
5930.04113,0.07006
5931.96960,0.08040
5933.89806,0.08669
5935.82653,0.08833
5937.75500,0.06793
5939.68347,0.04224
5941.61194,0.07652
5943.54041,0.14465
5945.46888,0.16488
5947.39734,0.16590
5949.32581,0.16804
5951.25428,0.13552
5953.18275,0.09846
5955.11122,0.10263
5957.03969,0.10587
5958.96816,0.06164
5960.89663,0.04125
5962.82509,0.07247
5964.75356,0.08663
5966.68203,0.07791
5968.61050,0.07268
5970.53897,0.07696
5972.46744,0.09549
5974.39591,0.11090
5976.32437,0.09702
5978.25284,0.07310
5980.18131,0.06012
5982.10978,0.05991
5984.03825,0.07465
5985.96672,0.07471
5987.89519,0.05203
5989.82366,0.05179
5991.75212,0.08672
5993.68059,0.11739
5995.60906,0.10590
5997.53753,0.06870
5999.46600,0.05295
6001.39447,0.06621
6003.32294,0.08665
6005.25140,0.10970
6007.17987,0.13027
6009.10834,0.12628
6011.03681,0.08466
6012.96528,0.04325
6014.89375,0.05287
6016.82222,0.07280
6018.75069,0.04802
6020.67915,0.02614
6022.60762,0.05571
6024.53609,0.09224
6026.46456,0.08566
6028.39303,0.07330
6030.32150,0.09084
6032.24997,0.09568
6034.17843,0.06289
6036.10690,0.01427
6038.03537,-0.01039
6039.96384,0.01116
6041.89231,0.05195
6043.82078,0.07150
6045.74925,0.07523
6047.67772,0.08789
6049.60618,0.07144
6051.53465,0.01928
6053.46312,0.03380
6055.39159,0.14189
6057.32006,0.22249
6059.24853,0.19350
6061.17700,0.11526
6063.10546,0.08747
6065.03393,0.11854
6066.96240,0.13236
6068.89087,0.10409
6070.81934,0.08233
6072.74781,0.06146
6074.67628,0.01512
6076.60475,-0.00247
6078.53321,0.03509
6080.46168,0.07620
6082.39015,0.08484
6084.31862,0.08595
6086.24709,0.09233
6088.17556,0.07805
6090.10403,0.04263
6092.03249,0.01745
6093.96096,0.03035
6095.88943,0.06145
6097.81790,0.07668
6099.74637,0.07126
6101.67484,0.04538
6103.60331,0.02293
6105.53177,0.04215
6107.46024,0.09034
6109.38871,0.12247
6111.31718,0.10693
6113.24565,0.06022
6115.17412,0.06234
6117.10259,0.11120
6119.03106,0.10493
6120.95952,0.06634
6122.88799,0.09216
6124.81646,0.15059
6126.74493,0.16135
6128.67340,0.10105
6130.60187,0.02680
6132.53034,0.01810
6134.45880,0.03340
6136.38727,-0.00055
6138.31574,-0.02208
6140.24421,0.00956
6142.17268,0.03243
6144.10115,0.06086
6146.02962,0.11681
6147.95809,0.13813
6149.88655,0.10756
6151.81502,0.05071
6153.74349,0.00911
6155.67196,0.02757
6157.60043,0.08346
6159.52890,0.12420
6161.45737,0.13554
6163.38583,0.13367
6165.31430,0.11763
6167.24277,0.07424
6169.17124,0.03103
6171.09971,0.03908
6173.02818,0.05569
6174.95665,0.02277
6176.88512,0.01474
6178.81358,0.05246
6180.74205,0.07062
6182.67052,0.07157
6184.59899,0.04951
6186.52746,0.01461
6188.45593,0.05206
6190.38440,0.13732
6192.31286,0.15198
6194.24133,0.09055
6196.16980,0.03561
6198.09827,0.05422
6200.02674,0.11868
6201.95521,0.15547
6203.88368,0.14889
6205.81215,0.11396
6207.74061,0.06439
6209.66908,0.04189
6211.59755,0.07804
6213.52602,0.12510
6215.45449,0.12585
6217.38296,0.09135
6219.31143,0.06573
6221.23989,0.04224
6223.16836,0.02705
6225.09683,0.03828
6227.02530,0.03793
6228.95377,0.04453
6230.88224,0.09067
6232.81071,0.12747
6234.73918,0.13725
6236.66764,0.14955
6238.59611,0.15088
6240.52458,0.12093
6242.45305,0.09501
6244.38152,0.10638
6246.30999,0.12335
6248.23846,0.10455
6250.16692,0.06777
6252.09539,0.08310
6254.02386,0.14370
6255.95233,0.15706
6257.88080,0.11550
6259.80927,0.09268
6261.73774,0.08471
6263.66621,0.04704
6265.59467,-0.00920
6267.52314,-0.02315
6269.45161,0.04324
6271.38008,0.13325
6273.30855,0.14429
6275.23702,0.08281
6277.16549,0.07656
6279.09395,0.12300
6281.02242,0.12004
6282.95089,0.04894
6284.87936,0.00551
6286.80783,0.05155
6288.73630,0.12441
6290.66477,0.15199
6292.59323,0.11198
6294.52170,0.07121
6296.45017,0.10517
6298.37864,0.15936
6300.30711,0.13993
6302.23558,0.04290
6304.16405,-0.03096
6306.09252,-0.01738
6308.02098,0.06337
6309.94945,0.15421
6311.87792,0.20372
6313.80639,0.21022
6315.73486,0.17262
6317.66333,0.08559
6319.59180,0.00970
6321.52026,0.02323
6323.44873,0.10767
6325.37720,0.16268
6327.30567,0.14109
6329.23414,0.08984
6331.16261,0.07189
6333.09108,0.05960
6335.01955,0.05751
6336.94801,0.10026
6338.87648,0.11848
6340.80495,0.10532
6342.73342,0.11753
6344.66189,0.12804
6346.59036,0.11749
6348.51883,0.08423
6350.44729,0.03669
6352.37576,0.01782
6354.30423,0.02080
6356.23270,0.06011
6358.16117,0.12995
6360.08964,0.13916
6362.01811,0.12241
6363.94658,0.16719
6365.87504,0.21052
6367.80351,0.21735
6369.73198,0.20745
6371.66045,0.15125
6373.58892,0.07790
6375.51739,0.04413
6377.44586,0.05192
6379.37432,0.07047
6381.30279,0.09099
6383.23126,0.12797
6385.15973,0.12358
6387.08820,0.05980
6389.01667,-0.00023
6390.94514,-0.02768
6392.87361,0.00135
6394.80207,0.07026
6396.73054,0.10011
6398.65901,0.06314
6400.58748,0.00976
6402.51595,0.02501
6404.44442,0.08760
6406.37289,0.11109
6408.30135,0.09475
6410.22982,0.09807
6412.15829,0.12393
6414.08676,0.13713
6416.01523,0.13622
6417.94370,0.11159
6419.87217,0.06812
6421.80064,0.06437
6423.72910,0.09191
6425.65757,0.07769
6427.58604,0.03010
6429.51451,0.01852
6431.44298,0.03860
6433.37145,0.05159
6435.29992,0.06372
6437.22838,0.07925
6439.15685,0.07665
6441.08532,0.05586
6443.01379,0.04315
6444.94226,0.05833
6446.87073,0.07677
6448.79920,0.06206
6450.72766,0.00843
6452.65613,-0.05704
6454.58460,-0.08118
6456.51307,-0.03708
6458.44154,0.02385
6460.37001,0.04336
6462.29848,0.05212
6464.22695,0.08638
6466.15541,0.10308
6468.08388,0.09510
6470.01235,0.09778
6471.94082,0.12779
6473.86929,0.19852
6475.79776,0.23585
6477.72623,0.21729
6479.65469,0.20067
6481.58316,0.14261
6483.51163,0.07845
6485.44010,0.08458
6487.36857,0.09954
6489.29704,0.04808
6491.22551,-0.04463
6493.15398,-0.07795
6495.08244,-0.01903
6497.01091,0.05212
6498.93938,0.08970
6500.86785,0.12169
6502.79632,0.15556
6504.72479,0.14671
6506.65326,0.07983
6508.58172,0.01867
6510.51019,0.04594
6512.43866,0.14049
6514.36713,0.19975
6516.29560,0.20337
6518.22407,0.17530
6520.15254,0.09640
6522.08101,0.00055
6524.00947,-0.04705
6525.93794,-0.06912
6527.86641,-0.08633
6529.79488,-0.04914
6531.72335,0.04394
6533.65182,0.11149
6535.58029,0.11489
6537.50875,0.08194
6539.43722,0.05535
6541.36569,0.08652
6543.29416,0.12828
6545.22263,0.10171
6547.15110,0.04712
6549.07957,0.03075
6551.00804,0.06462
6552.93650,0.07671
6554.86497,0.02488
6556.79344,-0.01269
6558.72191,0.00428
6560.65038,-0.02203
6562.57885,-0.09903
6564.50732,-0.10920
6566.43578,-0.06070
6568.36425,-0.04161
6570.29272,-0.07702
6572.22119,-0.11162
6574.14966,-0.07519
6576.07813,-0.01402
6578.00660,0.01620
6579.93507,0.04475
6581.86353,0.12871
6583.79200,0.24629
6585.72047,0.26845
6587.64894,0.16948
6589.57741,0.07887
6591.50588,0.09267
6593.43435,0.16734
6595.36281,0.19488
6597.29128,0.17880
6599.21975,0.18719
6601.14822,0.18884
6603.07669,0.10433
6605.00516,-0.00376
6606.93363,0.00456
6608.86210,0.13604
6610.79056,0.24918
6612.71903,0.24713
6614.64750,0.16935
6616.57597,0.10446
6618.50444,0.07494
6620.43291,0.05386
6622.36138,0.03994
6624.28984,0.05516
6626.21831,0.07849
6628.14678,0.07141
6630.07525,0.02770
6632.00372,-0.01921
6633.93219,-0.01657
6635.86066,0.01808
6637.78912,0.05533
6639.71759,0.12213
6641.64606,0.18111
6643.57453,0.19169
6645.50300,0.15286
6647.43147,0.07535
6649.35994,0.00772
6651.28841,-0.05152
6653.21687,-0.07844
6655.14534,0.00375
6657.07381,0.10966
6659.00228,0.06844
6660.93075,-0.03977
6662.85922,-0.04374
6664.78769,0.03256
6666.71615,0.05655
6668.64462,0.02839
6670.57309,0.03457
6672.50156,0.05035
6674.43003,0.03816
6676.35850,0.03338
6678.28697,0.06783
6680.21544,0.10206
6682.14390,0.05667
6684.07237,-0.03472
6686.00084,-0.08843
6687.92931,-0.06753
6689.85778,-0.00593
6691.78625,-0.03013
6693.71472,-0.09789
6695.64318,-0.08375
6697.57165,-0.01214
6699.50012,0.00524
6701.42859,-0.01638
6703.35706,-0.01522
6705.28553,0.01786
6707.21400,0.06870
6709.14247,0.05559
6711.07093,-0.00524
6712.99940,-0.01519
6714.92787,-0.00968
6716.85634,-0.02571
6718.78481,-0.01394
6720.71328,-0.00120
6722.64175,-0.01227
6724.57021,0.02533
6726.49868,0.07088
6728.42715,0.06461
6730.35562,0.05481
6732.28409,0.05500
6734.21256,0.05600
6736.14103,0.06822
6738.06950,0.07674
6739.99796,0.07946
6741.92643,0.06884
6743.85490,0.03708
6745.78337,0.01778
6747.71184,0.03461
6749.64031,0.09374
6751.56878,0.14230
6753.49724,0.05842
6755.42571,-0.10267
6757.35418,-0.17138
6759.28265,-0.13601
6761.21112,-0.04675
6763.13959,0.07401
6765.06806,0.20859
6766.99653,0.25573
6768.92499,0.17638
6770.85346,0.12191
6772.78193,0.15640
6774.71040,0.18221
6776.63887,0.16195
6778.56734,0.15181
6780.49581,0.16592
6782.42427,0.15329
6784.35274,0.08829
6786.28121,0.03771
6788.20968,0.04257
6790.13815,0.04286
6792.06662,0.02127
6793.99509,0.02754
6795.92355,0.06528
6797.85202,0.10572
6799.78049,0.10545
6801.70896,0.05073
6803.63743,0.01470
6805.56590,0.03881
6807.49437,0.06433
6809.42284,0.00412
6811.35130,-0.13337
6813.27977,-0.14747
6815.20824,-0.02953
6817.13671,0.02371
6819.06518,0.02534
6820.99365,0.05366
6822.92212,0.06309
6824.85058,0.02813
6826.77905,0.01637
6828.70752,0.02567
6830.63599,0.01654
6832.56446,0.02046
6834.49293,0.05915
6836.42140,0.10778
6838.34987,0.11095
6840.27833,0.05756
6842.20680,0.00824
6844.13527,0.01521
6846.06374,0.08686
6847.99221,0.16911
6849.92068,0.13782
6851.84915,0.02484
6853.77761,-0.05273
6855.70608,-0.09702
6857.63455,-0.10751
6859.56302,-0.06632
6861.49149,-0.03724
6863.41996,-0.07697
6865.34843,-0.10346
6867.27690,-0.05402
6869.20536,0.00647
6871.13383,0.02975
6873.06230,0.03168
6874.99077,0.05932
6876.91924,0.12643
6878.84771,0.19791
6880.77618,0.22730
6882.70464,0.25227
6884.63311,0.32753
6886.56158,0.35193
6888.49005,0.25308
6890.41852,0.14330
6892.34699,0.11042
6894.27546,0.10396
6896.20393,0.07656
6898.13239,0.07441
6900.06086,0.08351
6901.98933,0.05284
6903.91780,0.04008
6905.84627,0.02206
6907.77474,-0.05231
6909.70321,-0.06391
6911.63167,-0.02482
6913.56014,-0.05124
6915.48861,-0.10858
6917.41708,-0.14438
6919.34555,-0.15850
6921.27402,-0.12819
6923.20249,-0.07452
6925.13096,-0.07814
6927.05942,-0.12387
6928.98789,-0.05142
6930.91636,0.14932
6932.84483,0.20927
6934.77330,0.12459
6936.70177,0.10622
6938.63024,0.11854
6940.55870,0.06532
6942.48717,0.00218
6944.41564,-0.03531
6946.34411,-0.03228
6948.27258,0.01170
6950.20105,0.04375
6952.12952,0.06597
6954.05799,0.08190
6955.98645,0.08492
6957.91492,0.05572
6959.84339,0.01899
6961.77186,0.05981
6963.70033,0.08182
6965.62880,0.03908
6967.55727,0.06323
6969.48573,0.14144
6971.41420,0.21668
6973.34267,0.26659
6975.27114,0.15981
6977.19961,0.02470
6979.12808,0.07300
6981.05655,0.23967
6982.98501,0.30717
6984.91348,0.17147
6986.84195,-0.00328
6988.77042,-0.11588
6990.69889,-0.16279
6992.62736,-0.11006
6994.55583,-0.01973
6996.48430,-0.00434
6998.41276,0.00034
7000.34123,0.14813
7002.26970,0.29252
7004.19817,0.26702
7006.12664,0.10353
7008.05511,-0.07518
7009.98358,-0.10570
7011.91204,0.00307
7013.84051,0.15040
7015.76898,0.22926
7017.69745,0.15462
7019.62592,-0.03001
7021.55439,-0.12897
7023.48286,-0.08788
7025.41133,-0.05948
7027.33979,-0.04475
7029.26826,0.08821
7031.19673,0.19791
7033.12520,0.15152
7035.05367,0.08023
7036.98214,0.08541
7038.91061,0.05638
7040.83907,-0.01675
7042.76754,-0.01905
7044.69601,0.01338
7046.62448,0.01893
7048.55295,0.06193
7050.48142,0.10959
7052.40989,0.12953
7054.33836,0.16430
7056.26682,0.23790
7058.19529,0.32025
7060.12376,0.37608
7062.05223,0.39045
7063.98070,0.32171
7065.90917,0.24540
7067.83764,0.23130
7069.76610,0.20697
7071.69457,0.17170
7073.62304,0.16160
7075.55151,0.11567
7077.47998,0.03186
7079.40845,-0.02568
7081.33692,0.03970
7083.26539,0.14729
7085.19385,0.16181
7087.12232,0.14703
7089.05079,0.17514
7090.97926,0.22210
7092.90773,0.22749
7094.83620,0.19529
7096.76467,0.16477
7098.69313,0.14073
7100.62160,0.12016
7102.55007,0.09451
7104.47854,0.11902
7106.40701,0.19326
7108.33548,0.21156
7110.26395,0.15197
7112.19242,0.07004
7114.12088,0.06675
7116.04935,0.14861
7117.97782,0.24712
7119.90629,0.29616
7121.83476,0.25287
7123.76323,0.17928
7125.69170,0.16282
7127.62016,0.15013
7129.54863,0.08443
7131.47710,0.04461
7133.40557,0.04220
7135.33404,0.06893
7137.26251,0.13475
7139.19098,0.12428
7141.11944,0.03155
7143.04791,-0.00858
7144.97638,-0.01984
7146.90485,-0.00410
7148.83332,0.06730
7150.76179,0.04811
7152.69026,-0.10423
7154.61873,-0.12893
7156.54719,0.10079
7158.47566,0.29581
7160.40413,0.24885
7162.33260,0.07327
7164.26107,-0.03958
7166.18954,-0.02831
7168.11801,0.02453
7170.04647,0.02910
7171.97494,-0.04447
7173.90341,-0.19984
7175.83188,-0.32862
7177.76035,-0.34213
7179.68882,-0.28560
7181.61729,-0.17108
7183.54576,-0.05220
7185.47422,-0.03187
7187.40269,-0.04620
7189.33116,-0.03506
7191.25963,0.03351
7193.18810,0.15625
7195.11657,0.20462
7197.04504,0.19439
7198.97350,0.21374
7200.90197,0.28153
7202.83044,0.34838
7204.75891,0.30415
7206.68738,0.21885
7208.61585,0.15635
7210.54432,0.06699
7212.47279,0.03829
7214.40125,0.08740
7216.32972,0.04583
7218.25819,-0.16576
7220.18666,-0.33019
7222.11513,-0.35597
7224.04360,-0.25389
7225.97207,-0.14485
7227.90053,-0.12827
7229.82900,-0.03085
7231.75747,0.08977
7233.68594,0.02318
7235.61441,-0.00080
7237.54288,0.18035
7239.47135,0.33071
7241.39982,0.23780
7243.32828,0.10083
7245.25675,0.14521
7247.18522,0.21770
7249.11369,0.24624
7251.04216,0.28978
7252.97063,0.32748
7254.89910,0.19930
7256.82756,0.02135
7258.75603,-0.00034
7260.68450,0.14904
7262.61297,0.24131
7264.54144,0.16575
7266.46991,0.05769
7268.39838,0.06211
7270.32685,0.13970
7272.25531,0.17798
7274.18378,0.24346
7276.11225,0.29519
7278.04072,0.27376
7279.96919,0.28171
7281.89766,0.33730
7283.82613,0.30870
7285.75459,0.12910
7287.68306,-0.14141
7289.61153,-0.31149
7291.54000,-0.19454
7293.46847,0.07312
7295.39694,0.20927
7297.32541,0.11666
7299.25387,-0.08049
7301.18234,-0.18983
7303.11081,-0.22806
7305.03928,-0.29171
7306.96775,-0.27480
7308.89622,-0.17189
7310.82469,-0.08643
7312.75316,0.03825
7314.68162,0.16545
7316.61009,0.25147
7318.53856,0.27539
7320.46703,0.16703
7322.39550,-0.03856
7324.32397,-0.17571
7326.25244,-0.20231
7328.18090,-0.20267
7330.10937,-0.14692
7332.03784,-0.06089
7333.96631,-0.03447
7335.89478,-0.01327
7337.82325,0.02717
7339.75172,0.03014
7341.68019,-0.03214
7343.60865,0.01683
7345.53712,0.23254
7347.46559,0.27401
7349.39406,0.10811
7351.32253,0.13234
7353.25100,0.25566
7355.17947,0.26170
7357.10793,0.17984
7359.03640,0.16288
7360.96487,0.25311
7362.89334,0.29327
7364.82181,0.27107
7366.75028,0.21640
7368.67875,0.10831
7370.60722,-0.01866
7372.53568,-0.12863
7374.46415,-0.13493
7376.39262,0.07712
7378.32109,0.25667
7380.24956,0.31541
7382.17803,0.31106
7384.10650,0.24359
7386.03496,0.21182
7387.96343,0.28507
7389.89190,0.24973
7391.82037,0.05690
7393.74884,-0.10298
7395.67731,-0.11030
7397.60578,-0.00240
7399.53425,0.10498
7401.46271,0.20674
7403.39118,0.36724
7405.31965,0.44863
7407.24812,0.36091
7409.17659,0.22216
7411.10506,0.10085
7413.03353,0.02499
7414.96199,0.04274
7416.89046,0.16695
7418.81893,0.20538
7420.74740,0.07152
7422.67587,0.07835
7424.60434,0.21348
7426.53281,0.27928
7428.46128,0.22738
7430.38974,0.16103
7432.31821,0.15234
7434.24668,0.04880
7436.17515,-0.14440
7438.10362,-0.10350
7440.03209,0.16266
7441.96056,0.27019
7443.88902,0.14537
7445.81749,0.02638
7447.74596,0.07113
7449.67443,0.13972
7451.60290,0.05358
7453.53137,0.08403
7455.45984,0.28933
7457.38831,0.38900
7459.31677,0.27377
7461.24524,0.08041
7463.17371,-0.05658
7465.10218,-0.19116
7467.03065,-0.25855
7468.95912,-0.18874
7470.88759,-0.01960
7472.81605,0.11898
7474.74452,0.14092
7476.67299,0.13009
7478.60146,0.13211
7480.52993,0.04399
7482.45840,-0.13354
7484.38687,-0.12715
7486.31533,0.16080
7488.24380,0.41587
7490.17227,0.33938
7492.10074,0.15591
7494.02921,0.12428
7495.95768,0.17077
7497.88615,0.29171
