399.19301,1.29812
401.12148,0.40040
403.04995,0.06900
404.97842,-0.07369
406.90689,-0.12425
408.83536,-0.24140
410.76382,-0.39819
412.69229,-0.45291
414.62076,-0.36251
416.54923,-0.14529
418.47770,0.00265
420.40617,-0.01271
422.33464,0.06190
424.26311,0.14609
426.19157,0.09727
428.12004,-0.04850
430.04851,-0.12398
431.97698,0.00717
433.90545,0.11218
435.83392,0.08814
437.76239,0.07219
439.69085,0.09409
441.61932,0.10249
443.54779,0.12071
445.47626,0.17939
447.40473,0.21809
449.33320,0.13506
451.26167,-0.01965
453.19013,-0.03152
455.11860,0.08344
457.04707,0.09645
458.97554,0.01297
460.90401,-0.00827
462.83248,0.01594
464.76095,0.04174
466.68942,0.06603
468.61788,0.07704
470.54635,0.05139
472.47482,-0.00971
474.40329,-0.01685
476.33176,0.00458
478.26023,-0.01888
480.18870,0.00794
482.11716,0.06888
484.04563,0.06897
485.97410,0.07854
487.90257,0.11718
489.83104,0.11861
491.75951,0.12897
493.68798,0.15393
495.61645,0.14698
497.54491,0.13260
499.47338,0.13049
501.40185,0.11585
503.33032,0.11048
505.25879,0.13104
507.18726,0.12672
509.11573,0.09345
511.04419,0.05701
512.97266,0.02117
514.90113,0.00013
516.82960,0.00797
518.75807,0.05027
520.68654,0.08763
522.61501,0.11812
524.54348,0.15289
526.47194,0.16271
528.40041,0.17968
530.32888,0.20070
532.25735,0.18303
534.18582,0.15502
536.11429,0.12782
538.04276,0.09184
539.97122,0.07157
541.89969,0.08673
543.82816,0.12111
545.75663,0.13209
547.68510,0.11716
549.61357,0.10773
551.54204,0.18767
553.47051,0.31471
555.39897,0.29148
557.32744,0.15922
559.25591,0.09744
561.18438,0.10536
563.11285,0.12485
565.04132,0.12272
566.96979,0.09542
568.89825,0.06370
570.82672,0.05806
572.75519,0.09093
574.68366,0.13054
576.61213,0.14796
578.54060,0.14624
580.46907,0.14142
582.39754,0.14579
584.32600,0.14446
586.25447,0.12351
588.18294,0.10460
590.11141,0.10066
592.03988,0.11274
593.96835,0.12820
595.89682,0.12954
597.82528,0.13707
599.75375,0.15583
601.68222,0.15603
603.61069,0.12312
605.53916,0.10026
607.46763,0.12474
609.39610,0.14626
611.32456,0.12387
613.25303,0.09698
615.18150,0.09814
617.10997,0.10340
619.03844,0.09613
620.96691,0.09222
622.89538,0.09367
624.82385,0.09983
626.75231,0.12904
628.68078,0.16530
630.60925,0.16857
632.53772,0.15047
634.46619,0.13787
636.39466,0.13705
638.32313,0.15280
640.25159,0.16609
642.18006,0.15548
644.10853,0.12838
646.03700,0.10229
647.96547,0.09518
649.89394,0.10698
651.82241,0.12266
653.75088,0.12876
655.67934,0.12937
657.60781,0.14038
659.53628,0.14260
661.46475,0.13341
663.39322,0.14309
665.32169,0.16102
667.25016,0.16254
669.17862,0.13443
671.10709,0.11253
673.03556,0.12012
674.96403,0.13676
676.89250,0.13924
678.82097,0.13389
680.74944,0.12696
682.67791,0.11486
684.60637,0.10598
686.53484,0.10332
688.46331,0.10804
690.39178,0.12260
692.32025,0.13678
694.24872,0.13925
696.17719,0.12575
698.10565,0.11454
700.03412,0.11716
701.96259,0.11435
703.89106,0.10885
705.81953,0.11882
707.74800,0.12676
709.67647,0.11874
711.60494,0.11868
713.53340,0.13140
715.46187,0.14157
717.39034,0.15009
719.31881,0.15419
721.24728,0.14985
723.17575,0.14403
725.10422,0.14111
727.03268,0.13949
728.96115,0.13692
730.88962,0.13668
732.81809,0.13349
734.74656,0.11429
736.67503,0.10170
738.60350,0.11637
740.53197,0.13518
742.46043,0.14585
744.38890,0.14481
746.31737,0.12733
748.24584,0.11683
750.17431,0.12326
752.10278,0.12946
754.03125,0.13465
755.95971,0.14198
757.88818,0.14673
759.81665,0.15213
761.74512,0.15492
763.67359,0.15338
765.60206,0.14969
767.53053,0.14039
769.45900,0.12930
771.38746,0.12208
773.31593,0.12268
775.24440,0.13113
777.17287,0.13653
779.10134,0.13118
781.02981,0.12435
782.95828,0.12754
784.88674,0.14032
786.81521,0.15251
788.74368,0.14859
790.67215,0.13094
792.60062,0.12133
794.52909,0.13049
796.45756,0.14432
798.38602,0.14469
800.31449,0.14024
802.24296,0.15010
804.17143,0.16082
806.09990,0.14844
808.02837,0.12718
809.95684,0.12296
811.88531,0.13075
813.81377,0.13904
815.74224,0.14208
817.67071,0.13856
819.59918,0.13795
821.52765,0.13080
823.45612,0.11155
825.38459,0.11286
827.31305,0.13632
829.24152,0.14326
831.16999,0.13759
833.09846,0.14402
835.02693,0.15688
836.95540,0.16298
838.88387,0.16729
840.81234,0.17072
842.74080,0.16205
844.66927,0.15297
846.59774,0.15808
848.52621,0.16749
850.45468,0.17021
852.38315,0.15830
854.31162,0.14429
856.24008,0.14441
858.16855,0.14508
860.09702,0.14061
862.02549,0.14617
863.95396,0.15879
865.88243,0.15947
867.81090,0.15360
869.73937,0.15513
871.66783,0.15293
873.59630,0.14110
875.52477,0.13390
877.45324,0.13702
879.38171,0.14232
881.31018,0.14564
883.23865,0.14834
885.16711,0.14282
887.09558,0.12885
889.02405,0.12129
890.95252,0.13008
892.88099,0.15524
894.80946,0.17387
896.73793,0.16590
898.66640,0.14737
900.59486,0.13737
902.52333,0.13662
904.45180,0.13951
906.38027,0.14252
908.30874,0.14438
910.23721,0.14818
912.16568,0.15506
914.09414,0.15887
916.02261,0.15652
917.95108,0.14930
919.87955,0.14180
921.80802,0.14036
923.73649,0.14694
925.66496,0.15506
927.59343,0.15830
929.52189,0.16134
931.45036,0.16375
933.37883,0.15739
935.30730,0.14811
937.23577,0.14354
939.16424,0.14082
941.09271,0.14388
943.02117,0.15428
944.94964,0.15864
946.87811,0.14995
948.80658,0.13802
950.73505,0.13491
952.66352,0.13934
954.59199,0.14049
956.52045,0.13821
958.44892,0.13991
960.37739,0.14309
962.30586,0.14616
964.23433,0.15099
966.16280,0.15103
968.09127,0.14693
970.01974,0.14852
971.94820,0.15195
973.87667,0.14891
975.80514,0.14360
977.73361,0.14086
979.66208,0.14097
981.59055,0.14456
983.51902,0.15014
985.44748,0.15394
987.37595,0.15311
989.30442,0.15186
991.23289,0.15499
993.16136,0.15745
995.08983,0.15727
997.01830,0.15622
998.94677,0.15043
1000.87523,0.14337
1002.80370,0.14228
1004.73217,0.14268
1006.66064,0.14127
1008.58911,0.14166
1010.51758,0.14281
1012.44605,0.14306
1014.37451,0.14435
1016.30298,0.14687
1018.23145,0.15165
1020.15992,0.16122
1022.08839,0.16745
1024.01686,0.16066
1025.94533,0.14954
1027.87380,0.14497
1029.80226,0.14281
1031.73073,0.14070
1033.65920,0.14543
1035.58767,0.15473
1037.51614,0.15840
1039.44461,0.15212
1041.37308,0.14394
1043.30154,0.14271
1045.23001,0.14465
1047.15848,0.14600
1049.08695,0.15266
1051.01542,0.16620
1052.94389,0.17563
1054.87236,0.17443
1056.80083,0.16522
1058.72929,0.15815
1060.65776,0.16472
1062.58623,0.17841
1064.51470,0.18712
1066.44317,0.18315
1068.37164,0.17228
1070.30011,0.17219
1072.22857,0.17917
1074.15704,0.17892
1076.08551,0.17325
1078.01398,0.16772
1079.94245,0.16635
1081.87092,0.16727
1083.79939,0.16161
1085.72786,0.15847
1087.65632,0.16651
1089.58479,0.17109
1091.51326,0.16848
1093.44173,0.16583
1095.37020,0.16404
1097.29867,0.16644
1099.22714,0.17398
1101.15560,0.18166
1103.08407,0.18356
1105.01254,0.17563
1106.94101,0.16717
1108.86948,0.16961
1110.79795,0.17255
1112.72642,0.16579
1114.65489,0.15784
1116.58335,0.15479
1118.51182,0.15641
1120.44029,0.16219
1122.36876,0.16309
1124.29723,0.15539
1126.22570,0.15364
1128.15417,0.16288
1130.08263,0.16670
1132.01110,0.15981
1133.93957,0.15455
1135.86804,0.15400
1137.79651,0.15458
1139.72498,0.15895
1141.65345,0.16707
1143.58191,0.17650
1145.51038,0.18240
1147.43885,0.18039
1149.36732,0.17543
1151.29579,0.17136
1153.22426,0.16890
1155.15273,0.17048
1157.08120,0.17227
1159.00966,0.17175
1160.93813,0.17214
1162.86660,0.17036
1164.79507,0.16659
1166.72354,0.16655
1168.65201,0.16756
1170.58048,0.16799
1172.50894,0.16805
1174.43741,0.16323
1176.36588,0.15920
1178.29435,0.16392
1180.22282,0.16954
1182.15129,0.16965
1184.07976,0.16605
1186.00823,0.16064
1187.93669,0.16087
1189.86516,0.16752
1191.79363,0.17141
1193.72210,0.16957
1195.65057,0.16622
1197.57904,0.16492
1199.50751,0.16293
1201.43597,0.16053
1203.36444,0.16233
1205.29291,0.16580
1207.22138,0.16671
1209.14985,0.16609
1211.07832,0.16522
1213.00679,0.16342
1214.93526,0.16116
1216.86372,0.15986
1218.79219,0.16137
1220.72066,0.16322
1222.64913,0.16089
1224.57760,0.15830
1226.50607,0.15930
1228.43454,0.16227
1230.36300,0.16650
1232.29147,0.16833
1234.21994,0.16484
1236.14841,0.16202
1238.07688,0.16501
1240.00535,0.17107
1241.93382,0.17316
1243.86229,0.16761
1245.79075,0.16176
1247.71922,0.16297
1249.64769,0.16639
1251.57616,0.16394
1253.50463,0.15815
1255.43310,0.15625
1257.36157,0.15763
1259.29003,0.15816
1261.21850,0.15739
1263.14697,0.15917
1265.07544,0.16357
1267.00391,0.16605
1268.93238,0.16678
1270.86085,0.16820
1272.78932,0.17100
1274.71778,0.17235
1276.64625,0.17097
1278.57472,0.17103
1280.50319,0.17064
1282.43166,0.16684
1284.36013,0.16476
1286.28860,0.16359
1288.21706,0.16095
1290.14553,0.16194
1292.07400,0.16536
1294.00247,0.16731
1295.93094,0.16918
1297.85941,0.16805
1299.78788,0.15907
1301.71634,0.14448
1303.64481,0.13257
1305.57328,0.13523
1307.50175,0.15248
1309.43022,0.16584
1311.35869,0.16902
1313.28716,0.17263
1315.21563,0.17884
1317.14409,0.18154
1319.07256,0.17736
1321.00103,0.17188
1322.92950,0.17047
1324.85797,0.16817
1326.78644,0.16679
1328.71491,0.17070
1330.64337,0.16942
1332.57184,0.16253
1334.50031,0.16107
1336.42878,0.16381
1338.35725,0.16642
1340.28572,0.16560
1342.21419,0.16267
1344.14266,0.16162
1346.07112,0.16147
1347.99959,0.16361
1349.92806,0.16710
1351.85653,0.16691
1353.78500,0.16334
1355.71347,0.16157
1357.64194,0.16406
1359.57040,0.17060
1361.49887,0.17840
1363.42734,0.17745
1365.35581,0.17088
1367.28428,0.17168
1369.21275,0.17713
1371.14122,0.17935
1373.06969,0.17933
1374.99815,0.17990
1376.92662,0.18248
1378.85509,0.18456
1380.78356,0.18338
1382.71203,0.18430
1384.64050,0.18904
1386.56897,0.19071
1388.49743,0.18698
1390.42590,0.18488
1392.35437,0.18759
1394.28284,0.19114
1396.21131,0.19029
1398.13978,0.18453
1400.06825,0.17824
1401.99672,0.17725
1403.92518,0.17981
1405.85365,0.17963
1407.78212,0.17790
1409.71059,0.17818
1411.63906,0.17921
1413.56753,0.18376
1415.49600,0.19336
1417.42446,0.20190
1419.35293,0.20189
1421.28140,0.19690
1423.20987,0.19109
1425.13834,0.18450
1427.06681,0.18385
1428.99528,0.18784
1430.92375,0.18657
1432.85221,0.18286
1434.78068,0.18595
1436.70915,0.19187
1438.63762,0.19095
1440.56609,0.18949
1442.49456,0.19030
1444.42303,0.19133
1446.35149,0.19448
1448.27996,0.19869
1450.20843,0.19944
1452.13690,0.19823
1454.06537,0.20137
1455.99384,0.21566
1457.92231,0.22255
1459.85077,0.20621
1461.77924,0.19670
1463.70771,0.19527
1465.63618,0.19074
1467.56465,0.18623
1469.49312,0.19006
1471.42159,0.20144
1473.35006,0.20862
1475.27852,0.20302
1477.20699,0.19647
1479.13546,0.19147
1481.06393,0.18651
1482.99240,0.18480
1484.92087,0.18943
1486.84934,0.19978
1488.77780,0.20916
1490.70627,0.20738
1492.63474,0.20220
1494.56321,0.20436
1496.49168,0.21092
1498.42015,0.21072
1500.34862,0.20590
1502.27709,0.20561
1504.20555,0.21628
1506.13402,0.24323
1508.06249,0.24813
1509.99096,0.22420
1511.91943,0.20957
1513.84790,0.20955
1515.77637,0.21756
1517.70483,0.21681
1519.63330,0.21241
1521.56177,0.21789
1523.49024,0.21774
1525.41871,0.21078
1527.34718,0.20352
1529.27565,0.19715
1531.20412,0.19845
1533.13258,0.20677
1535.06105,0.21181
1536.98952,0.22023
1538.91799,0.24296
1540.84646,0.25572
1542.77493,0.23767
1544.70340,0.22116
1546.63186,0.21208
1548.56033,0.21085
1550.48880,0.20998
1552.41727,0.20733
1554.34574,0.21048
1556.27421,0.22077
1558.20268,0.23287
1560.13115,0.21517
1562.05961,0.19618
1563.98808,0.19367
1565.91655,0.19688
1567.84502,0.20220
1569.77349,0.20429
1571.70196,0.19603
1573.63043,0.19233
1575.55889,0.20007
1577.48736,0.20408
1579.41583,0.19624
1581.34430,0.18752
1583.27277,0.18334
1585.20124,0.18235
1587.12971,0.18169
1589.05818,0.18215
1590.98664,0.18307
1592.91511,0.18329
1594.84358,0.18336
1596.77205,0.18317
1598.70052,0.18369
1600.62899,0.18555
1602.55746,0.18688
1604.48592,0.18670
1606.41439,0.18593
1608.34286,0.18499
1610.27133,0.18337
1612.19980,0.18131
1614.12827,0.18233
1616.05674,0.19105
1617.98521,0.19851
1619.91367,0.19917
1621.84214,0.20318
1623.77061,0.20625
1625.69908,0.20369
1627.62755,0.20197
1629.55602,0.19864
1631.48449,0.19632
1633.41295,0.20393
1635.34142,0.21972
1637.26989,0.21877
1639.19836,0.20690
1641.12683,0.20101
1643.05530,0.20318
1644.98377,0.21506
1646.91223,0.22935
1648.84070,0.22713
1650.76917,0.22285
1652.69764,0.22913
1654.62611,0.22342
1656.55458,0.20595
1658.48305,0.19696
1660.41152,0.19879
1662.33998,0.20357
1664.26845,0.20167
1666.19692,0.20162
1668.12539,0.21190
1670.05386,0.22392
1671.98233,0.22330
1673.91080,0.22036
1675.83926,0.21709
1677.76773,0.21178
1679.69620,0.21272
1681.62467,0.22503
1683.55314,0.24353
1685.48161,0.23871
1687.41008,0.22114
1689.33855,0.21012
1691.26701,0.20344
1693.19548,0.20244
1695.12395,0.20943
1697.05242,0.22221
1698.98089,0.23007
1700.90936,0.22518
1702.83783,0.21734
1704.76629,0.21180
1706.69476,0.20325
1708.62323,0.19576
1710.55170,0.19441
1712.48017,0.19969
1714.40864,0.21188
1716.33711,0.22538
1718.26558,0.22030
1720.19404,0.20402
1722.12251,0.19431
1724.05098,0.18954
1725.97945,0.18920
1727.90792,0.19649
1729.83639,0.20716
1731.76486,0.21450
1733.69332,0.21720
1735.62179,0.21086
1737.55026,0.20450
1739.47873,0.20231
1741.40720,0.19932
1743.33567,0.19688
1745.26414,0.20084
1747.19261,0.21058
1749.12107,0.21888
1751.04954,0.21580
1752.97801,0.20282
1754.90648,0.19340
1756.83495,0.19235
1758.76342,0.19506
1760.69189,0.19823
1762.62035,0.19719
1764.54882,0.19155
1766.47729,0.19141
1768.40576,0.20004
1770.33423,0.21215
1772.26270,0.21779
1774.19117,0.21021
1776.11964,0.20158
1778.04810,0.19962
1779.97657,0.19998
1781.90504,0.19748
1783.83351,0.19522
1785.76198,0.19339
1787.69045,0.19194
1789.61892,0.19575
1791.54738,0.20232
1793.47585,0.20171
1795.40432,0.19665
1797.33279,0.19561
1799.26126,0.20058
1801.18973,0.20446
1803.11820,0.20018
1805.04666,0.19614
1806.97513,0.19651
1808.90360,0.19600
1810.83207,0.19366
1812.76054,0.19026
1814.68901,0.18848
1816.61748,0.19155
1818.54595,0.19451
1820.47441,0.19325
1822.40288,0.19231
1824.33135,0.19307
1826.25982,0.19199
1828.18829,0.19268
1830.11676,0.19625
1832.04523,0.19603
1833.97369,0.19361
1835.90216,0.19194
1837.83063,0.18905
1839.75910,0.18631
1841.68757,0.18944
1843.61604,0.19735
1845.54451,0.20063
1847.47298,0.19959
1849.40144,0.19738
1851.32991,0.19306
1853.25838,0.18964
1855.18685,0.18860
1857.11532,0.18870
1859.04379,0.18935
1860.97226,0.18840
1862.90072,0.18636
1864.82919,0.18873
1866.75766,0.19671
1868.68613,0.20184
1870.61460,0.19837
1872.54307,0.19386
1874.47154,0.19204
1876.40001,0.19078
1878.32847,0.18921
1880.25694,0.18849
1882.18541,0.18923
1884.11388,0.19038
1886.04235,0.19039
1887.97082,0.19177
1889.89929,0.19353
1891.82775,0.19152
1893.75622,0.19064
1895.68469,0.19209
1897.61316,0.19299
1899.54163,0.19466
1901.47010,0.19636
1903.39857,0.19703
1905.32704,0.19706
1907.25550,0.19556
1909.18397,0.19106
1911.11244,0.18616
1913.04091,0.18624
1914.96938,0.19011
1916.89785,0.19062
1918.82632,0.18611
1920.75478,0.18441
1922.68325,0.18639
1924.61172,0.18714
1926.54019,0.18780
1928.46866,0.18911
1930.39713,0.18902
1932.32560,0.18826
1934.25407,0.18845
1936.18253,0.18893
1938.11100,0.18892
1940.03947,0.19140
1941.96794,0.19658
1943.89641,0.19787
1945.82488,0.19406
1947.75335,0.19050
1949.68181,0.19010
1951.61028,0.19113
1953.53875,0.19092
1955.46722,0.18965
1957.39569,0.18866
1959.32416,0.18863
1961.25263,0.18901
1963.18110,0.19026
1965.10956,0.19247
1967.03803,0.19234
1968.96650,0.19015
1970.89497,0.18988
1972.82344,0.19064
1974.75191,0.18962
1976.68038,0.18833
1978.60884,0.18952
1980.53731,0.19174
1982.46578,0.19075
1984.39425,0.18793
1986.32272,0.18874
1988.25119,0.19192
1990.17966,0.19347
1992.10812,0.19287
1994.03659,0.19147
1995.96506,0.19168
1997.89353,0.19234
1999.82200,0.19163
2001.75047,0.19098
2003.67894,0.19058
2005.60741,0.18925
2007.53587,0.18783
2009.46434,0.18759
2011.39281,0.18858
2013.32128,0.19096
2015.24975,0.19144
2017.17822,0.18748
2019.10669,0.18412
2021.03515,0.18433
2022.96362,0.18633
2024.89209,0.18839
2026.82056,0.18872
2028.74903,0.18901
2030.67750,0.19098
2032.60597,0.19103
2034.53444,0.18967
2036.46290,0.19037
2038.39137,0.19070
2040.31984,0.19123
2042.24831,0.19488
2044.17678,0.19767
2046.10525,0.19553
2048.03372,0.19020
2049.96218,0.18651
2051.89065,0.18731
2053.81912,0.18987
2055.74759,0.19111
2057.67606,0.19140
2059.60453,0.19019
2061.53300,0.18866
2063.46147,0.18965
2065.38993,0.19057
2067.31840,0.18909
2069.24687,0.18843
2071.17534,0.19075
2073.10381,0.19387
2075.03228,0.19549
2076.96075,0.19643
2078.88921,0.19639
2080.81768,0.19315
2082.74615,0.18877
2084.67462,0.18771
2086.60309,0.19021
2088.53156,0.19159
2090.46003,0.18985
2092.38850,0.18922
2094.31696,0.19003
2096.24543,0.18930
2098.17390,0.18862
2100.10237,0.18934
2102.03084,0.19039
2103.95931,0.19190
2105.88778,0.19312
2107.81624,0.19201
2109.74471,0.19029
2111.67318,0.19002
2113.60165,0.19031
2115.53012,0.19250
2117.45859,0.19663
2119.38706,0.19770
2121.31553,0.19419
2123.24399,0.19025
2125.17246,0.18860
2127.10093,0.18940
2129.02940,0.19219
2130.95787,0.19411
2132.88634,0.19240
2134.81481,0.18880
2136.74327,0.18705
2138.67174,0.18907
2140.60021,0.19341
2142.52868,0.19584
2144.45715,0.19319
2146.38562,0.18808
2148.31409,0.18620
2150.24255,0.18738
2152.17102,0.18884
2154.09949,0.19110
2156.02796,0.19249
2157.95643,0.19214
2159.88490,0.19360
2161.81337,0.19661
2163.74184,0.19752
2165.67030,0.19550
2167.59877,0.19142
2169.52724,0.18773
2171.45571,0.18769
2173.38418,0.19025
2175.31265,0.19255
2177.24112,0.19468
2179.16958,0.19620
2181.09805,0.19413
2183.02652,0.18975
2184.95499,0.18888
2186.88346,0.18996
2188.81193,0.18979
2190.74040,0.19230
2192.66887,0.19573
2194.59733,0.19434
2196.52580,0.19032
2198.45427,0.18924
2200.38274,0.19235
2202.31121,0.19485
2204.23968,0.19349
2206.16815,0.19229
2208.09661,0.19354
2210.02508,0.19431
2211.95355,0.19405
2213.88202,0.19447
2215.81049,0.19466
2217.73896,0.19284
2219.66743,0.19011
2221.59590,0.18825
2223.52436,0.18688
2225.45283,0.18547
2227.38130,0.18551
2229.30977,0.18863
2231.23824,0.19233
2233.16671,0.19263
2235.09518,0.19043
2237.02364,0.18938
2238.95211,0.18986
2240.88058,0.19084
2242.80905,0.19239
2244.73752,0.19386
2246.66599,0.19483
2248.59446,0.19342
2250.52293,0.19054
2252.45139,0.19138
2254.37986,0.19281
2256.30833,0.18990
2258.23680,0.18797
2260.16527,0.18964
2262.09374,0.19059
2264.02221,0.19067
2265.95067,0.19168
2267.87914,0.19274
2269.80761,0.19426
2271.73608,0.19653
2273.66455,0.19627
2275.59302,0.19277
2277.52149,0.19205
2279.44996,0.19454
2281.37842,0.19477
2283.30689,0.19223
2285.23536,0.18810
2287.16383,0.18573
2289.09230,0.18810
2291.02077,0.19158
2292.94924,0.19364
2294.87770,0.19417
2296.80617,0.19202
2298.73464,0.18931
2300.66311,0.18872
2302.59158,0.19044
2304.52005,0.19309
2306.44852,0.19364
2308.37699,0.19466
2310.30545,0.19874
2312.23392,0.19916
2314.16239,0.19426
2316.09086,0.19237
2318.01933,0.19671
2319.94780,0.20033
2321.87627,0.20142
2323.80473,0.20475
2325.73320,0.20748
2327.66167,0.20905
2329.59014,0.21167
2331.51861,0.21310
2333.44708,0.21419
2335.37555,0.21175
2337.30401,0.19967
2339.23248,0.19157
2341.16095,0.20232
2343.08942,0.21380
2345.01789,0.20820
2346.94636,0.20125
2348.87483,0.20159
2350.80330,0.20370
2352.73176,0.20720
2354.66023,0.20914
2356.58870,0.19781
2358.51717,0.18737
2360.44564,0.20399
2362.37411,0.22843
2364.30258,0.23226
2366.23104,0.22047
2368.15951,0.20603
2370.08798,0.20134
2372.01645,0.20533
2373.94492,0.20342
2375.87339,0.19381
2377.80186,0.18753
2379.73033,0.18863
2381.65879,0.19020
2383.58726,0.18920
2385.51573,0.18846
2387.44420,0.18841
2389.37267,0.18793
2391.30114,0.18723
2393.22961,0.18697
2395.15807,0.18703
2397.08654,0.18732
2399.01501,0.18791
2400.94348,0.18876
2402.87195,0.19007
2404.80042,0.19181
2406.72889,0.19376
2408.65736,0.19509
2410.58582,0.19467
2412.51429,0.19258
2414.44276,0.19037
2416.37123,0.19008
2418.29970,0.19118
2420.22817,0.19130
2422.15664,0.19107
2424.08510,0.19198
2426.01357,0.19412
2427.94204,0.19704
2429.87051,0.19765
2431.79898,0.19467
2433.72745,0.19297
2435.65592,0.19580
2437.58439,0.19904
2439.51285,0.19793
2441.44132,0.19371
2443.36979,0.19005
2445.29826,0.18793
2447.22673,0.18724
2449.15520,0.18826
2451.08367,0.18821
2453.01213,0.18598
2454.94060,0.18530
2456.86907,0.18723
2458.79754,0.18997
2460.72601,0.19180
2462.65448,0.19290
2464.58295,0.19404
2466.51142,0.19388
2468.43988,0.19180
2470.36835,0.18861
2472.29682,0.18577
2474.22529,0.18557
2476.15376,0.18844
2478.08223,0.19060
2480.01070,0.19109
2481.93916,0.19243
2483.86763,0.19365
2485.79610,0.19323
2487.72457,0.19097
2489.65304,0.18917
2491.58151,0.19002
2493.50998,0.19207
2495.43844,0.19434
2497.36691,0.19571
2499.29538,0.19532
2501.22385,0.19452
2503.15232,0.19380
2505.08079,0.19374
2507.00926,0.19588
2508.93773,0.19843
2510.86619,0.19753
2512.79466,0.19304
2514.72313,0.18775
2516.65160,0.18536
2518.58007,0.18783
2520.50854,0.19149
2522.43701,0.19267
2524.36547,0.19310
2526.29394,0.19432
2528.22241,0.19319
2530.15088,0.18915
2532.07935,0.18792
2534.00782,0.19177
2535.93629,0.19717
2537.86476,0.20096
2539.79322,0.20094
2541.72169,0.19700
2543.65016,0.19304
2545.57863,0.19382
2547.50710,0.19709
2549.43557,0.19683
2551.36404,0.19558
2553.29250,0.19664
2555.22097,0.19503
2557.14944,0.18979
2559.07791,0.18782
2561.00638,0.19119
2562.93485,0.19592
2564.86332,0.19961
2566.79179,0.20103
2568.72025,0.19961
2570.64872,0.19619
2572.57719,0.19167
2574.50566,0.18871
2576.43413,0.18904
2578.36260,0.19131
2580.29107,0.19505
2582.21953,0.19830
2584.14800,0.19880
2586.07647,0.19856
2588.00494,0.19856
2589.93341,0.19671
2591.86188,0.19385
2593.79035,0.19306
2595.71882,0.19398
2597.64728,0.19424
2599.57575,0.19248
2601.50422,0.19055
2603.43269,0.19202
2605.36116,0.19518
2607.28963,0.19571
2609.21810,0.19425
2611.14656,0.19353
2613.07503,0.19502
2615.00350,0.19815
2616.93197,0.19933
2618.86044,0.19678
2620.78891,0.19399
2622.71738,0.19465
2624.64585,0.19735
2626.57431,0.19841
2628.50278,0.19712
2630.43125,0.19484
2632.35972,0.19365
2634.28819,0.19449
2636.21666,0.19493
2638.14513,0.19239
2640.07359,0.18961
2642.00206,0.19085
2643.93053,0.19425
2645.85900,0.19673
2647.78747,0.19835
2649.71594,0.19887
2651.64441,0.19865
2653.57288,0.19834
2655.50134,0.19682
2657.42981,0.19432
2659.35828,0.19332
2661.28675,0.19390
2663.21522,0.19554
2665.14369,0.19823
2667.07216,0.19969
2669.00062,0.19867
2670.92909,0.19666
2672.85756,0.19613
2674.78603,0.19739
2676.71450,0.19868
2678.64297,0.20074
2680.57144,0.20233
2682.49990,0.19922
2684.42837,0.19421
2686.35684,0.19449
2688.28531,0.19825
2690.21378,0.19744
2692.14225,0.19301
2694.07072,0.19258
2695.99919,0.19639
2697.92765,0.19875
2699.85612,0.19805
2701.78459,0.19704
2703.71306,0.19644
2705.64153,0.19531
2707.57000,0.19479
2709.49847,0.19596
2711.42693,0.19845
2713.35540,0.20013
2715.28387,0.19871
2717.21234,0.19775
2719.14081,0.20053
2721.06928,0.20281
2722.99775,0.20238
2724.92622,0.20205
2726.85468,0.20195
2728.78315,0.20085
2730.71162,0.20193
2732.64009,0.20617
2734.56856,0.20756
2736.49703,0.20400
2738.42550,0.20040
2740.35396,0.19989
2742.28243,0.20063
2744.21090,0.19973
2746.13937,0.19885
2748.06784,0.19982
2749.99631,0.19900
2751.92478,0.19803
2753.85325,0.20169
2755.78171,0.20486
2757.71018,0.20402
2759.63865,0.20440
2761.56712,0.20764
2763.49559,0.21050
2765.42406,0.21085
2767.35253,0.20763
2769.28099,0.20365
2771.20946,0.20367
2773.13793,0.20574
2775.06640,0.20670
2776.99487,0.20825
2778.92334,0.21081
2780.85181,0.21188
2782.78028,0.20975
2784.70874,0.20705
2786.63721,0.20654
2788.56568,0.20523
2790.49415,0.20277
2792.42262,0.20156
2794.35109,0.20145
2796.27956,0.20458
2798.20802,0.20902
2800.13649,0.20818
2802.06496,0.20411
2803.99343,0.20370
2805.92190,0.20653
2807.85037,0.20858
2809.77884,0.20940
2811.70731,0.20984
2813.63577,0.20991
2815.56424,0.20891
2817.49271,0.20865
2819.42118,0.21039
2821.34965,0.21051
2823.27812,0.20815
2825.20659,0.20538
2827.13505,0.20348
2829.06352,0.20543
2830.99199,0.21126
2832.92046,0.21511
2834.84893,0.21367
2836.77740,0.20923
2838.70587,0.20637
2840.63433,0.20798
2842.56280,0.21068
2844.49127,0.21169
2846.41974,0.21189
2848.34821,0.21021
2850.27668,0.20718
2852.20515,0.20577
2854.13362,0.20590
2856.06208,0.20714
2857.99055,0.20938
2859.91902,0.21088
2861.84749,0.21233
2863.77596,0.21232
2865.70443,0.20917
2867.63290,0.20765
2869.56136,0.20925
2871.48983,0.20991
2873.41830,0.20819
2875.34677,0.20561
2877.27524,0.20366
2879.20371,0.20459
2881.13218,0.20721
2883.06065,0.20522
2884.98911,0.19994
2886.91758,0.19956
2888.84605,0.20274
2890.77452,0.20277
2892.70299,0.20070
2894.63146,0.20020
2896.55993,0.20132
2898.48839,0.20454
2900.41686,0.20945
2902.34533,0.21091
2904.27380,0.20584
2906.20227,0.20030
2908.13074,0.20127
2910.05921,0.20566
2911.98768,0.20668
2913.91614,0.20386
2915.84461,0.19952
2917.77308,0.19785
2919.70155,0.20141
2921.63002,0.20401
2923.55849,0.19903
2925.48696,0.18981
2927.41542,0.18649
2929.34389,0.19163
2931.27236,0.19837
2933.20083,0.20222
2935.12930,0.20248
2937.05777,0.20083
2938.98624,0.20114
2940.91471,0.20397
2942.84317,0.20587
2944.77164,0.20308
2946.70011,0.19747
2948.62858,0.19821
2950.55705,0.20529
2952.48552,0.20928
2954.41399,0.20622
2956.34245,0.19611
2958.27092,0.19180
2960.19939,0.20424
2962.12786,0.21686
2964.05633,0.21460
2965.98480,0.20263
2967.91327,0.19286
2969.84174,0.19590
2971.77020,0.20584
2973.69867,0.21030
2975.62714,0.20660
2977.55561,0.19540
2979.48408,0.19011
2981.41255,0.20207
2983.34102,0.21644
2985.26948,0.21627
2987.19795,0.20506
2989.12642,0.19930
2991.05489,0.20349
2992.98336,0.20710
2994.91183,0.20797
2996.84030,0.20892
2998.76877,0.20965
3000.69723,0.20983
3002.62570,0.20828
3004.55417,0.20556
3006.48264,0.20278
3008.41111,0.20218
3010.33958,0.20018
3012.26805,0.18346
3014.19651,0.14871
3016.12498,0.11877
3018.05345,0.12798
3019.98192,0.16896
3021.91039,0.19902
3023.83886,0.20962
3025.76733,0.21358
3027.69579,0.21360
3029.62426,0.21582
3031.55273,0.22134
3033.48120,0.22167
3035.40967,0.21621
3037.33814,0.21167
3039.26661,0.21025
3041.19508,0.21000
3043.12354,0.20731
3045.05201,0.19977
3046.98048,0.19298
3048.90895,0.19735
3050.83742,0.21035
3052.76589,0.21617
3054.69436,0.20853
3056.62282,0.19576
3058.55129,0.19347
3060.47976,0.20571
3062.40823,0.21496
3064.33670,0.20900
3066.26517,0.19880
3068.19364,0.20040
3070.12211,0.21038
3072.05057,0.21636
3073.97904,0.21045
3075.90751,0.19749
3077.83598,0.19679
3079.76445,0.20894
3081.69292,0.21630
3083.62139,0.20718
3085.54985,0.19217
3087.47832,0.19359
3089.40679,0.20511
3091.33526,0.20933
3093.26373,0.20440
3095.19220,0.19952
3097.12067,0.20173
3099.04914,0.20374
3100.97760,0.20132
3102.90607,0.19783
3104.83454,0.19964
3106.76301,0.20889
3108.69148,0.21499
3110.61995,0.21099
3112.54842,0.20448
3114.47688,0.20573
3116.40535,0.21256
3118.33382,0.21612
3120.26229,0.21245
3122.19076,0.20794
3124.11923,0.21153
3126.04770,0.21805
3127.97617,0.21873
3129.90463,0.21313
3131.83310,0.20656
3133.76157,0.20480
3135.69004,0.20810
3137.61851,0.21226
3139.54698,0.21439
3141.47545,0.21655
3143.40391,0.21767
3145.33238,0.21463
3147.26085,0.21003
3149.18932,0.20913
3151.11779,0.21481
3153.04626,0.21883
3154.97473,0.21411
3156.90320,0.20967
3158.83166,0.21150
3160.76013,0.21504
3162.68860,0.21790
3164.61707,0.21953
3166.54554,0.22095
3168.47401,0.22424
3170.40248,0.22531
3172.33094,0.22082
3174.25941,0.21503
3176.18788,0.21428
3178.11635,0.21679
3180.04482,0.21532
3181.97329,0.21395
3183.90176,0.21858
3185.83022,0.22294
3187.75869,0.22184
3189.68716,0.21720
3191.61563,0.21176
3193.54410,0.20887
3195.47257,0.20969
3197.40104,0.21352
3199.32951,0.22092
3201.25797,0.22640
3203.18644,0.22488
3205.11491,0.22080
3207.04338,0.21847
3208.97185,0.21633
3210.90032,0.21378
3212.82879,0.21492
3214.75725,0.21938
3216.68572,0.22167
3218.61419,0.21917
3220.54266,0.21375
3222.47113,0.21045
3224.39960,0.20988
3226.32807,0.21030
3228.25654,0.21228
3230.18500,0.21340
3232.11347,0.21308
3234.04194,0.21498
3235.97041,0.21841
3237.89888,0.21890
3239.82735,0.21761
3241.75582,0.22062
3243.68428,0.22594
3245.61275,0.22517
3247.54122,0.22005
3249.46969,0.21886
3251.39816,0.22124
3253.32663,0.22098
3255.25510,0.21600
3257.18357,0.20963
3259.11203,0.20723
3261.04050,0.21031
3262.96897,0.21243
3264.89744,0.20906
3266.82591,0.20807
3268.75438,0.21309
3270.68285,0.21325
3272.61131,0.20694
3274.53978,0.20550
3276.46825,0.21067
3278.39672,0.21339
3280.32519,0.21217
3282.25366,0.21297
3284.18213,0.21402
3286.11060,0.21209
3288.03906,0.21061
3289.96753,0.20877
3291.89600,0.20426
3293.82447,0.20091
3295.75294,0.20034
3297.68141,0.20318
3299.60988,0.20805
3301.53834,0.20899
3303.46681,0.20863
3305.39528,0.21063
3307.32375,0.20880
3309.25222,0.20286
3311.18069,0.20154
3313.10916,0.20483
3315.03763,0.20680
3316.96609,0.20941
3318.89456,0.21445
3320.82303,0.21757
3322.75150,0.21684
3324.67997,0.21554
3326.60844,0.21715
3328.53691,0.21982
3330.46537,0.21828
3332.39384,0.21383
3334.32231,0.21331
3336.25078,0.21726
3338.17925,0.22161
3340.10772,0.22469
3342.03619,0.22460
3343.96466,0.22043
3345.89312,0.21671
3347.82159,0.21709
3349.75006,0.21946
3351.67853,0.22241
3353.60700,0.22544
3355.53547,0.22299
3357.46394,0.21598
3359.39240,0.21690
3361.32087,0.22456
3363.24934,0.22608
3365.17781,0.22293
3367.10628,0.22267
3369.03475,0.22261
3370.96322,0.21871
3372.89168,0.21527
3374.82015,0.21389
3376.74862,0.21262
3378.67709,0.21511
3380.60556,0.21978
3382.53403,0.22063
3384.46250,0.21823
3386.39097,0.21386
3388.31943,0.20898
3390.24790,0.21101
3392.17637,0.21949
3394.10484,0.22175
3396.03331,0.21768
3397.96178,0.21633
3399.89025,0.21592
3401.81871,0.21333
3403.74718,0.21312
3405.67565,0.21784
3407.60412,0.22122
3409.53259,0.21971
3411.46106,0.21621
3413.38953,0.21303
3415.31800,0.21359
3417.24646,0.21788
3419.17493,0.22159
3421.10340,0.22078
3423.03187,0.21406
3424.96034,0.20758
3426.88881,0.20666
3428.81728,0.20826
3430.74574,0.20701
3432.67421,0.20310
3434.60268,0.20053
3436.53115,0.19910
3438.45962,0.19577
3440.38809,0.19190
3442.31656,0.19148
3444.24503,0.19306
3446.17349,0.19367
3448.10196,0.19571
3450.03043,0.20086
3451.95890,0.20507
3453.88737,0.20515
3455.81584,0.20361
3457.74431,0.20074
3459.67277,0.19609
3461.60124,0.19307
3463.52971,0.19226
3465.45818,0.19471
3467.38665,0.20166
3469.31512,0.20687
3471.24359,0.20479
3473.17206,0.20000
3475.10052,0.19516
3477.02899,0.18983
3478.95746,0.19005
3480.88593,0.19419
3482.81440,0.19616
3484.74287,0.19669
3486.67134,0.19324
3488.59980,0.18513
3490.52827,0.17754
3492.45674,0.17315
3494.38521,0.17299
3496.31368,0.17748
3498.24215,0.18394
3500.17062,0.18949
3502.09909,0.19278
3504.02755,0.19149
3505.95602,0.18853
3507.88449,0.18744
3509.81296,0.18730
3511.74143,0.18828
3513.66990,0.18871
3515.59837,0.18822
3517.52683,0.18663
3519.45530,0.18173
3521.38377,0.17877
3523.31224,0.18018
3525.24071,0.17943
3527.16918,0.17903
3529.09765,0.18218
3531.02611,0.18263
3532.95458,0.17907
3534.88305,0.17469
3536.81152,0.17263
3538.73999,0.17308
3540.66846,0.17373
3542.59693,0.17589
3544.52540,0.17742
3546.45386,0.17377
3548.38233,0.16968
3550.31080,0.17015
3552.23927,0.17203
3554.16774,0.17065
3556.09621,0.16591
3558.02468,0.16150
3559.95314,0.16200
3561.88161,0.16861
3563.81008,0.17837
3565.73855,0.18482
3567.66702,0.18001
3569.59549,0.17161
3571.52396,0.16899
3573.45243,0.16836
3575.38089,0.16537
3577.30936,0.16227
3579.23783,0.16104
3581.16630,0.15874
3583.09477,0.15971
3585.02324,0.17025
3586.95171,0.17944
3588.88017,0.17172
3590.80864,0.16282
3592.73711,0.16352
3594.66558,0.16580
3596.59405,0.16323
3598.52252,0.15875
3600.45099,0.15481
3602.37946,0.15501
3604.30792,0.16052
3606.23639,0.16763
3608.16486,0.17204
3610.09333,0.17199
3612.02180,0.17210
3613.95027,0.17091
3615.87874,0.16508
3617.80720,0.16169
3619.73567,0.16210
3621.66414,0.15641
3623.59261,0.14969
3625.52108,0.15097
3627.44955,0.15941
3629.37802,0.16327
3631.30649,0.15626
3633.23495,0.15065
3635.16342,0.14688
3637.09189,0.14341
3639.02036,0.14415
3640.94883,0.14749
3642.87730,0.14926
3644.80577,0.15331
3646.73423,0.16418
3648.66270,0.17348
3650.59117,0.16236
3652.51964,0.14686
3654.44811,0.14253
3656.37658,0.14443
3658.30505,0.14021
3660.23352,0.13257
3662.16198,0.12962
3664.09045,0.13171
3666.01892,0.13772
3667.94739,0.14648
3669.87586,0.15012
3671.80433,0.14857
3673.73280,0.15623
3675.66126,0.16324
3677.58973,0.15431
3679.51820,0.14501
3681.44667,0.14115
3683.37514,0.14285
3685.30361,0.14657
3687.23208,0.15150
3689.16055,0.15971
3691.08901,0.15532
3693.01748,0.14151
3694.94595,0.13353
3696.87442,0.13032
3698.80289,0.13222
3700.73136,0.13782
3702.65983,0.13857
3704.58829,0.13528
3706.51676,0.13276
3708.44523,0.13309
3710.37370,0.14045
3712.30217,0.14652
3714.23064,0.14189
3716.15911,0.13572
3718.08757,0.13196
3720.01604,0.13083
3721.94451,0.13436
3723.87298,0.14418
3725.80145,0.15260
3727.72992,0.14945
3729.65839,0.14292
3731.58686,0.14532
3733.51532,0.15822
3735.44379,0.16935
3737.37226,0.16494
3739.30073,0.15439
3741.22920,0.14938
3743.15767,0.15057
3745.08614,0.15282
3747.01460,0.15695
3748.94307,0.16485
3750.87154,0.16280
3752.80001,0.14734
3754.72848,0.13964
3756.65695,0.13929
3758.58542,0.13824
3760.51389,0.13534
3762.44235,0.13907
3764.37082,0.14599
3766.29929,0.14448
3768.22776,0.14048
3770.15623,0.14188
3772.08470,0.14033
3774.01317,0.13478
3775.94163,0.13044
3777.87010,0.13140
3779.79857,0.13658
3781.72704,0.14108
3783.65551,0.14545
3785.58398,0.14712
3787.51245,0.14195
3789.44092,0.13488
3791.36938,0.13102
3793.29785,0.13130
3795.22632,0.13673
3797.15479,0.14321
3799.08326,0.14689
3801.01173,0.14819
3802.94020,0.13891
3804.86866,0.12776
3806.79713,0.12617
3808.72560,0.13016
3810.65407,0.13122
3812.58254,0.13136
3814.51101,0.13324
3816.43948,0.13536
3818.36795,0.13813
3820.29641,0.14430
3822.22488,0.14807
3824.15335,0.14527
3826.08182,0.14011
3828.01029,0.13362
3829.93876,0.12943
3831.86723,0.12914
3833.79569,0.12960
3835.72416,0.12859
3837.65263,0.12783
3839.58110,0.13297
3841.50957,0.13833
3843.43804,0.13285
3845.36651,0.12281
3847.29498,0.12027
3849.22344,0.12665
3851.15191,0.13900
3853.08038,0.14946
3855.00885,0.14263
3856.93732,0.12961
3858.86579,0.11962
3860.79426,0.11694
3862.72272,0.12282
3864.65119,0.12918
3866.57966,0.13142
3868.50813,0.13510
3870.43660,0.13701
3872.36507,0.13189
3874.29354,0.12834
3876.22200,0.12866
3878.15047,0.12972
3880.07894,0.13273
3882.00741,0.13825
3883.93588,0.14016
3885.86435,0.13401
3887.79282,0.12747
3889.72129,0.12679
3891.64975,0.12925
3893.57822,0.12906
3895.50669,0.12546
3897.43516,0.12342
3899.36363,0.12452
3901.29210,0.12926
3903.22057,0.13558
3905.14903,0.13272
3907.07750,0.12301
3909.00597,0.11702
3910.93444,0.11594
3912.86291,0.11559
3914.79138,0.11380
3916.71985,0.11477
3918.64832,0.11827
3920.57678,0.11820
3922.50525,0.11852
3924.43372,0.12339
3926.36219,0.12474
3928.29066,0.11689
3930.21913,0.11110
3932.14760,0.11519
3934.07606,0.11743
3936.00453,0.11660
3937.93300,0.11835
3939.86147,0.11991
3941.78994,0.11989
3943.71841,0.11462
3945.64688,0.10633
3947.57535,0.10298
3949.50381,0.10551
3951.43228,0.11040
3953.36075,0.11269
3955.28922,0.11451
3957.21769,0.11912
3959.14616,0.11882
3961.07463,0.11295
3963.00309,0.10995
3964.93156,0.10922
3966.86003,0.10939
3968.78850,0.11111
3970.71697,0.11059
3972.64544,0.10663
3974.57391,0.10360
3976.50238,0.10645
3978.43084,0.11020
3980.35931,0.10848
3982.28778,0.10686
3984.21625,0.10937
3986.14472,0.11068
3988.07319,0.10645
3990.00166,0.10121
3991.93012,0.10316
3993.85859,0.10940
3995.78706,0.10858
3997.71553,0.10253
3999.64400,0.10128
4001.57247,0.10321
4003.50094,0.10502
4005.42941,0.10767
4007.35787,0.10910
4009.28634,0.10791
4011.21481,0.10593
4013.14328,0.10425
4015.07175,0.10209
4017.00022,0.10366
4018.92869,0.11089
4020.85715,0.11320
4022.78562,0.10373
4024.71409,0.09196
4026.64256,0.09044
4028.57103,0.09630
4030.49950,0.09872
4032.42797,0.09857
4034.35644,0.10013
4036.28490,0.10045
4038.21337,0.09861
4040.14184,0.09664
4042.07031,0.09551
4043.99878,0.09494
4045.92725,0.09607
4047.85572,0.09877
4049.78418,0.09830
4051.71265,0.09750
4053.64112,0.09914
4055.56959,0.10069
4057.49806,0.10351
4059.42653,0.10284
4061.35500,0.09624
4063.28346,0.09330
4065.21193,0.09515
4067.14040,0.09552
4069.06887,0.09717
4070.99734,0.09920
4072.92581,0.09569
4074.85428,0.09182
4076.78275,0.09194
4078.71121,0.09300
4080.63968,0.09448
4082.56815,0.09798
4084.49662,0.10105
4086.42509,0.09971
4088.35356,0.09821
4090.28203,0.10077
4092.21049,0.10178
4094.13896,0.09934
4096.06743,0.09902
4097.99590,0.10078
4099.92437,0.10097
4101.85284,0.09863
4103.78131,0.09524
4105.70978,0.09279
4107.63824,0.09074
4109.56671,0.08890
4111.49518,0.08752
4113.42365,0.08674
4115.35212,0.08707
4117.28059,0.08851
4119.20906,0.08966
4121.13752,0.08897
4123.06599,0.08882
4124.99446,0.08838
4126.92293,0.08630
4128.85140,0.08815
4130.77987,0.09268
4132.70834,0.09136
4134.63681,0.08542
4136.56527,0.08274
4138.49374,0.08299
4140.42221,0.08390
4142.35068,0.08797
4144.27915,0.09161
4146.20762,0.08785
4148.13609,0.08045
4150.06455,0.07758
4151.99302,0.07784
4153.92149,0.07895
4155.84996,0.08338
4157.77843,0.08827
4159.70690,0.08919
4161.63537,0.08646
4163.56384,0.08536
4165.49230,0.08608
4167.42077,0.07779
4169.34924,0.06538
4171.27771,0.06568
4173.20618,0.07567
4175.13465,0.08438
4177.06312,0.08721
4178.99158,0.08535
4180.92005,0.08513
4182.84852,0.08498
4184.77699,0.08011
4186.70546,0.07754
4188.63393,0.08248
4190.56240,0.08681
4192.49087,0.08496
4194.41933,0.08005
4196.34780,0.07409
4198.27627,0.07084
4200.20474,0.07487
4202.13321,0.08130
4204.06168,0.08467
4205.99015,0.08556
4207.91861,0.08424
4209.84708,0.08278
4211.77555,0.08259
4213.70402,0.07999
4215.63249,0.07614
4217.56096,0.07491
4219.48943,0.07316
4221.41789,0.07152
4223.34636,0.07338
4225.27483,0.07319
4227.20330,0.06923
4229.13177,0.06941
4231.06024,0.07220
4232.98871,0.06842
4234.91718,0.06213
4236.84564,0.06221
4238.77411,0.06713
4240.70258,0.07078
4242.63105,0.07108
4244.55952,0.06972
4246.48799,0.06804
4248.41646,0.06758
4250.34492,0.06782
4252.27339,0.06872
4254.20186,0.07133
4256.13033,0.07096
4258.05880,0.06470
4259.98727,0.05931
4261.91574,0.06036
4263.84421,0.06156
4265.77267,0.06049
4267.70114,0.06324
4269.62961,0.06752
4271.55808,0.07167
4273.48655,0.07687
4275.41502,0.07361
4277.34349,0.06009
4279.27195,0.05241
4281.20042,0.05592
4283.12889,0.06027
4285.05736,0.06268
4286.98583,0.06349
4288.91430,0.06022
4290.84277,0.06078
4292.77124,0.06870
4294.69970,0.06954
4296.62817,0.05801
4298.55664,0.04648
4300.48511,0.04593
4302.41358,0.05584
4304.34205,0.06266
4306.27052,0.05709
4308.19898,0.04627
4310.12745,0.04147
4312.05592,0.04362
4313.98439,0.04436
4315.91286,0.04600
4317.84133,0.05762
4319.76980,0.07059
4321.69827,0.06986
4323.62673,0.05885
4325.55520,0.05278
4327.48367,0.05685
4329.41214,0.06192
4331.34061,0.05974
4333.26908,0.05369
4335.19755,0.04964
4337.12601,0.04836
4339.05448,0.04953
4340.98295,0.05017
4342.91142,0.04797
4344.83989,0.04417
4346.76836,0.04013
4348.69683,0.03812
4350.62530,0.04100
4352.55376,0.04889
4354.48223,0.05523
4356.41070,0.05459
4358.33917,0.05032
4360.26764,0.04605
4362.19611,0.04312
4364.12458,0.04258
4366.05304,0.04367
4367.98151,0.04428
4369.90998,0.04167
4371.83845,0.03896
4373.76692,0.04042
4375.69539,0.04253
4377.62386,0.04522
4379.55232,0.04953
4381.48079,0.04946
4383.40926,0.04174
4385.33773,0.03109
4387.26620,0.02843
4389.19467,0.03790
4391.12314,0.04910
4393.05161,0.05356
4394.98007,0.05118
4396.90854,0.04241
4398.83701,0.03387
4400.76548,0.03223
4402.69395,0.03365
4404.62242,0.03509
4406.55089,0.03792
4408.47935,0.04424
4410.40782,0.05017
4412.33629,0.04583
4414.26476,0.03397
4416.19323,0.03104
4418.12170,0.04115
4420.05017,0.04587
4421.97864,0.03717
4423.90710,0.02863
4425.83557,0.02658
4427.76404,0.02725
4429.69251,0.02917
4431.62098,0.03071
4433.54945,0.03034
4435.47792,0.02859
4437.40638,0.02935
4439.33485,0.03512
4441.26332,0.03329
4443.19179,0.02086
4445.12026,0.01914
4447.04873,0.03003
4448.97720,0.03688
4450.90567,0.04087
4452.83413,0.04570
4454.76260,0.04638
4456.69107,0.04701
4458.61954,0.04964
4460.54801,0.04722
4462.47648,0.04001
4464.40495,0.03233
4466.33341,0.02932
4468.26188,0.03586
4470.19035,0.04207
4472.11882,0.03623
4474.04729,0.02610
4475.97576,0.01999
4477.90423,0.01812
4479.83270,0.02129
4481.76116,0.02143
4483.68963,0.01231
4485.61810,0.00854
4487.54657,0.01795
4489.47504,0.02390
4491.40351,0.01883
4493.33198,0.01171
4495.26044,0.00973
4497.18891,0.01333
4499.11738,0.01674
4501.04585,0.01936
4502.97432,0.02229
4504.90279,0.02049
4506.83126,0.01369
4508.75973,0.00880
4510.68819,0.01007
4512.61666,0.01259
4514.54513,0.01269
4516.47360,0.01733
4518.40207,0.02834
4520.33054,0.03264
4522.25901,0.02611
4524.18747,0.02142
4526.11594,0.02107
4528.04441,0.02056
4529.97288,0.02385
4531.90135,0.02925
4533.82982,0.02914
4535.75829,0.02515
4537.68676,0.02318
4539.61522,0.02075
4541.54369,0.01118
4543.47216,-0.00056
4545.40063,0.00050
4547.32910,0.01521
4549.25757,0.02426
4551.18604,0.01863
4553.11450,0.01121
4555.04297,0.01055
4556.97144,0.01103
4558.89991,0.00846
4560.82838,0.00464
4562.75685,0.00472
4564.68532,0.00938
4566.61378,0.01383
4568.54225,0.01648
4570.47072,0.01532
4572.39919,0.01192
4574.32766,0.00863
4576.25613,0.00304
4578.18460,-0.00004
4580.11307,0.00132
4582.04153,0.00057
4583.97000,-0.00054
4585.89847,0.00559
4587.82694,0.01647
4589.75541,0.02068
4591.68388,0.01623
4593.61235,0.01083
4595.54081,0.01123
4597.46928,0.01601
4599.39775,0.01310
4601.32622,0.00460
4603.25469,0.00338
4605.18316,0.00650
4607.11163,0.01060
4609.04010,0.01790
4610.96856,0.02411
4612.89703,0.02303
4614.82550,0.01625
4616.75397,0.01134
4618.68244,0.00949
4620.61091,0.00960
4622.53938,0.01201
4624.46784,0.01169
4626.39631,0.00461
4628.32478,0.00085
4630.25325,0.00930
4632.18172,0.01632
4634.11019,0.01154
4636.03866,0.00402
4637.96713,0.00179
4639.89559,0.00767
4641.82406,0.01520
4643.75253,0.01524
4645.68100,0.01162
4647.60947,0.00740
4649.53794,0.00222
4651.46641,0.00552
4653.39487,0.01571
4655.32334,0.01475
4657.25181,0.00434
4659.18028,0.00035
4661.10875,0.00195
4663.03722,0.00929
4664.96569,0.02576
4666.89416,0.03683
4668.82262,0.03401
4670.75109,0.02395
4672.67956,0.01305
4674.60803,0.01079
4676.53650,0.01260
4678.46497,0.00709
4680.39344,0.00260
4682.32190,0.00666
4684.25037,0.01284
4686.17884,0.01245
4688.10731,0.00527
4690.03578,-0.00071
4691.96425,-0.00122
4693.89272,0.00252
4695.82119,0.00906
4697.74965,0.01939
4699.67812,0.02871
4701.60659,0.02903
4703.53506,0.02436
4705.46353,0.02172
4707.39200,0.01666
4709.32047,0.00504
4711.24893,-0.00040
4713.17740,0.00739
4715.10587,0.01270
4717.03434,0.00947
4718.96281,0.00488
4720.89128,-0.00120
4722.81975,-0.00281
4724.74821,0.00988
4726.67668,0.02812
4728.60515,0.03546
4730.53362,0.02965
4732.46209,0.02009
4734.39056,0.01378
4736.31903,0.00916
4738.24750,0.00616
4740.17596,0.00659
4742.10443,0.00530
4744.03290,0.00550
4745.96137,0.01634
4747.88984,0.02652
4749.81831,0.02274
4751.74678,0.01423
4753.67524,0.01051
4755.60371,0.00724
4757.53218,0.00067
4759.46065,0.00114
4761.38912,0.01544
4763.31759,0.02810
4765.24606,0.02968
4767.17453,0.02727
4769.10299,0.02284
4771.03146,0.01297
4772.95993,-0.00115
4774.88840,-0.01075
4776.81687,-0.01133
4778.74534,-0.00910
4780.67381,-0.01205
4782.60227,-0.01576
4784.53074,-0.00975
4786.45921,0.00160
4788.38768,0.00781
4790.31615,0.00473
4792.24462,0.00020
4794.17309,0.00559
4796.10156,0.01639
4798.03002,0.02292
4799.95849,0.02308
4801.88696,0.02067
4803.81543,0.02020
4805.74390,0.01818
4807.67237,0.01148
4809.60084,0.00595
4811.52930,0.00037
4813.45777,-0.01011
4815.38624,-0.01582
4817.31471,-0.00807
4819.24318,0.00195
4821.17165,-0.00037
4823.10012,-0.00495
4825.02859,0.00270
4826.95705,0.01128
4828.88552,0.01105
4830.81399,0.00495
4832.74246,-0.00458
4834.67093,-0.00892
4836.59940,-0.00220
4838.52787,0.00522
4840.45633,0.00355
4842.38480,0.00144
4844.31327,0.00556
4846.24174,0.00903
4848.17021,0.00770
4850.09868,0.00034
4852.02715,-0.00664
4853.95562,-0.00789
4855.88408,-0.00802
4857.81255,-0.00390
4859.74102,0.00338
4861.66949,0.00830
4863.59796,0.01206
4865.52643,0.01157
4867.45490,0.00726
4869.38336,0.00012
4871.31183,-0.01144
4873.24030,-0.01385
4875.16877,-0.00167
4877.09724,0.01032
4879.02571,0.01533
4880.95418,0.01119
4882.88265,0.00352
4884.81111,0.00286
4886.73958,0.00756
4888.66805,0.00964
4890.59652,0.00420
4892.52499,0.00160
4894.45346,0.00842
4896.38193,0.01459
4898.31039,0.01239
4900.23886,0.00230
4902.16733,-0.00420
4904.09580,-0.00185
4906.02427,-0.00217
4907.95274,-0.00305
4909.88121,0.00769
4911.80967,0.02256
4913.73814,0.02820
4915.66661,0.02087
4917.59508,0.00827
4919.52355,0.00539
4921.45202,0.01486
4923.38049,0.02562
4925.30896,0.02591
4927.23742,0.01581
4929.16589,0.00564
4931.09436,0.00173
4933.02283,0.00240
4934.95130,0.00272
4936.87977,0.00648
4938.80824,0.01449
4940.73670,0.01203
4942.66517,0.00308
4944.59364,0.00580
4946.52211,0.00959
4948.45058,0.00373
4950.37905,0.00197
4952.30752,0.01022
4954.23599,0.01400
4956.16445,0.00887
4958.09292,0.01679
4960.02139,0.03746
4961.94986,0.04335
4963.87833,0.03356
4965.80680,0.02699
4967.73527,0.02161
4969.66373,0.00191
4971.59220,-0.02119
4973.52067,-0.02899
4975.44914,-0.03235
4977.37761,-0.04171
4979.30608,-0.04105
4981.23455,-0.01881
4983.16302,0.00267
4985.09148,0.01084
4987.01995,0.01947
4988.94842,0.02836
4990.87689,0.02851
4992.80536,0.01885
4994.73383,0.01116
4996.66230,0.01497
4998.59076,0.01930
5000.51923,0.01388
5002.44770,0.00671
5004.37617,0.01272
5006.30464,0.02986
5008.23311,0.03457
5010.16158,0.01539
5012.09005,-0.00170
5014.01851,0.00011
5015.94698,0.00606
5017.87545,0.01083
5019.80392,0.01492
5021.73239,0.01584
5023.66086,0.01588
5025.58933,0.01386
5027.51779,0.00874
5029.44626,0.00815
5031.37473,0.01088
5033.30320,0.01159
5035.23167,0.01565
5037.16014,0.01677
5039.08861,0.01445
5041.01708,0.01794
5042.94554,0.01713
5044.87401,0.01280
5046.80248,0.01543
5048.73095,0.01575
5050.65942,0.01235
5052.58789,0.01460
5054.51636,0.01990
5056.44482,0.02515
5058.37329,0.02970
5060.30176,0.03355
5062.23023,0.03611
5064.15870,0.03370
5066.08717,0.02855
5068.01564,0.02388
5069.94410,0.01820
5071.87257,0.01438
5073.80104,0.02495
5075.72951,0.04735
5077.65798,0.05213
5079.58645,0.02987
5081.51492,0.00739
5083.44339,0.00598
5085.37185,0.02351
5087.30032,0.04424
5089.22879,0.04864
5091.15726,0.02798
5093.08573,-0.00155
5095.01420,-0.01440
5096.94267,-0.01192
5098.87113,-0.00833
5100.79960,0.00067
5102.72807,0.01538
5104.65654,0.02295
5106.58501,0.02195
5108.51348,0.02512
5110.44195,0.03233
5112.37042,0.02456
5114.29888,0.00445
5116.22735,-0.00436
5118.15582,-0.00003
5120.08429,0.00858
5122.01276,0.02249
5123.94123,0.04063
5125.86970,0.04510
5127.79816,0.02946
5129.72663,0.02375
5131.65510,0.03452
5133.58357,0.03885
5135.51204,0.03273
5137.44051,0.03117
5139.36898,0.04582
5141.29745,0.06103
5143.22591,0.06023
5145.15438,0.04975
5147.08285,0.04109
5149.01132,0.03701
5150.93979,0.03841
5152.86826,0.05073
5154.79673,0.06156
5156.72519,0.05575
5158.65366,0.04562
5160.58213,0.04052
5162.51060,0.03175
5164.43907,0.02413
5166.36754,0.02327
5168.29601,0.02006
5170.22448,0.02308
5172.15294,0.04303
5174.08141,0.06008
5176.00988,0.05509
5177.93835,0.04329
5179.86682,0.05111
5181.79529,0.06990
5183.72376,0.06824
5185.65222,0.05029
5187.58069,0.04452
5189.50916,0.04874
5191.43763,0.05027
5193.36610,0.04916
5195.29457,0.04797
5197.22304,0.03534
5199.15151,0.01163
5201.07997,0.00984
5203.00844,0.02837
5204.93691,0.03391
5206.86538,0.02793
5208.79385,0.03235
5210.72232,0.03956
5212.65079,0.03562
5214.57925,0.02411
5216.50772,0.02564
5218.43619,0.04244
5220.36466,0.04774
5222.29313,0.04001
5224.22160,0.03316
5226.15007,0.03210
5228.07854,0.03837
5230.00700,0.04001
5231.93547,0.03355
5233.86394,0.03444
5235.79241,0.04356
5237.72088,0.04537
5239.64935,0.03837
5241.57782,0.03244
5243.50628,0.03642
5245.43475,0.04979
5247.36322,0.05823
5249.29169,0.04965
5251.22016,0.03124
5253.14863,0.02554
5255.07710,0.04428
5257.00556,0.07583
5258.93403,0.09157
5260.86250,0.07153
5262.79097,0.03628
5264.71944,0.03327
5266.64791,0.05848
5268.57638,0.06173
5270.50485,0.03919
5272.43331,0.02925
5274.36178,0.03993
5276.29025,0.04674
5278.21872,0.04346
5280.14719,0.03850
5282.07566,0.02377
5284.00413,0.00600
5285.93259,0.00688
5287.86106,0.02381
5289.78953,0.03780
5291.71800,0.03176
5293.64647,0.01824
5295.57494,0.02333
5297.50341,0.04550
5299.43188,0.06428
5301.36034,0.06590
5303.28881,0.05288
5305.21728,0.04190
5307.14575,0.04568
5309.07422,0.05285
5311.00269,0.05245
5312.93116,0.05912
5314.85962,0.06928
5316.78809,0.06343
5318.71656,0.05317
5320.64503,0.05001
5322.57350,0.05547
5324.50197,0.06917
5326.43044,0.07017
5328.35891,0.05409
5330.28737,0.04857
5332.21584,0.06484
5334.14431,0.07726
5336.07278,0.07375
5338.00125,0.07726
5339.92972,0.07278
5341.85819,0.04786
5343.78665,0.04180
5345.71512,0.05467
5347.64359,0.05319
5349.57206,0.05059
5351.50053,0.04904
5353.42900,0.03761
5355.35747,0.02972
5357.28594,0.04640
5359.21440,0.08194
5361.14287,0.09684
5363.07134,0.08176
5364.99981,0.07126
5366.92828,0.07342
5368.85675,0.07537
5370.78522,0.07609
5372.71368,0.06950
5374.64215,0.04671
5376.57062,0.02499
5378.49909,0.03414
5380.42756,0.07506
5382.35603,0.11832
5384.28450,0.12889
5386.21297,0.10891
5388.14143,0.09009
5390.06990,0.08154
5391.99837,0.07919
5393.92684,0.07734
5395.85531,0.06551
5397.78378,0.04866
5399.71225,0.03886
5401.64071,0.03399
5403.56918,0.02966
5405.49765,0.04032
5407.42612,0.06986
5409.35459,0.08663
5411.28306,0.07838
5413.21153,0.06694
5415.13999,0.06303
5417.06846,0.05257
5418.99693,0.03325
5420.92540,0.02427
5422.85387,0.02218
5424.78234,0.02330
5426.71081,0.05150
5428.63928,0.09227
5430.56774,0.10429
5432.49621,0.09867
5434.42468,0.08682
5436.35315,0.06978
5438.28162,0.07100
5440.21009,0.09588
5442.13856,0.11753
5444.06702,0.11846
5445.99549,0.11556
5447.92396,0.11198
5449.85243,0.09529
5451.78090,0.07614
5453.70937,0.06810
5455.63784,0.07238
5457.56631,0.07708
5459.49477,0.07114
5461.42324,0.05355
5463.35171,0.03479
5465.28018,0.03834
5467.20865,0.06795
5469.13712,0.09832
5471.06559,0.09937
5472.99405,0.07848
5474.92252,0.05770
5476.85099,0.03812
5478.77946,0.01908
5480.70793,0.01946
5482.63640,0.05702
5484.56487,0.11600
5486.49334,0.15352
5488.42180,0.14244
5490.35027,0.10822
5492.27874,0.08608
5494.20721,0.07896
5496.13568,0.08224
5498.06415,0.08525
5499.99262,0.07549
5501.92108,0.05760
5503.84955,0.05468
5505.77802,0.07541
5507.70649,0.09276
5509.63496,0.08949
5511.56343,0.07911
5513.49190,0.06333
5515.42037,0.04417
5517.34883,0.04184
5519.27730,0.05423
5521.20577,0.06017
5523.13424,0.06545
5525.06271,0.09015
5526.99118,0.12068
5528.91965,0.13187
5530.84811,0.12396
5532.77658,0.10454
5534.70505,0.08732
5536.63352,0.08580
5538.56199,0.09272
5540.49046,0.09075
5542.41893,0.08693
5544.34740,0.09801
5546.27586,0.09693
5548.20433,0.06743
5550.13280,0.03982
5552.06127,0.04102
5553.98974,0.06882
5555.91821,0.08990
5557.84668,0.08759
5559.77514,0.07131
5561.70361,0.05541
5563.63208,0.06413
5565.56055,0.08854
5567.48902,0.08404
5569.41749,0.06254
5571.34596,0.06970
5573.27443,0.08312
5575.20289,0.06310
5577.13136,0.03746
5579.05983,0.04302
5580.98830,0.06232
5582.91677,0.06174
5584.84524,0.05486
5586.77371,0.06030
5588.70217,0.07238
5590.63064,0.08032
5592.55911,0.07031
5594.48758,0.05958
5596.41605,0.07616
5598.34452,0.09613
5600.27299,0.09453
5602.20145,0.09662
5604.12992,0.12375
5606.05839,0.15135
5607.98686,0.14779
5609.91533,0.11944
5611.84380,0.09420
5613.77227,0.09848
5615.70074,0.11462
5617.62920,0.10320
5619.55767,0.08091
5621.48614,0.06423
5623.41461,0.04751
5625.34308,0.05962
5627.27155,0.09578
5629.20002,0.11254
5631.12848,0.10600
5633.05695,0.07777
5634.98542,0.05763
5636.91389,0.07841
5638.84236,0.08381
5640.77083,0.05113
5642.69930,0.03315
5644.62777,0.05028
5646.55623,0.08110
5648.48470,0.08668
5650.41317,0.06726
5652.34164,0.05007
5654.27011,0.04012
5656.19858,0.04593
5658.12705,0.05976
5660.05551,0.05662
5661.98398,0.04245
5663.91245,0.03653
5665.84092,0.04743
5667.76939,0.07586
5669.69786,0.09449
5671.62633,0.07225
5673.55480,0.03087
5675.48326,0.01995
5677.41173,0.05124
5679.34020,0.08126
5681.26867,0.07034
5683.19714,0.03401
5685.12561,0.01520
5687.05408,0.02478
5688.98254,0.03846
5690.91101,0.04214
5692.83948,0.05109
5694.76795,0.06857
5696.69642,0.07246
5698.62489,0.06964
5700.55336,0.08181
5702.48183,0.07496
5704.41029,0.03542
5706.33876,0.02018
5708.26723,0.04422
5710.19570,0.07140
5712.12417,0.08812
5714.05264,0.08631
5715.98111,0.07139
5717.90957,0.06408
5719.83804,0.05753
5721.76651,0.04094
5723.69498,0.02662
5725.62345,0.04105
5727.55192,0.07502
5729.48039,0.07243
5731.40886,0.04294
5733.33732,0.04128
5735.26579,0.06733
5737.19426,0.09840
5739.12273,0.12389
5741.05120,0.11296
5742.97967,0.06196
5744.90814,0.03583
5746.83660,0.06419
5748.76507,0.09485
5750.69354,0.08625
5752.62201,0.07132
5754.55048,0.08375
5756.47895,0.09131
5758.40742,0.07816
5760.33588,0.07146
5762.26435,0.07785
5764.19282,0.07507
5766.12129,0.06414
5768.04976,0.07384
5769.97823,0.10548
5771.90670,0.13830
5773.83517,0.15181
5775.76363,0.15198
5777.69210,0.15492
5779.62057,0.13934
5781.54904,0.11242
5783.47751,0.10515
5785.40598,0.10420
5787.33445,0.09840
5789.26291,0.08771
5791.19138,0.07627
5793.11985,0.09186
5795.04832,0.13314
5796.97679,0.15734
5798.90526,0.14256
5800.83373,0.11111
5802.76220,0.10195
5804.69066,0.11722
5806.61913,0.11273
5808.54760,0.08380
5810.47607,0.06938
5812.40454,0.08141
5814.33301,0.09610
5816.26148,0.09344
5818.18994,0.08269
5820.11841,0.08207
5822.04688,0.10359
5823.97535,0.12599
5825.90382,0.09791
5827.83229,0.05355
5829.76076,0.06566
5831.68923,0.08364
5833.61769,0.05404
5835.54616,0.03204
5837.47463,0.04462
5839.40310,0.05963
5841.33157,0.07678
5843.26004,0.11268
5845.18851,0.13563
5847.11697,0.10388
5849.04544,0.03605
5850.97391,0.00409
5852.90238,0.03330
5854.83085,0.07858
5856.75932,0.10043
5858.68779,0.09608
5860.61626,0.09098
5862.54472,0.10419
5864.47319,0.09799
5866.40166,0.04902
5868.33013,0.02026
5870.25860,0.04726
5872.18707,0.08228
5874.11554,0.09905
5876.04400,0.10110
5877.97247,0.09330
5879.90094,0.09969
5881.82941,0.10865
5883.75788,0.10758
5885.68635,0.12173
5887.61482,0.13469
5889.54329,0.11496
5891.47175,0.08806
5893.40022,0.07747
5895.32869,0.06630
5897.25716,0.05402
5899.18563,0.04424
5901.11410,0.04233
5903.04257,0.07604
5904.97103,0.13146
5906.89950,0.16436
5908.82797,0.15065
5910.75644,0.11551
5912.68491,0.10846
5914.61338,0.11492
5916.54185,0.09477
5918.47032,0.07362
5920.39878,0.08606
5922.32725,0.12294
5924.25572,0.16310
5926.18419,0.15931
5928.11266,0.10438
5930.04113,0.07515
5931.96960,0.09232
5933.89806,0.09629
5935.82653,0.06759
5937.75500,0.05111
5939.68347,0.05795
5941.61194,0.04622
5943.54041,0.01982
5945.46888,0.05057
5947.39734,0.13372
5949.32581,0.17208
5951.25428,0.13630
5953.18275,0.09964
5955.11122,0.11099
5957.03969,0.14885
5958.96816,0.17011
5960.89663,0.16045
5962.82509,0.13379
5964.75356,0.12338
5966.68203,0.14045
5968.61050,0.13737
5970.53897,0.10184
5972.46744,0.08011
5974.39591,0.08379
5976.32437,0.09057
5978.25284,0.10401
5980.18131,0.12646
5982.10978,0.12877
5984.03825,0.11378
5985.96672,0.10615
5987.89519,0.10092
5989.82366,0.09582
5991.75212,0.10314
5993.68059,0.11705
5995.60906,0.09544
5997.53753,0.04927
5999.46600,0.04697
6001.39447,0.07633
6003.32294,0.09266
6005.25140,0.09542
6007.17987,0.06961
6009.10834,0.03711
6011.03681,0.04528
6012.96528,0.06386
6014.89375,0.08358
6016.82222,0.09071
6018.75069,0.05369
6020.67915,0.05094
6022.60762,0.08270
6024.53609,0.06220
6026.46456,0.02962
6028.39303,0.02995
6030.32150,0.03049
6032.24997,0.03410
6034.17843,0.04555
6036.10690,0.04874
6038.03537,0.07339
6039.96384,0.12152
6041.89231,0.14771
6043.82078,0.13227
6045.74925,0.11195
6047.67772,0.11774
6049.60618,0.10406
6051.53465,0.04265
6053.46312,0.01608
6055.39159,0.06266
6057.32006,0.07502
6059.24853,0.02929
6061.17700,0.02992
6063.10546,0.06862
6065.03393,0.07594
6066.96240,0.07604
6068.89087,0.08465
6070.81934,0.06084
6072.74781,0.02702
6074.67628,0.04248
6076.60475,0.09264
6078.53321,0.13683
6080.46168,0.14115
6082.39015,0.10982
6084.31862,0.09007
6086.24709,0.10293
6088.17556,0.13809
6090.10403,0.15447
6092.03249,0.12685
6093.96096,0.09035
6095.88943,0.08339
6097.81790,0.10177
6099.74637,0.11225
6101.67484,0.10580
6103.60331,0.11833
6105.53177,0.15887
6107.46024,0.18693
6109.38871,0.16215
6111.31718,0.09958
6113.24565,0.05330
6115.17412,0.02541
6117.10259,0.01519
6119.03106,0.05635
6120.95952,0.11027
6122.88799,0.13897
6124.81646,0.14338
6126.74493,0.12565
6128.67340,0.14220
6130.60187,0.18688
6132.53034,0.18619
6134.45880,0.16006
6136.38727,0.12981
6138.31574,0.07206
6140.24421,0.02986
6142.17268,0.02507
6144.10115,0.00323
6146.02962,-0.01415
6147.95809,0.01532
6149.88655,0.09473
6151.81502,0.17842
6153.74349,0.18478
6155.67196,0.13714
6157.60043,0.09184
6159.52890,0.06119
6161.45737,0.06448
6163.38583,0.07664
6165.31430,0.07095
6167.24277,0.08827
6169.17124,0.11811
6171.09971,0.10864
6173.02818,0.08697
6174.95665,0.08892
6176.88512,0.10750
6178.81358,0.14173
6180.74205,0.18366
6182.67052,0.22793
6184.59899,0.26414
6186.52746,0.26197
6188.45593,0.19578
6190.38440,0.10507
6192.31286,0.05907
6194.24133,0.06918
6196.16980,0.10223
6198.09827,0.11106
6200.02674,0.09457
6201.95521,0.09872
6203.88368,0.12382
6205.81215,0.14336
6207.74061,0.16607
6209.66908,0.18382
6211.59755,0.15171
6213.52602,0.08286
6215.45449,0.04354
6217.38296,0.06366
6219.31143,0.08579
6221.23989,0.07060
6223.16836,0.09885
6225.09683,0.17598
6227.02530,0.16589
6228.95377,0.08669
6230.88224,0.07268
6232.81071,0.15815
6234.73918,0.23883
6236.66764,0.23231
6238.59611,0.17234
6240.52458,0.12886
6242.45305,0.12980
6244.38152,0.13120
6246.30999,0.10959
6248.23846,0.10682
6250.16692,0.12998
6252.09539,0.11426
6254.02386,0.05518
6255.95233,0.04724
6257.88080,0.10013
6259.80927,0.12301
6261.73774,0.08797
6263.66621,0.05787
6265.59467,0.06595
6267.52314,0.04076
6269.45161,-0.01297
6271.38008,-0.02256
6273.30855,0.01119
6275.23702,0.05371
6277.16549,0.08094
6279.09395,0.08687
6281.02242,0.07736
6282.95089,0.06399
6284.87936,0.05250
6286.80783,0.03755
6288.73630,0.03104
6290.66477,0.02936
6292.59323,0.01094
6294.52170,-0.00409
6296.45017,-0.00872
6298.37864,-0.01766
6300.30711,-0.01826
6302.23558,0.02029
6304.16405,0.06975
6306.09252,0.06156
6308.02098,0.04148
6309.94945,0.05386
6311.87792,0.04691
6313.80639,0.04171
6315.73486,0.08711
6317.66333,0.15034
6319.59180,0.16382
6321.52026,0.13375
6323.44873,0.11809
6325.37720,0.10600
6327.30567,0.07716
6329.23414,0.04470
6331.16261,0.01164
6333.09108,-0.01529
6335.01955,-0.00683
6336.94801,0.05311
6338.87648,0.11997
6340.80495,0.13949
6342.73342,0.11445
6344.66189,0.06896
6346.59036,0.04368
6348.51883,0.06574
6350.44729,0.08720
6352.37576,0.05082
6354.30423,0.01259
6356.23270,0.04111
6358.16117,0.06596
6360.08964,0.04856
6362.01811,0.08604
6363.94658,0.16003
6365.87504,0.16122
6367.80351,0.12721
6369.73198,0.14100
6371.66045,0.16116
6373.58892,0.13331
6375.51739,0.06759
6377.44586,0.00019
6379.37432,-0.02099
6381.30279,0.03183
6383.23126,0.11374
6385.15973,0.11771
6387.08820,0.04672
6389.01667,-0.01001
6390.94514,-0.00382
6392.87361,0.06586
6394.80207,0.13890
6396.73054,0.15245
6398.65901,0.12660
6400.58748,0.11559
6402.51595,0.14707
6404.44442,0.16161
6406.37289,0.09382
6408.30135,0.03868
6410.22982,0.09189
6412.15829,0.13639
6414.08676,0.08349
6416.01523,0.03056
6417.94370,0.04685
6419.87217,0.06929
6421.80064,0.07804
6423.72910,0.11439
6425.65757,0.15470
6427.58604,0.13160
6429.51451,0.03519
6431.44298,-0.00367
6433.37145,0.07292
6435.29992,0.12789
6437.22838,0.11694
6439.15685,0.09322
6441.08532,0.08913
6443.01379,0.11969
6444.94226,0.15200
6446.87073,0.17306
6448.79920,0.20147
6450.72766,0.18842
6452.65613,0.11675
6454.58460,0.04288
6456.51307,0.01092
6458.44154,0.01451
6460.37001,0.00493
6462.29848,-0.00724
6464.22695,0.00066
6466.15541,-0.01055
6468.08388,-0.03404
6470.01235,0.03947
6471.94082,0.20324
6473.86929,0.26904
6475.79776,0.20398
6477.72623,0.14267
6479.65469,0.11539
6481.58316,0.06214
6483.51163,0.02053
6485.44010,0.04499
6487.36857,0.09244
6489.29704,0.10801
6491.22551,0.09354
6493.15398,0.07896
6495.08244,0.07119
6497.01091,0.06431
6498.93938,0.06684
6500.86785,0.08113
6502.79632,0.09241
6504.72479,0.06655
6506.65326,0.00143
6508.58172,-0.02946
6510.51019,0.01582
6512.43866,0.07258
6514.36713,0.09430
6516.29560,0.08433
6518.22407,0.04386
6520.15254,0.02431
6522.08101,0.06343
6524.00947,0.11534
6525.93794,0.12068
6527.86641,0.07718
6529.79488,0.02024
6531.72335,0.01234
6533.65182,0.04488
6535.58029,0.05274
6537.50875,0.06949
6539.43722,0.11265
6541.36569,0.10814
6543.29416,0.04810
6545.22263,0.03191
6547.15110,0.07829
6549.07957,0.07713
6551.00804,-0.00761
6552.93650,-0.08059
6554.86497,-0.10253
6556.79344,-0.11466
6558.72191,-0.10487
6560.65038,-0.02787
6562.57885,0.06186
6564.50732,0.10985
6566.43578,0.10809
6568.36425,0.06192
6570.29272,0.03223
6572.22119,0.05683
6574.14966,0.10336
6576.07813,0.13475
6578.00660,0.13175
6579.93507,0.11613
6581.86353,0.10538
6583.79200,0.05607
6585.72047,-0.00854
6587.64894,-0.00940
6589.57741,0.05434
6591.50588,0.09624
6593.43435,0.08869
6595.36281,0.12035
6597.29128,0.15246
6599.21975,0.12479
6601.14822,0.12582
6603.07669,0.12644
6605.00516,0.03728
6606.93363,-0.06358
6608.86210,-0.08302
6610.79056,-0.03296
6612.71903,0.03164
6614.64750,0.07844
6616.57597,0.09256
6618.50444,0.07592
6620.43291,0.10557
6622.36138,0.17437
6624.28984,0.16357
6626.21831,0.08863
6628.14678,0.03873
6630.07525,0.01341
6632.00372,0.00836
6633.93219,0.07013
6635.86066,0.15255
6637.78912,0.11273
6639.71759,0.03081
6641.64606,0.05205
6643.57453,0.11195
6645.50300,0.13310
6647.43147,0.12011
6649.35994,0.06998
6651.28841,0.05926
6653.21687,0.11545
6655.14534,0.10685
6657.07381,-0.01598
6659.00228,-0.06999
6660.93075,0.01744
6662.85922,0.09584
6664.78769,0.08343
6666.71615,0.05402
6668.64462,0.07407
6670.57309,0.09290
6672.50156,0.07467
6674.43003,0.03854
6676.35850,-0.02152
6678.28697,-0.10164
6680.21544,-0.15096
6682.14390,-0.11182
6684.07237,-0.01635
6686.00084,0.03619
6687.92931,0.05003
6689.85778,0.08736
6691.78625,0.11464
6693.71472,0.11016
6695.64318,0.11741
6697.57165,0.13719
6699.50012,0.13119
6701.42859,0.13324
6703.35706,0.16903
6705.28553,0.17370
6707.21400,0.14128
6709.14247,0.11923
6711.07093,0.11532
6712.99940,0.14321
6714.92787,0.18363
6716.85634,0.17020
6718.78481,0.10069
6720.71328,0.07703
6722.64175,0.12089
6724.57021,0.11697
6726.49868,0.03590
6728.42715,-0.06085
6730.35562,-0.12725
6732.28409,-0.13514
6734.21256,-0.05515
6736.14103,0.06652
6738.06950,0.11113
6739.99796,0.08705
6741.92643,0.07010
6743.85490,0.08399
6745.78337,0.13204
6747.71184,0.20357
6749.64031,0.24518
6751.56878,0.19181
6753.49724,0.07426
6755.42571,0.03065
6757.35418,0.06200
6759.28265,0.05892
6761.21112,0.01691
6763.13959,0.00007
6765.06806,0.00860
6766.99653,-0.02274
6768.92499,-0.09282
6770.85346,-0.10601
6772.78193,-0.03110
6774.71040,0.08012
6776.63887,0.11664
6778.56734,0.05114
6780.49581,-0.00989
6782.42427,-0.01246
6784.35274,0.03038
6786.28121,0.07291
6788.20968,0.07176
6790.13815,0.00668
6792.06662,-0.07857
6793.99509,-0.09825
6795.92355,-0.04767
6797.85202,0.02872
6799.78049,0.05507
6801.70896,0.00627
6803.63743,-0.04915
6805.56590,-0.09309
6807.49437,-0.10036
6809.42284,-0.06042
6811.35130,-0.02963
6813.27977,-0.00764
6815.20824,0.02788
6817.13671,0.08662
6819.06518,0.13860
6820.99365,0.11493
6822.92212,0.02640
6824.85058,-0.02694
6826.77905,-0.01475
6828.70752,0.00767
6830.63599,0.03273
6832.56446,0.09665
6834.49293,0.13855
6836.42140,0.13276
6838.34987,0.15903
6840.27833,0.20158
6842.20680,0.18158
6844.13527,0.11079
6846.06374,0.10383
6847.99221,0.23388
6849.92068,0.32247
6851.84915,0.22447
6853.77761,0.11964
6855.70608,0.09563
6857.63455,0.08297
6859.56302,0.07895
6861.49149,0.07292
6863.41996,0.04095
6865.34843,0.00141
6867.27690,-0.08368
6869.20536,-0.16659
6871.13383,-0.16628
6873.06230,-0.12983
6874.99077,-0.08677
6876.91924,-0.04978
6878.84771,-0.09236
6880.77618,-0.17219
6882.70464,-0.12749
6884.63311,0.04411
6886.56158,0.16975
6888.49005,0.16193
6890.41852,0.13606
6892.34699,0.11425
6894.27546,0.01904
6896.20393,-0.03348
6898.13239,0.09639
6900.06086,0.24728
6901.98933,0.27220
6903.91780,0.23359
6905.84627,0.17701
6907.77474,0.03783
6909.70321,-0.11555
6911.63167,-0.11865
6913.56014,0.04519
6915.48861,0.24198
6917.41708,0.29019
6919.34555,0.19401
6921.27402,0.14748
6923.20249,0.13983
6925.13096,0.13259
6927.05942,0.13585
6928.98789,0.10446
6930.91636,0.04838
6932.84483,0.04947
6934.77330,0.08569
6936.70177,0.06537
6938.63024,0.00337
6940.55870,0.01308
6942.48717,0.10854
6944.41564,0.15899
6946.34411,0.09731
6948.27258,0.05989
6950.20105,0.10701
6952.12952,0.07765
6954.05799,-0.05810
6955.98645,-0.08309
6957.91492,0.02243
6959.84339,0.07904
6961.77186,0.06236
6963.70033,0.06927
6965.62880,0.12785
6967.55727,0.15182
6969.48573,0.07282
6971.41420,0.01403
6973.34267,0.04292
6975.27114,0.08041
6977.19961,0.08718
6979.12808,0.07201
6981.05655,0.01676
6982.98501,-0.03479
6984.91348,-0.02775
6986.84195,0.03401
6988.77042,0.08086
6990.69889,0.10355
6992.62736,0.19569
6994.55583,0.37070
6996.48430,0.49842
6998.41276,0.42916
7000.34123,0.21971
7002.26970,0.04489
7004.19817,-0.04670
7006.12664,-0.05924
7008.05511,0.00284
7009.98358,0.07138
7011.91204,0.07165
7013.84051,0.01605
7015.76898,-0.02311
7017.69745,-0.04191
7019.62592,-0.02709
7021.55439,0.02575
7023.48286,0.03665
7025.41133,0.01205
7027.33979,-0.01212
7029.26826,-0.04357
7031.19673,0.00073
7033.12520,0.08845
7035.05367,0.07198
7036.98214,0.02021
7038.91061,0.03955
7040.83907,0.06627
7042.76754,0.05716
7044.69601,-0.00945
7046.62448,-0.10491
7048.55295,-0.11622
7050.48142,-0.03869
7052.40989,0.04192
7054.33836,0.09553
7056.26682,0.13941
7058.19529,0.16601
7060.12376,0.09165
7062.05223,-0.04893
7063.98070,-0.04669
7065.90917,0.09070
7067.83764,0.18773
7069.76610,0.28784
7071.69457,0.35327
7073.62304,0.25380
7075.55151,0.14508
7077.47998,0.10871
7079.40845,0.05035
7081.33692,-0.02605
7083.26539,-0.02056
7085.19385,0.02794
7087.12232,0.07926
7089.05079,0.10843
7090.97926,0.08755
7092.90773,0.00842
7094.83620,-0.05954
7096.76467,-0.01398
7098.69313,0.07266
7100.62160,0.10827
7102.55007,0.11603
7104.47854,0.11322
7106.40701,0.13504
7108.33548,0.15083
7110.26395,0.15798
7112.19242,0.16667
7114.12088,0.12373
7116.04935,0.07859
7117.97782,0.12139
7119.90629,0.14541
7121.83476,0.08584
7123.76323,0.05443
7125.69170,0.03156
7127.62016,-0.00571
7129.54863,0.00328
7131.47710,0.04054
7133.40557,0.09253
7135.33404,0.15082
7137.26251,0.13370
7139.19098,0.09537
7141.11944,0.09390
7143.04791,0.03509
7144.97638,0.00536
7146.90485,0.05189
7148.83332,0.04785
7150.76179,0.01055
7152.69026,-0.02538
7154.61873,-0.00154
7156.54719,0.03410
7158.47566,0.02005
7160.40413,0.04789
7162.33260,0.09090
7164.26107,0.07375
7166.18954,0.01271
7168.11801,-0.12257
7170.04647,-0.20133
7171.97494,-0.07477
7173.90341,0.05488
7175.83188,0.13227
7177.76035,0.19618
7179.68882,0.20617
7181.61729,0.23798
7183.54576,0.26511
7185.47422,0.13722
7187.40269,-0.06759
7189.33116,-0.15935
7191.25963,-0.06669
7193.18810,0.00330
7195.11657,-0.04443
7197.04504,-0.04268
7198.97350,0.08080
7200.90197,0.21530
7202.83044,0.30903
7204.75891,0.35612
7206.68738,0.32870
7208.61585,0.23430
7210.54432,0.07434
7212.47279,-0.08724
7214.40125,-0.13017
7216.32972,-0.08635
7218.25819,-0.08423
7220.18666,-0.03893
7222.11513,0.03869
7224.04360,0.04387
7225.97207,0.04674
7227.90053,0.06975
7229.82900,0.06817
7231.75747,0.13344
7233.68594,0.18494
7235.61441,0.12511
7237.54288,0.01421
7239.47135,-0.09860
7241.39982,-0.12444
7243.32828,0.01883
7245.25675,0.18991
7247.18522,0.27594
7249.11369,0.26334
7251.04216,0.13980
7252.97063,0.03064
7254.89910,0.05050
7256.82756,0.05500
7258.75603,0.00208
7260.68450,-0.03929
7262.61297,-0.02480
7264.54144,0.03211
7266.46991,0.11656
7268.39838,0.10518
7270.32685,-0.02702
7272.25531,-0.05675
7274.18378,0.05576
7276.11225,0.10789
7278.04072,0.06985
7279.96919,0.01853
7281.89766,0.16514
7283.82613,0.38805
7285.75459,0.44021
7287.68306,0.39599
7289.61153,0.38255
7291.54000,0.36417
7293.46847,0.29500
7295.39694,0.11797
7297.32541,-0.02425
7299.25387,0.04623
7301.18234,0.12987
7303.11081,0.05553
7305.03928,-0.00362
7306.96775,0.06616
7308.89622,0.05957
7310.82469,-0.10598
7312.75316,-0.18662
7314.68162,-0.12265
7316.61009,0.02959
7318.53856,0.15757
7320.46703,0.17555
7322.39550,0.11225
7324.32397,0.03220
7326.25244,0.02299
7328.18090,0.16913
7330.10937,0.32386
7332.03784,0.27974
7333.96631,0.11713
7335.89478,-0.00689
7337.82325,-0.02097
7339.75172,-0.03187
7341.68019,-0.09354
7343.60865,-0.09399
7345.53712,0.00174
7347.46559,0.17950
7349.39406,0.24613
7351.32253,0.14386
7353.25100,0.02647
7355.17947,-0.02563
7357.10793,0.00121
7359.03640,0.16543
7360.96487,0.25687
7362.89334,0.13633
7364.82181,0.15550
7366.75028,0.32531
7368.67875,0.33805
7370.60722,0.26117
7372.53568,0.28853
7374.46415,0.30639
7376.39262,0.17705
7378.32109,0.11964
7380.24956,0.13955
7382.17803,0.18004
7384.10650,0.23996
7386.03496,0.19172
7387.96343,-0.00043
7389.89190,-0.14166
7391.82037,-0.14558
7393.74884,-0.01348
7395.67731,0.14248
7397.60578,0.12337
7399.53425,0.04734
7401.46271,0.06867
7403.39118,0.07598
7405.31965,0.04533
7407.24812,0.16362
7409.17659,0.33271
7411.10506,0.26574
7413.03353,0.09860
7414.96199,0.12614
7416.89046,0.20892
7418.81893,0.10200
7420.74740,0.07777
7422.67587,0.18505
7424.60434,0.20535
7426.53281,0.18343
7428.46128,0.15605
7430.38974,0.09175
7432.31821,0.09063
7434.24668,0.17148
7436.17515,0.16248
7438.10362,0.07674
7440.03209,0.03567
7441.96056,0.06555
7443.88902,0.21356
7445.81749,0.36741
7447.74596,0.39145
7449.67443,0.33364
7451.60290,0.26367
7453.53137,0.21002
7455.45984,0.26197
7457.38831,0.36795
7459.31677,0.28586
7461.24524,-0.01494
7463.17371,-0.16437
7465.10218,-0.07644
7467.03065,0.04969
7468.95912,0.04208
7470.88759,-0.04683
7472.81605,-0.06507
7474.74452,0.00974
7476.67299,0.14519
7478.60146,0.34334
7480.52993,0.43529
7482.45840,0.30291
7484.38687,0.13701
7486.31533,0.01235
7488.24380,-0.09934
7490.17227,-0.11534
7492.10074,-0.01190
7494.02921,0.07445
7495.95768,0.14423
7497.88615,0.30824
