399.19301,2.23968
401.12148,1.14058
403.04995,0.59873
404.97842,0.36741
406.90689,0.24328
408.83536,0.17353
410.76382,0.08551
412.69229,-0.02568
414.62076,-0.04243
416.54923,-0.05187
418.47770,-0.12966
420.40617,-0.04226
422.33464,0.06160
424.26311,0.00509
426.19157,-0.03867
428.12004,-0.03117
430.04851,-0.09467
431.97698,-0.17286
433.90545,-0.13093
435.83392,-0.04729
437.76239,-0.04735
439.69085,-0.10262
441.61932,-0.05024
443.54779,0.07904
445.47626,0.10002
447.40473,0.10860
449.33320,0.16421
451.26167,0.16049
453.19013,0.08749
455.11860,0.02774
457.04707,0.02930
458.97554,0.03521
460.90401,0.00183
462.83248,-0.03905
464.76095,-0.04867
466.68942,0.00491
468.61788,0.08161
470.54635,0.13105
472.47482,0.18000
474.40329,0.24326
476.33176,0.22142
478.26023,0.13942
480.18870,0.04584
482.11716,-0.03061
484.04563,-0.04667
485.97410,-0.01876
487.90257,0.00789
489.83104,0.03828
491.75951,0.07532
493.68798,0.09720
495.61645,0.11273
497.54491,0.14086
499.47338,0.15871
501.40185,0.15315
503.33032,0.13435
505.25879,0.11771
507.18726,0.12180
509.11573,0.12086
511.04419,0.08812
512.97266,0.07192
514.90113,0.09157
516.82960,0.10809
518.75807,0.12626
520.68654,0.15287
522.61501,0.15954
524.54348,0.14825
526.47194,0.14340
528.40041,0.14429
530.32888,0.14304
532.25735,0.14251
534.18582,0.15223
536.11429,0.19226
538.04276,0.23956
539.97122,0.22476
541.89969,0.16220
543.82816,0.13512
545.75663,0.13299
547.68510,0.11792
549.61357,0.10616
551.54204,0.08974
553.47051,0.07586
555.39897,0.08404
557.32744,0.10028
559.25591,0.11936
561.18438,0.13629
563.11285,0.13556
565.04132,0.10989
566.96979,0.06629
568.89825,0.06188
570.82672,0.10786
572.75519,0.12531
574.68366,0.09905
576.61213,0.08776
578.54060,0.08942
580.46907,0.07203
582.39754,0.06156
584.32600,0.07579
586.25447,0.09158
588.18294,0.09879
590.11141,0.09753
592.03988,0.09896
593.96835,0.11228
595.89682,0.12114
597.82528,0.12269
599.75375,0.12656
601.68222,0.12365
603.61069,0.11491
605.53916,0.11682
607.46763,0.12713
609.39610,0.13681
611.32456,0.13593
613.25303,0.11770
615.18150,0.09892
617.10997,0.09705
619.03844,0.10175
620.96691,0.10655
622.89538,0.11787
624.82385,0.12951
626.75231,0.14180
628.68078,0.16383
630.60925,0.18723
632.53772,0.19801
634.46619,0.18022
636.39466,0.13396
638.32313,0.09902
640.25159,0.10105
642.18006,0.11996
644.10853,0.13213
646.03700,0.13542
647.96547,0.13961
649.89394,0.14288
651.82241,0.13707
653.75088,0.12915
655.67934,0.12756
657.60781,0.12436
659.53628,0.11248
661.46475,0.10332
663.39322,0.10848
665.32169,0.11624
667.25016,0.11432
669.17862,0.12414
671.10709,0.13020
673.03556,0.12259
674.96403,0.11889
676.89250,0.10464
678.82097,0.08925
680.74944,0.09347
682.67791,0.08753
684.60637,0.07195
686.53484,0.08322
688.46331,0.10543
690.39178,0.11661
692.32025,0.12679
694.24872,0.13500
696.17719,0.14361
698.10565,0.15316
700.03412,0.15786
701.96259,0.15847
703.89106,0.15220
705.81953,0.14116
707.74800,0.13613
709.67647,0.14096
711.60494,0.14042
713.53340,0.13154
715.46187,0.13692
717.39034,0.14896
719.31881,0.14159
721.24728,0.12948
723.17575,0.13379
725.10422,0.13530
727.03268,0.12324
728.96115,0.11073
730.88962,0.10302
732.81809,0.10576
734.74656,0.11904
736.67503,0.13282
738.60350,0.14130
740.53197,0.13892
742.46043,0.13274
744.38890,0.13698
746.31737,0.14988
748.24584,0.16223
750.17431,0.16843
752.10278,0.16638
754.03125,0.15761
755.95971,0.14475
757.88818,0.13547
759.81665,0.13520
761.74512,0.13947
763.67359,0.14303
765.60206,0.13965
767.53053,0.12838
769.45900,0.12220
771.38746,0.12686
773.31593,0.12945
775.24440,0.13029
777.17287,0.14162
779.10134,0.15603
781.02981,0.16324
782.95828,0.15985
784.88674,0.14925
786.81521,0.14302
788.74368,0.15287
790.67215,0.18735
792.60062,0.21817
794.52909,0.20332
796.45756,0.16461
798.38602,0.14832
800.31449,0.15398
802.24296,0.15680
804.17143,0.15006
806.09990,0.14083
808.02837,0.13581
809.95684,0.14210
811.88531,0.14899
813.81377,0.14655
815.74224,0.14348
817.67071,0.13859
819.59918,0.12880
821.52765,0.12246
823.45612,0.12534
825.38459,0.13200
827.31305,0.13002
829.24152,0.12423
831.16999,0.12814
833.09846,0.13768
835.02693,0.14456
836.95540,0.14658
838.88387,0.14473
840.81234,0.14631
842.74080,0.15541
844.66927,0.16788
846.59774,0.17500
848.52621,0.17253
850.45468,0.16213
852.38315,0.14635
854.31162,0.13770
856.24008,0.14249
858.16855,0.14643
860.09702,0.14654
862.02549,0.15347
863.95396,0.15898
865.88243,0.15432
867.81090,0.15241
869.73937,0.15501
871.66783,0.15074
873.59630,0.14474
875.52477,0.14727
877.45324,0.15410
879.38171,0.15741
881.31018,0.15458
883.23865,0.14933
885.16711,0.15021
887.09558,0.15184
889.02405,0.14427
890.95252,0.13784
892.88099,0.14080
894.80946,0.14756
896.73793,0.15523
898.66640,0.16231
900.59486,0.16516
902.52333,0.16062
904.45180,0.15158
906.38027,0.15204
908.30874,0.16029
910.23721,0.15440
912.16568,0.14045
914.09414,0.14064
916.02261,0.14529
917.95108,0.14256
919.87955,0.14238
921.80802,0.14570
923.73649,0.14505
925.66496,0.14266
927.59343,0.14359
929.52189,0.14885
931.45036,0.15144
933.37883,0.14441
935.30730,0.13797
937.23577,0.14301
939.16424,0.14876
941.09271,0.14670
943.02117,0.14476
944.94964,0.14277
946.87811,0.13805
948.80658,0.13730
950.73505,0.14001
952.66352,0.14451
954.59199,0.15076
956.52045,0.14998
958.44892,0.14201
960.37739,0.13820
962.30586,0.13956
964.23433,0.14308
966.16280,0.14732
968.09127,0.14924
970.01974,0.15114
971.94820,0.15357
973.87667,0.15402
975.80514,0.15198
977.73361,0.14949
979.66208,0.14695
981.59055,0.14238
983.51902,0.14124
985.44748,0.14383
987.37595,0.14473
989.30442,0.14843
991.23289,0.15773
993.16136,0.16468
995.08983,0.16172
997.01830,0.15530
998.94677,0.15504
1000.87523,0.15638
1002.80370,0.15573
1004.73217,0.15731
1006.66064,0.15714
1008.58911,0.15164
1010.51758,0.14850
1012.44605,0.15382
1014.37451,0.16460
1016.30298,0.17158
1018.23145,0.16832
1020.15992,0.15912
1022.08839,0.15071
1024.01686,0.14589
1025.94533,0.14662
1027.87380,0.15389
1029.80226,0.16336
1031.73073,0.16648
1033.65920,0.16161
1035.58767,0.15488
1037.51614,0.15043
1039.44461,0.15095
1041.37308,0.15433
1043.30154,0.15462
1045.23001,0.15527
1047.15848,0.16065
1049.08695,0.16613
1051.01542,0.16306
1052.94389,0.14967
1054.87236,0.14324
1056.80083,0.15117
1058.72929,0.15392
1060.65776,0.14859
1062.58623,0.15368
1064.51470,0.16695
1066.44317,0.17208
1068.37164,0.17053
1070.30011,0.17064
1072.22857,0.17133
1074.15704,0.17104
1076.08551,0.17041
1078.01398,0.16667
1079.94245,0.15983
1081.87092,0.15625
1083.79939,0.15976
1085.72786,0.16394
1087.65632,0.16033
1089.58479,0.15245
1091.51326,0.14798
1093.44173,0.15177
1095.37020,0.15854
1097.29867,0.15661
1099.22714,0.15541
1101.15560,0.16795
1103.08407,0.18369
1105.01254,0.19027
1106.94101,0.19014
1108.86948,0.18423
1110.79795,0.17263
1112.72642,0.16653
1114.65489,0.16969
1116.58335,0.17114
1118.51182,0.16457
1120.44029,0.15886
1122.36876,0.15915
1124.29723,0.15736
1126.22570,0.15279
1128.15417,0.15179
1130.08263,0.15936
1132.01110,0.17158
1133.93957,0.17405
1135.86804,0.16669
1137.79651,0.16218
1139.72498,0.16268
1141.65345,0.16444
1143.58191,0.16491
1145.51038,0.16455
1147.43885,0.16623
1149.36732,0.16637
1151.29579,0.16353
1153.22426,0.16313
1155.15273,0.16568
1157.08120,0.16661
1159.00966,0.16452
1160.93813,0.16438
1162.86660,0.16801
1164.79507,0.17123
1166.72354,0.17156
1168.65201,0.16915
1170.58048,0.16786
1172.50894,0.16836
1174.43741,0.16621
1176.36588,0.16408
1178.29435,0.16379
1180.22282,0.16043
1182.15129,0.15627
1184.07976,0.15641
1186.00823,0.16024
1187.93669,0.16540
1189.86516,0.16951
1191.79363,0.17086
1193.72210,0.16959
1195.65057,0.16827
1197.57904,0.16740
1199.50751,0.16560
1201.43597,0.16561
1203.36444,0.16703
1205.29291,0.16516
1207.22138,0.16162
1209.14985,0.15977
1211.07832,0.15997
1213.00679,0.16119
1214.93526,0.16341
1216.86372,0.16888
1218.79219,0.17368
1220.72066,0.17393
1222.64913,0.17288
1224.57760,0.17235
1226.50607,0.17224
1228.43454,0.17178
1230.36300,0.17096
1232.29147,0.17027
1234.21994,0.16799
1236.14841,0.16540
1238.07688,0.16577
1240.00535,0.16748
1241.93382,0.16555
1243.86229,0.15931
1245.79075,0.15555
1247.71922,0.16009
1249.64769,0.16682
1251.57616,0.16743
1253.50463,0.16507
1255.43310,0.16322
1257.36157,0.16024
1259.29003,0.15745
1261.21850,0.15750
1263.14697,0.15988
1265.07544,0.16157
1267.00391,0.16002
1268.93238,0.15766
1270.86085,0.16050
1272.78932,0.16610
1274.71778,0.16682
1276.64625,0.16667
1278.57472,0.16912
1280.50319,0.16673
1282.43166,0.16260
1284.36013,0.16506
1286.28860,0.16766
1288.21706,0.16738
1290.14553,0.16795
1292.07400,0.16620
1294.00247,0.16431
1295.93094,0.16605
1297.85941,0.16571
1299.78788,0.15878
1301.71634,0.14509
1303.64481,0.12983
1305.57328,0.12912
1307.50175,0.14793
1309.43022,0.16567
1311.35869,0.17251
1313.28716,0.17713
1315.21563,0.17897
1317.14409,0.17741
1319.07256,0.17737
1321.00103,0.17895
1322.92950,0.18059
1324.85797,0.17846
1326.78644,0.17302
1328.71491,0.17036
1330.64337,0.16683
1332.57184,0.16123
1334.50031,0.16014
1336.42878,0.16242
1338.35725,0.16359
1340.28572,0.15927
1342.21419,0.15374
1344.14266,0.15051
1346.07112,0.14790
1347.99959,0.15252
1349.92806,0.16054
1351.85653,0.16251
1353.78500,0.16231
1355.71347,0.16512
1357.64194,0.17118
1359.57040,0.17727
1361.49887,0.18091
1363.42734,0.17994
1365.35581,0.17833
1367.28428,0.18105
1369.21275,0.18174
1371.14122,0.17838
1373.06969,0.17972
1374.99815,0.18602
1376.92662,0.18619
1378.85509,0.18091
1380.78356,0.17835
1382.71203,0.18007
1384.64050,0.18344
1386.56897,0.18566
1388.49743,0.18566
1390.42590,0.18583
1392.35437,0.18814
1394.28284,0.19442
1396.21131,0.19970
1398.13978,0.19607
1400.06825,0.18730
1401.99672,0.18129
1403.92518,0.17981
1405.85365,0.18057
1407.78212,0.18238
1409.71059,0.18458
1411.63906,0.18473
1413.56753,0.18327
1415.49600,0.18498
1417.42446,0.19211
1419.35293,0.19650
1421.28140,0.19356
1423.20987,0.19063
1425.13834,0.18867
1427.06681,0.18820
1428.99528,0.18762
1430.92375,0.18566
1432.85221,0.18740
1434.78068,0.19332
1436.70915,0.19504
1438.63762,0.18781
1440.56609,0.18106
1442.49456,0.17995
1444.42303,0.18464
1446.35149,0.19055
1448.27996,0.18965
1450.20843,0.18459
1452.13690,0.18725
1454.06537,0.19970
1455.99384,0.21714
1457.92231,0.21868
1459.85077,0.20255
1461.77924,0.19575
1463.70771,0.19819
1465.63618,0.19918
1467.56465,0.19636
1469.49312,0.19970
1471.42159,0.20956
1473.35006,0.21395
1475.27852,0.20625
1477.20699,0.19606
1479.13546,0.19094
1481.06393,0.19043
1482.99240,0.19079
1484.92087,0.19344
1486.84934,0.19955
1488.77780,0.20576
1490.70627,0.20554
1492.63474,0.20105
1494.56321,0.20065
1496.49168,0.20500
1498.42015,0.20663
1500.34862,0.20514
1502.27709,0.20933
1504.20555,0.22610
1506.13402,0.25514
1508.06249,0.25604
1509.99096,0.23032
1511.91943,0.21146
1513.84790,0.20553
1515.77637,0.20982
1517.70483,0.21251
1519.63330,0.21383
1521.56177,0.21701
1523.49024,0.21293
1525.41871,0.20792
1527.34718,0.20689
1529.27565,0.20481
1531.20412,0.20319
1533.13258,0.20522
1535.06105,0.20565
1536.98952,0.20601
1538.91799,0.21733
1540.84646,0.23828
1542.77493,0.23801
1544.70340,0.22107
1546.63186,0.20365
1548.56033,0.19592
1550.48880,0.19680
1552.41727,0.19991
1554.34574,0.20263
1556.27421,0.20843
1558.20268,0.21829
1560.13115,0.20868
1562.05961,0.19538
1563.98808,0.18822
1565.91655,0.18300
1567.84502,0.18496
1569.77349,0.19219
1571.70196,0.19428
1573.63043,0.19562
1575.55889,0.19948
1577.48736,0.19580
1579.41583,0.18661
1581.34430,0.18251
1583.27277,0.18351
1585.20124,0.18476
1587.12971,0.18509
1589.05818,0.18489
1590.98664,0.18229
1592.91511,0.18018
1594.84358,0.18351
1596.77205,0.18690
1598.70052,0.18677
1600.62899,0.18815
1602.55746,0.18924
1604.48592,0.18737
1606.41439,0.18606
1608.34286,0.18542
1610.27133,0.18310
1612.19980,0.18140
1614.12827,0.18670
1616.05674,0.19943
1617.98521,0.20283
1619.91367,0.19727
1621.84214,0.19681
1623.77061,0.20039
1625.69908,0.20215
1627.62755,0.20090
1629.55602,0.19612
1631.48449,0.19347
1633.41295,0.20063
1635.34142,0.21614
1637.26989,0.21671
1639.19836,0.20590
1641.12683,0.20036
1643.05530,0.20339
1644.98377,0.21618
1646.91223,0.23071
1648.84070,0.22824
1650.76917,0.22195
1652.69764,0.22263
1654.62611,0.21837
1656.55458,0.20893
1658.48305,0.20513
1660.41152,0.21017
1662.33998,0.21525
1664.26845,0.20890
1666.19692,0.20570
1668.12539,0.21312
1670.05386,0.21971
1671.98233,0.21767
1673.91080,0.21491
1675.83926,0.21152
1677.76773,0.20630
1679.69620,0.20543
1681.62467,0.21543
1683.55314,0.23284
1685.48161,0.22890
1687.41008,0.21501
1689.33855,0.21034
1691.26701,0.20975
1693.19548,0.21297
1695.12395,0.22335
1697.05242,0.23361
1698.98089,0.23529
1700.90936,0.22721
1702.83783,0.21678
1704.76629,0.20993
1706.69476,0.20290
1708.62323,0.19838
1710.55170,0.19938
1712.48017,0.20345
1714.40864,0.20851
1716.33711,0.21352
1718.26558,0.21124
1720.19404,0.20252
1722.12251,0.19572
1724.05098,0.19090
1725.97945,0.18810
1727.90792,0.18946
1729.83639,0.19510
1731.76486,0.20401
1733.69332,0.21237
1735.62179,0.20944
1737.55026,0.20253
1739.47873,0.19939
1741.40720,0.19846
1743.33567,0.19763
1745.26414,0.19945
1747.19261,0.20689
1749.12107,0.21505
1751.04954,0.21130
1752.97801,0.20065
1754.90648,0.19504
1756.83495,0.19322
1758.76342,0.19258
1760.69189,0.19332
1762.62035,0.19405
1764.54882,0.19525
1766.47729,0.19906
1768.40576,0.20440
1770.33423,0.21046
1772.26270,0.21376
1774.19117,0.20722
1776.11964,0.19880
1778.04810,0.19517
1779.97657,0.19405
1781.90504,0.19365
1783.83351,0.19503
1785.76198,0.19528
1787.69045,0.19454
1789.61892,0.19742
1791.54738,0.20214
1793.47585,0.20086
1795.40432,0.19537
1797.33279,0.19448
1799.26126,0.19899
1801.18973,0.19969
1803.11820,0.19459
1805.04666,0.19221
1806.97513,0.19444
1808.90360,0.19823
1810.83207,0.19898
1812.76054,0.19471
1814.68901,0.19060
1816.61748,0.18908
1818.54595,0.18846
1820.47441,0.18819
1822.40288,0.18882
1824.33135,0.19105
1826.25982,0.19430
1828.18829,0.19839
1830.11676,0.20047
1832.04523,0.19672
1833.97369,0.19182
1835.90216,0.18884
1837.83063,0.18880
1839.75910,0.19227
1841.68757,0.19576
1843.61604,0.19574
1845.54451,0.19394
1847.47298,0.19360
1849.40144,0.19195
1851.32991,0.18799
1853.25838,0.18557
1855.18685,0.18627
1857.11532,0.18847
1859.04379,0.19059
1860.97226,0.19089
1862.90072,0.18948
1864.82919,0.19089
1866.75766,0.19840
1868.68613,0.20390
1870.61460,0.19768
1872.54307,0.18915
1874.47154,0.18566
1876.40001,0.18607
1878.32847,0.18874
1880.25694,0.19187
1882.18541,0.19364
1884.11388,0.19380
1886.04235,0.19392
1887.97082,0.19542
1889.89929,0.19496
1891.82775,0.19147
1893.75622,0.19010
1895.68469,0.19151
1897.61316,0.19193
1899.54163,0.19030
1901.47010,0.18890
1903.39857,0.18932
1905.32704,0.19026
1907.25550,0.18989
1909.18397,0.18870
1911.11244,0.18866
1913.04091,0.18999
1914.96938,0.19086
1916.89785,0.19041
1918.82632,0.19052
1920.75478,0.19217
1922.68325,0.19333
1924.61172,0.19320
1926.54019,0.19262
1928.46866,0.19186
1930.39713,0.19176
1932.32560,0.19227
1934.25407,0.19109
1936.18253,0.18851
1938.11100,0.18734
1940.03947,0.18817
1941.96794,0.19055
1943.89641,0.19301
1945.82488,0.19326
1947.75335,0.19216
1949.68181,0.19180
1951.61028,0.19169
1953.53875,0.19175
1955.46722,0.19315
1957.39569,0.19428
1959.32416,0.19397
1961.25263,0.19380
1963.18110,0.19367
1965.10956,0.19238
1967.03803,0.19079
1968.96650,0.19054
1970.89497,0.19236
1972.82344,0.19428
1974.75191,0.19329
1976.68038,0.18981
1978.60884,0.18563
1980.53731,0.18343
1982.46578,0.18548
1984.39425,0.18806
1986.32272,0.18719
1988.25119,0.18571
1990.17966,0.18647
1992.10812,0.18785
1994.03659,0.18956
1995.96506,0.19232
1997.89353,0.19434
1999.82200,0.19240
2001.75047,0.18882
2003.67894,0.18895
2005.60741,0.19033
2007.53587,0.18947
2009.46434,0.18789
2011.39281,0.18808
2013.32128,0.19088
2015.24975,0.19436
2017.17822,0.19581
2019.10669,0.19396
2021.03515,0.19120
2022.96362,0.19019
2024.89209,0.19058
2026.82056,0.19098
2028.74903,0.19111
2030.67750,0.19142
2032.60597,0.19234
2034.53444,0.19387
2036.46290,0.19473
2038.39137,0.19391
2040.31984,0.19162
2042.24831,0.18969
2044.17678,0.18899
2046.10525,0.18846
2048.03372,0.18926
2049.96218,0.19141
2051.89065,0.19173
2053.81912,0.18972
2055.74759,0.18728
2057.67606,0.18570
2059.60453,0.18676
2061.53300,0.18995
2063.46147,0.19259
2065.38993,0.19385
2067.31840,0.19391
2069.24687,0.19338
2071.17534,0.19273
2073.10381,0.19222
2075.03228,0.19128
2076.96075,0.19069
2078.88921,0.19140
2080.81768,0.19154
2082.74615,0.19266
2084.67462,0.19568
2086.60309,0.19649
2088.53156,0.19513
2090.46003,0.19455
2092.38850,0.19372
2094.31696,0.19136
2096.24543,0.18994
2098.17390,0.19074
2100.10237,0.19126
2102.03084,0.19106
2103.95931,0.19141
2105.88778,0.19027
2107.81624,0.18777
2109.74471,0.18690
2111.67318,0.18743
2113.60165,0.18877
2115.53012,0.19129
2117.45859,0.19309
2119.38706,0.19327
2121.31553,0.19395
2123.24399,0.19464
2125.17246,0.19377
2127.10093,0.19268
2129.02940,0.19189
2130.95787,0.18990
2132.88634,0.18877
2134.81481,0.19198
2136.74327,0.19660
2138.67174,0.19883
2140.60021,0.19838
2142.52868,0.19531
2144.45715,0.19208
2146.38562,0.19233
2148.31409,0.19500
2150.24255,0.19542
2152.17102,0.19265
2154.09949,0.19043
2156.02796,0.19156
2157.95643,0.19366
2159.88490,0.19409
2161.81337,0.19466
2163.74184,0.19614
2165.67030,0.19742
2167.59877,0.19775
2169.52724,0.19628
2171.45571,0.19420
2173.38418,0.19351
2175.31265,0.19425
2177.24112,0.19571
2179.16958,0.19578
2181.09805,0.19399
2183.02652,0.19372
2184.95499,0.19502
2186.88346,0.19522
2188.81193,0.19364
2190.74040,0.19161
2192.66887,0.18958
2194.59733,0.18783
2196.52580,0.18947
2198.45427,0.19338
2200.38274,0.19489
2202.31121,0.19428
2204.23968,0.19392
2206.16815,0.19315
2208.09661,0.19207
2210.02508,0.19283
2211.95355,0.19451
2213.88202,0.19386
2215.81049,0.18988
2217.73896,0.18642
2219.66743,0.18819
2221.59590,0.19294
2223.52436,0.19488
2225.45283,0.19423
2227.38130,0.19490
2229.30977,0.19571
2231.23824,0.19412
2233.16671,0.19206
2235.09518,0.19081
2237.02364,0.19094
2238.95211,0.19378
2240.88058,0.19675
2242.80905,0.19676
2244.73752,0.19564
2246.66599,0.19546
2248.59446,0.19473
2250.52293,0.19285
2252.45139,0.19209
2254.37986,0.19241
2256.30833,0.19279
2258.23680,0.19323
2260.16527,0.19160
2262.09374,0.18933
2264.02221,0.19024
2265.95067,0.19228
2267.87914,0.19316
2269.80761,0.19370
2271.73608,0.19412
2273.66455,0.19510
2275.59302,0.19523
2277.52149,0.19307
2279.44996,0.19086
2281.37842,0.18924
2283.30689,0.18888
2285.23536,0.19101
2287.16383,0.19272
2289.09230,0.19205
2291.02077,0.19156
2292.94924,0.19187
2294.87770,0.19060
2296.80617,0.18985
2298.73464,0.19115
2300.66311,0.19070
2302.59158,0.18976
2304.52005,0.19014
2306.44852,0.18830
2308.37699,0.18389
2310.30545,0.18020
2312.23392,0.17857
2314.16239,0.17833
2316.09086,0.18025
2318.01933,0.18291
2319.94780,0.18091
2321.87627,0.17588
2323.80473,0.17307
2325.73320,0.16832
2327.66167,0.16168
2329.59014,0.16033
2331.51861,0.16288
2333.44708,0.16460
2335.37555,0.16278
2337.30401,0.15883
2339.23248,0.15686
2341.16095,0.15503
2343.08942,0.15708
2345.01789,0.16256
2346.94636,0.16223
2348.87483,0.15958
2350.80330,0.16018
2352.73176,0.15962
2354.66023,0.14575
2356.58870,0.12732
2358.51717,0.12922
2360.44564,0.15073
2362.37411,0.16897
2364.30258,0.17599
2366.23104,0.17852
2368.15951,0.17136
2370.08798,0.16284
2372.01645,0.16304
2373.94492,0.16717
2375.87339,0.17435
2377.80186,0.18226
2379.73033,0.18699
2381.65879,0.19029
2383.58726,0.19361
2385.51573,0.19449
2387.44420,0.19160
2389.37267,0.18796
2391.30114,0.18691
2393.22961,0.18897
2395.15807,0.19233
2397.08654,0.19391
2399.01501,0.19297
2400.94348,0.19315
2402.87195,0.19586
2404.80042,0.19662
2406.72889,0.19531
2408.65736,0.19672
2410.58582,0.19934
2412.51429,0.19892
2414.44276,0.19624
2416.37123,0.19407
2418.29970,0.19260
2420.22817,0.19064
2422.15664,0.18930
2424.08510,0.19033
2426.01357,0.19112
2427.94204,0.18917
2429.87051,0.18776
2431.79898,0.19002
2433.72745,0.19420
2435.65592,0.19686
2437.58439,0.19680
2439.51285,0.19476
2441.44132,0.19314
2443.36979,0.19332
2445.29826,0.19376
2447.22673,0.19365
2449.15520,0.19278
2451.08367,0.19071
2453.01213,0.18867
2454.94060,0.18900
2456.86907,0.19141
2458.79754,0.19357
2460.72601,0.19587
2462.65448,0.19728
2464.58295,0.19608
2466.51142,0.19548
2468.43988,0.19682
2470.36835,0.19759
2472.29682,0.19699
2474.22529,0.19421
2476.15376,0.18977
2478.08223,0.18755
2480.01070,0.18997
2481.93916,0.19414
2483.86763,0.19600
2485.79610,0.19617
2487.72457,0.19558
2489.65304,0.19416
2491.58151,0.19358
2493.50998,0.19318
2495.43844,0.19227
2497.36691,0.19252
2499.29538,0.19425
2501.22385,0.19513
2503.15232,0.19467
2505.08079,0.19453
2507.00926,0.19305
2508.93773,0.19033
2510.86619,0.19021
2512.79466,0.19241
2514.72313,0.19388
2516.65160,0.19311
2518.58007,0.19010
2520.50854,0.18762
2522.43701,0.18853
2524.36547,0.19133
2526.29394,0.19378
2528.22241,0.19527
2530.15088,0.19624
2532.07935,0.19748
2534.00782,0.19779
2535.93629,0.19705
2537.86476,0.19673
2539.79322,0.19702
2541.72169,0.19720
2543.65016,0.19669
2545.57863,0.19661
2547.50710,0.19588
2549.43557,0.19275
2551.36404,0.19104
2553.29250,0.19318
2555.22097,0.19632
2557.14944,0.19850
2559.07791,0.19943
2561.00638,0.19960
2562.93485,0.20036
2564.86332,0.20048
2566.79179,0.19797
2568.72025,0.19536
2570.64872,0.19521
2572.57719,0.19634
2574.50566,0.19770
2576.43413,0.19714
2578.36260,0.19378
2580.29107,0.19269
2582.21953,0.19484
2584.14800,0.19569
2586.07647,0.19461
2588.00494,0.19329
2589.93341,0.19311
2591.86188,0.19487
2593.79035,0.19786
2595.71882,0.20008
2597.64728,0.19987
2599.57575,0.19883
2601.50422,0.19896
2603.43269,0.19878
2605.36116,0.19679
2607.28963,0.19441
2609.21810,0.19447
2611.14656,0.19592
2613.07503,0.19677
2615.00350,0.20077
2616.93197,0.20469
2618.86044,0.20170
2620.78891,0.19654
2622.71738,0.19375
2624.64585,0.19346
2626.57431,0.19524
2628.50278,0.19775
2630.43125,0.20075
2632.35972,0.20188
2634.28819,0.20004
2636.21666,0.19801
2638.14513,0.19707
2640.07359,0.19667
2642.00206,0.19784
2643.93053,0.20075
2645.85900,0.20115
2647.78747,0.19764
2649.71594,0.19502
2651.64441,0.19485
2653.57288,0.19484
2655.50134,0.19565
2657.42981,0.19772
2659.35828,0.19884
2661.28675,0.19864
2663.21522,0.19834
2665.14369,0.19792
2667.07216,0.19797
2669.00062,0.19808
2670.92909,0.19667
2672.85756,0.19584
2674.78603,0.19754
2676.71450,0.20102
2678.64297,0.20407
2680.57144,0.20357
2682.49990,0.20128
2684.42837,0.20115
2686.35684,0.20262
2688.28531,0.20326
2690.21378,0.20249
2692.14225,0.20251
2694.07072,0.20433
2695.99919,0.20566
2697.92765,0.20422
2699.85612,0.20099
2701.78459,0.20036
2703.71306,0.20284
2705.64153,0.20329
2707.57000,0.20126
2709.49847,0.20164
2711.42693,0.20309
2713.35540,0.20192
2715.28387,0.20331
2717.21234,0.20938
2719.14081,0.21201
2721.06928,0.20774
2722.99775,0.20266
2724.92622,0.20151
2726.85468,0.20178
2728.78315,0.20013
2730.71162,0.19858
2732.64009,0.19957
2734.56856,0.20222
2736.49703,0.20567
2738.42550,0.20716
2740.35396,0.20458
2742.28243,0.20275
2744.21090,0.20467
2746.13937,0.20560
2748.06784,0.20225
2749.99631,0.19938
2751.92478,0.20146
2753.85325,0.20448
2755.78171,0.20328
2757.71018,0.19896
2759.63865,0.19731
2761.56712,0.20075
2763.49559,0.20409
2765.42406,0.20441
2767.35253,0.20342
2769.28099,0.20066
2771.20946,0.19824
2773.13793,0.19964
2775.06640,0.20191
2776.99487,0.20203
2778.92334,0.20229
2780.85181,0.20358
2782.78028,0.20397
2784.70874,0.20562
2786.63721,0.21015
2788.56568,0.21202
2790.49415,0.20854
2792.42262,0.20577
2794.35109,0.20763
2796.27956,0.20959
2798.20802,0.20751
2800.13649,0.20373
2802.06496,0.20275
2803.99343,0.20483
2805.92190,0.20657
2807.85037,0.20593
2809.77884,0.20525
2811.70731,0.20728
2813.63577,0.20912
2815.56424,0.20811
2817.49271,0.20625
2819.42118,0.20562
2821.34965,0.20630
2823.27812,0.20576
2825.20659,0.20348
2827.13505,0.20296
2829.06352,0.20475
2830.99199,0.20610
2832.92046,0.20755
2834.84893,0.21145
2836.77740,0.21482
2838.70587,0.21247
2840.63433,0.20658
2842.56280,0.20401
2844.49127,0.20528
2846.41974,0.20602
2848.34821,0.20545
2850.27668,0.20457
2852.20515,0.20504
2854.13362,0.20833
2856.06208,0.21065
2857.99055,0.21045
2859.91902,0.20876
2861.84749,0.20550
2863.77596,0.20504
2865.70443,0.20885
2867.63290,0.21188
2869.56136,0.20997
2871.48983,0.20527
2873.41830,0.20529
2875.34677,0.20912
2877.27524,0.20899
2879.20371,0.20680
2881.13218,0.20764
2883.06065,0.20911
2884.98911,0.20896
2886.91758,0.20914
2888.84605,0.20981
2890.77452,0.20947
2892.70299,0.20810
2894.63146,0.20516
2896.55993,0.20380
2898.48839,0.20743
2900.41686,0.21122
2902.34533,0.20974
2904.27380,0.20561
2906.20227,0.20549
2908.13074,0.20954
2910.05921,0.21319
2911.98768,0.21382
2913.91614,0.20897
2915.84461,0.20189
2917.77308,0.19931
2919.70155,0.19905
2921.63002,0.19952
2923.55849,0.19919
2925.48696,0.19693
2927.41542,0.20861
2929.34389,0.23184
2931.27236,0.24108
2933.20083,0.23101
2935.12930,0.20980
2937.05777,0.19276
2938.98624,0.19290
2940.91471,0.20132
2942.84317,0.20528
2944.77164,0.20123
2946.70011,0.19181
2948.62858,0.18896
2950.55705,0.19794
2952.48552,0.20663
2954.41399,0.20595
2956.34245,0.19609
2958.27092,0.18835
2960.19939,0.19404
2962.12786,0.20267
2964.05633,0.20183
2965.98480,0.19530
2967.91327,0.19246
2969.84174,0.19967
2971.77020,0.21172
2973.69867,0.21543
2975.62714,0.20762
2977.55561,0.19736
2979.48408,0.19486
2981.41255,0.20199
2983.34102,0.20985
2985.26948,0.20931
2987.19795,0.20252
2989.12642,0.20079
2991.05489,0.20687
2992.98336,0.21249
2994.91183,0.21325
2996.84030,0.21052
2998.76877,0.20762
3000.69723,0.20706
3002.62570,0.20751
3004.55417,0.20762
3006.48264,0.20879
3008.41111,0.20914
3010.33958,0.20270
3012.26805,0.18451
3014.19651,0.15338
3016.12498,0.12622
3018.05345,0.13518
3019.98192,0.17627
3021.91039,0.20853
3023.83886,0.21846
3025.76733,0.21840
3027.69579,0.21563
3029.62426,0.21465
3031.55273,0.21525
3033.48120,0.21413
3035.40967,0.21201
3037.33814,0.20961
3039.26661,0.20730
3041.19508,0.20723
3043.12354,0.20757
3045.05201,0.20615
3046.98048,0.20549
3048.90895,0.20765
3050.83742,0.21137
3052.76589,0.21207
3054.69436,0.20503
3056.62282,0.19437
3058.55129,0.19306
3060.47976,0.20112
3062.40823,0.20652
3064.33670,0.20414
3066.26517,0.19727
3068.19364,0.19607
3070.12211,0.20252
3072.05057,0.20754
3073.97904,0.20629
3075.90751,0.20275
3077.83598,0.20560
3079.76445,0.21235
3081.69292,0.21134
3083.62139,0.19833
3085.54985,0.18527
3087.47832,0.18706
3089.40679,0.19718
3091.33526,0.20012
3093.26373,0.19199
3095.19220,0.18668
3097.12067,0.19602
3099.04914,0.20884
3100.97760,0.21224
3102.90607,0.20425
3104.83454,0.19821
3106.76301,0.20399
3108.69148,0.21010
3110.61995,0.20855
3112.54842,0.20432
3114.47688,0.20574
3116.40535,0.20952
3118.33382,0.20758
3120.26229,0.20442
3122.19076,0.20673
3124.11923,0.21437
3126.04770,0.22106
3127.97617,0.22171
3129.90463,0.21541
3131.83310,0.20854
3133.76157,0.20913
3135.69004,0.21398
3137.61851,0.21667
3139.54698,0.21639
3141.47545,0.21654
3143.40391,0.21608
3145.33238,0.21337
3147.26085,0.21289
3149.18932,0.21749
3151.11779,0.22536
3153.04626,0.22930
3154.97473,0.22484
3156.90320,0.21849
3158.83166,0.21694
3160.76013,0.21792
3162.68860,0.21927
3164.61707,0.22334
3166.54554,0.22660
3168.47401,0.22234
3170.40248,0.21236
3172.33094,0.20503
3174.25941,0.20514
3176.18788,0.21162
3178.11635,0.22062
3180.04482,0.22661
3181.97329,0.22724
3183.90176,0.22511
3185.83022,0.22273
3187.75869,0.22046
3189.68716,0.21788
3191.61563,0.21562
3193.54410,0.21739
3195.47257,0.22311
3197.40104,0.22412
3199.32951,0.21797
3201.25797,0.21225
3203.18644,0.21138
3205.11491,0.21457
3207.04338,0.21852
3208.97185,0.21952
3210.90032,0.21845
3212.82879,0.21849
3214.75725,0.21888
3216.68572,0.21942
3218.61419,0.22111
3220.54266,0.22176
3222.47113,0.22081
3224.39960,0.21951
3226.32807,0.21869
3228.25654,0.21901
3230.18500,0.21742
3232.11347,0.21289
3234.04194,0.21321
3235.97041,0.22040
3237.89888,0.22498
3239.82735,0.22468
3241.75582,0.22373
3243.68428,0.22327
3245.61275,0.22183
3247.54122,0.21784
3249.46969,0.21561
3251.39816,0.21732
3253.32663,0.21748
3255.25510,0.21474
3257.18357,0.21503
3259.11203,0.21739
3261.04050,0.21412
3262.96897,0.20860
3264.89744,0.20675
3266.82591,0.20590
3268.75438,0.20635
3270.68285,0.21130
3272.61131,0.21825
3274.53978,0.22006
3276.46825,0.21505
3278.39672,0.21217
3280.32519,0.21636
3282.25366,0.21980
3284.18213,0.21826
3286.11060,0.21605
3288.03906,0.21449
3289.96753,0.21320
3291.89600,0.21316
3293.82447,0.21427
3295.75294,0.21447
3297.68141,0.21232
3299.60988,0.21071
3301.53834,0.21032
3303.46681,0.20846
3305.39528,0.20716
3307.32375,0.20865
3309.25222,0.21037
3311.18069,0.21145
3313.10916,0.21343
3315.03763,0.21579
3316.96609,0.21752
3318.89456,0.21760
3320.82303,0.21565
3322.75150,0.21485
3324.67997,0.21746
3326.60844,0.22020
3328.53691,0.22026
3330.46537,0.21850
3332.39384,0.21559
3334.32231,0.21165
3336.25078,0.20938
3338.17925,0.21092
3340.10772,0.21369
3342.03619,0.21623
3343.96466,0.21790
3345.89312,0.21563
3347.82159,0.21216
3349.75006,0.21196
3351.67853,0.21165
3353.60700,0.21076
3355.53547,0.21421
3357.46394,0.21747
3359.39240,0.21463
3361.32087,0.21130
3363.24934,0.21256
3365.17781,0.21496
3367.10628,0.21410
3369.03475,0.21472
3370.96322,0.22130
3372.89168,0.22644
3374.82015,0.22668
3376.74862,0.22661
3378.67709,0.22673
3380.60556,0.22528
3382.53403,0.22387
3384.46250,0.22557
3386.39097,0.22743
3388.31943,0.22321
3390.24790,0.21551
3392.17637,0.21122
3394.10484,0.21124
3396.03331,0.21431
3397.96178,0.21743
3399.89025,0.21518
3401.81871,0.20938
3403.74718,0.20739
3405.67565,0.21177
3407.60412,0.21712
3409.53259,0.21476
3411.46106,0.20586
3413.38953,0.20346
3415.31800,0.21133
3417.24646,0.22021
3419.17493,0.22258
3421.10340,0.21568
3423.03187,0.20660
3424.96034,0.20482
3426.88881,0.20556
3428.81728,0.20378
3430.74574,0.20456
3432.67421,0.20869
3434.60268,0.21272
3436.53115,0.21430
3438.45962,0.21173
3440.38809,0.21078
3442.31656,0.21215
3444.24503,0.20653
3446.17349,0.19845
3448.10196,0.19861
3450.03043,0.20169
3451.95890,0.19928
3453.88737,0.19316
3455.81584,0.18800
3457.74431,0.18384
3459.67277,0.18186
3461.60124,0.18660
3463.52971,0.19430
3465.45818,0.19566
3467.38665,0.19042
3469.31512,0.18588
3471.24359,0.18745
3473.17206,0.19247
3475.10052,0.19535
3477.02899,0.19849
3478.95746,0.20368
3480.88593,0.20392
3482.81440,0.19716
3484.74287,0.19029
3486.67134,0.18575
3488.59980,0.18339
3490.52827,0.18471
3492.45674,0.18859
3494.38521,0.19317
3496.31368,0.19588
3498.24215,0.19468
3500.17062,0.19010
3502.09909,0.18468
3504.02755,0.18309
3505.95602,0.18436
3507.88449,0.18513
3509.81296,0.18564
3511.74143,0.18342
3513.66990,0.17863
3515.59837,0.17762
3517.52683,0.18045
3519.45530,0.18187
3521.38377,0.18092
3523.31224,0.17746
3525.24071,0.17532
3527.16918,0.17832
3529.09765,0.17964
3531.02611,0.17463
3532.95458,0.16922
3534.88305,0.16919
3536.81152,0.17267
3538.73999,0.17445
3540.66846,0.17279
3542.59693,0.16868
3544.52540,0.16632
3546.45386,0.16800
3548.38233,0.17146
3550.31080,0.17981
3552.23927,0.18772
3554.16774,0.18227
3556.09621,0.17321
3558.02468,0.17025
3559.95314,0.16984
3561.88161,0.17485
3563.81008,0.18356
3565.73855,0.18718
3567.66702,0.18287
3569.59549,0.17428
3571.52396,0.16675
3573.45243,0.16094
3575.38089,0.15444
3577.30936,0.15020
3579.23783,0.15326
3581.16630,0.16038
3583.09477,0.16605
3585.02324,0.17143
3586.95171,0.17577
3588.88017,0.16848
3590.80864,0.15600
3592.73711,0.15121
3594.66558,0.15354
3596.59405,0.15636
3598.52252,0.15693
3600.45099,0.15476
3602.37946,0.14970
3604.30792,0.14812
3606.23639,0.15345
3608.16486,0.15682
3610.09333,0.15459
3612.02180,0.15428
3613.95027,0.15370
3615.87874,0.15211
3617.80720,0.15307
3619.73567,0.15164
3621.66414,0.14454
3623.59261,0.13956
3625.52108,0.14080
3627.44955,0.14757
3629.37802,0.15528
3631.30649,0.15575
3633.23495,0.15159
3635.16342,0.14752
3637.09189,0.14646
3639.02036,0.14523
3640.94883,0.14097
3642.87730,0.14009
3644.80577,0.14835
3646.73423,0.16493
3648.66270,0.18290
3650.59117,0.17850
3652.51964,0.15790
3654.44811,0.14275
3656.37658,0.13540
3658.30505,0.13351
3660.23352,0.13615
3662.16198,0.13964
3664.09045,0.13952
3666.01892,0.13980
3667.94739,0.14693
3669.87586,0.15811
3671.80433,0.16310
3673.73280,0.16762
3675.66126,0.16754
3677.58973,0.15095
3679.51820,0.13781
3681.44667,0.13475
3683.37514,0.13409
3685.30361,0.13322
3687.23208,0.13765
3689.16055,0.14578
3691.08901,0.14609
3693.01748,0.14156
3694.94595,0.13548
3696.87442,0.12793
3698.80289,0.12457
3700.73136,0.13058
3702.65983,0.13903
3704.58829,0.13945
3706.51676,0.13816
3708.44523,0.14242
3710.37370,0.15186
3712.30217,0.15446
3714.23064,0.14443
3716.15911,0.13456
3718.08757,0.13355
3720.01604,0.14579
3721.94451,0.16240
3723.87298,0.16470
3725.80145,0.15003
3727.72992,0.13706
3729.65839,0.13516
3731.58686,0.13928
3733.51532,0.15055
3735.44379,0.15474
3737.37226,0.14173
3739.30073,0.13684
3741.22920,0.13988
3743.15767,0.14198
3745.08614,0.14199
3747.01460,0.14066
3748.94307,0.13847
3750.87154,0.13635
3752.80001,0.13690
3754.72848,0.14007
3756.65695,0.14326
3758.58542,0.14081
3760.51389,0.13111
3762.44235,0.12694
3764.37082,0.13322
3766.29929,0.13971
3768.22776,0.13950
3770.15623,0.13525
3772.08470,0.12902
3774.01317,0.12652
3775.94163,0.12824
3777.87010,0.12866
3779.79857,0.12688
3781.72704,0.12533
3783.65551,0.12198
3785.58398,0.11772
3787.51245,0.11613
3789.44092,0.11988
3791.36938,0.12779
3793.29785,0.13415
3795.22632,0.13870
3797.15479,0.14011
3799.08326,0.13768
3801.01173,0.13959
3802.94020,0.14177
3804.86866,0.13513
3806.79713,0.12652
3808.72560,0.12543
3810.65407,0.12769
3812.58254,0.12876
3814.51101,0.13399
3816.43948,0.14334
3818.36795,0.14566
3820.29641,0.14008
3822.22488,0.13208
3824.15335,0.13139
3826.08182,0.13720
3828.01029,0.13976
3829.93876,0.13483
3831.86723,0.12974
3833.79569,0.12903
3835.72416,0.12878
3837.65263,0.12634
3839.58110,0.12482
3841.50957,0.12632
3843.43804,0.12584
3845.36651,0.12065
3847.29498,0.11843
3849.22344,0.12405
3851.15191,0.13026
3853.08038,0.12689
3855.00885,0.12093
3856.93732,0.11762
3858.86579,0.11484
3860.79426,0.11749
3862.72272,0.12610
3864.65119,0.13244
3866.57966,0.13189
3868.50813,0.12974
3870.43660,0.12857
3872.36507,0.12968
3874.29354,0.13019
3876.22200,0.12682
3878.15047,0.12455
3880.07894,0.12695
3882.00741,0.13090
3883.93588,0.13228
3885.86435,0.12877
3887.79282,0.12281
3889.72129,0.11842
3891.64975,0.11409
3893.57822,0.11334
3895.50669,0.11936
3897.43516,0.12898
3899.36363,0.13562
3901.29210,0.13202
3903.22057,0.12594
3905.14903,0.12578
3907.07750,0.12301
3909.00597,0.11620
3910.93444,0.11249
3912.86291,0.11310
3914.79138,0.11482
3916.71985,0.11726
3918.64832,0.12089
3920.57678,0.12357
3922.50525,0.12166
3924.43372,0.11667
3926.36219,0.11255
3928.29066,0.11089
3930.21913,0.11545
3932.14760,0.12196
3934.07606,0.11927
3936.00453,0.11331
3937.93300,0.11319
3939.86147,0.11601
3941.78994,0.11593
3943.71841,0.11363
3945.64688,0.11446
3947.57535,0.11550
3949.50381,0.11038
3951.43228,0.10523
3953.36075,0.10705
3955.28922,0.11163
3957.21769,0.11276
3959.14616,0.10923
3961.07463,0.10639
3963.00309,0.10932
3964.93156,0.11368
3966.86003,0.11402
3968.78850,0.11342
3970.71697,0.11492
3972.64544,0.11496
3974.57391,0.11149
3976.50238,0.11068
3978.43084,0.11462
3980.35931,0.11653
3982.28778,0.11590
3984.21625,0.11592
3986.14472,0.11253
3988.07319,0.10666
3990.00166,0.10486
3991.93012,0.10424
3993.85859,0.10197
3995.78706,0.10139
3997.71553,0.10290
3999.64400,0.10561
4001.57247,0.10843
4003.50094,0.10910
4005.42941,0.10640
4007.35787,0.10282
4009.28634,0.10238
4011.21481,0.10392
4013.14328,0.10547
4015.07175,0.10725
4017.00022,0.10695
4018.92869,0.10425
4020.85715,0.10221
4022.78562,0.10225
4024.71409,0.10336
4026.64256,0.10307
4028.57103,0.10076
4030.49950,0.09653
4032.42797,0.09110
4034.35644,0.08832
4036.28490,0.09227
4038.21337,0.10192
4040.14184,0.10753
4042.07031,0.10390
4043.99878,0.10227
4045.92725,0.10745
4047.85572,0.10613
4049.78418,0.09668
4051.71265,0.09028
4053.64112,0.08945
4055.56959,0.09201
4057.49806,0.09771
4059.42653,0.10467
4061.35500,0.10684
4063.28346,0.10154
4065.21193,0.09272
4067.14040,0.08825
4069.06887,0.09236
4070.99734,0.09854
4072.92581,0.10169
4074.85428,0.10147
4076.78275,0.09720
4078.71121,0.09045
4080.63968,0.08532
4082.56815,0.08576
4084.49662,0.08991
4086.42509,0.09405
4088.35356,0.09740
4090.28203,0.09865
4092.21049,0.09787
4094.13896,0.09477
4096.06743,0.09159
4097.99590,0.09456
4099.92437,0.09904
4101.85284,0.09786
4103.78131,0.09453
4105.70978,0.09275
4107.63824,0.09351
4109.56671,0.09471
4111.49518,0.09213
4113.42365,0.08870
4115.35212,0.09002
4117.28059,0.09392
4119.20906,0.09272
4121.13752,0.08532
4123.06599,0.08016
4124.99446,0.08233
4126.92293,0.08831
4128.85140,0.09116
4130.77987,0.08982
4132.70834,0.08977
4134.63681,0.09098
4136.56527,0.09112
4138.49374,0.09054
4140.42221,0.08713
4142.35068,0.08143
4144.27915,0.08032
4146.20762,0.08453
4148.13609,0.08682
4150.06455,0.08573
4151.99302,0.08409
4153.92149,0.08669
4155.84996,0.09401
4157.77843,0.09788
4159.70690,0.09429
4161.63537,0.08756
4163.56384,0.08537
4165.49230,0.08738
4167.42077,0.08668
4169.34924,0.08381
4171.27771,0.08452
4173.20618,0.08946
4175.13465,0.09117
4177.06312,0.08607
4178.99158,0.07940
4180.92005,0.07595
4182.84852,0.07663
4184.77699,0.07841
4186.70546,0.07965
4188.63393,0.08362
4190.56240,0.08726
4192.49087,0.08240
4194.41933,0.07317
4196.34780,0.06920
4198.27627,0.07247
4200.20474,0.07908
4202.13321,0.08183
4204.06168,0.07562
4205.99015,0.06517
4207.91861,0.06255
4209.84708,0.06705
4211.77555,0.06643
4213.70402,0.06365
4215.63249,0.06861
4217.56096,0.07659
4219.48943,0.07616
4221.41789,0.07077
4223.34636,0.07619
4225.27483,0.08640
4227.20330,0.08415
4229.13177,0.07733
4231.06024,0.07513
4232.98871,0.07286
4234.91718,0.07246
4236.84564,0.07402
4238.77411,0.07403
4240.70258,0.07413
4242.63105,0.07084
4244.55952,0.06607
4246.48799,0.06784
4248.41646,0.07222
4250.34492,0.07402
4252.27339,0.07542
4254.20186,0.07586
4256.13033,0.07204
4258.05880,0.06687
4259.98727,0.06330
4261.91574,0.05856
4263.84421,0.05366
4265.77267,0.05383
4267.70114,0.06022
4269.62961,0.06681
4271.55808,0.06828
4273.48655,0.06492
4275.41502,0.05916
4277.34349,0.05796
4279.27195,0.06553
4281.20042,0.07181
4283.12889,0.06978
4285.05736,0.06390
4286.98583,0.05693
4288.91430,0.05310
4290.84277,0.05316
4292.77124,0.05113
4294.69970,0.04905
4296.62817,0.05167
4298.55664,0.05724
4300.48511,0.06070
4302.41358,0.05540
4304.34205,0.04624
4306.27052,0.04524
4308.19898,0.04896
4310.12745,0.05196
4312.05592,0.05488
4313.98439,0.05469
4315.91286,0.05252
4317.84133,0.05252
4319.76980,0.05551
4321.69827,0.05709
4323.62673,0.05350
4325.55520,0.05180
4327.48367,0.05577
4329.41214,0.05633
4331.34061,0.05113
4333.26908,0.04706
4335.19755,0.04557
4337.12601,0.04412
4339.05448,0.04421
4340.98295,0.04966
4342.91142,0.05774
4344.83989,0.06158
4346.76836,0.06170
4348.69683,0.06102
4350.62530,0.05776
4352.55376,0.05371
4354.48223,0.05176
4356.41070,0.05170
4358.33917,0.05217
4360.26764,0.04892
4362.19611,0.04491
4364.12458,0.04889
4366.05304,0.05823
4367.98151,0.06166
4369.90998,0.05887
4371.83845,0.05874
4373.76692,0.05902
4375.69539,0.05323
4377.62386,0.04607
4379.55232,0.04360
4381.48079,0.04226
4383.40926,0.04064
4385.33773,0.04326
4387.26620,0.04449
4389.19467,0.03794
4391.12314,0.03251
4393.05161,0.03474
4394.98007,0.03722
4396.90854,0.03485
4398.83701,0.03299
4400.76548,0.03444
4402.69395,0.03352
4404.62242,0.03304
4406.55089,0.04061
4408.47935,0.04816
4410.40782,0.04732
4412.33629,0.04248
4414.26476,0.03762
4416.19323,0.03181
4418.12170,0.02943
4420.05017,0.03725
4421.97864,0.04650
4423.90710,0.04481
4425.83557,0.03737
4427.76404,0.03173
4429.69251,0.02821
4431.62098,0.03235
4433.54945,0.04114
4435.47792,0.04063
4437.40638,0.03545
4439.33485,0.03422
4441.26332,0.03155
4443.19179,0.02972
4445.12026,0.03233
4447.04873,0.03237
4448.97720,0.02940
4450.90567,0.02818
4452.83413,0.03023
4454.76260,0.03357
4456.69107,0.03195
4458.61954,0.02472
4460.54801,0.02018
4462.47648,0.02011
4464.40495,0.02178
4466.33341,0.03004
4468.26188,0.03904
4470.19035,0.03681
4472.11882,0.02997
4474.04729,0.02749
4475.97576,0.02443
4477.90423,0.01956
4479.83270,0.02367
4481.76116,0.03340
4483.68963,0.03497
4485.61810,0.03049
4487.54657,0.02649
4489.47504,0.02500
4491.40351,0.02971
4493.33198,0.03622
4495.26044,0.03458
4497.18891,0.03032
4499.11738,0.03104
4501.04585,0.02947
4502.97432,0.02007
4504.90279,0.01003
4506.83126,0.01058
4508.75973,0.01861
4510.68819,0.02501
4512.61666,0.03352
4514.54513,0.04264
4516.47360,0.04032
4518.40207,0.02865
4520.33054,0.01877
4522.25901,0.01361
4524.18747,0.01394
4526.11594,0.02099
4528.04441,0.02988
4529.97288,0.03043
4531.90135,0.02207
4533.82982,0.01570
4535.75829,0.01554
4537.68676,0.01772
4539.61522,0.02028
4541.54369,0.02444
4543.47216,0.02744
4545.40063,0.02540
4547.32910,0.02053
4549.25757,0.01580
4551.18604,0.01608
4553.11450,0.02352
4555.04297,0.02813
4556.97144,0.02387
4558.89991,0.01463
4560.82838,0.00627
4562.75685,0.00825
4564.68532,0.02211
4566.61378,0.03271
4568.54225,0.02647
4570.47072,0.01168
4572.39919,0.00549
4574.32766,0.00855
4576.25613,0.00965
4578.18460,0.00404
4580.11307,-0.00227
4582.04153,-0.00392
4583.97000,0.00272
4585.89847,0.01683
4587.82694,0.02661
4589.75541,0.02572
4591.68388,0.02007
4593.61235,0.01600
4595.54081,0.01125
4597.46928,0.00472
4599.39775,0.00169
4601.32622,0.00125
4603.25469,0.00192
4605.18316,0.00602
4607.11163,0.01089
4609.04010,0.01121
4610.96856,0.01273
4612.89703,0.02268
4614.82550,0.02979
4616.75397,0.02588
4618.68244,0.02070
4620.61091,0.01550
4622.53938,0.00268
4624.46784,-0.00957
4626.39631,-0.00768
4628.32478,0.00374
4630.25325,0.01264
4632.18172,0.01771
4634.11019,0.02124
4636.03866,0.02353
4637.96713,0.02542
4639.89559,0.02419
4641.82406,0.01866
4643.75253,0.01057
4645.68100,0.00157
4647.60947,-0.00295
4649.53794,-0.00150
4651.46641,0.00242
4653.39487,0.00964
4655.32334,0.01657
4657.25181,0.01723
4659.18028,0.01652
4661.10875,0.01609
4663.03722,0.01727
4664.96569,0.02545
4666.89416,0.03338
4668.82262,0.03104
4670.75109,0.01729
4672.67956,0.00493
4674.60803,0.00506
4676.53650,0.00524
4678.46497,-0.00410
4680.39344,-0.01224
4682.32190,-0.01204
4684.25037,-0.01074
4686.17884,-0.00968
4688.10731,0.00140
4690.03578,0.01486
4691.96425,0.01102
4693.89272,-0.00372
4695.82119,-0.00897
4697.74965,-0.00206
4699.67812,0.00775
4701.60659,0.01195
4703.53506,0.00487
4705.46353,-0.00655
4707.39200,-0.00765
4709.32047,0.00311
4711.24893,0.01809
4713.17740,0.02795
4715.10587,0.02500
4717.03434,0.01305
4718.96281,0.00473
4720.89128,0.00616
4722.81975,0.00756
4724.74821,0.00189
4726.67668,-0.00188
4728.60515,-0.00059
4730.53362,-0.00133
4732.46209,-0.00243
4734.39056,0.00121
4736.31903,0.00270
4738.24750,-0.00327
4740.17596,-0.00872
4742.10443,-0.00606
4744.03290,0.00103
4745.96137,0.00443
4747.88984,0.00133
4749.81831,-0.00230
4751.74678,0.00084
4753.67524,0.00555
4755.60371,0.00326
4757.53218,-0.00084
4759.46065,0.00259
4761.38912,0.00949
4763.31759,0.01557
4765.24606,0.01543
4767.17453,0.00401
4769.10299,-0.00602
4771.03146,-0.00497
4772.95993,-0.00057
4774.88840,-0.00112
4776.81687,-0.00636
4778.74534,-0.00926
4780.67381,-0.00567
4782.60227,0.00162
4784.53074,0.01003
4786.45921,0.01336
4788.38768,0.00568
4790.31615,0.00028
4792.24462,0.00258
4794.17309,-0.00336
4796.10156,-0.01580
4798.03002,-0.01604
4799.95849,-0.00267
4801.88696,0.00703
4803.81543,0.00323
4805.74390,-0.00154
4807.67237,0.00033
4809.60084,-0.00352
4811.52930,-0.01165
4813.45777,-0.00997
4815.38624,-0.00499
4817.31471,-0.00886
4819.24318,-0.00806
4821.17165,0.00834
4823.10012,0.02256
4825.02859,0.02354
4826.95705,0.02135
4828.88552,0.02121
4830.81399,0.01691
4832.74246,0.00710
4834.67093,0.00647
4836.59940,0.01661
4838.52787,0.01803
4840.45633,0.01061
4842.38480,0.00656
4844.31327,0.00742
4846.24174,0.00864
4848.17021,0.00986
4850.09868,0.01861
4852.02715,0.02792
4853.95562,0.02767
4855.88408,0.02742
4857.81255,0.03000
4859.74102,0.03070
4861.66949,0.02828
4863.59796,0.01960
4865.52643,0.00897
4867.45490,0.00292
4869.38336,-0.00001
4871.31183,0.00636
4873.24030,0.02031
4875.16877,0.01674
4877.09724,0.00197
4879.02571,0.00591
4880.95418,0.02051
4882.88265,0.02580
4884.81111,0.02784
4886.73958,0.03098
4888.66805,0.02761
4890.59652,0.02122
4892.52499,0.01714
4894.45346,0.00797
4896.38193,-0.00995
4898.31039,-0.02553
4900.23886,-0.02319
4902.16733,-0.00820
4904.09580,-0.00297
4906.02427,-0.00716
4907.95274,-0.00026
4909.88121,0.01484
4911.80967,0.02745
4913.73814,0.04364
4915.66661,0.05535
4917.59508,0.04573
4919.52355,0.02414
4921.45202,0.00927
4923.38049,0.00540
4925.30896,0.01365
4927.23742,0.02727
4929.16589,0.03229
4931.09436,0.02766
4933.02283,0.01668
4934.95130,0.00521
4936.87977,0.00560
4938.80824,0.01169
4940.73670,0.00751
4942.66517,0.00453
4944.59364,0.01561
4946.52211,0.02480
4948.45058,0.02195
4950.37905,0.01844
4952.30752,0.02218
4954.23599,0.02375
4956.16445,0.01387
4958.09292,0.00430
4960.02139,0.00469
4961.94986,0.00050
4963.87833,-0.01243
4965.80680,-0.01191
4967.73527,0.00082
4969.66373,0.00547
4971.59220,0.01104
4973.52067,0.02987
4975.44914,0.04837
4977.37761,0.05090
4979.30608,0.03721
4981.23455,0.02263
4983.16302,0.01858
4985.09148,0.01833
4987.01995,0.02040
4988.94842,0.02554
4990.87689,0.02367
4992.80536,0.01599
4994.73383,0.01597
4996.66230,0.02641
4998.59076,0.03139
5000.51923,0.02708
5002.44770,0.03092
5004.37617,0.03873
5006.30464,0.03648
5008.23311,0.02381
5010.16158,0.00049
5012.09005,-0.01650
5014.01851,-0.01630
5015.94698,-0.01613
5017.87545,-0.01435
5019.80392,-0.00288
5021.73239,0.00393
5023.66086,0.00849
5025.58933,0.02096
5027.51779,0.02810
5029.44626,0.02686
5031.37473,0.02705
5033.30320,0.02439
5035.23167,0.01893
5037.16014,0.01285
5039.08861,0.00301
5041.01708,0.00274
5042.94554,0.01348
5044.87401,0.02143
5046.80248,0.03160
5048.73095,0.03225
5050.65942,0.00869
5052.58789,-0.00109
5054.51636,0.01796
5056.44482,0.03015
5058.37329,0.03469
5060.30176,0.03977
5062.23023,0.03169
5064.15870,0.02237
5066.08717,0.02666
5068.01564,0.03085
5069.94410,0.02402
5071.87257,0.01924
5073.80104,0.02733
5075.72951,0.03967
5077.65798,0.04481
5079.58645,0.03313
5081.51492,0.01180
5083.44339,0.00598
5085.37185,0.01640
5087.30032,0.03073
5089.22879,0.04748
5091.15726,0.05386
5093.08573,0.04411
5095.01420,0.02962
5096.94267,0.02285
5098.87113,0.03255
5100.79960,0.04041
5102.72807,0.02937
5104.65654,0.01072
5106.58501,0.00488
5108.51348,0.01667
5110.44195,0.02247
5112.37042,0.01879
5114.29888,0.01863
5116.22735,0.01064
5118.15582,0.00138
5120.08429,0.01175
5122.01276,0.02911
5123.94123,0.03382
5125.86970,0.02933
5127.79816,0.02146
5129.72663,0.01447
5131.65510,0.01320
5133.58357,0.01619
5135.51204,0.02040
5137.44051,0.02168
5139.36898,0.03103
5141.29745,0.05609
5143.22591,0.07203
5145.15438,0.07748
5147.08285,0.09107
5149.01132,0.09047
5150.93979,0.06209
5152.86826,0.03618
5154.79673,0.02862
5156.72519,0.02729
5158.65366,0.02883
5160.58213,0.03603
5162.51060,0.04237
5164.43907,0.04646
5166.36754,0.04837
5168.29601,0.03930
5170.22448,0.02910
5172.15294,0.04242
5174.08141,0.06433
5176.00988,0.07027
5177.93835,0.07284
5179.86682,0.06867
5181.79529,0.04474
5183.72376,0.03005
5185.65222,0.03862
5187.58069,0.04205
5189.50916,0.03454
5191.43763,0.03264
5193.36610,0.03461
5195.29457,0.03318
5197.22304,0.03034
5199.15151,0.02892
5201.07997,0.02769
5203.00844,0.02026
5204.93691,0.00981
5206.86538,0.01342
5208.79385,0.03137
5210.72232,0.03940
5212.65079,0.03268
5214.57925,0.03346
5216.50772,0.05153
5218.43619,0.06908
5220.36466,0.07246
5222.29313,0.06919
5224.22160,0.06079
5226.15007,0.05057
5228.07854,0.05343
5230.00700,0.05862
5231.93547,0.06084
5233.86394,0.06969
5235.79241,0.07191
5237.72088,0.06406
5239.64935,0.05961
5241.57782,0.05763
5243.50628,0.05784
5245.43475,0.05780
5247.36322,0.05165
5249.29169,0.04936
5251.22016,0.04985
5253.14863,0.04562
5255.07710,0.03893
5257.00556,0.03080
5258.93403,0.02289
5260.86250,0.01272
5262.79097,0.00321
5264.71944,0.00732
5266.64791,0.02141
5268.57638,0.02580
5270.50485,0.02550
5272.43331,0.03807
5274.36178,0.05278
5276.29025,0.05078
5278.21872,0.03218
5280.14719,0.02505
5282.07566,0.03955
5284.00413,0.04467
5285.93259,0.03597
5287.86106,0.03568
5289.78953,0.04620
5291.71800,0.05687
5293.64647,0.05714
5295.57494,0.04359
5297.50341,0.03175
5299.43188,0.04140
5301.36034,0.05433
5303.28881,0.04596
5305.21728,0.03439
5307.14575,0.03480
5309.07422,0.03717
5311.00269,0.03387
5312.93116,0.02331
5314.85962,0.01971
5316.78809,0.03542
5318.71656,0.05727
5320.64503,0.06531
5322.57350,0.05743
5324.50197,0.05582
5326.43044,0.06533
5328.35891,0.06985
5330.28737,0.06186
5332.21584,0.04527
5334.14431,0.05078
5336.07278,0.09167
5338.00125,0.12872
5339.92972,0.12280
5341.85819,0.09290
5343.78665,0.06455
5345.71512,0.04369
5347.64359,0.03940
5349.57206,0.04946
5351.50053,0.05786
5353.42900,0.05732
5355.35747,0.05848
5357.28594,0.06810
5359.21440,0.07777
5361.14287,0.08007
5363.07134,0.07936
5364.99981,0.07254
5366.92828,0.06291
5368.85675,0.07377
5370.78522,0.08285
5372.71368,0.05702
5374.64215,0.03500
5376.57062,0.03587
5378.49909,0.02429
5380.42756,0.02412
5382.35603,0.05352
5384.28450,0.08101
5386.21297,0.08141
5388.14143,0.07072
5390.06990,0.06419
5391.99837,0.04868
5393.92684,0.03344
5395.85531,0.05057
5397.78378,0.07178
5399.71225,0.06353
5401.64071,0.05298
5403.56918,0.06601
5405.49765,0.08238
5407.42612,0.07775
5409.35459,0.06718
5411.28306,0.06659
5413.21153,0.05592
5415.13999,0.04529
5417.06846,0.05407
5418.99693,0.05636
5420.92540,0.04571
5422.85387,0.04210
5424.78234,0.04431
5426.71081,0.04842
5428.63928,0.06107
5430.56774,0.06773
5432.49621,0.05363
5434.42468,0.03338
5436.35315,0.02676
5438.28162,0.03814
5440.21009,0.07451
5442.13856,0.12025
5444.06702,0.13009
5445.99549,0.10068
5447.92396,0.06337
5449.85243,0.04178
5451.78090,0.04549
5453.70937,0.06064
5455.63784,0.06616
5457.56631,0.05666
5459.49477,0.04888
5461.42324,0.04472
5463.35171,0.03206
5465.28018,0.02909
5467.20865,0.04388
5469.13712,0.05690
5471.06559,0.06283
5472.99405,0.07801
5474.92252,0.11254
5476.85099,0.13222
5478.77946,0.11546
5480.70793,0.08609
5482.63640,0.05827
5484.56487,0.05448
5486.49334,0.08921
5488.42180,0.12509
5490.35027,0.12596
5492.27874,0.10045
5494.20721,0.07042
5496.13568,0.04987
5498.06415,0.04826
5499.99262,0.07247
5501.92108,0.09081
5503.84955,0.07173
5505.77802,0.04546
5507.70649,0.03591
5509.63496,0.02885
5511.56343,0.02437
5513.49190,0.02628
5515.42037,0.04175
5517.34883,0.07437
5519.27730,0.08884
5521.20577,0.07382
5523.13424,0.06375
5525.06271,0.06554
5526.99118,0.05578
5528.91965,0.03953
5530.84811,0.04518
5532.77658,0.06128
5534.70505,0.05699
5536.63352,0.03652
5538.56199,0.02593
5540.49046,0.04279
5542.41893,0.07828
5544.34740,0.10891
5546.27586,0.11762
5548.20433,0.10174
5550.13280,0.07472
5552.06127,0.05151
5553.98974,0.04423
5555.91821,0.05410
5557.84668,0.07459
5559.77514,0.09083
5561.70361,0.08779
5563.63208,0.07913
5565.56055,0.08742
5567.48902,0.09821
5569.41749,0.09272
5571.34596,0.08752
5573.27443,0.09326
5575.20289,0.09715
5577.13136,0.09293
5579.05983,0.08985
5580.98830,0.08409
5582.91677,0.06779
5584.84524,0.06046
5586.77371,0.07238
5588.70217,0.09417
5590.63064,0.10342
5592.55911,0.08879
5594.48758,0.07978
5596.41605,0.08726
5598.34452,0.08841
5600.27299,0.08031
5602.20145,0.06633
5604.12992,0.04778
5606.05839,0.04453
5607.98686,0.06283
5609.91533,0.08455
5611.84380,0.10214
5613.77227,0.12198
5615.70074,0.12699
5617.62920,0.10395
5619.55767,0.09458
5621.48614,0.10837
5623.41461,0.10429
5625.34308,0.08635
5627.27155,0.07800
5629.20002,0.07768
5631.12848,0.08469
5633.05695,0.09871
5634.98542,0.09393
5636.91389,0.07180
5638.84236,0.06932
5640.77083,0.07461
5642.69930,0.06600
5644.62777,0.05628
5646.55623,0.06002
5648.48470,0.07209
5650.41317,0.07295
5652.34164,0.04863
5654.27011,0.01953
5656.19858,0.03507
5658.12705,0.08564
5660.05551,0.12385
5661.98398,0.14431
5663.91245,0.13461
5665.84092,0.09545
5667.76939,0.08228
5669.69786,0.10124
5671.62633,0.10368
5673.55480,0.09781
5675.48326,0.11799
5677.41173,0.14092
5679.34020,0.13824
5681.26867,0.12384
5683.19714,0.11521
5685.12561,0.11742
5687.05408,0.12572
5688.98254,0.12815
5690.91101,0.11248
5692.83948,0.08457
5694.76795,0.07365
5696.69642,0.09448
5698.62489,0.12482
5700.55336,0.13606
5702.48183,0.13161
5704.41029,0.13851
5706.33876,0.15115
5708.26723,0.13572
5710.19570,0.09981
5712.12417,0.07993
5714.05264,0.07981
5715.98111,0.06939
5717.90957,0.03519
5719.83804,0.01127
5721.76651,0.03363
5723.69498,0.09023
5725.62345,0.13420
5727.55192,0.13736
5729.48039,0.12991
5731.40886,0.14312
5733.33732,0.15728
5735.26579,0.14182
5737.19426,0.09957
5739.12273,0.07901
5741.05120,0.10676
5742.97967,0.15121
5744.90814,0.17634
5746.83660,0.15248
5748.76507,0.07629
5750.69354,0.02033
5752.62201,0.03323
5754.55048,0.06049
5756.47895,0.07441
5758.40742,0.08199
5760.33588,0.07279
5762.26435,0.05961
5764.19282,0.05138
5766.12129,0.04224
5768.04976,0.04242
5769.97823,0.03688
5771.90670,0.01744
5773.83517,0.00682
5775.76363,0.00399
5777.69210,0.01377
5779.62057,0.03478
5781.54904,0.03026
5783.47751,0.01083
5785.40598,0.01298
5787.33445,0.03270
5789.26291,0.06480
5791.19138,0.09690
5793.11985,0.10202
5795.04832,0.08557
5796.97679,0.06004
5798.90526,0.02929
5800.83373,0.01699
5802.76220,0.03771
5804.69066,0.06954
5806.61913,0.07703
5808.54760,0.06607
5810.47607,0.08043
5812.40454,0.10554
5814.33301,0.09199
5816.26148,0.06055
5818.18994,0.05309
5820.11841,0.07454
5822.04688,0.10762
5823.97535,0.12714
5825.90382,0.11728
5827.83229,0.09180
5829.76076,0.08319
5831.68923,0.09188
5833.61769,0.08945
5835.54616,0.07557
5837.47463,0.08005
5839.40310,0.11091
5841.33157,0.13468
5843.26004,0.13361
5845.18851,0.13727
5847.11697,0.14898
5849.04544,0.13449
5850.97391,0.08981
5852.90238,0.04081
5854.83085,0.01405
5856.75932,0.02375
5858.68779,0.04412
5860.61626,0.05142
5862.54472,0.06562
5864.47319,0.09249
5866.40166,0.10165
5868.33013,0.08839
5870.25860,0.07709
5872.18707,0.08816
5874.11554,0.11336
5876.04400,0.12101
5877.97247,0.09595
5879.90094,0.05389
5881.82941,0.02656
5883.75788,0.03344
5885.68635,0.07327
5887.61482,0.10644
5889.54329,0.08647
5891.47175,0.04817
5893.40022,0.04599
5895.32869,0.07906
5897.25716,0.11737
5899.18563,0.13651
5901.11410,0.13555
5903.04257,0.12009
5904.97103,0.10246
5906.89950,0.06907
5908.82797,0.01113
5910.75644,0.00428
5912.68491,0.08316
5914.61338,0.16333
5916.54185,0.16912
5918.47032,0.12367
5920.39878,0.09171
5922.32725,0.09002
5924.25572,0.11175
5926.18419,0.15239
5928.11266,0.17966
5930.04113,0.17952
5931.96960,0.16059
5933.89806,0.10239
5935.82653,0.03920
5937.75500,0.04583
5939.68347,0.09623
5941.61194,0.12317
5943.54041,0.10952
5945.46888,0.08251
5947.39734,0.07600
5949.32581,0.09080
5951.25428,0.09687
5953.18275,0.08615
5955.11122,0.08548
5957.03969,0.11500
5958.96816,0.14436
5960.89663,0.13398
5962.82509,0.11186
5964.75356,0.09456
5966.68203,0.06178
5968.61050,0.01978
5970.53897,-0.01313
5972.46744,-0.01492
5974.39591,0.01755
5976.32437,0.03265
5978.25284,0.01829
5980.18131,0.03259
5982.10978,0.07971
5984.03825,0.09633
5985.96672,0.07209
5987.89519,0.04184
5989.82366,0.02208
5991.75212,0.03049
5993.68059,0.05866
5995.60906,0.07545
5997.53753,0.08903
5999.46600,0.10760
6001.39447,0.10617
6003.32294,0.09041
6005.25140,0.10070
6007.17987,0.13444
6009.10834,0.15515
6011.03681,0.14352
6012.96528,0.11450
6014.89375,0.10371
6016.82222,0.10471
6018.75069,0.09556
6020.67915,0.10115
6022.60762,0.10113
6024.53609,0.06585
6026.46456,0.05981
6028.39303,0.09185
6030.32150,0.09960
6032.24997,0.09519
6034.17843,0.08608
6036.10690,0.06397
6038.03537,0.05296
6039.96384,0.06822
6041.89231,0.08560
6043.82078,0.07089
6045.74925,0.05143
6047.67772,0.03788
6049.60618,0.03611
6051.53465,0.08098
6053.46312,0.13206
6055.39159,0.13999
6057.32006,0.11292
6059.24853,0.09295
6061.17700,0.10952
6063.10546,0.12461
6065.03393,0.11206
6066.96240,0.09037
6068.89087,0.03749
6070.81934,-0.03191
6072.74781,-0.04575
6074.67628,0.00124
6076.60475,0.06367
6078.53321,0.10609
6080.46168,0.10666
6082.39015,0.08537
6084.31862,0.07382
6086.24709,0.06512
6088.17556,0.06094
6090.10403,0.06708
6092.03249,0.05372
6093.96096,0.06609
6095.88943,0.13296
6097.81790,0.15884
6099.74637,0.11757
6101.67484,0.07753
6103.60331,0.07580
6105.53177,0.07245
6107.46024,0.04409
6109.38871,0.05308
6111.31718,0.10169
6113.24565,0.10276
6115.17412,0.04993
6117.10259,0.02697
6119.03106,0.04254
6120.95952,0.03747
6122.88799,0.04063
6124.81646,0.05354
6126.74493,0.04509
6128.67340,0.04704
6130.60187,0.03449
6132.53034,-0.01445
6134.45880,-0.00466
6136.38727,0.08096
6138.31574,0.13241
6140.24421,0.10720
6142.17268,0.07910
6144.10115,0.10011
6146.02962,0.13992
6147.95809,0.15794
6149.88655,0.14068
6151.81502,0.08973
6153.74349,0.01662
6155.67196,-0.05874
6157.60043,-0.09729
6159.52890,-0.03816
6161.45737,0.08060
6163.38583,0.12756
6165.31430,0.09495
6167.24277,0.07098
6169.17124,0.07580
6171.09971,0.08369
6173.02818,0.08684
6174.95665,0.08350
6176.88512,0.04985
6178.81358,0.00442
6180.74205,0.01882
6182.67052,0.08123
6184.59899,0.10431
6186.52746,0.07813
6188.45593,0.04631
6190.38440,0.05140
6192.31286,0.11025
6194.24133,0.14618
6196.16980,0.11584
6198.09827,0.09009
6200.02674,0.10056
6201.95521,0.12447
6203.88368,0.11824
6205.81215,0.08728
6207.74061,0.10722
6209.66908,0.15912
6211.59755,0.19593
6213.52602,0.21445
6215.45449,0.17737
6217.38296,0.09464
6219.31143,0.03939
6221.23989,0.03581
6223.16836,0.03794
6225.09683,0.03759
6227.02530,0.09530
6228.95377,0.17741
6230.88224,0.17706
6232.81071,0.09987
6234.73918,0.06685
6236.66764,0.09829
6238.59611,0.14242
6240.52458,0.16147
6242.45305,0.11800
6244.38152,0.03522
6246.30999,-0.00998
6248.23846,0.01441
6250.16692,0.06051
6252.09539,0.07713
6254.02386,0.06256
6255.95233,0.04398
6257.88080,0.06439
6259.80927,0.11667
6261.73774,0.15217
6263.66621,0.15108
6265.59467,0.11803
6267.52314,0.08202
6269.45161,0.07593
6271.38008,0.07309
6273.30855,0.04738
6275.23702,0.04473
6277.16549,0.08657
6279.09395,0.10684
6281.02242,0.08709
6282.95089,0.07698
6284.87936,0.06588
6286.80783,0.02743
6288.73630,0.00810
6290.66477,0.03427
6292.59323,0.06836
6294.52170,0.08344
6296.45017,0.10037
6298.37864,0.11508
6300.30711,0.08593
6302.23558,0.04903
6304.16405,0.06108
6306.09252,0.07905
6308.02098,0.07695
6309.94945,0.07845
6311.87792,0.10149
6313.80639,0.13912
6315.73486,0.16548
6317.66333,0.17509
6319.59180,0.16921
6321.52026,0.12954
6323.44873,0.04610
6325.37720,-0.03543
6327.30567,-0.04847
6329.23414,0.01173
6331.16261,0.07184
6333.09108,0.08763
6335.01955,0.09558
6336.94801,0.10865
6338.87648,0.08755
6340.80495,0.04048
6342.73342,0.02829
6344.66189,0.05024
6346.59036,0.05903
6348.51883,0.04102
6350.44729,0.00146
6352.37576,0.01579
6354.30423,0.08388
6356.23270,0.07715
6358.16117,0.01412
6360.08964,-0.00728
6362.01811,-0.00487
6363.94658,0.01896
6365.87504,0.07659
6367.80351,0.08792
6369.73198,0.04835
6371.66045,0.00518
6373.58892,-0.03196
6375.51739,-0.01918
6377.44586,0.01707
6379.37432,0.03437
6381.30279,0.06451
6383.23126,0.09261
6385.15973,0.04949
6387.08820,-0.03069
6389.01667,-0.05621
6390.94514,-0.00190
6392.87361,0.05615
6394.80207,0.03395
6396.73054,-0.01361
6398.65901,0.00403
6400.58748,0.06731
6402.51595,0.09860
6404.44442,0.09083
6406.37289,0.07669
6408.30135,0.07320
6410.22982,0.05149
6412.15829,-0.00996
6414.08676,-0.00790
6416.01523,0.09160
6417.94370,0.14748
6419.87217,0.06362
6421.80064,-0.05799
6423.72910,-0.08323
6425.65757,-0.00654
6427.58604,0.07195
6429.51451,0.13045
6431.44298,0.15741
6433.37145,0.13485
6435.29992,0.11393
6437.22838,0.07834
6439.15685,0.01176
6441.08532,-0.01515
6443.01379,0.02086
6444.94226,0.06966
6446.87073,0.07864
6448.79920,0.06382
6450.72766,0.06827
6452.65613,0.07243
6454.58460,0.05648
6456.51307,0.04307
6458.44154,0.03928
6460.37001,0.02839
6462.29848,0.00509
6464.22695,0.01906
6466.15541,0.08338
6468.08388,0.13076
6470.01235,0.13618
6471.94082,0.09745
6473.86929,0.06947
6475.79776,0.12753
6477.72623,0.14315
6479.65469,0.03689
6481.58316,-0.02187
6483.51163,0.00304
6485.44010,0.01364
6487.36857,0.05475
6489.29704,0.15210
6491.22551,0.18879
6493.15398,0.12716
6495.08244,0.08099
6497.01091,0.07158
6498.93938,0.04022
6500.86785,-0.00644
6502.79632,-0.00877
6504.72479,0.01796
6506.65326,0.03057
6508.58172,0.08886
6510.51019,0.18774
6512.43866,0.17501
6514.36713,0.08567
6516.29560,0.07617
6518.22407,0.09204
6520.15254,0.04565
6522.08101,0.00906
6524.00947,0.04370
6525.93794,0.12068
6527.86641,0.17622
6529.79488,0.16416
6531.72335,0.11567
6533.65182,0.11973
6535.58029,0.18858
6537.50875,0.19043
6539.43722,0.06201
6541.36569,-0.05987
6543.29416,-0.06909
6545.22263,0.00499
6547.15110,0.08764
6549.07957,0.13260
6551.00804,0.09341
6552.93650,-0.00997
6554.86497,-0.05507
6556.79344,0.00929
6558.72191,0.09195
6560.65038,0.12018
6562.57885,0.10234
6564.50732,0.06526
6566.43578,0.03852
6568.36425,0.00312
6570.29272,-0.03110
6572.22119,0.00182
6574.14966,0.06064
6576.07813,0.09876
6578.00660,0.14067
6579.93507,0.12615
6581.86353,0.04917
6583.79200,0.05520
6585.72047,0.10954
6587.64894,0.08517
6589.57741,0.04036
6591.50588,0.04292
6593.43435,0.07465
6595.36281,0.11020
6597.29128,0.16109
6599.21975,0.20738
6601.14822,0.16703
6603.07669,0.08196
6605.00516,0.04763
6606.93363,0.05815
6608.86210,0.08261
6610.79056,0.04624
6612.71903,-0.02763
6614.64750,-0.00588
6616.57597,0.04609
6618.50444,0.00164
6620.43291,-0.07485
6622.36138,-0.09150
6624.28984,-0.02607
6626.21831,0.06604
6628.14678,0.10821
6630.07525,0.10543
6632.00372,0.12820
6633.93219,0.15235
6635.86066,0.14803
6637.78912,0.14456
6639.71759,0.10923
6641.64606,0.06454
6643.57453,0.08141
6645.50300,0.13396
6647.43147,0.16665
6649.35994,0.14209
6651.28841,0.07706
6653.21687,0.04927
6655.14534,0.08892
6657.07381,0.14811
6659.00228,0.16698
6660.93075,0.12461
6662.85922,0.08458
6664.78769,0.11783
6666.71615,0.14027
6668.64462,0.06851
6670.57309,-0.02693
6672.50156,-0.06656
6674.43003,-0.00466
6676.35850,0.09063
6678.28697,0.09655
6680.21544,0.05769
6682.14390,0.02718
6684.07237,-0.06711
6686.00084,-0.18807
6687.92931,-0.18432
6689.85778,-0.03756
6691.78625,0.09750
6693.71472,0.14142
6695.64318,0.13307
6697.57165,0.09668
6699.50012,0.00555
6701.42859,-0.05298
6703.35706,-0.00242
6705.28553,-0.00529
6707.21400,-0.11819
6709.14247,-0.16890
6711.07093,-0.13670
6712.99940,-0.11803
6714.92787,-0.09141
6716.85634,-0.01297
6718.78481,0.02322
6720.71328,-0.01085
6722.64175,-0.01440
6724.57021,0.00111
6726.49868,0.02177
6728.42715,0.04949
6730.35562,0.04007
6732.28409,0.00109
6734.21256,-0.04370
6736.14103,-0.07615
6738.06950,-0.09474
6739.99796,-0.08843
6741.92643,0.00543
6743.85490,0.11943
6745.78337,0.15321
6747.71184,0.16674
6749.64031,0.18954
6751.56878,0.16447
6753.49724,0.09212
6755.42571,0.01216
6757.35418,-0.01838
6759.28265,0.02071
6761.21112,0.07788
6763.13959,0.12697
6765.06806,0.13386
6766.99653,0.04787
6768.92499,-0.04194
6770.85346,-0.04448
6772.78193,-0.02164
6774.71040,-0.01082
6776.63887,0.06655
6778.56734,0.17802
6780.49581,0.18197
6782.42427,0.09179
6784.35274,0.05451
6786.28121,0.09482
6788.20968,0.10522
6790.13815,0.06402
6792.06662,0.07240
6793.99509,0.13240
6795.92355,0.16003
6797.85202,0.15795
6799.78049,0.13839
6801.70896,0.08225
6803.63743,0.04229
6805.56590,0.04868
6807.49437,0.05267
6809.42284,0.09725
6811.35130,0.22313
6813.27977,0.30015
6815.20824,0.24330
6817.13671,0.13478
6819.06518,0.06155
6820.99365,0.04882
6822.92212,0.08614
6824.85058,0.15124
6826.77905,0.20360
6828.70752,0.17115
6830.63599,0.10979
6832.56446,0.11865
6834.49293,0.12725
6836.42140,0.03315
6838.34987,-0.11987
6840.27833,-0.18402
6842.20680,-0.15473
6844.13527,-0.14450
6846.06374,-0.16560
6847.99221,-0.11846
6849.92068,0.05041
6851.84915,0.18852
6853.77761,0.15922
6855.70608,0.03293
6857.63455,-0.00821
6859.56302,0.02549
6861.49149,0.04560
6863.41996,0.06235
6865.34843,0.09309
6867.27690,0.08861
6869.20536,0.04404
6871.13383,0.02949
6873.06230,0.07426
6874.99077,0.09014
6876.91924,0.00267
6878.84771,-0.07843
6880.77618,0.00941
6882.70464,0.14607
6884.63311,0.16375
6886.56158,0.13372
6888.49005,0.15036
6890.41852,0.17907
6892.34699,0.16929
6894.27546,0.06499
6896.20393,-0.10546
6898.13239,-0.16817
6900.06086,-0.11619
6901.98933,-0.04867
6903.91780,0.04915
6905.84627,0.13363
6907.77474,0.15887
6909.70321,0.12902
6911.63167,0.07402
6913.56014,0.05934
6915.48861,0.09834
6917.41708,0.14666
6919.34555,0.08166
6921.27402,-0.07616
6923.20249,-0.11751
6925.13096,-0.02213
6927.05942,0.11401
6928.98789,0.18810
6930.91636,0.15058
6932.84483,0.04728
6934.77330,-0.06429
6936.70177,-0.12696
6938.63024,-0.10222
6940.55870,0.01264
6942.48717,0.10695
6944.41564,0.08362
6946.34411,-0.00561
6948.27258,-0.04298
6950.20105,0.03356
6952.12952,0.10915
6954.05799,0.07003
6955.98645,0.05399
6957.91492,0.09732
6959.84339,0.08115
6961.77186,0.02011
6963.70033,-0.02518
6965.62880,-0.00756
6967.55727,0.03889
6969.48573,0.01324
6971.41420,0.00562
6973.34267,0.10144
6975.27114,0.13350
6977.19961,0.04681
6979.12808,-0.05204
6981.05655,-0.07940
6982.98501,-0.01424
6984.91348,0.04556
6986.84195,0.07451
6988.77042,0.14393
6990.69889,0.18447
6992.62736,0.13448
6994.55583,0.07929
6996.48430,0.07664
6998.41276,0.06166
7000.34123,0.04761
7002.26970,0.12171
7004.19817,0.17057
7006.12664,0.10533
7008.05511,0.00889
7009.98358,-0.02616
7011.91204,0.02169
7013.84051,0.10299
7015.76898,0.11239
7017.69745,0.06847
7019.62592,0.06956
7021.55439,0.12284
7023.48286,0.15607
7025.41133,0.14594
7027.33979,0.16184
7029.26826,0.20163
7031.19673,0.14582
7033.12520,0.07086
7035.05367,0.10900
7036.98214,0.17164
7038.91061,0.18731
7040.83907,0.20504
7042.76754,0.23004
7044.69601,0.24220
7046.62448,0.28349
7048.55295,0.35976
7050.48142,0.37388
7052.40989,0.26707
7054.33836,0.13094
7056.26682,0.09207
7058.19529,0.12059
7060.12376,0.08029
7062.05223,-0.03981
7063.98070,-0.16056
7065.90917,-0.25481
7067.83764,-0.31600
7069.76610,-0.29337
7071.69457,-0.18581
7073.62304,-0.09584
7075.55151,-0.07203
7077.47998,-0.01811
7079.40845,0.15644
7081.33692,0.35535
7083.26539,0.39218
7085.19385,0.35038
7087.12232,0.31168
7089.05079,0.23080
7090.97926,0.15303
7092.90773,0.18232
7094.83620,0.22080
7096.76467,0.11181
7098.69313,-0.06641
7100.62160,-0.10689
7102.55007,0.01778
7104.47854,0.14064
7106.40701,0.15323
7108.33548,0.11123
7110.26395,0.01969
7112.19242,-0.03632
7114.12088,0.03181
7116.04935,0.13006
7117.97782,0.15611
7119.90629,0.09502
7121.83476,0.03885
7123.76323,0.05130
7125.69170,0.11482
7127.62016,0.17881
7129.54863,0.19999
7131.47710,0.15838
7133.40557,0.06391
7135.33404,-0.03481
7137.26251,-0.09586
7139.19098,-0.10556
7141.11944,-0.04789
7143.04791,0.09294
7144.97638,0.26157
7146.90485,0.34736
7148.83332,0.33144
7150.76179,0.24332
7152.69026,0.09056
7154.61873,-0.05833
7156.54719,-0.07311
7158.47566,0.02995
7160.40413,0.12153
7162.33260,0.14190
7164.26107,0.11684
7166.18954,0.04744
7168.11801,-0.03563
7170.04647,-0.06392
7171.97494,0.01787
7173.90341,0.20630
7175.83188,0.32874
7177.76035,0.19526
7179.68882,-0.05920
7181.61729,-0.13520
7183.54576,0.01592
7185.47422,0.08576
7187.40269,0.06456
7189.33116,0.08170
7191.25963,0.13181
7193.18810,0.14902
7195.11657,0.07807
7197.04504,0.05691
7198.97350,0.18766
7200.90197,0.29927
7202.83044,0.27806
7204.75891,0.21116
7206.68738,0.22725
7208.61585,0.26489
7210.54432,0.18126
7212.47279,-0.06064
7214.40125,-0.22013
7216.32972,0.00005
7218.25819,0.37091
7220.18666,0.36715
7222.11513,0.25324
7224.04360,0.22707
7225.97207,0.20639
7227.90053,0.22527
7229.82900,0.28389
7231.75747,0.15899
7233.68594,-0.07081
7235.61441,-0.08497
7237.54288,0.06496
7239.47135,0.09678
7241.39982,0.01968
7243.32828,0.03204
7245.25675,0.10509
7247.18522,0.16127
7249.11369,0.22532
7251.04216,0.31945
7252.97063,0.39545
7254.89910,0.33289
7256.82756,0.22829
7258.75603,0.12154
7260.68450,-0.03878
7262.61297,-0.08229
7264.54144,0.09714
7266.46991,0.20829
7268.39838,0.17423
7270.32685,0.09174
7272.25531,-0.04268
7274.18378,-0.08754
7276.11225,-0.02590
7278.04072,0.00745
7279.96919,-0.04254
7281.89766,-0.10034
7283.82613,-0.00681
7285.75459,0.15511
7287.68306,0.19999
7289.61153,0.12996
7291.54000,0.03359
7293.46847,-0.02778
7295.39694,0.00449
7297.32541,0.06757
7299.25387,0.06531
7301.18234,0.06398
7303.11081,0.09173
7305.03928,0.03373
7306.96775,-0.07433
7308.89622,-0.09021
7310.82469,-0.09379
7312.75316,-0.12339
7314.68162,-0.10155
7316.61009,-0.06743
7318.53856,-0.06917
7320.46703,-0.04560
7322.39550,0.04819
7324.32397,0.15092
7326.25244,0.27776
7328.18090,0.45604
7330.10937,0.44346
7332.03784,0.20709
7333.96631,0.06031
7335.89478,0.01371
7337.82325,-0.08429
7339.75172,-0.16133
7341.68019,-0.10232
7343.60865,-0.07495
7345.53712,-0.01927
7347.46559,0.10534
7349.39406,0.15457
7351.32253,0.04353
7353.25100,-0.24476
7355.17947,-0.47112
7357.10793,-0.31700
7359.03640,0.04286
7360.96487,0.16257
7362.89334,0.13926
7364.82181,0.05806
7366.75028,-0.12189
7368.67875,-0.24489
7370.60722,-0.16738
7372.53568,-0.00741
7374.46415,0.08474
7376.39262,0.06149
7378.32109,0.15909
7380.24956,0.37740
7382.17803,0.50872
7384.10650,0.50902
7386.03496,0.36604
7387.96343,0.13055
7389.89190,0.02449
7391.82037,0.02698
7393.74884,0.06543
7395.67731,0.07710
7397.60578,0.00799
7399.53425,0.04030
7401.46271,0.15566
7403.39118,0.07165
7405.31965,-0.03803
7407.24812,0.12712
7409.17659,0.22448
7411.10506,0.09593
7413.03353,-0.00310
7414.96199,0.01256
7416.89046,0.13195
7418.81893,0.34659
7420.74740,0.35596
7422.67587,0.14973
7424.60434,0.02668
7426.53281,0.02016
7428.46128,0.04069
7430.38974,0.03202
7432.31821,0.05246
7434.24668,0.18361
7436.17515,0.29563
7438.10362,0.20866
7440.03209,0.03554
7441.96056,-0.04336
7443.88902,-0.12258
7445.81749,-0.25486
7447.74596,-0.28608
7449.67443,-0.10751
7451.60290,0.14562
7453.53137,0.21115
7455.45984,0.17960
7457.38831,0.19842
7459.31677,0.26105
7461.24524,0.29376
7463.17371,0.14866
7465.10218,-0.07298
7467.03065,-0.07537
7468.95912,0.04329
7470.88759,0.05885
7472.81605,-0.00868
7474.74452,-0.04084
7476.67299,0.01129
7478.60146,0.14161
7480.52993,0.22584
7482.45840,0.10479
7484.38687,-0.10077
7486.31533,-0.13422
7488.24380,0.05417
7490.17227,0.25603
7492.10074,0.24641
7494.02921,0.06090
7495.95768,-0.11103
7497.88615,-0.17193
