399.19301,0.32179
401.12148,0.14831
403.04995,0.04404
404.97842,0.23698
406.90689,0.36109
408.83536,0.39515
410.76382,0.36007
412.69229,0.31046
414.62076,0.36672
416.54923,0.49948
418.47770,0.49334
420.40617,0.26147
422.33464,0.15672
424.26311,0.16511
426.19157,0.11226
428.12004,0.01191
430.04851,-0.03593
431.97698,0.02829
433.90545,0.15732
435.83392,0.20975
437.76239,0.15146
439.69085,0.08925
441.61932,0.05266
443.54779,-0.01587
445.47626,-0.06374
447.40473,-0.01533
449.33320,0.09223
451.26167,0.16603
453.19013,0.19320
455.11860,0.22111
457.04707,0.23397
458.97554,0.17132
460.90401,0.11600
462.83248,0.13059
464.76095,0.16086
466.68942,0.16363
468.61788,0.12343
470.54635,0.07722
472.47482,0.10896
474.40329,0.20878
476.33176,0.21655
478.26023,0.20167
480.18870,0.23477
482.11716,0.26149
484.04563,0.21824
485.97410,0.13314
487.90257,0.08556
489.83104,0.12631
491.75951,0.20672
493.68798,0.27460
495.61645,0.29938
497.54491,0.24164
499.47338,0.18437
501.40185,0.18295
503.33032,0.17142
505.25879,0.13150
507.18726,0.08627
509.11573,0.08021
511.04419,0.10899
512.97266,0.09840
514.90113,0.04924
516.82960,0.03690
518.75807,0.07745
520.68654,0.11780
522.61501,0.13901
524.54348,0.12346
526.47194,0.07287
528.40041,0.04274
530.32888,0.03654
532.25735,0.03648
534.18582,0.06107
536.11429,0.09901
538.04276,0.11664
539.97122,0.11697
541.89969,0.12373
543.82816,0.15922
545.75663,0.17440
547.68510,0.12653
549.61357,0.10127
551.54204,0.19690
553.47051,0.34217
555.39897,0.36661
557.32744,0.26540
559.25591,0.18685
561.18438,0.16606
563.11285,0.15276
565.04132,0.14919
566.96979,0.16645
568.89825,0.16856
570.82672,0.15176
572.75519,0.13419
574.68366,0.10107
576.61213,0.07575
578.54060,0.09445
580.46907,0.12395
582.39754,0.13754
584.32600,0.14152
586.25447,0.12570
588.18294,0.11093
590.11141,0.11956
592.03988,0.12290
593.96835,0.11571
595.89682,0.11429
597.82528,0.10514
599.75375,0.08817
601.68222,0.09658
603.61069,0.13457
605.53916,0.15425
607.46763,0.13846
609.39610,0.12214
611.32456,0.12220
613.25303,0.12179
615.18150,0.10896
617.10997,0.09560
619.03844,0.09392
620.96691,0.09215
622.89538,0.07937
624.82385,0.07229
626.75231,0.08541
628.68078,0.10115
630.60925,0.09573
632.53772,0.07652
634.46619,0.06771
636.39466,0.07271
638.32313,0.08516
640.25159,0.10446
642.18006,0.12109
644.10853,0.12171
646.03700,0.11504
647.96547,0.11897
649.89394,0.12571
651.82241,0.13096
653.75088,0.14102
655.67934,0.14183
657.60781,0.12534
659.53628,0.11337
661.46475,0.13282
663.39322,0.15867
665.32169,0.16012
667.25016,0.15589
669.17862,0.15356
671.10709,0.14591
673.03556,0.15771
674.96403,0.17696
676.89250,0.17060
678.82097,0.14493
680.74944,0.12483
682.67791,0.10627
684.60637,0.08609
686.53484,0.08272
688.46331,0.10217
690.39178,0.12727
692.32025,0.14281
694.24872,0.14313
696.17719,0.13686
698.10565,0.14561
700.03412,0.15823
701.96259,0.14741
703.89106,0.13166
705.81953,0.13627
707.74800,0.14436
709.67647,0.13974
711.60494,0.13639
713.53340,0.14076
715.46187,0.14486
717.39034,0.14965
719.31881,0.15029
721.24728,0.14126
723.17575,0.13503
725.10422,0.13809
727.03268,0.14399
728.96115,0.15042
730.88962,0.15583
732.81809,0.15392
734.74656,0.14746
736.67503,0.14796
738.60350,0.15055
740.53197,0.14638
742.46043,0.14561
744.38890,0.15056
746.31737,0.15065
748.24584,0.14692
750.17431,0.14241
752.10278,0.13802
754.03125,0.13694
755.95971,0.13386
757.88818,0.12773
759.81665,0.12640
761.74512,0.13136
763.67359,0.13311
765.60206,0.12462
767.53053,0.12147
769.45900,0.12920
771.38746,0.13183
773.31593,0.13065
775.24440,0.12845
777.17287,0.12186
779.10134,0.12399
781.02981,0.13395
782.95828,0.13703
784.88674,0.14009
786.81521,0.14033
788.74368,0.12391
790.67215,0.10610
792.60062,0.10775
794.52909,0.12713
796.45756,0.14316
798.38602,0.14692
800.31449,0.15137
802.24296,0.15687
804.17143,0.15344
806.09990,0.14912
808.02837,0.14996
809.95684,0.14834
811.88531,0.14018
813.81377,0.13130
815.74224,0.13607
817.67071,0.14683
819.59918,0.14292
821.52765,0.12930
823.45612,0.12127
825.38459,0.12730
827.31305,0.13555
829.24152,0.13126
831.16999,0.12481
833.09846,0.12708
835.02693,0.13432
836.95540,0.13948
838.88387,0.14478
840.81234,0.15004
842.74080,0.14659
844.66927,0.14095
846.59774,0.14423
848.52621,0.14698
850.45468,0.14314
852.38315,0.14422
854.31162,0.15044
856.24008,0.15200
858.16855,0.14532
860.09702,0.13319
862.02549,0.12790
863.95396,0.13179
865.88243,0.13274
867.81090,0.13327
869.73937,0.14793
871.66783,0.16543
873.59630,0.16173
875.52477,0.14688
877.45324,0.14043
879.38171,0.14097
881.31018,0.14314
883.23865,0.14439
885.16711,0.14388
887.09558,0.14429
889.02405,0.14584
890.95252,0.14388
892.88099,0.14167
894.80946,0.14551
896.73793,0.14925
898.66640,0.14727
900.59486,0.14560
902.52333,0.14895
904.45180,0.15009
906.38027,0.14093
908.30874,0.12802
910.23721,0.12373
912.16568,0.13465
914.09414,0.15219
916.02261,0.15464
917.95108,0.14306
919.87955,0.13954
921.80802,0.14638
923.73649,0.15112
925.66496,0.15153
927.59343,0.15114
929.52189,0.15057
931.45036,0.14822
933.37883,0.14397
935.30730,0.14445
937.23577,0.14808
939.16424,0.14671
941.09271,0.14744
943.02117,0.15331
944.94964,0.15279
946.87811,0.14566
948.80658,0.14246
950.73505,0.14672
952.66352,0.15593
954.59199,0.16264
956.52045,0.15929
958.44892,0.14693
960.37739,0.13292
962.30586,0.12974
964.23433,0.14063
966.16280,0.15072
968.09127,0.15212
970.01974,0.15312
971.94820,0.15622
973.87667,0.15798
975.80514,0.15770
977.73361,0.15285
979.66208,0.15181
981.59055,0.16070
983.51902,0.16386
985.44748,0.15608
987.37595,0.15072
989.30442,0.15331
991.23289,0.15361
993.16136,0.14767
995.08983,0.15012
997.01830,0.16295
998.94677,0.16902
1000.87523,0.16219
1002.80370,0.15380
1004.73217,0.15399
1006.66064,0.15817
1008.58911,0.16008
1010.51758,0.16042
1012.44605,0.15852
1014.37451,0.15444
1016.30298,0.15412
1018.23145,0.16255
1020.15992,0.17246
1022.08839,0.16897
1024.01686,0.15091
1025.94533,0.13563
1027.87380,0.13299
1029.80226,0.13678
1031.73073,0.14460
1033.65920,0.15680
1035.58767,0.16701
1037.51614,0.17221
1039.44461,0.17256
1041.37308,0.16583
1043.30154,0.15711
1045.23001,0.15593
1047.15848,0.15867
1049.08695,0.15753
1051.01542,0.15459
1052.94389,0.15252
1054.87236,0.15297
1056.80083,0.15801
1058.72929,0.16382
1060.65776,0.16261
1062.58623,0.15404
1064.51470,0.14753
1066.44317,0.14882
1068.37164,0.15388
1070.30011,0.15901
1072.22857,0.16474
1074.15704,0.16482
1076.08551,0.15553
1078.01398,0.14968
1079.94245,0.14959
1081.87092,0.14698
1083.79939,0.14880
1085.72786,0.15779
1087.65632,0.16395
1089.58479,0.16186
1091.51326,0.15229
1093.44173,0.14669
1095.37020,0.15455
1097.29867,0.16120
1099.22714,0.15579
1101.15560,0.15379
1103.08407,0.16120
1105.01254,0.16884
1106.94101,0.17349
1108.86948,0.17156
1110.79795,0.16614
1112.72642,0.16612
1114.65489,0.17006
1116.58335,0.17273
1118.51182,0.16867
1120.44029,0.15674
1122.36876,0.14832
1124.29723,0.15202
1126.22570,0.16169
1128.15417,0.16593
1130.08263,0.16145
1132.01110,0.15729
1133.93957,0.15968
1135.86804,0.16234
1137.79651,0.15944
1139.72498,0.15552
1141.65345,0.15621
1143.58191,0.16005
1145.51038,0.16403
1147.43885,0.16472
1149.36732,0.16341
1151.29579,0.16671
1153.22426,0.16983
1155.15273,0.16524
1157.08120,0.15874
1159.00966,0.15827
1160.93813,0.16361
1162.86660,0.17047
1164.79507,0.17634
1166.72354,0.17862
1168.65201,0.17312
1170.58048,0.16546
1172.50894,0.16559
1174.43741,0.16742
1176.36588,0.16391
1178.29435,0.16264
1180.22282,0.16602
1182.15129,0.16855
1184.07976,0.16933
1186.00823,0.16977
1187.93669,0.16952
1189.86516,0.16771
1191.79363,0.16706
1193.72210,0.16948
1195.65057,0.17088
1197.57904,0.16957
1199.50751,0.16643
1201.43597,0.16233
1203.36444,0.15963
1205.29291,0.15751
1207.22138,0.15633
1209.14985,0.15874
1211.07832,0.16220
1213.00679,0.16436
1214.93526,0.16810
1216.86372,0.17251
1218.79219,0.17326
1220.72066,0.17195
1222.64913,0.17086
1224.57760,0.17161
1226.50607,0.17347
1228.43454,0.17233
1230.36300,0.17174
1232.29147,0.17244
1234.21994,0.16926
1236.14841,0.16709
1238.07688,0.16981
1240.00535,0.17187
1241.93382,0.17041
1243.86229,0.16741
1245.79075,0.16603
1247.71922,0.16783
1249.64769,0.16886
1251.57616,0.16637
1253.50463,0.16619
1255.43310,0.17050
1257.36157,0.17272
1259.29003,0.17184
1261.21850,0.17115
1263.14697,0.16938
1265.07544,0.16697
1267.00391,0.16558
1268.93238,0.16446
1270.86085,0.16426
1272.78932,0.16415
1274.71778,0.16316
1276.64625,0.16567
1278.57472,0.17128
1280.50319,0.17253
1282.43166,0.17027
1284.36013,0.17068
1286.28860,0.17158
1288.21706,0.16987
1290.14553,0.16872
1292.07400,0.16575
1294.00247,0.15884
1295.93094,0.15463
1297.85941,0.15573
1299.78788,0.15857
1301.71634,0.15526
1303.64481,0.14380
1305.57328,0.14166
1307.50175,0.15652
1309.43022,0.16952
1311.35869,0.17106
1313.28716,0.16950
1315.21563,0.17098
1317.14409,0.17591
1319.07256,0.17917
1321.00103,0.17658
1322.92950,0.17350
1324.85797,0.17220
1326.78644,0.16839
1328.71491,0.16453
1330.64337,0.16289
1332.57184,0.16404
1334.50031,0.16942
1336.42878,0.17429
1338.35725,0.17537
1340.28572,0.16911
1342.21419,0.14361
1344.14266,0.09652
1346.07112,0.07221
1347.99959,0.10909
1349.92806,0.15507
1351.85653,0.16517
1353.78500,0.16067
1355.71347,0.15775
1357.64194,0.15948
1359.57040,0.16433
1361.49887,0.16797
1363.42734,0.16937
1365.35581,0.17085
1367.28428,0.17232
1369.21275,0.17040
1371.14122,0.16937
1373.06969,0.17533
1374.99815,0.18581
1376.92662,0.19042
1378.85509,0.18549
1380.78356,0.17832
1382.71203,0.17743
1384.64050,0.18344
1386.56897,0.18983
1388.49743,0.18893
1390.42590,0.18550
1392.35437,0.18674
1394.28284,0.19083
1396.21131,0.19454
1398.13978,0.19424
1400.06825,0.18707
1401.99672,0.18211
1403.92518,0.18497
1405.85365,0.18636
1407.78212,0.18279
1409.71059,0.18095
1411.63906,0.18131
1413.56753,0.18452
1415.49600,0.19189
1417.42446,0.19855
1419.35293,0.19748
1421.28140,0.19492
1423.20987,0.19519
1425.13834,0.19293
1427.06681,0.18836
1428.99528,0.18554
1430.92375,0.18596
1432.85221,0.18841
1434.78068,0.19325
1436.70915,0.19631
1438.63762,0.19075
1440.56609,0.18366
1442.49456,0.18115
1444.42303,0.18509
1446.35149,0.19219
1448.27996,0.19398
1450.20843,0.18943
1452.13690,0.18994
1454.06537,0.19948
1455.99384,0.21268
1457.92231,0.21199
1459.85077,0.19719
1461.77924,0.18940
1463.70771,0.18928
1465.63618,0.19184
1467.56465,0.19297
1469.49312,0.19771
1471.42159,0.20888
1473.35006,0.21469
1475.27852,0.20817
1477.20699,0.19886
1479.13546,0.19045
1481.06393,0.18522
1482.99240,0.18596
1484.92087,0.19415
1486.84934,0.20847
1488.77780,0.22148
1490.70627,0.21378
1492.63474,0.19537
1494.56321,0.19088
1496.49168,0.20199
1498.42015,0.20964
1500.34862,0.20330
1502.27709,0.19557
1504.20555,0.20012
1506.13402,0.22770
1508.06249,0.24162
1509.99096,0.22430
1511.91943,0.21407
1513.84790,0.21398
1515.77637,0.21889
1517.70483,0.22352
1519.63330,0.23261
1521.56177,0.24208
1523.49024,0.23137
1525.41871,0.21887
1527.34718,0.21573
1529.27565,0.21106
1531.20412,0.20866
1533.13258,0.21435
1535.06105,0.21623
1536.98952,0.21742
1538.91799,0.23020
1540.84646,0.24182
1542.77493,0.23642
1544.70340,0.22383
1546.63186,0.20894
1548.56033,0.20116
1550.48880,0.20148
1552.41727,0.20591
1554.34574,0.21143
1556.27421,0.21954
1558.20268,0.22879
1560.13115,0.20912
1562.05961,0.19235
1563.98808,0.19201
1565.91655,0.19443
1567.84502,0.19526
1569.77349,0.19568
1571.70196,0.19356
1573.63043,0.19505
1575.55889,0.20088
1577.48736,0.19503
1579.41583,0.18218
1581.34430,0.17719
1583.27277,0.18022
1585.20124,0.18542
1587.12971,0.18616
1589.05818,0.18133
1590.98664,0.17721
1592.91511,0.17789
1594.84358,0.17999
1596.77205,0.17909
1598.70052,0.17802
1600.62899,0.18064
1602.55746,0.18395
1604.48592,0.18650
1606.41439,0.18931
1608.34286,0.18968
1610.27133,0.18647
1612.19980,0.18334
1614.12827,0.18571
1616.05674,0.19704
1617.98521,0.20570
1619.91367,0.20566
1621.84214,0.20782
1623.77061,0.20967
1625.69908,0.20500
1627.62755,0.19749
1629.55602,0.19131
1631.48449,0.19193
1633.41295,0.20171
1635.34142,0.21698
1637.26989,0.21972
1639.19836,0.21179
1641.12683,0.20584
1643.05530,0.20557
1644.98377,0.21321
1646.91223,0.22278
1648.84070,0.22062
1650.76917,0.22037
1652.69764,0.23206
1654.62611,0.22875
1656.55458,0.21357
1658.48305,0.20533
1660.41152,0.20200
1662.33998,0.20138
1664.26845,0.20350
1666.19692,0.20886
1668.12539,0.21792
1670.05386,0.22205
1671.98233,0.21522
1673.91080,0.21135
1675.83926,0.21194
1677.76773,0.21193
1679.69620,0.21424
1681.62467,0.22296
1683.55314,0.23293
1685.48161,0.22259
1687.41008,0.20911
1689.33855,0.20308
1691.26701,0.19946
1693.19548,0.20132
1695.12395,0.20985
1697.05242,0.22161
1698.98089,0.23143
1700.90936,0.22645
1702.83783,0.21457
1704.76629,0.21062
1706.69476,0.20511
1708.62323,0.19463
1710.55170,0.18993
1712.48017,0.19485
1714.40864,0.20775
1716.33711,0.22302
1718.26558,0.22186
1720.19404,0.20780
1722.12251,0.19824
1724.05098,0.19414
1725.97945,0.19324
1727.90792,0.19686
1729.83639,0.20514
1731.76486,0.21166
1733.69332,0.21029
1735.62179,0.20314
1737.55026,0.19942
1739.47873,0.19671
1741.40720,0.19217
1743.33567,0.19236
1745.26414,0.20151
1747.19261,0.21522
1749.12107,0.22300
1751.04954,0.21538
1752.97801,0.20186
1754.90648,0.19510
1756.83495,0.19568
1758.76342,0.19915
1760.69189,0.20275
1762.62035,0.20194
1764.54882,0.19558
1766.47729,0.19235
1768.40576,0.19717
1770.33423,0.20847
1772.26270,0.21568
1774.19117,0.20875
1776.11964,0.19951
1778.04810,0.19523
1779.97657,0.19527
1781.90504,0.19640
1783.83351,0.19593
1785.76198,0.19585
1787.69045,0.19828
1789.61892,0.20308
1791.54738,0.20635
1793.47585,0.20450
1795.40432,0.20291
1797.33279,0.20199
1799.26126,0.19988
1801.18973,0.19710
1803.11820,0.19374
1805.04666,0.19268
1806.97513,0.19474
1808.90360,0.19649
1810.83207,0.19512
1812.76054,0.19149
1814.68901,0.18789
1816.61748,0.18423
1818.54595,0.17940
1820.47441,0.17623
1822.40288,0.18089
1824.33135,0.19039
1826.25982,0.19607
1828.18829,0.19959
1830.11676,0.20021
1832.04523,0.19447
1833.97369,0.18924
1835.90216,0.18881
1837.83063,0.19143
1839.75910,0.19493
1841.68757,0.20042
1843.61604,0.20489
1845.54451,0.20102
1847.47298,0.19384
1849.40144,0.19000
1851.32991,0.18885
1853.25838,0.18797
1855.18685,0.18622
1857.11532,0.18515
1859.04379,0.18527
1860.97226,0.18557
1862.90072,0.18792
1864.82919,0.19395
1866.75766,0.20159
1868.68613,0.20374
1870.61460,0.19626
1872.54307,0.18791
1874.47154,0.18359
1876.40001,0.18276
1878.32847,0.18630
1880.25694,0.19164
1882.18541,0.19289
1884.11388,0.19047
1886.04235,0.18859
1887.97082,0.18876
1889.89929,0.18910
1891.82775,0.18813
1893.75622,0.18719
1895.68469,0.18678
1897.61316,0.18769
1899.54163,0.18885
1901.47010,0.18717
1903.39857,0.18438
1905.32704,0.18492
1907.25550,0.18846
1909.18397,0.19038
1911.11244,0.18858
1913.04091,0.18776
1914.96938,0.19146
1916.89785,0.19619
1918.82632,0.19715
1920.75478,0.19542
1922.68325,0.19224
1924.61172,0.18697
1926.54019,0.18444
1928.46866,0.18729
1930.39713,0.18965
1932.32560,0.18788
1934.25407,0.18654
1936.18253,0.18708
1938.11100,0.18705
1940.03947,0.18944
1941.96794,0.19396
1943.89641,0.19517
1945.82488,0.19428
1947.75335,0.19346
1949.68181,0.19288
1951.61028,0.19255
1953.53875,0.19172
1955.46722,0.19144
1957.39569,0.19127
1959.32416,0.18932
1961.25263,0.18814
1963.18110,0.19004
1965.10956,0.19245
1967.03803,0.19179
1968.96650,0.18815
1970.89497,0.18633
1972.82344,0.18680
1974.75191,0.18642
1976.68038,0.18559
1978.60884,0.18518
1980.53731,0.18605
1982.46578,0.18845
1984.39425,0.19047
1986.32272,0.19116
1988.25119,0.19130
1990.17966,0.19301
1992.10812,0.19585
1994.03659,0.19568
1995.96506,0.19170
1997.89353,0.18709
1999.82200,0.18559
2001.75047,0.18723
2003.67894,0.18793
2005.60741,0.18745
2007.53587,0.18919
2009.46434,0.19172
2011.39281,0.19089
2013.32128,0.18864
2015.24975,0.18965
2017.17822,0.19276
2019.10669,0.19370
2021.03515,0.19207
2022.96362,0.18974
2024.89209,0.18795
2026.82056,0.18775
2028.74903,0.18956
2030.67750,0.19261
2032.60597,0.19371
2034.53444,0.19053
2036.46290,0.18623
2038.39137,0.18454
2040.31984,0.18489
2042.24831,0.18539
2044.17678,0.18611
2046.10525,0.18668
2048.03372,0.18592
2049.96218,0.18525
2051.89065,0.18653
2053.81912,0.18815
2055.74759,0.18832
2057.67606,0.18771
2059.60453,0.18609
2061.53300,0.18557
2063.46147,0.18852
2065.38993,0.19096
2067.31840,0.19052
2069.24687,0.18919
2071.17534,0.18896
2073.10381,0.18998
2075.03228,0.19005
2076.96075,0.18903
2078.88921,0.18849
2080.81768,0.18855
2082.74615,0.18970
2084.67462,0.19259
2086.60309,0.19508
2088.53156,0.19407
2090.46003,0.19077
2092.38850,0.18970
2094.31696,0.19040
2096.24543,0.19029
2098.17390,0.19186
2100.10237,0.19551
2102.03084,0.19758
2103.95931,0.19702
2105.88778,0.19473
2107.81624,0.19256
2109.74471,0.19188
2111.67318,0.19207
2113.60165,0.19357
2115.53012,0.19567
2117.45859,0.19492
2119.38706,0.19262
2121.31553,0.19227
2123.24399,0.19279
2125.17246,0.19249
2127.10093,0.19141
2129.02940,0.19070
2130.95787,0.19215
2132.88634,0.19525
2134.81481,0.19735
2136.74327,0.19758
2138.67174,0.19780
2140.60021,0.19843
2142.52868,0.19788
2144.45715,0.19544
2146.38562,0.19214
2148.31409,0.19018
2150.24255,0.18919
2152.17102,0.18714
2154.09949,0.18525
2156.02796,0.18679
2157.95643,0.19039
2159.88490,0.19096
2161.81337,0.18926
2163.74184,0.18957
2165.67030,0.19098
2167.59877,0.19051
2169.52724,0.18919
2171.45571,0.19001
2173.38418,0.19331
2175.31265,0.19529
2177.24112,0.19347
2179.16958,0.19197
2181.09805,0.19304
2183.02652,0.19382
2184.95499,0.19274
2186.88346,0.19027
2188.81193,0.18973
2190.74040,0.19224
2192.66887,0.19373
2194.59733,0.19224
2196.52580,0.19017
2198.45427,0.19044
2200.38274,0.19243
2202.31121,0.19224
2204.23968,0.18955
2206.16815,0.18954
2208.09661,0.19244
2210.02508,0.19312
2211.95355,0.19173
2213.88202,0.19069
2215.81049,0.18955
2217.73896,0.18948
2219.66743,0.19057
2221.59590,0.18996
2223.52436,0.18950
2225.45283,0.19144
2227.38130,0.19387
2229.30977,0.19653
2231.23824,0.19854
2233.16671,0.19692
2235.09518,0.19265
2237.02364,0.18948
2238.95211,0.18815
2240.88058,0.18750
2242.80905,0.18689
2244.73752,0.18714
2246.66599,0.18897
2248.59446,0.18983
2250.52293,0.18885
2252.45139,0.18847
2254.37986,0.18995
2256.30833,0.19156
2258.23680,0.19083
2260.16527,0.18907
2262.09374,0.18794
2264.02221,0.18809
2265.95067,0.19004
2267.87914,0.19038
2269.80761,0.18811
2271.73608,0.18678
2273.66455,0.18679
2275.59302,0.18685
2277.52149,0.18746
2279.44996,0.19009
2281.37842,0.19407
2283.30689,0.19576
2285.23536,0.19369
2287.16383,0.19074
2289.09230,0.19061
2291.02077,0.19323
2292.94924,0.19263
2294.87770,0.18667
2296.80617,0.18467
2298.73464,0.19074
2300.66311,0.19735
2302.59158,0.20055
2304.52005,0.20052
2306.44852,0.19870
2308.37699,0.19766
2310.30545,0.19598
2312.23392,0.19500
2314.16239,0.19941
2316.09086,0.20291
2318.01933,0.19770
2319.94780,0.18994
2321.87627,0.19183
2323.80473,0.20621
2325.73320,0.21988
2327.66167,0.22197
2329.59014,0.21570
2331.51861,0.20477
2333.44708,0.19712
2335.37555,0.20255
2337.30401,0.21347
2339.23248,0.21635
2341.16095,0.21316
2343.08942,0.21383
2345.01789,0.21512
2346.94636,0.21253
2348.87483,0.21236
2350.80330,0.21336
2352.73176,0.20980
2354.66023,0.20617
2356.58870,0.20663
2358.51717,0.20612
2360.44564,0.21131
2362.37411,0.21467
2364.30258,0.21201
2366.23104,0.22188
2368.15951,0.23045
2370.08798,0.21796
2372.01645,0.20161
2373.94492,0.19543
2375.87339,0.19259
2377.80186,0.18906
2379.73033,0.18926
2381.65879,0.19308
2383.58726,0.19443
2385.51573,0.19001
2387.44420,0.18432
2389.37267,0.18393
2391.30114,0.18917
2393.22961,0.19491
2395.15807,0.19682
2397.08654,0.19512
2399.01501,0.19210
2400.94348,0.19045
2402.87195,0.19180
2404.80042,0.19282
2406.72889,0.19131
2408.65736,0.19024
2410.58582,0.19203
2412.51429,0.19534
2414.44276,0.19577
2416.37123,0.19216
2418.29970,0.18917
2420.22817,0.18858
2422.15664,0.18823
2424.08510,0.18829
2426.01357,0.18960
2427.94204,0.19212
2429.87051,0.19479
2431.79898,0.19559
2433.72745,0.19436
2435.65592,0.19279
2437.58439,0.19123
2439.51285,0.18885
2441.44132,0.18803
2443.36979,0.19109
2445.29826,0.19497
2447.22673,0.19623
2449.15520,0.19547
2451.08367,0.19486
2453.01213,0.19384
2454.94060,0.19303
2456.86907,0.19385
2458.79754,0.19411
2460.72601,0.19403
2462.65448,0.19434
2464.58295,0.19374
2466.51142,0.19263
2468.43988,0.19178
2470.36835,0.19184
2472.29682,0.19253
2474.22529,0.19403
2476.15376,0.19650
2478.08223,0.19736
2480.01070,0.19515
2481.93916,0.19300
2483.86763,0.19521
2485.79610,0.19894
2487.72457,0.19748
2489.65304,0.19175
2491.58151,0.18778
2493.50998,0.18783
2495.43844,0.18947
2497.36691,0.19082
2499.29538,0.19297
2501.22385,0.19533
2503.15232,0.19590
2505.08079,0.19464
2507.00926,0.19311
2508.93773,0.19340
2510.86619,0.19488
2512.79466,0.19673
2514.72313,0.19849
2516.65160,0.19741
2518.58007,0.19438
2520.50854,0.19360
2522.43701,0.19443
2524.36547,0.19455
2526.29394,0.19612
2528.22241,0.19852
2530.15088,0.19704
2532.07935,0.19228
2534.00782,0.18932
2535.93629,0.19043
2537.86476,0.19280
2539.79322,0.19382
2541.72169,0.19360
2543.65016,0.19273
2545.57863,0.19051
2547.50710,0.18670
2549.43557,0.18514
2551.36404,0.18773
2553.29250,0.19111
2555.22097,0.19262
2557.14944,0.19149
2559.07791,0.18904
2561.00638,0.19035
2562.93485,0.19556
2564.86332,0.19692
2566.79179,0.19331
2568.72025,0.19209
2570.64872,0.19483
2572.57719,0.19587
2574.50566,0.19396
2576.43413,0.19230
2578.36260,0.19231
2580.29107,0.19528
2582.21953,0.20027
2584.14800,0.20111
2586.07647,0.19462
2588.00494,0.18819
2589.93341,0.18870
2591.86188,0.19218
2593.79035,0.19465
2595.71882,0.19702
2597.64728,0.19804
2599.57575,0.19620
2601.50422,0.19388
2603.43269,0.19384
2605.36116,0.19512
2607.28963,0.19593
2609.21810,0.19754
2611.14656,0.19905
2613.07503,0.19751
2615.00350,0.19575
2616.93197,0.19554
2618.86044,0.19329
2620.78891,0.18996
2622.71738,0.18952
2624.64585,0.19341
2626.57431,0.20050
2628.50278,0.20434
2630.43125,0.20172
2632.35972,0.19777
2634.28819,0.19500
2636.21666,0.19374
2638.14513,0.19620
2640.07359,0.20090
2642.00206,0.20269
2643.93053,0.20056
2645.85900,0.19795
2647.78747,0.19656
2649.71594,0.19673
2651.64441,0.19898
2653.57288,0.20135
2655.50134,0.20151
2657.42981,0.20130
2659.35828,0.20167
2661.28675,0.20041
2663.21522,0.19874
2665.14369,0.19838
2667.07216,0.19779
2669.00062,0.19769
2670.92909,0.19948
2672.85756,0.20069
2674.78603,0.20038
2676.71450,0.20008
2678.64297,0.19957
2680.57144,0.19869
2682.49990,0.19808
2684.42837,0.19875
2686.35684,0.20167
2688.28531,0.20499
2690.21378,0.20615
2692.14225,0.20468
2694.07072,0.20194
2695.99919,0.20045
2697.92765,0.19994
2699.85612,0.19897
2701.78459,0.19860
2703.71306,0.19845
2705.64153,0.19756
2707.57000,0.19787
2709.49847,0.20044
2711.42693,0.20410
2713.35540,0.20644
2715.28387,0.20506
2717.21234,0.20201
2719.14081,0.19980
2721.06928,0.19807
2722.99775,0.19807
2724.92622,0.20068
2726.85468,0.20437
2728.78315,0.20605
2730.71162,0.20472
2732.64009,0.20438
2734.56856,0.20601
2736.49703,0.20679
2738.42550,0.20633
2740.35396,0.20307
2742.28243,0.19724
2744.21090,0.19623
2746.13937,0.20208
2748.06784,0.20758
2749.99631,0.20919
2751.92478,0.20849
2753.85325,0.20849
2755.78171,0.21081
2757.71018,0.21217
2759.63865,0.21044
2761.56712,0.20761
2763.49559,0.20500
2765.42406,0.20193
2767.35253,0.19908
2769.28099,0.19965
2771.20946,0.20340
2773.13793,0.20590
2775.06640,0.20530
2776.99487,0.20375
2778.92334,0.20269
2780.85181,0.20087
2782.78028,0.19929
2784.70874,0.20087
2786.63721,0.20391
2788.56568,0.20495
2790.49415,0.20474
2792.42262,0.20516
2794.35109,0.20618
2796.27956,0.20840
2798.20802,0.21085
2800.13649,0.21013
2802.06496,0.20696
2803.99343,0.20473
2805.92190,0.20499
2807.85037,0.20758
2809.77884,0.20916
2811.70731,0.20772
2813.63577,0.20582
2815.56424,0.20517
2817.49271,0.20621
2819.42118,0.20973
2821.34965,0.21261
2823.27812,0.21042
2825.20659,0.20786
2827.13505,0.21163
2829.06352,0.21727
2830.99199,0.21776
2832.92046,0.21377
2834.84893,0.20887
2836.77740,0.20598
2838.70587,0.20643
2840.63433,0.20809
2842.56280,0.20749
2844.49127,0.20447
2846.41974,0.20274
2848.34821,0.20303
2850.27668,0.20312
2852.20515,0.20307
2854.13362,0.20344
2856.06208,0.20534
2857.99055,0.20769
2859.91902,0.20801
2861.84749,0.20831
2863.77596,0.20973
2865.70443,0.21118
2867.63290,0.21186
2869.56136,0.21029
2871.48983,0.20798
2873.41830,0.20679
2875.34677,0.20343
2877.27524,0.19807
2879.20371,0.19750
2881.13218,0.20248
2883.06065,0.20663
2884.98911,0.20623
2886.91758,0.20194
2888.84605,0.19813
2890.77452,0.19948
2892.70299,0.20398
2894.63146,0.20711
2896.55993,0.20747
2898.48839,0.20484
2900.41686,0.20355
2902.34533,0.20570
2904.27380,0.20518
2906.20227,0.20182
2908.13074,0.20180
2910.05921,0.20422
2911.98768,0.20308
2913.91614,0.19831
2915.84461,0.19607
2917.77308,0.19939
2919.70155,0.20387
2921.63002,0.20533
2923.55849,0.20226
2925.48696,0.19536
2927.41542,0.19381
2929.34389,0.20081
2931.27236,0.20689
2933.20083,0.20671
2935.12930,0.19997
2937.05777,0.19246
2938.98624,0.19380
2940.91471,0.20210
2942.84317,0.20808
2944.77164,0.20615
2946.70011,0.19830
2948.62858,0.19518
2950.55705,0.19995
2952.48552,0.20435
2954.41399,0.20201
2956.34245,0.19148
2958.27092,0.18505
2960.19939,0.19280
2962.12786,0.20344
2964.05633,0.20555
2965.98480,0.19762
2967.91327,0.18726
2969.84174,0.18824
2971.77020,0.19897
2973.69867,0.20571
2975.62714,0.20315
2977.55561,0.19578
2979.48408,0.19441
2981.41255,0.20157
2983.34102,0.20888
2985.26948,0.21276
2987.19795,0.21010
2989.12642,0.20417
2991.05489,0.20604
2992.98336,0.21446
2994.91183,0.21907
2996.84030,0.21581
2998.76877,0.21084
3000.69723,0.21080
3002.62570,0.21396
3004.55417,0.21307
3006.48264,0.20520
3008.41111,0.19754
3010.33958,0.19326
3012.26805,0.18093
3014.19651,0.15100
3016.12498,0.12206
3018.05345,0.12990
3019.98192,0.17162
3021.91039,0.20369
3023.83886,0.20825
3025.76733,0.20224
3027.69579,0.20045
3029.62426,0.20541
3031.55273,0.21056
3033.48120,0.21101
3035.40967,0.21035
3037.33814,0.20926
3039.26661,0.20704
3041.19508,0.20818
3043.12354,0.21440
3045.05201,0.21943
3046.98048,0.21636
3048.90895,0.20989
3050.83742,0.20886
3052.76589,0.21046
3054.69436,0.20690
3056.62282,0.20097
3058.55129,0.20316
3060.47976,0.21041
3062.40823,0.21315
3064.33670,0.20956
3066.26517,0.20270
3068.19364,0.20214
3070.12211,0.20665
3072.05057,0.20525
3073.97904,0.19805
3075.90751,0.19525
3077.83598,0.20187
3079.76445,0.20792
3081.69292,0.20586
3083.62139,0.19543
3085.54985,0.18639
3087.47832,0.19250
3089.40679,0.20391
3091.33526,0.20656
3093.26373,0.19903
3095.19220,0.19143
3097.12067,0.19740
3099.04914,0.20735
3100.97760,0.20611
3102.90607,0.19641
3104.83454,0.19086
3106.76301,0.19732
3108.69148,0.20842
3110.61995,0.21023
3112.54842,0.20531
3114.47688,0.20745
3116.40535,0.21181
3118.33382,0.20804
3120.26229,0.20145
3122.19076,0.20080
3124.11923,0.20946
3126.04770,0.21951
3127.97617,0.21835
3129.90463,0.20876
3131.83310,0.20529
3133.76157,0.21050
3135.69004,0.21550
3137.61851,0.21483
3139.54698,0.21081
3141.47545,0.21146
3143.40391,0.21669
3145.33238,0.21746
3147.26085,0.21265
3149.18932,0.20933
3151.11779,0.20942
3153.04626,0.21186
3154.97473,0.21638
3156.90320,0.21860
3158.83166,0.21739
3160.76013,0.21427
3162.68860,0.20936
3164.61707,0.20891
3166.54554,0.21447
3168.47401,0.21686
3170.40248,0.21619
3172.33094,0.21869
3174.25941,0.22051
3176.18788,0.22039
3178.11635,0.22248
3180.04482,0.22123
3181.97329,0.21592
3183.90176,0.21472
3185.83022,0.21312
3187.75869,0.20635
3189.68716,0.20096
3191.61563,0.20236
3193.54410,0.21246
3195.47257,0.22653
3197.40104,0.23310
3199.32951,0.22920
3201.25797,0.22474
3203.18644,0.22237
3205.11491,0.21628
3207.04338,0.20831
3208.97185,0.20274
3210.90032,0.20163
3212.82879,0.20444
3214.75725,0.20583
3216.68572,0.20479
3218.61419,0.20684
3220.54266,0.21395
3222.47113,0.22293
3224.39960,0.22689
3226.32807,0.22242
3228.25654,0.21582
3230.18500,0.21068
3232.11347,0.20638
3234.04194,0.20390
3235.97041,0.20341
3237.89888,0.20699
3239.82735,0.21312
3241.75582,0.21590
3243.68428,0.21678
3245.61275,0.21793
3247.54122,0.21620
3249.46969,0.21296
3251.39816,0.21101
3253.32663,0.21240
3255.25510,0.21552
3257.18357,0.21454
3259.11203,0.21327
3261.04050,0.21430
3262.96897,0.21102
3264.89744,0.20490
3266.82591,0.20308
3268.75438,0.20619
3270.68285,0.20851
3272.61131,0.20713
3274.53978,0.20919
3276.46825,0.21623
3278.39672,0.21854
3280.32519,0.21561
3282.25366,0.21386
3284.18213,0.21468
3286.11060,0.21548
3288.03906,0.21435
3289.96753,0.21425
3291.89600,0.21527
3293.82447,0.21303
3295.75294,0.20776
3297.68141,0.20644
3299.60988,0.21364
3301.53834,0.22261
3303.46681,0.22517
3305.39528,0.22191
3307.32375,0.22053
3309.25222,0.22364
3311.18069,0.22357
3313.10916,0.22014
3315.03763,0.21720
3316.96609,0.21287
3318.89456,0.21224
3320.82303,0.21730
3322.75150,0.21849
3324.67997,0.21490
3326.60844,0.21650
3328.53691,0.22201
3330.46537,0.22002
3332.39384,0.21288
3334.32231,0.21282
3336.25078,0.22011
3338.17925,0.22339
3340.10772,0.22061
3342.03619,0.21925
3343.96466,0.22101
3345.89312,0.22469
3347.82159,0.22846
3349.75006,0.22820
3351.67853,0.22222
3353.60700,0.21624
3355.53547,0.21756
3357.46394,0.22385
3359.39240,0.22734
3361.32087,0.22394
3363.24934,0.21691
3365.17781,0.21436
3367.10628,0.21768
3369.03475,0.22009
3370.96322,0.21986
3372.89168,0.21969
3374.82015,0.21832
3376.74862,0.21751
3378.67709,0.22056
3380.60556,0.22344
3382.53403,0.22449
3384.46250,0.22666
3386.39097,0.22379
3388.31943,0.21451
3390.24790,0.21153
3392.17637,0.21404
3394.10484,0.21257
3396.03331,0.21147
3397.96178,0.21328
3399.89025,0.21380
3401.81871,0.21453
3403.74718,0.21672
3405.67565,0.21944
3407.60412,0.22240
3409.53259,0.22083
3411.46106,0.21316
3413.38953,0.20916
3415.31800,0.21350
3417.24646,0.21780
3419.17493,0.21656
3421.10340,0.21186
3423.03187,0.20772
3424.96034,0.20896
3426.88881,0.21431
3428.81728,0.21562
3430.74574,0.21159
3432.67421,0.20704
3434.60268,0.20347
3436.53115,0.20194
3438.45962,0.20043
3440.38809,0.19754
3442.31656,0.19730
3444.24503,0.19973
3446.17349,0.20104
3448.10196,0.20071
3450.03043,0.20114
3451.95890,0.20321
3453.88737,0.20701
3455.81584,0.21070
3457.74431,0.21067
3459.67277,0.20659
3461.60124,0.20049
3463.52971,0.19729
3465.45818,0.19876
3467.38665,0.20018
3469.31512,0.19912
3471.24359,0.19698
3473.17206,0.19501
3475.10052,0.19401
3477.02899,0.19620
3478.95746,0.20198
3480.88593,0.20793
3482.81440,0.20775
3484.74287,0.19955
3486.67134,0.19232
3488.59980,0.19215
3490.52827,0.19467
3492.45674,0.19473
3494.38521,0.19231
3496.31368,0.19208
3498.24215,0.19545
3500.17062,0.19633
3502.09909,0.19243
3504.02755,0.18913
3505.95602,0.18818
3507.88449,0.18739
3509.81296,0.18574
3511.74143,0.18366
3513.66990,0.18326
3515.59837,0.18285
3517.52683,0.17944
3519.45530,0.17481
3521.38377,0.17264
3523.31224,0.17356
3525.24071,0.17782
3527.16918,0.18470
3529.09765,0.18544
3531.02611,0.17765
3532.95458,0.17132
3534.88305,0.17170
3536.81152,0.17672
3538.73999,0.18178
3540.66846,0.18400
3542.59693,0.18275
3544.52540,0.17961
3546.45386,0.17724
3548.38233,0.17627
3550.31080,0.17904
3552.23927,0.18336
3554.16774,0.18019
3556.09621,0.17348
3558.02468,0.17218
3559.95314,0.17260
3561.88161,0.17159
3563.81008,0.17455
3565.73855,0.18174
3567.66702,0.18003
3569.59549,0.16641
3571.52396,0.15742
3573.45243,0.15775
3575.38089,0.16033
3577.30936,0.15969
3579.23783,0.15771
3581.16630,0.15770
3583.09477,0.15913
3585.02324,0.15949
3586.95171,0.15925
3588.88017,0.15699
3590.80864,0.15361
3592.73711,0.15237
3594.66558,0.15077
3596.59405,0.15002
3598.52252,0.15263
3600.45099,0.15387
3602.37946,0.15358
3604.30792,0.15589
3606.23639,0.16144
3608.16486,0.16644
3610.09333,0.16455
3612.02180,0.15815
3613.95027,0.15244
3615.87874,0.14953
3617.80720,0.15270
3619.73567,0.15919
3621.66414,0.15972
3623.59261,0.15798
3625.52108,0.15876
3627.44955,0.16267
3629.37802,0.16406
3631.30649,0.15541
3633.23495,0.14495
3635.16342,0.13855
3637.09189,0.13657
3639.02036,0.13627
3640.94883,0.13720
3642.87730,0.13926
3644.80577,0.14218
3646.73423,0.14956
3648.66270,0.16243
3650.59117,0.16194
3652.51964,0.15027
3654.44811,0.14446
3656.37658,0.14219
3658.30505,0.13685
3660.23352,0.13238
3662.16198,0.13236
3664.09045,0.13528
3666.01892,0.13885
3667.94739,0.14374
3669.87586,0.15241
3671.80433,0.15837
3673.73280,0.15852
3675.66126,0.15306
3677.58973,0.14300
3679.51820,0.13477
3681.44667,0.12969
3683.37514,0.13051
3685.30361,0.13790
3687.23208,0.14905
3689.16055,0.15837
3691.08901,0.15564
3693.01748,0.14431
3694.94595,0.13542
3696.87442,0.13212
3698.80289,0.13361
3700.73136,0.13791
3702.65983,0.13724
3704.58829,0.13163
3706.51676,0.13172
3708.44523,0.14051
3710.37370,0.15045
3712.30217,0.14762
3714.23064,0.14151
3716.15911,0.13919
3718.08757,0.13200
3720.01604,0.12332
3721.94451,0.12738
3723.87298,0.14214
3725.80145,0.14867
3727.72992,0.14186
3729.65839,0.13664
3731.58686,0.14128
3733.51532,0.15314
3735.44379,0.16211
3737.37226,0.15887
3739.30073,0.15108
3741.22920,0.14932
3743.15767,0.16031
3745.08614,0.17394
3747.01460,0.17020
3748.94307,0.16753
3750.87154,0.16885
3752.80001,0.15503
3754.72848,0.14156
3756.65695,0.13908
3758.58542,0.13943
3760.51389,0.13452
3762.44235,0.13187
3764.37082,0.13609
3766.29929,0.14044
3768.22776,0.13862
3770.15623,0.13107
3772.08470,0.12323
3774.01317,0.11971
3775.94163,0.12065
3777.87010,0.12464
3779.79857,0.12693
3781.72704,0.12746
3783.65551,0.12991
3785.58398,0.13068
3787.51245,0.12884
3789.44092,0.12976
3791.36938,0.13386
3793.29785,0.13606
3795.22632,0.13518
3797.15479,0.13442
3799.08326,0.13607
3801.01173,0.14110
3802.94020,0.13979
3804.86866,0.13360
3806.79713,0.13291
3808.72560,0.13018
3810.65407,0.12306
3812.58254,0.12001
3814.51101,0.12248
3816.43948,0.12997
3818.36795,0.14152
3820.29641,0.14997
3822.22488,0.14343
3824.15335,0.13297
3826.08182,0.12895
3828.01029,0.12651
3829.93876,0.12628
3831.86723,0.13078
3833.79569,0.13343
3835.72416,0.12976
3837.65263,0.12538
3839.58110,0.12930
3841.50957,0.13657
3843.43804,0.13632
3845.36651,0.13070
3847.29498,0.12629
3849.22344,0.12567
3851.15191,0.13131
3853.08038,0.14507
3855.00885,0.15036
3856.93732,0.13982
3858.86579,0.12710
3860.79426,0.12376
3862.72272,0.13366
3864.65119,0.14036
3866.57966,0.13586
3868.50813,0.13331
3870.43660,0.13476
3872.36507,0.13379
3874.29354,0.12796
3876.22200,0.12045
3878.15047,0.11744
3880.07894,0.11961
3882.00741,0.12065
3883.93588,0.11707
3885.86435,0.11339
3887.79282,0.11685
3889.72129,0.12692
3891.64975,0.13176
3893.57822,0.12355
3895.50669,0.11743
3897.43516,0.12190
3899.36363,0.13330
3901.29210,0.14039
3903.22057,0.13898
3905.14903,0.13459
3907.07750,0.12890
3909.00597,0.12281
3910.93444,0.11948
3912.86291,0.12146
3914.79138,0.12554
3916.71985,0.12394
3918.64832,0.11828
3920.57678,0.11716
3922.50525,0.11762
3924.43372,0.11670
3926.36219,0.11784
3928.29066,0.11875
3930.21913,0.11579
3932.14760,0.11229
3934.07606,0.11320
3936.00453,0.11429
3937.93300,0.10984
3939.86147,0.10576
3941.78994,0.11063
3943.71841,0.12016
3945.64688,0.12387
3947.57535,0.12073
3949.50381,0.11635
3951.43228,0.11310
3953.36075,0.11056
3955.28922,0.11043
3957.21769,0.10952
3959.14616,0.10320
3961.07463,0.09758
3963.00309,0.09955
3964.93156,0.10296
3966.86003,0.10384
3968.78850,0.10684
3970.71697,0.11130
3972.64544,0.11347
3974.57391,0.11073
3976.50238,0.10350
3978.43084,0.09925
3980.35931,0.10129
3982.28778,0.10444
3984.21625,0.10411
3986.14472,0.09949
3988.07319,0.09598
3990.00166,0.10049
3991.93012,0.10683
3993.85859,0.10544
3995.78706,0.10127
3997.71553,0.10030
3999.64400,0.10101
4001.57247,0.10397
4003.50094,0.10789
4005.42941,0.10894
4007.35787,0.11016
4009.28634,0.11328
4011.21481,0.11119
4013.14328,0.10316
4015.07175,0.09750
4017.00022,0.09637
4018.92869,0.09785
4020.85715,0.10125
4022.78562,0.10501
4024.71409,0.10671
4026.64256,0.10340
4028.57103,0.09757
4030.49950,0.09371
4032.42797,0.09314
4034.35644,0.09680
4036.28490,0.10191
4038.21337,0.10479
4040.14184,0.10467
4042.07031,0.10042
4043.99878,0.09413
4045.92725,0.09015
4047.85572,0.08834
4049.78418,0.08633
4051.71265,0.08553
4053.64112,0.08964
4055.56959,0.09577
4057.49806,0.09898
4059.42653,0.10005
4061.35500,0.09985
4063.28346,0.09878
4065.21193,0.09833
4067.14040,0.09920
4069.06887,0.09892
4070.99734,0.09681
4072.92581,0.09761
4074.85428,0.09951
4076.78275,0.09612
4078.71121,0.09230
4080.63968,0.09464
4082.56815,0.09647
4084.49662,0.09272
4086.42509,0.08711
4088.35356,0.08273
4090.28203,0.08522
4092.21049,0.09399
4094.13896,0.09866
4096.06743,0.09887
4097.99590,0.09753
4099.92437,0.09116
4101.85284,0.08578
4103.78131,0.08725
4105.70978,0.08986
4107.63824,0.09135
4109.56671,0.09332
4111.49518,0.09340
4113.42365,0.09051
4115.35212,0.09002
4117.28059,0.09275
4119.20906,0.09052
4121.13752,0.08282
4123.06599,0.07843
4124.99446,0.08195
4126.92293,0.09033
4128.85140,0.09538
4130.77987,0.09052
4132.70834,0.08221
4134.63681,0.07858
4136.56527,0.07440
4138.49374,0.07009
4140.42221,0.07301
4142.35068,0.07962
4144.27915,0.08600
4146.20762,0.09138
4148.13609,0.09229
4150.06455,0.08995
4151.99302,0.08396
4153.92149,0.07400
4155.84996,0.07021
4157.77843,0.07532
4159.70690,0.07947
4161.63537,0.07933
4163.56384,0.08060
4165.49230,0.08681
4167.42077,0.09419
4169.34924,0.09758
4171.27771,0.09527
4173.20618,0.08716
4175.13465,0.07561
4177.06312,0.06830
4178.99158,0.07194
4180.92005,0.08165
4182.84852,0.08645
4184.77699,0.08320
4186.70546,0.07587
4188.63393,0.07045
4190.56240,0.07353
4192.49087,0.07999
4194.41933,0.07728
4196.34780,0.06923
4198.27627,0.06808
4200.20474,0.07440
4202.13321,0.08117
4204.06168,0.08324
4205.99015,0.08013
4207.91861,0.07512
4209.84708,0.07186
4211.77555,0.07328
4213.70402,0.07595
4215.63249,0.07243
4217.56096,0.06624
4219.48943,0.06522
4221.41789,0.06811
4223.34636,0.07011
4225.27483,0.06940
4227.20330,0.06926
4229.13177,0.07314
4231.06024,0.07514
4232.98871,0.07120
4234.91718,0.06844
4236.84564,0.06712
4238.77411,0.06584
4240.70258,0.07041
4242.63105,0.07573
4244.55952,0.07458
4246.48799,0.06968
4248.41646,0.06756
4250.34492,0.07257
4252.27339,0.07842
4254.20186,0.07751
4256.13033,0.07182
4258.05880,0.06503
4259.98727,0.05909
4261.91574,0.05640
4263.84421,0.05832
4265.77267,0.06459
4267.70114,0.07035
4269.62961,0.07075
4271.55808,0.06769
4273.48655,0.06237
4275.41502,0.05577
4277.34349,0.05251
4279.27195,0.05307
4281.20042,0.05447
4283.12889,0.05654
4285.05736,0.05842
4286.98583,0.06090
4288.91430,0.06565
4290.84277,0.06722
4292.77124,0.06450
4294.69970,0.06296
4296.62817,0.06209
4298.55664,0.05708
4300.48511,0.04686
4302.41358,0.04001
4304.34205,0.04369
4306.27052,0.05055
4308.19898,0.05280
4310.12745,0.05507
4312.05592,0.05983
4313.98439,0.06027
4315.91286,0.05786
4317.84133,0.05888
4319.76980,0.06034
4321.69827,0.06024
4323.62673,0.05952
4325.55520,0.05660
4327.48367,0.05541
4329.41214,0.06033
4331.34061,0.06378
4333.26908,0.05922
4335.19755,0.05653
4337.12601,0.06139
4339.05448,0.06060
4340.98295,0.05020
4342.91142,0.04362
4344.83989,0.04506
4346.76836,0.04651
4348.69683,0.04695
4350.62530,0.04898
4352.55376,0.05074
4354.48223,0.05481
4356.41070,0.05816
4358.33917,0.05065
4360.26764,0.04031
4362.19611,0.03688
4364.12458,0.03415
4366.05304,0.03391
4367.98151,0.04404
4369.90998,0.05867
4371.83845,0.06441
4373.76692,0.05760
4375.69539,0.04836
4377.62386,0.04376
4379.55232,0.04076
4381.48079,0.03886
4383.40926,0.03899
4385.33773,0.03689
4387.26620,0.03365
4389.19467,0.03670
4391.12314,0.04181
4393.05161,0.04193
4394.98007,0.04156
4396.90854,0.04246
4398.83701,0.04210
4400.76548,0.04112
4402.69395,0.03952
4404.62242,0.03563
4406.55089,0.03300
4408.47935,0.03734
4410.40782,0.04352
4412.33629,0.04478
4414.26476,0.04321
4416.19323,0.04195
4418.12170,0.03903
4420.05017,0.03117
4421.97864,0.02421
4423.90710,0.02378
4425.83557,0.02662
4427.76404,0.02952
4429.69251,0.03021
4431.62098,0.02756
4433.54945,0.02255
4435.47792,0.02165
4437.40638,0.02933
4439.33485,0.03659
4441.26332,0.03991
4443.19179,0.04374
4445.12026,0.04307
4447.04873,0.03778
4448.97720,0.03651
4450.90567,0.04092
4452.83413,0.04671
4454.76260,0.04626
4456.69107,0.04063
4458.61954,0.03854
4460.54801,0.03642
4462.47648,0.03263
4464.40495,0.03348
4466.33341,0.03349
4468.26188,0.02725
4470.19035,0.02191
4472.11882,0.02380
4474.04729,0.02877
4475.97576,0.02860
4477.90423,0.02467
4479.83270,0.02489
4481.76116,0.02896
4483.68963,0.03185
4485.61810,0.03076
4487.54657,0.02759
4489.47504,0.02497
4491.40351,0.02350
4493.33198,0.02644
4495.26044,0.03057
4497.18891,0.03116
4499.11738,0.03186
4501.04585,0.03054
4502.97432,0.02488
4504.90279,0.02128
4506.83126,0.01963
4508.75973,0.01715
4510.68819,0.01669
4512.61666,0.01737
4514.54513,0.01815
4516.47360,0.02187
4518.40207,0.02917
4520.33054,0.03522
4522.25901,0.03417
4524.18747,0.03289
4526.11594,0.03808
4528.04441,0.04024
4529.97288,0.03416
4531.90135,0.02362
4533.82982,0.01271
4535.75829,0.00924
4537.68676,0.01279
4539.61522,0.01391
4541.54369,0.01260
4543.47216,0.01561
4545.40063,0.02090
4547.32910,0.02343
4549.25757,0.02970
4551.18604,0.03876
4553.11450,0.03786
4555.04297,0.02953
4556.97144,0.02035
4558.89991,0.01041
4560.82838,0.00850
4562.75685,0.01838
4564.68532,0.02605
4566.61378,0.02289
4568.54225,0.01745
4570.47072,0.01707
4572.39919,0.01809
4574.32766,0.01669
4576.25613,0.01437
4578.18460,0.01116
4580.11307,0.00798
4582.04153,0.00658
4583.97000,0.00614
4585.89847,0.00618
4587.82694,0.00756
4589.75541,0.01182
4591.68388,0.01894
4593.61235,0.02729
4595.54081,0.03104
4597.46928,0.02602
4599.39775,0.01638
4601.32622,0.00797
4603.25469,0.00824
4605.18316,0.01159
4607.11163,0.00408
4609.04010,-0.00184
4610.96856,0.00652
4612.89703,0.01249
4614.82550,0.00565
4616.75397,-0.00390
4618.68244,-0.01050
4620.61091,-0.01297
4622.53938,-0.00914
4624.46784,0.00235
4626.39631,0.01735
4628.32478,0.02011
4630.25325,0.01038
4632.18172,0.00956
4634.11019,0.02683
4636.03866,0.04212
4637.96713,0.03418
4639.89559,0.01752
4641.82406,0.01375
4643.75253,0.01460
4645.68100,0.01222
4647.60947,0.01135
4649.53794,0.00863
4651.46641,0.00680
4653.39487,0.01318
4655.32334,0.01650
4657.25181,0.01226
4659.18028,0.00865
4661.10875,0.00574
4663.03722,0.00595
4664.96569,0.00784
4666.89416,0.00500
4668.82262,0.00253
4670.75109,0.00776
4672.67956,0.01486
4674.60803,0.01619
4676.53650,0.01521
4678.46497,0.01397
4680.39344,0.01063
4682.32190,0.00513
4684.25037,-0.00001
4686.17884,0.00479
4688.10731,0.01663
4690.03578,0.01870
4691.96425,0.01505
4693.89272,0.01771
4695.82119,0.01665
4697.74965,0.00953
4699.67812,0.00820
4701.60659,0.00959
4703.53506,0.01305
4705.46353,0.02013
4707.39200,0.01881
4709.32047,0.01209
4711.24893,0.01241
4713.17740,0.01446
4715.10587,0.01219
4717.03434,0.00398
4718.96281,-0.00932
4720.89128,-0.01172
4722.81975,-0.00075
4724.74821,0.00584
4726.67668,0.00310
4728.60515,0.00364
4730.53362,0.02113
4732.46209,0.04273
4734.39056,0.04564
4736.31903,0.02923
4738.24750,0.00815
4740.17596,0.00103
4742.10443,0.00598
4744.03290,0.00457
4745.96137,-0.00218
4747.88984,-0.00213
4749.81831,0.00297
4751.74678,0.00901
4753.67524,0.01290
4755.60371,0.00877
4757.53218,0.00756
4759.46065,0.01415
4761.38912,0.01391
4763.31759,0.00813
4765.24606,0.00122
4767.17453,-0.00676
4769.10299,-0.00012
4771.03146,0.01800
4772.95993,0.02194
4774.88840,0.01243
4776.81687,0.01260
4778.74534,0.02074
4780.67381,0.01721
4782.60227,0.01053
4784.53074,0.01435
4786.45921,0.02254
4788.38768,0.02716
4790.31615,0.02200
4792.24462,0.01113
4794.17309,0.00276
4796.10156,0.00001
4798.03002,0.00277
4799.95849,0.00448
4801.88696,0.00205
4803.81543,0.00241
4805.74390,0.01062
4807.67237,0.01963
4809.60084,0.01870
4811.52930,0.01400
4813.45777,0.01946
4815.38624,0.02351
4817.31471,0.01119
4819.24318,-0.00801
4821.17165,-0.02079
4823.10012,-0.01690
4825.02859,-0.00432
4826.95705,-0.00377
4828.88552,-0.00957
4830.81399,-0.00653
4832.74246,0.00476
4834.67093,0.01704
4836.59940,0.02023
4838.52787,0.01566
4840.45633,0.01041
4842.38480,0.00513
4844.31327,0.00221
4846.24174,0.00218
4848.17021,0.00805
4850.09868,0.01332
4852.02715,0.00626
4853.95562,-0.00378
4855.88408,-0.00777
4857.81255,-0.00568
4859.74102,-0.00251
4861.66949,-0.00738
4863.59796,-0.01297
4865.52643,-0.00889
4867.45490,-0.00003
4869.38336,0.01001
4871.31183,0.02297
4873.24030,0.03392
4875.16877,0.03352
4877.09724,0.02670
4879.02571,0.02207
4880.95418,0.01504
4882.88265,0.00714
4884.81111,0.00764
4886.73958,0.01870
4888.66805,0.02797
4890.59652,0.02671
4892.52499,0.02020
4894.45346,0.00814
4896.38193,-0.00646
4898.31039,-0.01217
4900.23886,-0.00510
4902.16733,0.00077
4904.09580,-0.00304
4906.02427,-0.00254
4907.95274,0.00544
4909.88121,0.01189
4911.80967,0.02207
4913.73814,0.04044
4915.66661,0.04907
4917.59508,0.03791
4919.52355,0.02136
4921.45202,0.01017
4923.38049,-0.00042
4925.30896,-0.01067
4927.23742,-0.00937
4929.16589,-0.00336
4931.09436,-0.00675
4933.02283,-0.01507
4934.95130,-0.01646
4936.87977,-0.00477
4938.80824,0.01247
4940.73670,0.02182
4942.66517,0.02278
4944.59364,0.02512
4946.52211,0.03054
4948.45058,0.03374
4950.37905,0.03545
4952.30752,0.03570
4954.23599,0.02252
4956.16445,-0.00194
4958.09292,-0.01134
4960.02139,-0.00625
4961.94986,-0.00772
4963.87833,-0.01377
4965.80680,-0.01613
4967.73527,-0.01309
4969.66373,-0.00290
4971.59220,0.00645
4973.52067,0.01009
4975.44914,0.01600
4977.37761,0.01918
4979.30608,0.01514
4981.23455,0.01201
4983.16302,0.00785
4985.09148,0.00059
4987.01995,0.00050
4988.94842,0.01299
4990.87689,0.02314
4992.80536,0.02223
4994.73383,0.02404
4996.66230,0.02925
4998.59076,0.02529
5000.51923,0.01735
5002.44770,0.01392
5004.37617,0.01009
5006.30464,0.00246
5008.23311,-0.00701
5010.16158,-0.01231
5012.09005,-0.00191
5014.01851,0.01716
5015.94698,0.02582
5017.87545,0.02628
5019.80392,0.02367
5021.73239,0.01373
5023.66086,0.00001
5025.58933,-0.00685
5027.51779,0.00485
5029.44626,0.02304
5031.37473,0.02505
5033.30320,0.02382
5035.23167,0.03412
5037.16014,0.04033
5039.08861,0.03311
5041.01708,0.02079
5042.94554,0.01832
5044.87401,0.03008
5046.80248,0.03253
5048.73095,0.01255
5050.65942,-0.00043
5052.58789,0.01131
5054.51636,0.02380
5056.44482,0.01958
5058.37329,0.00157
5060.30176,-0.01502
5062.23023,-0.00890
5064.15870,0.01085
5066.08717,0.01972
5068.01564,0.01912
5069.94410,0.02112
5071.87257,0.01871
5073.80104,0.00724
5075.72951,0.00281
5077.65798,0.01201
5079.58645,0.02874
5081.51492,0.04010
5083.44339,0.03606
5085.37185,0.02985
5087.30032,0.03197
5089.22879,0.03184
5091.15726,0.02198
5093.08573,0.01455
5095.01420,0.02351
5096.94267,0.03983
5098.87113,0.04293
5100.79960,0.03194
5102.72807,0.02338
5104.65654,0.02141
5106.58501,0.01043
5108.51348,-0.00470
5110.44195,0.00868
5112.37042,0.04106
5114.29888,0.04721
5116.22735,0.02938
5118.15582,0.02602
5120.08429,0.04697
5122.01276,0.06047
5123.94123,0.04364
5125.86970,0.02283
5127.79816,0.02552
5129.72663,0.03635
5131.65510,0.04241
5133.58357,0.04312
5135.51204,0.03279
5137.44051,0.02058
5139.36898,0.02130
5141.29745,0.02972
5143.22591,0.03347
5145.15438,0.03220
5147.08285,0.03103
5149.01132,0.03572
5150.93979,0.03861
5152.86826,0.03045
5154.79673,0.02537
5156.72519,0.03604
5158.65366,0.04897
5160.58213,0.04208
5162.51060,0.02252
5164.43907,0.01414
5166.36754,0.02369
5168.29601,0.03488
5170.22448,0.03033
5172.15294,0.02467
5174.08141,0.02430
5176.00988,0.02051
5177.93835,0.01889
5179.86682,0.01664
5181.79529,0.01566
5183.72376,0.01708
5185.65222,0.01695
5187.58069,0.03076
5189.50916,0.05413
5191.43763,0.06081
5193.36610,0.05395
5195.29457,0.04787
5197.22304,0.03839
5199.15151,0.02956
5201.07997,0.03329
5203.00844,0.04580
5204.93691,0.05389
5206.86538,0.04404
5208.79385,0.02818
5210.72232,0.02874
5212.65079,0.03225
5214.57925,0.03131
5216.50772,0.04011
5218.43619,0.05097
5220.36466,0.05033
5222.29313,0.04800
5224.22160,0.05574
5226.15007,0.06548
5228.07854,0.06694
5230.00700,0.06552
5231.93547,0.06337
5233.86394,0.06030
5235.79241,0.04719
5237.72088,0.02687
5239.64935,0.02898
5241.57782,0.04771
5243.50628,0.04518
5245.43475,0.02438
5247.36322,0.02062
5249.29169,0.03733
5251.22016,0.04994
5253.14863,0.05130
5255.07710,0.05089
5257.00556,0.05283
5258.93403,0.05527
5260.86250,0.05122
5262.79097,0.03144
5264.71944,0.00711
5266.64791,0.00351
5268.57638,0.02465
5270.50485,0.05169
5272.43331,0.05744
5274.36178,0.04299
5276.29025,0.04199
5278.21872,0.06008
5280.14719,0.06280
5282.07566,0.04983
5284.00413,0.04829
5285.93259,0.05374
5287.86106,0.05039
5289.78953,0.04321
5291.71800,0.04788
5293.64647,0.06128
5295.57494,0.07165
5297.50341,0.08165
5299.43188,0.08761
5301.36034,0.08932
5303.28881,0.09576
5305.21728,0.09503
5307.14575,0.07838
5309.07422,0.06127
5311.00269,0.05863
5312.93116,0.06186
5314.85962,0.06115
5316.78809,0.06803
5318.71656,0.07338
5320.64503,0.06222
5322.57350,0.05223
5324.50197,0.05227
5326.43044,0.05493
5328.35891,0.04981
5330.28737,0.02982
5332.21584,0.01486
5334.14431,0.02362
5336.07278,0.03650
5338.00125,0.04114
5339.92972,0.04437
5341.85819,0.04322
5343.78665,0.04059
5345.71512,0.04333
5347.64359,0.05213
5349.57206,0.05068
5351.50053,0.02365
5353.42900,0.00017
5355.35747,0.00416
5357.28594,0.01052
5359.21440,0.02355
5361.14287,0.05468
5363.07134,0.07208
5364.99981,0.06262
5366.92828,0.05136
5368.85675,0.05455
5370.78522,0.07027
5372.71368,0.07899
5374.64215,0.07834
5376.57062,0.08217
5378.49909,0.08625
5380.42756,0.08474
5382.35603,0.08145
5384.28450,0.07798
5386.21297,0.06879
5388.14143,0.06531
5390.06990,0.07005
5391.99837,0.06409
5393.92684,0.04708
5395.85531,0.04028
5397.78378,0.05265
5399.71225,0.06740
5401.64071,0.06418
5403.56918,0.04926
5405.49765,0.05266
5407.42612,0.07182
5409.35459,0.07171
5411.28306,0.06254
5413.21153,0.07590
5415.13999,0.08290
5417.06846,0.06996
5418.99693,0.06706
5420.92540,0.07306
5422.85387,0.07481
5424.78234,0.07752
5426.71081,0.07229
5428.63928,0.05292
5430.56774,0.05195
5432.49621,0.08236
5434.42468,0.09822
5436.35315,0.06724
5438.28162,0.03717
5440.21009,0.04407
5442.13856,0.06263
5444.06702,0.06255
5445.99549,0.05118
5447.92396,0.04294
5449.85243,0.03444
5451.78090,0.03561
5453.70937,0.06665
5455.63784,0.11167
5457.56631,0.12743
5459.49477,0.10314
5461.42324,0.07408
5463.35171,0.06943
5465.28018,0.08259
5467.20865,0.09396
5469.13712,0.09264
5471.06559,0.08250
5472.99405,0.07169
5474.92252,0.06525
5476.85099,0.06839
5478.77946,0.07436
5480.70793,0.06652
5482.63640,0.04460
5484.56487,0.03579
5486.49334,0.05736
5488.42180,0.08723
5490.35027,0.08785
5492.27874,0.07410
5494.20721,0.08351
5496.13568,0.09074
5498.06415,0.07815
5499.99262,0.07816
5501.92108,0.10144
5503.84955,0.10778
5505.77802,0.08718
5507.70649,0.07478
5509.63496,0.07989
5511.56343,0.08363
5513.49190,0.07237
5515.42037,0.04659
5517.34883,0.03331
5519.27730,0.05312
5521.20577,0.07930
5523.13424,0.08888
5525.06271,0.08777
5526.99118,0.06585
5528.91965,0.02925
5530.84811,0.01523
5532.77658,0.02775
5534.70505,0.05429
5536.63352,0.08981
5538.56199,0.10962
5540.49046,0.09997
5542.41893,0.08267
5544.34740,0.07409
5546.27586,0.06847
5548.20433,0.05628
5550.13280,0.03935
5552.06127,0.04497
5553.98974,0.08013
5555.91821,0.10139
5557.84668,0.09634
5559.77514,0.09484
5561.70361,0.09458
5563.63208,0.09260
5565.56055,0.09197
5567.48902,0.07303
5569.41749,0.04905
5571.34596,0.04506
5573.27443,0.04887
5575.20289,0.05530
5577.13136,0.07036
5579.05983,0.07422
5580.98830,0.04267
5582.91677,0.00051
5584.84524,0.00343
5586.77371,0.04348
5588.70217,0.06819
5590.63064,0.07068
5592.55911,0.06372
5594.48758,0.05508
5596.41605,0.06515
5598.34452,0.08105
5600.27299,0.08399
5602.20145,0.08546
5604.12992,0.07712
5606.05839,0.05664
5607.98686,0.04749
5609.91533,0.04886
5611.84380,0.05800
5613.77227,0.07995
5615.70074,0.09277
5617.62920,0.07950
5619.55767,0.05772
5621.48614,0.06172
5623.41461,0.08792
5625.34308,0.11030
5627.27155,0.12365
5629.20002,0.11055
5631.12848,0.07327
5633.05695,0.04682
5634.98542,0.04268
5636.91389,0.04772
5638.84236,0.05296
5640.77083,0.06625
5642.69930,0.09412
5644.62777,0.12266
5646.55623,0.12501
5648.48470,0.09768
5650.41317,0.07381
5652.34164,0.07682
5654.27011,0.09790
5656.19858,0.12071
5658.12705,0.13485
5660.05551,0.12629
5661.98398,0.09229
5663.91245,0.06365
5665.84092,0.06423
5667.76939,0.07970
5669.69786,0.09081
5671.62633,0.09600
5673.55480,0.10946
5675.48326,0.13681
5677.41173,0.15009
5679.34020,0.12514
5681.26867,0.08557
5683.19714,0.07732
5685.12561,0.10139
5687.05408,0.11319
5688.98254,0.10470
5690.91101,0.09833
5692.83948,0.09095
5694.76795,0.06752
5696.69642,0.02459
5698.62489,-0.00242
5700.55336,0.00751
5702.48183,0.02548
5704.41029,0.05496
5706.33876,0.09718
5708.26723,0.10715
5710.19570,0.07362
5712.12417,0.02921
5714.05264,0.00782
5715.98111,0.03944
5717.90957,0.09538
5719.83804,0.10798
5721.76651,0.08110
5723.69498,0.06170
5725.62345,0.06792
5727.55192,0.07968
5729.48039,0.07916
5731.40886,0.08110
5733.33732,0.09481
5735.26579,0.12344
5737.19426,0.15595
5739.12273,0.15986
5741.05120,0.12709
5742.97967,0.09135
5744.90814,0.08112
5746.83660,0.09486
5748.76507,0.11116
5750.69354,0.09791
5752.62201,0.08338
5754.55048,0.10226
5756.47895,0.11287
5758.40742,0.10998
5760.33588,0.12397
5762.26435,0.14029
5764.19282,0.12292
5766.12129,0.08540
5768.04976,0.07581
5769.97823,0.09163
5771.90670,0.09250
5773.83517,0.07124
5775.76363,0.06100
5777.69210,0.07852
5779.62057,0.09519
5781.54904,0.07646
5783.47751,0.03928
5785.40598,0.01987
5787.33445,0.02515
5789.26291,0.04839
5791.19138,0.07147
5793.11985,0.08586
5795.04832,0.09535
5796.97679,0.09385
5798.90526,0.08482
5800.83373,0.07738
5802.76220,0.08217
5804.69066,0.09719
5806.61913,0.10130
5808.54760,0.08811
5810.47607,0.07035
5812.40454,0.07104
5814.33301,0.09210
5816.26148,0.10544
5818.18994,0.09873
5820.11841,0.07932
5822.04688,0.06391
5823.97535,0.06529
5825.90382,0.07360
5827.83229,0.07325
5829.76076,0.06493
5831.68923,0.06415
5833.61769,0.06643
5835.54616,0.06838
5837.47463,0.08654
5839.40310,0.11563
5841.33157,0.13331
5843.26004,0.12519
5845.18851,0.10807
5847.11697,0.10460
5849.04544,0.10353
5850.97391,0.08771
5852.90238,0.05271
5854.83085,0.01891
5856.75932,0.03487
5858.68779,0.11232
5860.61626,0.18311
5862.54472,0.17972
5864.47319,0.13089
5866.40166,0.08899
5868.33013,0.05341
5870.25860,0.03132
5872.18707,0.03908
5874.11554,0.07367
5876.04400,0.11227
5877.97247,0.11583
5879.90094,0.09953
5881.82941,0.08658
5883.75788,0.07352
5885.68635,0.07177
5887.61482,0.04745
5889.54329,0.00061
5891.47175,-0.00854
5893.40022,0.02531
5895.32869,0.07077
5897.25716,0.07589
5899.18563,0.03630
5901.11410,0.02334
5903.04257,0.05277
5904.97103,0.07708
5906.89950,0.08226
5908.82797,0.07955
5910.75644,0.07704
5912.68491,0.07042
5914.61338,0.05605
5916.54185,0.05441
5918.47032,0.08602
5920.39878,0.12877
5922.32725,0.12384
5924.25572,0.08683
5926.18419,0.08084
5928.11266,0.08477
5930.04113,0.08194
5931.96960,0.09745
5933.89806,0.11300
5935.82653,0.10758
5937.75500,0.09105
5939.68347,0.07839
5941.61194,0.07137
5943.54041,0.05441
5945.46888,0.05567
5947.39734,0.09916
5949.32581,0.11347
5951.25428,0.05746
5953.18275,0.00684
5955.11122,0.02262
5957.03969,0.08071
5958.96816,0.12775
5960.89663,0.15413
5962.82509,0.17385
5964.75356,0.16048
5966.68203,0.11579
5968.61050,0.10630
5970.53897,0.11817
5972.46744,0.09582
5974.39591,0.08557
5976.32437,0.11575
5978.25284,0.13202
5980.18131,0.12123
5982.10978,0.11984
5984.03825,0.10972
5985.96672,0.06157
5987.89519,0.00960
5989.82366,-0.00951
5991.75212,0.00623
5993.68059,0.02225
5995.60906,0.01076
5997.53753,0.00658
5999.46600,0.04321
6001.39447,0.09090
6003.32294,0.12040
6005.25140,0.12931
6007.17987,0.10150
6009.10834,0.03703
6011.03681,-0.01115
6012.96528,-0.00488
6014.89375,0.02960
6016.82222,0.06965
6018.75069,0.08567
6020.67915,0.06621
6022.60762,0.07169
6024.53609,0.10205
6026.46456,0.11168
6028.39303,0.08660
6030.32150,0.05387
6032.24997,0.05261
6034.17843,0.06129
6036.10690,0.06524
6038.03537,0.08346
6039.96384,0.11451
6041.89231,0.15877
6043.82078,0.17971
6045.74925,0.15328
6047.67772,0.11907
6049.60618,0.08828
6051.53465,0.07095
6053.46312,0.06252
6055.39159,0.01738
6057.32006,-0.02087
6059.24853,0.01656
6061.17700,0.09162
6063.10546,0.13991
6065.03393,0.15931
6066.96240,0.17147
6068.89087,0.15624
6070.81934,0.10991
6072.74781,0.08107
6074.67628,0.09613
6076.60475,0.11035
6078.53321,0.08620
6080.46168,0.06992
6082.39015,0.09789
6084.31862,0.09877
6086.24709,0.04181
6088.17556,0.03279
6090.10403,0.08603
6092.03249,0.13041
6093.96096,0.13751
6095.88943,0.09300
6097.81790,0.05015
6099.74637,0.06395
6101.67484,0.09593
6103.60331,0.10653
6105.53177,0.12262
6107.46024,0.17567
6109.38871,0.22530
6111.31718,0.21322
6113.24565,0.15576
6115.17412,0.11425
6117.10259,0.13111
6119.03106,0.17444
6120.95952,0.16142
6122.88799,0.09160
6124.81646,0.03372
6126.74493,0.02131
6128.67340,0.02948
6130.60187,0.04821
6132.53034,0.07626
6134.45880,0.09336
6136.38727,0.13305
6138.31574,0.18221
6140.24421,0.14434
6142.17268,0.04072
6144.10115,-0.01110
6146.02962,0.02595
6147.95809,0.09371
6149.88655,0.12257
6151.81502,0.09621
6153.74349,0.06233
6155.67196,0.05906
6157.60043,0.08261
6159.52890,0.13192
6161.45737,0.13593
6163.38583,0.07143
6165.31430,0.05537
6167.24277,0.08885
6169.17124,0.10425
6171.09971,0.10049
6173.02818,0.08678
6174.95665,0.05549
6176.88512,0.02384
6178.81358,0.05287
6180.74205,0.12528
6182.67052,0.15259
6184.59899,0.13249
6186.52746,0.12148
6188.45593,0.12162
6190.38440,0.12879
6192.31286,0.15552
6194.24133,0.15559
6196.16980,0.10571
6198.09827,0.07500
6200.02674,0.13410
6201.95521,0.22448
6203.88368,0.20416
6205.81215,0.08863
6207.74061,0.02916
6209.66908,0.06792
6211.59755,0.15769
6213.52602,0.21124
6215.45449,0.18705
6217.38296,0.13065
6219.31143,0.08274
6221.23989,0.07225
6223.16836,0.11283
6225.09683,0.12536
6227.02530,0.07088
6228.95377,0.02074
6230.88224,0.01402
6232.81071,0.04075
6234.73918,0.08892
6236.66764,0.12962
6238.59611,0.12540
6240.52458,0.09059
6242.45305,0.08206
6244.38152,0.10687
6246.30999,0.12533
6248.23846,0.13231
6250.16692,0.14598
6252.09539,0.14335
6254.02386,0.10328
6255.95233,0.05283
6257.88080,0.01540
6259.80927,0.00766
6261.73774,0.04286
6263.66621,0.09532
6265.59467,0.12016
6267.52314,0.11648
6269.45161,0.09993
6271.38008,0.06484
6273.30855,0.04407
6275.23702,0.07229
6277.16549,0.10277
6279.09395,0.10318
6281.02242,0.08764
6282.95089,0.05715
6284.87936,0.03982
6286.80783,0.05625
6288.73630,0.05642
6290.66477,0.01189
6292.59323,-0.01291
6294.52170,0.02874
6296.45017,0.07818
6298.37864,0.09768
6300.30711,0.11065
6302.23558,0.10664
6304.16405,0.10733
6306.09252,0.13291
6308.02098,0.12590
6309.94945,0.08469
6311.87792,0.07959
6313.80639,0.12068
6315.73486,0.14837
6317.66333,0.13248
6319.59180,0.10305
6321.52026,0.08764
6323.44873,0.07714
6325.37720,0.05714
6327.30567,0.02281
6329.23414,-0.01730
6331.16261,-0.05650
6333.09108,-0.06551
6335.01955,0.00218
6336.94801,0.07712
6338.87648,0.08184
6340.80495,0.07809
6342.73342,0.09445
6344.66189,0.07357
6346.59036,0.04766
6348.51883,0.07079
6350.44729,0.10191
6352.37576,0.13104
6354.30423,0.13074
6356.23270,0.08583
6358.16117,0.06246
6360.08964,0.06426
6362.01811,0.06022
6363.94658,0.04961
6365.87504,0.03234
6367.80351,0.05533
6369.73198,0.09232
6371.66045,0.08234
6373.58892,0.09293
6375.51739,0.15028
6377.44586,0.16151
6379.37432,0.11898
6381.30279,0.09962
6383.23126,0.11202
6385.15973,0.08174
6387.08820,-0.00459
6389.01667,-0.07442
6390.94514,-0.06381
6392.87361,-0.00341
6394.80207,0.01295
6396.73054,0.00426
6398.65901,0.02476
6400.58748,0.04226
6402.51595,0.04465
6404.44442,0.05458
6406.37289,0.05546
6408.30135,0.06303
6410.22982,0.11056
6412.15829,0.15569
6414.08676,0.15518
6416.01523,0.13294
6417.94370,0.09842
6419.87217,0.03402
6421.80064,-0.00396
6423.72910,0.03930
6425.65757,0.08879
6427.58604,0.06018
6429.51451,0.00933
6431.44298,0.02003
6433.37145,0.05942
6435.29992,0.07294
6437.22838,0.09667
6439.15685,0.11839
6441.08532,0.09512
6443.01379,0.06123
6444.94226,0.04993
6446.87073,0.05863
6448.79920,0.07783
6450.72766,0.08317
6452.65613,0.05783
6454.58460,0.02396
6456.51307,0.01447
6458.44154,0.04529
6460.37001,0.09953
6462.29848,0.13493
6464.22695,0.12994
6466.15541,0.12065
6468.08388,0.14810
6470.01235,0.19938
6471.94082,0.23889
6473.86929,0.21368
6475.79776,0.12174
6477.72623,0.07912
6479.65469,0.10258
6481.58316,0.12859
6483.51163,0.15231
6485.44010,0.13664
6487.36857,0.06565
6489.29704,-0.00106
6491.22551,-0.00412
6493.15398,0.03591
6495.08244,0.06189
6497.01091,0.09535
6498.93938,0.15668
6500.86785,0.18156
6502.79632,0.13360
6504.72479,0.09376
6506.65326,0.11642
6508.58172,0.17161
6510.51019,0.20877
6512.43866,0.20406
6514.36713,0.18086
6516.29560,0.16318
6518.22407,0.14547
6520.15254,0.12484
6522.08101,0.10925
6524.00947,0.09044
6525.93794,0.04514
6527.86641,0.01912
6529.79488,0.05897
6531.72335,0.08938
6533.65182,0.05616
6535.58029,0.03314
6537.50875,0.06113
6539.43722,0.10762
6541.36569,0.15779
6543.29416,0.16897
6545.22263,0.10770
6547.15110,0.01684
6549.07957,-0.05265
6551.00804,-0.01900
6552.93650,0.09349
6554.86497,0.13713
6556.79344,0.12685
6558.72191,0.16854
6560.65038,0.18662
6562.57885,0.08906
6564.50732,-0.02395
6566.43578,-0.03278
6568.36425,0.02413
6570.29272,0.07758
6572.22119,0.13265
6574.14966,0.14885
6576.07813,0.09567
6578.00660,0.06391
6579.93507,0.06308
6581.86353,0.03518
6583.79200,0.03171
6585.72047,0.06272
6587.64894,0.06516
6589.57741,0.04688
6591.50588,0.03419
6593.43435,0.01701
6595.36281,0.02996
6597.29128,0.08497
6599.21975,0.10377
6601.14822,0.00433
6603.07669,-0.14082
6605.00516,-0.17001
6606.93363,-0.09783
6608.86210,-0.02426
6610.79056,0.03396
6612.71903,0.08888
6614.64750,0.15121
6616.57597,0.17905
6618.50444,0.12196
6620.43291,0.07618
6622.36138,0.08178
6624.28984,0.06900
6626.21831,0.03812
6628.14678,0.01956
6630.07525,0.02267
6632.00372,0.08131
6633.93219,0.17731
6635.86066,0.19732
6637.78912,0.14718
6639.71759,0.17237
6641.64606,0.22058
6643.57453,0.20533
6645.50300,0.15295
6647.43147,0.07815
6649.35994,0.02868
6651.28841,0.02522
6653.21687,0.07494
6655.14534,0.19722
6657.07381,0.25707
6659.00228,0.16083
6660.93075,0.08093
6662.85922,0.12840
6664.78769,0.19912
6666.71615,0.16736
6668.64462,0.08139
6670.57309,0.05233
6672.50156,0.07834
6674.43003,0.13376
6676.35850,0.20262
6678.28697,0.21545
6680.21544,0.13135
6682.14390,0.04149
6684.07237,0.01255
6686.00084,-0.00524
6687.92931,-0.01184
6689.85778,0.00937
6691.78625,-0.02878
6693.71472,-0.10310
6695.64318,-0.07872
6697.57165,0.00730
6699.50012,0.01552
6701.42859,0.01061
6703.35706,0.05158
6705.28553,0.03576
6707.21400,-0.07848
6709.14247,-0.08708
6711.07093,0.07691
6712.99940,0.21231
6714.92787,0.24029
6716.85634,0.19567
6718.78481,0.11664
6720.71328,0.11608
6722.64175,0.21889
6724.57021,0.22006
6726.49868,0.06626
6728.42715,-0.04798
6730.35562,-0.00919
6732.28409,0.07574
6734.21256,0.10119
6736.14103,0.11999
6738.06950,0.16996
6739.99796,0.18432
6741.92643,0.12985
6743.85490,0.07417
6745.78337,0.05678
6747.71184,0.05375
6749.64031,0.04572
6751.56878,0.04747
6753.49724,0.04632
6755.42571,0.02420
6757.35418,0.02321
6759.28265,-0.00094
6761.21112,-0.10438
6763.13959,-0.12740
6765.06806,-0.00110
6766.99653,0.11281
6768.92499,0.11516
6770.85346,0.10815
6772.78193,0.16678
6774.71040,0.20256
6776.63887,0.14236
6778.56734,0.07012
6780.49581,0.03975
6782.42427,0.02561
6784.35274,0.01123
6786.28121,0.00935
6788.20968,0.04144
6790.13815,0.08522
6792.06662,0.07228
6793.99509,0.02659
6795.92355,0.04692
6797.85202,0.09784
6799.78049,0.10705
6801.70896,0.10722
6803.63743,0.10512
6805.56590,0.05069
6807.49437,-0.02286
6809.42284,-0.04873
6811.35130,-0.00150
6813.27977,0.08989
6815.20824,0.14809
6817.13671,0.14120
6819.06518,0.11598
6820.99365,0.04470
6822.92212,-0.10060
6824.85058,-0.15940
6826.77905,-0.09326
6828.70752,0.03555
6830.63599,0.19048
6832.56446,0.23052
6834.49293,0.13728
6836.42140,0.03947
6838.34987,0.00422
6840.27833,-0.00340
6842.20680,-0.05117
6844.13527,-0.12433
6846.06374,-0.13283
6847.99221,-0.07723
6849.92068,-0.01706
6851.84915,0.01401
6853.77761,0.01104
6855.70608,-0.02672
6857.63455,-0.05495
6859.56302,-0.01214
6861.49149,0.07698
6863.41996,0.14164
6865.34843,0.18411
6867.27690,0.22227
6869.20536,0.20712
6871.13383,0.14467
6873.06230,0.11972
6874.99077,0.11574
6876.91924,0.07058
6878.84771,0.03903
6880.77618,0.05409
6882.70464,0.01199
6884.63311,-0.08025
6886.56158,-0.06806
6888.49005,0.00386
6890.41852,-0.00440
6892.34699,-0.03916
6894.27546,-0.00518
6896.20393,0.08198
6898.13239,0.09104
6900.06086,0.02229
6901.98933,0.00996
6903.91780,0.01120
6905.84627,-0.01058
6907.77474,0.03810
6909.70321,0.12837
6911.63167,0.18667
6913.56014,0.21587
6915.48861,0.21140
6917.41708,0.19470
6919.34555,0.18362
6921.27402,0.13621
6923.20249,0.06008
6925.13096,0.00420
6927.05942,-0.02404
6928.98789,-0.05721
6930.91636,-0.08289
6932.84483,-0.06849
6934.77330,-0.03831
6936.70177,0.00010
6938.63024,0.02129
6940.55870,0.00916
6942.48717,0.04461
6944.41564,0.12490
6946.34411,0.15903
6948.27258,0.14082
6950.20105,0.14770
6952.12952,0.19848
6954.05799,0.26051
6955.98645,0.30493
6957.91492,0.30454
6959.84339,0.24505
6961.77186,0.17714
6963.70033,0.15214
6965.62880,0.11943
6967.55727,0.05706
6969.48573,0.01403
6971.41420,0.02534
6973.34267,0.07715
6975.27114,0.04347
6977.19961,-0.07672
6979.12808,-0.10255
6981.05655,-0.02796
6982.98501,0.03859
6984.91348,0.03692
6986.84195,0.00014
6988.77042,-0.03591
6990.69889,-0.04607
6992.62736,0.05298
6994.55583,0.20620
6996.48430,0.22154
6998.41276,0.07925
7000.34123,-0.01091
7002.26970,-0.00971
7004.19817,-0.03581
7006.12664,-0.03396
7008.05511,0.07894
7009.98358,0.16857
7011.91204,0.16458
7013.84051,0.13774
7015.76898,0.10256
7017.69745,0.04157
7019.62592,0.05049
7021.55439,0.10814
7023.48286,0.09827
7025.41133,0.02349
7027.33979,-0.10465
7029.26826,-0.12840
7031.19673,0.06069
7033.12520,0.20435
7035.05367,0.16111
7036.98214,0.07938
7038.91061,0.06102
7040.83907,0.08004
7042.76754,0.12898
7044.69601,0.12912
7046.62448,0.05113
7048.55295,0.04364
7050.48142,0.13446
7052.40989,0.19801
7054.33836,0.20304
7056.26682,0.23746
7058.19529,0.24664
7060.12376,0.14254
7062.05223,0.03235
7063.98070,-0.05106
7065.90917,-0.12278
7067.83764,-0.10696
7069.76610,0.08046
7071.69457,0.25247
7073.62304,0.18302
7075.55151,0.04174
7077.47998,-0.05616
7079.40845,-0.12075
7081.33692,-0.13550
7083.26539,-0.11191
7085.19385,-0.07655
7087.12232,-0.05750
7089.05079,-0.05194
7090.97926,-0.04990
7092.90773,-0.03964
7094.83620,-0.02435
7096.76467,-0.05253
7098.69313,-0.04231
7100.62160,0.05014
7102.55007,0.04736
7104.47854,-0.01381
7106.40701,0.00184
7108.33548,0.03685
7110.26395,0.06261
7112.19242,0.09701
7114.12088,0.11044
7116.04935,0.12518
7117.97782,0.12005
7119.90629,0.05189
7121.83476,-0.00550
7123.76323,-0.03714
7125.69170,-0.14335
7127.62016,-0.30393
7129.54863,-0.37644
7131.47710,-0.32067
7133.40557,-0.18712
7135.33404,-0.02897
7137.26251,0.09955
7139.19098,0.14482
7141.11944,0.11583
7143.04791,0.13697
7144.97638,0.26705
7146.90485,0.28447
7148.83332,0.17425
7150.76179,0.16266
7152.69026,0.17361
7154.61873,0.13186
7156.54719,0.11245
7158.47566,0.04302
7160.40413,-0.03158
7162.33260,0.02457
7164.26107,0.14831
7166.18954,0.23290
7168.11801,0.28447
7170.04647,0.25952
7171.97494,0.12968
7173.90341,0.00065
7175.83188,-0.06872
7177.76035,-0.03992
7179.68882,0.07680
7181.61729,0.25344
7183.54576,0.37788
7185.47422,0.29992
7187.40269,0.17460
7189.33116,0.13136
7191.25963,0.12372
7193.18810,0.10471
7195.11657,0.06060
7197.04504,0.06734
7198.97350,0.09679
7200.90197,0.13496
7202.83044,0.16394
7204.75891,0.05773
7206.68738,0.02093
7208.61585,0.10265
7210.54432,0.03026
7212.47279,-0.13384
7214.40125,-0.21563
7216.32972,-0.15057
7218.25819,0.12481
7220.18666,0.33372
7222.11513,0.27542
7224.04360,0.10851
7225.97207,0.06050
7227.90053,0.22487
7229.82900,0.37431
7231.75747,0.25940
7233.68594,0.04598
7235.61441,-0.09393
7237.54288,-0.13507
7239.47135,-0.04762
7241.39982,0.07157
7243.32828,0.20849
7245.25675,0.29116
7247.18522,0.23548
7249.11369,0.04248
7251.04216,-0.24849
7252.97063,-0.38221
7254.89910,-0.19638
7256.82756,-0.07546
7258.75603,-0.07990
7260.68450,-0.04055
7262.61297,0.10022
7264.54144,0.20865
7266.46991,0.13366
7268.39838,-0.09467
7270.32685,-0.17724
7272.25531,0.00654
7274.18378,0.03081
7276.11225,-0.12017
7278.04072,-0.22166
7279.96919,-0.20364
7281.89766,-0.02608
7283.82613,0.06370
7285.75459,-0.02484
7287.68306,-0.06443
7289.61153,0.01089
7291.54000,0.08489
7293.46847,0.01161
7295.39694,-0.14065
7297.32541,-0.14943
7299.25387,0.06293
7301.18234,0.37831
7303.11081,0.53994
7305.03928,0.44654
7306.96775,0.25258
7308.89622,0.00909
7310.82469,-0.17998
7312.75316,-0.15413
7314.68162,-0.06240
7316.61009,-0.08184
7318.53856,-0.10371
7320.46703,-0.06507
7322.39550,-0.03573
7324.32397,0.02931
7326.25244,0.10144
7328.18090,0.12158
7330.10937,0.17433
7332.03784,0.23106
7333.96631,0.19160
7335.89478,0.14579
7337.82325,0.22214
7339.75172,0.48136
7341.68019,0.61142
7343.60865,0.47026
7345.53712,0.32577
7347.46559,0.37484
7349.39406,0.45487
7351.32253,0.36195
7353.25100,0.22899
7355.17947,0.12595
7357.10793,0.12319
7359.03640,0.39836
7360.96487,0.61881
7362.89334,0.45831
7364.82181,0.17968
7366.75028,0.02005
7368.67875,-0.00417
7370.60722,0.03973
7372.53568,0.08327
7374.46415,0.21825
7376.39262,0.40746
7378.32109,0.39195
7380.24956,0.24087
7382.17803,-0.00218
7384.10650,-0.27366
7386.03496,-0.31281
7387.96343,-0.18758
7389.89190,-0.23069
7391.82037,-0.25696
7393.74884,-0.05741
7395.67731,0.12954
7397.60578,0.09636
7399.53425,0.02173
7401.46271,0.07718
7403.39118,0.21379
7405.31965,0.23003
7407.24812,0.12512
7409.17659,0.06452
7411.10506,0.08375
7413.03353,0.08796
7414.96199,0.06448
7416.89046,0.17819
7418.81893,0.31148
7420.74740,0.10480
7422.67587,-0.09223
7424.60434,-0.07103
7426.53281,0.11841
7428.46128,0.42826
7430.38974,0.54888
7432.31821,0.36583
7434.24668,0.20173
7436.17515,0.04204
7438.10362,-0.11866
7440.03209,-0.10892
7441.96056,-0.01204
7443.88902,0.02278
7445.81749,0.06380
7447.74596,0.11271
7449.67443,0.07973
7451.60290,-0.01304
7453.53137,-0.08382
7455.45984,-0.11494
7457.38831,-0.10651
7459.31677,-0.03348
7461.24524,0.07623
7463.17371,0.08453
7465.10218,-0.05848
7467.03065,-0.19284
7468.95912,-0.16422
7470.88759,-0.05151
7472.81605,0.04002
7474.74452,0.11265
7476.67299,0.21969
7478.60146,0.39521
7480.52993,0.46618
7482.45840,0.30048
7484.38687,0.16266
7486.31533,0.24448
7488.24380,0.38408
7490.17227,0.31385
7492.10074,0.12491
7494.02921,0.00243
7495.95768,-0.07489
7497.88615,-0.10029
