399.19301,12.47041
401.12148,2.17052
403.04995,0.81681
404.97842,0.22762
406.90689,-0.02813
408.83536,-0.10160
410.76382,-0.10904
412.69229,-0.08734
414.62076,0.00296
416.54923,0.15078
418.47770,0.30210
420.40617,0.23140
422.33464,-0.00593
424.26311,-0.20824
426.19157,-0.22905
428.12004,-0.13509
430.04851,-0.03023
431.97698,0.11402
433.90545,0.22001
435.83392,0.21402
437.76239,0.15444
439.69085,0.10267
441.61932,0.08008
443.54779,0.08005
445.47626,0.01411
447.40473,-0.05120
449.33320,-0.02149
451.26167,0.03162
453.19013,0.09606
455.11860,0.14721
457.04707,0.11551
458.97554,0.06041
460.90401,0.06459
462.83248,0.03806
464.76095,-0.03313
466.68942,-0.03378
468.61788,0.04876
470.54635,0.09821
472.47482,0.04287
474.40329,-0.01389
476.33176,0.02238
478.26023,0.07236
480.18870,0.12067
482.11716,0.16062
484.04563,0.15346
485.97410,0.11627
487.90257,0.11354
489.83104,0.12526
491.75951,0.10573
493.68798,0.05870
495.61645,0.02584
497.54491,0.02877
499.47338,0.04274
501.40185,0.04951
503.33032,0.05479
505.25879,0.06595
507.18726,0.08533
509.11573,0.10597
511.04419,0.11570
512.97266,0.12525
514.90113,0.13311
516.82960,0.11918
518.75807,0.09911
520.68654,0.10868
522.61501,0.13262
524.54348,0.13127
526.47194,0.12735
528.40041,0.14301
530.32888,0.14112
532.25735,0.10253
534.18582,0.06329
536.11429,0.06683
538.04276,0.10859
539.97122,0.15401
541.89969,0.17868
543.82816,0.16953
545.75663,0.15424
547.68510,0.16171
549.61357,0.16681
551.54204,0.14610
553.47051,0.11799
555.39897,0.10017
557.32744,0.10135
559.25591,0.12939
561.18438,0.14591
563.11285,0.09430
565.04132,0.02095
566.96979,0.02083
568.89825,0.07245
570.82672,0.10190
572.75519,0.11497
574.68366,0.12862
576.61213,0.12556
578.54060,0.10878
580.46907,0.09723
582.39754,0.10199
584.32600,0.12212
586.25447,0.14877
588.18294,0.17091
590.11141,0.18525
592.03988,0.18825
593.96835,0.16244
595.89682,0.12035
597.82528,0.09400
599.75375,0.09426
601.68222,0.12763
603.61069,0.16481
605.53916,0.16236
607.46763,0.14712
609.39610,0.15629
611.32456,0.18068
613.25303,0.18995
615.18150,0.16966
617.10997,0.14417
619.03844,0.13808
620.96691,0.14236
622.89538,0.13695
624.82385,0.12736
626.75231,0.12272
628.68078,0.10769
630.60925,0.08690
632.53772,0.09293
634.46619,0.13013
636.39466,0.15799
638.32313,0.15129
640.25159,0.13650
642.18006,0.14030
644.10853,0.14049
646.03700,0.12028
647.96547,0.10120
649.89394,0.10751
651.82241,0.12747
653.75088,0.13019
655.67934,0.12799
657.60781,0.14242
659.53628,0.14763
661.46475,0.12487
663.39322,0.09036
665.32169,0.06402
667.25016,0.06227
669.17862,0.09968
671.10709,0.13295
673.03556,0.13722
674.96403,0.12165
676.89250,0.11557
678.82097,0.12688
680.74944,0.13117
682.67791,0.12882
684.60637,0.12734
686.53484,0.12033
688.46331,0.11797
690.39178,0.13102
692.32025,0.14094
694.24872,0.14149
696.17719,0.14457
698.10565,0.14039
700.03412,0.12553
701.96259,0.11358
703.89106,0.11371
705.81953,0.12495
707.74800,0.13291
709.67647,0.13766
711.60494,0.15061
713.53340,0.15932
715.46187,0.14885
717.39034,0.13400
719.31881,0.13076
721.24728,0.13653
723.17575,0.14384
725.10422,0.14136
727.03268,0.12831
728.96115,0.11942
730.88962,0.12512
732.81809,0.13759
734.74656,0.13622
736.67503,0.12880
738.60350,0.13588
740.53197,0.14859
742.46043,0.15340
744.38890,0.14565
746.31737,0.13117
748.24584,0.12664
750.17431,0.13247
752.10278,0.13940
754.03125,0.14833
755.95971,0.15267
757.88818,0.14374
759.81665,0.13598
761.74512,0.13675
763.67359,0.13536
765.60206,0.13292
767.53053,0.13413
769.45900,0.13903
771.38746,0.14827
773.31593,0.15775
775.24440,0.16146
777.17287,0.15314
779.10134,0.13312
781.02981,0.11590
782.95828,0.11346
784.88674,0.12124
786.81521,0.13426
788.74368,0.15898
790.67215,0.19175
792.60062,0.20745
794.52909,0.19045
796.45756,0.16349
798.38602,0.15008
800.31449,0.14402
802.24296,0.14026
804.17143,0.14474
806.09990,0.14787
808.02837,0.13290
809.95684,0.11365
811.88531,0.10946
813.81377,0.11216
815.74224,0.11996
817.67071,0.13530
819.59918,0.14724
821.52765,0.15262
823.45612,0.15242
825.38459,0.15391
827.31305,0.16237
829.24152,0.16037
831.16999,0.14498
833.09846,0.13454
835.02693,0.13082
836.95540,0.12529
838.88387,0.12462
840.81234,0.14056
842.74080,0.16003
844.66927,0.16003
846.59774,0.14612
848.52621,0.13644
850.45468,0.13854
852.38315,0.14773
854.31162,0.15319
856.24008,0.15036
858.16855,0.14305
860.09702,0.14317
862.02549,0.15353
863.95396,0.15881
865.88243,0.15347
867.81090,0.14762
869.73937,0.14532
871.66783,0.14479
873.59630,0.14955
875.52477,0.15791
877.45324,0.15857
879.38171,0.15186
881.31018,0.14237
883.23865,0.13144
885.16711,0.13405
887.09558,0.15286
889.02405,0.16798
890.95252,0.17028
892.88099,0.16154
894.80946,0.14890
896.73793,0.14199
898.66640,0.14231
900.59486,0.14488
902.52333,0.14306
904.45180,0.13928
906.38027,0.14212
908.30874,0.14741
910.23721,0.14566
912.16568,0.13650
914.09414,0.12668
916.02261,0.12472
917.95108,0.13131
919.87955,0.14153
921.80802,0.15072
923.73649,0.15094
925.66496,0.14372
927.59343,0.14002
929.52189,0.14228
931.45036,0.14594
933.37883,0.14604
935.30730,0.14064
937.23577,0.13307
939.16424,0.12864
941.09271,0.12884
943.02117,0.13260
944.94964,0.13891
946.87811,0.14002
948.80658,0.13460
950.73505,0.13520
952.66352,0.14707
954.59199,0.15981
956.52045,0.15933
958.44892,0.15078
960.37739,0.14757
962.30586,0.14806
964.23433,0.15027
966.16280,0.15550
968.09127,0.15636
970.01974,0.14747
971.94820,0.13891
973.87667,0.14134
975.80514,0.14728
977.73361,0.14833
979.66208,0.15031
981.59055,0.15590
983.51902,0.15892
985.44748,0.15816
987.37595,0.15661
989.30442,0.15824
991.23289,0.16272
993.16136,0.16244
995.08983,0.15762
997.01830,0.15547
998.94677,0.15906
1000.87523,0.16605
1002.80370,0.16904
1004.73217,0.16831
1006.66064,0.17132
1008.58911,0.17343
1010.51758,0.16759
1012.44605,0.15866
1014.37451,0.15201
1016.30298,0.14947
1018.23145,0.15119
1020.15992,0.15456
1022.08839,0.15710
1024.01686,0.15263
1025.94533,0.14328
1027.87380,0.14393
1029.80226,0.14731
1031.73073,0.14267
1033.65920,0.14771
1035.58767,0.15926
1037.51614,0.15735
1039.44461,0.15101
1041.37308,0.15365
1043.30154,0.16166
1045.23001,0.16634
1047.15848,0.16331
1049.08695,0.15637
1051.01542,0.15551
1052.94389,0.16216
1054.87236,0.16644
1056.80083,0.16696
1058.72929,0.16687
1060.65776,0.16722
1062.58623,0.17079
1064.51470,0.17517
1066.44317,0.17421
1068.37164,0.16415
1070.30011,0.15762
1072.22857,0.16866
1074.15704,0.17959
1076.08551,0.17578
1078.01398,0.17099
1079.94245,0.17453
1081.87092,0.17597
1083.79939,0.16939
1085.72786,0.16924
1087.65632,0.17779
1089.58479,0.17800
1091.51326,0.17049
1093.44173,0.16744
1095.37020,0.16922
1097.29867,0.17165
1099.22714,0.17188
1101.15560,0.16506
1103.08407,0.15378
1105.01254,0.14690
1106.94101,0.14211
1108.86948,0.13827
1110.79795,0.14541
1112.72642,0.15875
1114.65489,0.16432
1116.58335,0.16189
1118.51182,0.15949
1120.44029,0.16202
1122.36876,0.16066
1124.29723,0.15313
1126.22570,0.15330
1128.15417,0.16019
1130.08263,0.16297
1132.01110,0.15954
1133.93957,0.15294
1135.86804,0.15114
1137.79651,0.15582
1139.72498,0.15628
1141.65345,0.14951
1143.58191,0.14874
1145.51038,0.16156
1147.43885,0.17374
1149.36732,0.17158
1151.29579,0.16629
1153.22426,0.17252
1155.15273,0.18223
1157.08120,0.18341
1159.00966,0.17981
1160.93813,0.17568
1162.86660,0.16811
1164.79507,0.16252
1166.72354,0.16675
1168.65201,0.17315
1170.58048,0.17293
1172.50894,0.17160
1174.43741,0.17384
1176.36588,0.17205
1178.29435,0.16135
1180.22282,0.15251
1182.15129,0.15188
1184.07976,0.14790
1186.00823,0.13623
1187.93669,0.13437
1189.86516,0.14801
1191.79363,0.15795
1193.72210,0.16114
1195.65057,0.16665
1197.57904,0.16907
1199.50751,0.16547
1201.43597,0.16387
1203.36444,0.16856
1205.29291,0.17257
1207.22138,0.17117
1209.14985,0.16898
1211.07832,0.16867
1213.00679,0.16949
1214.93526,0.16966
1216.86372,0.16667
1218.79219,0.16254
1220.72066,0.16036
1222.64913,0.15974
1224.57760,0.16353
1226.50607,0.16981
1228.43454,0.17044
1230.36300,0.16838
1232.29147,0.16878
1234.21994,0.16733
1236.14841,0.16309
1238.07688,0.16362
1240.00535,0.16999
1241.93382,0.17429
1243.86229,0.17276
1245.79075,0.16631
1247.71922,0.15909
1249.64769,0.15727
1251.57616,0.16050
1253.50463,0.16442
1255.43310,0.16906
1257.36157,0.17327
1259.29003,0.17104
1261.21850,0.16528
1263.14697,0.16481
1265.07544,0.16801
1267.00391,0.16930
1268.93238,0.16768
1270.86085,0.16448
1272.78932,0.16131
1274.71778,0.16043
1276.64625,0.16424
1278.57472,0.17001
1280.50319,0.16961
1282.43166,0.16458
1284.36013,0.16540
1286.28860,0.16988
1288.21706,0.17040
1290.14553,0.16927
1292.07400,0.16814
1294.00247,0.16561
1295.93094,0.16164
1297.85941,0.15686
1299.78788,0.15166
1301.71634,0.14084
1303.64481,0.12588
1305.57328,0.12629
1307.50175,0.14766
1309.43022,0.16616
1311.35869,0.17010
1313.28716,0.17130
1315.21563,0.17282
1317.14409,0.17216
1319.07256,0.17317
1321.00103,0.17378
1322.92950,0.17168
1324.85797,0.16670
1326.78644,0.16074
1328.71491,0.16162
1330.64337,0.16447
1332.57184,0.16275
1334.50031,0.16299
1336.42878,0.16577
1338.35725,0.16801
1340.28572,0.16547
1342.21419,0.17097
1344.14266,0.20428
1346.07112,0.23161
1347.99959,0.21309
1349.92806,0.17948
1351.85653,0.16706
1353.78500,0.16665
1355.71347,0.16807
1357.64194,0.17220
1359.57040,0.17629
1361.49887,0.17776
1363.42734,0.17745
1365.35581,0.17654
1367.28428,0.17632
1369.21275,0.17727
1371.14122,0.17695
1373.06969,0.17589
1374.99815,0.17872
1376.92662,0.18315
1378.85509,0.18451
1380.78356,0.18265
1382.71203,0.18052
1384.64050,0.18268
1386.56897,0.18458
1388.49743,0.17834
1390.42590,0.17364
1392.35437,0.17797
1394.28284,0.18610
1396.21131,0.19030
1398.13978,0.18873
1400.06825,0.18277
1401.99672,0.17743
1403.92518,0.17678
1405.85365,0.17817
1407.78212,0.17927
1409.71059,0.18124
1411.63906,0.18312
1413.56753,0.18531
1415.49600,0.19012
1417.42446,0.19501
1419.35293,0.19188
1421.28140,0.18490
1423.20987,0.18430
1425.13834,0.18733
1427.06681,0.18772
1428.99528,0.18568
1430.92375,0.18450
1432.85221,0.18443
1434.78068,0.18578
1436.70915,0.18916
1438.63762,0.18978
1440.56609,0.18561
1442.49456,0.18078
1444.42303,0.18125
1446.35149,0.18718
1448.27996,0.19214
1450.20843,0.19254
1452.13690,0.19201
1454.06537,0.19746
1455.99384,0.21392
1457.92231,0.22190
1459.85077,0.20726
1461.77924,0.19803
1463.70771,0.19888
1465.63618,0.19899
1467.56465,0.19204
1469.49312,0.18879
1471.42159,0.19574
1473.35006,0.20669
1475.27852,0.20592
1477.20699,0.19754
1479.13546,0.19243
1481.06393,0.19143
1482.99240,0.18909
1484.92087,0.18904
1486.84934,0.20049
1488.77780,0.21648
1490.70627,0.21297
1492.63474,0.20159
1494.56321,0.20297
1496.49168,0.21152
1498.42015,0.20849
1500.34862,0.20020
1502.27709,0.20181
1504.20555,0.21520
1506.13402,0.23439
1508.06249,0.22719
1509.99096,0.20823
1511.91943,0.19955
1513.84790,0.20018
1515.77637,0.20679
1517.70483,0.21074
1519.63330,0.21412
1521.56177,0.21870
1523.49024,0.21215
1525.41871,0.20283
1527.34718,0.19765
1529.27565,0.19506
1531.20412,0.19746
1533.13258,0.20365
1535.06105,0.20632
1536.98952,0.20992
1538.91799,0.22315
1540.84646,0.23439
1542.77493,0.22264
1544.70340,0.20560
1546.63186,0.19316
1548.56033,0.18966
1550.48880,0.19326
1552.41727,0.19998
1554.34574,0.20795
1556.27421,0.21476
1558.20268,0.22040
1560.13115,0.21377
1562.05961,0.20261
1563.98808,0.19601
1565.91655,0.19368
1567.84502,0.19748
1569.77349,0.20084
1571.70196,0.19646
1573.63043,0.19463
1575.55889,0.19877
1577.48736,0.19619
1579.41583,0.18716
1581.34430,0.18084
1583.27277,0.17761
1585.20124,0.17755
1587.12971,0.17869
1589.05818,0.17932
1590.98664,0.18082
1592.91511,0.18184
1594.84358,0.18049
1596.77205,0.17866
1598.70052,0.17876
1600.62899,0.18114
1602.55746,0.18370
1604.48592,0.18353
1606.41439,0.18280
1608.34286,0.18606
1610.27133,0.19074
1612.19980,0.19255
1614.12827,0.19461
1616.05674,0.19964
1617.98521,0.20281
1619.91367,0.20192
1621.84214,0.19962
1623.77061,0.19939
1625.69908,0.20393
1627.62755,0.20723
1629.55602,0.20579
1631.48449,0.20439
1633.41295,0.20807
1635.34142,0.21554
1637.26989,0.21222
1639.19836,0.20190
1641.12683,0.19730
1643.05530,0.20108
1644.98377,0.21258
1646.91223,0.22369
1648.84070,0.21803
1650.76917,0.21181
1652.69764,0.22172
1654.62611,0.22419
1656.55458,0.20948
1658.48305,0.20054
1660.41152,0.19693
1662.33998,0.19480
1664.26845,0.19797
1666.19692,0.20544
1668.12539,0.21304
1670.05386,0.21524
1671.98233,0.20907
1673.91080,0.20416
1675.83926,0.20194
1677.76773,0.20203
1679.69620,0.20656
1681.62467,0.21461
1683.55314,0.22300
1685.48161,0.21931
1687.41008,0.20962
1689.33855,0.20396
1691.26701,0.20273
1693.19548,0.20640
1695.12395,0.21450
1697.05242,0.22276
1698.98089,0.22457
1700.90936,0.21616
1702.83783,0.20771
1704.76629,0.20581
1706.69476,0.20391
1708.62323,0.19833
1710.55170,0.19387
1712.48017,0.19476
1714.40864,0.20158
1716.33711,0.20852
1718.26558,0.20565
1720.19404,0.20001
1722.12251,0.19645
1724.05098,0.19152
1725.97945,0.18750
1727.90792,0.18943
1729.83639,0.19565
1731.76486,0.20203
1733.69332,0.20612
1735.62179,0.20345
1737.55026,0.20065
1739.47873,0.20128
1741.40720,0.20077
1743.33567,0.19781
1745.26414,0.19741
1747.19261,0.20119
1749.12107,0.20466
1751.04954,0.20230
1752.97801,0.19578
1754.90648,0.19161
1756.83495,0.19188
1758.76342,0.19462
1760.69189,0.19694
1762.62035,0.19471
1764.54882,0.19092
1766.47729,0.19446
1768.40576,0.20539
1770.33423,0.21438
1772.26270,0.21305
1774.19117,0.20412
1776.11964,0.19698
1778.04810,0.19426
1779.97657,0.19555
1781.90504,0.19656
1783.83351,0.19392
1785.76198,0.19049
1787.69045,0.19136
1789.61892,0.19859
1791.54738,0.20784
1793.47585,0.20797
1795.40432,0.20172
1797.33279,0.19873
1799.26126,0.19940
1801.18973,0.19926
1803.11820,0.19565
1805.04666,0.19193
1806.97513,0.19088
1808.90360,0.19161
1810.83207,0.19214
1812.76054,0.19051
1814.68901,0.18852
1816.61748,0.18821
1818.54595,0.18667
1820.47441,0.18492
1822.40288,0.18947
1824.33135,0.19773
1826.25982,0.20103
1828.18829,0.20084
1830.11676,0.19844
1832.04523,0.19313
1833.97369,0.19054
1835.90216,0.19154
1837.83063,0.19204
1839.75910,0.19057
1841.68757,0.19082
1843.61604,0.19526
1845.54451,0.19884
1847.47298,0.19620
1849.40144,0.19084
1851.32991,0.18829
1853.25838,0.18879
1855.18685,0.18859
1857.11532,0.18784
1859.04379,0.18939
1860.97226,0.19181
1862.90072,0.19165
1864.82919,0.19171
1866.75766,0.19634
1868.68613,0.19915
1870.61460,0.19373
1872.54307,0.18989
1874.47154,0.19058
1876.40001,0.19141
1878.32847,0.19204
1880.25694,0.19282
1882.18541,0.19377
1884.11388,0.19493
1886.04235,0.19491
1887.97082,0.19482
1889.89929,0.19454
1891.82775,0.19296
1893.75622,0.19222
1895.68469,0.19197
1897.61316,0.19204
1899.54163,0.19318
1901.47010,0.19208
1903.39857,0.18852
1905.32704,0.18780
1907.25550,0.19085
1909.18397,0.19357
1911.11244,0.19338
1913.04091,0.19114
1914.96938,0.19013
1916.89785,0.19234
1918.82632,0.19412
1920.75478,0.19368
1922.68325,0.19406
1924.61172,0.19427
1926.54019,0.19300
1928.46866,0.19276
1930.39713,0.19386
1932.32560,0.19275
1934.25407,0.18847
1936.18253,0.18486
1938.11100,0.18613
1940.03947,0.19257
1941.96794,0.19806
1943.89641,0.19656
1945.82488,0.19209
1947.75335,0.18991
1949.68181,0.18937
1951.61028,0.18903
1953.53875,0.18990
1955.46722,0.19228
1957.39569,0.19367
1959.32416,0.19256
1961.25263,0.19095
1963.18110,0.19152
1965.10956,0.19320
1967.03803,0.19363
1968.96650,0.19384
1970.89497,0.19499
1972.82344,0.19597
1974.75191,0.19463
1976.68038,0.18883
1978.60884,0.18216
1980.53731,0.18195
1982.46578,0.18664
1984.39425,0.18890
1986.32272,0.18858
1988.25119,0.18871
1990.17966,0.18961
1992.10812,0.19123
1994.03659,0.19220
1995.96506,0.19151
1997.89353,0.19062
1999.82200,0.19074
2001.75047,0.19129
2003.67894,0.19127
2005.60741,0.19193
2007.53587,0.19370
2009.46434,0.19364
2011.39281,0.19198
2013.32128,0.19246
2015.24975,0.19444
2017.17822,0.19361
2019.10669,0.19007
2021.03515,0.18776
2022.96362,0.18780
2024.89209,0.18870
2026.82056,0.18898
2028.74903,0.18862
2030.67750,0.18845
2032.60597,0.18896
2034.53444,0.19013
2036.46290,0.19082
2038.39137,0.19004
2040.31984,0.18880
2042.24831,0.18870
2044.17678,0.18948
2046.10525,0.19056
2048.03372,0.19182
2049.96218,0.19103
2051.89065,0.18911
2053.81912,0.18905
2055.74759,0.18888
2057.67606,0.18853
2059.60453,0.19068
2061.53300,0.19200
2063.46147,0.18881
2065.38993,0.18556
2067.31840,0.18636
2069.24687,0.18854
2071.17534,0.18910
2073.10381,0.18778
2075.03228,0.18770
2076.96075,0.19143
2078.88921,0.19533
2080.81768,0.19542
2082.74615,0.19319
2084.67462,0.19149
2086.60309,0.19049
2088.53156,0.19073
2090.46003,0.19266
2092.38850,0.19391
2094.31696,0.19368
2096.24543,0.19302
2098.17390,0.19151
2100.10237,0.19045
2102.03084,0.19162
2103.95931,0.19346
2105.88778,0.19407
2107.81624,0.19353
2109.74471,0.19334
2111.67318,0.19371
2113.60165,0.19395
2115.53012,0.19442
2117.45859,0.19360
2119.38706,0.19099
2121.31553,0.18938
2123.24399,0.19077
2125.17246,0.19443
2127.10093,0.19778
2129.02940,0.19928
2130.95787,0.19825
2132.88634,0.19459
2134.81481,0.18844
2136.74327,0.18078
2138.67174,0.17778
2140.60021,0.18205
2142.52868,0.18619
2144.45715,0.18682
2146.38562,0.18837
2148.31409,0.19175
2150.24255,0.19373
2152.17102,0.19491
2154.09949,0.19696
2156.02796,0.19675
2157.95643,0.19426
2159.88490,0.19465
2161.81337,0.19755
2163.74184,0.19908
2165.67030,0.20046
2167.59877,0.20191
2169.52724,0.19981
2171.45571,0.19564
2173.38418,0.19368
2175.31265,0.19377
2177.24112,0.19431
2179.16958,0.19553
2181.09805,0.19776
2183.02652,0.19922
2184.95499,0.19774
2186.88346,0.19503
2188.81193,0.19427
2190.74040,0.19421
2192.66887,0.19420
2194.59733,0.19475
2196.52580,0.19354
2198.45427,0.19241
2200.38274,0.19289
2202.31121,0.19127
2204.23968,0.18923
2206.16815,0.19124
2208.09661,0.19525
2210.02508,0.19633
2211.95355,0.19388
2213.88202,0.19212
2215.81049,0.19259
2217.73896,0.19347
2219.66743,0.19483
2221.59590,0.19569
2223.52436,0.19425
2225.45283,0.19244
2227.38130,0.19317
2229.30977,0.19557
2231.23824,0.19696
2233.16671,0.19783
2235.09518,0.19847
2237.02364,0.19792
2238.95211,0.19645
2240.88058,0.19486
2242.80905,0.19478
2244.73752,0.19579
2246.66599,0.19627
2248.59446,0.19643
2250.52293,0.19669
2252.45139,0.19625
2254.37986,0.19439
2256.30833,0.19325
2258.23680,0.19364
2260.16527,0.19388
2262.09374,0.19414
2264.02221,0.19330
2265.95067,0.18998
2267.87914,0.18701
2269.80761,0.18710
2271.73608,0.18980
2273.66455,0.19300
2275.59302,0.19423
2277.52149,0.19386
2279.44996,0.19307
2281.37842,0.19129
2283.30689,0.19070
2285.23536,0.19178
2287.16383,0.19185
2289.09230,0.19134
2291.02077,0.18984
2292.94924,0.18845
2294.87770,0.18952
2296.80617,0.18883
2298.73464,0.18474
2300.66311,0.18152
2302.59158,0.18184
2304.52005,0.18523
2306.44852,0.18872
2308.37699,0.18947
2310.30545,0.18661
2312.23392,0.18475
2314.16239,0.18759
2316.09086,0.18786
2318.01933,0.18247
2319.94780,0.18001
2321.87627,0.18341
2323.80473,0.18688
2325.73320,0.18833
2327.66167,0.18951
2329.59014,0.18998
2331.51861,0.18730
2333.44708,0.18637
2335.37555,0.19077
2337.30401,0.19448
2339.23248,0.19423
2341.16095,0.19056
2343.08942,0.18629
2345.01789,0.18071
2346.94636,0.17709
2348.87483,0.17893
2350.80330,0.18022
2352.73176,0.17852
2354.66023,0.17178
2356.58870,0.14759
2358.51717,0.12750
2360.44564,0.13876
2362.37411,0.14777
2364.30258,0.14394
2366.23104,0.15780
2368.15951,0.17986
2370.08798,0.18441
2372.01645,0.18301
2373.94492,0.18711
2375.87339,0.18931
2377.80186,0.18719
2379.73033,0.18553
2381.65879,0.18698
2383.58726,0.19003
2385.51573,0.19252
2387.44420,0.19421
2389.37267,0.19528
2391.30114,0.19581
2393.22961,0.19590
2395.15807,0.19522
2397.08654,0.19433
2399.01501,0.19414
2400.94348,0.19430
2402.87195,0.19499
2404.80042,0.19707
2406.72889,0.19822
2408.65736,0.19579
2410.58582,0.19320
2412.51429,0.19394
2414.44276,0.19531
2416.37123,0.19500
2418.29970,0.19435
2420.22817,0.19395
2422.15664,0.19294
2424.08510,0.19250
2426.01357,0.19317
2427.94204,0.19245
2429.87051,0.19137
2431.79898,0.19183
2433.72745,0.19213
2435.65592,0.19205
2437.58439,0.19093
2439.51285,0.18813
2441.44132,0.18738
2443.36979,0.19042
2445.29826,0.19449
2447.22673,0.19709
2449.15520,0.19788
2451.08367,0.19824
2453.01213,0.19710
2454.94060,0.19190
2456.86907,0.18650
2458.79754,0.18671
2460.72601,0.19091
2462.65448,0.19465
2464.58295,0.19712
2466.51142,0.19922
2468.43988,0.20034
2470.36835,0.19962
2472.29682,0.19811
2474.22529,0.19510
2476.15376,0.19131
2478.08223,0.19158
2480.01070,0.19534
2481.93916,0.19720
2483.86763,0.19708
2485.79610,0.19842
2487.72457,0.19991
2489.65304,0.19859
2491.58151,0.19511
2493.50998,0.19167
2495.43844,0.19005
2497.36691,0.19056
2499.29538,0.19185
2501.22385,0.19216
2503.15232,0.19227
2505.08079,0.19395
2507.00926,0.19644
2508.93773,0.19799
2510.86619,0.19684
2512.79466,0.19408
2514.72313,0.19300
2516.65160,0.19273
2518.58007,0.19241
2520.50854,0.19522
2522.43701,0.19999
2524.36547,0.20083
2526.29394,0.19727
2528.22241,0.19521
2530.15088,0.19587
2532.07935,0.19484
2534.00782,0.19291
2535.93629,0.19156
2537.86476,0.19045
2539.79322,0.19185
2541.72169,0.19399
2543.65016,0.19409
2545.57863,0.19452
2547.50710,0.19676
2549.43557,0.19846
2551.36404,0.19776
2553.29250,0.19592
2555.22097,0.19485
2557.14944,0.19367
2559.07791,0.19129
2561.00638,0.19132
2562.93485,0.19555
2564.86332,0.19941
2566.79179,0.19981
2568.72025,0.19719
2570.64872,0.19365
2572.57719,0.19218
2574.50566,0.19357
2576.43413,0.19536
2578.36260,0.19575
2580.29107,0.19601
2582.21953,0.19554
2584.14800,0.19378
2586.07647,0.19322
2588.00494,0.19306
2589.93341,0.19211
2591.86188,0.19210
2593.79035,0.19339
2595.71882,0.19500
2597.64728,0.19616
2599.57575,0.19646
2601.50422,0.19618
2603.43269,0.19630
2605.36116,0.19720
2607.28963,0.19822
2609.21810,0.19823
2611.14656,0.19738
2613.07503,0.19854
2615.00350,0.20151
2616.93197,0.20259
2618.86044,0.20089
2620.78891,0.19855
2622.71738,0.19808
2624.64585,0.19911
2626.57431,0.19893
2628.50278,0.19820
2630.43125,0.19858
2632.35972,0.19830
2634.28819,0.19683
2636.21666,0.19526
2638.14513,0.19338
2640.07359,0.19267
2642.00206,0.19421
2643.93053,0.19634
2645.85900,0.19786
2647.78747,0.19755
2649.71594,0.19572
2651.64441,0.19631
2653.57288,0.19997
2655.50134,0.20230
2657.42981,0.20163
2659.35828,0.19987
2661.28675,0.19906
2663.21522,0.19959
2665.14369,0.19944
2667.07216,0.19831
2669.00062,0.19826
2670.92909,0.19954
2672.85756,0.20096
2674.78603,0.20088
2676.71450,0.19874
2678.64297,0.19672
2680.57144,0.19671
2682.49990,0.19974
2684.42837,0.20425
2686.35684,0.20636
2688.28531,0.20614
2690.21378,0.20549
2692.14225,0.20477
2694.07072,0.20494
2695.99919,0.20481
2697.92765,0.20244
2699.85612,0.19994
2701.78459,0.19859
2703.71306,0.19752
2705.64153,0.19734
2707.57000,0.19810
2709.49847,0.19990
2711.42693,0.20339
2713.35540,0.20564
2715.28387,0.20437
2717.21234,0.20319
2719.14081,0.20384
2721.06928,0.20374
2722.99775,0.20292
2724.92622,0.20271
2726.85468,0.20217
2728.78315,0.20097
2730.71162,0.20070
2732.64009,0.20119
2734.56856,0.20266
2736.49703,0.20562
2738.42550,0.20606
2740.35396,0.20274
2742.28243,0.19940
2744.21090,0.19695
2746.13937,0.19622
2748.06784,0.19910
2749.99631,0.20373
2751.92478,0.20584
2753.85325,0.20358
2755.78171,0.20021
2757.71018,0.19982
2759.63865,0.20312
2761.56712,0.20765
2763.49559,0.20890
2765.42406,0.20630
2767.35253,0.20181
2769.28099,0.19648
2771.20946,0.19480
2773.13793,0.19873
2775.06640,0.20486
2776.99487,0.21016
2778.92334,0.21134
2780.85181,0.20806
2782.78028,0.20478
2784.70874,0.20542
2786.63721,0.20861
2788.56568,0.20892
2790.49415,0.20674
2792.42262,0.20795
2794.35109,0.21100
2796.27956,0.21076
2798.20802,0.20866
2800.13649,0.20818
2802.06496,0.20816
2803.99343,0.20627
2805.92190,0.20423
2807.85037,0.20326
2809.77884,0.20332
2811.70731,0.20661
2813.63577,0.21003
2815.56424,0.20805
2817.49271,0.20519
2819.42118,0.20583
2821.34965,0.20694
2823.27812,0.20732
2825.20659,0.20751
2827.13505,0.20785
2829.06352,0.20807
2830.99199,0.20660
2832.92046,0.20388
2834.84893,0.20319
2836.77740,0.20785
2838.70587,0.21380
2840.63433,0.21446
2842.56280,0.21321
2844.49127,0.21241
2846.41974,0.20717
2848.34821,0.19903
2850.27668,0.19526
2852.20515,0.19888
2854.13362,0.20431
2856.06208,0.20524
2857.99055,0.20615
2859.91902,0.21057
2861.84749,0.21325
2863.77596,0.21200
2865.70443,0.21028
2867.63290,0.20990
2869.56136,0.20922
2871.48983,0.20785
2873.41830,0.20674
2875.34677,0.20763
2877.27524,0.21009
2879.20371,0.21089
2881.13218,0.21146
2883.06065,0.21235
2884.98911,0.20974
2886.91758,0.20578
2888.84605,0.20450
2890.77452,0.20509
2892.70299,0.20566
2894.63146,0.20369
2896.55993,0.20056
2898.48839,0.20075
2900.41686,0.20227
2902.34533,0.20121
2904.27380,0.19747
2906.20227,0.19543
2908.13074,0.19834
2910.05921,0.20072
2911.98768,0.19917
2913.91614,0.19594
2915.84461,0.19139
2917.77308,0.18921
2919.70155,0.19363
2921.63002,0.20104
2923.55849,0.20375
2925.48696,0.19753
2927.41542,0.19446
2929.34389,0.20504
2931.27236,0.21353
2933.20083,0.21002
2935.12930,0.20203
2937.05777,0.19528
2938.98624,0.19707
2940.91471,0.20428
2942.84317,0.20670
2944.77164,0.20204
2946.70011,0.19302
2948.62858,0.19222
2950.55705,0.20265
2952.48552,0.20939
2954.41399,0.20616
2956.34245,0.19720
2958.27092,0.19310
2960.19939,0.19972
2962.12786,0.20711
2964.05633,0.20720
2965.98480,0.20166
2967.91327,0.19796
2969.84174,0.20273
2971.77020,0.21101
2973.69867,0.21337
2975.62714,0.20605
2977.55561,0.19612
2979.48408,0.19569
2981.41255,0.20298
2983.34102,0.20828
2985.26948,0.20750
2987.19795,0.20111
2989.12642,0.19910
2991.05489,0.20716
2992.98336,0.21556
2994.91183,0.21829
2996.84030,0.21606
2998.76877,0.21212
3000.69723,0.21009
3002.62570,0.20841
3004.55417,0.20627
3006.48264,0.20305
3008.41111,0.19833
3010.33958,0.19048
3012.26805,0.17111
3014.19651,0.13585
3016.12498,0.10691
3018.05345,0.12247
3019.98192,0.17298
3021.91039,0.20989
3023.83886,0.22081
3025.76733,0.21917
3027.69579,0.21181
3029.62426,0.20741
3031.55273,0.21111
3033.48120,0.21703
3035.40967,0.21813
3037.33814,0.21240
3039.26661,0.20689
3041.19508,0.21031
3043.12354,0.21662
3045.05201,0.21445
3046.98048,0.20596
3048.90895,0.20249
3050.83742,0.20474
3052.76589,0.20589
3054.69436,0.20289
3056.62282,0.19611
3058.55129,0.19627
3060.47976,0.20467
3062.40823,0.20905
3064.33670,0.20641
3066.26517,0.19979
3068.19364,0.19708
3070.12211,0.20067
3072.05057,0.20404
3073.97904,0.20224
3075.90751,0.19667
3077.83598,0.19844
3079.76445,0.20831
3081.69292,0.21303
3083.62139,0.20469
3085.54985,0.19406
3087.47832,0.19798
3089.40679,0.20814
3091.33526,0.20875
3093.26373,0.20152
3095.19220,0.19828
3097.12067,0.20725
3099.04914,0.21917
3100.97760,0.21734
3102.90607,0.20187
3104.83454,0.19326
3106.76301,0.19899
3108.69148,0.20317
3110.61995,0.19629
3112.54842,0.19043
3114.47688,0.20129
3116.40535,0.21847
3118.33382,0.22195
3120.26229,0.21180
3122.19076,0.20352
3124.11923,0.20782
3126.04770,0.21498
3127.97617,0.21460
3129.90463,0.20944
3131.83310,0.20720
3133.76157,0.21196
3135.69004,0.21642
3137.61851,0.21407
3139.54698,0.21098
3141.47545,0.21429
3143.40391,0.21930
3145.33238,0.22072
3147.26085,0.21987
3149.18932,0.21739
3151.11779,0.21504
3153.04626,0.21502
3154.97473,0.21729
3156.90320,0.22017
3158.83166,0.22013
3160.76013,0.21691
3162.68860,0.21567
3164.61707,0.21760
3166.54554,0.21893
3168.47401,0.21969
3170.40248,0.22123
3172.33094,0.22118
3174.25941,0.21722
3176.18788,0.21320
3178.11635,0.21397
3180.04482,0.21617
3181.97329,0.21630
3183.90176,0.21727
3185.83022,0.22003
3187.75869,0.22051
3189.68716,0.21665
3191.61563,0.21208
3193.54410,0.20927
3195.47257,0.20730
3197.40104,0.20946
3199.32951,0.21646
3201.25797,0.22067
3203.18644,0.21988
3205.11491,0.21947
3207.04338,0.22089
3208.97185,0.21910
3210.90032,0.21365
3212.82879,0.21134
3214.75725,0.21404
3216.68572,0.21874
3218.61419,0.22069
3220.54266,0.21614
3222.47113,0.21147
3224.39960,0.21165
3226.32807,0.21050
3228.25654,0.20898
3230.18500,0.21421
3232.11347,0.22106
3234.04194,0.22148
3235.97041,0.21705
3237.89888,0.21254
3239.82735,0.21153
3241.75582,0.21263
3243.68428,0.21173
3245.61275,0.21216
3247.54122,0.21520
3249.46969,0.21452
3251.39816,0.21118
3253.32663,0.21000
3255.25510,0.21044
3257.18357,0.21290
3259.11203,0.21692
3261.04050,0.21933
3262.96897,0.22015
3264.89744,0.21889
3266.82591,0.21549
3268.75438,0.21572
3270.68285,0.21996
3272.61131,0.22025
3274.53978,0.21419
3276.46825,0.20616
3278.39672,0.20217
3280.32519,0.20333
3282.25366,0.20565
3284.18213,0.21026
3286.11060,0.21675
3288.03906,0.21939
3289.96753,0.21654
3291.89600,0.21077
3293.82447,0.20800
3295.75294,0.21135
3297.68141,0.21603
3299.60988,0.21888
3301.53834,0.22103
3303.46681,0.22103
3305.39528,0.21756
3307.32375,0.21397
3309.25222,0.21437
3311.18069,0.21720
3313.10916,0.21644
3315.03763,0.21116
3316.96609,0.20529
3318.89456,0.20109
3320.82303,0.19885
3322.75150,0.19828
3324.67997,0.20140
3326.60844,0.21040
3328.53691,0.21948
3330.46537,0.22191
3332.39384,0.22102
3334.32231,0.22049
3336.25078,0.22062
3338.17925,0.22131
3340.10772,0.21914
3342.03619,0.21466
3343.96466,0.21375
3345.89312,0.21757
3347.82159,0.22148
3349.75006,0.22078
3351.67853,0.21654
3353.60700,0.21535
3355.53547,0.21720
3357.46394,0.21708
3359.39240,0.21803
3361.32087,0.22148
3363.24934,0.22172
3365.17781,0.22003
3367.10628,0.22284
3369.03475,0.22486
3370.96322,0.22003
3372.89168,0.21630
3374.82015,0.21724
3376.74862,0.21866
3378.67709,0.21752
3380.60556,0.21251
3382.53403,0.21099
3384.46250,0.21503
3386.39097,0.21454
3388.31943,0.21114
3390.24790,0.21288
3392.17637,0.21567
3394.10484,0.21555
3396.03331,0.21578
3397.96178,0.22044
3399.89025,0.22856
3401.81871,0.23037
3403.74718,0.22277
3405.67565,0.21857
3407.60412,0.22305
3409.53259,0.22453
3411.46106,0.21867
3413.38953,0.21249
3415.31800,0.21112
3417.24646,0.21663
3419.17493,0.22512
3421.10340,0.22682
3423.03187,0.21935
3424.96034,0.21469
3426.88881,0.21718
3428.81728,0.21816
3430.74574,0.21642
3432.67421,0.21484
3434.60268,0.21356
3436.53115,0.21362
3438.45962,0.21453
3440.38809,0.21539
3442.31656,0.21468
3444.24503,0.21058
3446.17349,0.20504
3448.10196,0.20351
3450.03043,0.20827
3451.95890,0.21243
3453.88737,0.20876
3455.81584,0.20113
3457.74431,0.19813
3459.67277,0.19821
3461.60124,0.19448
3463.52971,0.18996
3465.45818,0.18914
3467.38665,0.18987
3469.31512,0.19205
3471.24359,0.19647
3473.17206,0.19970
3475.10052,0.19691
3477.02899,0.18944
3478.95746,0.18166
3480.88593,0.17759
3482.81440,0.18082
3484.74287,0.18839
3486.67134,0.19587
3488.59980,0.19888
3490.52827,0.19784
3492.45674,0.19722
3494.38521,0.19336
3496.31368,0.18810
3498.24215,0.19199
3500.17062,0.20098
3502.09909,0.20203
3504.02755,0.19339
3505.95602,0.18608
3507.88449,0.18643
3509.81296,0.18801
3511.74143,0.18652
3513.66990,0.18589
3515.59837,0.18442
3517.52683,0.18061
3519.45530,0.17956
3521.38377,0.18162
3523.31224,0.18062
3525.24071,0.17761
3527.16918,0.17699
3529.09765,0.17532
3531.02611,0.17141
3532.95458,0.16784
3534.88305,0.16662
3536.81152,0.16848
3538.73999,0.17096
3540.66846,0.17400
3542.59693,0.17806
3544.52540,0.18082
3546.45386,0.18061
3548.38233,0.17743
3550.31080,0.17649
3552.23927,0.17992
3554.16774,0.17877
3556.09621,0.17083
3558.02468,0.16413
3559.95314,0.16196
3561.88161,0.16319
3563.81008,0.16812
3565.73855,0.17893
3567.66702,0.18664
3569.59549,0.17672
3571.52396,0.16177
3573.45243,0.15565
3575.38089,0.15603
3577.30936,0.15603
3579.23783,0.15849
3581.16630,0.16434
3583.09477,0.16845
3585.02324,0.17001
3586.95171,0.17050
3588.88017,0.16933
3590.80864,0.16695
3592.73711,0.16309
3594.66558,0.15727
3596.59405,0.15343
3598.52252,0.15397
3600.45099,0.15595
3602.37946,0.15832
3604.30792,0.16097
3606.23639,0.15913
3608.16486,0.15059
3610.09333,0.14649
3612.02180,0.15310
3613.95027,0.16054
3615.87874,0.16403
3617.80720,0.16841
3619.73567,0.16706
3621.66414,0.15687
3623.59261,0.14869
3625.52108,0.14570
3627.44955,0.15212
3629.37802,0.16600
3631.30649,0.16386
3633.23495,0.15169
3635.16342,0.14157
3637.09189,0.13604
3639.02036,0.13613
3640.94883,0.14165
3642.87730,0.14983
3644.80577,0.15741
3646.73423,0.16152
3648.66270,0.16270
3650.59117,0.16001
3652.51964,0.15262
3654.44811,0.14712
3656.37658,0.14464
3658.30505,0.14198
3660.23352,0.13785
3662.16198,0.13440
3664.09045,0.13556
3666.01892,0.14258
3667.94739,0.15444
3669.87586,0.16269
3671.80433,0.15798
3673.73280,0.15285
3675.66126,0.14623
3677.58973,0.13673
3679.51820,0.13456
3681.44667,0.13652
3683.37514,0.13788
3685.30361,0.13908
3687.23208,0.14590
3689.16055,0.15691
3691.08901,0.15192
3693.01748,0.13658
3694.94595,0.12885
3696.87442,0.13068
3698.80289,0.13612
3700.73136,0.13924
3702.65983,0.13784
3704.58829,0.13593
3706.51676,0.13706
3708.44523,0.14055
3710.37370,0.14613
3712.30217,0.14892
3714.23064,0.14487
3716.15911,0.14246
3718.08757,0.14544
3720.01604,0.14701
3721.94451,0.14024
3723.87298,0.13207
3725.80145,0.12891
3727.72992,0.12790
3729.65839,0.13186
3731.58686,0.14337
3733.51532,0.15453
3735.44379,0.15391
3737.37226,0.14367
3739.30073,0.13294
3741.22920,0.12511
3743.15767,0.12669
3745.08614,0.14271
3747.01460,0.15174
3748.94307,0.15107
3750.87154,0.14873
3752.80001,0.14092
3754.72848,0.13486
3756.65695,0.13767
3758.58542,0.14359
3760.51389,0.13838
3762.44235,0.12896
3764.37082,0.12751
3766.29929,0.13202
3768.22776,0.13789
3770.15623,0.13961
3772.08470,0.13582
3774.01317,0.13259
3775.94163,0.13144
3777.87010,0.13483
3779.79857,0.13779
3781.72704,0.13125
3783.65551,0.12446
3785.58398,0.12454
3787.51245,0.12771
3789.44092,0.13012
3791.36938,0.12908
3793.29785,0.12442
3795.22632,0.12162
3797.15479,0.12469
3799.08326,0.13117
3801.01173,0.13624
3802.94020,0.13518
3804.86866,0.13605
3806.79713,0.14117
3808.72560,0.13694
3810.65407,0.12575
3812.58254,0.12076
3814.51101,0.12378
3816.43948,0.12949
3818.36795,0.13658
3820.29641,0.14579
3822.22488,0.14708
3824.15335,0.14224
3826.08182,0.13676
3828.01029,0.12867
3829.93876,0.12382
3831.86723,0.12428
3833.79569,0.12950
3835.72416,0.14060
3837.65263,0.15189
3839.58110,0.15361
3841.50957,0.14904
3843.43804,0.14232
3845.36651,0.13136
3847.29498,0.12437
3849.22344,0.12934
3851.15191,0.13849
3853.08038,0.13140
3855.00885,0.11524
3856.93732,0.11477
3858.86579,0.11967
3860.79426,0.12705
3862.72272,0.13447
3864.65119,0.13600
3866.57966,0.13472
3868.50813,0.13342
3870.43660,0.12914
3872.36507,0.12585
3874.29354,0.12215
3876.22200,0.11793
3878.15047,0.11981
3880.07894,0.12354
3882.00741,0.12318
3883.93588,0.12450
3885.86435,0.12811
3887.79282,0.12919
3889.72129,0.13012
3891.64975,0.13098
3893.57822,0.12724
3895.50669,0.12299
3897.43516,0.12221
3899.36363,0.12771
3901.29210,0.13967
3903.22057,0.14621
3905.14903,0.13766
3907.07750,0.12542
3909.00597,0.12127
3910.93444,0.12126
3912.86291,0.12058
3914.79138,0.12012
3916.71985,0.11910
3918.64832,0.11705
3920.57678,0.11595
3922.50525,0.11621
3924.43372,0.11645
3926.36219,0.11659
3928.29066,0.11778
3930.21913,0.11993
3932.14760,0.12000
3934.07606,0.11541
3936.00453,0.11142
3937.93300,0.11253
3939.86147,0.11640
3941.78994,0.11782
3943.71841,0.11442
3945.64688,0.11116
3947.57535,0.11257
3949.50381,0.11545
3951.43228,0.11570
3953.36075,0.11683
3955.28922,0.11914
3957.21769,0.11580
3959.14616,0.10869
3961.07463,0.10647
3963.00309,0.10607
3964.93156,0.10215
3966.86003,0.10253
3968.78850,0.10914
3970.71697,0.11195
3972.64544,0.11072
3974.57391,0.11102
3976.50238,0.10986
3978.43084,0.10351
3980.35931,0.09732
3982.28778,0.09703
3984.21625,0.09889
3986.14472,0.10046
3988.07319,0.10409
3990.00166,0.10770
3991.93012,0.10764
3993.85859,0.10460
3995.78706,0.10099
3997.71553,0.09992
3999.64400,0.10418
4001.57247,0.10894
4003.50094,0.10642
4005.42941,0.10015
4007.35787,0.10014
4009.28634,0.10460
4011.21481,0.10147
4013.14328,0.09223
4015.07175,0.09065
4017.00022,0.09690
4018.92869,0.10081
4020.85715,0.10157
4022.78562,0.10323
4024.71409,0.10481
4026.64256,0.10310
4028.57103,0.10155
4030.49950,0.10521
4032.42797,0.10766
4034.35644,0.10210
4036.28490,0.09341
4038.21337,0.08779
4040.14184,0.08689
4042.07031,0.09077
4043.99878,0.09516
4045.92725,0.09679
4047.85572,0.09647
4049.78418,0.09272
4051.71265,0.08832
4053.64112,0.08808
4055.56959,0.09094
4057.49806,0.09457
4059.42653,0.09575
4061.35500,0.09415
4063.28346,0.09228
4065.21193,0.08903
4067.14040,0.08776
4069.06887,0.09170
4070.99734,0.09231
4072.92581,0.08624
4074.85428,0.08218
4076.78275,0.08545
4078.71121,0.09350
4080.63968,0.09788
4082.56815,0.09423
4084.49662,0.08901
4086.42509,0.08723
4088.35356,0.08938
4090.28203,0.09497
4092.21049,0.09920
4094.13896,0.10049
4096.06743,0.10265
4097.99590,0.10516
4099.92437,0.10555
4101.85284,0.10309
4103.78131,0.09556
4105.70978,0.08433
4107.63824,0.07927
4109.56671,0.08520
4111.49518,0.09370
4113.42365,0.09745
4115.35212,0.09624
4117.28059,0.09077
4119.20906,0.08460
4121.13752,0.08315
4123.06599,0.08703
4124.99446,0.09290
4126.92293,0.09559
4128.85140,0.09409
4130.77987,0.09329
4132.70834,0.09333
4134.63681,0.09191
4136.56527,0.09023
4138.49374,0.09049
4140.42221,0.09403
4142.35068,0.09890
4144.27915,0.09950
4146.20762,0.09132
4148.13609,0.08005
4150.06455,0.07434
4151.99302,0.07492
4153.92149,0.08041
4155.84996,0.08626
4157.77843,0.08856
4159.70690,0.08886
4161.63537,0.08756
4163.56384,0.08350
4165.49230,0.07780
4167.42077,0.07397
4169.34924,0.07343
4171.27771,0.07504
4173.20618,0.07805
4175.13465,0.08186
4177.06312,0.08451
4178.99158,0.08420
4180.92005,0.08352
4182.84852,0.08472
4184.77699,0.08555
4186.70546,0.08280
4188.63393,0.07682
4190.56240,0.07366
4192.49087,0.07508
4194.41933,0.07514
4196.34780,0.07641
4198.27627,0.08314
4200.20474,0.08811
4202.13321,0.08711
4204.06168,0.08238
4205.99015,0.07911
4207.91861,0.07944
4209.84708,0.07916
4211.77555,0.07816
4213.70402,0.07504
4215.63249,0.06989
4217.56096,0.06815
4219.48943,0.06988
4221.41789,0.07277
4223.34636,0.07245
4225.27483,0.06750
4227.20330,0.06795
4229.13177,0.07466
4231.06024,0.07460
4232.98871,0.06828
4234.91718,0.06595
4236.84564,0.06884
4238.77411,0.07214
4240.70258,0.07025
4242.63105,0.06366
4244.55952,0.06086
4246.48799,0.06601
4248.41646,0.07112
4250.34492,0.06852
4252.27339,0.06427
4254.20186,0.06503
4256.13033,0.06600
4258.05880,0.06547
4259.98727,0.06735
4261.91574,0.06963
4263.84421,0.07145
4265.77267,0.07551
4267.70114,0.07756
4269.62961,0.07294
4271.55808,0.06724
4273.48655,0.06442
4275.41502,0.06586
4277.34349,0.07251
4279.27195,0.07344
4281.20042,0.06634
4283.12889,0.06478
4285.05736,0.06937
4286.98583,0.07031
4288.91430,0.06594
4290.84277,0.06083
4292.77124,0.05680
4294.69970,0.05163
4296.62817,0.04685
4298.55664,0.04732
4300.48511,0.05165
4302.41358,0.05616
4304.34205,0.05917
4306.27052,0.05811
4308.19898,0.05423
4310.12745,0.05217
4312.05592,0.05072
4313.98439,0.04920
4315.91286,0.05329
4317.84133,0.05742
4319.76980,0.05028
4321.69827,0.04018
4323.62673,0.04096
4325.55520,0.05085
4327.48367,0.05870
4329.41214,0.05675
4331.34061,0.04745
4333.26908,0.03881
4335.19755,0.03666
4337.12601,0.04502
4339.05448,0.05629
4340.98295,0.05660
4342.91142,0.05294
4344.83989,0.05634
4346.76836,0.05635
4348.69683,0.04663
4350.62530,0.03709
4352.55376,0.03424
4354.48223,0.03772
4356.41070,0.04287
4358.33917,0.04358
4360.26764,0.04621
4362.19611,0.05495
4364.12458,0.05491
4366.05304,0.04313
4367.98151,0.03462
4369.90998,0.03381
4371.83845,0.03896
4373.76692,0.04785
4375.69539,0.05372
4377.62386,0.05463
4379.55232,0.05541
4381.48079,0.05558
4383.40926,0.04965
4385.33773,0.04234
4387.26620,0.04077
4389.19467,0.04065
4391.12314,0.03676
4393.05161,0.03049
4394.98007,0.02769
4396.90854,0.02970
4398.83701,0.03157
4400.76548,0.03282
4402.69395,0.03558
4404.62242,0.03928
4406.55089,0.04168
4408.47935,0.04158
4410.40782,0.04001
4412.33629,0.03935
4414.26476,0.03690
4416.19323,0.02820
4418.12170,0.02399
4420.05017,0.03312
4421.97864,0.04240
4423.90710,0.04126
4425.83557,0.03644
4427.76404,0.03546
4429.69251,0.03782
4431.62098,0.03942
4433.54945,0.03555
4435.47792,0.02910
4437.40638,0.02974
4439.33485,0.03892
4441.26332,0.04482
4443.19179,0.03607
4445.12026,0.02281
4447.04873,0.02140
4448.97720,0.02767
4450.90567,0.03453
4452.83413,0.04042
4454.76260,0.03739
4456.69107,0.02679
4458.61954,0.02230
4460.54801,0.02511
4462.47648,0.02692
4464.40495,0.02444
4466.33341,0.02129
4468.26188,0.02611
4470.19035,0.03466
4472.11882,0.03526
4474.04729,0.03259
4475.97576,0.03051
4477.90423,0.02402
4479.83270,0.01724
4481.76116,0.01200
4483.68963,0.00788
4485.61810,0.00854
4487.54657,0.00841
4489.47504,0.00864
4491.40351,0.01920
4493.33198,0.03215
4495.26044,0.03019
4497.18891,0.01826
4499.11738,0.01726
4501.04585,0.02778
4502.97432,0.03596
4504.90279,0.03547
4506.83126,0.02783
4508.75973,0.02193
4510.68819,0.02309
4512.61666,0.03112
4514.54513,0.03877
4516.47360,0.03534
4518.40207,0.02620
4520.33054,0.02221
4522.25901,0.02509
4524.18747,0.02860
4526.11594,0.02556
4528.04441,0.02213
4529.97288,0.02484
4531.90135,0.02798
4533.82982,0.02868
4535.75829,0.02884
4537.68676,0.02833
4539.61522,0.02799
4541.54369,0.02778
4543.47216,0.02560
4545.40063,0.02069
4547.32910,0.01191
4549.25757,0.00617
4551.18604,0.00839
4553.11450,0.00704
4555.04297,0.00315
4556.97144,0.00774
4558.89991,0.01462
4560.82838,0.01595
4562.75685,0.01332
4564.68532,0.01255
4566.61378,0.01860
4568.54225,0.02601
4570.47072,0.02467
4572.39919,0.01578
4574.32766,0.00900
4576.25613,0.00624
4578.18460,0.00294
4580.11307,0.00058
4582.04153,0.00364
4583.97000,0.01006
4585.89847,0.01425
4587.82694,0.01195
4589.75541,0.00610
4591.68388,0.00621
4593.61235,0.01396
4595.54081,0.02100
4597.46928,0.02075
4599.39775,0.01412
4601.32622,0.00797
4603.25469,0.00705
4605.18316,0.00762
4607.11163,0.00469
4609.04010,-0.00230
4610.96856,-0.00710
4612.89703,0.00024
4614.82550,0.01535
4616.75397,0.02363
4618.68244,0.01963
4620.61091,0.01054
4622.53938,0.00434
4624.46784,-0.00256
4626.39631,-0.01072
4628.32478,-0.00611
4630.25325,0.01193
4632.18172,0.02123
4634.11019,0.01640
4636.03866,0.01399
4637.96713,0.01572
4639.89559,0.01767
4641.82406,0.02259
4643.75253,0.02327
4645.68100,0.01539
4647.60947,0.01043
4649.53794,0.01021
4651.46641,0.00792
4653.39487,0.00754
4655.32334,0.00920
4657.25181,0.00874
4659.18028,0.00721
4661.10875,0.00521
4663.03722,0.00518
4664.96569,0.00895
4666.89416,0.01062
4668.82262,0.00838
4670.75109,0.00866
4672.67956,0.01218
4674.60803,0.01723
4676.53650,0.02258
4678.46497,0.02558
4680.39344,0.02541
4682.32190,0.02196
4684.25037,0.02027
4686.17884,0.02236
4688.10731,0.02180
4690.03578,0.01945
4691.96425,0.02288
4693.89272,0.02518
4695.82119,0.01430
4697.74965,0.00085
4699.67812,-0.00136
4701.60659,0.00557
4703.53506,0.01902
4705.46353,0.03018
4707.39200,0.02696
4709.32047,0.01523
4711.24893,0.00693
4713.17740,0.00789
4715.10587,0.01582
4717.03434,0.01982
4718.96281,0.01478
4720.89128,0.00144
4722.81975,-0.01140
4724.74821,-0.01280
4726.67668,-0.00822
4728.60515,-0.00327
4730.53362,0.00316
4732.46209,0.00671
4734.39056,0.00434
4736.31903,0.00142
4738.24750,0.00006
4740.17596,-0.00367
4742.10443,-0.00793
4744.03290,-0.00618
4745.96137,0.00609
4747.88984,0.02198
4749.81831,0.02201
4751.74678,0.00769
4753.67524,0.00366
4755.60371,0.01317
4757.53218,0.02153
4759.46065,0.01964
4761.38912,0.00908
4763.31759,0.00237
4765.24606,0.00202
4767.17453,0.00103
4769.10299,-0.00057
4771.03146,0.00396
4772.95993,0.01555
4774.88840,0.02507
4776.81687,0.02903
4778.74534,0.02869
4780.67381,0.02312
4782.60227,0.01347
4784.53074,0.00710
4786.45921,0.01086
4788.38768,0.01988
4790.31615,0.02336
4792.24462,0.01705
4794.17309,0.00684
4796.10156,0.00252
4798.03002,0.00247
4799.95849,-0.00072
4801.88696,0.00057
4803.81543,0.00462
4805.74390,-0.00265
4807.67237,-0.00936
4809.60084,-0.00753
4811.52930,-0.00743
4813.45777,-0.00138
4815.38624,0.01423
4817.31471,0.02098
4819.24318,0.01643
4821.17165,0.01332
4823.10012,0.01582
4825.02859,0.02433
4826.95705,0.03181
4828.88552,0.02624
4830.81399,0.01280
4832.74246,0.01116
4834.67093,0.02328
4836.59940,0.02731
4838.52787,0.02387
4840.45633,0.03297
4842.38480,0.04316
4844.31327,0.03226
4846.24174,0.00639
4848.17021,-0.01246
4850.09868,-0.01270
4852.02715,-0.00176
4853.95562,0.00488
4855.88408,0.00509
4857.81255,0.01059
4859.74102,0.01437
4861.66949,-0.00015
4863.59796,-0.01665
4865.52643,-0.01552
4867.45490,-0.00062
4869.38336,0.01535
4871.31183,0.01955
4873.24030,0.01360
4875.16877,0.00761
4877.09724,0.00448
4879.02571,0.00466
4880.95418,0.00648
4882.88265,0.00348
4884.81111,-0.00274
4886.73958,-0.00505
4888.66805,-0.00400
4890.59652,-0.00232
4892.52499,0.00071
4894.45346,0.00277
4896.38193,-0.00214
4898.31039,-0.01068
4900.23886,-0.01038
4902.16733,0.00266
4904.09580,0.01818
4906.02427,0.02148
4907.95274,0.01540
4909.88121,0.01191
4911.80967,0.01376
4913.73814,0.01935
4915.66661,0.01960
4917.59508,0.01031
4919.52355,0.00486
4921.45202,0.00670
4923.38049,0.00807
4925.30896,0.00872
4927.23742,0.00254
4929.16589,-0.01167
4931.09436,-0.01671
4933.02283,-0.00894
4934.95130,-0.00218
4936.87977,-0.00093
4938.80824,-0.00129
4940.73670,0.00322
4942.66517,0.01380
4944.59364,0.02431
4946.52211,0.02909
4948.45058,0.02595
4950.37905,0.02049
4952.30752,0.01750
4954.23599,0.01626
4956.16445,0.01459
4958.09292,0.00968
4960.02139,0.00488
4961.94986,0.00512
4963.87833,0.00868
4965.80680,0.01314
4967.73527,0.01604
4969.66373,0.00626
4971.59220,-0.01058
4973.52067,-0.00377
4975.44914,0.02139
4977.37761,0.03383
4979.30608,0.03118
4981.23455,0.02095
4983.16302,0.01423
4985.09148,0.01966
4987.01995,0.02110
4988.94842,0.00531
4990.87689,-0.00970
4992.80536,-0.00245
4994.73383,0.01253
4996.66230,0.00436
4998.59076,-0.01578
5000.51923,-0.01611
5002.44770,-0.00178
5004.37617,0.01379
5006.30464,0.03161
5008.23311,0.04254
5010.16158,0.03873
5012.09005,0.02963
5014.01851,0.02246
5015.94698,0.01175
5017.87545,-0.00020
5019.80392,-0.00307
5021.73239,0.00450
5023.66086,0.01341
5025.58933,0.01543
5027.51779,0.01367
5029.44626,0.01448
5031.37473,0.02136
5033.30320,0.02717
5035.23167,0.02509
5037.16014,0.02768
5039.08861,0.03786
5041.01708,0.03649
5042.94554,0.02067
5044.87401,0.01653
5046.80248,0.03299
5048.73095,0.04167
5050.65942,0.03169
5052.58789,0.02649
5054.51636,0.03450
5056.44482,0.04123
5058.37329,0.04048
5060.30176,0.03448
5062.23023,0.02763
5064.15870,0.02882
5066.08717,0.03297
5068.01564,0.02510
5069.94410,0.01081
5071.87257,0.00195
5073.80104,-0.00418
5075.72951,-0.01711
5077.65798,-0.03497
5079.58645,-0.03301
5081.51492,-0.00561
5083.44339,0.01793
5085.37185,0.03028
5087.30032,0.04158
5089.22879,0.03855
5091.15726,0.02133
5093.08573,0.01371
5095.01420,0.00667
5096.94267,-0.01024
5098.87113,-0.01397
5100.79960,0.00460
5102.72807,0.02538
5104.65654,0.03015
5106.58501,0.02201
5108.51348,0.01178
5110.44195,0.00526
5112.37042,0.00845
5114.29888,0.01649
5116.22735,0.02143
5118.15582,0.02606
5120.08429,0.02926
5122.01276,0.02824
5123.94123,0.02392
5125.86970,0.02419
5127.79816,0.02842
5129.72663,0.01951
5131.65510,0.01149
5133.58357,0.02036
5135.51204,0.02832
5137.44051,0.02516
5139.36898,0.01081
5141.29745,0.00172
5143.22591,0.00841
5145.15438,0.01084
5147.08285,0.00847
5149.01132,0.00813
5150.93979,0.00858
5152.86826,0.02360
5154.79673,0.04753
5156.72519,0.05705
5158.65366,0.05553
5160.58213,0.05752
5162.51060,0.06103
5164.43907,0.06231
5166.36754,0.06448
5168.29601,0.06467
5170.22448,0.04910
5172.15294,0.01709
5174.08141,-0.00405
5176.00988,0.00101
5177.93835,0.01928
5179.86682,0.04454
5181.79529,0.06925
5183.72376,0.06963
5185.65222,0.04456
5187.58069,0.02093
5189.50916,0.01471
5191.43763,0.02626
5193.36610,0.04473
5195.29457,0.05161
5197.22304,0.03857
5199.15151,0.01974
5201.07997,0.01970
5203.00844,0.03665
5204.93691,0.05105
5206.86538,0.06362
5208.79385,0.07343
5210.72232,0.06487
5212.65079,0.05018
5214.57925,0.04697
5216.50772,0.05112
5218.43619,0.05171
5220.36466,0.04427
5222.29313,0.03884
5224.22160,0.03842
5226.15007,0.03700
5228.07854,0.04552
5230.00700,0.05753
5231.93547,0.04940
5233.86394,0.03397
5235.79241,0.03491
5237.72088,0.03930
5239.64935,0.03020
5241.57782,0.02074
5243.50628,0.02290
5245.43475,0.03062
5247.36322,0.03462
5249.29169,0.02055
5251.22016,0.00156
5253.14863,0.01008
5255.07710,0.03665
5257.00556,0.05067
5258.93403,0.05111
5260.86250,0.04633
5262.79097,0.03690
5264.71944,0.02939
5266.64791,0.02807
5268.57638,0.03247
5270.50485,0.03710
5272.43331,0.03478
5274.36178,0.03554
5276.29025,0.04240
5278.21872,0.04379
5280.14719,0.03751
5282.07566,0.03103
5284.00413,0.03095
5285.93259,0.03744
5287.86106,0.04794
5289.78953,0.06192
5291.71800,0.06956
5293.64647,0.06044
5295.57494,0.04830
5297.50341,0.04581
5299.43188,0.05063
5301.36034,0.05792
5303.28881,0.05376
5305.21728,0.03559
5307.14575,0.02183
5309.07422,0.01474
5311.00269,0.00380
5312.93116,-0.00306
5314.85962,0.00578
5316.78809,0.02787
5318.71656,0.04752
5320.64503,0.04326
5322.57350,0.01403
5324.50197,-0.00565
5326.43044,0.01300
5328.35891,0.04042
5330.28737,0.04412
5332.21584,0.03829
5334.14431,0.03185
5336.07278,0.02851
5338.00125,0.03477
5339.92972,0.04908
5341.85819,0.06215
5343.78665,0.06238
5345.71512,0.05861
5347.64359,0.05843
5349.57206,0.04919
5351.50053,0.03129
5353.42900,0.01935
5355.35747,0.03183
5357.28594,0.05403
5359.21440,0.05756
5361.14287,0.04402
5363.07134,0.03596
5364.99981,0.04484
5366.92828,0.05836
5368.85675,0.06931
5370.78522,0.08330
5372.71368,0.09010
5374.64215,0.07178
5376.57062,0.04089
5378.49909,0.03152
5380.42756,0.04701
5382.35603,0.06634
5384.28450,0.07010
5386.21297,0.07043
5388.14143,0.08471
5390.06990,0.09366
5391.99837,0.08033
5393.92684,0.05414
5395.85531,0.04453
5397.78378,0.05185
5399.71225,0.06147
5401.64071,0.07210
5403.56918,0.07382
5405.49765,0.06164
5407.42612,0.04812
5409.35459,0.04043
5411.28306,0.03916
5413.21153,0.04571
5415.13999,0.04160
5417.06846,0.02517
5418.99693,0.02650
5420.92540,0.04353
5422.85387,0.05265
5424.78234,0.05745
5426.71081,0.06987
5428.63928,0.09157
5430.56774,0.10993
5432.49621,0.11397
5434.42468,0.10084
5436.35315,0.06891
5438.28162,0.03952
5440.21009,0.02952
5442.13856,0.02601
5444.06702,0.02587
5445.99549,0.04609
5447.92396,0.07580
5449.85243,0.09239
5451.78090,0.09790
5453.70937,0.10030
5455.63784,0.10250
5457.56631,0.10341
5459.49477,0.09636
5461.42324,0.08496
5463.35171,0.06977
5465.28018,0.04759
5467.20865,0.04116
5469.13712,0.06050
5471.06559,0.07868
5472.99405,0.08038
5474.92252,0.07265
5476.85099,0.06920
5478.77946,0.07529
5480.70793,0.08869
5482.63640,0.10806
5484.56487,0.11036
5486.49334,0.08061
5488.42180,0.05806
5490.35027,0.06897
5492.27874,0.09393
5494.20721,0.11210
5496.13568,0.10034
5498.06415,0.06801
5499.99262,0.04968
5501.92108,0.04533
5503.84955,0.04104
5505.77802,0.04689
5507.70649,0.06059
5509.63496,0.06703
5511.56343,0.07056
5513.49190,0.07353
5515.42037,0.08876
5517.34883,0.11465
5519.27730,0.10373
5521.20577,0.06317
5523.13424,0.04334
5525.06271,0.04622
5526.99118,0.05077
5528.91965,0.04809
5530.84811,0.05138
5532.77658,0.07764
5534.70505,0.10051
5536.63352,0.08723
5538.56199,0.06071
5540.49046,0.06090
5542.41893,0.07522
5544.34740,0.07376
5546.27586,0.06422
5548.20433,0.06415
5550.13280,0.07668
5552.06127,0.08320
5553.98974,0.07257
5555.91821,0.07016
5557.84668,0.08733
5559.77514,0.10404
5561.70361,0.10725
5563.63208,0.09091
5565.56055,0.05950
5567.48902,0.04694
5569.41749,0.06568
5571.34596,0.07748
5573.27443,0.06435
5575.20289,0.03911
5577.13136,0.01128
5579.05983,-0.00606
5580.98830,0.00273
5582.91677,0.03359
5584.84524,0.06205
5586.77371,0.07213
5588.70217,0.06235
5590.63064,0.03383
5592.55911,0.01257
5594.48758,0.04440
5596.41605,0.11056
5598.34452,0.13611
5600.27299,0.11860
5602.20145,0.11179
5604.12992,0.11095
5606.05839,0.09330
5607.98686,0.06960
5609.91533,0.05684
5611.84380,0.06877
5613.77227,0.08784
5615.70074,0.07416
5617.62920,0.04388
5619.55767,0.06075
5621.48614,0.11631
5623.41461,0.13227
5625.34308,0.10278
5627.27155,0.09267
5629.20002,0.11147
5631.12848,0.11430
5633.05695,0.09852
5634.98542,0.08257
5636.91389,0.07598
5638.84236,0.08399
5640.77083,0.08624
5642.69930,0.08481
5644.62777,0.09505
5646.55623,0.08529
5648.48470,0.05053
5650.41317,0.03864
5652.34164,0.05552
5654.27011,0.08121
5656.19858,0.11127
5658.12705,0.12355
5660.05551,0.10390
5661.98398,0.08245
5663.91245,0.09658
5665.84092,0.13480
5667.76939,0.15416
5669.69786,0.14622
5671.62633,0.11873
5673.55480,0.07141
5675.48326,0.04772
5677.41173,0.07842
5679.34020,0.10124
5681.26867,0.09226
5683.19714,0.09246
5685.12561,0.10078
5687.05408,0.09524
5688.98254,0.08475
5690.91101,0.09563
5692.83948,0.11320
5694.76795,0.10124
5696.69642,0.05971
5698.62489,0.02062
5700.55336,0.02731
5702.48183,0.06676
5704.41029,0.07508
5706.33876,0.05744
5708.26723,0.05705
5710.19570,0.06129
5712.12417,0.06705
5714.05264,0.09660
5715.98111,0.11604
5717.90957,0.09690
5719.83804,0.07698
5721.76651,0.07618
5723.69498,0.07942
5725.62345,0.08196
5727.55192,0.07481
5729.48039,0.06503
5731.40886,0.06638
5733.33732,0.06750
5735.26579,0.07445
5737.19426,0.09319
5739.12273,0.10089
5741.05120,0.09113
5742.97967,0.07934
5744.90814,0.06955
5746.83660,0.06323
5748.76507,0.07933
5750.69354,0.11748
5752.62201,0.13578
5754.55048,0.12178
5756.47895,0.11465
5758.40742,0.12036
5760.33588,0.10482
5762.26435,0.06843
5764.19282,0.03964
5766.12129,0.02626
5768.04976,0.02717
5769.97823,0.04529
5771.90670,0.06909
5773.83517,0.08046
5775.76363,0.08510
5777.69210,0.09500
5779.62057,0.10266
5781.54904,0.11237
5783.47751,0.13914
5785.40598,0.15874
5787.33445,0.15187
5789.26291,0.13460
5791.19138,0.10853
5793.11985,0.07757
5795.04832,0.05583
5796.97679,0.04723
5798.90526,0.04781
5800.83373,0.06198
5802.76220,0.09080
5804.69066,0.09927
5806.61913,0.08298
5808.54760,0.07367
5810.47607,0.06151
5812.40454,0.04907
5814.33301,0.05471
5816.26148,0.07542
5818.18994,0.10873
5820.11841,0.12940
5822.04688,0.11510
5823.97535,0.07694
5825.90382,0.04424
5827.83229,0.04157
5829.76076,0.05595
5831.68923,0.08061
5833.61769,0.10967
5835.54616,0.11312
5837.47463,0.10021
5839.40310,0.08797
5841.33157,0.06321
5843.26004,0.03326
5845.18851,0.03060
5847.11697,0.05395
5849.04544,0.07002
5850.97391,0.07024
5852.90238,0.07819
5854.83085,0.09459
5856.75932,0.09339
5858.68779,0.08848
5860.61626,0.10546
5862.54472,0.11353
5864.47319,0.10374
5866.40166,0.11132
5868.33013,0.13075
5870.25860,0.12001
5872.18707,0.06839
5874.11554,0.01653
5876.04400,0.01826
5877.97247,0.07111
5879.90094,0.12240
5881.82941,0.14358
5883.75788,0.13207
5885.68635,0.10369
5887.61482,0.08117
5889.54329,0.05727
5891.47175,0.03095
5893.40022,0.02852
5895.32869,0.06468
5897.25716,0.11826
5899.18563,0.14951
5901.11410,0.13358
5903.04257,0.07581
5904.97103,0.03022
5906.89950,0.02458
5908.82797,0.01409
5910.75644,-0.01113
5912.68491,0.01435
5914.61338,0.09561
5916.54185,0.14499
5918.47032,0.12474
5920.39878,0.06708
5922.32725,0.01476
5924.25572,0.01938
5926.18419,0.07633
5928.11266,0.10775
5930.04113,0.09264
5931.96960,0.08169
5933.89806,0.09652
5935.82653,0.10140
5937.75500,0.08487
5939.68347,0.09604
5941.61194,0.13931
5943.54041,0.16171
5945.46888,0.15237
5947.39734,0.15157
5949.32581,0.16829
5951.25428,0.15686
5953.18275,0.13567
5955.11122,0.15343
5957.03969,0.17747
5958.96816,0.17422
5960.89663,0.15457
5962.82509,0.14806
5964.75356,0.16178
5966.68203,0.17048
5968.61050,0.16503
5970.53897,0.14862
5972.46744,0.11922
5974.39591,0.08703
5976.32437,0.05959
5978.25284,0.03825
5980.18131,0.03014
5982.10978,0.04704
5984.03825,0.09459
5985.96672,0.13486
5987.89519,0.11998
5989.82366,0.07206
5991.75212,0.05002
5993.68059,0.06827
5995.60906,0.07174
5997.53753,0.04158
5999.46600,0.03233
6001.39447,0.05548
6003.32294,0.07511
6005.25140,0.07188
6007.17987,0.06771
6009.10834,0.06488
6011.03681,0.05810
6012.96528,0.05362
6014.89375,0.04258
6016.82222,0.05657
6018.75069,0.11734
6020.67915,0.16580
6022.60762,0.15123
6024.53609,0.09339
6026.46456,0.04472
6028.39303,0.00953
6030.32150,-0.02409
6032.24997,-0.03406
6034.17843,-0.02625
6036.10690,-0.01655
6038.03537,0.00197
6039.96384,0.03493
6041.89231,0.06994
6043.82078,0.06535
6045.74925,0.04413
6047.67772,0.05629
6049.60618,0.05702
6051.53465,0.02713
6053.46312,0.03087
6055.39159,0.06331
6057.32006,0.06784
6059.24853,0.06250
6061.17700,0.07747
6063.10546,0.09857
6065.03393,0.09979
6066.96240,0.08396
6068.89087,0.09184
6070.81934,0.14353
6072.74781,0.21617
6074.67628,0.22911
6076.60475,0.14426
6078.53321,0.06990
6080.46168,0.06418
6082.39015,0.07316
6084.31862,0.09052
6086.24709,0.11623
6088.17556,0.12374
6090.10403,0.12094
6092.03249,0.09074
6093.96096,0.05232
6095.88943,0.06452
6097.81790,0.09730
6099.74637,0.08162
6101.67484,0.03587
6103.60331,0.04295
6105.53177,0.07723
6107.46024,0.06417
6109.38871,0.03171
6111.31718,0.03996
6113.24565,0.06876
6115.17412,0.07467
6117.10259,0.08536
6119.03106,0.13131
6120.95952,0.18296
6122.88799,0.20031
6124.81646,0.16845
6126.74493,0.11911
6128.67340,0.07031
6130.60187,0.01435
6132.53034,0.00187
6134.45880,0.04181
6136.38727,0.04983
6138.31574,0.01432
6140.24421,0.00684
6142.17268,0.03295
6144.10115,0.05294
6146.02962,0.06798
6147.95809,0.08273
6149.88655,0.08281
6151.81502,0.06525
6153.74349,0.04975
6155.67196,0.04703
6157.60043,0.04662
6159.52890,0.06316
6161.45737,0.09326
6163.38583,0.08241
6165.31430,0.03823
6167.24277,0.04385
6169.17124,0.11585
6171.09971,0.15436
6173.02818,0.11891
6174.95665,0.09862
6176.88512,0.11863
6178.81358,0.14729
6180.74205,0.16860
6182.67052,0.17488
6184.59899,0.17657
6186.52746,0.17995
6188.45593,0.18142
6190.38440,0.17379
6192.31286,0.15025
6194.24133,0.11892
6196.16980,0.09062
6198.09827,0.08904
6200.02674,0.12074
6201.95521,0.12180
6203.88368,0.07511
6205.81215,0.04680
6207.74061,0.04853
6209.66908,0.04369
6211.59755,0.02787
6213.52602,0.03791
6215.45449,0.06014
6217.38296,0.07594
6219.31143,0.11450
6221.23989,0.14442
6223.16836,0.11829
6225.09683,0.06889
6227.02530,0.03720
6228.95377,0.01723
6230.88224,0.01135
6232.81071,0.02714
6234.73918,0.06498
6236.66764,0.10574
6238.59611,0.14029
6240.52458,0.20866
6242.45305,0.25728
6244.38152,0.20885
6246.30999,0.13287
6248.23846,0.10493
6250.16692,0.12572
6252.09539,0.15008
6254.02386,0.16328
6255.95233,0.17404
6257.88080,0.15898
6259.80927,0.11999
6261.73774,0.10564
6263.66621,0.15362
6265.59467,0.21732
6267.52314,0.22572
6269.45161,0.19401
6271.38008,0.14609
6273.30855,0.09470
6275.23702,0.09422
6277.16549,0.12713
6279.09395,0.13860
6281.02242,0.17996
6282.95089,0.24459
6284.87936,0.22256
6286.80783,0.12081
6288.73630,0.06104
6290.66477,0.07808
6292.59323,0.07771
6294.52170,0.03253
6296.45017,0.02663
6298.37864,0.06881
6300.30711,0.07565
6302.23558,0.05279
6304.16405,0.07796
6306.09252,0.11359
6308.02098,0.11350
6309.94945,0.12463
6311.87792,0.14918
6313.80639,0.13616
6315.73486,0.06961
6317.66333,0.00955
6319.59180,0.04603
6321.52026,0.13676
6323.44873,0.19462
6325.37720,0.19615
6327.30567,0.13080
6329.23414,0.02579
6331.16261,-0.06115
6333.09108,-0.05561
6335.01955,0.02615
6336.94801,0.06866
6338.87648,0.07824
6340.80495,0.10092
6342.73342,0.11142
6344.66189,0.13549
6346.59036,0.18921
6348.51883,0.21514
6350.44729,0.17623
6352.37576,0.11220
6354.30423,0.12048
6356.23270,0.18942
6358.16117,0.19979
6360.08964,0.10467
6362.01811,0.02243
6363.94658,0.04388
6365.87504,0.11168
6367.80351,0.16917
6369.73198,0.21078
6371.66045,0.22381
6373.58892,0.19453
6375.51739,0.14269
6377.44586,0.09483
6379.37432,0.07252
6381.30279,0.09326
6383.23126,0.11079
6385.15973,0.08226
6387.08820,0.06145
6389.01667,0.08618
6390.94514,0.11149
6392.87361,0.06644
6394.80207,0.01793
6396.73054,0.05441
6398.65901,0.07762
6400.58748,-0.00048
6402.51595,-0.09761
6404.44442,-0.10408
6406.37289,-0.03242
6408.30135,0.04099
6410.22982,0.08342
6412.15829,0.09083
6414.08676,0.07506
6416.01523,0.09894
6417.94370,0.16252
6419.87217,0.17659
6421.80064,0.15799
6423.72910,0.17855
6425.65757,0.20543
6427.58604,0.20643
6429.51451,0.20377
6431.44298,0.16220
6433.37145,0.09065
6435.29992,0.06125
6437.22838,0.09105
6439.15685,0.12303
6441.08532,0.08753
6443.01379,0.03379
6444.94226,0.03947
6446.87073,0.06257
6448.79920,0.07424
6450.72766,0.06870
6452.65613,0.01758
6454.58460,-0.03821
6456.51307,-0.04857
6458.44154,-0.02296
6460.37001,0.02786
6462.29848,0.09281
6464.22695,0.13865
6466.15541,0.15070
6468.08388,0.09930
6470.01235,0.02692
6471.94082,0.03844
6473.86929,0.06598
6475.79776,0.06506
6477.72623,0.09331
6479.65469,0.10524
6481.58316,0.07327
6483.51163,0.04401
6485.44010,0.05380
6487.36857,0.10123
6489.29704,0.14450
6491.22551,0.17679
6493.15398,0.22165
6495.08244,0.24918
6497.01091,0.23507
6498.93938,0.16350
6500.86785,0.01713
6502.79632,-0.09609
6504.72479,-0.07902
6506.65326,-0.03361
6508.58172,-0.04801
6510.51019,-0.03838
6512.43866,0.03522
6514.36713,0.06258
6516.29560,0.04046
6518.22407,0.04583
6520.15254,0.07663
6522.08101,0.10340
6524.00947,0.10497
6525.93794,0.08748
6527.86641,0.07047
6529.79488,0.04624
6531.72335,0.01020
6533.65182,-0.06681
6535.58029,-0.15436
6537.50875,-0.14165
6539.43722,-0.04430
6541.36569,0.04468
6543.29416,0.10267
6545.22263,0.11713
6547.15110,0.11670
6549.07957,0.14963
6551.00804,0.18732
6552.93650,0.17332
6554.86497,0.12835
6556.79344,0.10685
6558.72191,0.12040
6560.65038,0.14597
6562.57885,0.14782
6564.50732,0.08884
6566.43578,0.02427
6568.36425,0.02890
6570.29272,0.07094
6572.22119,0.09797
6574.14966,0.05529
6576.07813,-0.01391
6578.00660,-0.00458
6579.93507,0.06595
6581.86353,0.14454
6583.79200,0.17943
6585.72047,0.15644
6587.64894,0.15953
6589.57741,0.17380
6591.50588,0.12110
6593.43435,0.01817
6595.36281,-0.04053
6597.29128,-0.02153
6599.21975,0.02312
6601.14822,0.06169
6603.07669,0.09947
6605.00516,0.13378
6606.93363,0.12651
6608.86210,0.07397
6610.79056,0.04061
6612.71903,0.05089
6614.64750,0.07294
6616.57597,0.09004
6618.50444,0.09966
6620.43291,0.06645
6622.36138,-0.00416
6624.28984,-0.02239
6626.21831,0.02221
6628.14678,0.05756
6630.07525,0.08500
6632.00372,0.13823
6633.93219,0.19742
6635.86066,0.27228
6637.78912,0.29967
6639.71759,0.21025
6641.64606,0.11710
6643.57453,0.08823
6645.50300,0.08062
6647.43147,0.07626
6649.35994,0.06683
6651.28841,0.07240
6653.21687,0.10168
6655.14534,0.12040
6657.07381,0.09777
6659.00228,0.02913
6660.93075,-0.02255
6662.85922,0.01248
6664.78769,0.11604
6666.71615,0.22063
6668.64462,0.27690
6670.57309,0.25916
6672.50156,0.14471
6674.43003,0.04604
6676.35850,0.05872
6678.28697,0.06632
6680.21544,0.02752
6682.14390,0.00631
6684.07237,0.00910
6686.00084,0.02832
6687.92931,0.05289
6689.85778,0.08249
6691.78625,0.09854
6693.71472,0.04827
6695.64318,-0.04330
6697.57165,-0.07790
6699.50012,-0.01436
6701.42859,0.07938
6703.35706,0.11416
6705.28553,0.08986
6707.21400,0.05970
6709.14247,0.02656
6711.07093,-0.03699
6712.99940,-0.09966
6714.92787,-0.13113
6716.85634,-0.14093
6718.78481,-0.04961
6720.71328,0.17050
6722.64175,0.31938
6724.57021,0.29007
6726.49868,0.19363
6728.42715,0.10638
6730.35562,0.03289
6732.28409,-0.00731
6734.21256,-0.03113
6736.14103,-0.06541
6738.06950,-0.05510
6739.99796,0.02823
6741.92643,0.08363
6743.85490,0.06438
6745.78337,0.07120
6747.71184,0.10051
6749.64031,0.06983
6751.56878,0.02045
6753.49724,0.00706
6755.42571,0.02967
6757.35418,0.09569
6759.28265,0.18053
6761.21112,0.23223
6763.13959,0.21251
6765.06806,0.17470
6766.99653,0.14851
6768.92499,0.07396
6770.85346,0.01188
6772.78193,0.06076
6774.71040,0.15244
6776.63887,0.16411
6778.56734,0.12365
6780.49581,0.15861
6782.42427,0.20988
6784.35274,0.13860
6786.28121,0.03124
6788.20968,0.05109
6790.13815,0.14640
6792.06662,0.12900
6793.99509,0.04068
6795.92355,0.03956
6797.85202,0.10156
6799.78049,0.15289
6801.70896,0.13014
6803.63743,0.04275
6805.56590,0.01421
6807.49437,0.07185
6809.42284,0.16325
6811.35130,0.24339
6813.27977,0.25826
6815.20824,0.20815
6817.13671,0.18620
6819.06518,0.21706
6820.99365,0.18635
6822.92212,0.06718
6824.85058,-0.00201
6826.77905,-0.00059
6828.70752,-0.01608
6830.63599,-0.03673
6832.56446,-0.01169
6834.49293,0.02748
6836.42140,0.06784
6838.34987,0.11675
6840.27833,0.11591
6842.20680,0.04483
6844.13527,-0.00228
6846.06374,0.02387
6847.99221,0.07862
6849.92068,0.08266
6851.84915,0.02922
6853.77761,0.03812
6855.70608,0.10413
6857.63455,0.10949
6859.56302,0.09182
6861.49149,0.08229
6863.41996,0.07018
6865.34843,0.08284
6867.27690,0.10519
6869.20536,0.15001
6871.13383,0.21830
6873.06230,0.18646
6874.99077,0.06058
6876.91924,0.00255
6878.84771,0.04129
6880.77618,0.09486
6882.70464,0.07310
6884.63311,-0.03373
6886.56158,-0.15090
6888.49005,-0.16114
6890.41852,-0.02298
6892.34699,0.13936
6894.27546,0.15411
6896.20393,0.05582
6898.13239,0.02286
6900.06086,0.10244
6901.98933,0.18353
6903.91780,0.19770
6905.84627,0.17009
6907.77474,0.17748
6909.70321,0.15108
6911.63167,0.02914
6913.56014,-0.04020
6915.48861,0.01871
6917.41708,0.12169
6919.34555,0.20523
6921.27402,0.23715
6923.20249,0.24042
6925.13096,0.20960
6927.05942,0.15397
6928.98789,0.06264
6930.91636,-0.01778
6932.84483,0.03873
6934.77330,0.15186
6936.70177,0.21703
6938.63024,0.22568
6940.55870,0.14771
6942.48717,0.05176
6944.41564,0.07952
6946.34411,0.16878
6948.27258,0.08867
6950.20105,-0.11062
6952.12952,-0.18146
6954.05799,-0.10655
6955.98645,-0.03083
6957.91492,-0.03905
6959.84339,-0.02732
6961.77186,0.06118
6963.70033,0.09541
6965.62880,0.06284
6967.55727,0.04328
6969.48573,0.03265
6971.41420,0.01149
6973.34267,0.01899
6975.27114,0.14946
6977.19961,0.34795
6979.12808,0.41957
6981.05655,0.32995
6982.98501,0.16826
6984.91348,0.02197
6986.84195,-0.04986
6988.77042,0.00895
6990.69889,0.14643
6992.62736,0.19991
6994.55583,0.13698
6996.48430,0.07498
6998.41276,0.09938
7000.34123,0.11968
7002.26970,0.03487
7004.19817,-0.04473
7006.12664,-0.02124
7008.05511,0.02716
7009.98358,0.07297
7011.91204,0.10878
7013.84051,0.07617
7015.76898,0.05257
7017.69745,0.10957
7019.62592,0.18070
7021.55439,0.19128
7023.48286,0.15054
7025.41133,0.05691
7027.33979,-0.09271
7029.26826,-0.16394
7031.19673,-0.11266
7033.12520,-0.00556
7035.05367,0.12496
7036.98214,0.14591
7038.91061,0.05151
7040.83907,-0.07257
7042.76754,-0.14918
7044.69601,-0.16154
7046.62448,-0.16813
7048.55295,-0.12540
7050.48142,-0.03518
7052.40989,0.04348
7054.33836,0.10465
7056.26682,0.12903
7058.19529,0.08996
7060.12376,0.00617
7062.05223,-0.05197
7063.98070,-0.04347
7065.90917,-0.02956
7067.83764,-0.01044
7069.76610,0.06648
7071.69457,0.11110
7073.62304,0.05384
7075.55151,-0.00221
7077.47998,-0.00899
7079.40845,-0.04045
7081.33692,-0.10994
7083.26539,-0.11527
7085.19385,-0.06766
7087.12232,0.03368
7089.05079,0.12022
7090.97926,0.09736
7092.90773,0.09135
7094.83620,0.15586
7096.76467,0.16789
7098.69313,0.04308
7100.62160,-0.08009
7102.55007,-0.04788
7104.47854,0.04444
7106.40701,0.02232
7108.33548,-0.07997
7110.26395,-0.11206
7112.19242,-0.02598
7114.12088,0.11332
7116.04935,0.22985
7117.97782,0.32077
7119.90629,0.30223
7121.83476,0.14043
7123.76323,0.06637
7125.69170,0.12227
7127.62016,0.10312
7129.54863,0.07455
7131.47710,0.14214
7133.40557,0.21286
7135.33404,0.21681
7137.26251,0.22636
7139.19098,0.27977
7141.11944,0.22648
7143.04791,0.03834
7144.97638,-0.11024
7146.90485,-0.11136
7148.83332,-0.01777
7150.76179,0.07341
7152.69026,0.12177
7154.61873,0.11548
7156.54719,0.08595
7158.47566,0.05218
7160.40413,0.04739
7162.33260,0.09336
7164.26107,0.05761
7166.18954,-0.06980
7168.11801,-0.13679
7170.04647,-0.10016
7171.97494,0.03286
7173.90341,0.16613
7175.83188,0.16697
7177.76035,0.01194
7179.68882,-0.12928
7181.61729,-0.10754
7183.54576,0.04029
7185.47422,0.14806
7187.40269,0.21561
7189.33116,0.24945
7191.25963,0.17008
7193.18810,0.10570
7195.11657,0.16580
7197.04504,0.23766
7198.97350,0.17201
7200.90197,-0.00169
7202.83044,-0.12070
7204.75891,-0.07213
7206.68738,-0.01704
7208.61585,-0.01495
7210.54432,0.05947
7212.47279,0.13757
7214.40125,0.14848
7216.32972,0.18099
7218.25819,0.12968
7220.18666,-0.07232
7222.11513,-0.10716
7224.04360,0.01342
7225.97207,0.07688
7227.90053,0.13744
7229.82900,0.27638
7231.75747,0.27248
7233.68594,0.13716
7235.61441,0.07443
7237.54288,0.14429
7239.47135,0.29957
7241.39982,0.34752
7243.32828,0.17201
7245.25675,-0.00313
7247.18522,0.02988
7249.11369,0.19695
7251.04216,0.32319
7252.97063,0.30787
7254.89910,0.25351
7256.82756,0.26738
7258.75603,0.28618
7260.68450,0.20926
7262.61297,-0.03961
7264.54144,-0.30837
7266.46991,-0.31365
7268.39838,-0.15172
7270.32685,-0.02645
7272.25531,0.00142
7274.18378,0.00073
7276.11225,0.02356
7278.04072,0.01571
7279.96919,0.02088
7281.89766,0.10229
7283.82613,0.15885
7285.75459,0.18718
7287.68306,0.20565
7289.61153,0.13686
7291.54000,0.00793
7293.46847,-0.05217
7295.39694,-0.09760
7297.32541,-0.08431
7299.25387,0.00812
7301.18234,0.00074
7303.11081,-0.03431
7305.03928,0.11530
7306.96775,0.29010
7308.89622,0.17503
7310.82469,-0.01825
7312.75316,0.01481
7314.68162,0.06708
7316.61009,0.02255
7318.53856,0.01637
7320.46703,0.10166
7322.39550,0.16430
7324.32397,0.13852
7326.25244,0.08497
7328.18090,-0.02467
7330.10937,-0.18453
7332.03784,-0.16590
7333.96631,0.03272
7335.89478,0.11890
7337.82325,-0.00210
7339.75172,-0.22827
7341.68019,-0.27906
7343.60865,-0.06631
7345.53712,0.16460
7347.46559,0.24864
7349.39406,0.27162
7351.32253,0.27961
7353.25100,0.23785
7355.17947,0.16813
7357.10793,0.17017
7359.03640,0.31815
7360.96487,0.37171
7362.89334,0.26295
7364.82181,0.19786
7366.75028,0.23629
7368.67875,0.27565
7370.60722,0.21858
7372.53568,0.13883
7374.46415,0.11554
7376.39262,0.14413
7378.32109,0.14143
7380.24956,0.09470
7382.17803,0.06329
7384.10650,0.06768
7386.03496,0.06992
7387.96343,-0.03794
7389.89190,-0.18000
7391.82037,-0.14181
7393.74884,0.05367
7395.67731,0.17469
7397.60578,0.09913
7399.53425,-0.01113
7401.46271,-0.03654
7403.39118,-0.00592
7405.31965,0.06655
7407.24812,0.08116
7409.17659,0.00165
7411.10506,-0.02692
7413.03353,0.05591
7414.96199,0.16077
7416.89046,0.18564
7418.81893,0.04657
7420.74740,-0.09502
7422.67587,-0.09125
7424.60434,-0.09365
7426.53281,-0.11577
7428.46128,-0.02938
7430.38974,0.11341
7432.31821,0.13197
7434.24668,0.15413
7436.17515,0.20126
7438.10362,0.09794
7440.03209,0.01466
7441.96056,0.15557
7443.88902,0.20708
7445.81749,0.06682
7447.74596,-0.02966
7449.67443,-0.03922
7451.60290,0.04109
7453.53137,0.13549
7455.45984,0.09920
7457.38831,0.04783
7459.31677,0.16982
7461.24524,0.46138
7463.17371,0.60290
7465.10218,0.46472
7467.03065,0.23246
7468.95912,0.04559
7470.88759,0.04360
7472.81605,0.22197
7474.74452,0.20844
7476.67299,0.03997
7478.60146,0.09626
7480.52993,0.35740
7482.45840,0.50005
7484.38687,0.50460
7486.31533,0.45370
7488.24380,0.38998
7490.17227,0.28518
7492.10074,0.15952
7494.02921,0.12500
7495.95768,0.04509
7497.88615,-0.16828
