399.19301,3.48038
401.12148,0.67437
403.04995,0.22862
404.97842,0.11179
406.90689,-0.01742
408.83536,-0.16133
410.76382,-0.15457
412.69229,-0.05245
414.62076,-0.04108
416.54923,-0.12539
418.47770,-0.08053
420.40617,0.17736
422.33464,0.31294
424.26311,0.30098
426.19157,0.23693
428.12004,0.16619
430.04851,0.10194
431.97698,0.05411
433.90545,0.04697
435.83392,0.09482
437.76239,0.09925
439.69085,0.05335
441.61932,0.08523
443.54779,0.20915
445.47626,0.29888
447.40473,0.27131
449.33320,0.18560
451.26167,0.20164
453.19013,0.29379
455.11860,0.29475
457.04707,0.15062
458.97554,0.03183
460.90401,0.09715
462.83248,0.22798
464.76095,0.25588
466.68942,0.16813
468.61788,0.06508
470.54635,0.00907
472.47482,0.01839
474.40329,0.09378
476.33176,0.13843
478.26023,0.14144
480.18870,0.14108
482.11716,0.11667
484.04563,0.08939
485.97410,0.13361
487.90257,0.19141
489.83104,0.19382
491.75951,0.16057
493.68798,0.11479
495.61645,0.09023
497.54491,0.06755
499.47338,0.03751
501.40185,0.04903
503.33032,0.06452
505.25879,0.03876
507.18726,0.01817
509.11573,0.02263
511.04419,0.03147
512.97266,0.05241
514.90113,0.08064
516.82960,0.09380
518.75807,0.11152
520.68654,0.13135
522.61501,0.12969
524.54348,0.13982
526.47194,0.15935
528.40041,0.14293
530.32888,0.12209
532.25735,0.13024
534.18582,0.13789
536.11429,0.12246
538.04276,0.12173
539.97122,0.16049
541.89969,0.20473
543.82816,0.20750
545.75663,0.17806
547.68510,0.16642
549.61357,0.15965
551.54204,0.13014
553.47051,0.11184
555.39897,0.11173
557.32744,0.10087
559.25591,0.08411
561.18438,0.08103
563.11285,0.09743
565.04132,0.14525
566.96979,0.19697
568.89825,0.18895
570.82672,0.14474
572.75519,0.13199
574.68366,0.15419
576.61213,0.17377
578.54060,0.17485
580.46907,0.16482
582.39754,0.14725
584.32600,0.12630
586.25447,0.10716
588.18294,0.09400
590.11141,0.09621
592.03988,0.10311
593.96835,0.09601
595.89682,0.09160
597.82528,0.10161
599.75375,0.11443
601.68222,0.12145
603.61069,0.12235
605.53916,0.11723
607.46763,0.10824
609.39610,0.11058
611.32456,0.12129
613.25303,0.11427
615.18150,0.09575
617.10997,0.09571
619.03844,0.11422
620.96691,0.13059
622.89538,0.13739
624.82385,0.13329
626.75231,0.11540
628.68078,0.09488
630.60925,0.08557
632.53772,0.08498
634.46619,0.07762
636.39466,0.05834
638.32313,0.05427
640.25159,0.08430
642.18006,0.12623
644.10853,0.14864
646.03700,0.14526
647.96547,0.14219
649.89394,0.15407
651.82241,0.15772
653.75088,0.14412
655.67934,0.13093
657.60781,0.13237
659.53628,0.14443
661.46475,0.15035
663.39322,0.14181
665.32169,0.13131
667.25016,0.13802
669.17862,0.15240
671.10709,0.14212
673.03556,0.12544
674.96403,0.12288
676.89250,0.13814
678.82097,0.15068
680.74944,0.14876
682.67791,0.13906
684.60637,0.12922
686.53484,0.11921
688.46331,0.10819
690.39178,0.10649
692.32025,0.11288
694.24872,0.11802
696.17719,0.12868
698.10565,0.14643
700.03412,0.15312
701.96259,0.13974
703.89106,0.12513
705.81953,0.13052
707.74800,0.14508
709.67647,0.14560
711.60494,0.13249
713.53340,0.12060
715.46187,0.11870
717.39034,0.12385
719.31881,0.13161
721.24728,0.13737
723.17575,0.13823
725.10422,0.13553
727.03268,0.12423
728.96115,0.11424
730.88962,0.12070
732.81809,0.13135
734.74656,0.13460
736.67503,0.13534
738.60350,0.13420
740.53197,0.13403
742.46043,0.14467
744.38890,0.15763
746.31737,0.15799
748.24584,0.14752
750.17431,0.13703
752.10278,0.13825
754.03125,0.14172
755.95971,0.13499
757.88818,0.13164
759.81665,0.13620
761.74512,0.13355
763.67359,0.12339
765.60206,0.11942
767.53053,0.12494
769.45900,0.13309
771.38746,0.13461
773.31593,0.13059
775.24440,0.13372
777.17287,0.14526
779.10134,0.15490
781.02981,0.15627
782.95828,0.14723
784.88674,0.13727
786.81521,0.13796
788.74368,0.13991
790.67215,0.13239
792.60062,0.11821
794.52909,0.10974
796.45756,0.11831
798.38602,0.12925
800.31449,0.12947
802.24296,0.13011
804.17143,0.13081
806.09990,0.12053
808.02837,0.11178
809.95684,0.11962
811.88531,0.13351
813.81377,0.13760
815.74224,0.13607
817.67071,0.13808
819.59918,0.13187
821.52765,0.12171
823.45612,0.12909
825.38459,0.14036
827.31305,0.13500
829.24152,0.12523
831.16999,0.12412
833.09846,0.12751
835.02693,0.13391
836.95540,0.13913
838.88387,0.13500
840.81234,0.13435
842.74080,0.14428
844.66927,0.15219
846.59774,0.15465
848.52621,0.14952
850.45468,0.13731
852.38315,0.13009
854.31162,0.12969
856.24008,0.13319
858.16855,0.14103
860.09702,0.14502
862.02549,0.14240
863.95396,0.13793
865.88243,0.13253
867.81090,0.13753
869.73937,0.15214
871.66783,0.15404
873.59630,0.14779
875.52477,0.14768
877.45324,0.14531
879.38171,0.13769
881.31018,0.13293
883.23865,0.13339
885.16711,0.13413
887.09558,0.13373
889.02405,0.13813
890.95252,0.14457
892.88099,0.14327
894.80946,0.13738
896.73793,0.13406
898.66640,0.13548
900.59486,0.14619
902.52333,0.15626
904.45180,0.14817
906.38027,0.13432
908.30874,0.13515
910.23721,0.14065
912.16568,0.14252
914.09414,0.14810
916.02261,0.15121
917.95108,0.15031
919.87955,0.15029
921.80802,0.14538
923.73649,0.13994
925.66496,0.14205
927.59343,0.14766
929.52189,0.15163
931.45036,0.15061
933.37883,0.14819
935.30730,0.15140
937.23577,0.15544
939.16424,0.15021
941.09271,0.13531
943.02117,0.12598
944.94964,0.13158
946.87811,0.14222
948.80658,0.14915
950.73505,0.15103
952.66352,0.14949
954.59199,0.14594
956.52045,0.14242
958.44892,0.14113
960.37739,0.14116
962.30586,0.14349
964.23433,0.14746
966.16280,0.15245
968.09127,0.15804
970.01974,0.15918
971.94820,0.15856
973.87667,0.15885
975.80514,0.15371
977.73361,0.14969
979.66208,0.15083
981.59055,0.14548
983.51902,0.13609
985.44748,0.13292
987.37595,0.13961
989.30442,0.15057
991.23289,0.15331
993.16136,0.14984
995.08983,0.14817
997.01830,0.14976
998.94677,0.15744
1000.87523,0.16668
1002.80370,0.16724
1004.73217,0.16043
1006.66064,0.15335
1008.58911,0.14909
1010.51758,0.14714
1012.44605,0.14812
1014.37451,0.15217
1016.30298,0.15328
1018.23145,0.15312
1020.15992,0.15336
1022.08839,0.14603
1024.01686,0.13612
1025.94533,0.14207
1027.87380,0.16194
1029.80226,0.16737
1031.73073,0.15470
1033.65920,0.14614
1035.58767,0.14642
1037.51614,0.15135
1039.44461,0.15744
1041.37308,0.15562
1043.30154,0.14822
1045.23001,0.14944
1047.15848,0.15440
1049.08695,0.15807
1051.01542,0.16584
1052.94389,0.16600
1054.87236,0.15699
1056.80083,0.15578
1058.72929,0.16191
1060.65776,0.16313
1062.58623,0.15808
1064.51470,0.15161
1066.44317,0.15099
1068.37164,0.15764
1070.30011,0.16191
1072.22857,0.16400
1074.15704,0.16938
1076.08551,0.17711
1078.01398,0.18219
1079.94245,0.17804
1081.87092,0.16855
1083.79939,0.16570
1085.72786,0.17181
1087.65632,0.17149
1089.58479,0.15974
1091.51326,0.15138
1093.44173,0.15428
1095.37020,0.16559
1097.29867,0.17493
1099.22714,0.17199
1101.15560,0.16416
1103.08407,0.16315
1105.01254,0.16442
1106.94101,0.16378
1108.86948,0.16673
1110.79795,0.17491
1112.72642,0.18223
1114.65489,0.17887
1116.58335,0.16613
1118.51182,0.15700
1120.44029,0.15408
1122.36876,0.15394
1124.29723,0.15932
1126.22570,0.16355
1128.15417,0.15641
1130.08263,0.14753
1132.01110,0.14841
1133.93957,0.15442
1135.86804,0.15676
1137.79651,0.15469
1139.72498,0.15266
1141.65345,0.14948
1143.58191,0.14606
1145.51038,0.15009
1147.43885,0.16014
1149.36732,0.16799
1151.29579,0.16970
1153.22426,0.16701
1155.15273,0.16722
1157.08120,0.16970
1159.00966,0.16779
1160.93813,0.16638
1162.86660,0.16905
1164.79507,0.16819
1166.72354,0.16324
1168.65201,0.16004
1170.58048,0.15669
1172.50894,0.15330
1174.43741,0.15633
1176.36588,0.16375
1178.29435,0.16697
1180.22282,0.16386
1182.15129,0.15967
1184.07976,0.16001
1186.00823,0.16365
1187.93669,0.16283
1189.86516,0.15654
1191.79363,0.15221
1193.72210,0.15181
1195.65057,0.15393
1197.57904,0.15868
1199.50751,0.16203
1201.43597,0.16086
1203.36444,0.15911
1205.29291,0.16032
1207.22138,0.16340
1209.14985,0.16587
1211.07832,0.16589
1213.00679,0.16570
1214.93526,0.16923
1216.86372,0.17215
1218.79219,0.16856
1220.72066,0.16239
1222.64913,0.15980
1224.57760,0.16198
1226.50607,0.16547
1228.43454,0.16748
1230.36300,0.16965
1232.29147,0.17155
1234.21994,0.16903
1236.14841,0.16165
1238.07688,0.15515
1240.00535,0.15570
1241.93382,0.16337
1243.86229,0.17086
1245.79075,0.17251
1247.71922,0.17007
1249.64769,0.16631
1251.57616,0.16301
1253.50463,0.16203
1255.43310,0.16314
1257.36157,0.16331
1259.29003,0.15919
1261.21850,0.15391
1263.14697,0.15509
1265.07544,0.16088
1267.00391,0.16374
1268.93238,0.16439
1270.86085,0.16617
1272.78932,0.16751
1274.71778,0.16574
1276.64625,0.16427
1278.57472,0.16665
1280.50319,0.16818
1282.43166,0.16755
1284.36013,0.16846
1286.28860,0.16907
1288.21706,0.16789
1290.14553,0.16751
1292.07400,0.16689
1294.00247,0.16473
1295.93094,0.16140
1297.85941,0.15739
1299.78788,0.15358
1301.71634,0.14432
1303.64481,0.13027
1305.57328,0.12775
1307.50175,0.14220
1309.43022,0.15717
1311.35869,0.16308
1313.28716,0.16665
1315.21563,0.17040
1317.14409,0.17340
1319.07256,0.17471
1321.00103,0.17348
1322.92950,0.17438
1324.85797,0.17554
1326.78644,0.17099
1328.71491,0.16420
1330.64337,0.15882
1332.57184,0.15632
1334.50031,0.15848
1336.42878,0.16127
1338.35725,0.16124
1340.28572,0.15910
1342.21419,0.16952
1344.14266,0.19864
1346.07112,0.21464
1347.99959,0.19709
1349.92806,0.17123
1351.85653,0.15996
1353.78500,0.15959
1355.71347,0.16151
1357.64194,0.16348
1359.57040,0.16761
1361.49887,0.17593
1363.42734,0.17980
1365.35581,0.17595
1367.28428,0.17550
1369.21275,0.17928
1371.14122,0.18178
1373.06969,0.18447
1374.99815,0.18776
1376.92662,0.18624
1378.85509,0.18227
1380.78356,0.18091
1382.71203,0.18133
1384.64050,0.18184
1386.56897,0.18391
1388.49743,0.18533
1390.42590,0.18248
1392.35437,0.18243
1394.28284,0.18884
1396.21131,0.19178
1398.13978,0.18819
1400.06825,0.18641
1401.99672,0.18791
1403.92518,0.18725
1405.85365,0.18193
1407.78212,0.17764
1409.71059,0.17681
1411.63906,0.17812
1413.56753,0.18404
1415.49600,0.19449
1417.42446,0.20334
1419.35293,0.19916
1421.28140,0.18901
1423.20987,0.18684
1425.13834,0.18748
1427.06681,0.18713
1428.99528,0.18680
1430.92375,0.18591
1432.85221,0.18692
1434.78068,0.19110
1436.70915,0.19254
1438.63762,0.18788
1440.56609,0.18355
1442.49456,0.17988
1444.42303,0.17701
1446.35149,0.17834
1448.27996,0.18455
1450.20843,0.18953
1452.13690,0.19339
1454.06537,0.20414
1455.99384,0.22132
1457.92231,0.22406
1459.85077,0.21125
1461.77924,0.20269
1463.70771,0.19662
1465.63618,0.19179
1467.56465,0.19320
1469.49312,0.20341
1471.42159,0.21954
1473.35006,0.22428
1475.27852,0.21224
1477.20699,0.20009
1479.13546,0.19173
1481.06393,0.18796
1482.99240,0.18771
1484.92087,0.19144
1486.84934,0.20058
1488.77780,0.20809
1490.70627,0.20583
1492.63474,0.20197
1494.56321,0.20062
1496.49168,0.20144
1498.42015,0.20181
1500.34862,0.19736
1502.27709,0.19664
1504.20555,0.20668
1506.13402,0.22536
1508.06249,0.22490
1509.99096,0.20686
1511.91943,0.19665
1513.84790,0.19830
1515.77637,0.20933
1517.70483,0.21771
1519.63330,0.21883
1521.56177,0.22031
1523.49024,0.21557
1525.41871,0.20632
1527.34718,0.19771
1529.27565,0.19413
1531.20412,0.20203
1533.13258,0.21367
1535.06105,0.21220
1536.98952,0.21068
1538.91799,0.22317
1540.84646,0.23595
1542.77493,0.22903
1544.70340,0.21502
1546.63186,0.20308
1548.56033,0.20198
1550.48880,0.20572
1552.41727,0.20457
1554.34574,0.20374
1556.27421,0.20895
1558.20268,0.21544
1560.13115,0.20657
1562.05961,0.19830
1563.98808,0.19717
1565.91655,0.19887
1567.84502,0.20396
1569.77349,0.20766
1571.70196,0.20321
1573.63043,0.19874
1575.55889,0.19390
1577.48736,0.18410
1579.41583,0.17829
1581.34430,0.17835
1583.27277,0.17983
1585.20124,0.18114
1587.12971,0.18464
1589.05818,0.18933
1590.98664,0.19102
1592.91511,0.18712
1594.84358,0.17978
1596.77205,0.17450
1598.70052,0.17346
1600.62899,0.17577
1602.55746,0.17843
1604.48592,0.17943
1606.41439,0.18189
1608.34286,0.18585
1610.27133,0.18606
1612.19980,0.18424
1614.12827,0.18761
1616.05674,0.19591
1617.98521,0.19722
1619.91367,0.19463
1621.84214,0.19722
1623.77061,0.19892
1625.69908,0.19568
1627.62755,0.19544
1629.55602,0.19899
1631.48449,0.20225
1633.41295,0.20841
1635.34142,0.21946
1637.26989,0.21789
1639.19836,0.20647
1641.12683,0.19966
1643.05530,0.20006
1644.98377,0.21102
1646.91223,0.22942
1648.84070,0.23042
1650.76917,0.22496
1652.69764,0.22866
1654.62611,0.22202
1656.55458,0.21037
1658.48305,0.20565
1660.41152,0.20340
1662.33998,0.20240
1664.26845,0.20483
1666.19692,0.20989
1668.12539,0.21709
1670.05386,0.22110
1671.98233,0.21696
1673.91080,0.21276
1675.83926,0.20760
1677.76773,0.20367
1679.69620,0.20793
1681.62467,0.22129
1683.55314,0.24042
1685.48161,0.23939
1687.41008,0.22485
1689.33855,0.21426
1691.26701,0.20549
1693.19548,0.20467
1695.12395,0.21469
1697.05242,0.22391
1698.98089,0.22531
1700.90936,0.22165
1702.83783,0.21695
1704.76629,0.21676
1706.69476,0.21305
1708.62323,0.20314
1710.55170,0.19634
1712.48017,0.19683
1714.40864,0.20521
1716.33711,0.21381
1718.26558,0.20766
1720.19404,0.19776
1722.12251,0.19435
1724.05098,0.19412
1725.97945,0.19379
1727.90792,0.19517
1729.83639,0.20037
1731.76486,0.20840
1733.69332,0.21384
1735.62179,0.20966
1737.55026,0.20761
1739.47873,0.20812
1741.40720,0.20492
1743.33567,0.20425
1745.26414,0.20998
1747.19261,0.21715
1749.12107,0.22015
1751.04954,0.21293
1752.97801,0.20112
1754.90648,0.19630
1756.83495,0.19749
1758.76342,0.19960
1760.69189,0.20213
1762.62035,0.19986
1764.54882,0.19412
1766.47729,0.19463
1768.40576,0.20288
1770.33423,0.21415
1772.26270,0.21548
1774.19117,0.20229
1776.11964,0.19259
1778.04810,0.19161
1779.97657,0.19529
1781.90504,0.19683
1783.83351,0.19242
1785.76198,0.18592
1787.69045,0.18455
1789.61892,0.19126
1791.54738,0.20075
1793.47585,0.20039
1795.40432,0.19425
1797.33279,0.19390
1799.26126,0.19738
1801.18973,0.19759
1803.11820,0.19547
1805.04666,0.19479
1806.97513,0.19331
1808.90360,0.19152
1810.83207,0.19148
1812.76054,0.19023
1814.68901,0.18826
1816.61748,0.18791
1818.54595,0.19124
1820.47441,0.19695
1822.40288,0.19928
1824.33135,0.19945
1826.25982,0.19987
1828.18829,0.19986
1830.11676,0.19856
1832.04523,0.19418
1833.97369,0.19148
1835.90216,0.19209
1837.83063,0.19276
1839.75910,0.19299
1841.68757,0.19411
1843.61604,0.19510
1845.54451,0.19398
1847.47298,0.19208
1849.40144,0.18900
1851.32991,0.18669
1853.25838,0.18860
1855.18685,0.18991
1857.11532,0.18636
1859.04379,0.18331
1860.97226,0.18558
1862.90072,0.19104
1864.82919,0.19655
1866.75766,0.20072
1868.68613,0.19985
1870.61460,0.19220
1872.54307,0.18618
1874.47154,0.18624
1876.40001,0.18986
1878.32847,0.19372
1880.25694,0.19463
1882.18541,0.19288
1884.11388,0.19164
1886.04235,0.19228
1887.97082,0.19445
1889.89929,0.19429
1891.82775,0.19312
1893.75622,0.19591
1895.68469,0.19755
1897.61316,0.19520
1899.54163,0.19328
1901.47010,0.19240
1903.39857,0.19263
1905.32704,0.19281
1907.25550,0.19104
1909.18397,0.18918
1911.11244,0.18818
1913.04091,0.18856
1914.96938,0.19057
1916.89785,0.19249
1918.82632,0.19426
1920.75478,0.19792
1922.68325,0.20090
1924.61172,0.19754
1926.54019,0.19135
1928.46866,0.18711
1930.39713,0.18479
1932.32560,0.18535
1934.25407,0.18667
1936.18253,0.18624
1938.11100,0.18719
1940.03947,0.19082
1941.96794,0.19246
1943.89641,0.18996
1945.82488,0.18767
1947.75335,0.18688
1949.68181,0.18684
1951.61028,0.18820
1953.53875,0.18942
1955.46722,0.18938
1957.39569,0.18931
1959.32416,0.18957
1961.25263,0.19036
1963.18110,0.19179
1965.10956,0.19306
1967.03803,0.19265
1968.96650,0.19023
1970.89497,0.18863
1972.82344,0.18916
1974.75191,0.18950
1976.68038,0.18880
1978.60884,0.18886
1980.53731,0.18914
1982.46578,0.18830
1984.39425,0.18902
1986.32272,0.19261
1988.25119,0.19467
1990.17966,0.19337
1992.10812,0.19205
1994.03659,0.19044
1995.96506,0.18715
1997.89353,0.18473
1999.82200,0.18413
2001.75047,0.18468
2003.67894,0.18673
2005.60741,0.18880
2007.53587,0.18890
2009.46434,0.18783
2011.39281,0.18648
2013.32128,0.18571
2015.24975,0.18686
2017.17822,0.18808
2019.10669,0.18783
2021.03515,0.18750
2022.96362,0.18643
2024.89209,0.18450
2026.82056,0.18523
2028.74903,0.18823
2030.67750,0.18953
2032.60597,0.18958
2034.53444,0.19076
2036.46290,0.19241
2038.39137,0.19229
2040.31984,0.19138
2042.24831,0.19141
2044.17678,0.19034
2046.10525,0.18753
2048.03372,0.18463
2049.96218,0.18406
2051.89065,0.18722
2053.81912,0.19022
2055.74759,0.18978
2057.67606,0.18792
2059.60453,0.18716
2061.53300,0.18764
2063.46147,0.18876
2065.38993,0.19102
2067.31840,0.19362
2069.24687,0.19424
2071.17534,0.19374
2073.10381,0.19354
2075.03228,0.19231
2076.96075,0.19064
2078.88921,0.19018
2080.81768,0.19004
2082.74615,0.18929
2084.67462,0.18929
2086.60309,0.19102
2088.53156,0.19298
2090.46003,0.19459
2092.38850,0.19521
2094.31696,0.19341
2096.24543,0.19081
2098.17390,0.19038
2100.10237,0.19275
2102.03084,0.19491
2103.95931,0.19392
2105.88778,0.19105
2107.81624,0.18881
2109.74471,0.18818
2111.67318,0.18815
2113.60165,0.18806
2115.53012,0.18976
2117.45859,0.19190
2119.38706,0.19143
2121.31553,0.19019
2123.24399,0.19117
2125.17246,0.19466
2127.10093,0.19729
2129.02940,0.19549
2130.95787,0.19147
2132.88634,0.18954
2134.81481,0.19012
2136.74327,0.19056
2138.67174,0.19128
2140.60021,0.19283
2142.52868,0.19293
2144.45715,0.19265
2146.38562,0.19220
2148.31409,0.19086
2150.24255,0.19171
2152.17102,0.19365
2154.09949,0.19363
2156.02796,0.19318
2157.95643,0.19243
2159.88490,0.19051
2161.81337,0.18913
2163.74184,0.18923
2165.67030,0.19201
2167.59877,0.19750
2169.52724,0.20109
2171.45571,0.19995
2173.38418,0.19547
2175.31265,0.19048
2177.24112,0.18928
2179.16958,0.19196
2181.09805,0.19319
2183.02652,0.19144
2184.95499,0.18913
2186.88346,0.18931
2188.81193,0.19343
2190.74040,0.19615
2192.66887,0.19340
2194.59733,0.18986
2196.52580,0.18959
2198.45427,0.19037
2200.38274,0.18990
2202.31121,0.19083
2204.23968,0.19382
2206.16815,0.19335
2208.09661,0.18964
2210.02508,0.18884
2211.95355,0.19037
2213.88202,0.19074
2215.81049,0.18945
2217.73896,0.18768
2219.66743,0.18806
2221.59590,0.19030
2223.52436,0.19090
2225.45283,0.18914
2227.38130,0.18751
2229.30977,0.18853
2231.23824,0.19132
2233.16671,0.19225
2235.09518,0.19113
2237.02364,0.19053
2238.95211,0.19083
2240.88058,0.19087
2242.80905,0.19032
2244.73752,0.19050
2246.66599,0.19159
2248.59446,0.19136
2250.52293,0.19048
2252.45139,0.19161
2254.37986,0.19352
2256.30833,0.19333
2258.23680,0.19086
2260.16527,0.18900
2262.09374,0.18903
2264.02221,0.18929
2265.95067,0.18929
2267.87914,0.18858
2269.80761,0.18718
2271.73608,0.18652
2273.66455,0.18736
2275.59302,0.18981
2277.52149,0.19302
2279.44996,0.19491
2281.37842,0.19415
2283.30689,0.19352
2285.23536,0.19452
2287.16383,0.19435
2289.09230,0.19296
2291.02077,0.19143
2292.94924,0.18900
2294.87770,0.18704
2296.80617,0.18736
2298.73464,0.18945
2300.66311,0.19222
2302.59158,0.19492
2304.52005,0.19673
2306.44852,0.19665
2308.37699,0.19458
2310.30545,0.19174
2312.23392,0.18896
2314.16239,0.18777
2316.09086,0.19000
2318.01933,0.19348
2319.94780,0.19544
2321.87627,0.19779
2323.80473,0.19911
2325.73320,0.19719
2327.66167,0.20146
2329.59014,0.21574
2331.51861,0.22536
2333.44708,0.22475
2335.37555,0.22119
2337.30401,0.21167
2339.23248,0.19897
2341.16095,0.19414
2343.08942,0.19810
2345.01789,0.20450
2346.94636,0.20806
2348.87483,0.21123
2350.80330,0.21071
2352.73176,0.19566
2354.66023,0.17779
2356.58870,0.19304
2358.51717,0.23072
2360.44564,0.25600
2362.37411,0.26826
2364.30258,0.26391
2366.23104,0.24225
2368.15951,0.22446
2370.08798,0.21968
2372.01645,0.21576
2373.94492,0.20372
2375.87339,0.19096
2377.80186,0.18713
2379.73033,0.19039
2381.65879,0.19259
2383.58726,0.19209
2385.51573,0.19238
2387.44420,0.19292
2389.37267,0.19268
2391.30114,0.19322
2393.22961,0.19348
2395.15807,0.19362
2397.08654,0.19625
2399.01501,0.19799
2400.94348,0.19549
2402.87195,0.19251
2404.80042,0.19119
2406.72889,0.19045
2408.65736,0.18976
2410.58582,0.18896
2412.51429,0.18917
2414.44276,0.19195
2416.37123,0.19504
2418.29970,0.19437
2420.22817,0.19140
2422.15664,0.18975
2424.08510,0.18963
2426.01357,0.19032
2427.94204,0.19242
2429.87051,0.19457
2431.79898,0.19364
2433.72745,0.19175
2435.65592,0.19293
2437.58439,0.19630
2439.51285,0.19873
2441.44132,0.19801
2443.36979,0.19433
2445.29826,0.19013
2447.22673,0.18924
2449.15520,0.19260
2451.08367,0.19546
2453.01213,0.19461
2454.94060,0.19294
2456.86907,0.19189
2458.79754,0.19023
2460.72601,0.18984
2462.65448,0.19064
2464.58295,0.18995
2466.51142,0.18890
2468.43988,0.18954
2470.36835,0.19229
2472.29682,0.19573
2474.22529,0.19725
2476.15376,0.19660
2478.08223,0.19538
2480.01070,0.19462
2481.93916,0.19428
2483.86763,0.19361
2485.79610,0.19248
2487.72457,0.19154
2489.65304,0.19196
2491.58151,0.19324
2493.50998,0.19328
2495.43844,0.19235
2497.36691,0.19140
2499.29538,0.19002
2501.22385,0.18799
2503.15232,0.18686
2505.08079,0.18868
2507.00926,0.19260
2508.93773,0.19618
2510.86619,0.19687
2512.79466,0.19466
2514.72313,0.19369
2516.65160,0.19429
2518.58007,0.19414
2520.50854,0.19462
2522.43701,0.19552
2524.36547,0.19604
2526.29394,0.19614
2528.22241,0.19428
2530.15088,0.19242
2532.07935,0.19290
2534.00782,0.19368
2535.93629,0.19390
2537.86476,0.19480
2539.79322,0.19482
2541.72169,0.19255
2543.65016,0.19097
2545.57863,0.19174
2547.50710,0.19297
2549.43557,0.19300
2551.36404,0.19244
2553.29250,0.19252
2555.22097,0.19203
2557.14944,0.19131
2559.07791,0.19213
2561.00638,0.19231
2562.93485,0.19060
2564.86332,0.19047
2566.79179,0.19325
2568.72025,0.19546
2570.64872,0.19525
2572.57719,0.19413
2574.50566,0.19347
2576.43413,0.19416
2578.36260,0.19510
2580.29107,0.19425
2582.21953,0.19186
2584.14800,0.18935
2586.07647,0.18891
2588.00494,0.19118
2589.93341,0.19172
2591.86188,0.18937
2593.79035,0.19068
2595.71882,0.19707
2597.64728,0.20183
2599.57575,0.20244
2601.50422,0.20177
2603.43269,0.20085
2605.36116,0.20020
2607.28963,0.20042
2609.21810,0.19971
2611.14656,0.19871
2613.07503,0.19829
2615.00350,0.19721
2616.93197,0.19784
2618.86044,0.20074
2620.78891,0.20236
2622.71738,0.20202
2624.64585,0.20096
2626.57431,0.19912
2628.50278,0.19700
2630.43125,0.19609
2632.35972,0.19658
2634.28819,0.19755
2636.21666,0.19774
2638.14513,0.19772
2640.07359,0.19951
2642.00206,0.20133
2643.93053,0.19963
2645.85900,0.19638
2647.78747,0.19661
2649.71594,0.19818
2651.64441,0.19572
2653.57288,0.19204
2655.50134,0.19268
2657.42981,0.19635
2659.35828,0.19859
2661.28675,0.19700
2663.21522,0.19233
2665.14369,0.18837
2667.07216,0.18839
2669.00062,0.19194
2670.92909,0.19619
2672.85756,0.19894
2674.78603,0.19943
2676.71450,0.19815
2678.64297,0.19664
2680.57144,0.19766
2682.49990,0.20254
2684.42837,0.20663
2686.35684,0.20685
2688.28531,0.20608
2690.21378,0.20469
2692.14225,0.20230
2694.07072,0.20011
2695.99919,0.19849
2697.92765,0.19897
2699.85612,0.20000
2701.78459,0.19811
2703.71306,0.19564
2705.64153,0.19512
2707.57000,0.19441
2709.49847,0.19281
2711.42693,0.19429
2713.35540,0.20110
2715.28387,0.20722
2717.21234,0.20713
2719.14081,0.20302
2721.06928,0.19902
2722.99775,0.19942
2724.92622,0.20397
2726.85468,0.20757
2728.78315,0.20821
2730.71162,0.20618
2732.64009,0.20395
2734.56856,0.20314
2736.49703,0.20259
2738.42550,0.20228
2740.35396,0.20118
2742.28243,0.20012
2744.21090,0.20132
2746.13937,0.20180
2748.06784,0.20040
2749.99631,0.20158
2751.92478,0.20481
2753.85325,0.20444
2755.78171,0.20242
2757.71018,0.20437
2759.63865,0.20717
2761.56712,0.20743
2763.49559,0.20818
2765.42406,0.20907
2767.35253,0.20720
2769.28099,0.20343
2771.20946,0.20196
2773.13793,0.20458
2775.06640,0.20797
2776.99487,0.20935
2778.92334,0.20818
2780.85181,0.20592
2782.78028,0.20507
2784.70874,0.20548
2786.63721,0.20524
2788.56568,0.20449
2790.49415,0.20471
2792.42262,0.20461
2794.35109,0.20420
2796.27956,0.20555
2798.20802,0.20668
2800.13649,0.20547
2802.06496,0.20521
2803.99343,0.20640
2805.92190,0.20429
2807.85037,0.20034
2809.77884,0.20030
2811.70731,0.20463
2813.63577,0.20961
2815.56424,0.21223
2817.49271,0.21223
2819.42118,0.21105
2821.34965,0.21001
2823.27812,0.20898
2825.20659,0.20811
2827.13505,0.20765
2829.06352,0.20706
2830.99199,0.20640
2832.92046,0.20648
2834.84893,0.20690
2836.77740,0.20574
2838.70587,0.20429
2840.63433,0.20681
2842.56280,0.21168
2844.49127,0.21149
2846.41974,0.20678
2848.34821,0.20549
2850.27668,0.20795
2852.20515,0.20934
2854.13362,0.20906
2856.06208,0.20834
2857.99055,0.20822
2859.91902,0.20907
2861.84749,0.20786
2863.77596,0.20540
2865.70443,0.20658
2867.63290,0.20775
2869.56136,0.20542
2871.48983,0.20482
2873.41830,0.20671
2875.34677,0.20820
2877.27524,0.21021
2879.20371,0.21098
2881.13218,0.20784
2883.06065,0.20391
2884.98911,0.20355
2886.91758,0.20561
2888.84605,0.20600
2890.77452,0.20531
2892.70299,0.20604
2894.63146,0.20552
2896.55993,0.20186
2898.48839,0.20166
2900.41686,0.20658
2902.34533,0.20736
2904.27380,0.20161
2906.20227,0.19701
2908.13074,0.19844
2910.05921,0.20286
2911.98768,0.20604
2913.91614,0.20607
2915.84461,0.20277
2917.77308,0.20025
2919.70155,0.19979
2921.63002,0.19962
2923.55849,0.19834
2925.48696,0.19408
2927.41542,0.19488
2929.34389,0.20599
2931.27236,0.21239
2933.20083,0.20652
2935.12930,0.19867
2937.05777,0.19437
2938.98624,0.19587
2940.91471,0.20178
2942.84317,0.20636
2944.77164,0.20505
2946.70011,0.19667
2948.62858,0.19319
2950.55705,0.20020
2952.48552,0.20635
2954.41399,0.20546
2956.34245,0.19639
2958.27092,0.18750
2960.19939,0.19158
2962.12786,0.20147
2964.05633,0.20490
2965.98480,0.20333
2967.91327,0.20122
2969.84174,0.20128
2971.77020,0.20384
2973.69867,0.20800
2975.62714,0.20921
2977.55561,0.20314
2979.48408,0.19960
2981.41255,0.20333
2983.34102,0.20603
2985.26948,0.20510
2987.19795,0.20167
2989.12642,0.20103
2991.05489,0.20659
2992.98336,0.21196
2994.91183,0.21318
2996.84030,0.21192
2998.76877,0.21275
3000.69723,0.21683
3002.62570,0.21881
3004.55417,0.21781
3006.48264,0.21439
3008.41111,0.20566
3010.33958,0.19261
3012.26805,0.17337
3014.19651,0.14156
3016.12498,0.11205
3018.05345,0.11929
3019.98192,0.16104
3021.91039,0.19731
3023.83886,0.21330
3025.76733,0.21735
3027.69579,0.21523
3029.62426,0.21420
3031.55273,0.21486
3033.48120,0.21419
3035.40967,0.21446
3037.33814,0.21530
3039.26661,0.21640
3041.19508,0.21711
3043.12354,0.21531
3045.05201,0.21242
3046.98048,0.20905
3048.90895,0.20736
3050.83742,0.20916
3052.76589,0.21237
3054.69436,0.21213
3056.62282,0.20565
3058.55129,0.20480
3060.47976,0.21421
3062.40823,0.21873
3064.33670,0.20973
3066.26517,0.19529
3068.19364,0.19265
3070.12211,0.20221
3072.05057,0.20728
3073.97904,0.20157
3075.90751,0.19485
3077.83598,0.19911
3079.76445,0.20815
3081.69292,0.21012
3083.62139,0.20401
3085.54985,0.19715
3087.47832,0.19925
3089.40679,0.20652
3091.33526,0.20873
3093.26373,0.20040
3095.19220,0.19119
3097.12067,0.19920
3099.04914,0.21479
3100.97760,0.21619
3102.90607,0.20556
3104.83454,0.20157
3106.76301,0.20830
3108.69148,0.21191
3110.61995,0.20479
3112.54842,0.19578
3114.47688,0.19780
3116.40535,0.20654
3118.33382,0.20946
3120.26229,0.20602
3122.19076,0.20446
3124.11923,0.20995
3126.04770,0.21550
3127.97617,0.21177
3129.90463,0.20207
3131.83310,0.19970
3133.76157,0.20686
3135.69004,0.21148
3137.61851,0.20865
3139.54698,0.20616
3141.47545,0.20858
3143.40391,0.20847
3145.33238,0.20511
3147.26085,0.20647
3149.18932,0.21208
3151.11779,0.21555
3153.04626,0.21267
3154.97473,0.20883
3156.90320,0.21280
3158.83166,0.22023
3160.76013,0.22387
3162.68860,0.22490
3164.61707,0.22355
3166.54554,0.21982
3168.47401,0.21785
3170.40248,0.22014
3172.33094,0.22212
3174.25941,0.21752
3176.18788,0.21215
3178.11635,0.21592
3180.04482,0.22448
3181.97329,0.22853
3183.90176,0.23032
3185.83022,0.23132
3187.75869,0.22717
3189.68716,0.22266
3191.61563,0.22190
3193.54410,0.22117
3195.47257,0.22054
3197.40104,0.21847
3199.32951,0.21151
3201.25797,0.20545
3203.18644,0.20491
3205.11491,0.20528
3207.04338,0.20526
3208.97185,0.20837
3210.90032,0.21543
3212.82879,0.22311
3214.75725,0.22411
3216.68572,0.22056
3218.61419,0.22269
3220.54266,0.22620
3222.47113,0.22323
3224.39960,0.21693
3226.32807,0.21296
3228.25654,0.21228
3230.18500,0.21080
3232.11347,0.20957
3234.04194,0.21154
3235.97041,0.21307
3237.89888,0.21203
3239.82735,0.21087
3241.75582,0.21238
3243.68428,0.21534
3245.61275,0.21628
3247.54122,0.21780
3249.46969,0.22198
3251.39816,0.22179
3253.32663,0.21666
3255.25510,0.21356
3257.18357,0.21225
3259.11203,0.21093
3261.04050,0.20778
3262.96897,0.20324
3264.89744,0.20248
3266.82591,0.20783
3268.75438,0.21488
3270.68285,0.21662
3272.61131,0.21649
3274.53978,0.21870
3276.46825,0.21655
3278.39672,0.21197
3280.32519,0.21335
3282.25366,0.21495
3284.18213,0.21175
3286.11060,0.20955
3288.03906,0.20993
3289.96753,0.21135
3291.89600,0.21322
3293.82447,0.21547
3295.75294,0.21619
3297.68141,0.21217
3299.60988,0.20862
3301.53834,0.20868
3303.46681,0.20787
3305.39528,0.20683
3307.32375,0.20782
3309.25222,0.20785
3311.18069,0.20697
3313.10916,0.21160
3315.03763,0.21995
3316.96609,0.22350
3318.89456,0.21995
3320.82303,0.21348
3322.75150,0.21107
3324.67997,0.21133
3326.60844,0.20752
3328.53691,0.20535
3330.46537,0.21216
3332.39384,0.22049
3334.32231,0.22263
3336.25078,0.22319
3338.17925,0.22421
3340.10772,0.22209
3342.03619,0.21990
3343.96466,0.21939
3345.89312,0.21709
3347.82159,0.21293
3349.75006,0.20982
3351.67853,0.20999
3353.60700,0.21204
3355.53547,0.21376
3357.46394,0.21594
3359.39240,0.21813
3361.32087,0.21719
3363.24934,0.21387
3365.17781,0.21426
3367.10628,0.22062
3369.03475,0.22847
3370.96322,0.23171
3372.89168,0.23010
3374.82015,0.22878
3376.74862,0.22675
3378.67709,0.22107
3380.60556,0.21532
3382.53403,0.21351
3384.46250,0.21608
3386.39097,0.21881
3388.31943,0.21804
3390.24790,0.21671
3392.17637,0.21674
3394.10484,0.21741
3396.03331,0.21832
3397.96178,0.21515
3399.89025,0.20828
3401.81871,0.20592
3403.74718,0.20958
3405.67565,0.21452
3407.60412,0.21713
3409.53259,0.21569
3411.46106,0.21179
3413.38953,0.21062
3415.31800,0.21308
3417.24646,0.21330
3419.17493,0.21196
3421.10340,0.21180
3423.03187,0.20579
3424.96034,0.19488
3426.88881,0.19220
3428.81728,0.19898
3430.74574,0.20350
3432.67421,0.20396
3434.60268,0.20668
3436.53115,0.20973
3438.45962,0.20879
3440.38809,0.20762
3442.31656,0.21016
3444.24503,0.21317
3446.17349,0.21386
3448.10196,0.21060
3450.03043,0.20462
3451.95890,0.20233
3453.88737,0.20606
3455.81584,0.21046
3457.74431,0.21016
3459.67277,0.20626
3461.60124,0.20163
3463.52971,0.19984
3465.45818,0.20417
3467.38665,0.20831
3469.31512,0.20427
3471.24359,0.19564
3473.17206,0.19072
3475.10052,0.19250
3477.02899,0.19756
3478.95746,0.19820
3480.88593,0.19240
3482.81440,0.18845
3484.74287,0.19026
3486.67134,0.19221
3488.59980,0.19287
3490.52827,0.19489
3492.45674,0.19437
3494.38521,0.18877
3496.31368,0.18217
3498.24215,0.17877
3500.17062,0.18074
3502.09909,0.18325
3504.02755,0.18184
3505.95602,0.18289
3507.88449,0.18656
3509.81296,0.18606
3511.74143,0.18481
3513.66990,0.18560
3515.59837,0.18329
3517.52683,0.17812
3519.45530,0.17446
3521.38377,0.17534
3523.31224,0.17953
3525.24071,0.18154
3527.16918,0.18028
3529.09765,0.17803
3531.02611,0.17578
3532.95458,0.17296
3534.88305,0.17127
3536.81152,0.17354
3538.73999,0.17560
3540.66846,0.17533
3542.59693,0.17665
3544.52540,0.17961
3546.45386,0.18276
3548.38233,0.18443
3550.31080,0.18438
3552.23927,0.18340
3554.16774,0.17883
3556.09621,0.17076
3558.02468,0.16682
3559.95314,0.17341
3561.88161,0.18196
3563.81008,0.18327
3565.73855,0.18285
3567.66702,0.18095
3569.59549,0.17345
3571.52396,0.16799
3573.45243,0.16560
3575.38089,0.16259
3577.30936,0.15964
3579.23783,0.15624
3581.16630,0.15278
3583.09477,0.15373
3585.02324,0.16055
3586.95171,0.16642
3588.88017,0.16192
3590.80864,0.15735
3592.73711,0.15812
3594.66558,0.15881
3596.59405,0.15945
3598.52252,0.16084
3600.45099,0.16108
3602.37946,0.16102
3604.30792,0.16415
3606.23639,0.16965
3608.16486,0.16997
3610.09333,0.16613
3612.02180,0.16718
3613.95027,0.16991
3615.87874,0.16943
3617.80720,0.16578
3619.73567,0.15831
3621.66414,0.15192
3623.59261,0.14995
3625.52108,0.15269
3627.44955,0.15673
3629.37802,0.15482
3631.30649,0.15140
3633.23495,0.14845
3635.16342,0.14723
3637.09189,0.14956
3639.02036,0.14745
3640.94883,0.14206
3642.87730,0.14227
3644.80577,0.14828
3646.73423,0.16012
3648.66270,0.17216
3650.59117,0.16500
3652.51964,0.15411
3654.44811,0.15122
3656.37658,0.14771
3658.30505,0.14046
3660.23352,0.13655
3662.16198,0.13496
3664.09045,0.13407
3666.01892,0.13556
3667.94739,0.14019
3669.87586,0.14799
3671.80433,0.15164
3673.73280,0.14816
3675.66126,0.13858
3677.58973,0.13198
3679.51820,0.13136
3681.44667,0.13171
3683.37514,0.13394
3685.30361,0.13905
3687.23208,0.14774
3689.16055,0.15610
3691.08901,0.15228
3693.01748,0.14309
3694.94595,0.13900
3696.87442,0.13753
3698.80289,0.13419
3700.73136,0.13197
3702.65983,0.13497
3704.58829,0.13740
3706.51676,0.13510
3708.44523,0.13362
3710.37370,0.13795
3712.30217,0.14365
3714.23064,0.14281
3716.15911,0.13675
3718.08757,0.13259
3720.01604,0.13333
3721.94451,0.13374
3723.87298,0.13516
3725.80145,0.14022
3727.72992,0.14139
3729.65839,0.13938
3731.58686,0.14332
3733.51532,0.15387
3735.44379,0.15771
3737.37226,0.15386
3739.30073,0.15362
3741.22920,0.15559
3743.15767,0.15494
3745.08614,0.15307
3747.01460,0.15935
3748.94307,0.16814
3750.87154,0.16160
3752.80001,0.14112
3754.72848,0.12994
3756.65695,0.12951
3758.58542,0.13545
3760.51389,0.13789
3762.44235,0.13549
3764.37082,0.13504
3766.29929,0.13560
3768.22776,0.13558
3770.15623,0.13449
3772.08470,0.13005
3774.01317,0.12612
3775.94163,0.12615
3777.87010,0.13004
3779.79857,0.13338
3781.72704,0.13316
3783.65551,0.13217
3785.58398,0.12929
3787.51245,0.12591
3789.44092,0.12440
3791.36938,0.12277
3793.29785,0.12187
3795.22632,0.12387
3797.15479,0.13075
3799.08326,0.14315
3801.01173,0.15299
3802.94020,0.14673
3804.86866,0.13674
3806.79713,0.13199
3808.72560,0.12752
3810.65407,0.12216
3812.58254,0.12053
3814.51101,0.12657
3816.43948,0.13614
3818.36795,0.14040
3820.29641,0.14127
3822.22488,0.13806
3824.15335,0.13101
3826.08182,0.12408
3828.01029,0.12324
3829.93876,0.13111
3831.86723,0.13823
3833.79569,0.13662
3835.72416,0.13261
3837.65263,0.13284
3839.58110,0.13454
3841.50957,0.13399
3843.43804,0.13129
3845.36651,0.12849
3847.29498,0.12787
3849.22344,0.12907
3851.15191,0.13070
3853.08038,0.12969
3855.00885,0.12484
3856.93732,0.12199
3858.86579,0.12028
3860.79426,0.11781
3862.72272,0.11375
3864.65119,0.11059
3866.57966,0.11177
3868.50813,0.11823
3870.43660,0.12539
3872.36507,0.12265
3874.29354,0.11798
3876.22200,0.12115
3878.15047,0.12646
3880.07894,0.12533
3882.00741,0.12287
3883.93588,0.12991
3885.86435,0.13553
3887.79282,0.13308
3889.72129,0.13313
3891.64975,0.13212
3893.57822,0.12480
3895.50669,0.12233
3897.43516,0.12742
3899.36363,0.13273
3901.29210,0.13456
3903.22057,0.13301
3905.14903,0.12312
3907.07750,0.11371
3909.00597,0.11448
3910.93444,0.11864
3912.86291,0.11974
3914.79138,0.12174
3916.71985,0.12607
3918.64832,0.12656
3920.57678,0.11992
3922.50525,0.11247
3924.43372,0.10975
3926.36219,0.10917
3928.29066,0.11074
3930.21913,0.11561
3932.14760,0.11890
3934.07606,0.11824
3936.00453,0.11558
3937.93300,0.11205
3939.86147,0.11133
3941.78994,0.11596
3943.71841,0.12032
3945.64688,0.12144
3947.57535,0.12137
3949.50381,0.11562
3951.43228,0.10860
3953.36075,0.11042
3955.28922,0.11565
3957.21769,0.11795
3959.14616,0.11800
3961.07463,0.11396
3963.00309,0.10731
3964.93156,0.10421
3966.86003,0.10455
3968.78850,0.10526
3970.71697,0.10696
3972.64544,0.11011
3974.57391,0.11140
3976.50238,0.10676
3978.43084,0.10193
3980.35931,0.10666
3982.28778,0.11586
3984.21625,0.11583
3986.14472,0.10854
3988.07319,0.10823
3990.00166,0.11385
3991.93012,0.11151
3993.85859,0.10388
3995.78706,0.10209
3997.71553,0.10304
3999.64400,0.10258
4001.57247,0.10175
4003.50094,0.10175
4005.42941,0.10434
4007.35787,0.10584
4009.28634,0.10499
4011.21481,0.10625
4013.14328,0.11001
4015.07175,0.11135
4017.00022,0.10670
4018.92869,0.10061
4020.85715,0.09686
4022.78562,0.09442
4024.71409,0.09414
4026.64256,0.09585
4028.57103,0.09886
4030.49950,0.10340
4032.42797,0.10460
4034.35644,0.09980
4036.28490,0.09597
4038.21337,0.09720
4040.14184,0.09884
4042.07031,0.09811
4043.99878,0.09964
4045.92725,0.10442
4047.85572,0.10348
4049.78418,0.09425
4051.71265,0.09026
4053.64112,0.09763
4055.56959,0.10380
4057.49806,0.10310
4059.42653,0.10100
4061.35500,0.09855
4063.28346,0.09369
4065.21193,0.08996
4067.14040,0.09186
4069.06887,0.09688
4070.99734,0.10039
4072.92581,0.10010
4074.85428,0.09728
4076.78275,0.09366
4078.71121,0.09122
4080.63968,0.08975
4082.56815,0.08633
4084.49662,0.08495
4086.42509,0.08609
4088.35356,0.08558
4090.28203,0.08695
4092.21049,0.09151
4094.13896,0.09395
4096.06743,0.09478
4097.99590,0.09739
4099.92437,0.09657
4101.85284,0.08881
4103.78131,0.08257
4105.70978,0.08564
4107.63824,0.09069
4109.56671,0.08863
4111.49518,0.08528
4113.42365,0.08557
4115.35212,0.08582
4117.28059,0.08591
4119.20906,0.08684
4121.13752,0.08699
4123.06599,0.08706
4124.99446,0.08896
4126.92293,0.09070
4128.85140,0.08667
4130.77987,0.07784
4132.70834,0.07464
4134.63681,0.08080
4136.56527,0.08818
4138.49374,0.09022
4140.42221,0.08806
4142.35068,0.08690
4144.27915,0.08993
4146.20762,0.09651
4148.13609,0.10091
4150.06455,0.09751
4151.99302,0.09092
4153.92149,0.08779
4155.84996,0.08607
4157.77843,0.08095
4159.70690,0.07704
4161.63537,0.08037
4163.56384,0.08346
4165.49230,0.08161
4167.42077,0.08053
4169.34924,0.08190
4171.27771,0.08383
4173.20618,0.08619
4175.13465,0.08620
4177.06312,0.08354
4178.99158,0.08557
4180.92005,0.09079
4182.84852,0.08875
4184.77699,0.07859
4186.70546,0.06965
4188.63393,0.06980
4190.56240,0.07616
4192.49087,0.07966
4194.41933,0.07788
4196.34780,0.07485
4198.27627,0.07365
4200.20474,0.07561
4202.13321,0.07874
4204.06168,0.07987
4205.99015,0.08054
4207.91861,0.08332
4209.84708,0.08478
4211.77555,0.08049
4213.70402,0.07471
4215.63249,0.07365
4217.56096,0.07750
4219.48943,0.08114
4221.41789,0.08078
4223.34636,0.07933
4225.27483,0.08028
4227.20330,0.08307
4229.13177,0.08220
4231.06024,0.07679
4232.98871,0.07397
4234.91718,0.07223
4236.84564,0.06795
4238.77411,0.06582
4240.70258,0.06765
4242.63105,0.07111
4244.55952,0.07254
4246.48799,0.06994
4248.41646,0.06853
4250.34492,0.07279
4252.27339,0.07988
4254.20186,0.08435
4256.13033,0.08013
4258.05880,0.06814
4259.98727,0.05951
4261.91574,0.05811
4263.84421,0.05738
4265.77267,0.05639
4267.70114,0.05727
4269.62961,0.05739
4271.55808,0.05784
4273.48655,0.06565
4275.41502,0.07790
4277.34349,0.08247
4279.27195,0.07706
4281.20042,0.07097
4283.12889,0.06981
4285.05736,0.06805
4286.98583,0.06182
4288.91430,0.05367
4290.84277,0.04923
4292.77124,0.05280
4294.69970,0.05860
4296.62817,0.06216
4298.55664,0.06258
4300.48511,0.05894
4302.41358,0.05678
4304.34205,0.05632
4306.27052,0.05542
4308.19898,0.05989
4310.12745,0.06675
4312.05592,0.06528
4313.98439,0.05656
4315.91286,0.05126
4317.84133,0.05235
4319.76980,0.05217
4321.69827,0.04824
4323.62673,0.04552
4325.55520,0.04718
4327.48367,0.05003
4329.41214,0.05108
4331.34061,0.05630
4333.26908,0.06218
4335.19755,0.06055
4337.12601,0.05684
4339.05448,0.05195
4340.98295,0.04609
4342.91142,0.04273
4344.83989,0.03968
4346.76836,0.03840
4348.69683,0.03938
4350.62530,0.04417
4352.55376,0.05446
4354.48223,0.06190
4356.41070,0.06171
4358.33917,0.05708
4360.26764,0.05433
4362.19611,0.05764
4364.12458,0.05881
4366.05304,0.05409
4367.98151,0.05199
4369.90998,0.05139
4371.83845,0.04882
4373.76692,0.04763
4375.69539,0.04707
4377.62386,0.04445
4379.55232,0.03794
4381.48079,0.03138
4383.40926,0.03232
4385.33773,0.03679
4387.26620,0.03984
4389.19467,0.04506
4391.12314,0.04751
4393.05161,0.03951
4394.98007,0.03055
4396.90854,0.03169
4398.83701,0.03823
4400.76548,0.04198
4402.69395,0.04053
4404.62242,0.03672
4406.55089,0.03768
4408.47935,0.04067
4410.40782,0.03636
4412.33629,0.03155
4414.26476,0.03274
4416.19323,0.03275
4418.12170,0.02896
4420.05017,0.02898
4421.97864,0.03673
4423.90710,0.04389
4425.83557,0.04543
4427.76404,0.04007
4429.69251,0.03155
4431.62098,0.03677
4433.54945,0.05477
4435.47792,0.06179
4437.40638,0.05203
4439.33485,0.03841
4441.26332,0.02997
4443.19179,0.03152
4445.12026,0.03653
4447.04873,0.03669
4448.97720,0.03989
4450.90567,0.04778
4452.83413,0.04810
4454.76260,0.03608
4456.69107,0.02482
4458.61954,0.02809
4460.54801,0.04097
4462.47648,0.04867
4464.40495,0.04471
4466.33341,0.03605
4468.26188,0.03149
4470.19035,0.03235
4472.11882,0.03218
4474.04729,0.02909
4475.97576,0.03196
4477.90423,0.03936
4479.83270,0.03737
4481.76116,0.02234
4483.68963,0.00984
4485.61810,0.01321
4487.54657,0.02335
4489.47504,0.02975
4491.40351,0.03232
4493.33198,0.02775
4495.26044,0.02077
4497.18891,0.02247
4499.11738,0.02510
4501.04585,0.02044
4502.97432,0.01732
4504.90279,0.02021
4506.83126,0.02772
4508.75973,0.03525
4510.68819,0.03605
4512.61666,0.03074
4514.54513,0.02030
4516.47360,0.01219
4518.40207,0.01555
4520.33054,0.02119
4522.25901,0.02142
4524.18747,0.02225
4526.11594,0.02531
4528.04441,0.02205
4529.97288,0.01593
4531.90135,0.01943
4533.82982,0.02392
4535.75829,0.02330
4537.68676,0.02559
4539.61522,0.02816
4541.54369,0.02878
4543.47216,0.02798
4545.40063,0.02182
4547.32910,0.01875
4549.25757,0.02243
4551.18604,0.02269
4553.11450,0.02156
4555.04297,0.01876
4556.97144,0.01243
4558.89991,0.01061
4560.82838,0.01096
4562.75685,0.01114
4564.68532,0.01410
4566.61378,0.01683
4568.54225,0.01747
4570.47072,0.01835
4572.39919,0.02134
4574.32766,0.02584
4576.25613,0.02791
4578.18460,0.02612
4580.11307,0.02322
4582.04153,0.01991
4583.97000,0.01682
4585.89847,0.01326
4587.82694,0.00842
4589.75541,0.00443
4591.68388,0.00144
4593.61235,0.00234
4595.54081,0.00904
4597.46928,0.01263
4599.39775,0.00833
4601.32622,0.00586
4603.25469,0.01107
4605.18316,0.01640
4607.11163,0.01479
4609.04010,0.01048
4610.96856,0.00921
4612.89703,0.01256
4614.82550,0.01780
4616.75397,0.01468
4618.68244,0.00445
4620.61091,0.00198
4622.53938,0.00916
4624.46784,0.01770
4626.39631,0.02068
4628.32478,0.01791
4630.25325,0.01646
4632.18172,0.01601
4634.11019,0.01386
4636.03866,0.01572
4637.96713,0.01911
4639.89559,0.01472
4641.82406,0.00625
4643.75253,0.00390
4645.68100,0.00516
4647.60947,0.00360
4649.53794,0.00308
4651.46641,0.00288
4653.39487,0.00136
4655.32334,0.00697
4657.25181,0.01551
4659.18028,0.01315
4661.10875,0.00493
4663.03722,0.00521
4664.96569,0.01279
4666.89416,0.02047
4668.82262,0.02842
4670.75109,0.03110
4672.67956,0.02009
4674.60803,0.00317
4676.53650,-0.00282
4678.46497,0.00594
4680.39344,0.01635
4682.32190,0.01610
4684.25037,0.01298
4686.17884,0.02020
4688.10731,0.02493
4690.03578,0.01356
4691.96425,0.00006
4693.89272,0.00128
4695.82119,0.01855
4697.74965,0.03236
4699.67812,0.02641
4701.60659,0.01260
4703.53506,0.00719
4705.46353,0.00918
4707.39200,0.00956
4709.32047,0.00481
4711.24893,-0.00434
4713.17740,-0.01080
4715.10587,-0.00588
4717.03434,0.00991
4718.96281,0.02841
4720.89128,0.03379
4722.81975,0.02032
4724.74821,0.00505
4726.67668,0.00149
4728.60515,0.00279
4730.53362,0.00232
4732.46209,0.00813
4734.39056,0.02621
4736.31903,0.04408
4738.24750,0.04473
4740.17596,0.03495
4742.10443,0.03275
4744.03290,0.03375
4745.96137,0.02499
4747.88984,0.01346
4749.81831,0.00785
4751.74678,0.00261
4753.67524,0.00263
4755.60371,0.01295
4757.53218,0.01743
4759.46065,0.01076
4761.38912,0.01375
4763.31759,0.02977
4765.24606,0.03410
4767.17453,0.01959
4769.10299,0.00156
4771.03146,-0.00773
4772.95993,-0.00387
4774.88840,0.00441
4776.81687,0.00862
4778.74534,0.01533
4780.67381,0.02113
4782.60227,0.01615
4784.53074,0.01199
4786.45921,0.01672
4788.38768,0.01687
4790.31615,0.00813
4792.24462,-0.00155
4794.17309,-0.01027
4796.10156,-0.01017
4798.03002,0.00054
4799.95849,0.00982
4801.88696,0.01628
4803.81543,0.01925
4805.74390,0.01632
4807.67237,0.01427
4809.60084,0.01412
4811.52930,0.01386
4813.45777,0.01314
4815.38624,0.00852
4817.31471,0.00603
4819.24318,0.01298
4821.17165,0.01931
4823.10012,0.01631
4825.02859,0.00870
4826.95705,-0.00506
4828.88552,-0.02158
4830.81399,-0.02700
4832.74246,-0.02087
4834.67093,-0.01245
4836.59940,-0.01073
4838.52787,-0.01245
4840.45633,-0.00683
4842.38480,-0.00218
4844.31327,-0.00754
4846.24174,-0.01341
4848.17021,-0.01310
4850.09868,-0.01030
4852.02715,-0.00324
4853.95562,0.01041
4855.88408,0.02101
4857.81255,0.01854
4859.74102,0.00548
4861.66949,-0.00566
4863.59796,-0.00525
4865.52643,0.00396
4867.45490,0.01084
4869.38336,0.01232
4871.31183,0.01191
4873.24030,0.01033
4875.16877,0.01238
4877.09724,0.01433
4879.02571,0.00602
4880.95418,0.00018
4882.88265,0.00385
4884.81111,0.00256
4886.73958,0.00205
4888.66805,0.00953
4890.59652,0.01420
4892.52499,0.01686
4894.45346,0.01906
4896.38193,0.02053
4898.31039,0.02112
4900.23886,0.01239
4902.16733,0.00209
4904.09580,0.00868
4906.02427,0.02599
4907.95274,0.03051
4909.88121,0.02032
4911.80967,0.00680
4913.73814,-0.00500
4915.66661,-0.00661
4917.59508,0.00090
4919.52355,0.00429
4921.45202,0.00468
4923.38049,0.01282
4925.30896,0.02000
4927.23742,0.01120
4929.16589,-0.00247
4931.09436,-0.00643
4933.02283,-0.00276
4934.95130,0.00700
4936.87977,0.02030
4938.80824,0.02443
4940.73670,0.01448
4942.66517,0.00379
4944.59364,0.00150
4946.52211,-0.00103
4948.45058,-0.00681
4950.37905,-0.00653
4952.30752,-0.00402
4954.23599,-0.00653
4956.16445,-0.00351
4958.09292,0.01175
4960.02139,0.02905
4961.94986,0.03275
4963.87833,0.02302
4965.80680,0.01449
4967.73527,0.00873
4969.66373,0.00811
4971.59220,0.01840
4973.52067,0.02487
4975.44914,0.01562
4977.37761,-0.00096
4979.30608,-0.00878
4981.23455,0.00285
4983.16302,0.02225
4985.09148,0.02962
4987.01995,0.02996
4988.94842,0.03109
4990.87689,0.02354
4992.80536,0.01395
4994.73383,0.01906
4996.66230,0.03303
4998.59076,0.03479
5000.51923,0.01984
5002.44770,-0.00024
5004.37617,-0.01984
5006.30464,-0.02606
5008.23311,-0.00915
5010.16158,0.01655
5012.09005,0.03197
5014.01851,0.03238
5015.94698,0.02716
5017.87545,0.02744
5019.80392,0.02924
5021.73239,0.02604
5023.66086,0.02429
5025.58933,0.01246
5027.51779,-0.01083
5029.44626,-0.01160
5031.37473,0.00113
5033.30320,-0.00213
5035.23167,-0.00403
5037.16014,0.01093
5039.08861,0.03523
5041.01708,0.05468
5042.94554,0.04692
5044.87401,0.01453
5046.80248,-0.00478
5048.73095,0.00971
5050.65942,0.02990
5052.58789,0.03192
5054.51636,0.02466
5056.44482,0.01116
5058.37329,0.00036
5060.30176,0.00790
5062.23023,0.02294
5064.15870,0.03313
5066.08717,0.04793
5068.01564,0.06360
5069.94410,0.05685
5071.87257,0.03150
5073.80104,0.01145
5075.72951,0.00783
5077.65798,0.01381
5079.58645,0.01809
5081.51492,0.02361
5083.44339,0.03511
5085.37185,0.04315
5087.30032,0.03378
5089.22879,0.01242
5091.15726,-0.00454
5093.08573,-0.00641
5095.01420,0.00255
5096.94267,0.00330
5098.87113,-0.00146
5100.79960,0.00442
5102.72807,0.01925
5104.65654,0.03694
5106.58501,0.04835
5108.51348,0.04638
5110.44195,0.04271
5112.37042,0.04317
5114.29888,0.03807
5116.22735,0.02573
5118.15582,0.01352
5120.08429,0.01024
5122.01276,0.01321
5123.94123,0.01793
5125.86970,0.02760
5127.79816,0.03888
5129.72663,0.04622
5131.65510,0.04754
5133.58357,0.04517
5135.51204,0.04300
5137.44051,0.04094
5139.36898,0.03853
5141.29745,0.03774
5143.22591,0.04120
5145.15438,0.04166
5147.08285,0.03062
5149.01132,0.01972
5150.93979,0.02545
5152.86826,0.03920
5154.79673,0.04427
5156.72519,0.04769
5158.65366,0.05800
5160.58213,0.06293
5162.51060,0.05380
5164.43907,0.03670
5166.36754,0.02698
5168.29601,0.03359
5170.22448,0.04720
5172.15294,0.05310
5174.08141,0.04638
5176.00988,0.03442
5177.93835,0.02240
5179.86682,0.01264
5181.79529,0.01401
5183.72376,0.02436
5185.65222,0.03860
5187.58069,0.05448
5189.50916,0.06199
5191.43763,0.05757
5193.36610,0.04782
5195.29457,0.03438
5197.22304,0.02019
5199.15151,0.01918
5201.07997,0.02262
5203.00844,0.01899
5204.93691,0.02230
5206.86538,0.03471
5208.79385,0.05223
5210.72232,0.07480
5212.65079,0.08291
5214.57925,0.07061
5216.50772,0.06187
5218.43619,0.06106
5220.36466,0.05157
5222.29313,0.04866
5224.22160,0.05962
5226.15007,0.05399
5228.07854,0.03068
5230.00700,0.01817
5231.93547,0.02668
5233.86394,0.05048
5235.79241,0.06825
5237.72088,0.07019
5239.64935,0.07012
5241.57782,0.06676
5243.50628,0.04785
5245.43475,0.02789
5247.36322,0.02561
5249.29169,0.03617
5251.22016,0.04735
5253.14863,0.04896
5255.07710,0.04310
5257.00556,0.05194
5258.93403,0.07321
5260.86250,0.07704
5262.79097,0.06921
5264.71944,0.06945
5266.64791,0.06909
5268.57638,0.06740
5270.50485,0.06423
5272.43331,0.05753
5274.36178,0.04268
5276.29025,0.01588
5278.21872,0.00369
5280.14719,0.01925
5282.07566,0.03591
5284.00413,0.03276
5285.93259,0.01530
5287.86106,0.01262
5289.78953,0.03360
5291.71800,0.04671
5293.64647,0.04253
5295.57494,0.03895
5297.50341,0.03093
5299.43188,0.01483
5301.36034,0.01456
5303.28881,0.04424
5305.21728,0.07900
5307.14575,0.08752
5309.07422,0.07156
5311.00269,0.06056
5312.93116,0.06612
5314.85962,0.08207
5316.78809,0.09385
5318.71656,0.09197
5320.64503,0.08997
5322.57350,0.08638
5324.50197,0.06716
5326.43044,0.04022
5328.35891,0.02210
5330.28737,0.01884
5332.21584,0.02248
5334.14431,0.03088
5336.07278,0.04794
5338.00125,0.06042
5339.92972,0.05849
5341.85819,0.05835
5343.78665,0.06982
5345.71512,0.08203
5347.64359,0.07559
5349.57206,0.06637
5351.50053,0.08891
5353.42900,0.11939
5355.35747,0.10654
5357.28594,0.08134
5359.21440,0.07228
5361.14287,0.06051
5363.07134,0.04800
5364.99981,0.05501
5366.92828,0.06796
5368.85675,0.06169
5370.78522,0.04451
5372.71368,0.03299
5374.64215,0.02406
5376.57062,0.02322
5378.49909,0.04174
5380.42756,0.06493
5382.35603,0.07151
5384.28450,0.06380
5386.21297,0.06759
5388.14143,0.08268
5390.06990,0.07519
5391.99837,0.03290
5393.92684,0.00734
5395.85531,0.04181
5397.78378,0.08473
5399.71225,0.09510
5401.64071,0.08891
5403.56918,0.08595
5405.49765,0.08134
5407.42612,0.07167
5409.35459,0.05688
5411.28306,0.03784
5413.21153,0.02916
5415.13999,0.03407
5417.06846,0.04413
5418.99693,0.05748
5420.92540,0.06978
5422.85387,0.07207
5424.78234,0.06469
5426.71081,0.06002
5428.63928,0.05848
5430.56774,0.04633
5432.49621,0.02459
5434.42468,0.00622
5436.35315,0.01375
5438.28162,0.04235
5440.21009,0.05853
5442.13856,0.05923
5444.06702,0.06183
5445.99549,0.05875
5447.92396,0.05052
5449.85243,0.06017
5451.78090,0.07789
5453.70937,0.07882
5455.63784,0.06013
5457.56631,0.03155
5459.49477,0.01557
5461.42324,0.01068
5463.35171,0.00998
5465.28018,0.03163
5467.20865,0.06997
5469.13712,0.10074
5471.06559,0.11300
5472.99405,0.10704
5474.92252,0.09593
5476.85099,0.09805
5478.77946,0.09684
5480.70793,0.08415
5482.63640,0.08365
5484.56487,0.10171
5486.49334,0.11335
5488.42180,0.10003
5490.35027,0.08092
5492.27874,0.06689
5494.20721,0.04577
5496.13568,0.02285
5498.06415,0.01010
5499.99262,0.01622
5501.92108,0.03625
5503.84955,0.05224
5505.77802,0.06209
5507.70649,0.06349
5509.63496,0.04475
5511.56343,0.03552
5513.49190,0.05969
5515.42037,0.08236
5517.34883,0.06027
5519.27730,0.01149
5521.20577,-0.00425
5523.13424,0.01849
5525.06271,0.04960
5526.99118,0.06484
5528.91965,0.06518
5530.84811,0.07431
5532.77658,0.08260
5534.70505,0.07765
5536.63352,0.06757
5538.56199,0.06049
5540.49046,0.06094
5542.41893,0.07654
5544.34740,0.10277
5546.27586,0.10182
5548.20433,0.07143
5550.13280,0.05355
5552.06127,0.04790
5553.98974,0.03431
5555.91821,0.02017
5557.84668,0.01901
5559.77514,0.03093
5561.70361,0.04662
5563.63208,0.05668
5565.56055,0.06044
5567.48902,0.06627
5569.41749,0.07519
5571.34596,0.07853
5573.27443,0.07435
5575.20289,0.07143
5577.13136,0.09477
5579.05983,0.13825
5580.98830,0.14452
5582.91677,0.10891
5584.84524,0.08819
5586.77371,0.08264
5588.70217,0.07631
5590.63064,0.08068
5592.55911,0.07378
5594.48758,0.04462
5596.41605,0.02943
5598.34452,0.04122
5600.27299,0.05959
5602.20145,0.07240
5604.12992,0.07607
5606.05839,0.06345
5607.98686,0.04234
5609.91533,0.02824
5611.84380,0.02914
5613.77227,0.05631
5615.70074,0.10284
5617.62920,0.12935
5619.55767,0.11740
5621.48614,0.10507
5623.41461,0.10289
5625.34308,0.07305
5627.27155,0.03300
5629.20002,0.03549
5631.12848,0.07039
5633.05695,0.09287
5634.98542,0.09274
5636.91389,0.09952
5638.84236,0.11233
5640.77083,0.11264
5642.69930,0.11353
5644.62777,0.11987
5646.55623,0.12118
5648.48470,0.10824
5650.41317,0.09408
5652.34164,0.09778
5654.27011,0.10159
5656.19858,0.09322
5658.12705,0.08149
5660.05551,0.07578
5661.98398,0.07633
5663.91245,0.06848
5665.84092,0.05811
5667.76939,0.05674
5669.69786,0.05748
5671.62633,0.06921
5673.55480,0.09657
5675.48326,0.12243
5677.41173,0.13872
5679.34020,0.14063
5681.26867,0.12232
5683.19714,0.09958
5685.12561,0.10086
5687.05408,0.11381
5688.98254,0.09408
5690.91101,0.05650
5692.83948,0.06489
5694.76795,0.11543
5696.69642,0.13214
5698.62489,0.08936
5700.55336,0.04240
5702.48183,0.02723
5704.41029,0.02713
5706.33876,0.03266
5708.26723,0.05812
5710.19570,0.09107
5712.12417,0.10022
5714.05264,0.08471
5715.98111,0.07286
5717.90957,0.06729
5719.83804,0.06497
5721.76651,0.08229
5723.69498,0.09170
5725.62345,0.07264
5727.55192,0.05479
5729.48039,0.04873
5731.40886,0.04969
5733.33732,0.05277
5735.26579,0.05246
5737.19426,0.07000
5739.12273,0.09929
5741.05120,0.10234
5742.97967,0.07696
5744.90814,0.04591
5746.83660,0.03677
5748.76507,0.05100
5750.69354,0.06371
5752.62201,0.06088
5754.55048,0.04807
5756.47895,0.05403
5758.40742,0.07545
5760.33588,0.05990
5762.26435,0.01612
5764.19282,0.01622
5766.12129,0.04386
5768.04976,0.04893
5769.97823,0.04896
5771.90670,0.05499
5773.83517,0.05621
5775.76363,0.04565
5777.69210,0.04571
5779.62057,0.07544
5781.54904,0.08918
5783.47751,0.07357
5785.40598,0.06306
5787.33445,0.06000
5789.26291,0.06117
5791.19138,0.06864
5793.11985,0.07648
5795.04832,0.07910
5796.97679,0.07873
5798.90526,0.07335
5800.83373,0.05219
5802.76220,0.04200
5804.69066,0.06142
5806.61913,0.06706
5808.54760,0.04049
5810.47607,0.01145
5812.40454,0.02183
5814.33301,0.07720
5816.26148,0.10985
5818.18994,0.08912
5820.11841,0.07453
5822.04688,0.09999
5823.97535,0.13009
5825.90382,0.11646
5827.83229,0.04842
5829.76076,-0.00867
5831.68923,0.01283
5833.61769,0.06676
5835.54616,0.07379
5837.47463,0.06632
5839.40310,0.10362
5841.33157,0.14232
5843.26004,0.12195
5845.18851,0.08101
5847.11697,0.06867
5849.04544,0.07089
5850.97391,0.08136
5852.90238,0.10491
5854.83085,0.12328
5856.75932,0.12760
5858.68779,0.11843
5860.61626,0.09724
5862.54472,0.09111
5864.47319,0.10497
5866.40166,0.08872
5868.33013,0.03658
5870.25860,0.00377
5872.18707,0.01289
5874.11554,0.05229
5876.04400,0.09703
5877.97247,0.11266
5879.90094,0.08996
5881.82941,0.04839
5883.75788,0.03111
5885.68635,0.04449
5887.61482,0.04172
5889.54329,0.02938
5891.47175,0.04201
5893.40022,0.05261
5895.32869,0.04811
5897.25716,0.07278
5899.18563,0.11226
5901.11410,0.10906
5903.04257,0.08209
5904.97103,0.07164
5906.89950,0.07728
5908.82797,0.08926
5910.75644,0.10544
5912.68491,0.10975
5914.61338,0.10322
5916.54185,0.10724
5918.47032,0.09198
5920.39878,0.05285
5922.32725,0.03531
5924.25572,0.05348
5926.18419,0.07761
5928.11266,0.08150
5930.04113,0.08312
5931.96960,0.08144
5933.89806,0.05886
5935.82653,0.05159
5937.75500,0.09758
5939.68347,0.14262
5941.61194,0.11235
5943.54041,0.04827
5945.46888,0.02262
5947.39734,0.01939
5949.32581,0.05108
5951.25428,0.13569
5953.18275,0.16383
5955.11122,0.09852
5957.03969,0.04851
5958.96816,0.04186
5960.89663,0.03859
5962.82509,0.05167
5964.75356,0.08440
5966.68203,0.11883
5968.61050,0.14180
5970.53897,0.13393
5972.46744,0.11682
5974.39591,0.11308
5976.32437,0.09941
5978.25284,0.07006
5980.18131,0.04692
5982.10978,0.06190
5984.03825,0.08966
5985.96672,0.06494
5987.89519,0.03166
5989.82366,0.05110
5991.75212,0.06861
5993.68059,0.05799
5995.60906,0.05518
5997.53753,0.04703
5999.46600,0.02511
6001.39447,0.03161
6003.32294,0.09010
6005.25140,0.15671
6007.17987,0.15986
6009.10834,0.11039
6011.03681,0.07483
6012.96528,0.06002
6014.89375,0.02569
6016.82222,-0.01986
6018.75069,-0.00572
6020.67915,0.07431
6022.60762,0.12920
6024.53609,0.12276
6026.46456,0.08326
6028.39303,0.01347
6030.32150,-0.06165
6032.24997,-0.06879
6034.17843,-0.00608
6036.10690,0.04175
6038.03537,0.04644
6039.96384,0.04771
6041.89231,0.01600
6043.82078,-0.05481
6045.74925,-0.06482
6047.67772,0.00699
6049.60618,0.07981
6051.53465,0.08334
6053.46312,0.02973
6055.39159,0.01372
6057.32006,0.08065
6059.24853,0.15205
6061.17700,0.16289
6063.10546,0.11622
6065.03393,0.07740
6066.96240,0.09202
6068.89087,0.10337
6070.81934,0.07632
6072.74781,0.07900
6074.67628,0.13196
6076.60475,0.14661
6078.53321,0.10072
6080.46168,0.07625
6082.39015,0.08364
6084.31862,0.07066
6086.24709,0.05362
6088.17556,0.06320
6090.10403,0.07229
6092.03249,0.08812
6093.96096,0.11031
6095.88943,0.08570
6097.81790,0.04906
6099.74637,0.06355
6101.67484,0.11551
6103.60331,0.16086
6105.53177,0.16711
6107.46024,0.15216
6109.38871,0.14328
6111.31718,0.11999
6113.24565,0.08437
6115.17412,0.07301
6117.10259,0.08361
6119.03106,0.07965
6120.95952,0.06924
6122.88799,0.09286
6124.81646,0.11964
6126.74493,0.09943
6128.67340,0.05859
6130.60187,0.04456
6132.53034,0.06697
6134.45880,0.11262
6136.38727,0.14450
6138.31574,0.13111
6140.24421,0.08928
6142.17268,0.05063
6144.10115,0.04651
6146.02962,0.07404
6147.95809,0.08795
6149.88655,0.11012
6151.81502,0.14876
6153.74349,0.15466
6155.67196,0.15773
6157.60043,0.17919
6159.52890,0.19573
6161.45737,0.21209
6163.38583,0.19920
6165.31430,0.11959
6167.24277,0.02568
6169.17124,-0.02244
6171.09971,-0.03067
6173.02818,-0.01186
6174.95665,0.04298
6176.88512,0.08531
6178.81358,0.08406
6180.74205,0.10619
6182.67052,0.15910
6184.59899,0.17650
6186.52746,0.13724
6188.45593,0.09939
6190.38440,0.09656
6192.31286,0.09153
6194.24133,0.08535
6196.16980,0.05613
6198.09827,-0.01374
6200.02674,-0.03921
6201.95521,0.01326
6203.88368,0.06536
6205.81215,0.09836
6207.74061,0.12888
6209.66908,0.10928
6211.59755,0.07200
6213.52602,0.08600
6215.45449,0.10396
6217.38296,0.06228
6219.31143,0.00716
6221.23989,0.00552
6223.16836,0.03661
6225.09683,0.04968
6227.02530,0.04050
6228.95377,0.05236
6230.88224,0.07166
6232.81071,0.06100
6234.73918,0.03746
6236.66764,0.00322
6238.59611,-0.01876
6240.52458,0.01002
6242.45305,0.07049
6244.38152,0.07737
6246.30999,0.00737
6248.23846,-0.01095
6250.16692,0.08736
6252.09539,0.18164
6254.02386,0.18692
6255.95233,0.14777
6257.88080,0.08826
6259.80927,0.01958
6261.73774,-0.03084
6263.66621,-0.05994
6265.59467,-0.03362
6267.52314,0.02984
6269.45161,0.03895
6271.38008,0.04083
6273.30855,0.10784
6275.23702,0.17042
6277.16549,0.14930
6279.09395,0.09810
6281.02242,0.07825
6282.95089,0.07984
6284.87936,0.08499
6286.80783,0.09671
6288.73630,0.10410
6290.66477,0.09053
6292.59323,0.05864
6294.52170,0.02302
6296.45017,0.02854
6298.37864,0.08942
6300.30711,0.15628
6302.23558,0.19895
6304.16405,0.19535
6306.09252,0.17194
6308.02098,0.18518
6309.94945,0.17561
6311.87792,0.10070
6313.80639,0.04089
6315.73486,0.02916
6317.66333,0.05772
6319.59180,0.14192
6321.52026,0.21214
6323.44873,0.17730
6325.37720,0.10100
6327.30567,0.04893
6329.23414,0.03286
6331.16261,0.07553
6333.09108,0.12798
6335.01955,0.12552
6336.94801,0.11754
6338.87648,0.15532
6340.80495,0.15901
6342.73342,0.09135
6344.66189,0.04115
6346.59036,0.05600
6348.51883,0.11413
6350.44729,0.16158
6352.37576,0.15528
6354.30423,0.12376
6356.23270,0.07305
6358.16117,0.00301
6360.08964,-0.02743
6362.01811,0.03839
6363.94658,0.16541
6365.87504,0.20514
6367.80351,0.10255
6369.73198,0.02996
6371.66045,0.07524
6373.58892,0.13922
6375.51739,0.14738
6377.44586,0.12040
6379.37432,0.06386
6381.30279,-0.01223
6383.23126,-0.03137
6385.15973,0.04707
6387.08820,0.13446
6389.01667,0.19812
6390.94514,0.26441
6392.87361,0.29208
6394.80207,0.23658
6396.73054,0.15180
6398.65901,0.09109
6400.58748,0.06318
6402.51595,0.06618
6404.44442,0.10411
6406.37289,0.13260
6408.30135,0.11143
6410.22982,0.09478
6412.15829,0.07552
6414.08676,0.03098
6416.01523,0.05241
6417.94370,0.13705
6419.87217,0.15376
6421.80064,0.10332
6423.72910,0.07468
6425.65757,0.09223
6427.58604,0.09769
6429.51451,0.06177
6431.44298,0.03635
6433.37145,0.04031
6435.29992,0.04297
6437.22838,0.02912
6439.15685,0.01481
6441.08532,0.01348
6443.01379,0.01372
6444.94226,0.02172
6446.87073,0.04893
6448.79920,0.08100
6450.72766,0.11907
6452.65613,0.16494
6454.58460,0.20453
6456.51307,0.22934
6458.44154,0.18926
6460.37001,0.09405
6462.29848,0.05215
6464.22695,0.09007
6466.15541,0.14661
6468.08388,0.15351
6470.01235,0.09870
6471.94082,0.06270
6473.86929,0.05174
6475.79776,0.03673
6477.72623,0.03295
6479.65469,0.05011
6481.58316,0.10581
6483.51163,0.14967
6485.44010,0.12468
6487.36857,0.06583
6489.29704,0.03064
6491.22551,0.04050
6493.15398,0.06385
6495.08244,0.05130
6497.01091,0.01841
6498.93938,0.03143
6500.86785,0.10230
6502.79632,0.15483
6504.72479,0.14310
6506.65326,0.11326
6508.58172,0.11768
6510.51019,0.11902
6512.43866,0.06979
6514.36713,0.03559
6516.29560,0.06590
6518.22407,0.10836
6520.15254,0.10583
6522.08101,0.07674
6524.00947,0.07520
6525.93794,0.10053
6527.86641,0.10579
6529.79488,0.11083
6531.72335,0.13409
6533.65182,0.10793
6535.58029,0.02808
6537.50875,-0.01939
6539.43722,-0.02573
6541.36569,-0.03740
6543.29416,-0.05991
6545.22263,-0.03961
6547.15110,0.05936
6549.07957,0.18350
6551.00804,0.23505
6552.93650,0.20070
6554.86497,0.14875
6556.79344,0.08614
6558.72191,-0.01414
6560.65038,-0.08643
6562.57885,-0.10141
6564.50732,-0.14886
6566.43578,-0.16642
6568.36425,-0.01775
6570.29272,0.16407
6572.22119,0.20599
6574.14966,0.13858
6576.07813,0.05594
6578.00660,-0.01707
6579.93507,-0.07596
6581.86353,-0.06452
6583.79200,0.03819
6585.72047,0.13466
6587.64894,0.12410
6589.57741,0.04950
6591.50588,0.02348
6593.43435,0.02915
6595.36281,0.02797
6597.29128,0.04088
6599.21975,0.06752
6601.14822,0.10985
6603.07669,0.13815
6605.00516,0.13561
6606.93363,0.10411
6608.86210,0.08088
6610.79056,0.14003
6612.71903,0.20338
6614.64750,0.17852
6616.57597,0.13318
6618.50444,0.08440
6620.43291,0.05483
6622.36138,0.08055
6624.28984,0.09551
6626.21831,0.09529
6628.14678,0.11132
6630.07525,0.13433
6632.00372,0.15052
6633.93219,0.12304
6635.86066,0.09637
6637.78912,0.10054
6639.71759,0.10631
6641.64606,0.13193
6643.57453,0.12502
6645.50300,0.07215
6647.43147,0.04381
6649.35994,0.01538
6651.28841,-0.03138
6653.21687,-0.04831
6655.14534,-0.00754
6657.07381,0.10058
6659.00228,0.24548
6660.93075,0.30504
6662.85922,0.21249
6664.78769,0.08608
6666.71615,0.06774
6668.64462,0.13457
6670.57309,0.15118
6672.50156,0.09870
6674.43003,0.06805
6676.35850,0.10254
6678.28697,0.14862
6680.21544,0.08988
6682.14390,-0.03900
6684.07237,-0.07674
6686.00084,-0.05011
6687.92931,-0.07708
6689.85778,-0.09731
6691.78625,-0.02481
6693.71472,0.07799
6695.64318,0.11500
6697.57165,0.07871
6699.50012,0.05543
6701.42859,0.04169
6703.35706,0.00554
6705.28553,0.02415
6707.21400,0.09336
6709.14247,0.08312
6711.07093,-0.00593
6712.99940,-0.08656
6714.92787,-0.07550
6716.85634,0.03829
6718.78481,0.11262
6720.71328,0.09538
6722.64175,0.11287
6724.57021,0.17590
6726.49868,0.17205
6728.42715,0.11295
6730.35562,0.07583
6732.28409,0.06370
6734.21256,0.05694
6736.14103,0.02547
6738.06950,-0.02254
6739.99796,-0.02004
6741.92643,0.01705
6743.85490,0.05853
6745.78337,0.11377
6747.71184,0.12186
6749.64031,0.11623
6751.56878,0.17418
6753.49724,0.17533
6755.42571,0.05906
6757.35418,-0.05013
6759.28265,-0.04763
6761.21112,0.04643
6763.13959,0.10098
6765.06806,0.10635
6766.99653,0.11252
6768.92499,0.10271
6770.85346,0.05238
6772.78193,-0.00085
6774.71040,0.00044
6776.63887,0.05214
6778.56734,0.05731
6780.49581,-0.00603
6782.42427,-0.03450
6784.35274,-0.03264
6786.28121,-0.05800
6788.20968,-0.02911
6790.13815,0.08612
6792.06662,0.14149
6793.99509,0.05858
6795.92355,-0.00339
6797.85202,0.05036
6799.78049,0.08644
6801.70896,0.01310
6803.63743,-0.03773
6805.56590,0.02999
6807.49437,0.09924
6809.42284,0.10196
6811.35130,0.10076
6813.27977,0.14838
6815.20824,0.14029
6817.13671,0.03184
6819.06518,-0.02530
6820.99365,0.00258
6822.92212,0.06134
6824.85058,0.06902
6826.77905,0.00387
6828.70752,-0.08249
6830.63599,-0.12899
6832.56446,-0.11235
6834.49293,-0.02226
6836.42140,0.13583
6838.34987,0.20338
6840.27833,0.15279
6842.20680,0.12579
6844.13527,0.14691
6846.06374,0.15045
6847.99221,0.04450
6849.92068,-0.08047
6851.84915,-0.03430
6853.77761,0.07606
6855.70608,0.12750
6857.63455,0.13441
6859.56302,0.14304
6861.49149,0.13227
6863.41996,0.09338
6865.34843,0.06163
6867.27690,0.01394
6869.20536,-0.02824
6871.13383,-0.00930
6873.06230,0.01727
6874.99077,-0.03969
6876.91924,-0.16163
6878.84771,-0.19931
6880.77618,-0.04870
6882.70464,0.13847
6884.63311,0.24454
6886.56158,0.22963
6888.49005,0.11418
6890.41852,0.03870
6892.34699,0.07340
6894.27546,0.15533
6896.20393,0.19305
6898.13239,0.15593
6900.06086,0.10126
6901.98933,0.04610
6903.91780,-0.01877
6905.84627,-0.04824
6907.77474,-0.04765
6909.70321,-0.10832
6911.63167,-0.22959
6913.56014,-0.24111
6915.48861,-0.07826
6917.41708,0.08508
6919.34555,0.13084
6921.27402,0.12824
6923.20249,0.14825
6925.13096,0.15352
6927.05942,0.13332
6928.98789,0.13866
6930.91636,0.16765
6932.84483,0.13858
6934.77330,0.11780
6936.70177,0.18000
6938.63024,0.19729
6940.55870,0.08001
6942.48717,-0.00723
6944.41564,0.00925
6946.34411,0.04062
6948.27258,0.05949
6950.20105,0.05661
6952.12952,0.02607
6954.05799,0.03505
6955.98645,0.12167
6957.91492,0.17807
6959.84339,0.10582
6961.77186,-0.03076
6963.70033,-0.08476
6965.62880,-0.02841
6967.55727,0.06958
6969.48573,0.05657
6971.41420,-0.09501
6973.34267,-0.18493
6975.27114,-0.14035
6977.19961,-0.04129
6979.12808,0.05728
6981.05655,0.08873
6982.98501,0.11693
6984.91348,0.20250
6986.84195,0.18043
6988.77042,0.05781
6990.69889,-0.00271
6992.62736,-0.02419
6994.55583,-0.03546
6996.48430,0.02398
6998.41276,0.12233
7000.34123,0.12352
7002.26970,0.04468
7004.19817,0.01270
7006.12664,0.06684
7008.05511,0.18033
7009.98358,0.23740
7011.91204,0.20209
7013.84051,0.12271
7015.76898,0.07929
7017.69745,0.09597
7019.62592,0.14125
7021.55439,0.15441
7023.48286,0.09970
7025.41133,0.00012
7027.33979,-0.08443
7029.26826,-0.08086
7031.19673,-0.00589
7033.12520,0.05188
7035.05367,0.02924
7036.98214,-0.02893
7038.91061,-0.00990
7040.83907,0.04036
7042.76754,-0.00488
7044.69601,-0.05011
7046.62448,0.01029
7048.55295,0.03926
7050.48142,0.02837
7052.40989,0.09211
7054.33836,0.17089
7056.26682,0.10803
7058.19529,-0.00146
7060.12376,0.04183
7062.05223,0.15380
7063.98070,0.16087
7065.90917,0.06848
7067.83764,0.04704
7069.76610,0.15232
7071.69457,0.22105
7073.62304,0.16386
7075.55151,0.10370
7077.47998,0.06892
7079.40845,0.02815
7081.33692,-0.00642
7083.26539,-0.02532
7085.19385,-0.03827
7087.12232,-0.08001
7089.05079,-0.14636
7090.97926,-0.13966
7092.90773,0.02268
7094.83620,0.24540
7096.76467,0.33313
7098.69313,0.26368
7100.62160,0.16453
7102.55007,0.08304
7104.47854,0.03086
7106.40701,0.03989
7108.33548,0.08521
7110.26395,0.11266
7112.19242,0.08105
7114.12088,0.03489
7116.04935,0.03236
7117.97782,0.04895
7119.90629,0.06371
7121.83476,0.05858
7123.76323,0.06275
7125.69170,0.08964
7127.62016,0.08917
7129.54863,0.11593
7131.47710,0.20895
7133.40557,0.28309
7135.33404,0.32520
7137.26251,0.39514
7139.19098,0.40832
7141.11944,0.24288
7143.04791,0.03477
7144.97638,-0.01845
7146.90485,0.07221
7148.83332,0.18259
7150.76179,0.22700
7152.69026,0.21366
7154.61873,0.20379
7156.54719,0.05737
7158.47566,-0.18573
7160.40413,-0.23631
7162.33260,-0.10512
7164.26107,-0.02737
7166.18954,-0.05077
7168.11801,-0.12979
7170.04647,-0.25996
7171.97494,-0.28683
7173.90341,-0.12316
7175.83188,-0.02111
7177.76035,-0.08401
7179.68882,-0.08366
7181.61729,-0.04687
7183.54576,-0.03987
7185.47422,0.01890
7187.40269,0.06429
7189.33116,0.09790
7191.25963,0.11009
7193.18810,0.07806
7195.11657,0.07139
7197.04504,0.07230
7198.97350,0.08577
7200.90197,0.11894
7202.83044,0.12611
7204.75891,0.15597
7206.68738,0.24951
7208.61585,0.23491
7210.54432,0.13371
7212.47279,0.15523
7214.40125,0.27580
7216.32972,0.36703
7218.25819,0.40119
7220.18666,0.29701
7222.11513,0.19708
7224.04360,0.23910
7225.97207,0.30124
7227.90053,0.28911
7229.82900,0.32700
7231.75747,0.26319
7233.68594,0.00498
7235.61441,-0.06590
7237.54288,0.08963
7239.47135,0.15417
7241.39982,0.12694
7243.32828,0.21500
7245.25675,0.31485
7247.18522,0.31373
7249.11369,0.18783
7251.04216,-0.11735
7252.97063,-0.40218
7254.89910,-0.36618
7256.82756,-0.23205
7258.75603,-0.09013
7260.68450,0.11779
7262.61297,0.19883
7264.54144,0.01439
7266.46991,-0.15293
7268.39838,-0.15077
7270.32685,-0.14105
7272.25531,-0.17933
7274.18378,-0.08171
7276.11225,0.09560
7278.04072,0.21631
7279.96919,0.20526
7281.89766,0.08498
7283.82613,-0.04439
7285.75459,-0.10953
7287.68306,-0.03218
7289.61153,0.08563
7291.54000,0.07432
7293.46847,0.02208
7295.39694,-0.00989
7297.32541,-0.09599
7299.25387,-0.11189
7301.18234,0.01818
7303.11081,0.16076
7305.03928,0.23575
7306.96775,0.24924
7308.89622,0.15559
7310.82469,0.03947
7312.75316,0.03461
7314.68162,0.09845
7316.61009,0.20338
7318.53856,0.32304
7320.46703,0.33673
7322.39550,0.20806
7324.32397,0.08052
7326.25244,0.13145
7328.18090,0.32694
7330.10937,0.39478
7332.03784,0.24193
7333.96631,0.04297
7335.89478,-0.06753
7337.82325,-0.03130
7339.75172,0.08338
7341.68019,0.12926
7343.60865,0.17324
7345.53712,0.23071
7347.46559,0.21521
7349.39406,0.15620
7351.32253,0.17195
7353.25100,0.23366
7355.17947,0.30953
7357.10793,0.33959
7359.03640,0.23757
7360.96487,0.16160
7362.89334,0.15328
7364.82181,0.15190
7366.75028,0.20745
7368.67875,0.28350
7370.60722,0.23958
7372.53568,0.12082
7374.46415,-0.02218
7376.39262,-0.13139
7378.32109,-0.02085
7380.24956,0.14052
7382.17803,0.15054
7384.10650,0.07221
7386.03496,0.10358
7387.96343,0.16844
7389.89190,0.05658
7391.82037,-0.06676
7393.74884,-0.01825
7395.67731,0.07398
7397.60578,0.07736
7399.53425,0.05016
7401.46271,0.10013
7403.39118,0.26358
7405.31965,0.35798
7407.24812,0.26910
7409.17659,0.12954
7411.10506,0.02611
7413.03353,0.05188
7414.96199,0.18336
7416.89046,0.27985
7418.81893,0.28565
7420.74740,0.24747
7422.67587,0.17401
7424.60434,0.05680
7426.53281,0.01788
7428.46128,0.14848
7430.38974,0.29243
7432.31821,0.30321
7434.24668,0.28414
7436.17515,0.25469
7438.10362,0.20046
7440.03209,0.14868
7441.96056,0.08474
7443.88902,-0.00644
7445.81749,-0.06422
7447.74596,-0.02817
7449.67443,0.09288
7451.60290,0.19091
7453.53137,0.18673
7455.45984,0.13100
7457.38831,0.04977
7459.31677,-0.09635
7461.24524,-0.28073
7463.17371,-0.29431
7465.10218,-0.00148
7467.03065,0.25237
7468.95912,0.15295
7470.88759,0.00043
7472.81605,0.00767
7474.74452,-0.05457
7476.67299,-0.12952
7478.60146,0.03511
7480.52993,0.24740
7482.45840,0.22970
7484.38687,0.12505
7486.31533,0.01579
7488.24380,-0.07447
7490.17227,-0.02472
7492.10074,0.13623
7494.02921,0.24188
7495.95768,0.27341
7497.88615,0.26942
