399.19301,0.74353
401.12148,0.65893
403.04995,0.39824
404.97842,0.17442
406.90689,0.06600
408.83536,0.01787
410.76382,-0.04474
412.69229,-0.09693
414.62076,-0.10159
416.54923,-0.12935
418.47770,-0.18260
420.40617,-0.09108
422.33464,0.04363
424.26311,0.10347
426.19157,0.11053
428.12004,0.12243
430.04851,0.12128
431.97698,0.04727
433.90545,0.04548
435.83392,0.14600
437.76239,0.17645
439.69085,0.13458
441.61932,0.13838
443.54779,0.17218
445.47626,0.17723
447.40473,0.15676
449.33320,0.10793
451.26167,0.09529
453.19013,0.14579
455.11860,0.17067
457.04707,0.13838
458.97554,0.16883
460.90401,0.22092
462.83248,0.18001
464.76095,0.10562
466.68942,0.04478
468.61788,0.02370
470.54635,0.11283
472.47482,0.26449
474.40329,0.24373
476.33176,0.10676
478.26023,0.07497
480.18870,0.11384
482.11716,0.16252
484.04563,0.17248
485.97410,0.13988
487.90257,0.09328
489.83104,0.06650
491.75951,0.08219
493.68798,0.10492
495.61645,0.13103
497.54491,0.18304
499.47338,0.21529
501.40185,0.21584
503.33032,0.20269
505.25879,0.18300
507.18726,0.17673
509.11573,0.16556
511.04419,0.12993
512.97266,0.10833
514.90113,0.11848
516.82960,0.13090
518.75807,0.11617
520.68654,0.07717
522.61501,0.06511
524.54348,0.11166
526.47194,0.15789
528.40041,0.14341
530.32888,0.10363
532.25735,0.08681
534.18582,0.07790
536.11429,0.05348
538.04276,0.05108
539.97122,0.09870
541.89969,0.14516
543.82816,0.15522
545.75663,0.15461
547.68510,0.14042
549.61357,0.12222
551.54204,0.12222
553.47051,0.11336
555.39897,0.10446
557.32744,0.10819
559.25591,0.09810
561.18438,0.09781
563.11285,0.12422
565.04132,0.15255
566.96979,0.17047
568.89825,0.16808
570.82672,0.14930
572.75519,0.13075
574.68366,0.12069
576.61213,0.11026
578.54060,0.10447
580.46907,0.11825
582.39754,0.14354
584.32600,0.15677
586.25447,0.14271
588.18294,0.12689
590.11141,0.12908
592.03988,0.12126
593.96835,0.09794
595.89682,0.09731
597.82528,0.12956
599.75375,0.16697
601.68222,0.17968
603.61069,0.16050
605.53916,0.13558
607.46763,0.12758
609.39610,0.13804
611.32456,0.15359
613.25303,0.15348
615.18150,0.14316
617.10997,0.14428
619.03844,0.13795
620.96691,0.10228
622.89538,0.08232
624.82385,0.10213
626.75231,0.11600
628.68078,0.10821
630.60925,0.10547
632.53772,0.11326
634.46619,0.12793
636.39466,0.14787
638.32313,0.16095
640.25159,0.15474
642.18006,0.14107
644.10853,0.14323
646.03700,0.15490
647.96547,0.16226
649.89394,0.16959
651.82241,0.17485
653.75088,0.17002
655.67934,0.15749
657.60781,0.14372
659.53628,0.12879
661.46475,0.11528
663.39322,0.11159
665.32169,0.10458
667.25016,0.08431
669.17862,0.10573
671.10709,0.14974
673.03556,0.15491
674.96403,0.14042
676.89250,0.13859
678.82097,0.14761
680.74944,0.13810
682.67791,0.12486
684.60637,0.13474
686.53484,0.14588
688.46331,0.14410
690.39178,0.13804
692.32025,0.13724
694.24872,0.15526
696.17719,0.17183
698.10565,0.15729
700.03412,0.13373
701.96259,0.12744
703.89106,0.12591
705.81953,0.11761
707.74800,0.10189
709.67647,0.07668
711.60494,0.07007
713.53340,0.10430
715.46187,0.14068
717.39034,0.15038
719.31881,0.14870
721.24728,0.14822
723.17575,0.15109
725.10422,0.15094
727.03268,0.14463
728.96115,0.14194
730.88962,0.14137
732.81809,0.13910
734.74656,0.14333
736.67503,0.14855
738.60350,0.14659
740.53197,0.14167
742.46043,0.13982
744.38890,0.14564
746.31737,0.15145
748.24584,0.15099
750.17431,0.14851
752.10278,0.14320
754.03125,0.13690
755.95971,0.13432
757.88818,0.13599
759.81665,0.13947
761.74512,0.13791
763.67359,0.12897
765.60206,0.12139
767.53053,0.12619
769.45900,0.14166
771.38746,0.15053
773.31593,0.14827
775.24440,0.14712
777.17287,0.14348
779.10134,0.13405
781.02981,0.13263
782.95828,0.14227
784.88674,0.15136
786.81521,0.15118
788.74368,0.14521
790.67215,0.14551
792.60062,0.15509
794.52909,0.15582
796.45756,0.13720
798.38602,0.11917
800.31449,0.11837
802.24296,0.12819
804.17143,0.13186
806.09990,0.12778
808.02837,0.12725
809.95684,0.13212
811.88531,0.13699
813.81377,0.13603
815.74224,0.12775
817.67071,0.12247
819.59918,0.12827
821.52765,0.13305
823.45612,0.12507
825.38459,0.11885
827.31305,0.12709
829.24152,0.13902
831.16999,0.14515
833.09846,0.14364
835.02693,0.13745
836.95540,0.12972
838.88387,0.12349
840.81234,0.12580
842.74080,0.13426
844.66927,0.14171
846.59774,0.14327
848.52621,0.14310
850.45468,0.15410
852.38315,0.17063
854.31162,0.17543
856.24008,0.16546
858.16855,0.15209
860.09702,0.14162
862.02549,0.13200
863.95396,0.12830
865.88243,0.14003
867.81090,0.17785
869.73937,0.21473
871.66783,0.19938
873.59630,0.15601
875.52477,0.13839
877.45324,0.14452
879.38171,0.15181
881.31018,0.15332
883.23865,0.15149
885.16711,0.14095
887.09558,0.13134
889.02405,0.13872
890.95252,0.14886
892.88099,0.15271
894.80946,0.15424
896.73793,0.15024
898.66640,0.14884
900.59486,0.15865
902.52333,0.16409
904.45180,0.15838
906.38027,0.15451
908.30874,0.15138
910.23721,0.14361
912.16568,0.13991
914.09414,0.14692
916.02261,0.15207
917.95108,0.14367
919.87955,0.13139
921.80802,0.13081
923.73649,0.14341
925.66496,0.15200
927.59343,0.14541
929.52189,0.13600
931.45036,0.13414
933.37883,0.13522
935.30730,0.13752
937.23577,0.14425
939.16424,0.15137
941.09271,0.14895
943.02117,0.13801
944.94964,0.13032
946.87811,0.12839
948.80658,0.13059
950.73505,0.13748
952.66352,0.14539
954.59199,0.15138
956.52045,0.15313
958.44892,0.15081
960.37739,0.15106
962.30586,0.15356
964.23433,0.14704
966.16280,0.13251
968.09127,0.12819
970.01974,0.13597
971.94820,0.14076
973.87667,0.14316
975.80514,0.15026
977.73361,0.15579
979.66208,0.15681
981.59055,0.15734
983.51902,0.15555
985.44748,0.15233
987.37595,0.14833
989.30442,0.14170
991.23289,0.13967
993.16136,0.14646
995.08983,0.15283
997.01830,0.15242
998.94677,0.15581
1000.87523,0.16630
1002.80370,0.16767
1004.73217,0.15840
1006.66064,0.15433
1008.58911,0.15827
1010.51758,0.15928
1012.44605,0.15425
1014.37451,0.15001
1016.30298,0.14793
1018.23145,0.14813
1020.15992,0.15417
1022.08839,0.16144
1024.01686,0.16647
1025.94533,0.17066
1027.87380,0.16834
1029.80226,0.15885
1031.73073,0.14707
1033.65920,0.13988
1035.58767,0.14561
1037.51614,0.15887
1039.44461,0.16614
1041.37308,0.15823
1043.30154,0.14397
1045.23001,0.14647
1047.15848,0.16001
1049.08695,0.15982
1051.01542,0.15141
1052.94389,0.15115
1054.87236,0.15627
1056.80083,0.15996
1058.72929,0.15726
1060.65776,0.15123
1062.58623,0.15296
1064.51470,0.16010
1066.44317,0.16369
1068.37164,0.16329
1070.30011,0.16566
1072.22857,0.17418
1074.15704,0.17901
1076.08551,0.17741
1078.01398,0.17228
1079.94245,0.16363
1081.87092,0.16110
1083.79939,0.16949
1085.72786,0.17757
1087.65632,0.17223
1089.58479,0.16033
1091.51326,0.15717
1093.44173,0.16344
1095.37020,0.16966
1097.29867,0.16825
1099.22714,0.16765
1101.15560,0.17287
1103.08407,0.17672
1105.01254,0.17932
1106.94101,0.17642
1108.86948,0.16710
1110.79795,0.16300
1112.72642,0.16189
1114.65489,0.15498
1116.58335,0.14861
1118.51182,0.15051
1120.44029,0.15675
1122.36876,0.15957
1124.29723,0.15976
1126.22570,0.16091
1128.15417,0.15859
1130.08263,0.15129
1132.01110,0.14723
1133.93957,0.15054
1135.86804,0.15465
1137.79651,0.15553
1139.72498,0.15648
1141.65345,0.15861
1143.58191,0.15881
1145.51038,0.15771
1147.43885,0.16050
1149.36732,0.16557
1151.29579,0.16752
1153.22426,0.16650
1155.15273,0.16370
1157.08120,0.15938
1159.00966,0.15713
1160.93813,0.16088
1162.86660,0.16988
1164.79507,0.17797
1166.72354,0.17802
1168.65201,0.17188
1170.58048,0.16526
1172.50894,0.16100
1174.43741,0.16008
1176.36588,0.15863
1178.29435,0.15604
1180.22282,0.15533
1182.15129,0.15780
1184.07976,0.16548
1186.00823,0.17376
1187.93669,0.17488
1189.86516,0.17000
1191.79363,0.16339
1193.72210,0.15775
1195.65057,0.15503
1197.57904,0.15444
1199.50751,0.15736
1201.43597,0.16338
1203.36444,0.16656
1205.29291,0.16535
1207.22138,0.16304
1209.14985,0.16316
1211.07832,0.16492
1213.00679,0.16560
1214.93526,0.16617
1216.86372,0.16680
1218.79219,0.16557
1220.72066,0.16168
1222.64913,0.15989
1224.57760,0.16231
1226.50607,0.16325
1228.43454,0.16285
1230.36300,0.16632
1232.29147,0.17147
1234.21994,0.17114
1236.14841,0.16726
1238.07688,0.16469
1240.00535,0.16077
1241.93382,0.15753
1243.86229,0.16045
1245.79075,0.16491
1247.71922,0.16588
1249.64769,0.16612
1251.57616,0.16555
1253.50463,0.16460
1255.43310,0.16696
1257.36157,0.16859
1259.29003,0.16364
1261.21850,0.15666
1263.14697,0.15666
1265.07544,0.16407
1267.00391,0.17251
1268.93238,0.17587
1270.86085,0.17296
1272.78932,0.16935
1274.71778,0.16758
1276.64625,0.16703
1278.57472,0.16767
1280.50319,0.16528
1282.43166,0.16213
1284.36013,0.16300
1286.28860,0.16392
1288.21706,0.16442
1290.14553,0.16582
1292.07400,0.16508
1294.00247,0.16125
1295.93094,0.15736
1297.85941,0.15436
1299.78788,0.14785
1301.71634,0.13556
1303.64481,0.12394
1305.57328,0.12940
1307.50175,0.15300
1309.43022,0.17154
1311.35869,0.17724
1313.28716,0.17777
1315.21563,0.17538
1317.14409,0.17336
1319.07256,0.17199
1321.00103,0.16860
1322.92950,0.16511
1324.85797,0.16158
1326.78644,0.15907
1328.71491,0.16108
1330.64337,0.16148
1332.57184,0.15961
1334.50031,0.16222
1336.42878,0.16475
1338.35725,0.16456
1340.28572,0.15891
1342.21419,0.14857
1344.14266,0.14520
1346.07112,0.14979
1347.99959,0.15696
1349.92806,0.16358
1351.85653,0.16748
1353.78500,0.16583
1355.71347,0.16025
1357.64194,0.15970
1359.57040,0.16649
1361.49887,0.17416
1363.42734,0.17474
1365.35581,0.17036
1367.28428,0.16897
1369.21275,0.17132
1371.14122,0.17555
1373.06969,0.18149
1374.99815,0.18676
1376.92662,0.18615
1378.85509,0.18243
1380.78356,0.18159
1382.71203,0.18273
1384.64050,0.18281
1386.56897,0.18295
1388.49743,0.18362
1390.42590,0.18513
1392.35437,0.18922
1394.28284,0.19296
1396.21131,0.19265
1398.13978,0.19006
1400.06825,0.18432
1401.99672,0.17933
1403.92518,0.18013
1405.85365,0.18129
1407.78212,0.18122
1409.71059,0.18400
1411.63906,0.18485
1413.56753,0.18351
1415.49600,0.18525
1417.42446,0.18931
1419.35293,0.19182
1421.28140,0.19023
1423.20987,0.18569
1425.13834,0.18044
1427.06681,0.18006
1428.99528,0.18532
1430.92375,0.18763
1432.85221,0.18569
1434.78068,0.18768
1436.70915,0.18997
1438.63762,0.18554
1440.56609,0.18140
1442.49456,0.17821
1444.42303,0.17558
1446.35149,0.17759
1448.27996,0.18227
1450.20843,0.18410
1452.13690,0.18786
1454.06537,0.19890
1455.99384,0.21498
1457.92231,0.21709
1459.85077,0.20224
1461.77924,0.19479
1463.70771,0.19525
1465.63618,0.19454
1467.56465,0.19172
1469.49312,0.19580
1471.42159,0.20848
1473.35006,0.21497
1475.27852,0.20387
1477.20699,0.19406
1479.13546,0.19449
1481.06393,0.19619
1482.99240,0.19262
1484.92087,0.19425
1486.84934,0.20820
1488.77780,0.22013
1490.70627,0.21001
1492.63474,0.19676
1494.56321,0.19911
1496.49168,0.21078
1498.42015,0.21233
1500.34862,0.20374
1502.27709,0.20091
1504.20555,0.21555
1506.13402,0.24963
1508.06249,0.24780
1509.99096,0.21898
1511.91943,0.20778
1513.84790,0.20860
1515.77637,0.21253
1517.70483,0.21616
1519.63330,0.22607
1521.56177,0.23514
1523.49024,0.22809
1525.41871,0.21831
1527.34718,0.20762
1529.27565,0.19660
1531.20412,0.19410
1533.13258,0.19757
1535.06105,0.19911
1536.98952,0.20342
1538.91799,0.21849
1540.84646,0.24168
1542.77493,0.24146
1544.70340,0.22190
1546.63186,0.20614
1548.56033,0.20043
1550.48880,0.19686
1552.41727,0.19669
1554.34574,0.20502
1556.27421,0.21992
1558.20268,0.23814
1560.13115,0.22357
1562.05961,0.20164
1563.98808,0.19654
1565.91655,0.19914
1567.84502,0.20372
1569.77349,0.20444
1571.70196,0.19827
1573.63043,0.19751
1575.55889,0.20313
1577.48736,0.20140
1579.41583,0.19407
1581.34430,0.18759
1583.27277,0.18274
1585.20124,0.18119
1587.12971,0.18155
1589.05818,0.18271
1590.98664,0.18511
1592.91511,0.18743
1594.84358,0.18609
1596.77205,0.18121
1598.70052,0.18030
1600.62899,0.18586
1602.55746,0.18870
1604.48592,0.18421
1606.41439,0.18123
1608.34286,0.18371
1610.27133,0.18458
1612.19980,0.18380
1614.12827,0.18900
1616.05674,0.19751
1617.98521,0.19765
1619.91367,0.19811
1621.84214,0.20657
1623.77061,0.21319
1625.69908,0.20975
1627.62755,0.20047
1629.55602,0.18933
1631.48449,0.18567
1633.41295,0.19372
1635.34142,0.21014
1637.26989,0.21561
1639.19836,0.20769
1641.12683,0.20073
1643.05530,0.20114
1644.98377,0.21432
1646.91223,0.23327
1648.84070,0.23383
1650.76917,0.23374
1652.69764,0.24466
1654.62611,0.22984
1656.55458,0.20725
1658.48305,0.19984
1660.41152,0.20379
1662.33998,0.21049
1664.26845,0.20905
1666.19692,0.20773
1668.12539,0.21518
1670.05386,0.21947
1671.98233,0.21341
1673.91080,0.21055
1675.83926,0.20901
1677.76773,0.20596
1679.69620,0.20770
1681.62467,0.21946
1683.55314,0.23789
1685.48161,0.23407
1687.41008,0.21798
1689.33855,0.20880
1691.26701,0.20262
1693.19548,0.20160
1695.12395,0.21250
1697.05242,0.22870
1698.98089,0.23395
1700.90936,0.22568
1702.83783,0.21476
1704.76629,0.21149
1706.69476,0.20928
1708.62323,0.20128
1710.55170,0.19527
1712.48017,0.19858
1714.40864,0.21100
1716.33711,0.22471
1718.26558,0.22041
1720.19404,0.20466
1722.12251,0.19619
1724.05098,0.19387
1725.97945,0.19207
1727.90792,0.19311
1729.83639,0.20019
1731.76486,0.20850
1733.69332,0.20972
1735.62179,0.20055
1737.55026,0.19688
1739.47873,0.20178
1741.40720,0.20293
1743.33567,0.19733
1745.26414,0.19634
1747.19261,0.20133
1749.12107,0.20432
1751.04954,0.20120
1752.97801,0.19683
1754.90648,0.19528
1756.83495,0.19512
1758.76342,0.19568
1760.69189,0.19881
1762.62035,0.20006
1764.54882,0.19589
1766.47729,0.19363
1768.40576,0.19779
1770.33423,0.20450
1772.26270,0.20605
1774.19117,0.19860
1776.11964,0.19092
1778.04810,0.19033
1779.97657,0.19368
1781.90504,0.19361
1783.83351,0.19271
1785.76198,0.19359
1787.69045,0.19475
1789.61892,0.19868
1791.54738,0.20462
1793.47585,0.20609
1795.40432,0.20388
1797.33279,0.20320
1799.26126,0.20377
1801.18973,0.20041
1803.11820,0.19249
1805.04666,0.18715
1806.97513,0.18823
1808.90360,0.19174
1810.83207,0.19239
1812.76054,0.19105
1814.68901,0.19294
1816.61748,0.19500
1818.54595,0.19445
1820.47441,0.20077
1822.40288,0.20700
1824.33135,0.20026
1826.25982,0.19337
1828.18829,0.19681
1830.11676,0.20188
1832.04523,0.20013
1833.97369,0.19667
1835.90216,0.19590
1837.83063,0.19459
1839.75910,0.19255
1841.68757,0.19363
1843.61604,0.19738
1845.54451,0.19744
1847.47298,0.19404
1849.40144,0.19049
1851.32991,0.18806
1853.25838,0.18875
1855.18685,0.18920
1857.11532,0.18671
1859.04379,0.18494
1860.97226,0.18499
1862.90072,0.18623
1864.82919,0.19101
1866.75766,0.19825
1868.68613,0.20050
1870.61460,0.19493
1872.54307,0.18941
1874.47154,0.18660
1876.40001,0.18387
1878.32847,0.18205
1880.25694,0.18356
1882.18541,0.18624
1884.11388,0.18737
1886.04235,0.18787
1887.97082,0.19034
1889.89929,0.19415
1891.82775,0.19527
1893.75622,0.19284
1895.68469,0.18856
1897.61316,0.18696
1899.54163,0.19034
1901.47010,0.19375
1903.39857,0.19319
1905.32704,0.19065
1907.25550,0.18962
1909.18397,0.19019
1911.11244,0.19045
1913.04091,0.19038
1914.96938,0.19027
1916.89785,0.19039
1918.82632,0.19213
1920.75478,0.19542
1922.68325,0.19637
1924.61172,0.19286
1926.54019,0.18983
1928.46866,0.18971
1930.39713,0.18948
1932.32560,0.18850
1934.25407,0.18829
1936.18253,0.18817
1938.11100,0.18831
1940.03947,0.19072
1941.96794,0.19337
1943.89641,0.19105
1945.82488,0.18686
1947.75335,0.18669
1949.68181,0.18864
1951.61028,0.18932
1953.53875,0.19005
1955.46722,0.19192
1957.39569,0.19235
1959.32416,0.19131
1961.25263,0.19100
1963.18110,0.19084
1965.10956,0.19056
1967.03803,0.18997
1968.96650,0.18731
1970.89497,0.18499
1972.82344,0.18816
1974.75191,0.19529
1976.68038,0.19899
1978.60884,0.19722
1980.53731,0.19500
1982.46578,0.19358
1984.39425,0.19077
1986.32272,0.19012
1988.25119,0.19398
1990.17966,0.19693
1992.10812,0.19366
1994.03659,0.18743
1995.96506,0.18517
1997.89353,0.18727
1999.82200,0.18902
2001.75047,0.18862
2003.67894,0.18918
2005.60741,0.19100
2007.53587,0.19299
2009.46434,0.19529
2011.39281,0.19468
2013.32128,0.19054
2015.24975,0.18715
2017.17822,0.18694
2019.10669,0.18910
2021.03515,0.19132
2022.96362,0.19132
2024.89209,0.18966
2026.82056,0.18842
2028.74903,0.18789
2030.67750,0.18794
2032.60597,0.18964
2034.53444,0.19248
2036.46290,0.19312
2038.39137,0.19156
2040.31984,0.19031
2042.24831,0.19002
2044.17678,0.19139
2046.10525,0.19351
2048.03372,0.19394
2049.96218,0.19268
2051.89065,0.19187
2053.81912,0.19091
2055.74759,0.18964
2057.67606,0.19071
2059.60453,0.19193
2061.53300,0.19111
2063.46147,0.19148
2065.38993,0.19387
2067.31840,0.19479
2069.24687,0.19288
2071.17534,0.19078
2073.10381,0.19030
2075.03228,0.19043
2076.96075,0.19023
2078.88921,0.19000
2080.81768,0.19062
2082.74615,0.19262
2084.67462,0.19397
2086.60309,0.19240
2088.53156,0.19042
2090.46003,0.19081
2092.38850,0.19040
2094.31696,0.18781
2096.24543,0.18724
2098.17390,0.18793
2100.10237,0.18669
2102.03084,0.18588
2103.95931,0.18745
2105.88778,0.19004
2107.81624,0.19268
2109.74471,0.19533
2111.67318,0.19639
2113.60165,0.19511
2115.53012,0.19373
2117.45859,0.19199
2119.38706,0.18934
2121.31553,0.18854
2123.24399,0.18900
2125.17246,0.18903
2127.10093,0.19065
2129.02940,0.19331
2130.95787,0.19444
2132.88634,0.19416
2134.81481,0.19309
2136.74327,0.19115
2138.67174,0.18910
2140.60021,0.18863
2142.52868,0.18943
2144.45715,0.19003
2146.38562,0.19124
2148.31409,0.19394
2150.24255,0.19535
2152.17102,0.19287
2154.09949,0.19103
2156.02796,0.19386
2157.95643,0.19701
2159.88490,0.19681
2161.81337,0.19457
2163.74184,0.19225
2165.67030,0.19159
2167.59877,0.19158
2169.52724,0.18986
2171.45571,0.18798
2173.38418,0.18713
2175.31265,0.18666
2177.24112,0.18727
2179.16958,0.18871
2181.09805,0.19080
2183.02652,0.19359
2184.95499,0.19508
2186.88346,0.19470
2188.81193,0.19438
2190.74040,0.19473
2192.66887,0.19431
2194.59733,0.19219
2196.52580,0.18994
2198.45427,0.18882
2200.38274,0.18836
2202.31121,0.18883
2204.23968,0.18948
2206.16815,0.19064
2208.09661,0.19416
2210.02508,0.19646
2211.95355,0.19530
2213.88202,0.19527
2215.81049,0.19655
2217.73896,0.19567
2219.66743,0.19414
2221.59590,0.19348
2223.52436,0.19211
2225.45283,0.19020
2227.38130,0.18900
2229.30977,0.18840
2231.23824,0.18914
2233.16671,0.19272
2235.09518,0.19624
2237.02364,0.19678
2238.95211,0.19710
2240.88058,0.19750
2242.80905,0.19579
2244.73752,0.19367
2246.66599,0.19243
2248.59446,0.19218
2250.52293,0.19336
2252.45139,0.19376
2254.37986,0.19196
2256.30833,0.19058
2258.23680,0.19115
2260.16527,0.19192
2262.09374,0.19061
2264.02221,0.18827
2265.95067,0.18917
2267.87914,0.19344
2269.80761,0.19552
2271.73608,0.19341
2273.66455,0.19091
2275.59302,0.18982
2277.52149,0.18927
2279.44996,0.18950
2281.37842,0.18989
2283.30689,0.18974
2285.23536,0.19069
2287.16383,0.19305
2289.09230,0.19422
2291.02077,0.19295
2292.94924,0.19116
2294.87770,0.19165
2296.80617,0.19307
2298.73464,0.19180
2300.66311,0.18943
2302.59158,0.18845
2304.52005,0.18895
2306.44852,0.19114
2308.37699,0.19335
2310.30545,0.19383
2312.23392,0.19347
2314.16239,0.19484
2316.09086,0.19913
2318.01933,0.20252
2319.94780,0.20256
2321.87627,0.20181
2323.80473,0.19771
2325.73320,0.18864
2327.66167,0.18333
2329.59014,0.18858
2331.51861,0.19730
2333.44708,0.20255
2335.37555,0.21172
2337.30401,0.22221
2339.23248,0.22356
2341.16095,0.21602
2343.08942,0.20300
2345.01789,0.19165
2346.94636,0.18741
2348.87483,0.18662
2350.80330,0.18557
2352.73176,0.18628
2354.66023,0.19332
2356.58870,0.19763
2358.51717,0.19053
2360.44564,0.18499
2362.37411,0.18975
2364.30258,0.20405
2366.23104,0.22158
2368.15951,0.22523
2370.08798,0.21713
2372.01645,0.21051
2373.94492,0.20459
2375.87339,0.19803
2377.80186,0.19448
2379.73033,0.19539
2381.65879,0.19689
2383.58726,0.19546
2385.51573,0.19432
2387.44420,0.19649
2389.37267,0.19797
2391.30114,0.19594
2393.22961,0.19285
2395.15807,0.19101
2397.08654,0.19172
2399.01501,0.19265
2400.94348,0.19152
2402.87195,0.19143
2404.80042,0.19272
2406.72889,0.19336
2408.65736,0.19433
2410.58582,0.19543
2412.51429,0.19543
2414.44276,0.19428
2416.37123,0.19153
2418.29970,0.18910
2420.22817,0.19036
2422.15664,0.19305
2424.08510,0.19341
2426.01357,0.19284
2427.94204,0.19376
2429.87051,0.19492
2431.79898,0.19467
2433.72745,0.19427
2435.65592,0.19381
2437.58439,0.19317
2439.51285,0.19431
2441.44132,0.19556
2443.36979,0.19374
2445.29826,0.19143
2447.22673,0.19279
2449.15520,0.19727
2451.08367,0.20195
2453.01213,0.20336
2454.94060,0.20042
2456.86907,0.19691
2458.79754,0.19494
2460.72601,0.19272
2462.65448,0.19039
2464.58295,0.19058
2466.51142,0.19266
2468.43988,0.19228
2470.36835,0.18931
2472.29682,0.18857
2474.22529,0.19052
2476.15376,0.19142
2478.08223,0.19116
2480.01070,0.19235
2481.93916,0.19466
2483.86763,0.19600
2485.79610,0.19594
2487.72457,0.19488
2489.65304,0.19389
2491.58151,0.19379
2493.50998,0.19372
2495.43844,0.19363
2497.36691,0.19498
2499.29538,0.19653
2501.22385,0.19600
2503.15232,0.19599
2505.08079,0.19634
2507.00926,0.19403
2508.93773,0.19289
2510.86619,0.19594
2512.79466,0.19954
2514.72313,0.19883
2516.65160,0.19384
2518.58007,0.19069
2520.50854,0.19205
2522.43701,0.19440
2524.36547,0.19482
2526.29394,0.19297
2528.22241,0.19178
2530.15088,0.19400
2532.07935,0.19667
2534.00782,0.19603
2535.93629,0.19330
2537.86476,0.19230
2539.79322,0.19329
2541.72169,0.19353
2543.65016,0.19347
2545.57863,0.19412
2547.50710,0.19413
2549.43557,0.19277
2551.36404,0.19194
2553.29250,0.19306
2555.22097,0.19319
2557.14944,0.19153
2559.07791,0.19239
2561.00638,0.19550
2562.93485,0.19674
2564.86332,0.19623
2566.79179,0.19590
2568.72025,0.19541
2570.64872,0.19468
2572.57719,0.19487
2574.50566,0.19519
2576.43413,0.19495
2578.36260,0.19495
2580.29107,0.19486
2582.21953,0.19488
2584.14800,0.19541
2586.07647,0.19629
2588.00494,0.19765
2589.93341,0.19873
2591.86188,0.19792
2593.79035,0.19681
2595.71882,0.19800
2597.64728,0.19802
2599.57575,0.19543
2601.50422,0.19499
2603.43269,0.19729
2605.36116,0.19819
2607.28963,0.19700
2609.21810,0.19804
2611.14656,0.20152
2613.07503,0.20237
2615.00350,0.19975
2616.93197,0.19645
2618.86044,0.19391
2620.78891,0.19208
2622.71738,0.19012
2624.64585,0.18937
2626.57431,0.19247
2628.50278,0.19820
2630.43125,0.20285
2632.35972,0.20344
2634.28819,0.19917
2636.21666,0.19368
2638.14513,0.19227
2640.07359,0.19632
2642.00206,0.20075
2643.93053,0.20055
2645.85900,0.19718
2647.78747,0.19357
2649.71594,0.19267
2651.64441,0.19518
2653.57288,0.19695
2655.50134,0.19819
2657.42981,0.20166
2659.35828,0.20467
2661.28675,0.20344
2663.21522,0.19920
2665.14369,0.19686
2667.07216,0.19833
2669.00062,0.20065
2670.92909,0.20017
2672.85756,0.19818
2674.78603,0.19778
2676.71450,0.19789
2678.64297,0.19699
2680.57144,0.19430
2682.49990,0.19058
2684.42837,0.19030
2686.35684,0.19515
2688.28531,0.19982
2690.21378,0.19916
2692.14225,0.19522
2694.07072,0.19339
2695.99919,0.19569
2697.92765,0.19998
2699.85612,0.20206
2701.78459,0.20038
2703.71306,0.19896
2705.64153,0.19955
2707.57000,0.20052
2709.49847,0.20302
2711.42693,0.20469
2713.35540,0.20291
2715.28387,0.20273
2717.21234,0.20520
2719.14081,0.20515
2721.06928,0.20301
2722.99775,0.19979
2724.92622,0.19536
2726.85468,0.19432
2728.78315,0.19737
2730.71162,0.19889
2732.64009,0.19721
2734.56856,0.19714
2736.49703,0.19915
2738.42550,0.19826
2740.35396,0.19637
2742.28243,0.19723
2744.21090,0.19839
2746.13937,0.19713
2748.06784,0.19554
2749.99631,0.19822
2751.92478,0.20252
2753.85325,0.20187
2755.78171,0.19990
2757.71018,0.20208
2759.63865,0.20484
2761.56712,0.20530
2763.49559,0.20525
2765.42406,0.20526
2767.35253,0.20562
2769.28099,0.20660
2771.20946,0.20579
2773.13793,0.20328
2775.06640,0.20075
2776.99487,0.19853
2778.92334,0.20005
2780.85181,0.20493
2782.78028,0.20756
2784.70874,0.20555
2786.63721,0.20228
2788.56568,0.20262
2790.49415,0.20499
2792.42262,0.20516
2794.35109,0.20431
2796.27956,0.20691
2798.20802,0.21124
2800.13649,0.21134
2802.06496,0.20819
2803.99343,0.20426
2805.92190,0.20164
2807.85037,0.20296
2809.77884,0.20514
2811.70731,0.20698
2813.63577,0.21012
2815.56424,0.21130
2817.49271,0.20920
2819.42118,0.20576
2821.34965,0.20258
2823.27812,0.20421
2825.20659,0.20918
2827.13505,0.20927
2829.06352,0.20463
2830.99199,0.20034
2832.92046,0.19947
2834.84893,0.20275
2836.77740,0.20564
2838.70587,0.20542
2840.63433,0.20381
2842.56280,0.20199
2844.49127,0.20205
2846.41974,0.20399
2848.34821,0.20384
2850.27668,0.20126
2852.20515,0.19942
2854.13362,0.19929
2856.06208,0.20068
2857.99055,0.20240
2859.91902,0.20341
2861.84749,0.20525
2863.77596,0.20762
2865.70443,0.20835
2867.63290,0.20875
2869.56136,0.21070
2871.48983,0.21365
2873.41830,0.21589
2875.34677,0.21594
2877.27524,0.21404
2879.20371,0.21162
2881.13218,0.20957
2883.06065,0.20702
2884.98911,0.20486
2886.91758,0.20481
2888.84605,0.20631
2890.77452,0.20844
2892.70299,0.20886
2894.63146,0.20757
2896.55993,0.20701
2898.48839,0.20627
2900.41686,0.20623
2902.34533,0.20818
2904.27380,0.20880
2906.20227,0.20704
2908.13074,0.20379
2910.05921,0.20033
2911.98768,0.20118
2913.91614,0.20314
2915.84461,0.19985
2917.77308,0.19592
2919.70155,0.19631
2921.63002,0.20189
2923.55849,0.20410
2925.48696,0.19340
2927.41542,0.18752
2929.34389,0.19901
2931.27236,0.20991
2933.20083,0.20958
2935.12930,0.20113
2937.05777,0.19097
2938.98624,0.19207
2940.91471,0.20313
2942.84317,0.20999
2944.77164,0.20692
2946.70011,0.19605
2948.62858,0.19067
2950.55705,0.19834
2952.48552,0.20705
2954.41399,0.20762
2956.34245,0.19958
2958.27092,0.19292
2960.19939,0.19866
2962.12786,0.20986
2964.05633,0.21572
2965.98480,0.21112
2967.91327,0.20016
2969.84174,0.19720
2971.77020,0.20338
2973.69867,0.21016
2975.62714,0.21094
2977.55561,0.20117
2979.48408,0.19345
2981.41255,0.19706
2983.34102,0.20339
2985.26948,0.20743
2987.19795,0.20541
2989.12642,0.20082
2991.05489,0.20263
2992.98336,0.20634
2994.91183,0.20778
2996.84030,0.20753
2998.76877,0.20729
3000.69723,0.21081
3002.62570,0.21265
3004.55417,0.20857
3006.48264,0.20392
3008.41111,0.20103
3010.33958,0.19544
3012.26805,0.17837
3014.19651,0.14565
3016.12498,0.11823
3018.05345,0.13277
3019.98192,0.17970
3021.91039,0.20853
3023.83886,0.21131
3025.76733,0.21268
3027.69579,0.21594
3029.62426,0.21739
3031.55273,0.21822
3033.48120,0.21619
3035.40967,0.21234
3037.33814,0.21071
3039.26661,0.21089
3041.19508,0.20973
3043.12354,0.20954
3045.05201,0.21027
3046.98048,0.20539
3048.90895,0.20099
3050.83742,0.20534
3052.76589,0.21012
3054.69436,0.20559
3056.62282,0.19666
3058.55129,0.19775
3060.47976,0.20706
3062.40823,0.20996
3064.33670,0.20279
3066.26517,0.19539
3068.19364,0.20138
3070.12211,0.21554
3072.05057,0.21975
3073.97904,0.20741
3075.90751,0.19123
3077.83598,0.19229
3079.76445,0.20576
3081.69292,0.21099
3083.62139,0.20442
3085.54985,0.19889
3087.47832,0.20515
3089.40679,0.21323
3091.33526,0.21209
3093.26373,0.20263
3095.19220,0.19372
3097.12067,0.19644
3099.04914,0.20507
3100.97760,0.20541
3102.90607,0.19486
3104.83454,0.18843
3106.76301,0.19305
3108.69148,0.19862
3110.61995,0.20035
3112.54842,0.19799
3114.47688,0.19700
3116.40535,0.20128
3118.33382,0.20285
3120.26229,0.19742
3122.19076,0.19715
3124.11923,0.21071
3126.04770,0.22201
3127.97617,0.21911
3129.90463,0.21203
3131.83310,0.21162
3133.76157,0.21666
3135.69004,0.21988
3137.61851,0.21979
3139.54698,0.22057
3141.47545,0.22313
3143.40391,0.22456
3145.33238,0.22357
3147.26085,0.21788
3149.18932,0.21083
3151.11779,0.21204
3153.04626,0.21900
3154.97473,0.22071
3156.90320,0.21742
3158.83166,0.21629
3160.76013,0.21613
3162.68860,0.21422
3164.61707,0.21251
3166.54554,0.21287
3168.47401,0.21697
3170.40248,0.22191
3172.33094,0.21984
3174.25941,0.21032
3176.18788,0.20491
3178.11635,0.21098
3180.04482,0.21935
3181.97329,0.21962
3183.90176,0.21598
3185.83022,0.21590
3187.75869,0.21705
3189.68716,0.21538
3191.61563,0.21410
3193.54410,0.21598
3195.47257,0.21857
3197.40104,0.22008
3199.32951,0.21969
3201.25797,0.21879
3203.18644,0.22072
3205.11491,0.22421
3207.04338,0.22497
3208.97185,0.22159
3210.90032,0.21797
3212.82879,0.21672
3214.75725,0.21318
3216.68572,0.20706
3218.61419,0.20483
3220.54266,0.20704
3222.47113,0.21142
3224.39960,0.21577
3226.32807,0.21758
3228.25654,0.21779
3230.18500,0.21531
3232.11347,0.21038
3234.04194,0.21002
3235.97041,0.21835
3237.89888,0.22750
3239.82735,0.22681
3241.75582,0.21979
3243.68428,0.21452
3245.61275,0.21144
3247.54122,0.21039
3249.46969,0.20981
3251.39816,0.20800
3253.32663,0.20784
3255.25510,0.20962
3257.18357,0.21097
3259.11203,0.21284
3261.04050,0.21432
3262.96897,0.21239
3264.89744,0.20907
3266.82591,0.20932
3268.75438,0.21432
3270.68285,0.21822
3272.61131,0.21519
3274.53978,0.21135
3276.46825,0.21241
3278.39672,0.21268
3280.32519,0.20935
3282.25366,0.20556
3284.18213,0.20705
3286.11060,0.21517
3288.03906,0.21965
3289.96753,0.21637
3291.89600,0.21214
3293.82447,0.20923
3295.75294,0.20815
3297.68141,0.20992
3299.60988,0.21169
3301.53834,0.21355
3303.46681,0.21604
3305.39528,0.21525
3307.32375,0.21218
3309.25222,0.21253
3311.18069,0.21498
3313.10916,0.21277
3315.03763,0.20867
3316.96609,0.20946
3318.89456,0.21261
3320.82303,0.21310
3322.75150,0.21176
3324.67997,0.21329
3326.60844,0.21714
3328.53691,0.21827
3330.46537,0.21734
3332.39384,0.21747
3334.32231,0.21825
3336.25078,0.21822
3338.17925,0.21644
3340.10772,0.21295
3342.03619,0.20949
3343.96466,0.20846
3345.89312,0.21172
3347.82159,0.21849
3349.75006,0.22385
3351.67853,0.22377
3353.60700,0.22020
3355.53547,0.21618
3357.46394,0.21554
3359.39240,0.21954
3361.32087,0.22205
3363.24934,0.22388
3365.17781,0.22757
3367.10628,0.22533
3369.03475,0.21942
3370.96322,0.22085
3372.89168,0.22571
3374.82015,0.22374
3376.74862,0.21786
3378.67709,0.21568
3380.60556,0.21807
3382.53403,0.22284
3384.46250,0.22523
3386.39097,0.22245
3388.31943,0.21792
3390.24790,0.21417
3392.17637,0.21369
3394.10484,0.21599
3396.03331,0.21567
3397.96178,0.21507
3399.89025,0.21746
3401.81871,0.21850
3403.74718,0.21653
3405.67565,0.21435
3407.60412,0.21250
3409.53259,0.20970
3411.46106,0.20808
3413.38953,0.20961
3415.31800,0.21145
3417.24646,0.20974
3419.17493,0.20661
3421.10340,0.20891
3423.03187,0.21279
3424.96034,0.21107
3426.88881,0.21141
3428.81728,0.21646
3430.74574,0.21597
3432.67421,0.20971
3434.60268,0.20410
3436.53115,0.20137
3438.45962,0.20244
3440.38809,0.20568
3442.31656,0.20792
3444.24503,0.20890
3446.17349,0.20894
3448.10196,0.20507
3450.03043,0.20117
3451.95890,0.20158
3453.88737,0.20067
3455.81584,0.19686
3457.74431,0.19681
3459.67277,0.20117
3461.60124,0.20183
3463.52971,0.19880
3465.45818,0.19848
3467.38665,0.19909
3469.31512,0.19999
3471.24359,0.20425
3473.17206,0.20674
3475.10052,0.20230
3477.02899,0.19739
3478.95746,0.19354
3480.88593,0.18554
3482.81440,0.17886
3484.74287,0.18133
3486.67134,0.18864
3488.59980,0.19167
3490.52827,0.18945
3492.45674,0.18629
3494.38521,0.18572
3496.31368,0.18980
3498.24215,0.19589
3500.17062,0.19887
3502.09909,0.19587
3504.02755,0.18958
3505.95602,0.18429
3507.88449,0.18223
3509.81296,0.18330
3511.74143,0.18354
3513.66990,0.18129
3515.59837,0.17786
3517.52683,0.17475
3519.45530,0.17193
3521.38377,0.16925
3523.31224,0.16830
3525.24071,0.16907
3527.16918,0.17082
3529.09765,0.17267
3531.02611,0.17297
3532.95458,0.17107
3534.88305,0.17098
3536.81152,0.17560
3538.73999,0.17745
3540.66846,0.17443
3542.59693,0.17306
3544.52540,0.17417
3546.45386,0.17598
3548.38233,0.17816
3550.31080,0.17990
3552.23927,0.17926
3554.16774,0.17456
3556.09621,0.16748
3558.02468,0.16242
3559.95314,0.16505
3561.88161,0.17478
3563.81008,0.18311
3565.73855,0.18454
3567.66702,0.17930
3569.59549,0.17063
3571.52396,0.16112
3573.45243,0.15396
3575.38089,0.15383
3577.30936,0.15820
3579.23783,0.15809
3581.16630,0.15343
3583.09477,0.15315
3585.02324,0.16299
3586.95171,0.17714
3588.88017,0.17361
3590.80864,0.15589
3592.73711,0.14537
3594.66558,0.14896
3596.59405,0.16052
3598.52252,0.17034
3600.45099,0.17060
3602.37946,0.16063
3604.30792,0.15478
3606.23639,0.15898
3608.16486,0.16292
3610.09333,0.16118
3612.02180,0.16279
3613.95027,0.16858
3615.87874,0.17026
3617.80720,0.16939
3619.73567,0.16498
3621.66414,0.15193
3623.59261,0.14176
3625.52108,0.14366
3627.44955,0.15696
3629.37802,0.16475
3631.30649,0.15402
3633.23495,0.14403
3635.16342,0.14133
3637.09189,0.14267
3639.02036,0.14209
3640.94883,0.13938
3642.87730,0.14048
3644.80577,0.14640
3646.73423,0.15519
3648.66270,0.16202
3650.59117,0.15718
3652.51964,0.15053
3654.44811,0.14810
3656.37658,0.14559
3658.30505,0.14177
3660.23352,0.14136
3662.16198,0.14247
3664.09045,0.14104
3666.01892,0.14237
3667.94739,0.14988
3669.87586,0.15447
3671.80433,0.15231
3673.73280,0.15662
3675.66126,0.16193
3677.58973,0.15182
3679.51820,0.14248
3681.44667,0.14202
3683.37514,0.14315
3685.30361,0.14108
3687.23208,0.13849
3689.16055,0.14062
3691.08901,0.14325
3693.01748,0.13745
3694.94595,0.13000
3696.87442,0.12910
3698.80289,0.13382
3700.73136,0.14010
3702.65983,0.14217
3704.58829,0.13653
3706.51676,0.13264
3708.44523,0.13988
3710.37370,0.15315
3712.30217,0.15210
3714.23064,0.14117
3716.15911,0.13442
3718.08757,0.13424
3720.01604,0.14052
3721.94451,0.14290
3723.87298,0.13658
3725.80145,0.13327
3727.72992,0.13533
3729.65839,0.13703
3731.58686,0.13812
3733.51532,0.13833
3735.44379,0.14219
3737.37226,0.15170
3739.30073,0.15356
3741.22920,0.14830
3743.15767,0.14869
3745.08614,0.15597
3747.01460,0.15355
3748.94307,0.15000
3750.87154,0.15214
3752.80001,0.15320
3754.72848,0.15466
3756.65695,0.15447
3758.58542,0.14745
3760.51389,0.14107
3762.44235,0.14499
3764.37082,0.15286
3766.29929,0.15417
3768.22776,0.14680
3770.15623,0.13447
3772.08470,0.12297
3774.01317,0.12024
3775.94163,0.12693
3777.87010,0.13845
3779.79857,0.14315
3781.72704,0.13703
3783.65551,0.13475
3785.58398,0.13714
3787.51245,0.13496
3789.44092,0.13025
3791.36938,0.12929
3793.29785,0.13452
3795.22632,0.14087
3797.15479,0.14068
3799.08326,0.14137
3801.01173,0.15439
3802.94020,0.16026
3804.86866,0.15100
3806.79713,0.14191
3808.72560,0.13319
3810.65407,0.12865
3812.58254,0.13117
3814.51101,0.13550
3816.43948,0.13700
3818.36795,0.14020
3820.29641,0.14686
3822.22488,0.14605
3824.15335,0.13814
3826.08182,0.13049
3828.01029,0.12284
3829.93876,0.11759
3831.86723,0.12075
3833.79569,0.13191
3835.72416,0.14286
3837.65263,0.15278
3839.58110,0.15484
3841.50957,0.14245
3843.43804,0.12875
3845.36651,0.12313
3847.29498,0.12564
3849.22344,0.13600
3851.15191,0.15188
3853.08038,0.15753
3855.00885,0.13816
3856.93732,0.12563
3858.86579,0.12180
3860.79426,0.11957
3862.72272,0.12049
3864.65119,0.12609
3866.57966,0.13435
3868.50813,0.14236
3870.43660,0.14224
3872.36507,0.13714
3874.29354,0.13706
3876.22200,0.13589
3878.15047,0.13027
3880.07894,0.12586
3882.00741,0.12801
3883.93588,0.13394
3885.86435,0.13618
3887.79282,0.13139
3889.72129,0.12831
3891.64975,0.12833
3893.57822,0.12297
3895.50669,0.11633
3897.43516,0.11632
3899.36363,0.12277
3901.29210,0.12827
3903.22057,0.12665
3905.14903,0.12080
3907.07750,0.11569
3909.00597,0.11105
3910.93444,0.10743
3912.86291,0.10770
3914.79138,0.11146
3916.71985,0.11530
3918.64832,0.11562
3920.57678,0.11373
3922.50525,0.11427
3924.43372,0.11374
3926.36219,0.10916
3928.29066,0.11006
3930.21913,0.11812
3932.14760,0.12100
3934.07606,0.11513
3936.00453,0.10913
3937.93300,0.10481
3939.86147,0.10177
3941.78994,0.10362
3943.71841,0.11086
3945.64688,0.11805
3947.57535,0.11947
3949.50381,0.11283
3951.43228,0.10742
3953.36075,0.10889
3955.28922,0.11113
3957.21769,0.11256
3959.14616,0.11526
3961.07463,0.11913
3963.00309,0.11985
3964.93156,0.11380
3966.86003,0.10849
3968.78850,0.10986
3970.71697,0.11313
3972.64544,0.11419
3974.57391,0.11367
3976.50238,0.11195
3978.43084,0.10911
3980.35931,0.10771
3982.28778,0.11077
3984.21625,0.11492
3986.14472,0.11407
3988.07319,0.11000
3990.00166,0.10819
3991.93012,0.11080
3993.85859,0.11583
3995.78706,0.11708
3997.71553,0.11217
3999.64400,0.10608
4001.57247,0.10418
4003.50094,0.10724
4005.42941,0.10924
4007.35787,0.10654
4009.28634,0.10261
4011.21481,0.09949
4013.14328,0.09868
4015.07175,0.10056
4017.00022,0.10174
4018.92869,0.09917
4020.85715,0.09500
4022.78562,0.09890
4024.71409,0.11013
4026.64256,0.11217
4028.57103,0.10342
4030.49950,0.09795
4032.42797,0.09843
4034.35644,0.10080
4036.28490,0.10274
4038.21337,0.10155
4040.14184,0.10146
4042.07031,0.10521
4043.99878,0.10453
4045.92725,0.09851
4047.85572,0.09626
4049.78418,0.09878
4051.71265,0.10244
4053.64112,0.10484
4055.56959,0.10397
4057.49806,0.10133
4059.42653,0.09825
4061.35500,0.09535
4063.28346,0.09439
4065.21193,0.09333
4067.14040,0.08967
4069.06887,0.08849
4070.99734,0.09280
4072.92581,0.09606
4074.85428,0.09639
4076.78275,0.09570
4078.71121,0.09273
4080.63968,0.09247
4082.56815,0.09742
4084.49662,0.10213
4086.42509,0.10610
4088.35356,0.10776
4090.28203,0.10182
4092.21049,0.09303
4094.13896,0.09130
4096.06743,0.09578
4097.99590,0.09766
4099.92437,0.09701
4101.85284,0.09868
4103.78131,0.09990
4105.70978,0.09973
4107.63824,0.09973
4109.56671,0.09707
4111.49518,0.09338
4113.42365,0.09343
4115.35212,0.09617
4117.28059,0.09484
4119.20906,0.08846
4121.13752,0.08551
4123.06599,0.08657
4124.99446,0.08501
4126.92293,0.08383
4128.85140,0.08817
4130.77987,0.09263
4132.70834,0.09161
4134.63681,0.08857
4136.56527,0.08980
4138.49374,0.09383
4140.42221,0.09251
4142.35068,0.08629
4144.27915,0.08428
4146.20762,0.08837
4148.13609,0.08944
4150.06455,0.08488
4151.99302,0.08509
4153.92149,0.09262
4155.84996,0.09880
4157.77843,0.09866
4159.70690,0.09416
4161.63537,0.09032
4163.56384,0.08689
4165.49230,0.08208
4167.42077,0.08142
4169.34924,0.08505
4171.27771,0.08653
4173.20618,0.08683
4175.13465,0.08526
4177.06312,0.07973
4178.99158,0.07488
4180.92005,0.07184
4182.84852,0.07021
4184.77699,0.07306
4186.70546,0.07780
4188.63393,0.07743
4190.56240,0.07356
4192.49087,0.07556
4194.41933,0.08282
4196.34780,0.08508
4198.27627,0.08137
4200.20474,0.07756
4202.13321,0.07391
4204.06168,0.06966
4205.99015,0.06958
4207.91861,0.07600
4209.84708,0.07659
4211.77555,0.06699
4213.70402,0.06379
4215.63249,0.07164
4217.56096,0.07926
4219.48943,0.08158
4221.41789,0.07959
4223.34636,0.07587
4225.27483,0.07539
4227.20330,0.07716
4229.13177,0.07379
4231.06024,0.06718
4232.98871,0.06583
4234.91718,0.06922
4236.84564,0.07179
4238.77411,0.07377
4240.70258,0.07467
4242.63105,0.07019
4244.55952,0.06618
4246.48799,0.07032
4248.41646,0.07617
4250.34492,0.07871
4252.27339,0.08161
4254.20186,0.08282
4256.13033,0.07733
4258.05880,0.06745
4259.98727,0.06027
4261.91574,0.05940
4263.84421,0.06025
4265.77267,0.05597
4267.70114,0.04866
4269.62961,0.04921
4271.55808,0.05724
4273.48655,0.05920
4275.41502,0.05264
4277.34349,0.04703
4279.27195,0.04917
4281.20042,0.05503
4283.12889,0.05701
4285.05736,0.05884
4286.98583,0.06110
4288.91430,0.05753
4290.84277,0.05336
4292.77124,0.05634
4294.69970,0.06393
4296.62817,0.06645
4298.55664,0.05906
4300.48511,0.05278
4302.41358,0.05564
4304.34205,0.05915
4306.27052,0.06105
4308.19898,0.06371
4310.12745,0.06046
4312.05592,0.05399
4313.98439,0.05140
4315.91286,0.04949
4317.84133,0.04722
4319.76980,0.04768
4321.69827,0.05139
4323.62673,0.05560
4325.55520,0.05574
4327.48367,0.05156
4329.41214,0.04805
4331.34061,0.05060
4333.26908,0.05712
4335.19755,0.05782
4337.12601,0.05357
4339.05448,0.05353
4340.98295,0.05443
4342.91142,0.04990
4344.83989,0.04511
4346.76836,0.04766
4348.69683,0.05632
4350.62530,0.06212
4352.55376,0.05726
4354.48223,0.04498
4356.41070,0.03992
4358.33917,0.04748
4360.26764,0.05400
4362.19611,0.05041
4364.12458,0.04283
4366.05304,0.03693
4367.98151,0.03212
4369.90998,0.03206
4371.83845,0.03883
4373.76692,0.04496
4375.69539,0.04844
4377.62386,0.05166
4379.55232,0.04884
4381.48079,0.04100
4383.40926,0.03970
4385.33773,0.04211
4387.26620,0.03915
4389.19467,0.03652
4391.12314,0.03889
4393.05161,0.03961
4394.98007,0.03614
4396.90854,0.03795
4398.83701,0.04560
4400.76548,0.04605
4402.69395,0.04017
4404.62242,0.03800
4406.55089,0.03895
4408.47935,0.03969
4410.40782,0.03984
4412.33629,0.03818
4414.26476,0.03784
4416.19323,0.04417
4418.12170,0.05108
4420.05017,0.04900
4421.97864,0.04440
4423.90710,0.04565
4425.83557,0.04647
4427.76404,0.04477
4429.69251,0.04441
4431.62098,0.04417
4433.54945,0.04112
4435.47792,0.03387
4437.40638,0.02808
4439.33485,0.02782
4441.26332,0.03172
4443.19179,0.03583
4445.12026,0.03476
4447.04873,0.03415
4448.97720,0.04060
4450.90567,0.04669
4452.83413,0.04242
4454.76260,0.03191
4456.69107,0.02973
4458.61954,0.03666
4460.54801,0.03699
4462.47648,0.02774
4464.40495,0.02227
4466.33341,0.02692
4468.26188,0.03142
4470.19035,0.02427
4472.11882,0.01603
4474.04729,0.02221
4475.97576,0.03454
4477.90423,0.03379
4479.83270,0.02282
4481.76116,0.02222
4483.68963,0.02945
4485.61810,0.02645
4487.54657,0.01986
4489.47504,0.02379
4491.40351,0.02964
4493.33198,0.02655
4495.26044,0.02150
4497.18891,0.01960
4499.11738,0.01808
4501.04585,0.02042
4502.97432,0.02230
4504.90279,0.01445
4506.83126,0.00967
4508.75973,0.01434
4510.68819,0.01735
4512.61666,0.02508
4514.54513,0.04155
4516.47360,0.04989
4518.40207,0.04203
4520.33054,0.02998
4522.25901,0.02432
4524.18747,0.02101
4526.11594,0.02028
4528.04441,0.02675
4529.97288,0.02681
4531.90135,0.01389
4533.82982,0.00766
4535.75829,0.01314
4537.68676,0.01548
4539.61522,0.01527
4541.54369,0.02127
4543.47216,0.02566
4545.40063,0.02249
4547.32910,0.02031
4549.25757,0.01947
4551.18604,0.01136
4553.11450,-0.00349
4555.04297,-0.01186
4556.97144,-0.00661
4558.89991,0.00478
4560.82838,0.01735
4562.75685,0.02475
4564.68532,0.01968
4566.61378,0.01155
4568.54225,0.01057
4570.47072,0.01236
4572.39919,0.01137
4574.32766,0.01314
4576.25613,0.02270
4578.18460,0.02955
4580.11307,0.02796
4582.04153,0.02422
4583.97000,0.02088
4585.89847,0.02037
4587.82694,0.02076
4589.75541,0.01684
4591.68388,0.01196
4593.61235,0.01257
4595.54081,0.01656
4597.46928,0.01672
4599.39775,0.01384
4601.32622,0.01111
4603.25469,0.00625
4605.18316,-0.00051
4607.11163,-0.00290
4609.04010,0.00279
4610.96856,0.01146
4612.89703,0.01529
4614.82550,0.01621
4616.75397,0.02121
4618.68244,0.02422
4620.61091,0.01486
4622.53938,-0.00163
4624.46784,-0.01273
4626.39631,-0.01355
4628.32478,-0.00822
4630.25325,-0.00345
4632.18172,0.00331
4634.11019,0.01598
4636.03866,0.02431
4637.96713,0.02175
4639.89559,0.01231
4641.82406,0.00304
4643.75253,0.00114
4645.68100,0.00011
4647.60947,-0.00690
4649.53794,-0.00730
4651.46641,0.00231
4653.39487,0.00357
4655.32334,-0.00152
4657.25181,0.00573
4659.18028,0.01805
4661.10875,0.02025
4663.03722,0.02193
4664.96569,0.03240
4666.89416,0.04011
4668.82262,0.03644
4670.75109,0.02189
4672.67956,0.00348
4674.60803,-0.00021
4676.53650,0.01014
4678.46497,0.01337
4680.39344,0.00995
4682.32190,0.01160
4684.25037,0.01259
4686.17884,0.00827
4688.10731,0.00619
4690.03578,0.00437
4691.96425,-0.00074
4693.89272,-0.00201
4695.82119,-0.00247
4697.74965,-0.00289
4699.67812,0.00980
4701.60659,0.02631
4703.53506,0.02498
4705.46353,0.01226
4707.39200,0.00379
4709.32047,0.00281
4711.24893,0.00777
4713.17740,0.01293
4715.10587,0.01217
4717.03434,0.00299
4718.96281,-0.00816
4720.89128,-0.01232
4722.81975,-0.01078
4724.74821,-0.00739
4726.67668,-0.00473
4728.60515,-0.00329
4730.53362,0.00069
4732.46209,0.00801
4734.39056,0.01425
4736.31903,0.01592
4738.24750,0.01556
4740.17596,0.01820
4742.10443,0.01908
4744.03290,0.01123
4745.96137,0.00360
4747.88984,0.00448
4749.81831,0.00838
4751.74678,0.00621
4753.67524,-0.00234
4755.60371,-0.00675
4757.53218,-0.00018
4759.46065,0.01194
4761.38912,0.01922
4763.31759,0.01553
4765.24606,0.00055
4767.17453,-0.01194
4769.10299,-0.00665
4771.03146,0.00864
4772.95993,0.02152
4774.88840,0.02815
4776.81687,0.02891
4778.74534,0.02316
4780.67381,0.01454
4782.60227,0.01369
4784.53074,0.01469
4786.45921,0.00891
4788.38768,0.00484
4790.31615,0.00810
4792.24462,0.01603
4794.17309,0.02193
4796.10156,0.01719
4798.03002,0.00255
4799.95849,-0.00662
4801.88696,-0.00098
4803.81543,0.00465
4805.74390,-0.00077
4807.67237,-0.00907
4809.60084,-0.00862
4811.52930,0.00719
4813.45777,0.02228
4815.38624,0.02190
4817.31471,0.01653
4819.24318,0.01313
4821.17165,0.01181
4823.10012,0.00792
4825.02859,-0.00255
4826.95705,-0.00488
4828.88552,0.00131
4830.81399,0.00240
4832.74246,0.00649
4834.67093,0.01270
4836.59940,0.00278
4838.52787,-0.01418
4840.45633,-0.01448
4842.38480,-0.00308
4844.31327,-0.00028
4846.24174,-0.00054
4848.17021,0.01017
4850.09868,0.01623
4852.02715,0.01281
4853.95562,0.01534
4855.88408,0.01909
4857.81255,0.01652
4859.74102,0.01335
4861.66949,0.01339
4863.59796,0.01144
4865.52643,-0.00416
4867.45490,-0.02387
4869.38336,-0.02414
4871.31183,-0.00942
4873.24030,0.00465
4875.16877,0.01032
4877.09724,0.00325
4879.02571,-0.00476
4880.95418,0.00382
4882.88265,0.02080
4884.81111,0.01972
4886.73958,0.00405
4888.66805,-0.00156
4890.59652,0.00347
4892.52499,0.00783
4894.45346,0.01686
4896.38193,0.03247
4898.31039,0.04075
4900.23886,0.03390
4902.16733,0.02098
4904.09580,0.01638
4906.02427,0.01710
4907.95274,0.01264
4909.88121,0.00700
4911.80967,0.00635
4913.73814,0.01319
4915.66661,0.02475
4917.59508,0.02905
4919.52355,0.02027
4921.45202,0.00989
4923.38049,0.01043
4925.30896,0.01242
4927.23742,0.00214
4929.16589,-0.00724
4931.09436,-0.00183
4933.02283,0.00349
4934.95130,-0.00057
4936.87977,0.00371
4938.80824,0.01789
4940.73670,0.02170
4942.66517,0.00829
4944.59364,-0.00984
4946.52211,-0.01475
4948.45058,-0.00608
4950.37905,0.00299
4952.30752,0.01269
4954.23599,0.02142
4956.16445,0.02281
4958.09292,0.02479
4960.02139,0.02421
4961.94986,0.01181
4963.87833,0.00185
4965.80680,0.00082
4967.73527,0.00077
4969.66373,-0.00009
4971.59220,-0.00870
4973.52067,-0.02067
4975.44914,-0.01637
4977.37761,-0.00236
4979.30608,0.00551
4981.23455,0.00986
4983.16302,0.00788
4985.09148,0.00295
4987.01995,0.00326
4988.94842,0.00029
4990.87689,-0.00460
4992.80536,-0.00296
4994.73383,0.00128
4996.66230,0.00532
4998.59076,0.00395
5000.51923,-0.00336
5002.44770,-0.01003
5004.37617,-0.02039
5006.30464,-0.02287
5008.23311,-0.00313
5010.16158,0.01560
5012.09005,0.02093
5014.01851,0.02556
5015.94698,0.03309
5017.87545,0.04433
5019.80392,0.04859
5021.73239,0.03844
5023.66086,0.03237
5025.58933,0.04258
5027.51779,0.05565
5029.44626,0.05028
5031.37473,0.03086
5033.30320,0.01938
5035.23167,0.01452
5037.16014,0.00834
5039.08861,0.00764
5041.01708,0.01277
5042.94554,0.01547
5044.87401,0.01526
5046.80248,0.01223
5048.73095,0.00774
5050.65942,0.01266
5052.58789,0.02406
5054.51636,0.02488
5056.44482,0.01302
5058.37329,-0.00049
5060.30176,-0.00647
5062.23023,0.00368
5064.15870,0.02410
5066.08717,0.02863
5068.01564,0.01510
5069.94410,0.01280
5071.87257,0.02866
5073.80104,0.04022
5075.72951,0.03923
5077.65798,0.03439
5079.58645,0.02556
5081.51492,0.01798
5083.44339,0.02341
5085.37185,0.03234
5087.30032,0.02785
5089.22879,0.01597
5091.15726,0.01323
5093.08573,0.01961
5095.01420,0.02630
5096.94267,0.03143
5098.87113,0.03336
5100.79960,0.03052
5102.72807,0.02782
5104.65654,0.02554
5106.58501,0.02388
5108.51348,0.03121
5110.44195,0.04514
5112.37042,0.05144
5114.29888,0.04706
5116.22735,0.04531
5118.15582,0.05114
5120.08429,0.05030
5122.01276,0.03715
5123.94123,0.02396
5125.86970,0.02529
5127.79816,0.04287
5129.72663,0.05865
5131.65510,0.06249
5133.58357,0.06391
5135.51204,0.06875
5137.44051,0.06220
5139.36898,0.03871
5141.29745,0.01773
5143.22591,0.00238
5145.15438,-0.00816
5147.08285,0.00123
5149.01132,0.02871
5150.93979,0.04986
5152.86826,0.05531
5154.79673,0.05522
5156.72519,0.04412
5158.65366,0.02794
5160.58213,0.02284
5162.51060,0.02538
5164.43907,0.03848
5166.36754,0.06064
5168.29601,0.07264
5170.22448,0.06037
5172.15294,0.03508
5174.08141,0.02130
5176.00988,0.02438
5177.93835,0.03232
5179.86682,0.03716
5181.79529,0.04339
5183.72376,0.05005
5185.65222,0.04485
5187.58069,0.02948
5189.50916,0.01947
5191.43763,0.01115
5193.36610,-0.00098
5195.29457,0.00478
5197.22304,0.03355
5199.15151,0.05244
5201.07997,0.05070
5203.00844,0.04736
5204.93691,0.04128
5206.86538,0.02928
5208.79385,0.03148
5210.72232,0.03724
5212.65079,0.02819
5214.57925,0.01828
5216.50772,0.01757
5218.43619,0.03322
5220.36466,0.05520
5222.29313,0.04994
5224.22160,0.02525
5226.15007,0.01218
5228.07854,0.01930
5230.00700,0.02919
5231.93547,0.02916
5233.86394,0.03551
5235.79241,0.05751
5237.72088,0.07234
5239.64935,0.06323
5241.57782,0.04825
5243.50628,0.04351
5245.43475,0.05123
5247.36322,0.06694
5249.29169,0.07389
5251.22016,0.07396
5253.14863,0.06932
5255.07710,0.05698
5257.00556,0.06119
5258.93403,0.08130
5260.86250,0.08303
5262.79097,0.07132
5264.71944,0.06351
5266.64791,0.04096
5268.57638,0.02290
5270.50485,0.03268
5272.43331,0.04705
5274.36178,0.04980
5276.29025,0.04424
5278.21872,0.04035
5280.14719,0.04226
5282.07566,0.04454
5284.00413,0.05402
5285.93259,0.07098
5287.86106,0.07896
5289.78953,0.07647
5291.71800,0.06437
5293.64647,0.04611
5295.57494,0.03536
5297.50341,0.03721
5299.43188,0.05453
5301.36034,0.07602
5303.28881,0.08334
5305.21728,0.08186
5307.14575,0.08116
5309.07422,0.07613
5311.00269,0.06411
5312.93116,0.05937
5314.85962,0.06787
5316.78809,0.08065
5318.71656,0.09453
5320.64503,0.10229
5322.57350,0.09557
5324.50197,0.07809
5326.43044,0.06060
5328.35891,0.05385
5330.28737,0.04930
5332.21584,0.03772
5334.14431,0.03365
5336.07278,0.03944
5338.00125,0.04036
5339.92972,0.04428
5341.85819,0.05884
5343.78665,0.06648
5345.71512,0.07132
5347.64359,0.08794
5349.57206,0.09273
5351.50053,0.07469
5353.42900,0.05418
5355.35747,0.04201
5357.28594,0.03539
5359.21440,0.03917
5361.14287,0.04900
5363.07134,0.05362
5364.99981,0.05285
5366.92828,0.05291
5368.85675,0.05657
5370.78522,0.05317
5372.71368,0.03614
5374.64215,0.01467
5376.57062,0.01029
5378.49909,0.03803
5380.42756,0.06814
5382.35603,0.07010
5384.28450,0.06122
5386.21297,0.07250
5388.14143,0.08393
5390.06990,0.07761
5391.99837,0.06803
5393.92684,0.07549
5395.85531,0.10222
5397.78378,0.11578
5399.71225,0.09872
5401.64071,0.07721
5403.56918,0.07500
5405.49765,0.07794
5407.42612,0.08020
5409.35459,0.08519
5411.28306,0.08748
5413.21153,0.10207
5415.13999,0.11175
5417.06846,0.09013
5418.99693,0.07371
5420.92540,0.08229
5422.85387,0.08357
5424.78234,0.06841
5426.71081,0.05246
5428.63928,0.03877
5430.56774,0.03308
5432.49621,0.03566
5434.42468,0.04114
5436.35315,0.05801
5438.28162,0.08200
5440.21009,0.09260
5442.13856,0.09398
5444.06702,0.09834
5445.99549,0.09296
5447.92396,0.07429
5449.85243,0.05444
5451.78090,0.04405
5453.70937,0.04442
5455.63784,0.04586
5457.56631,0.04903
5459.49477,0.06331
5461.42324,0.07109
5463.35171,0.05950
5465.28018,0.06129
5467.20865,0.09036
5469.13712,0.10952
5471.06559,0.10226
5472.99405,0.09245
5474.92252,0.09520
5476.85099,0.11488
5478.77946,0.12560
5480.70793,0.10084
5482.63640,0.06032
5484.56487,0.03827
5486.49334,0.04859
5488.42180,0.07530
5490.35027,0.08709
5492.27874,0.06483
5494.20721,0.02414
5496.13568,0.02686
5498.06415,0.07328
5499.99262,0.09216
5501.92108,0.08264
5503.84955,0.09458
5505.77802,0.11687
5507.70649,0.12181
5509.63496,0.10713
5511.56343,0.08957
5513.49190,0.07551
5515.42037,0.04639
5517.34883,0.01590
5519.27730,0.01986
5521.20577,0.05309
5523.13424,0.08676
5525.06271,0.08441
5526.99118,0.04473
5528.91965,0.02294
5530.84811,0.04355
5532.77658,0.07303
5534.70505,0.09278
5536.63352,0.10192
5538.56199,0.09715
5540.49046,0.07991
5542.41893,0.06026
5544.34740,0.04879
5546.27586,0.04714
5548.20433,0.05566
5550.13280,0.05872
5552.06127,0.05241
5553.98974,0.06128
5555.91821,0.07930
5557.84668,0.07353
5559.77514,0.04644
5561.70361,0.03257
5563.63208,0.04342
5565.56055,0.06377
5567.48902,0.07952
5569.41749,0.08031
5571.34596,0.06814
5573.27443,0.05063
5575.20289,0.03964
5577.13136,0.04302
5579.05983,0.05280
5580.98830,0.05646
5582.91677,0.04672
5584.84524,0.03867
5586.77371,0.05145
5588.70217,0.07524
5590.63064,0.08609
5592.55911,0.09112
5594.48758,0.10499
5596.41605,0.10097
5598.34452,0.06148
5600.27299,0.03126
5602.20145,0.04707
5604.12992,0.07776
5606.05839,0.07905
5607.98686,0.05548
5609.91533,0.04068
5611.84380,0.03808
5613.77227,0.03512
5615.70074,0.03547
5617.62920,0.03261
5619.55767,0.01870
5621.48614,0.01409
5623.41461,0.03399
5625.34308,0.05825
5627.27155,0.07261
5629.20002,0.08176
5631.12848,0.08343
5633.05695,0.07854
5634.98542,0.08258
5636.91389,0.09140
5638.84236,0.07141
5640.77083,0.03674
5642.69930,0.03359
5644.62777,0.06837
5646.55623,0.11635
5648.48470,0.13909
5650.41317,0.11643
5652.34164,0.07233
5654.27011,0.05300
5656.19858,0.06217
5658.12705,0.06275
5660.05551,0.07016
5661.98398,0.11626
5663.91245,0.14914
5665.84092,0.12664
5667.76939,0.08657
5669.69786,0.06780
5671.62633,0.06457
5673.55480,0.04680
5675.48326,0.02685
5677.41173,0.04080
5679.34020,0.07170
5681.26867,0.07737
5683.19714,0.04659
5685.12561,0.01519
5687.05408,0.02197
5688.98254,0.05858
5690.91101,0.08125
5692.83948,0.08588
5694.76795,0.10471
5696.69642,0.11642
5698.62489,0.09323
5700.55336,0.06776
5702.48183,0.05609
5704.41029,0.03501
5706.33876,0.00353
5708.26723,0.00037
5710.19570,0.03139
5712.12417,0.05100
5714.05264,0.06019
5715.98111,0.08226
5717.90957,0.07820
5719.83804,0.05019
5721.76651,0.05338
5723.69498,0.07563
5725.62345,0.08266
5727.55192,0.06800
5729.48039,0.05368
5731.40886,0.07906
5733.33732,0.12009
5735.26579,0.11177
5737.19426,0.06367
5739.12273,0.05665
5741.05120,0.09809
5742.97967,0.12136
5744.90814,0.10543
5746.83660,0.07726
5748.76507,0.07265
5750.69354,0.11142
5752.62201,0.14657
5754.55048,0.11953
5756.47895,0.05484
5758.40742,0.01262
5760.33588,0.01833
5762.26435,0.05931
5764.19282,0.09830
5766.12129,0.10318
5768.04976,0.09344
5769.97823,0.09681
5771.90670,0.07741
5773.83517,0.02676
5775.76363,0.00423
5777.69210,0.03057
5779.62057,0.07700
5781.54904,0.11332
5783.47751,0.12321
5785.40598,0.12183
5787.33445,0.12025
5789.26291,0.08849
5791.19138,0.04487
5793.11985,0.03636
5795.04832,0.04245
5796.97679,0.04514
5798.90526,0.05519
5800.83373,0.05950
5802.76220,0.06031
5804.69066,0.06878
5806.61913,0.06349
5808.54760,0.04990
5810.47607,0.04912
5812.40454,0.05411
5814.33301,0.05344
5816.26148,0.06440
5818.18994,0.10492
5820.11841,0.12970
5822.04688,0.11058
5823.97535,0.09486
5825.90382,0.11049
5827.83229,0.11982
5829.76076,0.09288
5831.68923,0.06820
5833.61769,0.05372
5835.54616,0.04511
5837.47463,0.07487
5839.40310,0.12286
5841.33157,0.13525
5843.26004,0.09201
5845.18851,0.02545
5847.11697,-0.00209
5849.04544,0.02868
5850.97391,0.07462
5852.90238,0.09640
5854.83085,0.09494
5856.75932,0.08960
5858.68779,0.08490
5860.61626,0.07803
5862.54472,0.07336
5864.47319,0.06639
5866.40166,0.06096
5868.33013,0.06218
5870.25860,0.07274
5872.18707,0.09038
5874.11554,0.10332
5876.04400,0.10899
5877.97247,0.08744
5879.90094,0.03613
5881.82941,0.02282
5883.75788,0.06972
5885.68635,0.11020
5887.61482,0.10723
5889.54329,0.08547
5891.47175,0.08232
5893.40022,0.10676
5895.32869,0.11999
5897.25716,0.10094
5899.18563,0.07800
5901.11410,0.06644
5903.04257,0.06854
5904.97103,0.07221
5906.89950,0.05638
5908.82797,0.03098
5910.75644,0.02953
5912.68491,0.09192
5914.61338,0.17121
5916.54185,0.16191
5918.47032,0.08464
5920.39878,0.02840
5922.32725,0.02292
5924.25572,0.05096
5926.18419,0.08554
5928.11266,0.11781
5930.04113,0.13950
5931.96960,0.13889
5933.89806,0.14091
5935.82653,0.17194
5937.75500,0.20980
5939.68347,0.21889
5941.61194,0.17496
5943.54041,0.09955
5945.46888,0.03435
5947.39734,-0.00820
5949.32581,0.00032
5951.25428,0.06002
5953.18275,0.10106
5955.11122,0.09719
5957.03969,0.08483
5958.96816,0.07075
5960.89663,0.04999
5962.82509,0.04715
5964.75356,0.07861
5966.68203,0.12774
5968.61050,0.13766
5970.53897,0.11009
5972.46744,0.10670
5974.39591,0.11264
5976.32437,0.09517
5978.25284,0.07579
5980.18131,0.07593
5982.10978,0.09432
5984.03825,0.11262
5985.96672,0.12505
5987.89519,0.13112
5989.82366,0.09962
5991.75212,0.03428
5993.68059,-0.01408
5995.60906,-0.03025
5997.53753,-0.02447
5999.46600,0.00265
6001.39447,0.04592
6003.32294,0.08050
6005.25140,0.09933
6007.17987,0.12079
6009.10834,0.12880
6011.03681,0.11984
6012.96528,0.11530
6014.89375,0.11001
6016.82222,0.09694
6018.75069,0.07918
6020.67915,0.07029
6022.60762,0.08627
6024.53609,0.10741
6026.46456,0.09678
6028.39303,0.05155
6030.32150,0.01418
6032.24997,0.02164
6034.17843,0.05425
6036.10690,0.05723
6038.03537,0.02343
6039.96384,0.01940
6041.89231,0.05967
6043.82078,0.08164
6045.74925,0.09755
6047.67772,0.14278
6049.60618,0.15343
6051.53465,0.10944
6053.46312,0.08399
6055.39159,0.10277
6057.32006,0.13672
6059.24853,0.13944
6061.17700,0.08411
6063.10546,0.03776
6065.03393,0.04859
6066.96240,0.05017
6068.89087,0.03590
6070.81934,0.05702
6072.74781,0.09664
6074.67628,0.13550
6076.60475,0.17116
6078.53321,0.13444
6080.46168,0.03190
6082.39015,-0.00666
6084.31862,0.02703
6086.24709,0.03211
6088.17556,0.01211
6090.10403,0.03167
6092.03249,0.06271
6093.96096,0.07108
6095.88943,0.09463
6097.81790,0.12840
6099.74637,0.12694
6101.67484,0.10024
6103.60331,0.06848
6105.53177,0.02995
6107.46024,0.00733
6109.38871,0.02743
6111.31718,0.05700
6113.24565,0.06482
6115.17412,0.07735
6117.10259,0.09184
6119.03106,0.08958
6120.95952,0.10475
6122.88799,0.13046
6124.81646,0.10788
6126.74493,0.05546
6128.67340,0.04977
6130.60187,0.08584
6132.53034,0.10607
6134.45880,0.08987
6136.38727,0.06233
6138.31574,0.06524
6140.24421,0.09474
6142.17268,0.10831
6144.10115,0.11245
6146.02962,0.13872
6147.95809,0.16238
6149.88655,0.15864
6151.81502,0.10960
6153.74349,0.01262
6155.67196,-0.04086
6157.60043,0.02360
6159.52890,0.12603
6161.45737,0.15040
6163.38583,0.13061
6165.31430,0.14074
6167.24277,0.16104
6169.17124,0.13968
6171.09971,0.07225
6173.02818,0.01593
6174.95665,0.00435
6176.88512,0.02197
6178.81358,0.05943
6180.74205,0.10942
6182.67052,0.13211
6184.59899,0.11498
6186.52746,0.09317
6188.45593,0.09937
6190.38440,0.11449
6192.31286,0.08984
6194.24133,0.07570
6196.16980,0.09971
6198.09827,0.08692
6200.02674,0.06799
6201.95521,0.09728
6203.88368,0.12050
6205.81215,0.08638
6207.74061,0.01688
6209.66908,0.00117
6211.59755,0.07426
6213.52602,0.12238
6215.45449,0.11507
6217.38296,0.09857
6219.31143,0.07855
6221.23989,0.06203
6223.16836,0.04296
6225.09683,0.00425
6227.02530,-0.01083
6228.95377,0.03509
6230.88224,0.08585
6232.81071,0.11059
6234.73918,0.13513
6236.66764,0.12197
6238.59611,0.07052
6240.52458,0.03569
6242.45305,0.02338
6244.38152,0.03849
6246.30999,0.07449
6248.23846,0.07931
6250.16692,0.05336
6252.09539,0.04427
6254.02386,0.05063
6255.95233,0.03419
6257.88080,0.01194
6259.80927,0.04025
6261.73774,0.10588
6263.66621,0.15573
6265.59467,0.16911
6267.52314,0.15345
6269.45161,0.11150
6271.38008,0.03534
6273.30855,-0.04970
6275.23702,-0.07763
6277.16549,-0.05184
6279.09395,-0.02765
6281.02242,-0.00800
6282.95089,0.01171
6284.87936,0.04448
6286.80783,0.08345
6288.73630,0.08470
6290.66477,0.05031
6292.59323,0.01933
6294.52170,0.03472
6296.45017,0.09933
6298.37864,0.14727
6300.30711,0.13703
6302.23558,0.09147
6304.16405,0.04766
6306.09252,0.02269
6308.02098,0.02187
6309.94945,0.03530
6311.87792,0.05070
6313.80639,0.06351
6315.73486,0.07802
6317.66333,0.09231
6319.59180,0.10831
6321.52026,0.09098
6323.44873,0.00392
6325.37720,-0.03418
6327.30567,0.02909
6329.23414,0.07793
6331.16261,0.08790
6333.09108,0.10797
6335.01955,0.12786
6336.94801,0.14765
6338.87648,0.15462
6340.80495,0.11172
6342.73342,0.05705
6344.66189,0.04048
6346.59036,0.03865
6348.51883,0.05035
6350.44729,0.07923
6352.37576,0.07273
6354.30423,0.04562
6356.23270,0.05202
6358.16117,0.10151
6360.08964,0.14835
6362.01811,0.15159
6363.94658,0.16837
6365.87504,0.22375
6367.80351,0.23038
6369.73198,0.15513
6371.66045,0.05467
6373.58892,-0.00260
6375.51739,-0.00268
6377.44586,0.03683
6379.37432,0.10576
6381.30279,0.18401
6383.23126,0.23606
6385.15973,0.19438
6387.08820,0.08309
6389.01667,-0.00995
6390.94514,-0.04333
6392.87361,0.01581
6394.80207,0.11347
6396.73054,0.13364
6398.65901,0.09344
6400.58748,0.04388
6402.51595,0.02191
6404.44442,0.04475
6406.37289,0.05502
6408.30135,0.02349
6410.22982,0.01974
6412.15829,0.06204
6414.08676,0.06395
6416.01523,-0.00197
6417.94370,-0.03281
6419.87217,-0.00255
6421.80064,0.00353
6423.72910,0.00133
6425.65757,-0.03777
6427.58604,-0.12656
6429.51451,-0.13020
6431.44298,-0.03786
6433.37145,0.04310
6435.29992,0.07093
6437.22838,0.05459
6439.15685,0.06767
6441.08532,0.09602
6443.01379,0.05612
6444.94226,-0.00502
6446.87073,-0.00044
6448.79920,0.04791
6450.72766,0.06797
6452.65613,0.03295
6454.58460,0.00147
6456.51307,0.03459
6458.44154,0.09615
6460.37001,0.11333
6462.29848,0.09875
6464.22695,0.10374
6466.15541,0.13259
6468.08388,0.14759
6470.01235,0.14575
6471.94082,0.16746
6473.86929,0.18195
6475.79776,0.11115
6477.72623,-0.01520
6479.65469,-0.08778
6481.58316,-0.09615
6483.51163,-0.07537
6485.44010,-0.04912
6487.36857,-0.03898
6489.29704,0.00515
6491.22551,0.09630
6493.15398,0.11434
6495.08244,0.04967
6497.01091,0.01346
6498.93938,0.03823
6500.86785,0.08273
6502.79632,0.10487
6504.72479,0.11596
6506.65326,0.15259
6508.58172,0.19502
6510.51019,0.17020
6512.43866,0.10406
6514.36713,0.05053
6516.29560,-0.01056
6518.22407,-0.03167
6520.15254,0.02010
6522.08101,0.05238
6524.00947,0.00065
6525.93794,-0.03097
6527.86641,0.02727
6529.79488,0.07828
6531.72335,0.05954
6533.65182,0.00143
6535.58029,-0.02484
6537.50875,0.02273
6539.43722,0.05709
6541.36569,-0.00738
6543.29416,-0.05184
6545.22263,-0.02340
6547.15110,-0.04501
6549.07957,-0.08119
6551.00804,-0.03224
6552.93650,0.04602
6554.86497,0.09957
6556.79344,0.10923
6558.72191,0.08423
6560.65038,0.10058
6562.57885,0.13155
6564.50732,0.08979
6566.43578,0.06228
6568.36425,0.13760
6570.29272,0.18565
6572.22119,0.12740
6574.14966,0.05468
6576.07813,0.02053
6578.00660,0.02252
6579.93507,0.06156
6581.86353,0.13170
6583.79200,0.18456
6585.72047,0.14986
6587.64894,0.05357
6589.57741,0.01969
6591.50588,0.07800
6593.43435,0.08537
6595.36281,-0.01673
6597.29128,-0.07791
6599.21975,-0.00713
6601.14822,0.10837
6603.07669,0.12530
6605.00516,0.09790
6606.93363,0.09396
6608.86210,0.07712
6610.79056,0.07309
6612.71903,0.12610
6614.64750,0.20363
6616.57597,0.27237
6618.50444,0.27228
6620.43291,0.19897
6622.36138,0.12728
6624.28984,0.07905
6626.21831,0.02834
6628.14678,-0.02573
6630.07525,-0.00919
6632.00372,0.08855
6633.93219,0.15773
6635.86066,0.16062
6637.78912,0.12218
6639.71759,0.08043
6641.64606,0.07521
6643.57453,0.07541
6645.50300,0.01342
6647.43147,-0.07008
6649.35994,-0.09704
6651.28841,-0.07611
6653.21687,-0.03231
6655.14534,0.04878
6657.07381,0.16946
6659.00228,0.23464
6660.93075,0.20802
6662.85922,0.14877
6664.78769,0.12112
6666.71615,0.14387
6668.64462,0.14112
6670.57309,0.11442
6672.50156,0.13417
6674.43003,0.15567
6676.35850,0.12216
6678.28697,0.05027
6680.21544,-0.01068
6682.14390,-0.01655
6684.07237,0.02854
6686.00084,0.06199
6687.92931,0.07118
6689.85778,0.04948
6691.78625,0.00662
6693.71472,0.06047
6695.64318,0.20422
6697.57165,0.24417
6699.50012,0.14223
6701.42859,0.07089
6703.35706,0.11740
6705.28553,0.20516
6707.21400,0.21860
6709.14247,0.15244
6711.07093,0.07910
6712.99940,0.03545
6714.92787,0.00437
6716.85634,-0.02845
6718.78481,-0.03515
6720.71328,-0.02340
6722.64175,-0.01681
6724.57021,0.00378
6726.49868,0.07140
6728.42715,0.16634
6730.35562,0.19961
6732.28409,0.15525
6734.21256,0.11353
6736.14103,0.10997
6738.06950,0.09041
6739.99796,0.05735
6741.92643,0.07501
6743.85490,0.09556
6745.78337,0.06638
6747.71184,0.02518
6749.64031,0.01633
6751.56878,0.01385
6753.49724,-0.01026
6755.42571,-0.00851
6757.35418,0.04402
6759.28265,0.10663
6761.21112,0.13350
6763.13959,0.13318
6765.06806,0.11172
6766.99653,0.08570
6768.92499,0.09893
6770.85346,0.12051
6772.78193,0.10413
6774.71040,0.03189
6776.63887,-0.08942
6778.56734,-0.12277
6780.49581,0.01830
6782.42427,0.20827
6784.35274,0.25692
6786.28121,0.17111
6788.20968,0.10659
6790.13815,0.09641
6792.06662,0.09052
6793.99509,0.04972
6795.92355,-0.05135
6797.85202,-0.09579
6799.78049,-0.00692
6801.70896,0.07315
6803.63743,0.00485
6805.56590,-0.09034
6807.49437,-0.08995
6809.42284,-0.05070
6811.35130,-0.03090
6813.27977,-0.03609
6815.20824,-0.02108
6817.13671,0.03762
6819.06518,0.08585
6820.99365,0.11145
6822.92212,0.14218
6824.85058,0.15956
6826.77905,0.17865
6828.70752,0.20029
6830.63599,0.15702
6832.56446,0.06209
6834.49293,0.02311
6836.42140,0.05721
6838.34987,0.05011
6840.27833,0.01097
6842.20680,0.03737
6844.13527,0.10730
6846.06374,0.15822
6847.99221,0.22117
6849.92068,0.29970
6851.84915,0.29102
6853.77761,0.17273
6855.70608,0.02524
6857.63455,-0.05077
6859.56302,-0.08383
6861.49149,-0.13408
6863.41996,-0.10773
6865.34843,0.02828
6867.27690,0.11696
6869.20536,0.10470
6871.13383,0.11074
6873.06230,0.12093
6874.99077,0.07648
6876.91924,0.03559
6878.84771,0.01877
6880.77618,0.04467
6882.70464,0.12008
6884.63311,0.17331
6886.56158,0.19133
6888.49005,0.14830
6890.41852,0.02304
6892.34699,-0.05499
6894.27546,-0.01300
6896.20393,0.05576
6898.13239,0.09331
6900.06086,0.08411
6901.98933,0.06920
6903.91780,0.09448
6905.84627,0.14754
6907.77474,0.19785
6909.70321,0.17799
6911.63167,0.10464
6913.56014,0.05413
6915.48861,-0.01565
6917.41708,-0.12233
6919.34555,-0.15248
6921.27402,-0.04377
6923.20249,0.07331
6925.13096,0.09989
6927.05942,0.07807
6928.98789,0.09799
6930.91636,0.16622
6932.84483,0.16288
6934.77330,0.09489
6936.70177,0.05438
6938.63024,0.04481
6940.55870,0.06233
6942.48717,0.08092
6944.41564,0.08090
6946.34411,0.10374
6948.27258,0.14366
6950.20105,0.11733
6952.12952,0.03141
6954.05799,-0.00881
6955.98645,0.05068
6957.91492,0.13139
6959.84339,0.17888
6961.77186,0.22119
6963.70033,0.24353
6965.62880,0.18840
6967.55727,0.04428
6969.48573,-0.09343
6971.41420,-0.10951
6973.34267,-0.05809
6975.27114,-0.01933
6977.19961,0.09853
6979.12808,0.23455
6981.05655,0.20422
6982.98501,0.07181
6984.91348,0.03953
6986.84195,0.09924
6988.77042,0.13977
6990.69889,0.13476
6992.62736,0.13435
6994.55583,0.15752
6996.48430,0.15959
6998.41276,0.13754
7000.34123,0.14313
7002.26970,0.15361
7004.19817,0.14627
7006.12664,0.12303
7008.05511,0.06099
7009.98358,-0.00680
7011.91204,-0.02447
7013.84051,-0.01104
7015.76898,-0.01881
7017.69745,-0.00573
7019.62592,0.04560
7021.55439,0.05958
7023.48286,-0.01702
7025.41133,-0.07731
7027.33979,0.06380
7029.26826,0.27446
7031.19673,0.30586
7033.12520,0.28288
7035.05367,0.26975
7036.98214,0.19893
7038.91061,0.08303
7040.83907,0.00395
7042.76754,0.04611
7044.69601,0.08426
7046.62448,0.02102
7048.55295,0.01473
7050.48142,0.11637
7052.40989,0.21842
7054.33836,0.18112
7056.26682,-0.00104
7058.19529,-0.05646
7060.12376,0.07673
7062.05223,0.14515
7063.98070,0.11700
7065.90917,0.07955
7067.83764,0.05313
7069.76610,0.03698
7071.69457,-0.00523
7073.62304,-0.06122
7075.55151,-0.07274
7077.47998,-0.01574
7079.40845,0.07547
7081.33692,0.08641
7083.26539,0.05019
7085.19385,0.07645
7087.12232,0.10475
7089.05079,0.10223
7090.97926,0.10860
7092.90773,0.09171
7094.83620,0.08005
7096.76467,0.12708
7098.69313,0.14695
7100.62160,0.11819
7102.55007,0.14958
7104.47854,0.20600
7106.40701,0.15784
7108.33548,0.10080
7110.26395,0.13904
7112.19242,0.12728
7114.12088,0.02442
7116.04935,-0.03775
7117.97782,0.05792
7119.90629,0.20610
7121.83476,0.17698
7123.76323,0.10264
7125.69170,0.16111
7127.62016,0.19459
7129.54863,0.11191
7131.47710,0.03389
7133.40557,-0.01068
7135.33404,0.00164
7137.26251,0.13833
7139.19098,0.29100
7141.11944,0.26224
7143.04791,0.15670
7144.97638,0.12052
7146.90485,0.09468
7148.83332,0.08862
7150.76179,0.10645
7152.69026,0.11701
7154.61873,0.13488
7156.54719,0.09029
7158.47566,0.00997
7160.40413,0.05971
7162.33260,0.19991
7164.26107,0.28378
7166.18954,0.26280
7168.11801,0.11363
7170.04647,-0.01975
7171.97494,-0.04471
7173.90341,-0.02857
7175.83188,-0.03239
7177.76035,-0.15138
7179.68882,-0.21415
7181.61729,-0.10731
7183.54576,-0.03771
7185.47422,-0.06249
7187.40269,-0.08770
7189.33116,-0.09094
7191.25963,-0.02684
7193.18810,0.00044
7195.11657,-0.04913
7197.04504,-0.01396
7198.97350,0.01623
7200.90197,-0.03391
7202.83044,-0.02759
7204.75891,0.03978
7206.68738,0.07424
7208.61585,0.08492
7210.54432,0.05934
7212.47279,-0.00209
7214.40125,-0.11063
7216.32972,-0.15842
7218.25819,0.07034
7220.18666,0.24956
7222.11513,0.14162
7224.04360,-0.05570
7225.97207,-0.12090
7227.90053,-0.00289
7229.82900,0.14934
7231.75747,0.18450
7233.68594,0.13490
7235.61441,0.17525
7237.54288,0.29735
7239.47135,0.33115
7241.39982,0.19107
7243.32828,0.00380
7245.25675,-0.03764
7247.18522,-0.02275
7249.11369,-0.03843
7251.04216,-0.07473
7252.97063,-0.10782
7254.89910,-0.01406
7256.82756,0.17059
7258.75603,0.22742
7260.68450,0.06918
7262.61297,-0.05496
7264.54144,-0.03378
7266.46991,-0.00079
7268.39838,-0.03337
7270.32685,-0.09685
7272.25531,-0.07534
7274.18378,-0.00741
7276.11225,0.00573
7278.04072,0.01687
7279.96919,0.18507
7281.89766,0.43491
7283.82613,0.42922
7285.75459,0.12814
7287.68306,-0.21063
7289.61153,-0.29950
7291.54000,-0.11860
7293.46847,0.01542
7295.39694,0.05730
7297.32541,0.04158
7299.25387,0.01086
7301.18234,0.08922
7303.11081,0.17777
7305.03928,0.13742
7306.96775,0.02591
7308.89622,-0.05951
7310.82469,-0.15206
7312.75316,-0.29038
7314.68162,-0.30955
7316.61009,-0.09379
7318.53856,0.03712
7320.46703,-0.01472
7322.39550,0.07168
7324.32397,0.21746
7326.25244,0.21503
7328.18090,0.22647
7330.10937,0.28476
7332.03784,0.16196
7333.96631,-0.07441
7335.89478,-0.20726
7337.82325,-0.25069
7339.75172,-0.15760
7341.68019,0.17553
7343.60865,0.43459
7345.53712,0.51139
7347.46559,0.45145
7349.39406,0.32812
7351.32253,0.24045
7353.25100,0.16358
7355.17947,0.01588
7357.10793,-0.09831
7359.03640,-0.00811
7360.96487,0.16695
7362.89334,0.28006
7364.82181,0.33170
7366.75028,0.30849
7368.67875,0.17188
7370.60722,0.07751
7372.53568,0.19770
7374.46415,0.38104
7376.39262,0.24533
7378.32109,0.05563
7380.24956,0.11008
7382.17803,0.22632
7384.10650,0.28549
7386.03496,0.34476
7387.96343,0.23115
7389.89190,0.00725
7391.82037,-0.00148
7393.74884,0.15552
7395.67731,0.17455
7397.60578,0.13083
7399.53425,0.18027
7401.46271,0.15825
7403.39118,0.00727
7405.31965,-0.04876
7407.24812,-0.01356
7409.17659,-0.04613
7411.10506,-0.01616
7413.03353,0.10492
7414.96199,0.14660
7416.89046,0.09813
7418.81893,0.14130
7420.74740,0.34505
7422.67587,0.44321
7424.60434,0.34386
7426.53281,0.20189
7428.46128,0.12890
7430.38974,0.06909
7432.31821,-0.00693
7434.24668,-0.05506
7436.17515,-0.05540
7438.10362,-0.00145
7440.03209,-0.02003
7441.96056,-0.09591
7443.88902,-0.04355
7445.81749,0.01552
7447.74596,-0.04256
7449.67443,-0.08108
7451.60290,-0.00054
7453.53137,0.02933
7455.45984,-0.06733
7457.38831,-0.13159
7459.31677,-0.12016
7461.24524,-0.15511
7463.17371,-0.11130
7465.10218,0.07926
7467.03065,0.18334
7468.95912,0.26631
7470.88759,0.42714
7472.81605,0.44755
7474.74452,0.27287
7476.67299,0.10174
7478.60146,0.13229
7480.52993,0.24093
7482.45840,0.14519
7484.38687,0.09712
7486.31533,0.32449
7488.24380,0.50049
7490.17227,0.35606
7492.10074,0.13203
7494.02921,-0.02019
7495.95768,-0.10775
7497.88615,-0.01544
