399.19301,0.58435
401.12148,0.81940
403.04995,0.38634
404.97842,0.23101
406.90689,0.39788
408.83536,0.46951
410.76382,0.25904
412.69229,0.05481
414.62076,0.02018
416.54923,0.04963
418.47770,0.06995
420.40617,0.09619
422.33464,0.12204
424.26311,0.10376
426.19157,0.10044
428.12004,0.11442
430.04851,0.12761
431.97698,0.17330
433.90545,0.18505
435.83392,0.12449
437.76239,0.06115
439.69085,0.05670
441.61932,0.10438
443.54779,0.13259
445.47626,0.10601
447.40473,0.06268
449.33320,0.04186
451.26167,0.04280
453.19013,0.06262
455.11860,0.09446
457.04707,0.09138
458.97554,0.07961
460.90401,0.11044
462.83248,0.13293
464.76095,0.15095
466.68942,0.18453
468.61788,0.19787
470.54635,0.19557
472.47482,0.14799
474.40329,0.04672
476.33176,0.03686
478.26023,0.04146
480.18870,0.04165
482.11716,0.09463
484.04563,0.16546
485.97410,0.16214
487.90257,0.07631
489.83104,0.03436
491.75951,0.09657
493.68798,0.15984
495.61645,0.17556
497.54491,0.14718
499.47338,0.08974
501.40185,0.07245
503.33032,0.12090
505.25879,0.18235
507.18726,0.20475
509.11573,0.17256
511.04419,0.13040
512.97266,0.10157
514.90113,0.07674
516.82960,0.06111
518.75807,0.07591
520.68654,0.10857
522.61501,0.11094
524.54348,0.07261
526.47194,0.06240
528.40041,0.09875
530.32888,0.11068
532.25735,0.07194
534.18582,0.02289
536.11429,-0.00024
538.04276,-0.00202
539.97122,0.02109
541.89969,0.06771
543.82816,0.09970
545.75663,0.11202
547.68510,0.12197
549.61357,0.14487
551.54204,0.18647
553.47051,0.20454
555.39897,0.16212
557.32744,0.09967
559.25591,0.10232
561.18438,0.17257
563.11285,0.20983
565.04132,0.16656
566.96979,0.12783
568.89825,0.13184
570.82672,0.11445
572.75519,0.09328
574.68366,0.11273
576.61213,0.13193
578.54060,0.13075
580.46907,0.12955
582.39754,0.12594
584.32600,0.11690
586.25447,0.10300
588.18294,0.09020
590.11141,0.09226
592.03988,0.10699
593.96835,0.12190
595.89682,0.13088
597.82528,0.12856
599.75375,0.12020
601.68222,0.12556
603.61069,0.13984
605.53916,0.13860
607.46763,0.12748
609.39610,0.12270
611.32456,0.12133
613.25303,0.12551
615.18150,0.13974
617.10997,0.14631
619.03844,0.13760
620.96691,0.13333
622.89538,0.13929
624.82385,0.14600
626.75231,0.15268
628.68078,0.15540
630.60925,0.15521
632.53772,0.16217
634.46619,0.15682
636.39466,0.12328
638.32313,0.09392
640.25159,0.10576
642.18006,0.14226
644.10853,0.15350
646.03700,0.13561
647.96547,0.12170
649.89394,0.12178
651.82241,0.12430
653.75088,0.12733
655.67934,0.14006
657.60781,0.15627
659.53628,0.15709
661.46475,0.14524
663.39322,0.13614
665.32169,0.13684
667.25016,0.14726
669.17862,0.14943
671.10709,0.13669
673.03556,0.13435
674.96403,0.14447
676.89250,0.14882
678.82097,0.14428
680.74944,0.14125
682.67791,0.13687
684.60637,0.13438
686.53484,0.14629
688.46331,0.16190
690.39178,0.16252
692.32025,0.15356
694.24872,0.14776
696.17719,0.15186
698.10565,0.15692
700.03412,0.15427
701.96259,0.15167
703.89106,0.14819
705.81953,0.14028
707.74800,0.13022
709.67647,0.12351
711.60494,0.12865
713.53340,0.14415
715.46187,0.15844
717.39034,0.15925
719.31881,0.15147
721.24728,0.14662
723.17575,0.14301
725.10422,0.14049
727.03268,0.14117
728.96115,0.14411
730.88962,0.14588
732.81809,0.14224
734.74656,0.13279
736.67503,0.12765
738.60350,0.13678
740.53197,0.14577
742.46043,0.14538
744.38890,0.14957
746.31737,0.15639
748.24584,0.15180
750.17431,0.13348
752.10278,0.11389
754.03125,0.11299
755.95971,0.12386
757.88818,0.12408
759.81665,0.11937
761.74512,0.12006
763.67359,0.12410
765.60206,0.13096
767.53053,0.13725
769.45900,0.14081
771.38746,0.14766
773.31593,0.15728
775.24440,0.15459
777.17287,0.13630
779.10134,0.12582
781.02981,0.13690
782.95828,0.14947
784.88674,0.14820
786.81521,0.14683
788.74368,0.15258
790.67215,0.15442
792.60062,0.14521
794.52909,0.12908
796.45756,0.12024
798.38602,0.12763
800.31449,0.13935
802.24296,0.13733
804.17143,0.12724
806.09990,0.13087
808.02837,0.14638
809.95684,0.15436
811.88531,0.15156
813.81377,0.14189
815.74224,0.13537
817.67071,0.13995
819.59918,0.14605
821.52765,0.14810
823.45612,0.14710
825.38459,0.14639
827.31305,0.14845
829.24152,0.14897
831.16999,0.14792
833.09846,0.14727
835.02693,0.14498
836.95540,0.14391
838.88387,0.14962
840.81234,0.15392
842.74080,0.14520
844.66927,0.13187
846.59774,0.12678
848.52621,0.13084
850.45468,0.14174
852.38315,0.14470
854.31162,0.13664
856.24008,0.13855
858.16855,0.14630
860.09702,0.14323
862.02549,0.14162
863.95396,0.15399
865.88243,0.17447
867.81090,0.21344
869.73937,0.24933
871.66783,0.22408
873.59630,0.16877
875.52477,0.14732
877.45324,0.14808
879.38171,0.14609
881.31018,0.14527
883.23865,0.14553
885.16711,0.14053
887.09558,0.13963
889.02405,0.14388
890.95252,0.14783
892.88099,0.15606
894.80946,0.15933
896.73793,0.15254
898.66640,0.14874
900.59486,0.15316
902.52333,0.15746
904.45180,0.15181
906.38027,0.14225
908.30874,0.14685
910.23721,0.16109
912.16568,0.16614
914.09414,0.16109
916.02261,0.15214
917.95108,0.14731
919.87955,0.15289
921.80802,0.15883
923.73649,0.15500
925.66496,0.15092
927.59343,0.15434
929.52189,0.15378
931.45036,0.14516
933.37883,0.14089
935.30730,0.14410
937.23577,0.14345
939.16424,0.13423
941.09271,0.12308
943.02117,0.11652
944.94964,0.11588
946.87811,0.11627
948.80658,0.11750
950.73505,0.12557
952.66352,0.13731
954.59199,0.14281
956.52045,0.14070
958.44892,0.13885
960.37739,0.14326
962.30586,0.15192
964.23433,0.15692
966.16280,0.15579
968.09127,0.15155
970.01974,0.14317
971.94820,0.13480
973.87667,0.13811
975.80514,0.15059
977.73361,0.15309
979.66208,0.14441
981.59055,0.14104
983.51902,0.14296
985.44748,0.14387
987.37595,0.14580
989.30442,0.15076
991.23289,0.15605
993.16136,0.15839
995.08983,0.15861
997.01830,0.15786
998.94677,0.15707
1000.87523,0.15480
1002.80370,0.15113
1004.73217,0.15177
1006.66064,0.15413
1008.58911,0.15058
1010.51758,0.14905
1012.44605,0.15712
1014.37451,0.16497
1016.30298,0.16474
1018.23145,0.16157
1020.15992,0.16257
1022.08839,0.16364
1024.01686,0.15578
1025.94533,0.12623
1027.87380,0.09626
1029.80226,0.11268
1031.73073,0.14665
1033.65920,0.15731
1035.58767,0.16258
1037.51614,0.16865
1039.44461,0.16727
1041.37308,0.15778
1043.30154,0.14536
1045.23001,0.13962
1047.15848,0.14395
1049.08695,0.15246
1051.01542,0.15626
1052.94389,0.15404
1054.87236,0.15257
1056.80083,0.15433
1058.72929,0.15779
1060.65776,0.16283
1062.58623,0.16400
1064.51470,0.16512
1066.44317,0.17134
1068.37164,0.17403
1070.30011,0.17284
1072.22857,0.16820
1074.15704,0.15961
1076.08551,0.15666
1078.01398,0.15713
1079.94245,0.15251
1081.87092,0.15052
1083.79939,0.15211
1085.72786,0.14756
1087.65632,0.14292
1089.58479,0.14751
1091.51326,0.15358
1093.44173,0.15428
1095.37020,0.15685
1097.29867,0.16092
1099.22714,0.16173
1101.15560,0.16319
1103.08407,0.16344
1105.01254,0.16148
1106.94101,0.16456
1108.86948,0.17264
1110.79795,0.17753
1112.72642,0.17433
1114.65489,0.16686
1116.58335,0.16790
1118.51182,0.17632
1120.44029,0.17247
1122.36876,0.15799
1124.29723,0.14874
1126.22570,0.14361
1128.15417,0.14141
1130.08263,0.14416
1132.01110,0.14686
1133.93957,0.15131
1135.86804,0.16041
1137.79651,0.16871
1139.72498,0.17065
1141.65345,0.16508
1143.58191,0.15782
1145.51038,0.15757
1147.43885,0.16446
1149.36732,0.16939
1151.29579,0.16774
1153.22426,0.16451
1155.15273,0.16562
1157.08120,0.17015
1159.00966,0.17043
1160.93813,0.16575
1162.86660,0.16814
1164.79507,0.17876
1166.72354,0.17887
1168.65201,0.16568
1170.58048,0.15907
1172.50894,0.16205
1174.43741,0.16271
1176.36588,0.16004
1178.29435,0.15971
1180.22282,0.16375
1182.15129,0.16573
1184.07976,0.15660
1186.00823,0.14445
1187.93669,0.14652
1189.86516,0.15958
1191.79363,0.16921
1193.72210,0.17081
1195.65057,0.16754
1197.57904,0.16643
1199.50751,0.16690
1201.43597,0.16439
1203.36444,0.16194
1205.29291,0.15989
1207.22138,0.15804
1209.14985,0.16074
1211.07832,0.16641
1213.00679,0.16948
1214.93526,0.17129
1216.86372,0.17215
1218.79219,0.16904
1220.72066,0.16613
1222.64913,0.16557
1224.57760,0.16507
1226.50607,0.16553
1228.43454,0.16715
1230.36300,0.16827
1232.29147,0.16957
1234.21994,0.17278
1236.14841,0.17664
1238.07688,0.17886
1240.00535,0.17668
1241.93382,0.17034
1243.86229,0.16624
1245.79075,0.16656
1247.71922,0.16597
1249.64769,0.16322
1251.57616,0.16247
1253.50463,0.16443
1255.43310,0.16752
1257.36157,0.16961
1259.29003,0.16956
1261.21850,0.17047
1263.14697,0.17079
1265.07544,0.16511
1267.00391,0.16098
1268.93238,0.16603
1270.86085,0.17031
1272.78932,0.16868
1274.71778,0.16627
1276.64625,0.16633
1278.57472,0.17038
1280.50319,0.17278
1282.43166,0.16871
1284.36013,0.16390
1286.28860,0.16393
1288.21706,0.16899
1290.14553,0.17324
1292.07400,0.16947
1294.00247,0.16329
1295.93094,0.16232
1297.85941,0.16016
1299.78788,0.15178
1301.71634,0.14059
1303.64481,0.13102
1305.57328,0.13346
1307.50175,0.15311
1309.43022,0.17255
1311.35869,0.17889
1313.28716,0.17816
1315.21563,0.17435
1317.14409,0.17110
1319.07256,0.17017
1321.00103,0.16878
1322.92950,0.16646
1324.85797,0.16145
1326.78644,0.15858
1328.71491,0.16238
1330.64337,0.16374
1332.57184,0.16197
1334.50031,0.16369
1336.42878,0.16661
1338.35725,0.16930
1340.28572,0.16682
1342.21419,0.16575
1344.14266,0.17219
1346.07112,0.16880
1347.99959,0.15829
1349.92806,0.15711
1351.85653,0.16098
1353.78500,0.16262
1355.71347,0.16044
1357.64194,0.15944
1359.57040,0.16503
1361.49887,0.17279
1363.42734,0.17470
1365.35581,0.17459
1367.28428,0.17779
1369.21275,0.17979
1371.14122,0.18103
1373.06969,0.18592
1374.99815,0.18855
1376.92662,0.18344
1378.85509,0.17847
1380.78356,0.17756
1382.71203,0.17717
1384.64050,0.17881
1386.56897,0.18460
1388.49743,0.18798
1390.42590,0.18866
1392.35437,0.19295
1394.28284,0.19877
1396.21131,0.20168
1398.13978,0.19990
1400.06825,0.19139
1401.99672,0.18496
1403.92518,0.18856
1405.85365,0.19397
1407.78212,0.19165
1409.71059,0.18756
1411.63906,0.18735
1413.56753,0.19081
1415.49600,0.19690
1417.42446,0.20301
1419.35293,0.20094
1421.28140,0.19226
1423.20987,0.18761
1425.13834,0.18536
1427.06681,0.18213
1428.99528,0.17960
1430.92375,0.18003
1432.85221,0.18297
1434.78068,0.18950
1436.70915,0.19854
1438.63762,0.19760
1440.56609,0.18896
1442.49456,0.18252
1444.42303,0.18051
1446.35149,0.18097
1448.27996,0.18214
1450.20843,0.18353
1452.13690,0.18826
1454.06537,0.19924
1455.99384,0.21372
1457.92231,0.21338
1459.85077,0.19910
1461.77924,0.19366
1463.70771,0.19797
1465.63618,0.20272
1467.56465,0.19994
1469.49312,0.20014
1471.42159,0.20892
1473.35006,0.21157
1475.27852,0.20185
1477.20699,0.19506
1479.13546,0.19402
1481.06393,0.19420
1482.99240,0.19283
1484.92087,0.19431
1486.84934,0.20219
1488.77780,0.21011
1490.70627,0.20430
1492.63474,0.19512
1494.56321,0.19490
1496.49168,0.19968
1498.42015,0.20260
1500.34862,0.20722
1502.27709,0.21536
1504.20555,0.22338
1506.13402,0.23128
1508.06249,0.22595
1509.99096,0.21060
1511.91943,0.20284
1513.84790,0.20664
1515.77637,0.21990
1517.70483,0.22738
1519.63330,0.22701
1521.56177,0.23055
1523.49024,0.22951
1525.41871,0.22448
1527.34718,0.21769
1529.27565,0.21062
1531.20412,0.21075
1533.13258,0.21486
1535.06105,0.21180
1536.98952,0.21212
1538.91799,0.23077
1540.84646,0.25279
1542.77493,0.24050
1544.70340,0.21743
1546.63186,0.20006
1548.56033,0.19419
1550.48880,0.19924
1552.41727,0.20847
1554.34574,0.21654
1556.27421,0.22663
1558.20268,0.23843
1560.13115,0.22143
1562.05961,0.20362
1563.98808,0.19843
1565.91655,0.19610
1567.84502,0.19638
1569.77349,0.19773
1571.70196,0.19653
1573.63043,0.19907
1575.55889,0.20416
1577.48736,0.19905
1579.41583,0.18809
1581.34430,0.18124
1583.27277,0.18013
1585.20124,0.18238
1587.12971,0.18425
1589.05818,0.18374
1590.98664,0.18209
1592.91511,0.18501
1594.84358,0.19099
1596.77205,0.19095
1598.70052,0.18485
1600.62899,0.17893
1602.55746,0.17765
1604.48592,0.18108
1606.41439,0.18663
1608.34286,0.19235
1610.27133,0.19387
1612.19980,0.19253
1614.12827,0.19780
1616.05674,0.20875
1617.98521,0.20704
1619.91367,0.20090
1621.84214,0.20262
1623.77061,0.20482
1625.69908,0.20239
1627.62755,0.19795
1629.55602,0.19498
1631.48449,0.19767
1633.41295,0.20799
1635.34142,0.22412
1637.26989,0.22353
1639.19836,0.20922
1641.12683,0.20126
1643.05530,0.20451
1644.98377,0.21764
1646.91223,0.22856
1648.84070,0.22602
1650.76917,0.22958
1652.69764,0.24051
1654.62611,0.22560
1656.55458,0.20459
1658.48305,0.19794
1660.41152,0.20537
1662.33998,0.21399
1664.26845,0.21068
1666.19692,0.20740
1668.12539,0.21088
1670.05386,0.21552
1671.98233,0.21360
1673.91080,0.20839
1675.83926,0.20392
1677.76773,0.20402
1679.69620,0.21045
1681.62467,0.22362
1683.55314,0.23602
1685.48161,0.22485
1687.41008,0.21162
1689.33855,0.20848
1691.26701,0.20667
1693.19548,0.20960
1695.12395,0.22217
1697.05242,0.23110
1698.98089,0.22636
1700.90936,0.21575
1702.83783,0.21111
1704.76629,0.21423
1706.69476,0.21314
1708.62323,0.20427
1710.55170,0.19807
1712.48017,0.20092
1714.40864,0.21536
1716.33711,0.23386
1718.26558,0.22714
1720.19404,0.20445
1722.12251,0.19332
1724.05098,0.19301
1725.97945,0.19532
1727.90792,0.19724
1729.83639,0.20071
1731.76486,0.20566
1733.69332,0.20762
1735.62179,0.20280
1737.55026,0.19903
1739.47873,0.20024
1741.40720,0.20544
1743.33567,0.20848
1745.26414,0.20946
1747.19261,0.21382
1749.12107,0.21757
1751.04954,0.21185
1752.97801,0.20309
1754.90648,0.19914
1756.83495,0.19641
1758.76342,0.19411
1760.69189,0.19704
1762.62035,0.19874
1764.54882,0.19450
1766.47729,0.19301
1768.40576,0.19922
1770.33423,0.20966
1772.26270,0.21284
1774.19117,0.20495
1776.11964,0.19890
1778.04810,0.20029
1779.97657,0.20410
1781.90504,0.20184
1783.83351,0.19721
1785.76198,0.19403
1787.69045,0.19224
1789.61892,0.19699
1791.54738,0.20701
1793.47585,0.20937
1795.40432,0.20260
1797.33279,0.19746
1799.26126,0.19996
1801.18973,0.20420
1803.11820,0.19962
1805.04666,0.19004
1806.97513,0.18484
1808.90360,0.18793
1810.83207,0.19418
1812.76054,0.19523
1814.68901,0.19159
1816.61748,0.18528
1818.54595,0.17882
1820.47441,0.18059
1822.40288,0.19071
1824.33135,0.19947
1826.25982,0.20257
1828.18829,0.20484
1830.11676,0.20481
1832.04523,0.19853
1833.97369,0.19440
1835.90216,0.19498
1837.83063,0.19397
1839.75910,0.19248
1841.68757,0.19515
1843.61604,0.19861
1845.54451,0.19906
1847.47298,0.19849
1849.40144,0.19631
1851.32991,0.19289
1853.25838,0.19077
1855.18685,0.19108
1857.11532,0.19292
1859.04379,0.19290
1860.97226,0.18978
1862.90072,0.18636
1864.82919,0.18735
1866.75766,0.19429
1868.68613,0.19922
1870.61460,0.19494
1872.54307,0.18878
1874.47154,0.18567
1876.40001,0.18553
1878.32847,0.18775
1880.25694,0.18881
1882.18541,0.18650
1884.11388,0.18403
1886.04235,0.18517
1887.97082,0.18969
1889.89929,0.19161
1891.82775,0.18880
1893.75622,0.18790
1895.68469,0.18976
1897.61316,0.18989
1899.54163,0.18854
1901.47010,0.18798
1903.39857,0.18869
1905.32704,0.19013
1907.25550,0.19022
1909.18397,0.18728
1911.11244,0.18452
1913.04091,0.18606
1914.96938,0.19076
1916.89785,0.19557
1918.82632,0.19679
1920.75478,0.19513
1922.68325,0.19507
1924.61172,0.19476
1926.54019,0.19196
1928.46866,0.18889
1930.39713,0.18701
1932.32560,0.18629
1934.25407,0.18666
1936.18253,0.18706
1938.11100,0.18761
1940.03947,0.19200
1941.96794,0.19818
1943.89641,0.19819
1945.82488,0.19235
1947.75335,0.18729
1949.68181,0.18634
1951.61028,0.18645
1953.53875,0.18523
1955.46722,0.18603
1957.39569,0.18927
1959.32416,0.19096
1961.25263,0.19072
1963.18110,0.19136
1965.10956,0.19380
1967.03803,0.19549
1968.96650,0.19352
1970.89497,0.19037
1972.82344,0.19047
1974.75191,0.19235
1976.68038,0.19204
1978.60884,0.19119
1980.53731,0.19049
1982.46578,0.18905
1984.39425,0.19021
1986.32272,0.19265
1988.25119,0.19342
1990.17966,0.19426
1992.10812,0.19390
1994.03659,0.19009
1995.96506,0.18648
1997.89353,0.18667
1999.82200,0.18854
2001.75047,0.18873
2003.67894,0.18629
2005.60741,0.18309
2007.53587,0.18344
2009.46434,0.18797
2011.39281,0.19185
2013.32128,0.19220
2015.24975,0.19179
2017.17822,0.19291
2019.10669,0.19259
2021.03515,0.18922
2022.96362,0.18629
2024.89209,0.18488
2026.82056,0.18398
2028.74903,0.18558
2030.67750,0.18869
2032.60597,0.19031
2034.53444,0.19141
2036.46290,0.19192
2038.39137,0.19089
2040.31984,0.19005
2042.24831,0.18996
2044.17678,0.18955
2046.10525,0.18972
2048.03372,0.19162
2049.96218,0.19321
2051.89065,0.19264
2053.81912,0.19153
2055.74759,0.19123
2057.67606,0.18988
2059.60453,0.18616
2061.53300,0.18368
2063.46147,0.18594
2065.38993,0.18927
2067.31840,0.18932
2069.24687,0.18890
2071.17534,0.19035
2073.10381,0.19057
2075.03228,0.18886
2076.96075,0.18816
2078.88921,0.18843
2080.81768,0.18924
2082.74615,0.19244
2084.67462,0.19670
2086.60309,0.19857
2088.53156,0.19825
2090.46003,0.19679
2092.38850,0.19389
2094.31696,0.19164
2096.24543,0.19180
2098.17390,0.19190
2100.10237,0.19051
2102.03084,0.18897
2103.95931,0.18741
2105.88778,0.18564
2107.81624,0.18480
2109.74471,0.18637
2111.67318,0.18918
2113.60165,0.18973
2115.53012,0.18759
2117.45859,0.18557
2119.38706,0.18661
2121.31553,0.19063
2123.24399,0.19375
2125.17246,0.19381
2127.10093,0.19237
2129.02940,0.19234
2130.95787,0.19651
2132.88634,0.20457
2134.81481,0.20915
2136.74327,0.20344
2138.67174,0.19318
2140.60021,0.18831
2142.52868,0.19012
2144.45715,0.19337
2146.38562,0.19478
2148.31409,0.19588
2150.24255,0.19598
2152.17102,0.19354
2154.09949,0.19113
2156.02796,0.19006
2157.95643,0.19029
2159.88490,0.19146
2161.81337,0.19165
2163.74184,0.19134
2165.67030,0.19197
2167.59877,0.19226
2169.52724,0.19188
2171.45571,0.19184
2173.38418,0.19121
2175.31265,0.19056
2177.24112,0.19157
2179.16958,0.19292
2181.09805,0.19387
2183.02652,0.19548
2184.95499,0.19689
2186.88346,0.19611
2188.81193,0.19407
2190.74040,0.19279
2192.66887,0.19239
2194.59733,0.19191
2196.52580,0.19118
2198.45427,0.19224
2200.38274,0.19465
2202.31121,0.19548
2204.23968,0.19424
2206.16815,0.19171
2208.09661,0.18967
2210.02508,0.18960
2211.95355,0.19011
2213.88202,0.19030
2215.81049,0.19120
2217.73896,0.19167
2219.66743,0.19051
2221.59590,0.18914
2223.52436,0.18770
2225.45283,0.18711
2227.38130,0.18897
2229.30977,0.19179
2231.23824,0.19314
2233.16671,0.19269
2235.09518,0.19314
2237.02364,0.19376
2238.95211,0.19160
2240.88058,0.19003
2242.80905,0.19081
2244.73752,0.19003
2246.66599,0.18808
2248.59446,0.18863
2250.52293,0.19098
2252.45139,0.19238
2254.37986,0.19349
2256.30833,0.19526
2258.23680,0.19507
2260.16527,0.19199
2262.09374,0.18957
2264.02221,0.19040
2265.95067,0.19413
2267.87914,0.19802
2269.80761,0.19881
2271.73608,0.19782
2273.66455,0.19687
2275.59302,0.19494
2277.52149,0.19311
2279.44996,0.19228
2281.37842,0.19159
2283.30689,0.19167
2285.23536,0.19358
2287.16383,0.19577
2289.09230,0.19496
2291.02077,0.19220
2292.94924,0.18989
2294.87770,0.18794
2296.80617,0.18904
2298.73464,0.19320
2300.66311,0.19407
2302.59158,0.19008
2304.52005,0.18734
2306.44852,0.19162
2308.37699,0.19969
2310.30545,0.20181
2312.23392,0.19760
2314.16239,0.19676
2316.09086,0.20059
2318.01933,0.20212
2319.94780,0.20236
2321.87627,0.20375
2323.80473,0.19874
2325.73320,0.18771
2327.66167,0.18175
2329.59014,0.18602
2331.51861,0.19598
2333.44708,0.20055
2335.37555,0.19846
2337.30401,0.19766
2339.23248,0.19856
2341.16095,0.19939
2343.08942,0.19813
2345.01789,0.19335
2346.94636,0.19347
2348.87483,0.19909
2350.80330,0.20230
2352.73176,0.19779
2354.66023,0.19489
2356.58870,0.20875
2358.51717,0.22917
2360.44564,0.23266
2362.37411,0.21918
2364.30258,0.21312
2366.23104,0.21486
2368.15951,0.20662
2370.08798,0.19204
2372.01645,0.18435
2373.94492,0.18600
2375.87339,0.19081
2377.80186,0.19238
2379.73033,0.18867
2381.65879,0.18548
2383.58726,0.18851
2385.51573,0.19356
2387.44420,0.19402
2389.37267,0.19199
2391.30114,0.19314
2393.22961,0.19550
2395.15807,0.19505
2397.08654,0.19469
2399.01501,0.19619
2400.94348,0.19652
2402.87195,0.19552
2404.80042,0.19441
2406.72889,0.19340
2408.65736,0.19349
2410.58582,0.19442
2412.51429,0.19446
2414.44276,0.19291
2416.37123,0.19041
2418.29970,0.18826
2420.22817,0.18882
2422.15664,0.19193
2424.08510,0.19367
2426.01357,0.19247
2427.94204,0.19064
2429.87051,0.19097
2431.79898,0.19282
2433.72745,0.19382
2435.65592,0.19439
2437.58439,0.19509
2439.51285,0.19458
2441.44132,0.19273
2443.36979,0.18920
2445.29826,0.18427
2447.22673,0.18250
2449.15520,0.18540
2451.08367,0.18941
2453.01213,0.19143
2454.94060,0.19045
2456.86907,0.18944
2458.79754,0.19051
2460.72601,0.19256
2462.65448,0.19441
2464.58295,0.19476
2466.51142,0.19375
2468.43988,0.19215
2470.36835,0.19040
2472.29682,0.18990
2474.22529,0.19033
2476.15376,0.18992
2478.08223,0.18931
2480.01070,0.18979
2481.93916,0.19105
2483.86763,0.19169
2485.79610,0.19164
2487.72457,0.19218
2489.65304,0.19222
2491.58151,0.19153
2493.50998,0.19195
2495.43844,0.19307
2497.36691,0.19398
2499.29538,0.19521
2501.22385,0.19618
2503.15232,0.19591
2505.08079,0.19546
2507.00926,0.19535
2508.93773,0.19573
2510.86619,0.19707
2512.79466,0.19800
2514.72313,0.19656
2516.65160,0.19218
2518.58007,0.18895
2520.50854,0.19035
2522.43701,0.19190
2524.36547,0.19023
2526.29394,0.18816
2528.22241,0.18906
2530.15088,0.19259
2532.07935,0.19541
2534.00782,0.19611
2535.93629,0.19488
2537.86476,0.19322
2539.79322,0.19384
2541.72169,0.19531
2543.65016,0.19536
2545.57863,0.19569
2547.50710,0.19656
2549.43557,0.19648
2551.36404,0.19673
2553.29250,0.19684
2555.22097,0.19467
2557.14944,0.19236
2559.07791,0.19144
2561.00638,0.19012
2562.93485,0.18949
2564.86332,0.19077
2566.79179,0.19189
2568.72025,0.19322
2570.64872,0.19553
2572.57719,0.19614
2574.50566,0.19517
2576.43413,0.19485
2578.36260,0.19420
2580.29107,0.19314
2582.21953,0.19375
2584.14800,0.19580
2586.07647,0.19750
2588.00494,0.19809
2589.93341,0.19811
2591.86188,0.19790
2593.79035,0.19746
2595.71882,0.19654
2597.64728,0.19472
2599.57575,0.19313
2601.50422,0.19442
2603.43269,0.19872
2605.36116,0.20107
2607.28963,0.19900
2609.21810,0.19691
2611.14656,0.19761
2613.07503,0.19850
2615.00350,0.19712
2616.93197,0.19523
2618.86044,0.19478
2620.78891,0.19577
2622.71738,0.19869
2624.64585,0.20150
2626.57431,0.20102
2628.50278,0.19877
2630.43125,0.19693
2632.35972,0.19448
2634.28819,0.19178
2636.21666,0.19111
2638.14513,0.19242
2640.07359,0.19327
2642.00206,0.19340
2643.93053,0.19450
2645.85900,0.19522
2647.78747,0.19431
2649.71594,0.19491
2651.64441,0.19718
2653.57288,0.19679
2655.50134,0.19504
2657.42981,0.19498
2659.35828,0.19359
2661.28675,0.19051
2663.21522,0.19058
2665.14369,0.19343
2667.07216,0.19556
2669.00062,0.19866
2670.92909,0.20194
2672.85756,0.20080
2674.78603,0.19702
2676.71450,0.19511
2678.64297,0.19689
2680.57144,0.19999
2682.49990,0.20054
2684.42837,0.19949
2686.35684,0.19870
2688.28531,0.19777
2690.21378,0.19674
2692.14225,0.19668
2694.07072,0.19797
2695.99919,0.19850
2697.92765,0.19773
2699.85612,0.19825
2701.78459,0.20024
2703.71306,0.20136
2705.64153,0.20187
2707.57000,0.20323
2709.49847,0.20428
2711.42693,0.20521
2713.35540,0.20696
2715.28387,0.20710
2717.21234,0.20417
2719.14081,0.20057
2721.06928,0.19923
2722.99775,0.20025
2724.92622,0.20240
2726.85468,0.20494
2728.78315,0.20574
2730.71162,0.20287
2732.64009,0.19902
2734.56856,0.19859
2736.49703,0.20067
2738.42550,0.20188
2740.35396,0.20097
2742.28243,0.19937
2744.21090,0.19868
2746.13937,0.19896
2748.06784,0.20077
2749.99631,0.20313
2751.92478,0.20433
2753.85325,0.20614
2755.78171,0.21065
2757.71018,0.21350
2759.63865,0.21163
2761.56712,0.21076
2763.49559,0.21179
2765.42406,0.21029
2767.35253,0.20766
2769.28099,0.20735
2771.20946,0.20952
2773.13793,0.21112
2775.06640,0.20996
2776.99487,0.20786
2778.92334,0.20755
2780.85181,0.20880
2782.78028,0.20923
2784.70874,0.20771
2786.63721,0.20458
2788.56568,0.20167
2790.49415,0.20103
2792.42262,0.20129
2794.35109,0.20151
2796.27956,0.20260
2798.20802,0.20398
2800.13649,0.20663
2802.06496,0.21007
2803.99343,0.20965
2805.92190,0.20597
2807.85037,0.20523
2809.77884,0.20852
2811.70731,0.21211
2813.63577,0.21437
2815.56424,0.21621
2817.49271,0.21802
2819.42118,0.21653
2821.34965,0.21060
2823.27812,0.20549
2825.20659,0.20399
2827.13505,0.20524
2829.06352,0.20683
2830.99199,0.20590
2832.92046,0.20418
2834.84893,0.20491
2836.77740,0.20878
2838.70587,0.21310
2840.63433,0.21391
2842.56280,0.21140
2844.49127,0.20816
2846.41974,0.20580
2848.34821,0.20543
2850.27668,0.20725
2852.20515,0.20831
2854.13362,0.20395
2856.06208,0.19786
2857.99055,0.19890
2859.91902,0.20441
2861.84749,0.20639
2863.77596,0.20492
2865.70443,0.20323
2867.63290,0.20378
2869.56136,0.20693
2871.48983,0.20765
2873.41830,0.20380
2875.34677,0.20244
2877.27524,0.20623
2879.20371,0.20728
2881.13218,0.20195
2883.06065,0.19647
2884.98911,0.19652
2886.91758,0.20110
2888.84605,0.20643
2890.77452,0.20961
2892.70299,0.20946
2894.63146,0.20639
2896.55993,0.20278
2898.48839,0.20270
2900.41686,0.20587
2902.34533,0.20611
2904.27380,0.20046
2906.20227,0.19536
2908.13074,0.19635
2910.05921,0.20089
2911.98768,0.20591
2913.91614,0.20573
2915.84461,0.19671
2917.77308,0.19004
2919.70155,0.19583
2921.63002,0.20775
2923.55849,0.21243
2925.48696,0.20482
2927.41542,0.19652
2929.34389,0.19973
2931.27236,0.20795
2933.20083,0.20810
2935.12930,0.19876
2937.05777,0.18978
2938.98624,0.19193
2940.91471,0.20014
2942.84317,0.20345
2944.77164,0.20119
2946.70011,0.19391
2948.62858,0.19061
2950.55705,0.19879
2952.48552,0.20874
2954.41399,0.21096
2956.34245,0.20004
2958.27092,0.18642
2960.19939,0.18809
2962.12786,0.19922
2964.05633,0.20659
2965.98480,0.20514
2967.91327,0.20108
2969.84174,0.20459
2971.77020,0.20791
2973.69867,0.20549
2975.62714,0.20083
2977.55561,0.19470
2979.48408,0.19678
2981.41255,0.20615
2983.34102,0.20837
2985.26948,0.20343
2987.19795,0.19858
2989.12642,0.20141
2991.05489,0.21337
2992.98336,0.22066
2994.91183,0.21581
2996.84030,0.20686
2998.76877,0.20230
3000.69723,0.20333
3002.62570,0.20708
3004.55417,0.21206
3006.48264,0.21343
3008.41111,0.20653
3010.33958,0.19307
3012.26805,0.17170
3014.19651,0.14073
3016.12498,0.11695
3018.05345,0.12818
3019.98192,0.16783
3021.91039,0.19942
3023.83886,0.21171
3025.76733,0.21507
3027.69579,0.21547
3029.62426,0.21702
3031.55273,0.22003
3033.48120,0.22078
3035.40967,0.21887
3037.33814,0.21514
3039.26661,0.21089
3041.19508,0.21045
3043.12354,0.21331
3045.05201,0.21085
3046.98048,0.20349
3048.90895,0.20364
3050.83742,0.21139
3052.76589,0.21523
3054.69436,0.21061
3056.62282,0.20058
3058.55129,0.19482
3060.47976,0.19879
3062.40823,0.20519
3064.33670,0.20331
3066.26517,0.19441
3068.19364,0.19492
3070.12211,0.20644
3072.05057,0.21161
3073.97904,0.20372
3075.90751,0.19405
3077.83598,0.19547
3079.76445,0.20284
3081.69292,0.20566
3083.62139,0.20069
3085.54985,0.19150
3087.47832,0.19104
3089.40679,0.20020
3091.33526,0.20568
3093.26373,0.20034
3095.19220,0.19384
3097.12067,0.19978
3099.04914,0.20998
3100.97760,0.20856
3102.90607,0.19781
3104.83454,0.19600
3106.76301,0.20585
3108.69148,0.21188
3110.61995,0.20842
3112.54842,0.19972
3114.47688,0.19729
3116.40535,0.20538
3118.33382,0.21136
3120.26229,0.20783
3122.19076,0.20348
3124.11923,0.21088
3126.04770,0.22299
3127.97617,0.22233
3129.90463,0.21258
3131.83310,0.20984
3133.76157,0.21354
3135.69004,0.21442
3137.61851,0.21290
3139.54698,0.20985
3141.47545,0.20530
3143.40391,0.20348
3145.33238,0.20443
3147.26085,0.20419
3149.18932,0.20456
3151.11779,0.21005
3153.04626,0.21708
3154.97473,0.21860
3156.90320,0.21644
3158.83166,0.21760
3160.76013,0.22046
3162.68860,0.21892
3164.61707,0.21537
3166.54554,0.21525
3168.47401,0.21813
3170.40248,0.22043
3172.33094,0.22108
3174.25941,0.22161
3176.18788,0.22124
3178.11635,0.21934
3180.04482,0.21978
3181.97329,0.22277
3183.90176,0.22434
3185.83022,0.22454
3187.75869,0.22171
3189.68716,0.21379
3191.61563,0.20777
3193.54410,0.20909
3195.47257,0.21331
3197.40104,0.21586
3199.32951,0.21836
3201.25797,0.22317
3203.18644,0.22742
3205.11491,0.22525
3207.04338,0.21644
3208.97185,0.20989
3210.90032,0.21337
3212.82879,0.22139
3214.75725,0.22191
3216.68572,0.21579
3218.61419,0.21240
3220.54266,0.21179
3222.47113,0.21139
3224.39960,0.21103
3226.32807,0.20901
3228.25654,0.20581
3230.18500,0.20589
3232.11347,0.21194
3234.04194,0.21959
3235.97041,0.22223
3237.89888,0.21952
3239.82735,0.21543
3241.75582,0.21160
3243.68428,0.20885
3245.61275,0.20966
3247.54122,0.21422
3249.46969,0.21744
3251.39816,0.21723
3253.32663,0.21615
3255.25510,0.21383
3257.18357,0.21394
3259.11203,0.21932
3261.04050,0.22399
3262.96897,0.22441
3264.89744,0.21948
3266.82591,0.21149
3268.75438,0.20998
3270.68285,0.21582
3272.61131,0.21920
3274.53978,0.21872
3276.46825,0.21823
3278.39672,0.21691
3280.32519,0.21544
3282.25366,0.21651
3284.18213,0.21890
3286.11060,0.21888
3288.03906,0.21653
3289.96753,0.21442
3291.89600,0.21425
3293.82447,0.21492
3295.75294,0.21529
3297.68141,0.21689
3299.60988,0.21764
3301.53834,0.21664
3303.46681,0.21593
3305.39528,0.21507
3307.32375,0.21594
3309.25222,0.21807
3311.18069,0.21515
3313.10916,0.20897
3315.03763,0.20889
3316.96609,0.21602
3318.89456,0.22208
3320.82303,0.21940
3322.75150,0.21215
3324.67997,0.21150
3326.60844,0.21637
3328.53691,0.21946
3330.46537,0.21852
3332.39384,0.21444
3334.32231,0.21298
3336.25078,0.21515
3338.17925,0.21625
3340.10772,0.21648
3342.03619,0.21656
3343.96466,0.21603
3345.89312,0.21454
3347.82159,0.21274
3349.75006,0.21263
3351.67853,0.21465
3353.60700,0.21751
3355.53547,0.21936
3357.46394,0.21858
3359.39240,0.21485
3361.32087,0.21248
3363.24934,0.21321
3365.17781,0.21289
3367.10628,0.21249
3369.03475,0.21391
3370.96322,0.21498
3372.89168,0.21518
3374.82015,0.21479
3376.74862,0.21438
3378.67709,0.21634
3380.60556,0.21920
3382.53403,0.22031
3384.46250,0.22317
3386.39097,0.22484
3388.31943,0.21616
3390.24790,0.20604
3392.17637,0.20880
3394.10484,0.21586
3396.03331,0.21361
3397.96178,0.20603
3399.89025,0.20356
3401.81871,0.20836
3403.74718,0.21329
3405.67565,0.21084
3407.60412,0.20403
3409.53259,0.20156
3411.46106,0.20527
3413.38953,0.21045
3415.31800,0.21051
3417.24646,0.20799
3419.17493,0.21213
3421.10340,0.21980
3423.03187,0.22085
3424.96034,0.21340
3426.88881,0.20417
3428.81728,0.19916
3430.74574,0.19910
3432.67421,0.20225
3434.60268,0.20647
3436.53115,0.21195
3438.45962,0.21704
3440.38809,0.21853
3442.31656,0.21681
3444.24503,0.21230
3446.17349,0.20676
3448.10196,0.20427
3450.03043,0.20231
3451.95890,0.19755
3453.88737,0.19390
3455.81584,0.19278
3457.74431,0.19284
3459.67277,0.19557
3461.60124,0.19881
3463.52971,0.19770
3465.45818,0.19400
3467.38665,0.19335
3469.31512,0.19712
3471.24359,0.20007
3473.17206,0.19711
3475.10052,0.19365
3477.02899,0.19788
3478.95746,0.20569
3480.88593,0.20524
3482.81440,0.19627
3484.74287,0.19199
3486.67134,0.19266
3488.59980,0.19008
3490.52827,0.18685
3492.45674,0.18557
3494.38521,0.18527
3496.31368,0.18605
3498.24215,0.18387
3500.17062,0.18054
3502.09909,0.18483
3504.02755,0.19144
3505.95602,0.18859
3507.88449,0.17985
3509.81296,0.17426
3511.74143,0.17644
3513.66990,0.18199
3515.59837,0.18349
3517.52683,0.18121
3519.45530,0.18035
3521.38377,0.18256
3523.31224,0.18482
3525.24071,0.18438
3527.16918,0.18192
3529.09765,0.17902
3531.02611,0.17644
3532.95458,0.17393
3534.88305,0.17108
3536.81152,0.16971
3538.73999,0.17176
3540.66846,0.17395
3542.59693,0.17353
3544.52540,0.17455
3546.45386,0.17736
3548.38233,0.17628
3550.31080,0.17442
3552.23927,0.17387
3554.16774,0.17263
3556.09621,0.17429
3558.02468,0.17769
3559.95314,0.17807
3561.88161,0.17756
3563.81008,0.18049
3565.73855,0.18757
3567.66702,0.18944
3569.59549,0.17935
3571.52396,0.16931
3573.45243,0.16384
3575.38089,0.16047
3577.30936,0.16172
3579.23783,0.16579
3581.16630,0.16313
3583.09477,0.15664
3585.02324,0.15677
3586.95171,0.16277
3588.88017,0.16429
3590.80864,0.16131
3592.73711,0.16030
3594.66558,0.16014
3596.59405,0.15638
3598.52252,0.15292
3600.45099,0.15308
3602.37946,0.15406
3604.30792,0.15874
3606.23639,0.16854
3608.16486,0.17321
3610.09333,0.16779
3612.02180,0.16332
3613.95027,0.16421
3615.87874,0.16685
3617.80720,0.16716
3619.73567,0.15885
3621.66414,0.14689
3623.59261,0.14395
3625.52108,0.15015
3627.44955,0.16281
3629.37802,0.17348
3631.30649,0.17016
3633.23495,0.16293
3635.16342,0.15486
3637.09189,0.14577
3639.02036,0.13949
3640.94883,0.13932
3642.87730,0.14258
3644.80577,0.14521
3646.73423,0.15268
3648.66270,0.16551
3650.59117,0.15789
3652.51964,0.14346
3654.44811,0.14329
3656.37658,0.14937
3658.30505,0.14761
3660.23352,0.14217
3662.16198,0.13931
3664.09045,0.13671
3666.01892,0.13443
3667.94739,0.13731
3669.87586,0.14557
3671.80433,0.15012
3673.73280,0.15504
3675.66126,0.16047
3677.58973,0.15476
3679.51820,0.14781
3681.44667,0.14182
3683.37514,0.13469
3685.30361,0.13319
3687.23208,0.14327
3689.16055,0.15929
3691.08901,0.16095
3693.01748,0.15146
3694.94595,0.14473
3696.87442,0.14177
3698.80289,0.14015
3700.73136,0.13931
3702.65983,0.13945
3704.58829,0.13823
3706.51676,0.13682
3708.44523,0.14184
3710.37370,0.15125
3712.30217,0.14742
3714.23064,0.13573
3716.15911,0.13137
3718.08757,0.13387
3720.01604,0.13950
3721.94451,0.14238
3723.87298,0.13858
3725.80145,0.13232
3727.72992,0.13127
3729.65839,0.13863
3731.58686,0.15296
3733.51532,0.16797
3735.44379,0.17093
3737.37226,0.15957
3739.30073,0.14821
3741.22920,0.14265
3743.15767,0.14375
3745.08614,0.15193
3747.01460,0.15588
3748.94307,0.15264
3750.87154,0.14443
3752.80001,0.13523
3754.72848,0.13317
3756.65695,0.13706
3758.58542,0.14084
3760.51389,0.13920
3762.44235,0.13391
3764.37082,0.12861
3766.29929,0.12739
3768.22776,0.13044
3770.15623,0.12831
3772.08470,0.12130
3774.01317,0.12045
3775.94163,0.12569
3777.87010,0.13181
3779.79857,0.13363
3781.72704,0.13224
3783.65551,0.13441
3785.58398,0.13574
3787.51245,0.13080
3789.44092,0.12662
3791.36938,0.12615
3793.29785,0.12690
3795.22632,0.13034
3797.15479,0.13529
3799.08326,0.13813
3801.01173,0.14083
3802.94020,0.14001
3804.86866,0.13615
3806.79713,0.13369
3808.72560,0.13024
3810.65407,0.12657
3812.58254,0.12629
3814.51101,0.13053
3816.43948,0.13789
3818.36795,0.14340
3820.29641,0.14101
3822.22488,0.13319
3824.15335,0.13621
3826.08182,0.14222
3828.01029,0.13871
3829.93876,0.13001
3831.86723,0.12490
3833.79569,0.12711
3835.72416,0.13392
3837.65263,0.14128
3839.58110,0.14220
3841.50957,0.13397
3843.43804,0.12706
3845.36651,0.12680
3847.29498,0.12878
3849.22344,0.12924
3851.15191,0.13141
3853.08038,0.14023
3855.00885,0.14096
3856.93732,0.13358
3858.86579,0.13000
3860.79426,0.13241
3862.72272,0.14051
3864.65119,0.14593
3866.57966,0.14277
3868.50813,0.14063
3870.43660,0.14290
3872.36507,0.14253
3874.29354,0.13746
3876.22200,0.12885
3878.15047,0.12155
3880.07894,0.11828
3882.00741,0.11899
3883.93588,0.12334
3885.86435,0.12521
3887.79282,0.12375
3889.72129,0.12647
3891.64975,0.12691
3893.57822,0.11962
3895.50669,0.11859
3897.43516,0.12804
3899.36363,0.13837
3901.29210,0.13854
3903.22057,0.13034
3905.14903,0.12296
3907.07750,0.12124
3909.00597,0.12205
3910.93444,0.12012
3912.86291,0.11439
3914.79138,0.11077
3916.71985,0.11234
3918.64832,0.11517
3920.57678,0.11666
3922.50525,0.11841
3924.43372,0.11989
3926.36219,0.11668
3928.29066,0.11342
3930.21913,0.11488
3932.14760,0.11573
3934.07606,0.11645
3936.00453,0.11835
3937.93300,0.11646
3939.86147,0.11293
3941.78994,0.11533
3943.71841,0.12051
3945.64688,0.11887
3947.57535,0.11455
3949.50381,0.11384
3951.43228,0.11416
3953.36075,0.11362
3955.28922,0.11326
3957.21769,0.11356
3959.14616,0.11462
3961.07463,0.11409
3963.00309,0.11047
3964.93156,0.10607
3966.86003,0.10383
3968.78850,0.10763
3970.71697,0.11498
3972.64544,0.11795
3974.57391,0.11547
3976.50238,0.10856
3978.43084,0.10020
3980.35931,0.09841
3982.28778,0.10371
3984.21625,0.10661
3986.14472,0.10615
3988.07319,0.10955
3990.00166,0.11460
3991.93012,0.11455
3993.85859,0.11095
3995.78706,0.10830
3997.71553,0.10632
3999.64400,0.10315
4001.57247,0.10075
4003.50094,0.10253
4005.42941,0.10620
4007.35787,0.10811
4009.28634,0.11059
4011.21481,0.11384
4013.14328,0.11292
4015.07175,0.10751
4017.00022,0.10331
4018.92869,0.10109
4020.85715,0.09871
4022.78562,0.09904
4024.71409,0.10077
4026.64256,0.09877
4028.57103,0.09535
4030.49950,0.09649
4032.42797,0.10111
4034.35644,0.10283
4036.28490,0.10108
4038.21337,0.09819
4040.14184,0.09465
4042.07031,0.09230
4043.99878,0.08847
4045.92725,0.08465
4047.85572,0.09073
4049.78418,0.10202
4051.71265,0.10520
4053.64112,0.09889
4055.56959,0.09260
4057.49806,0.09297
4059.42653,0.09677
4061.35500,0.10139
4063.28346,0.10389
4065.21193,0.10129
4067.14040,0.09809
4069.06887,0.09725
4070.99734,0.09614
4072.92581,0.09531
4074.85428,0.09514
4076.78275,0.09393
4078.71121,0.09399
4080.63968,0.09326
4082.56815,0.09159
4084.49662,0.09449
4086.42509,0.09753
4088.35356,0.09864
4090.28203,0.10188
4092.21049,0.10381
4094.13896,0.10324
4096.06743,0.10170
4097.99590,0.09596
4099.92437,0.08744
4101.85284,0.08180
4103.78131,0.08274
4105.70978,0.08720
4107.63824,0.08435
4109.56671,0.07784
4111.49518,0.08067
4113.42365,0.08809
4115.35212,0.08998
4117.28059,0.08645
4119.20906,0.08048
4121.13752,0.07692
4123.06599,0.08256
4124.99446,0.09226
4126.92293,0.09266
4128.85140,0.08774
4130.77987,0.08866
4132.70834,0.08950
4134.63681,0.08722
4136.56527,0.09055
4138.49374,0.09689
4140.42221,0.09606
4142.35068,0.09099
4144.27915,0.09266
4146.20762,0.09794
4148.13609,0.09785
4150.06455,0.09492
4151.99302,0.09007
4153.92149,0.08366
4155.84996,0.08100
4157.77843,0.08068
4159.70690,0.08177
4161.63537,0.08769
4163.56384,0.09121
4165.49230,0.08599
4167.42077,0.08252
4169.34924,0.08655
4171.27771,0.08718
4173.20618,0.08007
4175.13465,0.07547
4177.06312,0.07684
4178.99158,0.07818
4180.92005,0.07984
4182.84852,0.08233
4184.77699,0.08123
4186.70546,0.07745
4188.63393,0.07633
4190.56240,0.07864
4192.49087,0.08196
4194.41933,0.08405
4196.34780,0.08323
4198.27627,0.08310
4200.20474,0.08177
4202.13321,0.07292
4204.06168,0.06621
4205.99015,0.07016
4207.91861,0.07677
4209.84708,0.07974
4211.77555,0.08065
4213.70402,0.07947
4215.63249,0.07633
4217.56096,0.07538
4219.48943,0.07628
4221.41789,0.07549
4223.34636,0.07547
4225.27483,0.07964
4227.20330,0.08380
4229.13177,0.08337
4231.06024,0.08168
4232.98871,0.08063
4234.91718,0.07596
4236.84564,0.06773
4238.77411,0.06635
4240.70258,0.07589
4242.63105,0.08195
4244.55952,0.07910
4246.48799,0.07703
4248.41646,0.07652
4250.34492,0.07597
4252.27339,0.07692
4254.20186,0.07589
4256.13033,0.07169
4258.05880,0.06912
4259.98727,0.06916
4261.91574,0.06848
4263.84421,0.06514
4265.77267,0.05893
4267.70114,0.05556
4269.62961,0.05904
4271.55808,0.06629
4273.48655,0.07376
4275.41502,0.07478
4277.34349,0.06931
4279.27195,0.06459
4281.20042,0.06265
4283.12889,0.06253
4285.05736,0.06150
4286.98583,0.06036
4288.91430,0.06060
4290.84277,0.06081
4292.77124,0.06239
4294.69970,0.06348
4296.62817,0.06122
4298.55664,0.05841
4300.48511,0.05717
4302.41358,0.05592
4304.34205,0.05650
4306.27052,0.06327
4308.19898,0.07065
4310.12745,0.06771
4312.05592,0.05694
4313.98439,0.05054
4315.91286,0.05041
4317.84133,0.05120
4319.76980,0.05289
4321.69827,0.05405
4323.62673,0.05231
4325.55520,0.05166
4327.48367,0.05394
4329.41214,0.05537
4331.34061,0.05165
4333.26908,0.04257
4335.19755,0.03538
4337.12601,0.03930
4339.05448,0.05321
4340.98295,0.06310
4342.91142,0.06173
4344.83989,0.05528
4346.76836,0.04968
4348.69683,0.04762
4350.62530,0.04504
4352.55376,0.03971
4354.48223,0.03796
4356.41070,0.03997
4358.33917,0.04453
4360.26764,0.05352
4362.19611,0.05971
4364.12458,0.05835
4366.05304,0.05396
4367.98151,0.04580
4369.90998,0.03763
4371.83845,0.03848
4373.76692,0.04208
4375.69539,0.03711
4377.62386,0.02944
4379.55232,0.03293
4381.48079,0.04327
4383.40926,0.04530
4385.33773,0.03787
4387.26620,0.03159
4389.19467,0.03378
4391.12314,0.03760
4393.05161,0.03537
4394.98007,0.03593
4396.90854,0.04465
4398.83701,0.05288
4400.76548,0.05292
4402.69395,0.04495
4404.62242,0.03437
4406.55089,0.02284
4408.47935,0.01481
4410.40782,0.01688
4412.33629,0.02502
4414.26476,0.03303
4416.19323,0.03877
4418.12170,0.03927
4420.05017,0.03128
4421.97864,0.02128
4423.90710,0.02052
4425.83557,0.02800
4427.76404,0.03523
4429.69251,0.03867
4431.62098,0.03707
4433.54945,0.02917
4435.47792,0.02352
4437.40638,0.02790
4439.33485,0.03646
4441.26332,0.04164
4443.19179,0.03950
4445.12026,0.03238
4447.04873,0.03078
4448.97720,0.03631
4450.90567,0.03903
4452.83413,0.03964
4454.76260,0.04416
4456.69107,0.04601
4458.61954,0.04105
4460.54801,0.03777
4462.47648,0.03587
4464.40495,0.02773
4466.33341,0.01967
4468.26188,0.01837
4470.19035,0.02001
4472.11882,0.02018
4474.04729,0.02132
4475.97576,0.02240
4477.90423,0.01767
4479.83270,0.01630
4481.76116,0.02571
4483.68963,0.03581
4485.61810,0.03663
4487.54657,0.03053
4489.47504,0.02573
4491.40351,0.02307
4493.33198,0.01892
4495.26044,0.01410
4497.18891,0.01109
4499.11738,0.00961
4501.04585,0.01146
4502.97432,0.01589
4504.90279,0.01700
4506.83126,0.01736
4508.75973,0.02264
4510.68819,0.03140
4512.61666,0.03857
4514.54513,0.03739
4516.47360,0.02878
4518.40207,0.02414
4520.33054,0.02431
4522.25901,0.02121
4524.18747,0.01856
4526.11594,0.01768
4528.04441,0.01129
4529.97288,0.00161
4531.90135,-0.00486
4533.82982,-0.00375
4535.75829,0.00782
4537.68676,0.02011
4539.61522,0.02341
4541.54369,0.02411
4543.47216,0.02520
4545.40063,0.02499
4547.32910,0.02548
4549.25757,0.02300
4551.18604,0.01586
4553.11450,0.00839
4555.04297,0.00251
4556.97144,0.00123
4558.89991,0.00662
4560.82838,0.01283
4562.75685,0.01503
4564.68532,0.01715
4566.61378,0.01866
4568.54225,0.01612
4570.47072,0.01770
4572.39919,0.02144
4574.32766,0.01526
4576.25613,0.00618
4578.18460,0.00417
4580.11307,0.00370
4582.04153,0.00015
4583.97000,-0.00261
4585.89847,-0.00136
4587.82694,0.00336
4589.75541,0.00480
4591.68388,-0.00130
4593.61235,-0.00414
4595.54081,0.00071
4597.46928,0.00527
4599.39775,0.00953
4601.32622,0.01532
4603.25469,0.01928
4605.18316,0.02089
4607.11163,0.02339
4609.04010,0.02490
4610.96856,0.02262
4612.89703,0.02114
4614.82550,0.02196
4616.75397,0.02343
4618.68244,0.02390
4620.61091,0.01897
4622.53938,0.01166
4624.46784,0.01014
4626.39631,0.01506
4628.32478,0.01666
4630.25325,0.00890
4632.18172,0.00253
4634.11019,0.00488
4636.03866,0.00622
4637.96713,0.00163
4639.89559,-0.00381
4641.82406,-0.00350
4643.75253,0.00671
4645.68100,0.01491
4647.60947,0.01309
4649.53794,0.01533
4651.46641,0.02194
4653.39487,0.02104
4655.32334,0.01690
4657.25181,0.01902
4659.18028,0.02116
4661.10875,0.00993
4663.03722,-0.00284
4664.96569,-0.00143
4666.89416,0.00385
4668.82262,0.00613
4670.75109,0.00715
4672.67956,0.00376
4674.60803,-0.00381
4676.53650,-0.00832
4678.46497,0.00139
4680.39344,0.01414
4682.32190,0.00811
4684.25037,-0.00615
4686.17884,-0.01302
4688.10731,-0.01133
4690.03578,-0.00278
4691.96425,0.00450
4693.89272,0.00682
4695.82119,0.00483
4697.74965,0.00492
4699.67812,0.00970
4701.60659,0.00780
4703.53506,0.00002
4705.46353,-0.00595
4707.39200,-0.01045
4709.32047,-0.01001
4711.24893,-0.00398
4713.17740,0.00344
4715.10587,0.01054
4717.03434,0.01330
4718.96281,0.01311
4720.89128,0.01312
4722.81975,0.00897
4724.74821,0.00192
4726.67668,-0.00084
4728.60515,0.00621
4730.53362,0.01789
4732.46209,0.01855
4734.39056,0.00909
4736.31903,0.00526
4738.24750,0.00681
4740.17596,0.00536
4742.10443,0.00472
4744.03290,0.00658
4745.96137,0.00900
4747.88984,0.01172
4749.81831,0.00755
4751.74678,-0.00076
4753.67524,-0.00619
4755.60371,-0.00971
4757.53218,-0.00409
4759.46065,0.00497
4761.38912,-0.00113
4763.31759,-0.01411
4765.24606,-0.01452
4767.17453,-0.00423
4769.10299,0.00634
4771.03146,0.01456
4772.95993,0.01964
4774.88840,0.02291
4776.81687,0.02786
4778.74534,0.02612
4780.67381,0.01638
4782.60227,0.01212
4784.53074,0.00935
4786.45921,0.00201
4788.38768,0.00022
4790.31615,0.00521
4792.24462,0.00785
4794.17309,0.01494
4796.10156,0.03128
4798.03002,0.03604
4799.95849,0.02328
4801.88696,0.00944
4803.81543,0.00143
4805.74390,-0.00088
4807.67237,-0.00192
4809.60084,-0.00654
4811.52930,-0.00585
4813.45777,0.00586
4815.38624,0.01786
4817.31471,0.02265
4819.24318,0.02194
4821.17165,0.02333
4823.10012,0.02643
4825.02859,0.01645
4826.95705,-0.00016
4828.88552,-0.00490
4830.81399,-0.00341
4832.74246,-0.00560
4834.67093,-0.01046
4836.59940,-0.01366
4838.52787,-0.01302
4840.45633,-0.01011
4842.38480,-0.00627
4844.31327,-0.00303
4846.24174,0.00097
4848.17021,0.00981
4850.09868,0.02409
4852.02715,0.03671
4853.95562,0.03656
4855.88408,0.02548
4857.81255,0.01076
4859.74102,-0.00450
4861.66949,-0.01075
4863.59796,-0.00463
4865.52643,0.00094
4867.45490,0.00174
4869.38336,0.00433
4871.31183,-0.00053
4873.24030,-0.01855
4875.16877,-0.03048
4877.09724,-0.02028
4879.02571,0.00427
4880.95418,0.01865
4882.88265,0.01727
4884.81111,0.01858
4886.73958,0.02455
4888.66805,0.02085
4890.59652,0.01072
4892.52499,0.00785
4894.45346,0.00868
4896.38193,0.00984
4898.31039,0.01564
4900.23886,0.01788
4902.16733,0.01025
4904.09580,0.00192
4906.02427,0.00100
4907.95274,0.00555
4909.88121,0.01537
4911.80967,0.02692
4913.73814,0.02734
4915.66661,0.01685
4917.59508,0.01095
4919.52355,0.01695
4921.45202,0.02172
4923.38049,0.01186
4925.30896,-0.00081
4927.23742,-0.00157
4929.16589,0.01028
4931.09436,0.02645
4933.02283,0.02778
4934.95130,0.01244
4936.87977,0.00465
4938.80824,0.01250
4940.73670,0.01740
4942.66517,0.00793
4944.59364,-0.00308
4946.52211,0.00412
4948.45058,0.02275
4950.37905,0.02753
4952.30752,0.01876
4954.23599,0.01863
4956.16445,0.02333
4958.09292,0.01738
4960.02139,0.01659
4961.94986,0.02841
4963.87833,0.03396
4965.80680,0.02819
4967.73527,0.01560
4969.66373,0.00060
4971.59220,-0.00344
4973.52067,0.00627
4975.44914,0.01456
4977.37761,0.01486
4979.30608,0.01634
4981.23455,0.02122
4983.16302,0.01718
4985.09148,0.00552
4987.01995,0.00036
4988.94842,-0.00147
4990.87689,-0.00524
4992.80536,-0.00559
4994.73383,-0.00215
4996.66230,0.00062
4998.59076,0.00644
5000.51923,0.01961
5002.44770,0.03473
5004.37617,0.03956
5006.30464,0.02300
5008.23311,-0.00069
5010.16158,-0.00758
5012.09005,0.00217
5014.01851,0.01646
5015.94698,0.02322
5017.87545,0.01550
5019.80392,0.00862
5021.73239,0.01206
5023.66086,0.01012
5025.58933,0.00573
5027.51779,0.00985
5029.44626,0.01588
5031.37473,0.02025
5033.30320,0.01997
5035.23167,0.01546
5037.16014,0.02219
5039.08861,0.04377
5041.01708,0.05199
5042.94554,0.02905
5044.87401,0.00164
5046.80248,-0.00125
5048.73095,0.01392
5050.65942,0.02272
5052.58789,0.01366
5054.51636,0.00501
5056.44482,0.01470
5058.37329,0.02587
5060.30176,0.02721
5062.23023,0.02993
5064.15870,0.03121
5066.08717,0.02822
5068.01564,0.02745
5069.94410,0.02733
5071.87257,0.02865
5073.80104,0.03116
5075.72951,0.03149
5077.65798,0.02759
5079.58645,0.01936
5081.51492,0.01908
5083.44339,0.02723
5085.37185,0.03106
5087.30032,0.03305
5089.22879,0.03434
5091.15726,0.01914
5093.08573,-0.00795
5095.01420,-0.01475
5096.94267,-0.00126
5098.87113,0.00470
5100.79960,0.00326
5102.72807,0.01318
5104.65654,0.03446
5106.58501,0.04945
5108.51348,0.04331
5110.44195,0.02326
5112.37042,0.01720
5114.29888,0.02366
5116.22735,0.02286
5118.15582,0.02337
5120.08429,0.03648
5122.01276,0.05770
5123.94123,0.06754
5125.86970,0.05460
5127.79816,0.03361
5129.72663,0.02081
5131.65510,0.01601
5133.58357,0.01413
5135.51204,0.01803
5137.44051,0.03381
5139.36898,0.05556
5141.29745,0.06329
5143.22591,0.04881
5145.15438,0.02834
5147.08285,0.01984
5149.01132,0.02378
5150.93979,0.03169
5152.86826,0.04050
5154.79673,0.04848
5156.72519,0.05044
5158.65366,0.04735
5160.58213,0.04387
5162.51060,0.03963
5164.43907,0.03424
5166.36754,0.02067
5168.29601,0.00699
5170.22448,0.01408
5172.15294,0.02460
5174.08141,0.00681
5176.00988,-0.02633
5177.93835,-0.03269
5179.86682,-0.00197
5181.79529,0.03683
5183.72376,0.05282
5185.65222,0.04187
5187.58069,0.03021
5189.50916,0.02511
5191.43763,0.01884
5193.36610,0.02194
5195.29457,0.04041
5197.22304,0.05940
5199.15151,0.06326
5201.07997,0.04553
5203.00844,0.01560
5204.93691,0.01335
5206.86538,0.04930
5208.79385,0.07200
5210.72232,0.07108
5212.65079,0.06377
5214.57925,0.04578
5216.50772,0.02614
5218.43619,0.02364
5220.36466,0.03640
5222.29313,0.04337
5224.22160,0.03124
5226.15007,0.02253
5228.07854,0.02938
5230.00700,0.02761
5231.93547,0.02434
5233.86394,0.03598
5235.79241,0.04378
5237.72088,0.03259
5239.64935,0.02569
5241.57782,0.03626
5243.50628,0.03791
5245.43475,0.02848
5247.36322,0.03661
5249.29169,0.05211
5251.22016,0.05469
5253.14863,0.05792
5255.07710,0.05739
5257.00556,0.04553
5258.93403,0.04358
5260.86250,0.05609
5262.79097,0.07344
5264.71944,0.08486
5266.64791,0.07506
5268.57638,0.05102
5270.50485,0.03477
5272.43331,0.03325
5274.36178,0.02974
5276.29025,0.02452
5278.21872,0.03994
5280.14719,0.06126
5282.07566,0.06274
5284.00413,0.06594
5285.93259,0.08547
5287.86106,0.09132
5289.78953,0.06330
5291.71800,0.02882
5293.64647,0.01627
5295.57494,0.01546
5297.50341,0.02838
5299.43188,0.05966
5301.36034,0.07991
5303.28881,0.07040
5305.21728,0.05690
5307.14575,0.05804
5309.07422,0.05882
5311.00269,0.05171
5312.93116,0.04348
5314.85962,0.04058
5316.78809,0.04351
5318.71656,0.03604
5320.64503,0.02783
5322.57350,0.03876
5324.50197,0.05152
5326.43044,0.05948
5328.35891,0.06951
5330.28737,0.06937
5332.21584,0.06497
5334.14431,0.06987
5336.07278,0.06802
5338.00125,0.04901
5339.92972,0.02931
5341.85819,0.01931
5343.78665,0.02754
5345.71512,0.05457
5347.64359,0.07824
5349.57206,0.08965
5351.50053,0.08495
5353.42900,0.06582
5355.35747,0.04692
5357.28594,0.04862
5359.21440,0.07048
5361.14287,0.08686
5363.07134,0.09464
5364.99981,0.10300
5366.92828,0.09558
5368.85675,0.07754
5370.78522,0.07116
5372.71368,0.06445
5374.64215,0.04478
5376.57062,0.04228
5378.49909,0.06155
5380.42756,0.07681
5382.35603,0.08484
5384.28450,0.08185
5386.21297,0.08315
5388.14143,0.09371
5390.06990,0.08347
5391.99837,0.05906
5393.92684,0.04360
5395.85531,0.03771
5397.78378,0.04611
5399.71225,0.06413
5401.64071,0.07000
5403.56918,0.07512
5405.49765,0.09573
5407.42612,0.10420
5409.35459,0.08871
5411.28306,0.06925
5413.21153,0.05107
5415.13999,0.04568
5417.06846,0.06118
5418.99693,0.07653
5420.92540,0.08016
5422.85387,0.07905
5424.78234,0.07306
5426.71081,0.07007
5428.63928,0.08000
5430.56774,0.07907
5432.49621,0.06394
5434.42468,0.06026
5436.35315,0.06234
5438.28162,0.06230
5440.21009,0.07636
5442.13856,0.10212
5444.06702,0.11938
5445.99549,0.11580
5447.92396,0.10230
5449.85243,0.10398
5451.78090,0.11168
5453.70937,0.11010
5455.63784,0.09954
5457.56631,0.08609
5459.49477,0.08452
5461.42324,0.08745
5463.35171,0.07957
5465.28018,0.06391
5467.20865,0.04823
5469.13712,0.05324
5471.06559,0.09237
5472.99405,0.13781
5474.92252,0.15461
5476.85099,0.13091
5478.77946,0.08898
5480.70793,0.05634
5482.63640,0.03844
5484.56487,0.02830
5486.49334,0.03238
5488.42180,0.05300
5490.35027,0.06881
5492.27874,0.06522
5494.20721,0.05366
5496.13568,0.04697
5498.06415,0.05227
5499.99262,0.06125
5501.92108,0.05726
5503.84955,0.06034
5505.77802,0.07807
5507.70649,0.08287
5509.63496,0.08783
5511.56343,0.12183
5513.49190,0.15845
5515.42037,0.14650
5517.34883,0.09343
5519.27730,0.06848
5521.20577,0.08679
5523.13424,0.08782
5525.06271,0.05483
5526.99118,0.03795
5528.91965,0.05363
5530.84811,0.07493
5532.77658,0.08465
5534.70505,0.07735
5536.63352,0.06739
5538.56199,0.07553
5540.49046,0.07978
5542.41893,0.05723
5544.34740,0.03286
5546.27586,0.02309
5548.20433,0.02425
5550.13280,0.04802
5552.06127,0.07056
5553.98974,0.05577
5555.91821,0.04486
5557.84668,0.07899
5559.77514,0.11522
5561.70361,0.11040
5563.63208,0.06297
5565.56055,0.00888
5567.48902,0.01138
5569.41749,0.05754
5571.34596,0.06967
5573.27443,0.04401
5575.20289,0.02429
5577.13136,0.01660
5579.05983,0.02241
5580.98830,0.03874
5582.91677,0.04686
5584.84524,0.05018
5586.77371,0.04892
5588.70217,0.04357
5590.63064,0.03857
5592.55911,0.02808
5594.48758,0.03430
5596.41605,0.07015
5598.34452,0.10144
5600.27299,0.10492
5602.20145,0.09947
5604.12992,0.09637
5606.05839,0.08959
5607.98686,0.09079
5609.91533,0.11537
5611.84380,0.16473
5613.77227,0.19256
5615.70074,0.15426
5617.62920,0.09766
5619.55767,0.07449
5621.48614,0.07070
5623.41461,0.07259
5625.34308,0.08369
5627.27155,0.08246
5629.20002,0.06091
5631.12848,0.06151
5633.05695,0.08000
5634.98542,0.08330
5636.91389,0.07933
5638.84236,0.05971
5640.77083,0.04056
5642.69930,0.06416
5644.62777,0.09856
5646.55623,0.09606
5648.48470,0.07754
5650.41317,0.07062
5652.34164,0.05156
5654.27011,0.02023
5656.19858,0.02013
5658.12705,0.06005
5660.05551,0.10307
5661.98398,0.11713
5663.91245,0.11031
5665.84092,0.10418
5667.76939,0.10663
5669.69786,0.10191
5671.62633,0.07397
5673.55480,0.04666
5675.48326,0.04456
5677.41173,0.05614
5679.34020,0.06720
5681.26867,0.07873
5683.19714,0.08154
5685.12561,0.06757
5687.05408,0.05227
5688.98254,0.05909
5690.91101,0.07343
5692.83948,0.06762
5694.76795,0.06868
5696.69642,0.09985
5698.62489,0.12337
5700.55336,0.11189
5702.48183,0.08241
5704.41029,0.05762
5706.33876,0.05661
5708.26723,0.07736
5710.19570,0.09165
5712.12417,0.08670
5714.05264,0.08737
5715.98111,0.10941
5717.90957,0.11244
5719.83804,0.07597
5721.76651,0.05119
5723.69498,0.05558
5725.62345,0.05591
5727.55192,0.04965
5729.48039,0.04993
5731.40886,0.07004
5733.33732,0.11611
5735.26579,0.14938
5737.19426,0.14199
5739.12273,0.11902
5741.05120,0.10232
5742.97967,0.09570
5744.90814,0.10453
5746.83660,0.11651
5748.76507,0.09663
5750.69354,0.06121
5752.62201,0.04680
5754.55048,0.05549
5756.47895,0.08674
5758.40742,0.10798
5760.33588,0.10253
5762.26435,0.09264
5764.19282,0.06916
5766.12129,0.03224
5768.04976,0.03007
5769.97823,0.06370
5771.90670,0.08736
5773.83517,0.09489
5775.76363,0.09941
5777.69210,0.10676
5779.62057,0.11905
5781.54904,0.10838
5783.47751,0.06051
5785.40598,0.03745
5787.33445,0.09068
5789.26291,0.14719
5791.19138,0.14400
5793.11985,0.12182
5795.04832,0.11096
5796.97679,0.09467
5798.90526,0.06601
5800.83373,0.05191
5802.76220,0.05787
5804.69066,0.06024
5806.61913,0.06285
5808.54760,0.07700
5810.47607,0.09851
5812.40454,0.11988
5814.33301,0.12942
5816.26148,0.12265
5818.18994,0.10430
5820.11841,0.06651
5822.04688,0.02836
5823.97535,0.04253
5825.90382,0.09541
5827.83229,0.13331
5829.76076,0.13262
5831.68923,0.11003
5833.61769,0.09077
5835.54616,0.07810
5837.47463,0.06388
5839.40310,0.04981
5841.33157,0.05990
5843.26004,0.09428
5845.18851,0.12404
5847.11697,0.13137
5849.04544,0.10546
5850.97391,0.07659
5852.90238,0.07348
5854.83085,0.07525
5856.75932,0.07494
5858.68779,0.06974
5860.61626,0.05885
5862.54472,0.07060
5864.47319,0.09063
5866.40166,0.08730
5868.33013,0.08291
5870.25860,0.07943
5872.18707,0.06108
5874.11554,0.04270
5876.04400,0.04281
5877.97247,0.06091
5879.90094,0.06487
5881.82941,0.04853
5883.75788,0.06048
5885.68635,0.09813
5887.61482,0.09728
5889.54329,0.03624
5891.47175,-0.01429
5893.40022,0.02066
5895.32869,0.09207
5897.25716,0.12718
5899.18563,0.14603
5901.11410,0.13944
5903.04257,0.08378
5904.97103,0.03835
5906.89950,0.02932
5908.82797,0.02451
5910.75644,0.02748
5912.68491,0.05857
5914.61338,0.07789
5916.54185,0.05554
5918.47032,0.03815
5920.39878,0.03790
5922.32725,0.02275
5924.25572,0.01877
5926.18419,0.06139
5928.11266,0.12080
5930.04113,0.15471
5931.96960,0.14729
5933.89806,0.11300
5935.82653,0.08700
5937.75500,0.06294
5939.68347,0.04205
5941.61194,0.06522
5943.54041,0.11932
5945.46888,0.15553
5947.39734,0.16104
5949.32581,0.12936
5951.25428,0.07569
5953.18275,0.05124
5955.11122,0.06591
5957.03969,0.08518
5958.96816,0.08648
5960.89663,0.06573
5962.82509,0.04643
5964.75356,0.06288
5966.68203,0.09748
5968.61050,0.09724
5970.53897,0.07691
5972.46744,0.08298
5974.39591,0.10079
5976.32437,0.10757
5978.25284,0.11618
5980.18131,0.12679
5982.10978,0.12330
5984.03825,0.10219
5985.96672,0.08804
5987.89519,0.09781
5989.82366,0.10418
5991.75212,0.09725
5993.68059,0.09329
5995.60906,0.10694
5997.53753,0.11733
5999.46600,0.09666
6001.39447,0.06827
6003.32294,0.03637
6005.25140,0.01659
6007.17987,0.03570
6009.10834,0.05453
6011.03681,0.05491
6012.96528,0.06616
6014.89375,0.09206
6016.82222,0.10008
6018.75069,0.08201
6020.67915,0.05202
6022.60762,0.02343
6024.53609,0.02014
6026.46456,0.04677
6028.39303,0.08761
6030.32150,0.10538
6032.24997,0.10275
6034.17843,0.11277
6036.10690,0.12706
6038.03537,0.12961
6039.96384,0.10097
6041.89231,0.04399
6043.82078,0.00935
6045.74925,0.00959
6047.67772,0.01759
6049.60618,0.03157
6051.53465,0.05702
6053.46312,0.10300
6055.39159,0.14825
6057.32006,0.14375
6059.24853,0.12450
6061.17700,0.15552
6063.10546,0.20702
6065.03393,0.17814
6066.96240,0.08137
6068.89087,0.03391
6070.81934,0.06301
6072.74781,0.08311
6074.67628,0.04775
6076.60475,0.01858
6078.53321,0.03525
6080.46168,0.04956
6082.39015,0.05214
6084.31862,0.07907
6086.24709,0.12170
6088.17556,0.15251
6090.10403,0.17022
6092.03249,0.16924
6093.96096,0.14369
6095.88943,0.11451
6097.81790,0.10846
6099.74637,0.11565
6101.67484,0.11262
6103.60331,0.10125
6105.53177,0.08181
6107.46024,0.05872
6109.38871,0.04694
6111.31718,0.04856
6113.24565,0.07118
6115.17412,0.11035
6117.10259,0.12472
6119.03106,0.09940
6120.95952,0.08916
6122.88799,0.10121
6124.81646,0.09274
6126.74493,0.09608
6128.67340,0.14896
6130.60187,0.16416
6132.53034,0.09296
6134.45880,0.03373
6136.38727,0.05327
6138.31574,0.10449
6140.24421,0.13325
6142.17268,0.14469
6144.10115,0.16195
6146.02962,0.19401
6147.95809,0.21182
6149.88655,0.16256
6151.81502,0.06031
6153.74349,0.00822
6155.67196,0.05731
6157.60043,0.13053
6159.52890,0.15163
6161.45737,0.13320
6163.38583,0.08594
6165.31430,0.03642
6167.24277,0.05155
6169.17124,0.08641
6171.09971,0.06698
6173.02818,0.03346
6174.95665,0.02245
6176.88512,0.00599
6178.81358,0.00522
6180.74205,0.03898
6182.67052,0.04709
6184.59899,0.02828
6186.52746,0.03702
6188.45593,0.04289
6190.38440,0.04425
6192.31286,0.09156
6194.24133,0.10224
6196.16980,0.01367
6198.09827,-0.07010
6200.02674,-0.05867
6201.95521,0.02848
6203.88368,0.11879
6205.81215,0.14282
6207.74061,0.13082
6209.66908,0.14219
6211.59755,0.15196
6213.52602,0.13382
6215.45449,0.12514
6217.38296,0.12312
6219.31143,0.10798
6221.23989,0.09607
6223.16836,0.07892
6225.09683,0.05821
6227.02530,0.05251
6228.95377,0.04798
6230.88224,0.04880
6232.81071,0.03242
6234.73918,-0.01423
6236.66764,-0.00136
6238.59611,0.06609
6240.52458,0.09164
6242.45305,0.10779
6244.38152,0.13595
6246.30999,0.11168
6248.23846,0.08414
6250.16692,0.09090
6252.09539,0.08317
6254.02386,0.08373
6255.95233,0.11672
6257.88080,0.10631
6259.80927,0.02142
6261.73774,-0.05057
6263.66621,-0.03811
6265.59467,0.04583
6267.52314,0.12373
6269.45161,0.16166
6271.38008,0.18630
6273.30855,0.17642
6275.23702,0.10210
6277.16549,0.02688
6279.09395,0.01567
6281.02242,0.02249
6282.95089,0.00821
6284.87936,0.01843
6286.80783,0.05217
6288.73630,0.07278
6290.66477,0.08517
6292.59323,0.08754
6294.52170,0.06658
6296.45017,0.03483
6298.37864,0.01872
6300.30711,0.02796
6302.23558,0.03909
6304.16405,0.00420
6306.09252,-0.04977
6308.02098,-0.04386
6309.94945,0.01141
6311.87792,0.07759
6313.80639,0.14084
6315.73486,0.14775
6317.66333,0.08167
6319.59180,0.01060
6321.52026,-0.01837
6323.44873,-0.02634
6325.37720,-0.02311
6327.30567,0.02146
6329.23414,0.09941
6331.16261,0.13581
6333.09108,0.11420
6335.01955,0.09808
6336.94801,0.09870
6338.87648,0.09591
6340.80495,0.09538
6342.73342,0.09655
6344.66189,0.07749
6346.59036,0.02769
6348.51883,0.00405
6350.44729,0.03635
6352.37576,0.07439
6354.30423,0.08964
6356.23270,0.05924
6358.16117,-0.02150
6360.08964,-0.07358
6362.01811,-0.02559
6363.94658,0.08037
6365.87504,0.11502
6367.80351,0.05339
6369.73198,0.05078
6371.66045,0.10329
6373.58892,0.07720
6375.51739,0.05306
6377.44586,0.09606
6379.37432,0.12597
6381.30279,0.11465
6383.23126,0.08880
6385.15973,0.08401
6387.08820,0.07268
6389.01667,0.06818
6390.94514,0.11838
6392.87361,0.17889
6394.80207,0.21932
6396.73054,0.22412
6398.65901,0.15009
6400.58748,0.01808
6402.51595,-0.05988
6404.44442,-0.02644
6406.37289,0.02101
6408.30135,-0.00436
6410.22982,-0.02665
6412.15829,0.01898
6414.08676,0.08567
6416.01523,0.14438
6417.94370,0.17064
6419.87217,0.12498
6421.80064,0.04535
6423.72910,-0.00230
6425.65757,-0.00156
6427.58604,0.03299
6429.51451,0.07590
6431.44298,0.07483
6433.37145,0.07904
6435.29992,0.13461
6437.22838,0.14975
6439.15685,0.08082
6441.08532,0.00781
6443.01379,0.00821
6444.94226,0.06580
6446.87073,0.10462
6448.79920,0.10628
6450.72766,0.08355
6452.65613,0.05434
6454.58460,0.03893
6456.51307,0.04531
6458.44154,0.04605
6460.37001,0.03145
6462.29848,0.02951
6464.22695,0.05825
6466.15541,0.11924
6468.08388,0.16470
6470.01235,0.11541
6471.94082,0.02929
6473.86929,0.06183
6475.79776,0.13626
6477.72623,0.08157
6479.65469,0.01287
6481.58316,0.07088
6483.51163,0.13347
6485.44010,0.10898
6487.36857,0.08432
6489.29704,0.07756
6491.22551,0.03195
6493.15398,0.01420
6495.08244,0.06094
6497.01091,0.08270
6498.93938,0.06240
6500.86785,0.04682
6502.79632,0.07961
6504.72479,0.12920
6506.65326,0.14000
6508.58172,0.12264
6510.51019,0.06762
6512.43866,-0.02950
6514.36713,-0.07205
6516.29560,-0.01708
6518.22407,0.02863
6520.15254,-0.00206
6522.08101,-0.03537
6524.00947,-0.02119
6525.93794,0.02557
6527.86641,0.05710
6529.79488,0.01200
6531.72335,-0.07745
6533.65182,-0.09424
6535.58029,-0.01362
6537.50875,0.06519
6539.43722,0.10590
6541.36569,0.13349
6543.29416,0.12701
6545.22263,0.10533
6547.15110,0.09617
6549.07957,0.10092
6551.00804,0.16506
6552.93650,0.24548
6554.86497,0.18271
6556.79344,0.03422
6558.72191,0.01086
6560.65038,0.07308
6562.57885,0.06596
6564.50732,0.03632
6566.43578,0.07256
6568.36425,0.07112
6570.29272,-0.03098
6572.22119,-0.07317
6574.14966,0.03050
6576.07813,0.16153
6578.00660,0.20056
6579.93507,0.13210
6581.86353,0.06307
6583.79200,0.08370
6585.72047,0.10482
6587.64894,0.05788
6589.57741,0.03911
6591.50588,0.08795
6593.43435,0.13915
6595.36281,0.16432
6597.29128,0.14176
6599.21975,0.06279
6601.14822,0.05762
6603.07669,0.15863
6605.00516,0.17612
6606.93363,0.10167
6608.86210,0.07125
6610.79056,0.08457
6612.71903,0.06957
6614.64750,0.04187
6616.57597,0.04434
6618.50444,0.05887
6620.43291,0.04112
6622.36138,0.00930
6624.28984,0.02375
6626.21831,0.04376
6628.14678,0.03355
6630.07525,0.08495
6632.00372,0.18415
6633.93219,0.25366
6635.86066,0.24138
6637.78912,0.13580
6639.71759,0.06140
6641.64606,0.02483
6643.57453,-0.00586
6645.50300,0.01421
6647.43147,0.05784
6649.35994,0.07750
6651.28841,0.07342
6653.21687,0.08122
6655.14534,0.13633
6657.07381,0.18160
6659.00228,0.14706
6660.93075,0.07371
6662.85922,0.01303
6664.78769,-0.01504
6666.71615,0.01211
6668.64462,0.08068
6670.57309,0.09085
6672.50156,0.01533
6674.43003,0.03930
6676.35850,0.18041
6678.28697,0.22563
6680.21544,0.16835
6682.14390,0.10923
6684.07237,0.02294
6686.00084,-0.05362
6687.92931,-0.05091
6689.85778,0.00118
6691.78625,0.03116
6693.71472,0.01696
6695.64318,0.01080
6697.57165,0.02941
6699.50012,0.03031
6701.42859,0.00662
6703.35706,-0.03300
6705.28553,-0.01833
6707.21400,0.08850
6709.14247,0.15229
6711.07093,0.10203
6712.99940,0.01845
6714.92787,-0.07391
6716.85634,-0.13044
6718.78481,-0.06336
6720.71328,0.06301
6722.64175,0.15269
6724.57021,0.21176
6726.49868,0.20986
6728.42715,0.13000
6730.35562,0.05844
6732.28409,0.06426
6734.21256,0.10457
6736.14103,0.14659
6738.06950,0.13703
6739.99796,0.02212
6741.92643,-0.06965
6743.85490,-0.01299
6745.78337,0.07215
6747.71184,0.11316
6749.64031,0.19158
6751.56878,0.28982
6753.49724,0.25614
6755.42571,0.14835
6757.35418,0.13379
6759.28265,0.12912
6761.21112,-0.01205
6763.13959,-0.13269
6765.06806,-0.06124
6766.99653,0.10543
6768.92499,0.23238
6770.85346,0.25634
6772.78193,0.14844
6774.71040,0.01732
6776.63887,0.00033
6778.56734,0.06700
6780.49581,0.11254
6782.42427,0.12940
6784.35274,0.15218
6786.28121,0.13838
6788.20968,0.08001
6790.13815,0.05603
6792.06662,0.05956
6793.99509,0.01095
6795.92355,-0.05863
6797.85202,-0.07498
6799.78049,0.00603
6801.70896,0.15544
6803.63743,0.22549
6805.56590,0.15156
6807.49437,0.05516
6809.42284,0.03026
6811.35130,0.06942
6813.27977,0.09257
6815.20824,0.01760
6817.13671,-0.05966
6819.06518,0.01807
6820.99365,0.18381
6822.92212,0.26631
6824.85058,0.20600
6826.77905,0.13050
6828.70752,0.12646
6830.63599,0.16268
6832.56446,0.15429
6834.49293,0.08040
6836.42140,0.02002
6838.34987,0.02310
6840.27833,-0.00673
6842.20680,-0.03900
6844.13527,0.00938
6846.06374,0.07058
6847.99221,0.08601
6849.92068,0.01644
6851.84915,-0.09179
6853.77761,-0.12191
6855.70608,-0.05614
6857.63455,0.04670
6859.56302,0.09036
6861.49149,0.04164
6863.41996,-0.01359
6865.34843,0.02372
6867.27690,0.11365
6869.20536,0.16602
6871.13383,0.23973
6873.06230,0.31747
6874.99077,0.27716
6876.91924,0.16522
6878.84771,0.05342
6880.77618,-0.03239
6882.70464,-0.09058
6884.63311,-0.10881
6886.56158,-0.08843
6888.49005,-0.03653
6890.41852,0.02309
6892.34699,0.02012
6894.27546,0.04011
6896.20393,0.15227
6898.13239,0.18177
6900.06086,0.09299
6901.98933,0.04089
6903.91780,0.06158
6905.84627,0.13313
6907.77474,0.20094
6909.70321,0.22220
6911.63167,0.21860
6913.56014,0.22987
6915.48861,0.25999
6917.41708,0.29942
6919.34555,0.33423
6921.27402,0.29914
6923.20249,0.20091
6925.13096,0.11879
6927.05942,0.07178
6928.98789,0.02919
6930.91636,-0.05387
6932.84483,-0.14888
6934.77330,-0.14742
6936.70177,-0.02537
6938.63024,0.13328
6940.55870,0.14943
6942.48717,0.02106
6944.41564,-0.10305
6946.34411,-0.15890
6948.27258,-0.07895
6950.20105,0.04200
6952.12952,0.06982
6954.05799,0.05667
6955.98645,0.08266
6957.91492,0.07902
6959.84339,-0.00847
6961.77186,-0.04941
6963.70033,0.00461
6965.62880,0.04302
6967.55727,0.06639
6969.48573,0.08576
6971.41420,0.07477
6973.34267,0.07745
6975.27114,0.05622
6977.19961,-0.03128
6979.12808,-0.12069
6981.05655,-0.17955
6982.98501,-0.18398
6984.91348,-0.14949
6986.84195,-0.09405
6988.77042,-0.02901
6990.69889,0.03198
6992.62736,0.16484
6994.55583,0.28083
6996.48430,0.17763
6998.41276,0.01811
7000.34123,0.00653
7002.26970,-0.04810
7004.19817,-0.13030
7006.12664,-0.09786
7008.05511,-0.02200
7009.98358,0.01141
7011.91204,0.07439
7013.84051,0.16434
7015.76898,0.12033
7017.69745,0.01019
7019.62592,0.02650
7021.55439,0.10951
7023.48286,0.16277
7025.41133,0.18949
7027.33979,0.16582
7029.26826,0.17956
7031.19673,0.24228
7033.12520,0.17364
7035.05367,0.00113
7036.98214,-0.09032
7038.91061,-0.08971
7040.83907,-0.05232
7042.76754,-0.02591
7044.69601,-0.00803
7046.62448,0.09673
7048.55295,0.17161
7050.48142,0.11264
7052.40989,0.09673
7054.33836,0.21650
7056.26682,0.34762
7058.19529,0.35907
7060.12376,0.21684
7062.05223,0.00866
7063.98070,-0.13117
7065.90917,-0.17691
7067.83764,-0.19773
7069.76610,-0.18629
7071.69457,-0.13842
7073.62304,-0.11053
7075.55151,-0.11847
7077.47998,-0.12969
7079.40845,-0.13546
7081.33692,-0.08361
7083.26539,0.00519
7085.19385,0.03881
7087.12232,0.03169
7089.05079,0.01534
7090.97926,0.00081
7092.90773,-0.04007
7094.83620,-0.06180
7096.76467,-0.01120
7098.69313,0.03123
7100.62160,0.06941
7102.55007,0.18303
7104.47854,0.26314
7106.40701,0.21831
7108.33548,0.21184
7110.26395,0.22757
7112.19242,0.14175
7114.12088,0.05306
7116.04935,0.02258
7117.97782,0.06735
7119.90629,0.16943
7121.83476,0.19820
7123.76323,0.11884
7125.69170,0.01347
7127.62016,0.05890
7129.54863,0.17211
7131.47710,0.11780
7133.40557,0.00322
7135.33404,-0.00178
7137.26251,0.01358
7139.19098,-0.01091
7141.11944,0.04883
7143.04791,0.22308
7144.97638,0.31109
7146.90485,0.24781
7148.83332,0.24211
7150.76179,0.32311
7152.69026,0.30918
7154.61873,0.16681
7156.54719,0.10761
7158.47566,0.13724
7160.40413,0.14259
7162.33260,0.11357
7164.26107,0.09847
7166.18954,0.12162
7168.11801,0.13070
7170.04647,0.10614
7171.97494,0.09654
7173.90341,0.11775
7175.83188,0.15594
7177.76035,0.19709
7179.68882,0.26329
7181.61729,0.24263
7183.54576,-0.06744
7185.47422,-0.29378
7187.40269,-0.17909
7189.33116,-0.03706
7191.25963,0.01327
7193.18810,0.10252
7195.11657,0.17321
7197.04504,0.16289
7198.97350,0.13341
7200.90197,0.10735
7202.83044,0.14472
7204.75891,0.34640
7206.68738,0.45432
7208.61585,0.32991
7210.54432,0.13456
7212.47279,-0.06168
7214.40125,-0.17564
7216.32972,-0.13350
7218.25819,0.00846
7220.18666,0.10987
7222.11513,0.11659
7224.04360,-0.02016
7225.97207,-0.22437
7227.90053,-0.24265
7229.82900,-0.04939
7231.75747,0.10747
7233.68594,0.06707
7235.61441,-0.02800
7237.54288,-0.09343
7239.47135,-0.14102
7241.39982,-0.15393
7243.32828,-0.11537
7245.25675,-0.10143
7247.18522,-0.11539
7249.11369,-0.07624
7251.04216,-0.02018
7252.97063,-0.05348
7254.89910,-0.03515
7256.82756,0.04700
7258.75603,0.04569
7260.68450,-0.00536
7262.61297,0.00811
7264.54144,0.06341
7266.46991,0.13233
7268.39838,0.15617
7270.32685,0.05021
7272.25531,-0.10116
7274.18378,-0.03892
7276.11225,0.13773
7278.04072,0.22847
7279.96919,0.19243
7281.89766,0.16048
7283.82613,0.16438
7285.75459,0.11956
7287.68306,0.04171
7289.61153,0.02129
7291.54000,0.15348
7293.46847,0.36704
7295.39694,0.43664
7297.32541,0.31464
7299.25387,0.18673
7301.18234,0.10371
7303.11081,0.00666
7305.03928,-0.07381
7306.96775,-0.11768
7308.89622,0.00375
7310.82469,0.31523
7312.75316,0.52749
7314.68162,0.63849
7316.61009,0.56398
7318.53856,0.21274
7320.46703,-0.04535
7322.39550,-0.04781
7324.32397,0.07899
7326.25244,0.24835
7328.18090,0.43093
7330.10937,0.47505
7332.03784,0.30829
7333.96631,0.10514
7335.89478,0.06205
7337.82325,0.14998
7339.75172,0.20107
7341.68019,0.19770
7343.60865,0.23955
7345.53712,0.16560
7347.46559,-0.09206
7349.39406,-0.27357
7351.32253,-0.24723
7353.25100,-0.13616
7355.17947,0.09476
7357.10793,0.48019
7359.03640,0.68312
7360.96487,0.43109
7362.89334,0.07103
7364.82181,-0.09039
7366.75028,-0.12153
7368.67875,-0.09195
7370.60722,-0.06323
7372.53568,-0.07531
7374.46415,-0.01797
7376.39262,0.10417
7378.32109,0.08264
7380.24956,-0.01890
7382.17803,-0.03844
7384.10650,0.01898
7386.03496,0.10700
7387.96343,0.17459
7389.89190,0.12811
7391.82037,0.06777
7393.74884,0.07326
7395.67731,0.11172
7397.60578,0.06165
7399.53425,-0.06324
7401.46271,-0.05951
7403.39118,0.04203
7405.31965,0.07018
7407.24812,0.10734
7409.17659,0.19416
7411.10506,0.30689
7413.03353,0.42864
7414.96199,0.42295
7416.89046,0.17741
7418.81893,-0.09644
7420.74740,-0.08366
7422.67587,0.01288
7424.60434,0.06011
7426.53281,0.05026
7428.46128,-0.02295
7430.38974,-0.00647
7432.31821,0.09262
7434.24668,0.01574
7436.17515,-0.20087
7438.10362,-0.31946
7440.03209,-0.26881
7441.96056,-0.14867
7443.88902,-0.09966
7445.81749,-0.10558
7447.74596,-0.06492
7449.67443,-0.00741
7451.60290,0.01560
7453.53137,0.05768
7455.45984,0.13815
7457.38831,0.21716
7459.31677,0.19625
7461.24524,-0.01131
7463.17371,-0.17481
7465.10218,-0.06914
7467.03065,0.11411
7468.95912,0.11021
7470.88759,0.02159
7472.81605,0.04417
7474.74452,0.17204
7476.67299,0.23142
7478.60146,0.12321
7480.52993,0.07534
7482.45840,0.21895
7484.38687,0.26942
7486.31533,0.13998
7488.24380,0.00556
7490.17227,-0.02152
7492.10074,-0.03230
7494.02921,-0.05086
7495.95768,-0.02739
7497.88615,0.00915
