399.19301,-0.11110
401.12148,0.04228
403.04995,0.17226
404.97842,0.14417
406.90689,0.10094
408.83536,0.06257
410.76382,0.01583
412.69229,0.11979
414.62076,0.25670
416.54923,0.17785
418.47770,-0.02279
420.40617,-0.04254
422.33464,0.06200
424.26311,0.13366
426.19157,0.14556
428.12004,0.18637
430.04851,0.28142
431.97698,0.21147
433.90545,0.02533
435.83392,0.03279
437.76239,0.12484
439.69085,0.08232
441.61932,-0.02372
443.54779,-0.03044
445.47626,-0.00580
447.40473,0.01173
449.33320,0.06504
451.26167,0.12280
453.19013,0.14199
455.11860,0.12531
457.04707,0.12486
458.97554,0.15145
460.90401,0.14898
462.83248,0.10227
464.76095,0.05735
466.68942,0.03912
468.61788,0.00539
470.54635,-0.00512
472.47482,0.14991
474.40329,0.36822
476.33176,0.28247
478.26023,0.12931
480.18870,0.07399
482.11716,0.06870
484.04563,0.01189
485.97410,-0.06839
487.90257,-0.05325
489.83104,0.05903
491.75951,0.16609
493.68798,0.19119
495.61645,0.14392
497.54491,0.09245
499.47338,0.08535
501.40185,0.10155
503.33032,0.10037
505.25879,0.06852
507.18726,0.04187
509.11573,0.05518
511.04419,0.08119
512.97266,0.09391
514.90113,0.06712
516.82960,0.01029
518.75807,-0.00694
520.68654,0.03376
522.61501,0.08524
524.54348,0.09605
526.47194,0.07293
528.40041,0.06815
530.32888,0.09417
532.25735,0.12353
534.18582,0.14370
536.11429,0.17193
538.04276,0.19222
539.97122,0.17654
541.89969,0.13860
543.82816,0.11130
545.75663,0.09771
547.68510,0.09404
549.61357,0.12438
551.54204,0.22365
553.47051,0.31626
555.39897,0.25566
557.32744,0.11696
559.25591,0.06545
561.18438,0.07374
563.11285,0.08274
565.04132,0.09786
566.96979,0.11560
568.89825,0.11462
570.82672,0.11344
572.75519,0.12482
574.68366,0.10389
576.61213,0.05440
578.54060,0.04797
580.46907,0.08841
582.39754,0.12797
584.32600,0.14912
586.25447,0.13859
588.18294,0.11108
590.11141,0.11778
592.03988,0.15626
593.96835,0.16899
595.89682,0.14580
597.82528,0.12398
599.75375,0.11858
601.68222,0.12947
603.61069,0.15219
605.53916,0.17312
607.46763,0.17624
609.39610,0.16801
611.32456,0.15488
613.25303,0.11912
615.18150,0.08545
617.10997,0.09194
619.03844,0.12178
620.96691,0.13797
622.89538,0.13091
624.82385,0.11379
626.75231,0.08996
628.68078,0.07518
630.60925,0.08063
632.53772,0.08549
634.46619,0.08994
636.39466,0.11124
638.32313,0.14454
640.25159,0.17093
642.18006,0.18549
644.10853,0.19265
646.03700,0.18191
647.96547,0.15378
649.89394,0.13293
651.82241,0.13272
653.75088,0.14185
655.67934,0.14616
657.60781,0.14459
659.53628,0.14013
661.46475,0.12836
663.39322,0.11869
665.32169,0.12688
667.25016,0.15056
669.17862,0.16458
671.10709,0.15703
673.03556,0.14623
674.96403,0.13447
676.89250,0.13224
678.82097,0.14946
680.74944,0.16571
682.67791,0.15970
684.60637,0.14309
686.53484,0.13414
688.46331,0.13435
690.39178,0.14379
692.32025,0.15848
694.24872,0.16156
696.17719,0.14945
698.10565,0.14295
700.03412,0.14954
701.96259,0.15090
703.89106,0.14726
705.81953,0.15055
707.74800,0.17574
709.67647,0.23716
711.60494,0.28692
713.53340,0.26343
715.46187,0.20033
717.39034,0.16524
719.31881,0.15346
721.24728,0.14224
723.17575,0.13484
725.10422,0.13257
727.03268,0.13954
728.96115,0.14477
730.88962,0.13541
732.81809,0.12467
734.74656,0.12315
736.67503,0.12912
738.60350,0.13477
740.53197,0.12717
742.46043,0.10992
744.38890,0.10403
746.31737,0.11584
748.24584,0.13398
750.17431,0.14664
752.10278,0.14769
754.03125,0.14193
755.95971,0.14012
757.88818,0.14245
759.81665,0.14246
761.74512,0.14016
763.67359,0.13484
765.60206,0.13090
767.53053,0.13474
769.45900,0.14214
771.38746,0.14746
773.31593,0.15163
775.24440,0.15653
777.17287,0.16074
779.10134,0.16234
781.02981,0.15412
782.95828,0.14169
784.88674,0.14301
786.81521,0.15496
788.74368,0.16517
790.67215,0.16989
792.60062,0.16906
794.52909,0.16439
796.45756,0.16002
798.38602,0.15858
800.31449,0.15660
802.24296,0.15322
804.17143,0.15336
806.09990,0.15583
808.02837,0.14923
809.95684,0.13260
811.88531,0.13010
813.81377,0.14870
815.74224,0.16214
817.67071,0.16143
819.59918,0.15335
821.52765,0.13948
823.45612,0.12793
825.38459,0.12804
827.31305,0.13937
829.24152,0.14999
831.16999,0.15139
833.09846,0.14520
835.02693,0.14048
836.95540,0.14487
838.88387,0.14929
840.81234,0.14885
842.74080,0.15350
844.66927,0.16142
846.59774,0.16229
848.52621,0.15696
850.45468,0.14958
852.38315,0.14349
854.31162,0.14058
856.24008,0.13978
858.16855,0.14323
860.09702,0.14773
862.02549,0.14895
863.95396,0.14902
865.88243,0.14966
867.81090,0.15671
869.73937,0.16675
871.66783,0.16931
873.59630,0.16760
875.52477,0.16651
877.45324,0.16555
879.38171,0.16154
881.31018,0.15275
883.23865,0.14603
885.16711,0.14525
887.09558,0.14253
889.02405,0.13547
890.95252,0.13417
892.88099,0.14260
894.80946,0.15509
896.73793,0.16443
898.66640,0.16596
900.59486,0.16107
902.52333,0.15354
904.45180,0.14859
906.38027,0.14936
908.30874,0.15192
910.23721,0.15385
912.16568,0.15297
914.09414,0.14604
916.02261,0.14003
917.95108,0.14088
919.87955,0.14507
921.80802,0.14814
923.73649,0.14854
925.66496,0.15134
927.59343,0.15552
929.52189,0.15401
931.45036,0.14989
933.37883,0.14778
935.30730,0.14951
937.23577,0.15354
939.16424,0.15177
941.09271,0.14202
943.02117,0.13360
944.94964,0.13445
946.87811,0.13942
948.80658,0.14231
950.73505,0.14796
952.66352,0.15484
954.59199,0.15357
956.52045,0.14573
958.44892,0.13903
960.37739,0.13943
962.30586,0.14595
964.23433,0.14912
966.16280,0.14525
968.09127,0.13784
970.01974,0.13358
971.94820,0.13723
973.87667,0.14461
975.80514,0.14886
977.73361,0.14754
979.66208,0.14426
981.59055,0.14152
983.51902,0.13717
985.44748,0.13168
987.37595,0.13142
989.30442,0.13915
991.23289,0.14854
993.16136,0.15526
995.08983,0.15868
997.01830,0.15711
998.94677,0.15264
1000.87523,0.15097
1002.80370,0.15212
1004.73217,0.15308
1006.66064,0.15677
1008.58911,0.16207
1010.51758,0.15957
1012.44605,0.14943
1014.37451,0.14544
1016.30298,0.14963
1018.23145,0.15136
1020.15992,0.15519
1022.08839,0.16472
1024.01686,0.16687
1025.94533,0.16290
1027.87380,0.16196
1029.80226,0.15998
1031.73073,0.15597
1033.65920,0.15538
1035.58767,0.15782
1037.51614,0.15694
1039.44461,0.15300
1041.37308,0.15242
1043.30154,0.15509
1045.23001,0.16048
1047.15848,0.16811
1049.08695,0.17091
1051.01542,0.16626
1052.94389,0.16293
1054.87236,0.16804
1056.80083,0.17709
1058.72929,0.18004
1060.65776,0.17435
1062.58623,0.16670
1064.51470,0.16046
1066.44317,0.15697
1068.37164,0.15767
1070.30011,0.15978
1072.22857,0.16139
1074.15704,0.16359
1076.08551,0.16286
1078.01398,0.15613
1079.94245,0.15245
1081.87092,0.15851
1083.79939,0.16663
1085.72786,0.16715
1087.65632,0.16411
1089.58479,0.16407
1091.51326,0.16527
1093.44173,0.16903
1095.37020,0.17359
1097.29867,0.17410
1099.22714,0.17087
1101.15560,0.16712
1103.08407,0.16684
1105.01254,0.16553
1106.94101,0.16065
1108.86948,0.16223
1110.79795,0.16840
1112.72642,0.16866
1114.65489,0.17005
1116.58335,0.17448
1118.51182,0.17194
1120.44029,0.16564
1122.36876,0.16150
1124.29723,0.15857
1126.22570,0.15561
1128.15417,0.15353
1130.08263,0.15531
1132.01110,0.16047
1133.93957,0.16435
1135.86804,0.16664
1137.79651,0.16911
1139.72498,0.16712
1141.65345,0.15933
1143.58191,0.15506
1145.51038,0.15979
1147.43885,0.16302
1149.36732,0.15584
1151.29579,0.14694
1153.22426,0.14858
1155.15273,0.15929
1157.08120,0.16645
1159.00966,0.16629
1160.93813,0.16415
1162.86660,0.16246
1164.79507,0.16214
1166.72354,0.16103
1168.65201,0.15935
1170.58048,0.16318
1172.50894,0.17086
1174.43741,0.17474
1176.36588,0.17363
1178.29435,0.16900
1180.22282,0.16220
1182.15129,0.15679
1184.07976,0.15570
1186.00823,0.15798
1187.93669,0.15881
1189.86516,0.15734
1191.79363,0.15764
1193.72210,0.15924
1195.65057,0.15805
1197.57904,0.15496
1199.50751,0.15675
1201.43597,0.16554
1203.36444,0.17202
1205.29291,0.16982
1207.22138,0.16512
1209.14985,0.16299
1211.07832,0.16253
1213.00679,0.16295
1214.93526,0.16424
1216.86372,0.16746
1218.79219,0.17100
1220.72066,0.17100
1222.64913,0.16976
1224.57760,0.17031
1226.50607,0.16936
1228.43454,0.16694
1230.36300,0.16665
1232.29147,0.16722
1234.21994,0.16459
1236.14841,0.16048
1238.07688,0.16132
1240.00535,0.16528
1241.93382,0.16714
1243.86229,0.16643
1245.79075,0.16155
1247.71922,0.15505
1249.64769,0.15540
1251.57616,0.16257
1253.50463,0.16642
1255.43310,0.16287
1257.36157,0.15743
1259.29003,0.15493
1261.21850,0.15710
1263.14697,0.16186
1265.07544,0.16503
1267.00391,0.16663
1268.93238,0.16654
1270.86085,0.16518
1272.78932,0.16646
1274.71778,0.16837
1276.64625,0.16831
1278.57472,0.16805
1280.50319,0.16515
1282.43166,0.16125
1284.36013,0.16148
1286.28860,0.16347
1288.21706,0.16723
1290.14553,0.17184
1292.07400,0.17137
1294.00247,0.16860
1295.93094,0.16495
1297.85941,0.15592
1299.78788,0.14559
1301.71634,0.13625
1303.64481,0.12618
1305.57328,0.12914
1307.50175,0.15105
1309.43022,0.16945
1311.35869,0.17403
1313.28716,0.17421
1315.21563,0.17324
1317.14409,0.17309
1319.07256,0.17250
1321.00103,0.16943
1322.92950,0.17007
1324.85797,0.17131
1326.78644,0.16739
1328.71491,0.16430
1330.64337,0.16269
1332.57184,0.16093
1334.50031,0.16175
1336.42878,0.16354
1338.35725,0.16587
1340.28572,0.15756
1342.21419,0.12587
1344.14266,0.09701
1346.07112,0.10621
1347.99959,0.14258
1349.92806,0.16399
1351.85653,0.16523
1353.78500,0.16453
1355.71347,0.16323
1357.64194,0.16275
1359.57040,0.16764
1361.49887,0.17394
1363.42734,0.17420
1365.35581,0.17139
1367.28428,0.17352
1369.21275,0.17743
1371.14122,0.17949
1373.06969,0.18264
1374.99815,0.18266
1376.92662,0.17743
1378.85509,0.17546
1380.78356,0.17707
1382.71203,0.17718
1384.64050,0.17875
1386.56897,0.18384
1388.49743,0.18490
1390.42590,0.18296
1392.35437,0.18526
1394.28284,0.19143
1396.21131,0.19622
1398.13978,0.19476
1400.06825,0.18897
1401.99672,0.18475
1403.92518,0.18371
1405.85365,0.18453
1407.78212,0.18605
1409.71059,0.18665
1411.63906,0.18266
1413.56753,0.17771
1415.49600,0.18019
1417.42446,0.18689
1419.35293,0.18558
1421.28140,0.17917
1423.20987,0.17857
1425.13834,0.18445
1427.06681,0.19170
1428.99528,0.19276
1430.92375,0.18682
1432.85221,0.18284
1434.78068,0.18498
1436.70915,0.19096
1438.63762,0.19300
1440.56609,0.18989
1442.49456,0.18605
1444.42303,0.18497
1446.35149,0.18845
1448.27996,0.19360
1450.20843,0.19555
1452.13690,0.19503
1454.06537,0.19624
1455.99384,0.20440
1457.92231,0.21131
1459.85077,0.20238
1461.77924,0.19548
1463.70771,0.19501
1465.63618,0.19335
1467.56465,0.19139
1469.49312,0.19528
1471.42159,0.20299
1473.35006,0.20809
1475.27852,0.20747
1477.20699,0.20358
1479.13546,0.19850
1481.06393,0.19276
1482.99240,0.18768
1484.92087,0.18922
1486.84934,0.19879
1488.77780,0.20752
1490.70627,0.20683
1492.63474,0.20539
1494.56321,0.20921
1496.49168,0.21184
1498.42015,0.20798
1500.34862,0.20775
1502.27709,0.21667
1504.20555,0.23359
1506.13402,0.24674
1508.06249,0.22600
1509.99096,0.20361
1511.91943,0.19260
1513.84790,0.19064
1515.77637,0.19958
1517.70483,0.21335
1519.63330,0.22353
1521.56177,0.22621
1523.49024,0.21904
1525.41871,0.20910
1527.34718,0.20066
1529.27565,0.19704
1531.20412,0.20035
1533.13258,0.20743
1535.06105,0.20922
1536.98952,0.21179
1538.91799,0.22568
1540.84646,0.23887
1542.77493,0.22955
1544.70340,0.21469
1546.63186,0.20246
1548.56033,0.19637
1550.48880,0.19693
1552.41727,0.20201
1554.34574,0.20830
1556.27421,0.21533
1558.20268,0.22522
1560.13115,0.21854
1562.05961,0.20719
1563.98808,0.20413
1565.91655,0.20270
1567.84502,0.20127
1569.77349,0.19960
1571.70196,0.19751
1573.63043,0.20002
1575.55889,0.20456
1577.48736,0.19735
1579.41583,0.18535
1581.34430,0.18151
1583.27277,0.18370
1585.20124,0.18527
1587.12971,0.18540
1589.05818,0.18534
1590.98664,0.18350
1592.91511,0.18183
1594.84358,0.18260
1596.77205,0.18136
1598.70052,0.17842
1600.62899,0.17974
1602.55746,0.18426
1604.48592,0.18578
1606.41439,0.18447
1608.34286,0.18509
1610.27133,0.18669
1612.19980,0.18748
1614.12827,0.19173
1616.05674,0.19925
1617.98521,0.19987
1619.91367,0.19794
1621.84214,0.19995
1623.77061,0.19932
1625.69908,0.19530
1627.62755,0.19416
1629.55602,0.19441
1631.48449,0.19500
1633.41295,0.20025
1635.34142,0.21353
1637.26989,0.21603
1639.19836,0.20361
1641.12683,0.19561
1643.05530,0.19788
1644.98377,0.20712
1646.91223,0.21387
1648.84070,0.21204
1650.76917,0.21611
1652.69764,0.23184
1654.62611,0.22644
1656.55458,0.20741
1658.48305,0.19826
1660.41152,0.19750
1662.33998,0.19963
1664.26845,0.19861
1666.19692,0.19830
1668.12539,0.20291
1670.05386,0.20649
1671.98233,0.20459
1673.91080,0.20404
1675.83926,0.20524
1677.76773,0.20551
1679.69620,0.20666
1681.62467,0.21245
1683.55314,0.22348
1685.48161,0.22475
1687.41008,0.21787
1689.33855,0.21294
1691.26701,0.20713
1693.19548,0.20447
1695.12395,0.21279
1697.05242,0.22672
1698.98089,0.22838
1700.90936,0.21430
1702.83783,0.20453
1704.76629,0.20662
1706.69476,0.20767
1708.62323,0.20035
1710.55170,0.19384
1712.48017,0.19439
1714.40864,0.20282
1716.33711,0.21519
1718.26558,0.21325
1720.19404,0.20237
1722.12251,0.19754
1724.05098,0.19491
1725.97945,0.19349
1727.90792,0.19597
1729.83639,0.20139
1731.76486,0.20768
1733.69332,0.20917
1735.62179,0.20196
1737.55026,0.19841
1739.47873,0.20025
1741.40720,0.20221
1743.33567,0.20263
1745.26414,0.20357
1747.19261,0.20580
1749.12107,0.20660
1751.04954,0.20218
1752.97801,0.19692
1754.90648,0.19611
1756.83495,0.19783
1758.76342,0.19776
1760.69189,0.19629
1762.62035,0.19385
1764.54882,0.19230
1766.47729,0.19587
1768.40576,0.20299
1770.33423,0.20946
1772.26270,0.21188
1774.19117,0.20623
1776.11964,0.19845
1778.04810,0.19491
1779.97657,0.19497
1781.90504,0.19434
1783.83351,0.19367
1785.76198,0.19300
1787.69045,0.19187
1789.61892,0.19443
1791.54738,0.19967
1793.47585,0.19987
1795.40432,0.19676
1797.33279,0.19609
1799.26126,0.19849
1801.18973,0.19952
1803.11820,0.19470
1805.04666,0.18938
1806.97513,0.18950
1808.90360,0.19322
1810.83207,0.19443
1812.76054,0.19083
1814.68901,0.18832
1816.61748,0.19337
1818.54595,0.20306
1820.47441,0.20703
1822.40288,0.20337
1824.33135,0.19764
1826.25982,0.19478
1828.18829,0.19766
1830.11676,0.20028
1832.04523,0.19613
1833.97369,0.19247
1835.90216,0.19240
1837.83063,0.19085
1839.75910,0.18858
1841.68757,0.19204
1843.61604,0.19907
1845.54451,0.20019
1847.47298,0.19682
1849.40144,0.19469
1851.32991,0.19459
1853.25838,0.19536
1855.18685,0.19673
1857.11532,0.19747
1859.04379,0.19535
1860.97226,0.19188
1862.90072,0.18959
1864.82919,0.19153
1866.75766,0.19781
1868.68613,0.19889
1870.61460,0.19205
1872.54307,0.18740
1874.47154,0.18570
1876.40001,0.18498
1878.32847,0.18532
1880.25694,0.18482
1882.18541,0.18525
1884.11388,0.18867
1886.04235,0.18996
1887.97082,0.18889
1889.89929,0.19000
1891.82775,0.19193
1893.75622,0.19265
1895.68469,0.19219
1897.61316,0.19206
1899.54163,0.19355
1901.47010,0.19475
1903.39857,0.19505
1905.32704,0.19528
1907.25550,0.19426
1909.18397,0.19082
1911.11244,0.18724
1913.04091,0.18817
1914.96938,0.19329
1916.89785,0.19634
1918.82632,0.19411
1920.75478,0.19130
1922.68325,0.19062
1924.61172,0.19102
1926.54019,0.19181
1928.46866,0.19084
1930.39713,0.18792
1932.32560,0.18744
1934.25407,0.19082
1936.18253,0.19408
1938.11100,0.19559
1940.03947,0.19829
1941.96794,0.20101
1943.89641,0.19834
1945.82488,0.19178
1947.75335,0.18711
1949.68181,0.18598
1951.61028,0.18768
1953.53875,0.19070
1955.46722,0.19216
1957.39569,0.19209
1959.32416,0.19136
1961.25263,0.18980
1963.18110,0.18997
1965.10956,0.19377
1967.03803,0.19793
1968.96650,0.19744
1970.89497,0.19342
1972.82344,0.18987
1974.75191,0.18769
1976.68038,0.18668
1978.60884,0.18778
1980.53731,0.19090
1982.46578,0.19238
1984.39425,0.19165
1986.32272,0.19155
1988.25119,0.19144
1990.17966,0.19136
1992.10812,0.19221
1994.03659,0.19280
1995.96506,0.19381
1997.89353,0.19594
1999.82200,0.19726
2001.75047,0.19541
2003.67894,0.19103
2005.60741,0.18740
2007.53587,0.18569
2009.46434,0.18601
2011.39281,0.18939
2013.32128,0.19368
2015.24975,0.19581
2017.17822,0.19621
2019.10669,0.19556
2021.03515,0.19321
2022.96362,0.19053
2024.89209,0.19008
2026.82056,0.19096
2028.74903,0.19018
2030.67750,0.18873
2032.60597,0.18937
2034.53444,0.19036
2036.46290,0.18988
2038.39137,0.18994
2040.31984,0.19087
2042.24831,0.19181
2044.17678,0.19368
2046.10525,0.19592
2048.03372,0.19630
2049.96218,0.19447
2051.89065,0.19248
2053.81912,0.19218
2055.74759,0.19334
2057.67606,0.19387
2059.60453,0.19279
2061.53300,0.19154
2063.46147,0.19108
2065.38993,0.19107
2067.31840,0.19136
2069.24687,0.19105
2071.17534,0.19001
2073.10381,0.19077
2075.03228,0.19342
2076.96075,0.19354
2078.88921,0.19010
2080.81768,0.18778
2082.74615,0.18887
2084.67462,0.19050
2086.60309,0.19068
2088.53156,0.19047
2090.46003,0.19001
2092.38850,0.18845
2094.31696,0.18721
2096.24543,0.18776
2098.17390,0.18921
2100.10237,0.19080
2102.03084,0.19111
2103.95931,0.18931
2105.88778,0.18829
2107.81624,0.18928
2109.74471,0.19135
2111.67318,0.19344
2113.60165,0.19290
2115.53012,0.19024
2117.45859,0.18864
2119.38706,0.18928
2121.31553,0.19129
2123.24399,0.19204
2125.17246,0.19140
2127.10093,0.19062
2129.02940,0.18959
2130.95787,0.18933
2132.88634,0.18783
2134.81481,0.18311
2136.74327,0.18109
2138.67174,0.18631
2140.60021,0.19292
2142.52868,0.19466
2144.45715,0.19339
2146.38562,0.19197
2148.31409,0.19095
2150.24255,0.19061
2152.17102,0.19136
2154.09949,0.19324
2156.02796,0.19404
2157.95643,0.19414
2159.88490,0.19623
2161.81337,0.19838
2163.74184,0.19734
2165.67030,0.19421
2167.59877,0.19266
2169.52724,0.19183
2171.45571,0.18857
2173.38418,0.18634
2175.31265,0.18888
2177.24112,0.19342
2179.16958,0.19601
2181.09805,0.19595
2183.02652,0.19507
2184.95499,0.19445
2186.88346,0.19477
2188.81193,0.19644
2190.74040,0.19735
2192.66887,0.19573
2194.59733,0.19263
2196.52580,0.19053
2198.45427,0.19106
2200.38274,0.19349
2202.31121,0.19521
2204.23968,0.19420
2206.16815,0.19014
2208.09661,0.18601
2210.02508,0.18643
2211.95355,0.18991
2213.88202,0.19162
2215.81049,0.19205
2217.73896,0.19339
2219.66743,0.19376
2221.59590,0.19266
2223.52436,0.19410
2225.45283,0.19753
2227.38130,0.19849
2229.30977,0.19699
2231.23824,0.19551
2233.16671,0.19432
2235.09518,0.19260
2237.02364,0.19168
2238.95211,0.19249
2240.88058,0.19250
2242.80905,0.19138
2244.73752,0.19144
2246.66599,0.19158
2248.59446,0.19071
2250.52293,0.18989
2252.45139,0.18995
2254.37986,0.19080
2256.30833,0.19039
2258.23680,0.18891
2260.16527,0.18902
2262.09374,0.19014
2264.02221,0.19104
2265.95067,0.19202
2267.87914,0.19261
2269.80761,0.19379
2271.73608,0.19562
2273.66455,0.19540
2275.59302,0.19369
2277.52149,0.19234
2279.44996,0.19121
2281.37842,0.19062
2283.30689,0.19135
2285.23536,0.19295
2287.16383,0.19368
2289.09230,0.19237
2291.02077,0.18923
2292.94924,0.18560
2294.87770,0.18364
2296.80617,0.18562
2298.73464,0.19006
2300.66311,0.19107
2302.59158,0.18825
2304.52005,0.18688
2306.44852,0.18692
2308.37699,0.18535
2310.30545,0.18272
2312.23392,0.18043
2314.16239,0.17919
2316.09086,0.18039
2318.01933,0.18380
2319.94780,0.18606
2321.87627,0.18848
2323.80473,0.19530
2325.73320,0.19816
2327.66167,0.19065
2329.59014,0.18067
2331.51861,0.17355
2333.44708,0.17278
2335.37555,0.17691
2337.30401,0.17544
2339.23248,0.17230
2341.16095,0.17346
2343.08942,0.17217
2345.01789,0.17079
2346.94636,0.17123
2348.87483,0.16987
2350.80330,0.16775
2352.73176,0.17068
2354.66023,0.17940
2356.58870,0.18295
2358.51717,0.18832
2360.44564,0.19155
2362.37411,0.17540
2364.30258,0.17020
2366.23104,0.18444
2368.15951,0.18669
2370.08798,0.17898
2372.01645,0.17719
2373.94492,0.17940
2375.87339,0.18126
2377.80186,0.18427
2379.73033,0.18824
2381.65879,0.18950
2383.58726,0.18902
2385.51573,0.19076
2387.44420,0.19297
2389.37267,0.19226
2391.30114,0.19021
2393.22961,0.18947
2395.15807,0.19181
2397.08654,0.19598
2399.01501,0.19634
2400.94348,0.19412
2402.87195,0.19480
2404.80042,0.19606
2406.72889,0.19613
2408.65736,0.19618
2410.58582,0.19547
2412.51429,0.19484
2414.44276,0.19398
2416.37123,0.19152
2418.29970,0.18940
2420.22817,0.18959
2422.15664,0.19075
2424.08510,0.19129
2426.01357,0.19170
2427.94204,0.19202
2429.87051,0.19282
2431.79898,0.19419
2433.72745,0.19392
2435.65592,0.19316
2437.58439,0.19481
2439.51285,0.19669
2441.44132,0.19624
2443.36979,0.19526
2445.29826,0.19484
2447.22673,0.19374
2449.15520,0.19191
2451.08367,0.19069
2453.01213,0.19254
2454.94060,0.19622
2456.86907,0.19650
2458.79754,0.19402
2460.72601,0.19224
2462.65448,0.19150
2464.58295,0.19121
2466.51142,0.19033
2468.43988,0.19100
2470.36835,0.19382
2472.29682,0.19399
2474.22529,0.19230
2476.15376,0.19354
2478.08223,0.19638
2480.01070,0.19787
2481.93916,0.19697
2483.86763,0.19445
2485.79610,0.19421
2487.72457,0.19559
2489.65304,0.19482
2491.58151,0.19373
2493.50998,0.19391
2495.43844,0.19412
2497.36691,0.19499
2499.29538,0.19635
2501.22385,0.19582
2503.15232,0.19419
2505.08079,0.19465
2507.00926,0.19700
2508.93773,0.19838
2510.86619,0.19725
2512.79466,0.19557
2514.72313,0.19600
2516.65160,0.19786
2518.58007,0.19825
2520.50854,0.19556
2522.43701,0.19306
2524.36547,0.19344
2526.29394,0.19382
2528.22241,0.19320
2530.15088,0.19322
2532.07935,0.19377
2534.00782,0.19328
2535.93629,0.19041
2537.86476,0.18757
2539.79322,0.18738
2541.72169,0.18815
2543.65016,0.18814
2545.57863,0.18928
2547.50710,0.19235
2549.43557,0.19392
2551.36404,0.19295
2553.29250,0.19238
2555.22097,0.19313
2557.14944,0.19427
2559.07791,0.19518
2561.00638,0.19422
2562.93485,0.19233
2564.86332,0.19274
2566.79179,0.19466
2568.72025,0.19548
2570.64872,0.19545
2572.57719,0.19674
2574.50566,0.19822
2576.43413,0.19729
2578.36260,0.19650
2580.29107,0.19773
2582.21953,0.19856
2584.14800,0.19888
2586.07647,0.19955
2588.00494,0.19851
2589.93341,0.19569
2591.86188,0.19433
2593.79035,0.19388
2595.71882,0.19203
2597.64728,0.19116
2599.57575,0.19263
2601.50422,0.19442
2603.43269,0.19504
2605.36116,0.19359
2607.28963,0.19237
2609.21810,0.19365
2611.14656,0.19425
2613.07503,0.19218
2615.00350,0.19029
2616.93197,0.19103
2618.86044,0.19392
2620.78891,0.19613
2622.71738,0.19579
2624.64585,0.19486
2626.57431,0.19522
2628.50278,0.19738
2630.43125,0.20043
2632.35972,0.20138
2634.28819,0.20052
2636.21666,0.20058
2638.14513,0.20087
2640.07359,0.19933
2642.00206,0.19800
2643.93053,0.19801
2645.85900,0.19682
2647.78747,0.19567
2649.71594,0.19496
2651.64441,0.19221
2653.57288,0.18958
2655.50134,0.19088
2657.42981,0.19440
2659.35828,0.19557
2661.28675,0.19514
2663.21522,0.19659
2665.14369,0.19928
2667.07216,0.20055
2669.00062,0.20099
2670.92909,0.20229
2672.85756,0.20273
2674.78603,0.20064
2676.71450,0.19783
2678.64297,0.19746
2680.57144,0.19899
2682.49990,0.19925
2684.42837,0.19898
2686.35684,0.20035
2688.28531,0.20232
2690.21378,0.20237
2692.14225,0.19967
2694.07072,0.19737
2695.99919,0.19846
2697.92765,0.19969
2699.85612,0.19918
2701.78459,0.19869
2703.71306,0.19748
2705.64153,0.19591
2707.57000,0.19496
2709.49847,0.19547
2711.42693,0.19851
2713.35540,0.20247
2715.28387,0.20465
2717.21234,0.20318
2719.14081,0.20124
2721.06928,0.20226
2722.99775,0.20255
2724.92622,0.19994
2726.85468,0.19903
2728.78315,0.20162
2730.71162,0.20310
2732.64009,0.20257
2734.56856,0.20321
2736.49703,0.20464
2738.42550,0.20502
2740.35396,0.20445
2742.28243,0.20467
2744.21090,0.20643
2746.13937,0.20750
2748.06784,0.20678
2749.99631,0.20550
2751.92478,0.20369
2753.85325,0.20154
2755.78171,0.20024
2757.71018,0.20148
2759.63865,0.20510
2761.56712,0.20662
2763.49559,0.20538
2765.42406,0.20663
2767.35253,0.20998
2769.28099,0.21203
2771.20946,0.21360
2773.13793,0.21326
2775.06640,0.20962
2776.99487,0.20665
2778.92334,0.20668
2780.85181,0.20795
2782.78028,0.20827
2784.70874,0.20615
2786.63721,0.20223
2788.56568,0.20027
2790.49415,0.20157
2792.42262,0.20352
2794.35109,0.20496
2796.27956,0.20560
2798.20802,0.20475
2800.13649,0.20403
2802.06496,0.20515
2803.99343,0.20616
2805.92190,0.20580
2807.85037,0.20591
2809.77884,0.20851
2811.70731,0.21214
2813.63577,0.21246
2815.56424,0.21003
2817.49271,0.20903
2819.42118,0.21041
2821.34965,0.21107
2823.27812,0.20997
2825.20659,0.20944
2827.13505,0.20937
2829.06352,0.20939
2830.99199,0.20885
2832.92046,0.20694
2834.84893,0.20662
2836.77740,0.21024
2838.70587,0.21361
2840.63433,0.21204
2842.56280,0.20933
2844.49127,0.20913
2846.41974,0.20862
2848.34821,0.20759
2850.27668,0.20900
2852.20515,0.21338
2854.13362,0.21893
2856.06208,0.22136
2857.99055,0.21887
2859.91902,0.21470
2861.84749,0.20913
2863.77596,0.20220
2865.70443,0.19877
2867.63290,0.20135
2869.56136,0.20623
2871.48983,0.20792
2873.41830,0.20714
2875.34677,0.20717
2877.27524,0.20756
2879.20371,0.20887
2881.13218,0.21008
2883.06065,0.20846
2884.98911,0.20663
2886.91758,0.20693
2888.84605,0.20787
2890.77452,0.20892
2892.70299,0.20862
2894.63146,0.20512
2896.55993,0.20162
2898.48839,0.20355
2900.41686,0.20954
2902.34533,0.21205
2904.27380,0.20885
2906.20227,0.20742
2908.13074,0.21165
2910.05921,0.21482
2911.98768,0.21492
2913.91614,0.21358
2915.84461,0.20851
2917.77308,0.20415
2919.70155,0.20388
2921.63002,0.20394
2923.55849,0.20126
2925.48696,0.19684
2927.41542,0.19686
2929.34389,0.20014
2931.27236,0.20220
2933.20083,0.20464
2935.12930,0.20330
2937.05777,0.19698
2938.98624,0.19421
2940.91471,0.19539
2942.84317,0.19615
2944.77164,0.19355
2946.70011,0.18511
2948.62858,0.18064
2950.55705,0.18646
2952.48552,0.19350
2954.41399,0.19433
2956.34245,0.18806
2958.27092,0.18558
2960.19939,0.19460
2962.12786,0.20341
2964.05633,0.20425
2965.98480,0.20185
2967.91327,0.20009
2969.84174,0.19992
2971.77020,0.20085
2973.69867,0.20355
2975.62714,0.20505
2977.55561,0.20139
2979.48408,0.20135
2981.41255,0.20918
2983.34102,0.21406
2985.26948,0.21083
2987.19795,0.20383
2989.12642,0.20101
2991.05489,0.20557
2992.98336,0.21082
2994.91183,0.21211
2996.84030,0.20972
2998.76877,0.20808
3000.69723,0.21280
3002.62570,0.21755
3004.55417,0.21374
3006.48264,0.20544
3008.41111,0.19783
3010.33958,0.18695
3012.26805,0.16562
3014.19651,0.13245
3016.12498,0.10766
3018.05345,0.12404
3019.98192,0.17185
3021.91039,0.20663
3023.83886,0.21507
3025.76733,0.21100
3027.69579,0.20642
3029.62426,0.20915
3031.55273,0.21703
3033.48120,0.21993
3035.40967,0.21510
3037.33814,0.20797
3039.26661,0.20515
3041.19508,0.20697
3043.12354,0.20687
3045.05201,0.20242
3046.98048,0.19801
3048.90895,0.20024
3050.83742,0.20740
3052.76589,0.21202
3054.69436,0.20958
3056.62282,0.20075
3058.55129,0.19829
3060.47976,0.20564
3062.40823,0.21088
3064.33670,0.20791
3066.26517,0.20030
3068.19364,0.20139
3070.12211,0.21130
3072.05057,0.21519
3073.97904,0.21055
3075.90751,0.20315
3077.83598,0.20244
3079.76445,0.21274
3081.69292,0.21692
3083.62139,0.19869
3085.54985,0.17958
3087.47832,0.18775
3089.40679,0.20451
3091.33526,0.20453
3093.26373,0.19494
3095.19220,0.19074
3097.12067,0.19757
3099.04914,0.20820
3100.97760,0.20945
3102.90607,0.19806
3104.83454,0.19233
3106.76301,0.20105
3108.69148,0.20862
3110.61995,0.20613
3112.54842,0.19754
3114.47688,0.19502
3116.40535,0.20368
3118.33382,0.21275
3120.26229,0.21072
3122.19076,0.20048
3124.11923,0.19842
3126.04770,0.20574
3127.97617,0.20875
3129.90463,0.20616
3131.83310,0.20743
3133.76157,0.21167
3135.69004,0.21173
3137.61851,0.20957
3139.54698,0.21067
3141.47545,0.21637
3143.40391,0.22016
3145.33238,0.21697
3147.26085,0.21028
3149.18932,0.20683
3151.11779,0.21078
3153.04626,0.21771
3154.97473,0.22098
3156.90320,0.21977
3158.83166,0.21824
3160.76013,0.21945
3162.68860,0.22108
3164.61707,0.22160
3166.54554,0.22117
3168.47401,0.21966
3170.40248,0.21942
3172.33094,0.22048
3174.25941,0.22121
3176.18788,0.22237
3178.11635,0.22214
3180.04482,0.21973
3181.97329,0.21740
3183.90176,0.21506
3185.83022,0.21299
3187.75869,0.21282
3189.68716,0.21412
3191.61563,0.21596
3193.54410,0.21892
3195.47257,0.22190
3197.40104,0.22108
3199.32951,0.21633
3201.25797,0.21342
3203.18644,0.21468
3205.11491,0.21699
3207.04338,0.21810
3208.97185,0.21750
3210.90032,0.21820
3212.82879,0.22231
3214.75725,0.22461
3216.68572,0.22285
3218.61419,0.21963
3220.54266,0.21581
3222.47113,0.21533
3224.39960,0.21858
3226.32807,0.22065
3228.25654,0.22063
3230.18500,0.21845
3232.11347,0.21571
3234.04194,0.21604
3235.97041,0.21802
3237.89888,0.21894
3239.82735,0.21981
3241.75582,0.21981
3243.68428,0.21758
3245.61275,0.21597
3247.54122,0.21568
3249.46969,0.21434
3251.39816,0.21225
3253.32663,0.21189
3255.25510,0.21372
3257.18357,0.21516
3259.11203,0.21296
3261.04050,0.20969
3262.96897,0.20996
3264.89744,0.20986
3266.82591,0.20816
3268.75438,0.20943
3270.68285,0.21171
3272.61131,0.21217
3274.53978,0.21270
3276.46825,0.21266
3278.39672,0.21172
3280.32519,0.21383
3282.25366,0.21698
3284.18213,0.21695
3286.11060,0.21462
3288.03906,0.21014
3289.96753,0.20687
3291.89600,0.20879
3293.82447,0.21276
3295.75294,0.21532
3297.68141,0.21674
3299.60988,0.21868
3301.53834,0.22025
3303.46681,0.21943
3305.39528,0.21896
3307.32375,0.22132
3309.25222,0.22460
3311.18069,0.22493
3313.10916,0.21852
3315.03763,0.20945
3316.96609,0.20509
3318.89456,0.20550
3320.82303,0.20969
3322.75150,0.21502
3324.67997,0.21641
3326.60844,0.21653
3328.53691,0.22035
3330.46537,0.22711
3332.39384,0.23131
3334.32231,0.22904
3336.25078,0.22364
3338.17925,0.21879
3340.10772,0.21546
3342.03619,0.21560
3343.96466,0.21883
3345.89312,0.22083
3347.82159,0.22100
3349.75006,0.22036
3351.67853,0.21782
3353.60700,0.21737
3355.53547,0.21912
3357.46394,0.21922
3359.39240,0.21964
3361.32087,0.21954
3363.24934,0.21830
3365.17781,0.21768
3367.10628,0.21809
3369.03475,0.22148
3370.96322,0.22272
3372.89168,0.21487
3374.82015,0.20549
3376.74862,0.20533
3378.67709,0.21171
3380.60556,0.21455
3382.53403,0.21249
3384.46250,0.21337
3386.39097,0.21599
3388.31943,0.21415
3390.24790,0.21233
3392.17637,0.21331
3394.10484,0.21464
3396.03331,0.21732
3397.96178,0.22037
3399.89025,0.22149
3401.81871,0.22149
3403.74718,0.22094
3405.67565,0.22084
3407.60412,0.22197
3409.53259,0.22129
3411.46106,0.21786
3413.38953,0.21714
3415.31800,0.22060
3417.24646,0.22145
3419.17493,0.21590
3421.10340,0.20995
3423.03187,0.20886
3424.96034,0.20719
3426.88881,0.20295
3428.81728,0.20187
3430.74574,0.19996
3432.67421,0.19352
3434.60268,0.19123
3436.53115,0.19549
3438.45962,0.20278
3440.38809,0.20992
3442.31656,0.21099
3444.24503,0.20929
3446.17349,0.21126
3448.10196,0.21140
3450.03043,0.20557
3451.95890,0.19880
3453.88737,0.19444
3455.81584,0.19388
3457.74431,0.19588
3459.67277,0.19483
3461.60124,0.19179
3463.52971,0.19158
3465.45818,0.19195
3467.38665,0.19241
3469.31512,0.19591
3471.24359,0.20161
3473.17206,0.20451
3475.10052,0.20116
3477.02899,0.19558
3478.95746,0.19310
3480.88593,0.19362
3482.81440,0.19545
3484.74287,0.19810
3486.67134,0.19963
3488.59980,0.19676
3490.52827,0.18999
3492.45674,0.18576
3494.38521,0.18752
3496.31368,0.19038
3498.24215,0.19109
3500.17062,0.19167
3502.09909,0.19152
3504.02755,0.18827
3505.95602,0.18647
3507.88449,0.19013
3509.81296,0.19224
3511.74143,0.18871
3513.66990,0.18611
3515.59837,0.18568
3517.52683,0.18266
3519.45530,0.17791
3521.38377,0.17766
3523.31224,0.18356
3525.24071,0.18980
3527.16918,0.19292
3529.09765,0.19173
3531.02611,0.18488
3532.95458,0.17891
3534.88305,0.17826
3536.81152,0.17837
3538.73999,0.17800
3540.66846,0.18043
3542.59693,0.18350
3544.52540,0.18238
3546.45386,0.17818
3548.38233,0.17382
3550.31080,0.16814
3552.23927,0.16186
3554.16774,0.15758
3556.09621,0.15500
3558.02468,0.15354
3559.95314,0.15582
3561.88161,0.16379
3563.81008,0.17501
3565.73855,0.18481
3567.66702,0.18508
3569.59549,0.17485
3571.52396,0.16472
3573.45243,0.15852
3575.38089,0.15729
3577.30936,0.16165
3579.23783,0.16544
3581.16630,0.16478
3583.09477,0.16379
3585.02324,0.16514
3586.95171,0.16732
3588.88017,0.16435
3590.80864,0.15881
3592.73711,0.15805
3594.66558,0.16430
3596.59405,0.17066
3598.52252,0.16817
3600.45099,0.16204
3602.37946,0.16194
3604.30792,0.16640
3606.23639,0.17000
3608.16486,0.16910
3610.09333,0.16426
3612.02180,0.16039
3613.95027,0.15943
3615.87874,0.16091
3617.80720,0.16288
3619.73567,0.16183
3621.66414,0.15741
3623.59261,0.15358
3625.52108,0.15343
3627.44955,0.15761
3629.37802,0.15952
3631.30649,0.15462
3633.23495,0.15010
3635.16342,0.14797
3637.09189,0.14506
3639.02036,0.14079
3640.94883,0.14155
3642.87730,0.14643
3644.80577,0.14947
3646.73423,0.15452
3648.66270,0.16295
3650.59117,0.15800
3652.51964,0.14494
3654.44811,0.13692
3656.37658,0.13471
3658.30505,0.13621
3660.23352,0.13869
3662.16198,0.14032
3664.09045,0.14006
3666.01892,0.13948
3667.94739,0.14181
3669.87586,0.14768
3671.80433,0.15132
3673.73280,0.15310
3675.66126,0.15265
3677.58973,0.14715
3679.51820,0.14054
3681.44667,0.13424
3683.37514,0.13019
3685.30361,0.13003
3687.23208,0.13683
3689.16055,0.14850
3691.08901,0.14874
3693.01748,0.14034
3694.94595,0.13447
3696.87442,0.13199
3698.80289,0.13271
3700.73136,0.13702
3702.65983,0.14057
3704.58829,0.13884
3706.51676,0.13718
3708.44523,0.14155
3710.37370,0.15115
3712.30217,0.15267
3714.23064,0.14153
3716.15911,0.13160
3718.08757,0.12837
3720.01604,0.13074
3721.94451,0.13485
3723.87298,0.13594
3725.80145,0.13447
3727.72992,0.13378
3729.65839,0.13587
3731.58686,0.14369
3733.51532,0.15523
3735.44379,0.15870
3737.37226,0.15340
3739.30073,0.14921
3741.22920,0.14702
3743.15767,0.14590
3745.08614,0.14593
3747.01460,0.15228
3748.94307,0.16830
3750.87154,0.17589
3752.80001,0.15671
3754.72848,0.14274
3756.65695,0.14405
3758.58542,0.14712
3760.51389,0.13950
3762.44235,0.13130
3764.37082,0.13061
3766.29929,0.13292
3768.22776,0.13452
3770.15623,0.13437
3772.08470,0.12997
3774.01317,0.12414
3775.94163,0.12370
3777.87010,0.13032
3779.79857,0.13429
3781.72704,0.13160
3783.65551,0.13095
3785.58398,0.13172
3787.51245,0.12926
3789.44092,0.12665
3791.36938,0.12634
3793.29785,0.12597
3795.22632,0.12507
3797.15479,0.12469
3799.08326,0.12467
3801.01173,0.12896
3802.94020,0.13800
3804.86866,0.14171
3806.79713,0.13704
3808.72560,0.13014
3810.65407,0.12777
3812.58254,0.12711
3814.51101,0.12897
3816.43948,0.13355
3818.36795,0.13672
3820.29641,0.13961
3822.22488,0.13642
3824.15335,0.13014
3826.08182,0.12740
3828.01029,0.12665
3829.93876,0.12881
3831.86723,0.13444
3833.79569,0.14220
3835.72416,0.15138
3837.65263,0.15735
3839.58110,0.15205
3841.50957,0.14461
3843.43804,0.14289
3845.36651,0.13976
3847.29498,0.13447
3849.22344,0.13230
3851.15191,0.13275
3853.08038,0.12778
3855.00885,0.11765
3856.93732,0.11591
3858.86579,0.11872
3860.79426,0.12474
3862.72272,0.13273
3864.65119,0.13553
3866.57966,0.13513
3868.50813,0.13946
3870.43660,0.14485
3872.36507,0.14648
3874.29354,0.14546
3876.22200,0.13735
3878.15047,0.12706
3880.07894,0.12389
3882.00741,0.12738
3883.93588,0.13005
3885.86435,0.12584
3887.79282,0.11589
3889.72129,0.11205
3891.64975,0.11783
3893.57822,0.12287
3895.50669,0.12175
3897.43516,0.11958
3899.36363,0.12129
3901.29210,0.12879
3903.22057,0.13426
3905.14903,0.12943
3907.07750,0.12130
3909.00597,0.11699
3910.93444,0.11381
3912.86291,0.11089
3914.79138,0.11251
3916.71985,0.11921
3918.64832,0.12393
3920.57678,0.12300
3922.50525,0.12383
3924.43372,0.12982
3926.36219,0.13316
3928.29066,0.12934
3930.21913,0.12114
3932.14760,0.11413
3934.07606,0.11340
3936.00453,0.11446
3937.93300,0.11150
3939.86147,0.10786
3941.78994,0.10882
3943.71841,0.11308
3945.64688,0.11678
3947.57535,0.11817
3949.50381,0.11539
3951.43228,0.10902
3953.36075,0.10420
3955.28922,0.10577
3957.21769,0.11192
3959.14616,0.11557
3961.07463,0.11713
3963.00309,0.12087
3964.93156,0.12308
3966.86003,0.12006
3968.78850,0.11627
3970.71697,0.11591
3972.64544,0.11500
3974.57391,0.11255
3976.50238,0.11284
3978.43084,0.11467
3980.35931,0.11551
3982.28778,0.11748
3984.21625,0.12212
3986.14472,0.12394
3988.07319,0.11966
3990.00166,0.11299
3991.93012,0.10783
3993.85859,0.10651
3995.78706,0.10743
3997.71553,0.10919
3999.64400,0.11190
4001.57247,0.11212
4003.50094,0.10839
4005.42941,0.10545
4007.35787,0.10635
4009.28634,0.10703
4011.21481,0.10431
4013.14328,0.10069
4015.07175,0.09830
4017.00022,0.09799
4018.92869,0.09955
4020.85715,0.09944
4022.78562,0.09569
4024.71409,0.08877
4026.64256,0.08199
4028.57103,0.07934
4030.49950,0.08019
4032.42797,0.08503
4034.35644,0.09203
4036.28490,0.09652
4038.21337,0.09856
4040.14184,0.09925
4042.07031,0.09763
4043.99878,0.09503
4045.92725,0.09702
4047.85572,0.10129
4049.78418,0.10121
4051.71265,0.10025
4053.64112,0.10005
4055.56959,0.09670
4057.49806,0.09394
4059.42653,0.09804
4061.35500,0.10625
4063.28346,0.11001
4065.21193,0.10598
4067.14040,0.10073
4069.06887,0.09916
4070.99734,0.09875
4072.92581,0.09831
4074.85428,0.09774
4076.78275,0.09621
4078.71121,0.09426
4080.63968,0.09310
4082.56815,0.09220
4084.49662,0.09107
4086.42509,0.09045
4088.35356,0.09245
4090.28203,0.09910
4092.21049,0.10154
4094.13896,0.09602
4096.06743,0.09390
4097.99590,0.09404
4099.92437,0.09010
4101.85284,0.08726
4103.78131,0.08716
4105.70978,0.08494
4107.63824,0.07955
4109.56671,0.07664
4111.49518,0.07837
4113.42365,0.08084
4115.35212,0.08456
4117.28059,0.09155
4119.20906,0.09803
4121.13752,0.09878
4123.06599,0.09531
4124.99446,0.09234
4126.92293,0.08999
4128.85140,0.08838
4130.77987,0.09169
4132.70834,0.10162
4134.63681,0.10679
4136.56527,0.09606
4138.49374,0.08290
4140.42221,0.08470
4142.35068,0.09266
4144.27915,0.09244
4146.20762,0.08934
4148.13609,0.09164
4150.06455,0.09545
4151.99302,0.09573
4153.92149,0.09389
4155.84996,0.09243
4157.77843,0.09163
4159.70690,0.09131
4161.63537,0.09090
4163.56384,0.08886
4165.49230,0.08611
4167.42077,0.08537
4169.34924,0.08422
4171.27771,0.08164
4173.20618,0.08190
4175.13465,0.08559
4177.06312,0.08893
4178.99158,0.08862
4180.92005,0.08673
4182.84852,0.08552
4184.77699,0.08082
4186.70546,0.07098
4188.63393,0.06423
4190.56240,0.06616
4192.49087,0.07116
4194.41933,0.07640
4196.34780,0.08046
4198.27627,0.07707
4200.20474,0.06799
4202.13321,0.06001
4204.06168,0.05432
4205.99015,0.05231
4207.91861,0.05725
4209.84708,0.06821
4211.77555,0.07854
4213.70402,0.08184
4215.63249,0.07786
4217.56096,0.07054
4219.48943,0.06453
4221.41789,0.06171
4223.34636,0.06004
4225.27483,0.06011
4227.20330,0.06409
4229.13177,0.06821
4231.06024,0.06859
4232.98871,0.06620
4234.91718,0.06184
4236.84564,0.05898
4238.77411,0.06127
4240.70258,0.06354
4242.63105,0.06229
4244.55952,0.06177
4246.48799,0.06228
4248.41646,0.06271
4250.34492,0.06474
4252.27339,0.06502
4254.20186,0.06166
4256.13033,0.06003
4258.05880,0.06261
4259.98727,0.06529
4261.91574,0.06525
4263.84421,0.06387
4265.77267,0.06261
4267.70114,0.06217
4269.62961,0.06244
4271.55808,0.06293
4273.48655,0.06109
4275.41502,0.05775
4277.34349,0.06082
4279.27195,0.06951
4281.20042,0.07379
4283.12889,0.06900
4285.05736,0.06069
4286.98583,0.05492
4288.91430,0.04975
4290.84277,0.04918
4292.77124,0.05780
4294.69970,0.06512
4296.62817,0.06475
4298.55664,0.06282
4300.48511,0.06159
4302.41358,0.05981
4304.34205,0.06005
4306.27052,0.06205
4308.19898,0.05979
4310.12745,0.05202
4312.05592,0.04580
4313.98439,0.04402
4315.91286,0.04470
4317.84133,0.04748
4319.76980,0.05033
4321.69827,0.05320
4323.62673,0.05322
4325.55520,0.04632
4327.48367,0.04111
4329.41214,0.04364
4331.34061,0.04876
4333.26908,0.05394
4335.19755,0.05839
4337.12601,0.05707
4339.05448,0.05417
4340.98295,0.05787
4342.91142,0.05615
4344.83989,0.04458
4346.76836,0.04111
4348.69683,0.04622
4350.62530,0.04625
4352.55376,0.04231
4354.48223,0.04307
4356.41070,0.04792
4358.33917,0.05286
4360.26764,0.05743
4362.19611,0.05822
4364.12458,0.05325
4366.05304,0.04923
4367.98151,0.05053
4369.90998,0.05092
4371.83845,0.04884
4373.76692,0.04990
4375.69539,0.05176
4377.62386,0.04962
4379.55232,0.04444
4381.48079,0.03877
4383.40926,0.03884
4385.33773,0.05010
4387.26620,0.06213
4389.19467,0.05845
4391.12314,0.04381
4393.05161,0.03570
4394.98007,0.03733
4396.90854,0.03993
4398.83701,0.03662
4400.76548,0.02966
4402.69395,0.02972
4404.62242,0.03803
4406.55089,0.04354
4408.47935,0.04401
4410.40782,0.04552
4412.33629,0.04924
4414.26476,0.05151
4416.19323,0.04940
4418.12170,0.04376
4420.05017,0.03787
4421.97864,0.03504
4423.90710,0.03320
4425.83557,0.02774
4427.76404,0.02306
4429.69251,0.02730
4431.62098,0.03660
4433.54945,0.03656
4435.47792,0.02925
4437.40638,0.02886
4439.33485,0.02978
4441.26332,0.02670
4443.19179,0.02931
4445.12026,0.03532
4447.04873,0.03662
4448.97720,0.03757
4450.90567,0.03893
4452.83413,0.03470
4454.76260,0.02887
4456.69107,0.02757
4458.61954,0.03142
4460.54801,0.03658
4462.47648,0.03654
4464.40495,0.03236
4466.33341,0.02917
4468.26188,0.02980
4470.19035,0.03452
4472.11882,0.03932
4474.04729,0.03844
4475.97576,0.03165
4477.90423,0.02497
4479.83270,0.01983
4481.76116,0.01710
4483.68963,0.02277
4485.61810,0.03393
4487.54657,0.03874
4489.47504,0.03232
4491.40351,0.01831
4493.33198,0.00943
4495.26044,0.01635
4497.18891,0.02756
4499.11738,0.03051
4501.04585,0.03074
4502.97432,0.03196
4504.90279,0.03343
4506.83126,0.03810
4508.75973,0.04071
4510.68819,0.03141
4512.61666,0.01838
4514.54513,0.01691
4516.47360,0.02237
4518.40207,0.02244
4520.33054,0.01757
4522.25901,0.01242
4524.18747,0.00738
4526.11594,0.00354
4528.04441,0.00485
4529.97288,0.01264
4531.90135,0.02164
4533.82982,0.02704
4535.75829,0.02480
4537.68676,0.01512
4539.61522,0.00872
4541.54369,0.01019
4543.47216,0.01345
4545.40063,0.01254
4547.32910,0.00503
4549.25757,-0.00546
4551.18604,-0.00993
4553.11450,-0.00171
4555.04297,0.00930
4556.97144,0.00887
4558.89991,0.00301
4560.82838,0.00523
4562.75685,0.01442
4564.68532,0.01779
4566.61378,0.01266
4568.54225,0.01437
4570.47072,0.02616
4572.39919,0.03012
4574.32766,0.02144
4576.25613,0.01442
4578.18460,0.01063
4580.11307,0.00303
4582.04153,0.00093
4583.97000,0.00716
4585.89847,0.00871
4587.82694,0.00573
4589.75541,0.00881
4591.68388,0.01725
4593.61235,0.02099
4595.54081,0.01789
4597.46928,0.01557
4599.39775,0.01966
4601.32622,0.02415
4603.25469,0.02086
4605.18316,0.01366
4607.11163,0.00726
4609.04010,0.00186
4610.96856,0.00192
4612.89703,0.01128
4614.82550,0.02248
4616.75397,0.02548
4618.68244,0.02315
4620.61091,0.02097
4622.53938,0.01929
4624.46784,0.01941
4626.39631,0.01958
4628.32478,0.01690
4630.25325,0.01373
4632.18172,0.01046
4634.11019,0.00654
4636.03866,0.00575
4637.96713,0.00707
4639.89559,0.00867
4641.82406,0.01135
4643.75253,0.01659
4645.68100,0.02247
4647.60947,0.01865
4649.53794,0.01065
4651.46641,0.01516
4653.39487,0.02281
4655.32334,0.01841
4657.25181,0.01169
4659.18028,0.01414
4661.10875,0.01742
4663.03722,0.01629
4664.96569,0.02076
4666.89416,0.03082
4668.82262,0.03269
4670.75109,0.02139
4672.67956,0.01000
4674.60803,0.01309
4676.53650,0.02415
4678.46497,0.02715
4680.39344,0.02127
4682.32190,0.01458
4684.25037,0.00992
4686.17884,0.00791
4688.10731,0.01436
4690.03578,0.02494
4691.96425,0.02240
4693.89272,0.01269
4695.82119,0.01268
4697.74965,0.01377
4699.67812,0.00423
4701.60659,-0.00723
4703.53506,-0.00754
4705.46353,0.00181
4707.39200,0.01503
4709.32047,0.02522
4711.24893,0.02219
4713.17740,0.01495
4715.10587,0.01540
4717.03434,0.01561
4718.96281,0.01079
4720.89128,0.00934
4722.81975,0.01091
4724.74821,0.00494
4726.67668,-0.00583
4728.60515,-0.01232
4730.53362,-0.01504
4732.46209,-0.01728
4734.39056,-0.01435
4736.31903,-0.00150
4738.24750,0.00979
4740.17596,0.00870
4742.10443,0.00775
4744.03290,0.02126
4745.96137,0.03177
4747.88984,0.02140
4749.81831,0.01009
4751.74678,0.01161
4753.67524,0.01312
4755.60371,0.01091
4757.53218,0.00674
4759.46065,0.00055
4761.38912,0.00019
4763.31759,0.00515
4765.24606,0.00111
4767.17453,-0.01034
4769.10299,-0.01146
4771.03146,-0.00000
4772.95993,0.01037
4774.88840,0.01085
4776.81687,0.00256
4778.74534,-0.00678
4780.67381,-0.00608
4782.60227,0.00237
4784.53074,0.00941
4786.45921,0.01520
4788.38768,0.01227
4790.31615,0.00264
4792.24462,0.00529
4794.17309,0.01898
4796.10156,0.02629
4798.03002,0.01548
4799.95849,-0.00257
4801.88696,-0.00317
4803.81543,0.01182
4805.74390,0.02361
4807.67237,0.03138
4809.60084,0.03682
4811.52930,0.03365
4813.45777,0.01624
4815.38624,-0.00900
4817.31471,-0.01585
4819.24318,0.00049
4821.17165,0.00960
4823.10012,0.00693
4825.02859,0.01120
4826.95705,0.01462
4828.88552,0.01218
4830.81399,0.01521
4832.74246,0.01554
4834.67093,0.00749
4836.59940,0.00356
4838.52787,0.00365
4840.45633,-0.00146
4842.38480,-0.00367
4844.31327,0.00345
4846.24174,0.00515
4848.17021,-0.00034
4850.09868,0.00240
4852.02715,0.01006
4853.95562,0.01353
4855.88408,0.01636
4857.81255,0.01800
4859.74102,0.01878
4861.66949,0.02326
4863.59796,0.02630
4865.52643,0.01710
4867.45490,0.00371
4869.38336,0.00659
4871.31183,0.01457
4873.24030,0.00913
4875.16877,0.00193
4877.09724,0.00239
4879.02571,0.00571
4880.95418,0.01055
4882.88265,0.01715
4884.81111,0.02039
4886.73958,0.01776
4888.66805,0.01478
4890.59652,0.01471
4892.52499,0.01649
4894.45346,0.01924
4896.38193,0.01869
4898.31039,0.00830
4900.23886,-0.00775
4902.16733,-0.01946
4904.09580,-0.02121
4906.02427,-0.01093
4907.95274,0.00252
4909.88121,0.00481
4911.80967,-0.00160
4913.73814,-0.00273
4915.66661,0.00617
4917.59508,0.02338
4919.52355,0.03678
4921.45202,0.03132
4923.38049,0.01730
4925.30896,0.01665
4927.23742,0.02396
4929.16589,0.01869
4931.09436,0.00720
4933.02283,0.00537
4934.95130,0.00999
4936.87977,0.01576
4938.80824,0.01850
4940.73670,0.02128
4942.66517,0.03298
4944.59364,0.03886
4946.52211,0.02537
4948.45058,0.00968
4950.37905,0.00604
4952.30752,0.00977
4954.23599,0.01189
4956.16445,0.01017
4958.09292,0.00781
4960.02139,0.00634
4961.94986,0.00383
4963.87833,-0.00221
4965.80680,-0.00756
4967.73527,-0.00875
4969.66373,-0.00671
4971.59220,0.00296
4973.52067,0.01299
4975.44914,0.00895
4977.37761,0.00438
4979.30608,0.01312
4981.23455,0.02331
4983.16302,0.02764
4985.09148,0.02596
4987.01995,0.01856
4988.94842,0.01166
4990.87689,0.01205
4992.80536,0.02294
4994.73383,0.03864
4996.66230,0.04228
4998.59076,0.03171
5000.51923,0.02295
5002.44770,0.01332
5004.37617,-0.00311
5006.30464,-0.00913
5008.23311,0.00014
5010.16158,0.00665
5012.09005,0.00576
5014.01851,0.01006
5015.94698,0.01838
5017.87545,0.01911
5019.80392,0.01596
5021.73239,0.01674
5023.66086,0.00716
5025.58933,-0.01910
5027.51779,-0.03341
5029.44626,-0.02002
5031.37473,0.00415
5033.30320,0.01923
5035.23167,0.01819
5037.16014,0.01268
5039.08861,0.02211
5041.01708,0.03949
5042.94554,0.04223
5044.87401,0.03852
5046.80248,0.03900
5048.73095,0.03694
5050.65942,0.03019
5052.58789,0.01592
5054.51636,0.00891
5056.44482,0.02321
5058.37329,0.03874
5060.30176,0.04407
5062.23023,0.04199
5064.15870,0.02746
5066.08717,0.00822
5068.01564,0.00374
5069.94410,0.01410
5071.87257,0.01501
5073.80104,0.00462
5075.72951,0.00796
5077.65798,0.01926
5079.58645,0.01467
5081.51492,0.00434
5083.44339,0.00688
5085.37185,0.01490
5087.30032,0.02235
5089.22879,0.03220
5091.15726,0.03586
5093.08573,0.03039
5095.01420,0.02643
5096.94267,0.02453
5098.87113,0.02615
5100.79960,0.03456
5102.72807,0.03410
5104.65654,0.02826
5106.58501,0.03242
5108.51348,0.02991
5110.44195,0.01478
5112.37042,0.00887
5114.29888,0.02032
5116.22735,0.03343
5118.15582,0.03207
5120.08429,0.02292
5122.01276,0.01997
5123.94123,0.02195
5125.86970,0.02243
5127.79816,0.02709
5129.72663,0.04067
5131.65510,0.04601
5133.58357,0.03580
5135.51204,0.02837
5137.44051,0.03527
5139.36898,0.05322
5141.29745,0.07194
5143.22591,0.07816
5145.15438,0.06174
5147.08285,0.03615
5149.01132,0.02421
5150.93979,0.01597
5152.86826,0.00712
5154.79673,0.01624
5156.72519,0.02855
5158.65366,0.02554
5160.58213,0.03120
5162.51060,0.04935
5164.43907,0.05169
5166.36754,0.04059
5168.29601,0.03255
5170.22448,0.01855
5172.15294,0.00499
5174.08141,0.01682
5176.00988,0.03886
5177.93835,0.04394
5179.86682,0.03834
5181.79529,0.02993
5183.72376,0.02143
5185.65222,0.02601
5187.58069,0.04069
5189.50916,0.04647
5191.43763,0.04597
5193.36610,0.04921
5195.29457,0.04687
5197.22304,0.04211
5199.15151,0.04981
5201.07997,0.05338
5203.00844,0.03844
5204.93691,0.02103
5206.86538,0.01332
5208.79385,0.01265
5210.72232,0.01790
5212.65079,0.02785
5214.57925,0.04336
5216.50772,0.06300
5218.43619,0.07803
5220.36466,0.07328
5222.29313,0.04321
5224.22160,0.02187
5226.15007,0.03840
5228.07854,0.05444
5230.00700,0.04483
5231.93547,0.03857
5233.86394,0.04851
5235.79241,0.06733
5237.72088,0.08380
5239.64935,0.07171
5241.57782,0.04591
5243.50628,0.05197
5245.43475,0.07204
5247.36322,0.06399
5249.29169,0.04752
5251.22016,0.04612
5253.14863,0.04800
5255.07710,0.05457
5257.00556,0.06476
5258.93403,0.07601
5260.86250,0.09452
5262.79097,0.09200
5264.71944,0.06462
5266.64791,0.05695
5268.57638,0.06271
5270.50485,0.06655
5272.43331,0.07547
5274.36178,0.07487
5276.29025,0.05307
5278.21872,0.02599
5280.14719,0.01354
5282.07566,0.01406
5284.00413,0.01176
5285.93259,0.00902
5287.86106,0.01335
5289.78953,0.01857
5291.71800,0.02797
5293.64647,0.05511
5295.57494,0.08448
5297.50341,0.07372
5299.43188,0.03051
5301.36034,0.00431
5303.28881,0.00341
5305.21728,0.01451
5307.14575,0.03110
5309.07422,0.04451
5311.00269,0.05187
5312.93116,0.05282
5314.85962,0.04615
5316.78809,0.03803
5318.71656,0.03170
5320.64503,0.02571
5322.57350,0.03240
5324.50197,0.05288
5326.43044,0.07277
5328.35891,0.08501
5330.28737,0.08664
5332.21584,0.08963
5334.14431,0.09356
5336.07278,0.07644
5338.00125,0.05221
5339.92972,0.05345
5341.85819,0.06736
5343.78665,0.08041
5345.71512,0.08380
5347.64359,0.06683
5349.57206,0.05822
5351.50053,0.06553
5353.42900,0.06208
5355.35747,0.05220
5357.28594,0.04085
5359.21440,0.02444
5361.14287,0.02397
5363.07134,0.04851
5364.99981,0.07264
5366.92828,0.07487
5368.85675,0.05838
5370.78522,0.03306
5372.71368,0.02233
5374.64215,0.03846
5376.57062,0.04955
5378.49909,0.04303
5380.42756,0.04449
5382.35603,0.05363
5384.28450,0.05937
5386.21297,0.05842
5388.14143,0.05250
5390.06990,0.04696
5391.99837,0.04577
5393.92684,0.05559
5395.85531,0.07368
5397.78378,0.07518
5399.71225,0.05301
5401.64071,0.03777
5403.56918,0.04682
5405.49765,0.05373
5407.42612,0.04266
5409.35459,0.03388
5411.28306,0.04745
5413.21153,0.07498
5415.13999,0.08143
5417.06846,0.06691
5418.99693,0.06721
5420.92540,0.08200
5422.85387,0.07811
5424.78234,0.05789
5426.71081,0.04990
5428.63928,0.06428
5430.56774,0.07482
5432.49621,0.05460
5434.42468,0.02985
5436.35315,0.04241
5438.28162,0.06434
5440.21009,0.05281
5442.13856,0.03006
5444.06702,0.02052
5445.99549,0.01328
5447.92396,0.02862
5449.85243,0.05505
5451.78090,0.05335
5453.70937,0.03999
5455.63784,0.03344
5457.56631,0.03654
5459.49477,0.04792
5461.42324,0.05546
5463.35171,0.06186
5465.28018,0.07470
5467.20865,0.07516
5469.13712,0.06253
5471.06559,0.07079
5472.99405,0.09260
5474.92252,0.09617
5476.85099,0.08236
5478.77946,0.07403
5480.70793,0.07316
5482.63640,0.07218
5484.56487,0.08122
5486.49334,0.09505
5488.42180,0.08229
5490.35027,0.03999
5492.27874,0.01355
5494.20721,0.03425
5496.13568,0.07502
5498.06415,0.11377
5499.99262,0.13431
5501.92108,0.12322
5503.84955,0.10419
5505.77802,0.10166
5507.70649,0.10735
5509.63496,0.10578
5511.56343,0.09671
5513.49190,0.08358
5515.42037,0.07734
5517.34883,0.08014
5519.27730,0.08976
5521.20577,0.10500
5523.13424,0.10565
5525.06271,0.09204
5526.99118,0.07760
5528.91965,0.06056
5530.84811,0.05042
5532.77658,0.04428
5534.70505,0.03765
5536.63352,0.04771
5538.56199,0.06249
5540.49046,0.05951
5542.41893,0.06007
5544.34740,0.07611
5546.27586,0.08345
5548.20433,0.07662
5550.13280,0.07929
5552.06127,0.10572
5553.98974,0.13340
5555.91821,0.13210
5557.84668,0.10759
5559.77514,0.08698
5561.70361,0.08063
5563.63208,0.08333
5565.56055,0.08270
5567.48902,0.06923
5569.41749,0.05622
5571.34596,0.06261
5573.27443,0.08664
5575.20289,0.10371
5577.13136,0.09709
5579.05983,0.08186
5580.98830,0.07227
5582.91677,0.06967
5584.84524,0.07526
5586.77371,0.08126
5588.70217,0.07842
5590.63064,0.06547
5592.55911,0.05356
5594.48758,0.05492
5596.41605,0.05570
5598.34452,0.05011
5600.27299,0.04352
5602.20145,0.03394
5604.12992,0.04319
5606.05839,0.07232
5607.98686,0.08803
5609.91533,0.08972
5611.84380,0.10929
5613.77227,0.14024
5615.70074,0.15108
5617.62920,0.15081
5619.55767,0.14337
5621.48614,0.12158
5623.41461,0.09645
5625.34308,0.07504
5627.27155,0.06712
5629.20002,0.08002
5631.12848,0.08984
5633.05695,0.07071
5634.98542,0.05200
5636.91389,0.06469
5638.84236,0.07696
5640.77083,0.07630
5642.69930,0.07311
5644.62777,0.05277
5646.55623,0.02587
5648.48470,0.02264
5650.41317,0.03314
5652.34164,0.03593
5654.27011,0.03114
5656.19858,0.02625
5658.12705,0.02204
5660.05551,0.02885
5661.98398,0.04887
5663.91245,0.05441
5665.84092,0.05110
5667.76939,0.07040
5669.69786,0.11076
5671.62633,0.13782
5673.55480,0.12215
5675.48326,0.08624
5677.41173,0.08173
5679.34020,0.11058
5681.26867,0.13121
5683.19714,0.13547
5685.12561,0.12725
5687.05408,0.09397
5688.98254,0.06378
5690.91101,0.07901
5692.83948,0.11285
5694.76795,0.12673
5696.69642,0.12582
5698.62489,0.10194
5700.55336,0.06536
5702.48183,0.06638
5704.41029,0.09665
5706.33876,0.12117
5708.26723,0.12553
5710.19570,0.09403
5712.12417,0.05809
5714.05264,0.05846
5715.98111,0.06565
5717.90957,0.06623
5719.83804,0.07016
5721.76651,0.06012
5723.69498,0.04023
5725.62345,0.03318
5727.55192,0.04630
5729.48039,0.06641
5731.40886,0.08873
5733.33732,0.10863
5735.26579,0.09850
5737.19426,0.06159
5739.12273,0.04305
5741.05120,0.05660
5742.97967,0.06025
5744.90814,0.02871
5746.83660,-0.00119
5748.76507,0.00960
5750.69354,0.03811
5752.62201,0.04895
5754.55048,0.06056
5756.47895,0.07861
5758.40742,0.07775
5760.33588,0.05240
5762.26435,0.02435
5764.19282,0.01643
5766.12129,0.03104
5768.04976,0.05453
5769.97823,0.06804
5771.90670,0.07659
5773.83517,0.10160
5775.76363,0.13174
5777.69210,0.12371
5779.62057,0.07122
5781.54904,0.03154
5783.47751,0.04102
5785.40598,0.06666
5787.33445,0.06756
5789.26291,0.06471
5791.19138,0.08812
5793.11985,0.11858
5795.04832,0.12196
5796.97679,0.09557
5798.90526,0.06930
5800.83373,0.05804
5802.76220,0.07188
5804.69066,0.10343
5806.61913,0.09680
5808.54760,0.05702
5810.47607,0.05364
5812.40454,0.08907
5814.33301,0.11355
5816.26148,0.10495
5818.18994,0.07241
5820.11841,0.04798
5822.04688,0.06107
5823.97535,0.08029
5825.90382,0.05378
5827.83229,0.01866
5829.76076,0.02659
5831.68923,0.05095
5833.61769,0.06974
5835.54616,0.08830
5837.47463,0.09603
5839.40310,0.07650
5841.33157,0.05497
5843.26004,0.06233
5845.18851,0.06698
5847.11697,0.06103
5849.04544,0.08557
5850.97391,0.11924
5852.90238,0.11143
5854.83085,0.08766
5856.75932,0.08701
5858.68779,0.09614
5860.61626,0.09460
5862.54472,0.10339
5864.47319,0.13824
5866.40166,0.15011
5868.33013,0.09990
5870.25860,0.04756
5872.18707,0.04841
5874.11554,0.06719
5876.04400,0.08283
5877.97247,0.11734
5879.90094,0.15714
5881.82941,0.16831
5883.75788,0.13653
5885.68635,0.09089
5887.61482,0.07348
5889.54329,0.08162
5891.47175,0.08899
5893.40022,0.09595
5895.32869,0.11321
5897.25716,0.12691
5899.18563,0.13297
5901.11410,0.13482
5903.04257,0.11100
5904.97103,0.07087
5906.89950,0.05252
5908.82797,0.07482
5910.75644,0.11581
5912.68491,0.13206
5914.61338,0.13442
5916.54185,0.13999
5918.47032,0.12026
5920.39878,0.09050
5922.32725,0.08626
5924.25572,0.08034
5926.18419,0.06758
5928.11266,0.08201
5930.04113,0.08907
5931.96960,0.07312
5933.89806,0.07703
5935.82653,0.09004
5937.75500,0.07873
5939.68347,0.04602
5941.61194,0.03521
5943.54041,0.07414
5945.46888,0.11589
5947.39734,0.12175
5949.32581,0.09989
5951.25428,0.06989
5953.18275,0.05557
5955.11122,0.07578
5957.03969,0.09806
5958.96816,0.09141
5960.89663,0.10026
5962.82509,0.13168
5964.75356,0.13998
5966.68203,0.13783
5968.61050,0.14499
5970.53897,0.13450
5972.46744,0.10414
5974.39591,0.07359
5976.32437,0.03572
5978.25284,0.00105
5980.18131,0.00439
5982.10978,0.03365
5984.03825,0.03920
5985.96672,0.02829
5987.89519,0.04096
5989.82366,0.06159
5991.75212,0.07430
5993.68059,0.08928
5995.60906,0.09847
5997.53753,0.09828
5999.46600,0.08635
6001.39447,0.06606
6003.32294,0.06331
6005.25140,0.06555
6007.17987,0.03764
6009.10834,0.01641
6011.03681,0.03844
6012.96528,0.05832
6014.89375,0.04564
6016.82222,0.02333
6018.75069,0.03145
6020.67915,0.08214
6022.60762,0.11153
6024.53609,0.09652
6026.46456,0.08878
6028.39303,0.09743
6030.32150,0.07789
6032.24997,0.03464
6034.17843,0.02887
6036.10690,0.06355
6038.03537,0.08789
6039.96384,0.08960
6041.89231,0.07938
6043.82078,0.06676
6045.74925,0.05958
6047.67772,0.07287
6049.60618,0.11934
6051.53465,0.16457
6053.46312,0.15978
6055.39159,0.10490
6057.32006,0.06457
6059.24853,0.08720
6061.17700,0.14987
6063.10546,0.19873
6065.03393,0.18061
6066.96240,0.11866
6068.89087,0.09045
6070.81934,0.10819
6072.74781,0.11836
6074.67628,0.08992
6076.60475,0.06003
6078.53321,0.07545
6080.46168,0.10712
6082.39015,0.10971
6084.31862,0.07861
6086.24709,0.03621
6088.17556,0.01997
6090.10403,0.02953
6092.03249,0.04273
6093.96096,0.04799
6095.88943,0.04886
6097.81790,0.07350
6099.74637,0.11256
6101.67484,0.12036
6103.60331,0.10338
6105.53177,0.08757
6107.46024,0.08363
6109.38871,0.10289
6111.31718,0.13105
6113.24565,0.15010
6115.17412,0.14614
6117.10259,0.13091
6119.03106,0.12987
6120.95952,0.10522
6122.88799,0.07093
6124.81646,0.08530
6126.74493,0.10933
6128.67340,0.09513
6130.60187,0.08013
6132.53034,0.08465
6134.45880,0.07513
6136.38727,0.04406
6138.31574,0.02024
6140.24421,0.04079
6142.17268,0.08363
6144.10115,0.06355
6146.02962,0.00111
6147.95809,-0.02863
6149.88655,-0.01529
6151.81502,0.02097
6153.74349,0.04576
6155.67196,0.04485
6157.60043,0.04809
6159.52890,0.07876
6161.45737,0.10807
6163.38583,0.12147
6165.31430,0.13247
6167.24277,0.12120
6169.17124,0.08505
6171.09971,0.04310
6173.02818,0.02003
6174.95665,0.03844
6176.88512,0.06821
6178.81358,0.05681
6180.74205,0.01836
6182.67052,-0.00559
6184.59899,-0.02052
6186.52746,-0.01696
6188.45593,0.04364
6190.38440,0.10667
6192.31286,0.09762
6194.24133,0.06263
6196.16980,0.05967
6198.09827,0.05889
6200.02674,0.03722
6201.95521,0.01966
6203.88368,0.03299
6205.81215,0.06654
6207.74061,0.06059
6209.66908,0.03033
6211.59755,0.05465
6213.52602,0.09144
6215.45449,0.08424
6217.38296,0.06722
6219.31143,0.06442
6221.23989,0.08829
6223.16836,0.11591
6225.09683,0.08365
6227.02530,0.04655
6228.95377,0.08082
6230.88224,0.12447
6232.81071,0.09616
6234.73918,0.02711
6236.66764,0.01360
6238.59611,0.07099
6240.52458,0.12280
6242.45305,0.12369
6244.38152,0.11797
6246.30999,0.13665
6248.23846,0.15170
6250.16692,0.14142
6252.09539,0.09233
6254.02386,0.04221
6255.95233,0.04772
6257.88080,0.07829
6259.80927,0.08176
6261.73774,0.04743
6263.66621,0.00067
6265.59467,-0.01740
6267.52314,-0.01520
6269.45161,-0.00437
6271.38008,0.00594
6273.30855,0.00993
6275.23702,0.05258
6277.16549,0.10380
6279.09395,0.08751
6281.02242,0.05758
6282.95089,0.06545
6284.87936,0.07783
6286.80783,0.09656
6288.73630,0.12352
6290.66477,0.11708
6292.59323,0.08586
6294.52170,0.07053
6296.45017,0.07208
6298.37864,0.07399
6300.30711,0.07798
6302.23558,0.08819
6304.16405,0.09559
6306.09252,0.10810
6308.02098,0.11525
6309.94945,0.09059
6311.87792,0.05570
6313.80639,0.02686
6315.73486,-0.00055
6317.66333,0.01726
6319.59180,0.09067
6321.52026,0.16893
6323.44873,0.20560
6325.37720,0.15898
6327.30567,0.08433
6329.23414,0.08670
6331.16261,0.11239
6333.09108,0.07043
6335.01955,0.01930
6336.94801,0.03427
6338.87648,0.08808
6340.80495,0.10963
6342.73342,0.10791
6344.66189,0.13391
6346.59036,0.16719
6348.51883,0.18256
6350.44729,0.16267
6352.37576,0.07542
6354.30423,0.01055
6356.23270,0.02209
6358.16117,0.03556
6360.08964,0.01175
6362.01811,-0.02361
6363.94658,-0.03535
6365.87504,0.01424
6367.80351,0.09886
6369.73198,0.15862
6371.66045,0.17889
6373.58892,0.14459
6375.51739,0.06922
6377.44586,0.00671
6379.37432,-0.01313
6381.30279,0.01250
6383.23126,0.07574
6385.15973,0.13556
6387.08820,0.16983
6389.01667,0.19810
6390.94514,0.21163
6392.87361,0.18932
6394.80207,0.13424
6396.73054,0.06704
6398.65901,0.00174
6400.58748,-0.04320
6402.51595,-0.03240
6404.44442,0.02253
6406.37289,0.05875
6408.30135,0.04826
6410.22982,0.02136
6412.15829,0.00897
6414.08676,0.01493
6416.01523,0.05242
6417.94370,0.10727
6419.87217,0.11093
6421.80064,0.10390
6423.72910,0.15925
6425.65757,0.20941
6427.58604,0.17329
6429.51451,0.10059
6431.44298,0.04950
6433.37145,0.01917
6435.29992,0.01628
6437.22838,0.03732
6439.15685,0.06012
6441.08532,0.08889
6443.01379,0.12463
6444.94226,0.14144
6446.87073,0.12074
6448.79920,0.08724
6450.72766,0.06994
6452.65613,0.05664
6454.58460,0.04715
6456.51307,0.04173
6458.44154,0.01958
6460.37001,-0.02299
6462.29848,-0.06494
6464.22695,-0.06236
6466.15541,0.01878
6468.08388,0.14953
6470.01235,0.21917
6471.94082,0.14572
6473.86929,0.02652
6475.79776,0.00153
6477.72623,0.04501
6479.65469,0.05104
6481.58316,0.03357
6483.51163,0.04202
6485.44010,0.05870
6487.36857,0.07459
6489.29704,0.11121
6491.22551,0.16340
6493.15398,0.20328
6495.08244,0.21926
6497.01091,0.21747
6498.93938,0.20476
6500.86785,0.16521
6502.79632,0.09559
6504.72479,0.04699
6506.65326,0.04539
6508.58172,0.04701
6510.51019,0.01836
6512.43866,0.00587
6514.36713,0.05254
6516.29560,0.09062
6518.22407,0.05432
6520.15254,0.01990
6522.08101,0.05467
6524.00947,0.11683
6525.93794,0.13462
6527.86641,0.10229
6529.79488,0.05416
6531.72335,0.02260
6533.65182,0.02515
6535.58029,0.04101
6537.50875,0.07704
6539.43722,0.11861
6541.36569,0.09839
6543.29416,0.02137
6545.22263,-0.02217
6547.15110,0.02810
6549.07957,0.08840
6551.00804,0.02424
6552.93650,-0.08414
6554.86497,-0.05850
6556.79344,0.07651
6558.72191,0.14846
6560.65038,0.10047
6562.57885,0.02259
6564.50732,-0.05877
6566.43578,-0.09461
6568.36425,0.00316
6570.29272,0.13052
6572.22119,0.17211
6574.14966,0.15975
6576.07813,0.11541
6578.00660,0.06556
6579.93507,0.09534
6581.86353,0.17390
6583.79200,0.15931
6585.72047,0.05317
6587.64894,-0.04618
6589.57741,-0.08881
6591.50588,-0.07481
6593.43435,-0.02369
6595.36281,0.02852
6597.29128,0.01778
6599.21975,-0.02824
6601.14822,-0.00641
6603.07669,0.07236
6605.00516,0.09658
6606.93363,0.07356
6608.86210,0.09748
6610.79056,0.13573
6612.71903,0.08864
6614.64750,-0.02088
6616.57597,-0.09878
6618.50444,-0.07658
6620.43291,0.01669
6622.36138,0.10815
6624.28984,0.12994
6626.21831,0.07937
6628.14678,0.01772
6630.07525,-0.03125
6632.00372,-0.07808
6633.93219,-0.12093
6635.86066,-0.12835
6637.78912,-0.05440
6639.71759,0.04957
6641.64606,0.12015
6643.57453,0.15557
6645.50300,0.15141
6647.43147,0.11555
6649.35994,0.09763
6651.28841,0.10781
6653.21687,0.10945
6655.14534,0.08795
6657.07381,0.03104
6659.00228,-0.04840
6660.93075,-0.04670
6662.85922,0.02295
6664.78769,0.04844
6666.71615,0.02920
6668.64462,0.02847
6670.57309,0.06587
6672.50156,0.09567
6674.43003,0.10743
6676.35850,0.11003
6678.28697,0.07458
6680.21544,0.05970
6682.14390,0.11794
6684.07237,0.16696
6686.00084,0.12411
6687.92931,0.02353
6689.85778,-0.00474
6691.78625,0.10840
6693.71472,0.22720
6695.64318,0.20291
6697.57165,0.10164
6699.50012,0.08598
6701.42859,0.12375
6703.35706,0.13529
6705.28553,0.11115
6707.21400,0.08102
6709.14247,0.06607
6711.07093,0.04423
6712.99940,0.02394
6714.92787,0.04718
6716.85634,0.08485
6718.78481,0.08187
6720.71328,0.08194
6722.64175,0.12457
6724.57021,0.14759
6726.49868,0.08529
6728.42715,-0.02621
6730.35562,-0.06798
6732.28409,0.00193
6734.21256,0.06848
6736.14103,0.04416
6738.06950,-0.00838
6739.99796,-0.00669
6741.92643,0.04711
6743.85490,0.06363
6745.78337,0.00480
6747.71184,-0.06562
6749.64031,-0.06684
6751.56878,0.00286
6753.49724,0.06790
6755.42571,0.07570
6757.35418,0.03707
6759.28265,0.02539
6761.21112,0.06951
6763.13959,0.04788
6765.06806,-0.05543
6766.99653,-0.13233
6768.92499,-0.13466
6770.85346,-0.09431
6772.78193,-0.03299
6774.71040,0.01310
6776.63887,-0.00984
6778.56734,-0.01859
6780.49581,0.07124
6782.42427,0.17360
6784.35274,0.17512
6786.28121,0.12838
6788.20968,0.12620
6790.13815,0.08976
6792.06662,-0.02637
6793.99509,-0.07794
6795.92355,-0.00990
6797.85202,0.09770
6799.78049,0.15297
6801.70896,0.14795
6803.63743,0.13686
6805.56590,0.14497
6807.49437,0.17741
6809.42284,0.17880
6811.35130,0.09937
6813.27977,-0.03630
6815.20824,-0.12757
6817.13671,-0.05869
6819.06518,0.04753
6820.99365,0.05959
6822.92212,0.05458
6824.85058,0.07873
6826.77905,0.06191
6828.70752,0.03270
6830.63599,0.06870
6832.56446,0.09452
6834.49293,0.02492
6836.42140,-0.05214
6838.34987,-0.02827
6840.27833,-0.01192
6842.20680,-0.08646
6844.13527,-0.13376
6846.06374,-0.04936
6847.99221,0.06858
6849.92068,0.04693
6851.84915,-0.04204
6853.77761,-0.04523
6855.70608,0.02563
6857.63455,0.09390
6859.56302,0.09914
6861.49149,0.00583
6863.41996,-0.07931
6865.34843,-0.04668
6867.27690,0.01052
6869.20536,0.00975
6871.13383,0.03153
6873.06230,0.11652
6874.99077,0.15696
6876.91924,0.08526
6878.84771,-0.04302
6880.77618,-0.10491
6882.70464,-0.08990
6884.63311,-0.08884
6886.56158,-0.09241
6888.49005,-0.03925
6890.41852,-0.02386
6892.34699,-0.05057
6894.27546,0.01007
6896.20393,0.08287
6898.13239,0.08197
6900.06086,0.10538
6901.98933,0.17615
6903.91780,0.24396
6905.84627,0.27856
6907.77474,0.20807
6909.70321,0.09341
6911.63167,0.07274
6913.56014,0.09223
6915.48861,0.01320
6917.41708,-0.15109
6919.34555,-0.23478
6921.27402,-0.11261
6923.20249,0.05534
6925.13096,0.08616
6927.05942,0.02435
6928.98789,0.01556
6930.91636,0.08160
6932.84483,0.11458
6934.77330,0.10878
6936.70177,0.14938
6938.63024,0.19371
6940.55870,0.13143
6942.48717,0.08207
6944.41564,0.14201
6946.34411,0.14010
6948.27258,0.02025
6950.20105,-0.06894
6952.12952,-0.10041
6954.05799,-0.09413
6955.98645,0.07152
6957.91492,0.29310
6959.84339,0.29639
6961.77186,0.18727
6963.70033,0.17514
6965.62880,0.18733
6967.55727,0.15331
6969.48573,0.10896
6971.41420,0.02551
6973.34267,-0.10368
6975.27114,-0.05185
6977.19961,0.17698
6979.12808,0.23590
6981.05655,0.05793
6982.98501,-0.11012
6984.91348,-0.10253
6986.84195,-0.02152
6988.77042,0.04133
6990.69889,0.08203
6992.62736,0.06558
6994.55583,0.01602
6996.48430,0.03783
6998.41276,0.11834
7000.34123,0.12989
7002.26970,0.10025
7004.19817,0.12260
7006.12664,0.11319
7008.05511,-0.00684
7009.98358,-0.05289
7011.91204,0.06040
7013.84051,0.16199
7015.76898,0.12090
7017.69745,0.08394
7019.62592,0.13186
7021.55439,0.13816
7023.48286,0.02755
7025.41133,-0.12864
7027.33979,-0.16710
7029.26826,-0.01859
7031.19673,0.11804
7033.12520,0.13624
7035.05367,0.10666
7036.98214,0.13661
7038.91061,0.21233
7040.83907,0.21562
7042.76754,0.10652
7044.69601,0.02377
7046.62448,0.03500
7048.55295,0.03861
7050.48142,0.01234
7052.40989,0.02044
7054.33836,0.07536
7056.26682,0.08523
7058.19529,-0.05210
7060.12376,-0.19986
7062.05223,-0.18554
7063.98070,-0.07900
7065.90917,-0.01370
7067.83764,0.01999
7069.76610,0.07128
7071.69457,0.11504
7073.62304,0.05935
7075.55151,-0.04149
7077.47998,-0.06442
7079.40845,0.00872
7081.33692,0.03661
7083.26539,-0.07061
7085.19385,-0.09848
7087.12232,0.05316
7089.05079,0.18265
7090.97926,0.13873
7092.90773,0.02146
7094.83620,-0.11715
7096.76467,-0.22717
7098.69313,-0.14603
7100.62160,0.00278
7102.55007,0.05407
7104.47854,0.11131
7106.40701,0.16464
7108.33548,0.10347
7110.26395,0.00102
7112.19242,-0.05457
7114.12088,-0.09504
7116.04935,-0.11034
7117.97782,-0.03168
7119.90629,0.06319
7121.83476,0.11727
7123.76323,0.11412
7125.69170,0.04399
7127.62016,-0.01795
7129.54863,-0.06673
7131.47710,-0.15145
7133.40557,-0.20167
7135.33404,-0.06323
7137.26251,0.20761
7139.19098,0.31884
7141.11944,0.20346
7143.04791,0.06182
7144.97638,-0.04697
7146.90485,-0.07728
7148.83332,-0.03354
7150.76179,-0.04312
7152.69026,-0.17784
7154.61873,-0.27625
7156.54719,-0.14852
7158.47566,0.04435
7160.40413,0.14387
7162.33260,0.17060
7164.26107,0.13448
7166.18954,0.05950
7168.11801,0.06223
7170.04647,0.15073
7171.97494,0.24998
7173.90341,0.32990
7175.83188,0.34051
7177.76035,0.24970
7179.68882,0.16196
7181.61729,0.17680
7183.54576,0.23617
7185.47422,0.23925
7187.40269,0.24740
7189.33116,0.31765
7191.25963,0.35490
7193.18810,0.23473
7195.11657,0.09359
7197.04504,0.08514
7198.97350,0.15824
7200.90197,0.17233
7202.83044,0.04923
7204.75891,-0.12471
7206.68738,-0.10800
7208.61585,0.04802
7210.54432,0.16021
7212.47279,0.16308
7214.40125,0.15274
7216.32972,0.16605
7218.25819,0.06899
7220.18666,-0.08367
7222.11513,-0.11341
7224.04360,0.01212
7225.97207,0.14061
7227.90053,0.11392
7229.82900,0.12202
7231.75747,0.22534
7233.68594,0.20212
7235.61441,0.08750
7237.54288,0.01628
7239.47135,0.06259
7241.39982,0.13636
7243.32828,0.08505
7245.25675,0.03071
7247.18522,0.09406
7249.11369,0.19185
7251.04216,0.28113
7252.97063,0.39859
7254.89910,0.45655
7256.82756,0.41524
7258.75603,0.34166
7260.68450,0.23420
7262.61297,0.14817
7264.54144,0.14841
7266.46991,0.17702
7268.39838,0.14342
7270.32685,0.01055
7272.25531,-0.04282
7274.18378,0.06647
7276.11225,0.09130
7278.04072,0.01257
7279.96919,-0.12469
7281.89766,-0.26998
7283.82613,-0.21010
7285.75459,0.03264
7287.68306,0.14988
7289.61153,0.12395
7291.54000,0.16039
7293.46847,0.22484
7295.39694,0.22458
7297.32541,0.19652
7299.25387,0.14732
7301.18234,0.07474
7303.11081,0.05740
7305.03928,0.16705
7306.96775,0.33925
7308.89622,0.32547
7310.82469,0.09053
7312.75316,-0.00400
7314.68162,0.06953
7316.61009,0.02159
7318.53856,-0.17433
7320.46703,-0.18925
7322.39550,-0.06579
7324.32397,-0.00682
7326.25244,0.00624
7328.18090,0.09827
7330.10937,0.28018
7332.03784,0.34282
7333.96631,0.28299
7335.89478,0.20892
7337.82325,0.11544
7339.75172,0.09918
7341.68019,0.26390
7343.60865,0.34131
7345.53712,0.21248
7347.46559,0.02863
7349.39406,0.06334
7351.32253,0.23802
7353.25100,0.35658
7355.17947,0.41107
7357.10793,0.35229
7359.03640,0.18848
7360.96487,0.09857
7362.89334,-0.02449
7364.82181,-0.15792
7366.75028,-0.09295
7368.67875,0.06116
7370.60722,0.08864
7372.53568,0.01561
7374.46415,0.00069
7376.39262,0.06289
7378.32109,0.03986
7380.24956,0.01107
7382.17803,0.10298
7384.10650,0.30399
7386.03496,0.43536
7387.96343,0.29157
7389.89190,0.02132
7391.82037,-0.10071
7393.74884,-0.08028
7395.67731,0.01636
7397.60578,0.18587
7399.53425,0.29672
7401.46271,0.26881
7403.39118,0.15287
7405.31965,0.10739
7407.24812,0.15202
7409.17659,0.07153
7411.10506,-0.05777
7413.03353,-0.07104
7414.96199,-0.09055
7416.89046,-0.17758
7418.81893,-0.22931
7420.74740,-0.19571
7422.67587,-0.10758
7424.60434,-0.03767
7426.53281,-0.05163
7428.46128,-0.07446
7430.38974,-0.02205
7432.31821,0.05171
7434.24668,0.13504
7436.17515,0.21498
7438.10362,0.18581
7440.03209,0.05633
7441.96056,-0.03149
7443.88902,-0.06360
7445.81749,-0.04458
7447.74596,0.06782
7449.67443,0.16468
7451.60290,0.16987
7453.53137,0.19270
7455.45984,0.21649
7457.38831,0.20808
7459.31677,0.20237
7461.24524,0.17676
7463.17371,0.20314
7465.10218,0.21143
7467.03065,-0.03177
7468.95912,-0.30335
7470.88759,-0.31996
7472.81605,-0.14461
7474.74452,-0.00187
7476.67299,0.05397
7478.60146,0.06373
7480.52993,0.09521
7482.45840,0.14181
7484.38687,0.10181
7486.31533,0.04755
7488.24380,0.06587
7490.17227,0.10835
7492.10074,0.15492
7494.02921,0.23678
7495.95768,0.32113
7497.88615,0.32677
