399.19301,-0.25085
401.12148,0.01894
403.04995,0.10414
404.97842,0.16066
406.90689,0.23512
408.83536,0.24508
410.76382,0.22542
412.69229,0.33996
414.62076,0.45106
416.54923,0.37842
418.47770,0.17560
420.40617,0.06040
422.33464,0.07233
424.26311,0.09452
426.19157,0.09370
428.12004,0.13993
430.04851,0.18978
431.97698,0.05325
433.90545,-0.13739
435.83392,-0.17489
437.76239,-0.08386
439.69085,0.08536
441.61932,0.22139
443.54779,0.22816
445.47626,0.20968
447.40473,0.14660
449.33320,-0.00071
451.26167,-0.08558
453.19013,-0.08373
455.11860,-0.05891
457.04707,-0.02385
458.97554,0.01830
460.90401,0.05537
462.83248,0.08052
464.76095,0.10652
466.68942,0.13688
468.61788,0.18679
470.54635,0.25490
472.47482,0.25372
474.40329,0.12652
476.33176,0.04242
478.26023,0.03167
480.18870,0.04973
482.11716,0.07620
484.04563,0.08422
485.97410,0.10481
487.90257,0.18303
489.83104,0.25489
491.75951,0.24874
493.68798,0.19124
495.61645,0.12839
497.54491,0.09336
499.47338,0.10588
501.40185,0.13475
503.33032,0.12580
505.25879,0.10457
507.18726,0.12850
509.11573,0.14534
511.04419,0.11743
512.97266,0.11044
514.90113,0.13884
516.82960,0.14893
518.75807,0.12254
520.68654,0.10376
522.61501,0.11872
524.54348,0.13456
526.47194,0.11595
528.40041,0.07187
530.32888,0.03999
532.25735,0.04702
534.18582,0.06980
536.11429,0.07849
538.04276,0.05855
539.97122,0.03271
541.89969,0.04689
543.82816,0.09646
545.75663,0.13879
547.68510,0.14062
549.61357,0.10586
551.54204,0.07765
553.47051,0.07584
555.39897,0.09761
557.32744,0.13625
559.25591,0.16141
561.18438,0.16353
563.11285,0.15746
565.04132,0.13139
566.96979,0.09399
568.89825,0.08397
570.82672,0.09212
572.75519,0.08438
574.68366,0.07070
576.61213,0.07798
578.54060,0.09474
580.46907,0.11628
582.39754,0.14371
584.32600,0.15920
586.25447,0.15939
588.18294,0.14573
590.11141,0.11733
592.03988,0.09581
593.96835,0.10254
595.89682,0.11534
597.82528,0.11424
599.75375,0.11136
601.68222,0.11466
603.61069,0.11841
605.53916,0.11910
607.46763,0.12371
609.39610,0.13314
611.32456,0.13590
613.25303,0.13385
615.18150,0.12989
617.10997,0.11844
619.03844,0.10811
620.96691,0.10383
622.89538,0.10785
624.82385,0.12330
626.75231,0.13628
628.68078,0.14195
630.60925,0.14874
632.53772,0.15265
634.46619,0.15254
636.39466,0.15897
638.32313,0.15700
640.25159,0.12735
642.18006,0.10504
644.10853,0.11263
646.03700,0.12279
647.96547,0.13132
649.89394,0.14850
651.82241,0.16711
653.75088,0.18083
655.67934,0.18113
657.60781,0.15894
659.53628,0.12417
661.46475,0.09980
663.39322,0.09305
665.32169,0.09663
667.25016,0.11544
669.17862,0.14938
671.10709,0.15321
673.03556,0.13481
674.96403,0.12007
676.89250,0.12471
678.82097,0.13693
680.74944,0.13809
682.67791,0.13661
684.60637,0.14296
686.53484,0.15471
688.46331,0.16642
690.39178,0.16356
692.32025,0.14035
694.24872,0.11729
696.17719,0.10853
698.10565,0.11002
700.03412,0.11778
701.96259,0.12581
703.89106,0.12827
705.81953,0.12604
707.74800,0.12012
709.67647,0.09827
711.60494,0.07489
713.53340,0.09191
715.46187,0.12895
717.39034,0.14939
719.31881,0.15935
721.24728,0.15532
723.17575,0.13936
725.10422,0.12818
727.03268,0.12202
728.96115,0.11696
730.88962,0.11895
732.81809,0.12713
734.74656,0.13350
736.67503,0.13935
738.60350,0.14474
740.53197,0.14783
742.46043,0.14510
744.38890,0.13133
746.31737,0.12152
748.24584,0.13375
750.17431,0.15208
752.10278,0.15110
754.03125,0.13856
755.95971,0.13503
757.88818,0.13830
759.81665,0.13857
761.74512,0.13839
763.67359,0.14205
765.60206,0.15014
767.53053,0.15952
769.45900,0.16402
771.38746,0.16125
773.31593,0.15296
775.24440,0.14602
777.17287,0.14473
779.10134,0.14080
781.02981,0.12923
782.95828,0.12531
784.88674,0.14055
786.81521,0.15108
788.74368,0.13818
790.67215,0.12652
792.60062,0.12987
794.52909,0.13376
796.45756,0.13337
798.38602,0.13130
800.31449,0.12707
802.24296,0.12248
804.17143,0.12085
806.09990,0.12449
808.02837,0.13181
809.95684,0.13909
811.88531,0.14815
813.81377,0.16079
815.74224,0.16331
817.67071,0.15118
819.59918,0.14330
821.52765,0.14626
823.45612,0.15321
825.38459,0.16014
827.31305,0.16514
829.24152,0.16869
831.16999,0.16480
833.09846,0.14840
835.02693,0.13635
836.95540,0.14483
838.88387,0.15781
840.81234,0.15255
842.74080,0.13441
844.66927,0.12286
846.59774,0.12324
848.52621,0.13046
850.45468,0.13643
852.38315,0.14022
854.31162,0.14792
856.24008,0.15173
858.16855,0.14477
860.09702,0.13922
862.02549,0.14446
863.95396,0.15138
865.88243,0.14943
867.81090,0.13157
869.73937,0.10763
871.66783,0.10727
873.59630,0.12578
875.52477,0.13477
877.45324,0.13102
879.38171,0.12886
881.31018,0.13745
883.23865,0.14706
885.16711,0.14727
887.09558,0.14136
889.02405,0.13643
890.95252,0.13599
892.88099,0.13603
894.80946,0.13628
896.73793,0.14233
898.66640,0.14943
900.59486,0.14841
902.52333,0.14488
904.45180,0.14719
906.38027,0.14647
908.30874,0.14018
910.23721,0.14386
912.16568,0.15580
914.09414,0.16037
916.02261,0.16135
917.95108,0.16380
919.87955,0.16069
921.80802,0.15378
923.73649,0.14853
925.66496,0.14339
927.59343,0.13802
929.52189,0.13619
931.45036,0.13971
933.37883,0.14459
935.30730,0.14867
937.23577,0.15077
939.16424,0.14798
941.09271,0.14661
943.02117,0.15096
944.94964,0.15324
946.87811,0.14985
948.80658,0.14650
950.73505,0.14709
952.66352,0.14978
954.59199,0.15406
956.52045,0.15938
958.44892,0.15910
960.37739,0.15147
962.30586,0.14607
964.23433,0.14887
966.16280,0.15423
968.09127,0.15374
970.01974,0.14519
971.94820,0.13431
973.87667,0.13141
975.80514,0.14199
977.73361,0.15613
979.66208,0.16115
981.59055,0.15968
983.51902,0.15865
985.44748,0.15768
987.37595,0.15542
989.30442,0.15498
991.23289,0.15874
993.16136,0.16434
995.08983,0.16721
997.01830,0.16354
998.94677,0.15446
1000.87523,0.14653
1002.80370,0.14669
1004.73217,0.15471
1006.66064,0.16349
1008.58911,0.16512
1010.51758,0.15840
1012.44605,0.15311
1014.37451,0.15478
1016.30298,0.15634
1018.23145,0.15727
1020.15992,0.16417
1022.08839,0.16576
1024.01686,0.15556
1025.94533,0.15213
1027.87380,0.15872
1029.80226,0.16452
1031.73073,0.16850
1033.65920,0.16715
1035.58767,0.15628
1037.51614,0.14513
1039.44461,0.14419
1041.37308,0.15070
1043.30154,0.15750
1045.23001,0.15991
1047.15848,0.15785
1049.08695,0.15489
1051.01542,0.15731
1052.94389,0.16850
1054.87236,0.17994
1056.80083,0.18396
1058.72929,0.18290
1060.65776,0.18271
1062.58623,0.18350
1064.51470,0.18126
1066.44317,0.17772
1068.37164,0.17190
1070.30011,0.16363
1072.22857,0.16282
1074.15704,0.17074
1076.08551,0.17767
1078.01398,0.18086
1079.94245,0.18128
1081.87092,0.17876
1083.79939,0.17319
1085.72786,0.16710
1087.65632,0.16450
1089.58479,0.15764
1091.51326,0.14682
1093.44173,0.14716
1095.37020,0.15517
1097.29867,0.16287
1099.22714,0.17249
1101.15560,0.18109
1103.08407,0.18082
1105.01254,0.16687
1106.94101,0.15694
1108.86948,0.16571
1110.79795,0.17102
1112.72642,0.16429
1114.65489,0.16767
1116.58335,0.18243
1118.51182,0.18520
1120.44029,0.17195
1122.36876,0.16111
1124.29723,0.15867
1126.22570,0.16090
1128.15417,0.16383
1130.08263,0.16065
1132.01110,0.15357
1133.93957,0.14735
1135.86804,0.14333
1137.79651,0.14511
1139.72498,0.15134
1141.65345,0.15738
1143.58191,0.16147
1145.51038,0.16307
1147.43885,0.16687
1149.36732,0.17334
1151.29579,0.17265
1153.22426,0.16516
1155.15273,0.15937
1157.08120,0.15763
1159.00966,0.16029
1160.93813,0.16383
1162.86660,0.16433
1164.79507,0.16489
1166.72354,0.16681
1168.65201,0.16864
1170.58048,0.17010
1172.50894,0.16948
1174.43741,0.16740
1176.36588,0.16462
1178.29435,0.16075
1180.22282,0.15949
1182.15129,0.16180
1184.07976,0.16515
1186.00823,0.16894
1187.93669,0.17090
1189.86516,0.16860
1191.79363,0.16619
1193.72210,0.16931
1195.65057,0.17356
1197.57904,0.17096
1199.50751,0.16185
1201.43597,0.15500
1203.36444,0.15925
1205.29291,0.17038
1207.22138,0.17513
1209.14985,0.17187
1211.07832,0.17048
1213.00679,0.17225
1214.93526,0.17095
1216.86372,0.16778
1218.79219,0.16777
1220.72066,0.17041
1222.64913,0.16937
1224.57760,0.16339
1226.50607,0.15990
1228.43454,0.16030
1230.36300,0.16024
1232.29147,0.16075
1234.21994,0.16389
1236.14841,0.16635
1238.07688,0.16477
1240.00535,0.16076
1241.93382,0.15838
1243.86229,0.16041
1245.79075,0.16572
1247.71922,0.16994
1249.64769,0.17087
1251.57616,0.16895
1253.50463,0.16497
1255.43310,0.16231
1257.36157,0.16082
1259.29003,0.15740
1261.21850,0.15748
1263.14697,0.16309
1265.07544,0.16690
1267.00391,0.16852
1268.93238,0.17071
1270.86085,0.17339
1272.78932,0.17636
1274.71778,0.17646
1276.64625,0.17300
1278.57472,0.16943
1280.50319,0.16587
1282.43166,0.16428
1284.36013,0.16746
1286.28860,0.16963
1288.21706,0.16856
1290.14553,0.16846
1292.07400,0.16721
1294.00247,0.16376
1295.93094,0.16234
1297.85941,0.16127
1299.78788,0.15378
1301.71634,0.13700
1303.64481,0.11958
1305.57328,0.12118
1307.50175,0.14482
1309.43022,0.16605
1311.35869,0.17185
1313.28716,0.17109
1315.21563,0.17047
1317.14409,0.17001
1319.07256,0.16906
1321.00103,0.16913
1322.92950,0.16903
1324.85797,0.16403
1326.78644,0.15785
1328.71491,0.15733
1330.64337,0.15775
1332.57184,0.15756
1334.50031,0.16058
1336.42878,0.16374
1338.35725,0.16614
1340.28572,0.16551
1342.21419,0.16377
1344.14266,0.16472
1346.07112,0.16255
1347.99959,0.16066
1349.92806,0.16311
1351.85653,0.16413
1353.78500,0.16287
1355.71347,0.16338
1357.64194,0.16764
1359.57040,0.17201
1361.49887,0.17561
1363.42734,0.17858
1365.35581,0.17805
1367.28428,0.17826
1369.21275,0.18021
1371.14122,0.17966
1373.06969,0.17824
1374.99815,0.18060
1376.92662,0.18520
1378.85509,0.18605
1380.78356,0.18175
1382.71203,0.17744
1384.64050,0.17751
1386.56897,0.18184
1388.49743,0.18729
1390.42590,0.19097
1392.35437,0.19265
1394.28284,0.18936
1396.21131,0.18383
1398.13978,0.18538
1400.06825,0.18874
1401.99672,0.18806
1403.92518,0.18754
1405.85365,0.18671
1407.78212,0.18376
1409.71059,0.18324
1411.63906,0.18696
1413.56753,0.19088
1415.49600,0.19237
1417.42446,0.19246
1419.35293,0.19060
1421.28140,0.18846
1423.20987,0.19025
1425.13834,0.19307
1427.06681,0.19120
1428.99528,0.18543
1430.92375,0.18189
1432.85221,0.18222
1434.78068,0.18385
1436.70915,0.18602
1438.63762,0.18482
1440.56609,0.18170
1442.49456,0.18077
1444.42303,0.18311
1446.35149,0.18622
1448.27996,0.18622
1450.20843,0.18648
1452.13690,0.19303
1454.06537,0.20523
1455.99384,0.21668
1457.92231,0.21227
1459.85077,0.19881
1461.77924,0.19246
1463.70771,0.19056
1465.63618,0.18778
1467.56465,0.18737
1469.49312,0.19579
1471.42159,0.21013
1473.35006,0.21345
1475.27852,0.20272
1477.20699,0.19531
1479.13546,0.19327
1481.06393,0.19264
1482.99240,0.18980
1484.92087,0.18801
1486.84934,0.19250
1488.77780,0.19929
1490.70627,0.19568
1492.63474,0.18823
1494.56321,0.19289
1496.49168,0.20924
1498.42015,0.21677
1500.34862,0.21583
1502.27709,0.22202
1504.20555,0.23290
1506.13402,0.24187
1508.06249,0.23216
1509.99096,0.21418
1511.91943,0.20846
1513.84790,0.21596
1515.77637,0.22672
1517.70483,0.23031
1519.63330,0.22956
1521.56177,0.22351
1523.49024,0.21288
1525.41871,0.21025
1527.34718,0.20851
1529.27565,0.20356
1531.20412,0.20224
1533.13258,0.20476
1535.06105,0.20696
1536.98952,0.21200
1538.91799,0.22624
1540.84646,0.23938
1542.77493,0.22935
1544.70340,0.21036
1546.63186,0.19686
1548.56033,0.19560
1550.48880,0.19948
1552.41727,0.20203
1554.34574,0.20571
1556.27421,0.21190
1558.20268,0.22265
1560.13115,0.21622
1562.05961,0.20296
1563.98808,0.19962
1565.91655,0.19940
1567.84502,0.19915
1569.77349,0.19719
1571.70196,0.19313
1573.63043,0.19286
1575.55889,0.19591
1577.48736,0.19402
1579.41583,0.18818
1581.34430,0.18452
1583.27277,0.18328
1585.20124,0.18335
1587.12971,0.18322
1589.05818,0.18196
1590.98664,0.18043
1592.91511,0.18007
1594.84358,0.18240
1596.77205,0.18521
1598.70052,0.18436
1600.62899,0.18061
1602.55746,0.17752
1604.48592,0.17819
1606.41439,0.18224
1608.34286,0.18454
1610.27133,0.18335
1612.19980,0.18438
1614.12827,0.19166
1616.05674,0.20063
1617.98521,0.19668
1619.91367,0.18968
1621.84214,0.19286
1623.77061,0.19947
1625.69908,0.19951
1627.62755,0.19502
1629.55602,0.19062
1631.48449,0.19104
1633.41295,0.19945
1635.34142,0.21390
1637.26989,0.21332
1639.19836,0.20189
1641.12683,0.19566
1643.05530,0.19645
1644.98377,0.20624
1646.91223,0.22144
1648.84070,0.22340
1650.76917,0.22234
1652.69764,0.22869
1654.62611,0.22154
1656.55458,0.20411
1658.48305,0.18684
1660.41152,0.17433
1662.33998,0.18085
1664.26845,0.19796
1666.19692,0.20585
1668.12539,0.21394
1670.05386,0.22236
1671.98233,0.21802
1673.91080,0.21263
1675.83926,0.21063
1677.76773,0.20912
1679.69620,0.21160
1681.62467,0.22055
1683.55314,0.22905
1685.48161,0.21866
1687.41008,0.20733
1689.33855,0.20489
1691.26701,0.20377
1693.19548,0.20412
1695.12395,0.21046
1697.05242,0.21952
1698.98089,0.22211
1700.90936,0.21505
1702.83783,0.20936
1704.76629,0.20733
1706.69476,0.20128
1708.62323,0.19595
1710.55170,0.19570
1712.48017,0.19689
1714.40864,0.20048
1716.33711,0.20919
1718.26558,0.20767
1720.19404,0.19816
1722.12251,0.19705
1724.05098,0.19945
1725.97945,0.19836
1727.90792,0.19551
1729.83639,0.19531
1731.76486,0.20038
1733.69332,0.20586
1735.62179,0.20210
1737.55026,0.19835
1739.47873,0.20113
1741.40720,0.20529
1743.33567,0.20531
1745.26414,0.20486
1747.19261,0.20785
1749.12107,0.21096
1751.04954,0.20568
1752.97801,0.19503
1754.90648,0.19062
1756.83495,0.19414
1758.76342,0.19705
1760.69189,0.19561
1762.62035,0.19270
1764.54882,0.19170
1766.47729,0.19531
1768.40576,0.20155
1770.33423,0.20548
1772.26270,0.20360
1774.19117,0.19670
1776.11964,0.19083
1778.04810,0.18952
1779.97657,0.19211
1781.90504,0.19442
1783.83351,0.19470
1785.76198,0.19313
1787.69045,0.19192
1789.61892,0.19487
1791.54738,0.20120
1793.47585,0.20252
1795.40432,0.19884
1797.33279,0.19885
1799.26126,0.20232
1801.18973,0.20136
1803.11820,0.19547
1805.04666,0.19197
1806.97513,0.19308
1808.90360,0.19510
1810.83207,0.19227
1812.76054,0.18767
1814.68901,0.18862
1816.61748,0.19554
1818.54595,0.20207
1820.47441,0.19948
1822.40288,0.19346
1824.33135,0.19371
1826.25982,0.19679
1828.18829,0.19898
1830.11676,0.19841
1832.04523,0.19377
1833.97369,0.19100
1835.90216,0.19085
1837.83063,0.18984
1839.75910,0.18947
1841.68757,0.19272
1843.61604,0.19577
1845.54451,0.19245
1847.47298,0.18835
1849.40144,0.18879
1851.32991,0.19009
1853.25838,0.18917
1855.18685,0.18857
1857.11532,0.18886
1859.04379,0.18794
1860.97226,0.18676
1862.90072,0.18718
1864.82919,0.19063
1866.75766,0.19766
1868.68613,0.20244
1870.61460,0.19931
1872.54307,0.19561
1874.47154,0.19433
1876.40001,0.19162
1878.32847,0.18817
1880.25694,0.18702
1882.18541,0.18841
1884.11388,0.19102
1886.04235,0.19153
1887.97082,0.18985
1889.89929,0.18973
1891.82775,0.19107
1893.75622,0.19191
1895.68469,0.19264
1897.61316,0.19301
1899.54163,0.19209
1901.47010,0.19058
1903.39857,0.18983
1905.32704,0.19007
1907.25550,0.19153
1909.18397,0.19298
1911.11244,0.19231
1913.04091,0.19096
1914.96938,0.19109
1916.89785,0.19268
1918.82632,0.19333
1920.75478,0.19258
1922.68325,0.19211
1924.61172,0.19061
1926.54019,0.18894
1928.46866,0.18895
1930.39713,0.18824
1932.32560,0.18632
1934.25407,0.18662
1936.18253,0.18932
1938.11100,0.19039
1940.03947,0.18887
1941.96794,0.18867
1943.89641,0.18931
1945.82488,0.18691
1947.75335,0.18460
1949.68181,0.18485
1951.61028,0.18563
1953.53875,0.18637
1955.46722,0.18807
1957.39569,0.18994
1959.32416,0.19100
1961.25263,0.19235
1963.18110,0.19334
1965.10956,0.19326
1967.03803,0.19284
1968.96650,0.19123
1970.89497,0.19005
1972.82344,0.19113
1974.75191,0.18990
1976.68038,0.18545
1978.60884,0.18608
1980.53731,0.19126
1982.46578,0.19162
1984.39425,0.18701
1986.32272,0.18417
1988.25119,0.18556
1990.17966,0.18817
1992.10812,0.19097
1994.03659,0.19478
1995.96506,0.19578
1997.89353,0.19335
1999.82200,0.19183
2001.75047,0.19206
2003.67894,0.19237
2005.60741,0.19156
2007.53587,0.19060
2009.46434,0.19141
2011.39281,0.19291
2013.32128,0.19291
2015.24975,0.19156
2017.17822,0.19069
2019.10669,0.19028
2021.03515,0.19019
2022.96362,0.19209
2024.89209,0.19541
2026.82056,0.19632
2028.74903,0.19340
2030.67750,0.19111
2032.60597,0.19234
2034.53444,0.19376
2036.46290,0.19261
2038.39137,0.19054
2040.31984,0.18981
2042.24831,0.19079
2044.17678,0.19264
2046.10525,0.19444
2048.03372,0.19455
2049.96218,0.19221
2051.89065,0.19016
2053.81912,0.18994
2055.74759,0.19006
2057.67606,0.19057
2059.60453,0.19234
2061.53300,0.19304
2063.46147,0.19094
2065.38993,0.18948
2067.31840,0.19065
2069.24687,0.19139
2071.17534,0.19031
2073.10381,0.19042
2075.03228,0.19231
2076.96075,0.19213
2078.88921,0.19052
2080.81768,0.19089
2082.74615,0.19212
2084.67462,0.19316
2086.60309,0.19495
2088.53156,0.19477
2090.46003,0.19181
2092.38850,0.19042
2094.31696,0.19058
2096.24543,0.18927
2098.17390,0.18738
2100.10237,0.18771
2102.03084,0.18968
2103.95931,0.18984
2105.88778,0.18916
2107.81624,0.19139
2109.74471,0.19558
2111.67318,0.19702
2113.60165,0.19415
2115.53012,0.19178
2117.45859,0.19289
2119.38706,0.19349
2121.31553,0.19216
2123.24399,0.19144
2125.17246,0.19113
2127.10093,0.19197
2129.02940,0.19483
2130.95787,0.19488
2132.88634,0.19116
2134.81481,0.18963
2136.74327,0.19009
2138.67174,0.18955
2140.60021,0.18913
2142.52868,0.18866
2144.45715,0.18856
2146.38562,0.18986
2148.31409,0.19075
2150.24255,0.19140
2152.17102,0.19275
2154.09949,0.19273
2156.02796,0.19113
2157.95643,0.19023
2159.88490,0.19099
2161.81337,0.19309
2163.74184,0.19455
2165.67030,0.19331
2167.59877,0.19105
2169.52724,0.19027
2171.45571,0.19047
2173.38418,0.19107
2175.31265,0.19198
2177.24112,0.19376
2179.16958,0.19695
2181.09805,0.19918
2183.02652,0.19881
2184.95499,0.19682
2186.88346,0.19496
2188.81193,0.19459
2190.74040,0.19369
2192.66887,0.19104
2194.59733,0.19010
2196.52580,0.19085
2198.45427,0.18985
2200.38274,0.18987
2202.31121,0.19344
2204.23968,0.19637
2206.16815,0.19619
2208.09661,0.19486
2210.02508,0.19435
2211.95355,0.19403
2213.88202,0.19122
2215.81049,0.18623
2217.73896,0.18458
2219.66743,0.18816
2221.59590,0.19192
2223.52436,0.19259
2225.45283,0.19194
2227.38130,0.19154
2229.30977,0.18998
2231.23824,0.18813
2233.16671,0.18887
2235.09518,0.19102
2237.02364,0.19139
2238.95211,0.19064
2240.88058,0.19119
2242.80905,0.19250
2244.73752,0.19394
2246.66599,0.19452
2248.59446,0.19326
2250.52293,0.19166
2252.45139,0.19085
2254.37986,0.19211
2256.30833,0.19438
2258.23680,0.19412
2260.16527,0.19167
2262.09374,0.18966
2264.02221,0.18858
2265.95067,0.18826
2267.87914,0.18920
2269.80761,0.19087
2271.73608,0.19176
2273.66455,0.19103
2275.59302,0.19064
2277.52149,0.19233
2279.44996,0.19359
2281.37842,0.19277
2283.30689,0.19231
2285.23536,0.19319
2287.16383,0.19431
2289.09230,0.19564
2291.02077,0.19638
2292.94924,0.19680
2294.87770,0.19693
2296.80617,0.19484
2298.73464,0.19081
2300.66311,0.18715
2302.59158,0.18661
2304.52005,0.18822
2306.44852,0.18841
2308.37699,0.18688
2310.30545,0.18487
2312.23392,0.18345
2314.16239,0.18402
2316.09086,0.18701
2318.01933,0.19007
2319.94780,0.19139
2321.87627,0.19094
2323.80473,0.18858
2325.73320,0.18516
2327.66167,0.18018
2329.59014,0.17826
2331.51861,0.18362
2333.44708,0.18749
2335.37555,0.18432
2337.30401,0.17685
2339.23248,0.16940
2341.16095,0.16566
2343.08942,0.16774
2345.01789,0.17452
2346.94636,0.17638
2348.87483,0.17122
2350.80330,0.16693
2352.73176,0.17185
2354.66023,0.18503
2356.58870,0.19480
2358.51717,0.19074
2360.44564,0.16763
2362.37411,0.14356
2364.30258,0.14111
2366.23104,0.15881
2368.15951,0.18333
2370.08798,0.19618
2372.01645,0.19200
2373.94492,0.18516
2375.87339,0.18360
2377.80186,0.18354
2379.73033,0.18312
2381.65879,0.18349
2383.58726,0.18560
2385.51573,0.18925
2387.44420,0.19220
2389.37267,0.19362
2391.30114,0.19386
2393.22961,0.19166
2395.15807,0.18888
2397.08654,0.18868
2399.01501,0.18903
2400.94348,0.18736
2402.87195,0.18482
2404.80042,0.18410
2406.72889,0.18715
2408.65736,0.19230
2410.58582,0.19444
2412.51429,0.19083
2414.44276,0.18582
2416.37123,0.18558
2418.29970,0.19000
2420.22817,0.19413
2422.15664,0.19406
2424.08510,0.19084
2426.01357,0.18881
2427.94204,0.18883
2429.87051,0.19038
2431.79898,0.19313
2433.72745,0.19379
2435.65592,0.19355
2437.58439,0.19472
2439.51285,0.19405
2441.44132,0.19153
2443.36979,0.18972
2445.29826,0.18974
2447.22673,0.19159
2449.15520,0.19720
2451.08367,0.20672
2453.01213,0.20793
2454.94060,0.19786
2456.86907,0.19210
2458.79754,0.19417
2460.72601,0.19654
2462.65448,0.19700
2464.58295,0.19552
2466.51142,0.19454
2468.43988,0.19547
2470.36835,0.19603
2472.29682,0.19524
2474.22529,0.19373
2476.15376,0.19372
2478.08223,0.19516
2480.01070,0.19427
2481.93916,0.19218
2483.86763,0.19276
2485.79610,0.19454
2487.72457,0.19512
2489.65304,0.19531
2491.58151,0.19530
2493.50998,0.19453
2495.43844,0.19351
2497.36691,0.19317
2499.29538,0.19324
2501.22385,0.19223
2503.15232,0.19039
2505.08079,0.18905
2507.00926,0.18847
2508.93773,0.18946
2510.86619,0.19284
2512.79466,0.19647
2514.72313,0.19800
2516.65160,0.19831
2518.58007,0.19806
2520.50854,0.19595
2522.43701,0.19246
2524.36547,0.19066
2526.29394,0.19180
2528.22241,0.19461
2530.15088,0.19720
2532.07935,0.19856
2534.00782,0.19879
2535.93629,0.19766
2537.86476,0.19604
2539.79322,0.19536
2541.72169,0.19531
2543.65016,0.19519
2545.57863,0.19589
2547.50710,0.19735
2549.43557,0.19710
2551.36404,0.19556
2553.29250,0.19511
2555.22097,0.19572
2557.14944,0.19516
2559.07791,0.19273
2561.00638,0.19153
2562.93485,0.19259
2564.86332,0.19437
2566.79179,0.19637
2568.72025,0.19676
2570.64872,0.19554
2572.57719,0.19566
2574.50566,0.19680
2576.43413,0.19632
2578.36260,0.19549
2580.29107,0.19654
2582.21953,0.19899
2584.14800,0.20238
2586.07647,0.20354
2588.00494,0.19925
2589.93341,0.19368
2591.86188,0.19050
2593.79035,0.18939
2595.71882,0.19184
2597.64728,0.19656
2599.57575,0.19890
2601.50422,0.19873
2603.43269,0.19906
2605.36116,0.20073
2607.28963,0.20120
2609.21810,0.19913
2611.14656,0.19905
2613.07503,0.20168
2615.00350,0.20123
2616.93197,0.19740
2618.86044,0.19466
2620.78891,0.19477
2622.71738,0.19634
2624.64585,0.19747
2626.57431,0.19716
2628.50278,0.19580
2630.43125,0.19463
2632.35972,0.19442
2634.28819,0.19612
2636.21666,0.19827
2638.14513,0.19821
2640.07359,0.19703
2642.00206,0.19553
2643.93053,0.19285
2645.85900,0.19162
2647.78747,0.19380
2649.71594,0.19704
2651.64441,0.19997
2653.57288,0.20262
2655.50134,0.20357
2657.42981,0.20255
2659.35828,0.20116
2661.28675,0.19935
2663.21522,0.19788
2665.14369,0.19976
2667.07216,0.20327
2669.00062,0.20409
2670.92909,0.20087
2672.85756,0.19621
2674.78603,0.19529
2676.71450,0.19764
2678.64297,0.19923
2680.57144,0.20052
2682.49990,0.20124
2684.42837,0.19987
2686.35684,0.19972
2688.28531,0.20166
2690.21378,0.20173
2692.14225,0.19966
2694.07072,0.19783
2695.99919,0.19811
2697.92765,0.19944
2699.85612,0.19961
2701.78459,0.19983
2703.71306,0.19956
2705.64153,0.19702
2707.57000,0.19471
2709.49847,0.19555
2711.42693,0.19782
2713.35540,0.19937
2715.28387,0.20062
2717.21234,0.20157
2719.14081,0.20194
2721.06928,0.20161
2722.99775,0.20054
2724.92622,0.20025
2726.85468,0.20325
2728.78315,0.20791
2730.71162,0.21020
2732.64009,0.21054
2734.56856,0.20954
2736.49703,0.20653
2738.42550,0.20376
2740.35396,0.20316
2742.28243,0.20285
2744.21090,0.20133
2746.13937,0.20069
2748.06784,0.20147
2749.99631,0.20140
2751.92478,0.20057
2753.85325,0.19994
2755.78171,0.20063
2757.71018,0.20408
2759.63865,0.20763
2761.56712,0.21021
2763.49559,0.21264
2765.42406,0.21142
2767.35253,0.20769
2769.28099,0.20702
2771.20946,0.20883
2773.13793,0.21028
2775.06640,0.21113
2776.99487,0.21180
2778.92334,0.21223
2780.85181,0.21018
2782.78028,0.20623
2784.70874,0.20557
2786.63721,0.20763
2788.56568,0.20963
2790.49415,0.21123
2792.42262,0.20980
2794.35109,0.20643
2796.27956,0.20570
2798.20802,0.20668
2800.13649,0.20590
2802.06496,0.20268
2803.99343,0.19937
2805.92190,0.19909
2807.85037,0.20216
2809.77884,0.20800
2811.70731,0.21332
2813.63577,0.21126
2815.56424,0.20349
2817.49271,0.19989
2819.42118,0.20379
2821.34965,0.20972
2823.27812,0.21293
2825.20659,0.21255
2827.13505,0.20970
2829.06352,0.20854
2830.99199,0.21082
2832.92046,0.21168
2834.84893,0.20916
2836.77740,0.20737
2838.70587,0.20791
2840.63433,0.20848
2842.56280,0.20738
2844.49127,0.20578
2846.41974,0.20597
2848.34821,0.20738
2850.27668,0.20680
2852.20515,0.20389
2854.13362,0.20352
2856.06208,0.20685
2857.99055,0.20820
2859.91902,0.20584
2861.84749,0.20403
2863.77596,0.20508
2865.70443,0.20635
2867.63290,0.20521
2869.56136,0.20401
2871.48983,0.20492
2873.41830,0.20673
2875.34677,0.20864
2877.27524,0.20775
2879.20371,0.20426
2881.13218,0.20331
2883.06065,0.20238
2884.98911,0.19882
2886.91758,0.19805
2888.84605,0.20043
2890.77452,0.20227
2892.70299,0.20285
2894.63146,0.20136
2896.55993,0.20014
2898.48839,0.20143
2900.41686,0.20370
2902.34533,0.20522
2904.27380,0.20415
2906.20227,0.20276
2908.13074,0.20426
2910.05921,0.20555
2911.98768,0.20357
2913.91614,0.19862
2915.84461,0.19336
2917.77308,0.19295
2919.70155,0.19618
2921.63002,0.19866
2923.55849,0.19934
2925.48696,0.19355
2927.41542,0.18742
2929.34389,0.19217
2931.27236,0.19936
2933.20083,0.19991
2935.12930,0.19434
2937.05777,0.18832
2938.98624,0.19271
2940.91471,0.20380
2942.84317,0.20832
2944.77164,0.20399
2946.70011,0.19712
2948.62858,0.19490
2950.55705,0.19754
2952.48552,0.20143
2954.41399,0.20104
2956.34245,0.19146
2958.27092,0.18525
2960.19939,0.19141
2962.12786,0.19941
2964.05633,0.20401
2965.98480,0.20252
2967.91327,0.19689
2969.84174,0.19967
2971.77020,0.20806
2973.69867,0.21168
2975.62714,0.20796
2977.55561,0.19912
2979.48408,0.19838
2981.41255,0.20892
2983.34102,0.21616
2985.26948,0.21340
2987.19795,0.20441
2989.12642,0.20069
2991.05489,0.20893
2992.98336,0.21702
2994.91183,0.21664
2996.84030,0.21317
2998.76877,0.21138
3000.69723,0.21173
3002.62570,0.21201
3004.55417,0.21101
3006.48264,0.20825
3008.41111,0.20189
3010.33958,0.18980
3012.26805,0.16795
3014.19651,0.13470
3016.12498,0.10942
3018.05345,0.12383
3019.98192,0.16794
3021.91039,0.20096
3023.83886,0.21412
3025.76733,0.21769
3027.69579,0.21489
3029.62426,0.21246
3031.55273,0.21475
3033.48120,0.21655
3035.40967,0.21399
3037.33814,0.21053
3039.26661,0.21074
3041.19508,0.21198
3043.12354,0.21131
3045.05201,0.20974
3046.98048,0.20628
3048.90895,0.20571
3050.83742,0.21048
3052.76589,0.21244
3054.69436,0.20636
3056.62282,0.19701
3058.55129,0.19774
3060.47976,0.20803
3062.40823,0.21478
3064.33670,0.21327
3066.26517,0.20513
3068.19364,0.20215
3070.12211,0.20919
3072.05057,0.21537
3073.97904,0.21485
3075.90751,0.20833
3077.83598,0.20446
3079.76445,0.20897
3081.69292,0.21055
3083.62139,0.19905
3085.54985,0.18755
3087.47832,0.19222
3089.40679,0.20307
3091.33526,0.20421
3093.26373,0.19369
3095.19220,0.18703
3097.12067,0.19535
3099.04914,0.20401
3100.97760,0.20400
3102.90607,0.20065
3104.83454,0.20308
3106.76301,0.21116
3108.69148,0.21119
3110.61995,0.20136
3112.54842,0.19322
3114.47688,0.19591
3116.40535,0.20523
3118.33382,0.21005
3120.26229,0.20654
3122.19076,0.20318
3124.11923,0.20859
3126.04770,0.21353
3127.97617,0.21221
3129.90463,0.20937
3131.83310,0.20729
3133.76157,0.20740
3135.69004,0.20707
3137.61851,0.20517
3139.54698,0.20642
3141.47545,0.21148
3143.40391,0.21318
3145.33238,0.21116
3147.26085,0.21172
3149.18932,0.21341
3151.11779,0.21491
3153.04626,0.21817
3154.97473,0.21896
3156.90320,0.21532
3158.83166,0.21413
3160.76013,0.21844
3162.68860,0.22286
3164.61707,0.22312
3166.54554,0.22234
3168.47401,0.22333
3170.40248,0.22111
3172.33094,0.21680
3174.25941,0.21787
3176.18788,0.22052
3178.11635,0.21819
3180.04482,0.21409
3181.97329,0.21349
3183.90176,0.21916
3185.83022,0.22504
3187.75869,0.21972
3189.68716,0.21125
3191.61563,0.21235
3193.54410,0.21596
3195.47257,0.21635
3197.40104,0.21637
3199.32951,0.21614
3201.25797,0.21836
3203.18644,0.22300
3205.11491,0.22197
3207.04338,0.21393
3208.97185,0.20775
3210.90032,0.20851
3212.82879,0.21357
3214.75725,0.21814
3216.68572,0.21852
3218.61419,0.21580
3220.54266,0.21437
3222.47113,0.21716
3224.39960,0.22122
3226.32807,0.21972
3228.25654,0.21476
3230.18500,0.21327
3232.11347,0.21449
3234.04194,0.21457
3235.97041,0.21250
3237.89888,0.21167
3239.82735,0.21269
3241.75582,0.21128
3243.68428,0.21013
3245.61275,0.21334
3247.54122,0.21540
3249.46969,0.21463
3251.39816,0.21758
3253.32663,0.22161
3255.25510,0.22128
3257.18357,0.22075
3259.11203,0.21917
3261.04050,0.21289
3262.96897,0.20713
3264.89744,0.20428
3266.82591,0.20312
3268.75438,0.20453
3270.68285,0.20584
3272.61131,0.20775
3274.53978,0.21514
3276.46825,0.22213
3278.39672,0.22165
3280.32519,0.21781
3282.25366,0.21618
3284.18213,0.21844
3286.11060,0.21962
3288.03906,0.21538
3289.96753,0.20979
3291.89600,0.20707
3293.82447,0.20915
3295.75294,0.21284
3297.68141,0.21236
3299.60988,0.20868
3301.53834,0.20782
3303.46681,0.21146
3305.39528,0.21206
3307.32375,0.20977
3309.25222,0.21268
3311.18069,0.21452
3313.10916,0.20982
3315.03763,0.20803
3316.96609,0.21047
3318.89456,0.20920
3320.82303,0.20436
3322.75150,0.20192
3324.67997,0.20678
3326.60844,0.21478
3328.53691,0.21674
3330.46537,0.21356
3332.39384,0.21153
3334.32231,0.21244
3336.25078,0.21557
3338.17925,0.21970
3340.10772,0.22032
3342.03619,0.21532
3343.96466,0.21043
3345.89312,0.20767
3347.82159,0.20494
3349.75006,0.20525
3351.67853,0.21034
3353.60700,0.21718
3355.53547,0.22177
3357.46394,0.22176
3359.39240,0.22037
3361.32087,0.21885
3363.24934,0.21781
3365.17781,0.22018
3367.10628,0.22275
3369.03475,0.22521
3370.96322,0.22990
3372.89168,0.23150
3374.82015,0.22640
3376.74862,0.21929
3378.67709,0.21591
3380.60556,0.21475
3382.53403,0.21119
3384.46250,0.20597
3386.39097,0.20283
3388.31943,0.20513
3390.24790,0.21233
3392.17637,0.21768
3394.10484,0.21642
3396.03331,0.21190
3397.96178,0.21207
3399.89025,0.21940
3401.81871,0.22518
3403.74718,0.22272
3405.67565,0.21745
3407.60412,0.21616
3409.53259,0.21700
3411.46106,0.21553
3413.38953,0.21014
3415.31800,0.20492
3417.24646,0.20606
3419.17493,0.20987
3421.10340,0.21427
3423.03187,0.21923
3424.96034,0.21315
3426.88881,0.20246
3428.81728,0.20588
3430.74574,0.21409
3432.67421,0.21360
3434.60268,0.21004
3436.53115,0.20768
3438.45962,0.20795
3440.38809,0.21167
3442.31656,0.21174
3444.24503,0.20703
3446.17349,0.20555
3448.10196,0.20481
3450.03043,0.20339
3451.95890,0.20586
3453.88737,0.20651
3455.81584,0.20456
3457.74431,0.20697
3459.67277,0.21025
3461.60124,0.20799
3463.52971,0.20255
3465.45818,0.19923
3467.38665,0.20090
3469.31512,0.20315
3471.24359,0.19836
3473.17206,0.19159
3475.10052,0.19130
3477.02899,0.19439
3478.95746,0.19587
3480.88593,0.19503
3482.81440,0.19272
3484.74287,0.19168
3486.67134,0.19259
3488.59980,0.19263
3490.52827,0.18962
3492.45674,0.18547
3494.38521,0.18523
3496.31368,0.18814
3498.24215,0.18941
3500.17062,0.19079
3502.09909,0.19411
3504.02755,0.19356
3505.95602,0.18792
3507.88449,0.18660
3509.81296,0.18969
3511.74143,0.18766
3513.66990,0.18138
3515.59837,0.17651
3517.52683,0.17514
3519.45530,0.17735
3521.38377,0.18120
3523.31224,0.18357
3525.24071,0.18406
3527.16918,0.18630
3529.09765,0.18637
3531.02611,0.18008
3532.95458,0.17470
3534.88305,0.17370
3536.81152,0.17290
3538.73999,0.17020
3540.66846,0.16913
3542.59693,0.17208
3544.52540,0.17431
3546.45386,0.17135
3548.38233,0.16811
3550.31080,0.17061
3552.23927,0.17493
3554.16774,0.17412
3556.09621,0.16959
3558.02468,0.16534
3559.95314,0.16484
3561.88161,0.16857
3563.81008,0.17275
3565.73855,0.17838
3567.66702,0.18324
3569.59549,0.17830
3571.52396,0.16990
3573.45243,0.16465
3575.38089,0.16119
3577.30936,0.15809
3579.23783,0.15532
3581.16630,0.15341
3583.09477,0.15558
3585.02324,0.16261
3586.95171,0.17019
3588.88017,0.17149
3590.80864,0.16604
3592.73711,0.15969
3594.66558,0.15868
3596.59405,0.15915
3598.52252,0.15476
3600.45099,0.15211
3602.37946,0.15391
3604.30792,0.15641
3606.23639,0.15732
3608.16486,0.15149
3610.09333,0.14457
3612.02180,0.14949
3613.95027,0.15864
3615.87874,0.16011
3617.80720,0.16029
3619.73567,0.15923
3621.66414,0.15098
3623.59261,0.14575
3625.52108,0.14863
3627.44955,0.15795
3629.37802,0.16376
3631.30649,0.15503
3633.23495,0.14760
3635.16342,0.14740
3637.09189,0.14571
3639.02036,0.13936
3640.94883,0.13715
3642.87730,0.14360
3644.80577,0.15384
3646.73423,0.16637
3648.66270,0.17735
3650.59117,0.16708
3652.51964,0.14892
3654.44811,0.14050
3656.37658,0.14035
3658.30505,0.13951
3660.23352,0.13184
3662.16198,0.12360
3664.09045,0.12239
3666.01892,0.12847
3667.94739,0.14063
3669.87586,0.15182
3671.80433,0.15090
3673.73280,0.14853
3675.66126,0.14805
3677.58973,0.14174
3679.51820,0.13437
3681.44667,0.13237
3683.37514,0.13536
3685.30361,0.13923
3687.23208,0.14501
3689.16055,0.15165
3691.08901,0.14580
3693.01748,0.13485
3694.94595,0.13073
3696.87442,0.12943
3698.80289,0.12988
3700.73136,0.13468
3702.65983,0.13591
3704.58829,0.13019
3706.51676,0.12548
3708.44523,0.12740
3710.37370,0.14111
3712.30217,0.15342
3714.23064,0.14722
3716.15911,0.13826
3718.08757,0.13721
3720.01604,0.14184
3721.94451,0.14301
3723.87298,0.13774
3725.80145,0.13348
3727.72992,0.13284
3729.65839,0.13396
3731.58686,0.13712
3733.51532,0.14223
3735.44379,0.14700
3737.37226,0.14537
3739.30073,0.13934
3741.22920,0.13650
3743.15767,0.14128
3745.08614,0.14750
3747.01460,0.14581
3748.94307,0.14510
3750.87154,0.14519
3752.80001,0.13715
3754.72848,0.12786
3756.65695,0.12590
3758.58542,0.13070
3760.51389,0.13308
3762.44235,0.13076
3764.37082,0.12888
3766.29929,0.13149
3768.22776,0.13792
3770.15623,0.14136
3772.08470,0.13908
3774.01317,0.13614
3775.94163,0.13495
3777.87010,0.13540
3779.79857,0.13665
3781.72704,0.13734
3783.65551,0.13724
3785.58398,0.13532
3787.51245,0.13177
3789.44092,0.12790
3791.36938,0.12510
3793.29785,0.12682
3795.22632,0.13337
3797.15479,0.13751
3799.08326,0.13490
3801.01173,0.13149
3802.94020,0.13140
3804.86866,0.13398
3806.79713,0.13635
3808.72560,0.13512
3810.65407,0.13367
3812.58254,0.13158
3814.51101,0.12914
3816.43948,0.13503
3818.36795,0.14809
3820.29641,0.15406
3822.22488,0.14535
3824.15335,0.13707
3826.08182,0.13332
3828.01029,0.12875
3829.93876,0.12626
3831.86723,0.12970
3833.79569,0.13678
3835.72416,0.14268
3837.65263,0.14498
3839.58110,0.14129
3841.50957,0.13774
3843.43804,0.13728
3845.36651,0.13323
3847.29498,0.12811
3849.22344,0.12991
3851.15191,0.13682
3853.08038,0.13768
3855.00885,0.12807
3856.93732,0.12093
3858.86579,0.11904
3860.79426,0.12087
3862.72272,0.12149
3864.65119,0.11873
3866.57966,0.11972
3868.50813,0.12738
3870.43660,0.13272
3872.36507,0.12892
3874.29354,0.12401
3876.22200,0.12099
3878.15047,0.11931
3880.07894,0.11962
3882.00741,0.12184
3883.93588,0.12413
3885.86435,0.12287
3887.79282,0.11903
3889.72129,0.11657
3891.64975,0.11415
3893.57822,0.11242
3895.50669,0.11311
3897.43516,0.11606
3899.36363,0.11865
3901.29210,0.11746
3903.22057,0.11765
3905.14903,0.12291
3907.07750,0.12820
3909.00597,0.13037
3910.93444,0.12905
3912.86291,0.12526
3914.79138,0.12361
3916.71985,0.12291
3918.64832,0.11622
3920.57678,0.11079
3922.50525,0.11317
3924.43372,0.11738
3926.36219,0.11820
3928.29066,0.11682
3930.21913,0.11438
3932.14760,0.10868
3934.07606,0.10322
3936.00453,0.10582
3937.93300,0.11184
3939.86147,0.11284
3941.78994,0.11333
3943.71841,0.11423
3945.64688,0.11210
3947.57535,0.11249
3949.50381,0.11191
3951.43228,0.10817
3953.36075,0.10820
3955.28922,0.10893
3957.21769,0.10651
3959.14616,0.10673
3961.07463,0.11166
3963.00309,0.11313
3964.93156,0.10750
3966.86003,0.10288
3968.78850,0.10416
3970.71697,0.10470
3972.64544,0.10174
3974.57391,0.10208
3976.50238,0.10542
3978.43084,0.10536
3980.35931,0.10415
3982.28778,0.10727
3984.21625,0.11093
3986.14472,0.10992
3988.07319,0.10697
3990.00166,0.10510
3991.93012,0.10569
3993.85859,0.10844
3995.78706,0.10859
3997.71553,0.10609
3999.64400,0.10451
4001.57247,0.10221
4003.50094,0.09894
4005.42941,0.09815
4007.35787,0.10277
4009.28634,0.11083
4011.21481,0.11325
4013.14328,0.10923
4015.07175,0.10724
4017.00022,0.10674
4018.92869,0.10347
4020.85715,0.10002
4022.78562,0.09899
4024.71409,0.09975
4026.64256,0.10129
4028.57103,0.10072
4030.49950,0.09698
4032.42797,0.09443
4034.35644,0.09339
4036.28490,0.09315
4038.21337,0.09600
4040.14184,0.09820
4042.07031,0.09594
4043.99878,0.09274
4045.92725,0.09362
4047.85572,0.09621
4049.78418,0.09780
4051.71265,0.10092
4053.64112,0.10191
4055.56959,0.09971
4057.49806,0.09905
4059.42653,0.09673
4061.35500,0.09238
4063.28346,0.09253
4065.21193,0.09704
4067.14040,0.10025
4069.06887,0.09760
4070.99734,0.09085
4072.92581,0.08646
4074.85428,0.08881
4076.78275,0.09641
4078.71121,0.10126
4080.63968,0.10018
4082.56815,0.09939
4084.49662,0.10132
4086.42509,0.10121
4088.35356,0.09913
4090.28203,0.09719
4092.21049,0.09493
4094.13896,0.09695
4096.06743,0.10160
4097.99590,0.10152
4099.92437,0.09990
4101.85284,0.10036
4103.78131,0.09770
4105.70978,0.09294
4107.63824,0.09260
4109.56671,0.09184
4111.49518,0.08906
4113.42365,0.09168
4115.35212,0.09669
4117.28059,0.09513
4119.20906,0.09011
4121.13752,0.08932
4123.06599,0.08980
4124.99446,0.08769
4126.92293,0.08521
4128.85140,0.08604
4130.77987,0.08909
4132.70834,0.08813
4134.63681,0.08113
4136.56527,0.07451
4138.49374,0.07744
4140.42221,0.08534
4142.35068,0.08728
4144.27915,0.08423
4146.20762,0.08170
4148.13609,0.08226
4150.06455,0.08186
4151.99302,0.07882
4153.92149,0.08102
4155.84996,0.08700
4157.77843,0.08431
4159.70690,0.07310
4161.63537,0.06595
4163.56384,0.06839
4165.49230,0.07472
4167.42077,0.07728
4169.34924,0.07482
4171.27771,0.07113
4173.20618,0.06918
4175.13465,0.06697
4177.06312,0.06701
4178.99158,0.07807
4180.92005,0.09028
4182.84852,0.08947
4184.77699,0.08387
4186.70546,0.08211
4188.63393,0.08392
4190.56240,0.08856
4192.49087,0.09173
4194.41933,0.08745
4196.34780,0.07718
4198.27627,0.07239
4200.20474,0.07652
4202.13321,0.07824
4204.06168,0.07417
4205.99015,0.07104
4207.91861,0.06956
4209.84708,0.06897
4211.77555,0.06942
4213.70402,0.06700
4215.63249,0.06483
4217.56096,0.06719
4219.48943,0.06790
4221.41789,0.06511
4223.34636,0.06493
4225.27483,0.06836
4227.20330,0.06964
4229.13177,0.06947
4231.06024,0.07479
4232.98871,0.08217
4234.91718,0.08262
4236.84564,0.07834
4238.77411,0.07812
4240.70258,0.08176
4242.63105,0.08172
4244.55952,0.07617
4246.48799,0.07039
4248.41646,0.06741
4250.34492,0.06229
4252.27339,0.05569
4254.20186,0.05878
4256.13033,0.07037
4258.05880,0.07525
4259.98727,0.07125
4261.91574,0.06959
4263.84421,0.07086
4265.77267,0.06943
4267.70114,0.06601
4269.62961,0.06263
4271.55808,0.06140
4273.48655,0.06182
4275.41502,0.06313
4277.34349,0.06673
4279.27195,0.06972
4281.20042,0.06900
4283.12889,0.06624
4285.05736,0.06479
4286.98583,0.06518
4288.91430,0.06169
4290.84277,0.05115
4292.77124,0.04505
4294.69970,0.05321
4296.62817,0.06550
4298.55664,0.06897
4300.48511,0.06377
4302.41358,0.05798
4304.34205,0.05791
4306.27052,0.06091
4308.19898,0.05981
4310.12745,0.05220
4312.05592,0.04350
4313.98439,0.04213
4315.91286,0.04808
4317.84133,0.05224
4319.76980,0.05122
4321.69827,0.05105
4323.62673,0.05291
4325.55520,0.05183
4327.48367,0.04759
4329.41214,0.04552
4331.34061,0.04670
4333.26908,0.04405
4335.19755,0.03711
4337.12601,0.03245
4339.05448,0.03342
4340.98295,0.03990
4342.91142,0.04549
4344.83989,0.04634
4346.76836,0.04664
4348.69683,0.05194
4350.62530,0.06201
4352.55376,0.06598
4354.48223,0.05748
4356.41070,0.04909
4358.33917,0.04973
4360.26764,0.04642
4362.19611,0.03610
4364.12458,0.03207
4366.05304,0.03613
4367.98151,0.04075
4369.90998,0.04102
4371.83845,0.03972
4373.76692,0.03825
4375.69539,0.03679
4377.62386,0.04174
4379.55232,0.04907
4381.48079,0.05095
4383.40926,0.04915
4385.33773,0.04568
4387.26620,0.04049
4389.19467,0.03424
4391.12314,0.03249
4393.05161,0.03969
4394.98007,0.04746
4396.90854,0.04757
4398.83701,0.04599
4400.76548,0.04884
4402.69395,0.05203
4404.62242,0.05029
4406.55089,0.04459
4408.47935,0.03786
4410.40782,0.03093
4412.33629,0.02837
4414.26476,0.03192
4416.19323,0.03323
4418.12170,0.02893
4420.05017,0.02505
4421.97864,0.02826
4423.90710,0.04026
4425.83557,0.05161
4427.76404,0.05105
4429.69251,0.04118
4431.62098,0.03215
4433.54945,0.02913
4435.47792,0.02981
4437.40638,0.02854
4439.33485,0.02728
4441.26332,0.03162
4443.19179,0.03676
4445.12026,0.03836
4447.04873,0.03846
4448.97720,0.03302
4450.90567,0.02181
4452.83413,0.01524
4454.76260,0.01983
4456.69107,0.02878
4458.61954,0.03073
4460.54801,0.03029
4462.47648,0.03590
4464.40495,0.04081
4466.33341,0.03892
4468.26188,0.03297
4470.19035,0.03137
4472.11882,0.03517
4474.04729,0.03183
4475.97576,0.02288
4477.90423,0.02617
4479.83270,0.03806
4481.76116,0.04045
4483.68963,0.03570
4485.61810,0.03446
4487.54657,0.03557
4489.47504,0.03768
4491.40351,0.03695
4493.33198,0.02864
4495.26044,0.02258
4497.18891,0.02122
4499.11738,0.01582
4501.04585,0.01376
4502.97432,0.02171
4504.90279,0.02453
4506.83126,0.01275
4508.75973,0.00332
4510.68819,0.00606
4512.61666,0.01150
4514.54513,0.01706
4516.47360,0.02300
4518.40207,0.02815
4520.33054,0.03045
4522.25901,0.02405
4524.18747,0.01156
4526.11594,0.00270
4528.04441,0.00341
4529.97288,0.01229
4531.90135,0.02030
4533.82982,0.02018
4535.75829,0.01650
4537.68676,0.01778
4539.61522,0.02606
4541.54369,0.03483
4543.47216,0.03019
4545.40063,0.01082
4547.32910,-0.00484
4549.25757,-0.00358
4551.18604,0.01000
4553.11450,0.02480
4555.04297,0.03211
4556.97144,0.02781
4558.89991,0.01891
4560.82838,0.01444
4562.75685,0.01637
4564.68532,0.02214
4566.61378,0.02299
4568.54225,0.01714
4570.47072,0.01430
4572.39919,0.02031
4574.32766,0.02628
4576.25613,0.02282
4578.18460,0.01520
4580.11307,0.01024
4582.04153,0.01278
4583.97000,0.02337
4585.89847,0.03047
4587.82694,0.02698
4589.75541,0.02135
4591.68388,0.01667
4593.61235,0.00734
4595.54081,0.00228
4597.46928,0.01173
4599.39775,0.02448
4601.32622,0.02870
4603.25469,0.02866
4605.18316,0.02776
4607.11163,0.02577
4609.04010,0.02169
4610.96856,0.01090
4612.89703,-0.00199
4614.82550,-0.00898
4616.75397,-0.00939
4618.68244,-0.00538
4620.61091,0.00007
4622.53938,0.00374
4624.46784,0.00297
4626.39631,0.00206
4628.32478,0.00483
4630.25325,0.00752
4632.18172,0.00840
4634.11019,0.00832
4636.03866,0.00861
4637.96713,0.00926
4639.89559,0.00878
4641.82406,0.00699
4643.75253,0.00216
4645.68100,-0.00568
4647.60947,-0.01056
4649.53794,-0.00708
4651.46641,0.00352
4653.39487,0.01221
4655.32334,0.01319
4657.25181,0.01164
4659.18028,0.00918
4661.10875,0.00596
4663.03722,0.00582
4664.96569,0.00319
4666.89416,-0.00373
4668.82262,-0.00680
4670.75109,-0.00271
4672.67956,0.00121
4674.60803,-0.00416
4676.53650,-0.00736
4678.46497,0.00407
4680.39344,0.02025
4682.32190,0.02417
4684.25037,0.00994
4686.17884,-0.00117
4688.10731,0.00170
4690.03578,0.00102
4691.96425,-0.00568
4693.89272,-0.00751
4695.82119,-0.00090
4697.74965,0.01151
4699.67812,0.02056
4701.60659,0.01711
4703.53506,0.00990
4705.46353,0.01124
4707.39200,0.01334
4709.32047,0.01088
4711.24893,0.01242
4713.17740,0.01746
4715.10587,0.01674
4717.03434,0.01218
4718.96281,0.01058
4720.89128,0.01484
4722.81975,0.02374
4724.74821,0.03029
4726.67668,0.03481
4728.60515,0.03667
4730.53362,0.02863
4732.46209,0.01466
4734.39056,0.00304
4736.31903,-0.00309
4738.24750,0.00118
4740.17596,0.01711
4742.10443,0.02982
4744.03290,0.02328
4745.96137,0.00792
4747.88984,0.00121
4749.81831,-0.00046
4751.74678,-0.00504
4753.67524,-0.00933
4755.60371,-0.00939
4757.53218,-0.00373
4759.46065,0.00656
4761.38912,0.00728
4763.31759,-0.00462
4765.24606,-0.00542
4767.17453,0.00914
4769.10299,0.01845
4771.03146,0.01152
4772.95993,-0.00023
4774.88840,-0.00077
4776.81687,0.00212
4778.74534,-0.00355
4780.67381,-0.01044
4782.60227,-0.01373
4784.53074,-0.01861
4786.45921,-0.01518
4788.38768,-0.00182
4790.31615,0.00290
4792.24462,0.00471
4794.17309,0.01455
4796.10156,0.02082
4798.03002,0.01675
4799.95849,0.00633
4801.88696,-0.00503
4803.81543,-0.00543
4805.74390,0.00701
4807.67237,0.01353
4809.60084,0.00871
4811.52930,0.00145
4813.45777,-0.00287
4815.38624,-0.00093
4817.31471,0.00354
4819.24318,0.00709
4821.17165,0.01180
4823.10012,0.01299
4825.02859,0.00515
4826.95705,-0.00469
4828.88552,-0.00933
4830.81399,-0.00988
4832.74246,-0.00909
4834.67093,-0.00427
4836.59940,0.00875
4838.52787,0.02401
4840.45633,0.03176
4842.38480,0.02748
4844.31327,0.01314
4846.24174,-0.00449
4848.17021,-0.01193
4850.09868,-0.00051
4852.02715,0.01220
4853.95562,0.01074
4855.88408,0.00780
4857.81255,0.00722
4859.74102,-0.00293
4861.66949,-0.01290
4863.59796,-0.00864
4865.52643,0.00066
4867.45490,0.00378
4869.38336,0.00515
4871.31183,0.01118
4873.24030,0.01214
4875.16877,-0.00126
4877.09724,-0.01662
4879.02571,-0.02107
4880.95418,-0.02319
4882.88265,-0.02292
4884.81111,-0.01051
4886.73958,0.00673
4888.66805,0.01838
4890.59652,0.02072
4892.52499,0.01671
4894.45346,0.01390
4896.38193,0.01896
4898.31039,0.02790
4900.23886,0.03131
4902.16733,0.02935
4904.09580,0.02149
4906.02427,0.01446
4907.95274,0.01505
4909.88121,0.01463
4911.80967,0.00858
4913.73814,0.00169
4915.66661,0.00277
4917.59508,0.01140
4919.52355,0.01392
4921.45202,0.00452
4923.38049,-0.00785
4925.30896,-0.01038
4927.23742,-0.00073
4929.16589,0.01232
4931.09436,0.02391
4933.02283,0.02790
4934.95130,0.01765
4936.87977,0.00530
4938.80824,0.00116
4940.73670,-0.00223
4942.66517,-0.00355
4944.59364,-0.00096
4946.52211,-0.00224
4948.45058,-0.00677
4950.37905,-0.01328
4952.30752,-0.01892
4954.23599,-0.01311
4956.16445,-0.00107
4958.09292,0.00663
4960.02139,0.01507
4961.94986,0.02015
4963.87833,0.01109
4965.80680,-0.00160
4967.73527,-0.00292
4969.66373,0.00423
4971.59220,0.01068
4973.52067,0.01552
4975.44914,0.02016
4977.37761,0.02806
4979.30608,0.04176
4981.23455,0.04521
4983.16302,0.03094
4985.09148,0.01636
4987.01995,0.00915
4988.94842,0.00578
4990.87689,0.00656
4992.80536,0.01478
4994.73383,0.02733
4996.66230,0.03362
4998.59076,0.02705
5000.51923,0.01524
5002.44770,0.01447
5004.37617,0.01864
5006.30464,0.01153
5008.23311,0.00724
5010.16158,0.02363
5012.09005,0.04178
5014.01851,0.03587
5015.94698,0.02465
5017.87545,0.03071
5019.80392,0.03299
5021.73239,0.01469
5023.66086,-0.00604
5025.58933,-0.01395
5027.51779,-0.01146
5029.44626,-0.00289
5031.37473,0.00486
5033.30320,0.00872
5035.23167,0.01230
5037.16014,0.01745
5039.08861,0.02064
5041.01708,0.01491
5042.94554,0.00761
5044.87401,0.00393
5046.80248,-0.00379
5048.73095,-0.00714
5050.65942,0.00337
5052.58789,0.01311
5054.51636,0.01092
5056.44482,0.00942
5058.37329,0.01905
5060.30176,0.03037
5062.23023,0.02827
5064.15870,0.01210
5066.08717,0.00188
5068.01564,0.01101
5069.94410,0.02578
5071.87257,0.03170
5073.80104,0.02860
5075.72951,0.02242
5077.65798,0.01910
5079.58645,0.01814
5081.51492,0.01984
5083.44339,0.02598
5085.37185,0.02456
5087.30032,0.01183
5089.22879,0.00731
5091.15726,0.01406
5093.08573,0.01673
5095.01420,0.01481
5096.94267,0.01574
5098.87113,0.02018
5100.79960,0.02629
5102.72807,0.02983
5104.65654,0.02804
5106.58501,0.02664
5108.51348,0.02961
5110.44195,0.03622
5112.37042,0.04008
5114.29888,0.03153
5116.22735,0.01767
5118.15582,0.01135
5120.08429,0.01217
5122.01276,0.01222
5123.94123,0.01269
5125.86970,0.02191
5127.79816,0.03083
5129.72663,0.02708
5131.65510,0.01316
5133.58357,-0.00455
5135.51204,-0.00811
5137.44051,0.00972
5139.36898,0.01941
5141.29745,0.01258
5143.22591,0.01722
5145.15438,0.03617
5147.08285,0.05508
5149.01132,0.06202
5150.93979,0.04794
5152.86826,0.03248
5154.79673,0.03337
5156.72519,0.03527
5158.65366,0.03185
5160.58213,0.03824
5162.51060,0.04949
5164.43907,0.05090
5166.36754,0.04480
5168.29601,0.03531
5170.22448,0.02544
5172.15294,0.01727
5174.08141,0.00994
5176.00988,0.00609
5177.93835,0.00841
5179.86682,0.01460
5181.79529,0.01597
5183.72376,0.02001
5185.65222,0.03562
5187.58069,0.03796
5189.50916,0.01772
5191.43763,0.00471
5193.36610,0.01896
5195.29457,0.04543
5197.22304,0.05731
5199.15151,0.05058
5201.07997,0.04868
5203.00844,0.06394
5204.93691,0.08377
5206.86538,0.08850
5208.79385,0.06970
5210.72232,0.04596
5212.65079,0.03979
5214.57925,0.04611
5216.50772,0.04501
5218.43619,0.03669
5220.36466,0.03248
5222.29313,0.03777
5224.22160,0.05555
5226.15007,0.06970
5228.07854,0.06260
5230.00700,0.05441
5231.93547,0.06390
5233.86394,0.07661
5235.79241,0.07622
5237.72088,0.07246
5239.64935,0.07248
5241.57782,0.06692
5243.50628,0.05805
5245.43475,0.05702
5247.36322,0.05919
5249.29169,0.05568
5251.22016,0.04651
5253.14863,0.04053
5255.07710,0.04142
5257.00556,0.03737
5258.93403,0.03165
5260.86250,0.03947
5262.79097,0.05881
5264.71944,0.06660
5266.64791,0.04446
5268.57638,0.01794
5270.50485,0.02080
5272.43331,0.04345
5274.36178,0.05648
5276.29025,0.05252
5278.21872,0.04638
5280.14719,0.04912
5282.07566,0.05049
5284.00413,0.04657
5285.93259,0.05119
5287.86106,0.07003
5289.78953,0.09086
5291.71800,0.08789
5293.64647,0.06539
5295.57494,0.05892
5297.50341,0.06783
5299.43188,0.06057
5301.36034,0.03840
5303.28881,0.03179
5305.21728,0.04195
5307.14575,0.04754
5309.07422,0.04607
5311.00269,0.04905
5312.93116,0.05789
5314.85962,0.06697
5316.78809,0.06848
5318.71656,0.05881
5320.64503,0.04990
5322.57350,0.05682
5324.50197,0.07960
5326.43044,0.09833
5328.35891,0.09530
5330.28737,0.07778
5332.21584,0.05614
5334.14431,0.04279
5336.07278,0.04764
5338.00125,0.05406
5339.92972,0.04443
5341.85819,0.03546
5343.78665,0.03859
5345.71512,0.04262
5347.64359,0.04169
5349.57206,0.03797
5351.50053,0.03994
5353.42900,0.05624
5355.35747,0.06930
5357.28594,0.07026
5359.21440,0.06444
5361.14287,0.04778
5363.07134,0.03704
5364.99981,0.04744
5366.92828,0.06657
5368.85675,0.08313
5370.78522,0.08291
5372.71368,0.07107
5374.64215,0.06489
5376.57062,0.04861
5378.49909,0.02953
5380.42756,0.03928
5382.35603,0.06063
5384.28450,0.05637
5386.21297,0.03460
5388.14143,0.03003
5390.06990,0.03673
5391.99837,0.03940
5393.92684,0.03544
5395.85531,0.03219
5397.78378,0.03640
5399.71225,0.04210
5401.64071,0.03834
5403.56918,0.04359
5405.49765,0.07257
5407.42612,0.08587
5409.35459,0.07301
5411.28306,0.06030
5413.21153,0.04978
5415.13999,0.04847
5417.06846,0.05552
5418.99693,0.05575
5420.92540,0.05518
5422.85387,0.06790
5424.78234,0.07817
5426.71081,0.07131
5428.63928,0.06861
5430.56774,0.07274
5432.49621,0.06559
5434.42468,0.06007
5436.35315,0.06144
5438.28162,0.05795
5440.21009,0.05407
5442.13856,0.05408
5444.06702,0.06147
5445.99549,0.07879
5447.92396,0.08348
5449.85243,0.06198
5451.78090,0.04892
5453.70937,0.06631
5455.63784,0.09492
5457.56631,0.10561
5459.49477,0.09044
5461.42324,0.08547
5463.35171,0.10430
5465.28018,0.11118
5467.20865,0.10919
5469.13712,0.11773
5471.06559,0.11761
5472.99405,0.09701
5474.92252,0.07419
5476.85099,0.06055
5478.77946,0.05274
5480.70793,0.05498
5482.63640,0.06493
5484.56487,0.07876
5486.49334,0.08744
5488.42180,0.07768
5490.35027,0.05262
5492.27874,0.02456
5494.20721,0.02468
5496.13568,0.05544
5498.06415,0.07617
5499.99262,0.07075
5501.92108,0.05255
5503.84955,0.03941
5505.77802,0.03911
5507.70649,0.04292
5509.63496,0.05199
5511.56343,0.06826
5513.49190,0.07154
5515.42037,0.05746
5517.34883,0.05233
5519.27730,0.05692
5521.20577,0.05314
5523.13424,0.05240
5525.06271,0.05378
5526.99118,0.04694
5528.91965,0.04478
5530.84811,0.04896
5532.77658,0.06490
5534.70505,0.09994
5536.63352,0.11887
5538.56199,0.09119
5540.49046,0.05215
5542.41893,0.03896
5544.34740,0.04208
5546.27586,0.04404
5548.20433,0.04934
5550.13280,0.07546
5552.06127,0.10811
5553.98974,0.11477
5555.91821,0.10552
5557.84668,0.10102
5559.77514,0.09715
5561.70361,0.09080
5563.63208,0.07727
5565.56055,0.06653
5567.48902,0.07599
5569.41749,0.08695
5571.34596,0.08573
5573.27443,0.08409
5575.20289,0.08955
5577.13136,0.10200
5579.05983,0.11139
5580.98830,0.10213
5582.91677,0.08757
5584.84524,0.08730
5586.77371,0.09086
5588.70217,0.10538
5590.63064,0.11919
5592.55911,0.09244
5594.48758,0.05807
5596.41605,0.06641
5598.34452,0.08626
5600.27299,0.07049
5602.20145,0.04422
5604.12992,0.05784
5606.05839,0.09768
5607.98686,0.11397
5609.91533,0.10736
5611.84380,0.10728
5613.77227,0.12111
5615.70074,0.13060
5617.62920,0.10506
5619.55767,0.06822
5621.48614,0.06604
5623.41461,0.06910
5625.34308,0.04989
5627.27155,0.04763
5629.20002,0.07353
5631.12848,0.09715
5633.05695,0.11828
5634.98542,0.12484
5636.91389,0.09293
5638.84236,0.06310
5640.77083,0.07317
5642.69930,0.09445
5644.62777,0.09733
5646.55623,0.08069
5648.48470,0.06612
5650.41317,0.06786
5652.34164,0.07581
5654.27011,0.08664
5656.19858,0.09914
5658.12705,0.10126
5660.05551,0.08641
5661.98398,0.07238
5663.91245,0.07316
5665.84092,0.08272
5667.76939,0.08853
5669.69786,0.07238
5671.62633,0.05765
5673.55480,0.06955
5675.48326,0.08179
5677.41173,0.08487
5679.34020,0.08671
5681.26867,0.08975
5683.19714,0.09875
5685.12561,0.10270
5687.05408,0.09428
5688.98254,0.07726
5690.91101,0.06188
5692.83948,0.07103
5694.76795,0.10148
5696.69642,0.11113
5698.62489,0.08759
5700.55336,0.06800
5702.48183,0.06875
5704.41029,0.08167
5706.33876,0.09272
5708.26723,0.08763
5710.19570,0.08252
5712.12417,0.07651
5714.05264,0.04878
5715.98111,0.03945
5717.90957,0.07402
5719.83804,0.10200
5721.76651,0.09835
5723.69498,0.08222
5725.62345,0.07233
5727.55192,0.09506
5729.48039,0.13576
5731.40886,0.14909
5733.33732,0.14379
5735.26579,0.13949
5737.19426,0.13886
5739.12273,0.13033
5741.05120,0.08937
5742.97967,0.04893
5744.90814,0.05781
5746.83660,0.09034
5748.76507,0.09892
5750.69354,0.09143
5752.62201,0.10511
5754.55048,0.11756
5756.47895,0.09261
5758.40742,0.06573
5760.33588,0.06852
5762.26435,0.08823
5764.19282,0.10923
5766.12129,0.11784
5768.04976,0.10560
5769.97823,0.08630
5771.90670,0.08636
5773.83517,0.10665
5775.76363,0.11781
5777.69210,0.10732
5779.62057,0.09815
5781.54904,0.10104
5783.47751,0.09738
5785.40598,0.08617
5787.33445,0.08561
5789.26291,0.09163
5791.19138,0.09084
5793.11985,0.08746
5795.04832,0.07519
5796.97679,0.06498
5798.90526,0.08267
5800.83373,0.11192
5802.76220,0.12053
5804.69066,0.08886
5806.61913,0.05090
5808.54760,0.05507
5810.47607,0.08090
5812.40454,0.09804
5814.33301,0.11422
5816.26148,0.13715
5818.18994,0.14230
5820.11841,0.10646
5822.04688,0.05239
5823.97535,0.02411
5825.90382,0.04362
5827.83229,0.08701
5829.76076,0.10512
5831.68923,0.10094
5833.61769,0.10269
5835.54616,0.10685
5837.47463,0.10191
5839.40310,0.08819
5841.33157,0.09075
5843.26004,0.10463
5845.18851,0.10875
5847.11697,0.12357
5849.04544,0.12751
5850.97391,0.09337
5852.90238,0.07608
5854.83085,0.08970
5856.75932,0.08835
5858.68779,0.07058
5860.61626,0.06104
5862.54472,0.06436
5864.47319,0.08294
5866.40166,0.11017
5868.33013,0.12943
5870.25860,0.13636
5872.18707,0.14990
5874.11554,0.16769
5876.04400,0.15170
5877.97247,0.11087
5879.90094,0.08966
5881.82941,0.07653
5883.75788,0.07171
5885.68635,0.10470
5887.61482,0.13932
5889.54329,0.14179
5891.47175,0.12714
5893.40022,0.10946
5895.32869,0.10517
5897.25716,0.10821
5899.18563,0.07521
5901.11410,0.01215
5903.04257,0.00408
5904.97103,0.06401
5906.89950,0.12446
5908.82797,0.15347
5910.75644,0.15435
5912.68491,0.14492
5914.61338,0.12455
5916.54185,0.09792
5918.47032,0.07631
5920.39878,0.06093
5922.32725,0.06032
5924.25572,0.07587
5926.18419,0.10477
5928.11266,0.12791
5930.04113,0.12006
5931.96960,0.09609
5933.89806,0.08237
5935.82653,0.07429
5937.75500,0.05487
5939.68347,0.03482
5941.61194,0.03782
5943.54041,0.06889
5945.46888,0.12588
5947.39734,0.18157
5949.32581,0.17733
5951.25428,0.11747
5953.18275,0.08061
5955.11122,0.09644
5957.03969,0.12622
5958.96816,0.14623
5960.89663,0.15078
5962.82509,0.13971
5964.75356,0.13887
5966.68203,0.13501
5968.61050,0.09800
5970.53897,0.06281
5972.46744,0.06599
5974.39591,0.09658
5976.32437,0.12288
5978.25284,0.13918
5980.18131,0.15925
5982.10978,0.15593
5984.03825,0.11596
5985.96672,0.08693
5987.89519,0.07494
5989.82366,0.05280
5991.75212,0.04752
5993.68059,0.08009
5995.60906,0.10696
5997.53753,0.09020
5999.46600,0.05127
6001.39447,0.02314
6003.32294,0.03507
6005.25140,0.06337
6007.17987,0.05511
6009.10834,0.03641
6011.03681,0.04421
6012.96528,0.07438
6014.89375,0.10832
6016.82222,0.10583
6018.75069,0.06469
6020.67915,0.05588
6022.60762,0.10107
6024.53609,0.13230
6026.46456,0.12477
6028.39303,0.13194
6030.32150,0.13763
6032.24997,0.08784
6034.17843,0.03169
6036.10690,0.02129
6038.03537,0.04796
6039.96384,0.07788
6041.89231,0.09499
6043.82078,0.11322
6045.74925,0.12255
6047.67772,0.12455
6049.60618,0.11706
6051.53465,0.09773
6053.46312,0.11840
6055.39159,0.16061
6057.32006,0.14427
6059.24853,0.09416
6061.17700,0.05276
6063.10546,0.00931
6065.03393,-0.00381
6066.96240,0.02011
6068.89087,0.03233
6070.81934,0.03630
6072.74781,0.06371
6074.67628,0.11016
6076.60475,0.12321
6078.53321,0.09188
6080.46168,0.08583
6082.39015,0.09967
6084.31862,0.10602
6086.24709,0.14052
6088.17556,0.16841
6090.10403,0.15649
6092.03249,0.13495
6093.96096,0.11073
6095.88943,0.10387
6097.81790,0.12071
6099.74637,0.11500
6101.67484,0.07910
6103.60331,0.06334
6105.53177,0.08378
6107.46024,0.11345
6109.38871,0.12874
6111.31718,0.11982
6113.24565,0.08708
6115.17412,0.05518
6117.10259,0.06801
6119.03106,0.11605
6120.95952,0.12333
6122.88799,0.08334
6124.81646,0.06475
6126.74493,0.10463
6128.67340,0.16245
6130.60187,0.17952
6132.53034,0.13853
6134.45880,0.06691
6136.38727,0.01585
6138.31574,0.00899
6140.24421,0.02937
6142.17268,0.05715
6144.10115,0.08223
6146.02962,0.08808
6147.95809,0.08327
6149.88655,0.09748
6151.81502,0.10255
6153.74349,0.06822
6155.67196,0.05481
6157.60043,0.07425
6159.52890,0.07196
6161.45737,0.04596
6163.38583,0.04159
6165.31430,0.09069
6167.24277,0.15970
6169.17124,0.18537
6171.09971,0.15894
6173.02818,0.14298
6174.95665,0.13349
6176.88512,0.06068
6178.81358,-0.01100
6180.74205,-0.00036
6182.67052,0.03924
6184.59899,0.07797
6186.52746,0.14137
6188.45593,0.19490
6190.38440,0.18902
6192.31286,0.17513
6194.24133,0.18862
6196.16980,0.15995
6198.09827,0.09796
6200.02674,0.09292
6201.95521,0.09913
6203.88368,0.06810
6205.81215,0.07508
6207.74061,0.12578
6209.66908,0.13988
6211.59755,0.11168
6213.52602,0.10552
6215.45449,0.14080
6217.38296,0.16542
6219.31143,0.11869
6221.23989,0.05951
6223.16836,0.05948
6225.09683,0.08526
6227.02530,0.11974
6228.95377,0.13943
6230.88224,0.09115
6232.81071,0.04340
6234.73918,0.07063
6236.66764,0.10314
6238.59611,0.09054
6240.52458,0.07244
6242.45305,0.09585
6244.38152,0.13171
6246.30999,0.15080
6248.23846,0.14055
6250.16692,0.04926
6252.09539,-0.02090
6254.02386,0.03893
6255.95233,0.11639
6257.88080,0.13709
6259.80927,0.14552
6261.73774,0.15953
6263.66621,0.15994
6265.59467,0.14067
6267.52314,0.10930
6269.45161,0.08197
6271.38008,0.06391
6273.30855,0.06767
6275.23702,0.08957
6277.16549,0.10263
6279.09395,0.11949
6281.02242,0.12970
6282.95089,0.12476
6284.87936,0.10685
6286.80783,0.06849
6288.73630,0.03952
6290.66477,0.03921
6292.59323,0.06137
6294.52170,0.10074
6296.45017,0.12309
6298.37864,0.10164
6300.30711,0.07537
6302.23558,0.06545
6304.16405,0.05560
6306.09252,0.04300
6308.02098,0.02936
6309.94945,0.04706
6311.87792,0.07925
6313.80639,0.07821
6315.73486,0.04733
6317.66333,-0.00382
6319.59180,-0.04734
6321.52026,-0.02820
6323.44873,0.04416
6325.37720,0.08563
6327.30567,0.07290
6329.23414,0.01860
6331.16261,-0.03518
6333.09108,-0.01067
6335.01955,0.06644
6336.94801,0.08217
6338.87648,0.05097
6340.80495,0.09426
6342.73342,0.15597
6344.66189,0.10755
6346.59036,0.00130
6348.51883,-0.04710
6350.44729,-0.02913
6352.37576,-0.00332
6354.30423,-0.00750
6356.23270,0.00943
6358.16117,0.07468
6360.08964,0.10718
6362.01811,0.10411
6363.94658,0.13652
6365.87504,0.18813
6367.80351,0.20130
6369.73198,0.12270
6371.66045,-0.00792
6373.58892,-0.06441
6375.51739,-0.03059
6377.44586,0.02051
6379.37432,0.06620
6381.30279,0.08903
6383.23126,0.06233
6385.15973,0.04079
6387.08820,0.06336
6389.01667,0.09375
6390.94514,0.11881
6392.87361,0.10015
6394.80207,0.05511
6396.73054,0.09511
6398.65901,0.17242
6400.58748,0.19354
6402.51595,0.18772
6404.44442,0.16024
6406.37289,0.10579
6408.30135,0.09497
6410.22982,0.10072
6412.15829,0.08017
6414.08676,0.09456
6416.01523,0.13305
6417.94370,0.14760
6419.87217,0.12891
6421.80064,0.06365
6423.72910,0.02878
6425.65757,0.09017
6427.58604,0.12553
6429.51451,0.08718
6431.44298,0.04810
6433.37145,0.03763
6435.29992,0.09053
6437.22838,0.15877
6439.15685,0.15194
6441.08532,0.11305
6443.01379,0.07051
6444.94226,0.03978
6446.87073,0.06024
6448.79920,0.08910
6450.72766,0.07642
6452.65613,0.03939
6454.58460,0.01779
6456.51307,0.03214
6458.44154,0.05423
6460.37001,0.04751
6462.29848,0.03169
6464.22695,0.02420
6466.15541,0.00469
6468.08388,0.00514
6470.01235,0.07882
6471.94082,0.13831
6473.86929,0.09045
6475.79776,0.02967
6477.72623,0.05784
6479.65469,0.14055
6481.58316,0.20331
6483.51163,0.20678
6485.44010,0.19651
6487.36857,0.18676
6489.29704,0.12761
6491.22551,0.04257
6493.15398,0.02874
6495.08244,0.08193
6497.01091,0.10265
6498.93938,0.08148
6500.86785,0.06298
6502.79632,0.07022
6504.72479,0.10241
6506.65326,0.12203
6508.58172,0.12901
6510.51019,0.16144
6512.43866,0.19222
6514.36713,0.16739
6516.29560,0.12591
6518.22407,0.12287
6520.15254,0.14185
6522.08101,0.18193
6524.00947,0.22073
6525.93794,0.19714
6527.86641,0.14120
6529.79488,0.09883
6531.72335,0.07426
6533.65182,0.05913
6535.58029,0.06039
6537.50875,0.09713
6539.43722,0.10025
6541.36569,0.03903
6543.29416,0.01017
6545.22263,0.04996
6547.15110,0.10305
6549.07957,0.09717
6551.00804,0.02483
6552.93650,0.00133
6554.86497,0.05974
6556.79344,0.12698
6558.72191,0.16103
6560.65038,0.14963
6562.57885,0.11435
6564.50732,0.10621
6566.43578,0.10776
6568.36425,0.04781
6570.29272,-0.02691
6572.22119,-0.01215
6574.14966,0.05675
6576.07813,0.07877
6578.00660,0.04233
6579.93507,-0.00227
6581.86353,0.00427
6583.79200,0.08580
6585.72047,0.14855
6587.64894,0.11668
6589.57741,0.05171
6591.50588,0.01474
6593.43435,-0.00154
6595.36281,-0.00148
6597.29128,0.03078
6599.21975,0.06602
6601.14822,0.04580
6603.07669,0.03297
6605.00516,0.05623
6606.93363,0.05609
6608.86210,0.07028
6610.79056,0.10192
6612.71903,0.07641
6614.64750,0.00140
6616.57597,-0.06309
6618.50444,-0.07545
6620.43291,-0.01799
6622.36138,0.07321
6624.28984,0.08900
6626.21831,0.05222
6628.14678,0.07251
6630.07525,0.08376
6632.00372,0.02169
6633.93219,-0.03730
6635.86066,-0.05564
6637.78912,-0.01615
6639.71759,0.08942
6641.64606,0.19103
6643.57453,0.20836
6645.50300,0.18348
6647.43147,0.16501
6649.35994,0.10386
6651.28841,0.02189
6653.21687,0.01375
6655.14534,0.07594
6657.07381,0.10533
6659.00228,0.05106
6660.93075,-0.03665
6662.85922,-0.07317
6664.78769,-0.02931
6666.71615,0.02986
6668.64462,0.05119
6670.57309,0.00937
6672.50156,-0.09513
6674.43003,-0.17244
6676.35850,-0.13052
6678.28697,-0.01800
6680.21544,0.06778
6682.14390,0.08564
6684.07237,0.04333
6686.00084,0.00079
6687.92931,-0.01276
6689.85778,0.00148
6691.78625,0.06166
6693.71472,0.14016
6695.64318,0.18726
6697.57165,0.17829
6699.50012,0.13725
6701.42859,0.10893
6703.35706,0.04589
6705.28553,-0.08014
6707.21400,-0.13190
6709.14247,-0.08103
6711.07093,-0.03950
6712.99940,0.00001
6714.92787,0.04750
6716.85634,0.06181
6718.78481,0.07649
6720.71328,0.07951
6722.64175,-0.00369
6724.57021,-0.10931
6726.49868,-0.15308
6728.42715,-0.11835
6730.35562,-0.01789
6732.28409,0.09059
6734.21256,0.19560
6736.14103,0.29040
6738.06950,0.32717
6739.99796,0.28641
6741.92643,0.19098
6743.85490,0.12458
6745.78337,0.10340
6747.71184,0.08865
6749.64031,0.08714
6751.56878,0.10631
6753.49724,0.11689
6755.42571,0.06116
6757.35418,-0.04690
6759.28265,-0.09997
6761.21112,-0.08368
6763.13959,-0.09030
6765.06806,-0.08962
6766.99653,-0.01181
6768.92499,0.09521
6770.85346,0.12348
6772.78193,0.07982
6774.71040,0.05949
6776.63887,0.07706
6778.56734,0.06790
6780.49581,-0.00116
6782.42427,-0.06226
6784.35274,-0.04447
6786.28121,-0.00502
6788.20968,0.02487
6790.13815,0.06554
6792.06662,0.05968
6793.99509,-0.00515
6795.92355,-0.02125
6797.85202,0.05607
6799.78049,0.08841
6801.70896,-0.00537
6803.63743,-0.06073
6805.56590,0.02514
6807.49437,0.13893
6809.42284,0.18737
6811.35130,0.18319
6813.27977,0.16492
6815.20824,0.09327
6817.13671,-0.05417
6819.06518,-0.13562
6820.99365,-0.01472
6822.92212,0.22038
6824.85058,0.30780
6826.77905,0.25311
6828.70752,0.16348
6830.63599,0.07043
6832.56446,0.00799
6834.49293,-0.00933
6836.42140,-0.01371
6838.34987,-0.00688
6840.27833,0.05321
6842.20680,0.10486
6844.13527,0.07092
6846.06374,-0.00910
6847.99221,-0.06600
6849.92068,-0.02870
6851.84915,0.07820
6853.77761,0.14083
6855.70608,0.10785
6857.63455,0.03989
6859.56302,0.03840
6861.49149,0.12795
6863.41996,0.19690
6865.34843,0.12734
6867.27690,0.02384
6869.20536,0.01654
6871.13383,0.02290
6873.06230,-0.00816
6874.99077,-0.01203
6876.91924,0.01359
6878.84771,0.02892
6880.77618,0.02937
6882.70464,0.03112
6884.63311,0.04206
6886.56158,0.03301
6888.49005,0.00738
6890.41852,0.03570
6892.34699,0.08990
6894.27546,0.07461
6896.20393,-0.03469
6898.13239,-0.13900
6900.06086,-0.11723
6901.98933,-0.07341
6903.91780,-0.04749
6905.84627,0.05313
6907.77474,0.13636
6909.70321,0.11688
6911.63167,0.06268
6913.56014,0.02884
6915.48861,0.06607
6917.41708,0.16126
6919.34555,0.20925
6921.27402,0.18526
6923.20249,0.12337
6925.13096,0.04586
6927.05942,0.02768
6928.98789,0.02629
6930.91636,-0.03955
6932.84483,-0.03361
6934.77330,0.09988
6936.70177,0.22914
6938.63024,0.24019
6940.55870,0.09396
6942.48717,-0.02964
6944.41564,-0.00937
6946.34411,0.07871
6948.27258,0.11247
6950.20105,0.10751
6952.12952,0.11076
6954.05799,0.09207
6955.98645,0.07418
6957.91492,0.08882
6959.84339,0.11142
6961.77186,0.07098
6963.70033,-0.02307
6965.62880,-0.08225
6967.55727,-0.11116
6969.48573,-0.11581
6971.41420,-0.07071
6973.34267,-0.07296
6975.27114,-0.10826
6977.19961,-0.00190
6979.12808,0.15158
6981.05655,0.20339
6982.98501,0.20880
6984.91348,0.21123
6986.84195,0.12912
6988.77042,-0.01915
6990.69889,-0.07815
6992.62736,0.02169
6994.55583,0.15149
6996.48430,0.13876
6998.41276,0.00492
7000.34123,-0.04924
7002.26970,0.02761
7004.19817,0.08007
7006.12664,0.02110
7008.05511,-0.00194
7009.98358,0.10759
7011.91204,0.18164
7013.84051,0.10758
7015.76898,-0.00567
7017.69745,-0.06950
7019.62592,-0.02648
7021.55439,0.12255
7023.48286,0.26319
7025.41133,0.29800
7027.33979,0.17280
7029.26826,0.00652
7031.19673,0.03039
7033.12520,0.09402
7035.05367,0.04838
7036.98214,0.02966
7038.91061,0.07021
7040.83907,0.14594
7042.76754,0.22187
7044.69601,0.22816
7046.62448,0.22049
7048.55295,0.25331
7050.48142,0.26696
7052.40989,0.20465
7054.33836,0.10319
7056.26682,0.04243
7058.19529,0.04939
7060.12376,0.06856
7062.05223,0.04639
7063.98070,-0.02657
7065.90917,-0.13913
7067.83764,-0.19038
7069.76610,-0.11071
7071.69457,-0.02098
7073.62304,-0.01256
7075.55151,-0.05557
7077.47998,-0.08201
7079.40845,-0.02166
7081.33692,0.08698
7083.26539,0.15040
7085.19385,0.21274
7087.12232,0.27569
7089.05079,0.22527
7090.97926,0.10097
7092.90773,0.00378
7094.83620,-0.05755
7096.76467,-0.04257
7098.69313,0.09415
7100.62160,0.22184
7102.55007,0.20485
7104.47854,0.14244
7106.40701,0.21871
7108.33548,0.33034
7110.26395,0.32659
7112.19242,0.29100
7114.12088,0.25501
7116.04935,0.09461
7117.97782,-0.15922
7119.90629,-0.17267
7121.83476,0.00034
7123.76323,0.09346
7125.69170,0.10311
7127.62016,0.11056
7129.54863,0.12246
7131.47710,0.11724
7133.40557,0.09563
7135.33404,0.04814
7137.26251,-0.00113
7139.19098,0.05765
7141.11944,0.16410
7143.04791,0.11730
7144.97638,0.01658
7146.90485,0.05440
7148.83332,0.12983
7150.76179,0.17877
7152.69026,0.22817
7154.61873,0.20359
7156.54719,0.07210
7158.47566,-0.03428
7160.40413,-0.00278
7162.33260,0.13211
7164.26107,0.26096
7166.18954,0.32304
7168.11801,0.33200
7170.04647,0.36674
7171.97494,0.41678
7173.90341,0.37338
7175.83188,0.23551
7177.76035,0.06504
7179.68882,-0.06460
7181.61729,-0.03941
7183.54576,0.08508
7185.47422,0.12738
7187.40269,0.12260
7189.33116,0.09054
7191.25963,-0.02017
7193.18810,-0.12622
7195.11657,-0.12877
7197.04504,-0.08423
7198.97350,-0.00137
7200.90197,0.11933
7202.83044,0.10952
7204.75891,-0.08335
7206.68738,-0.13104
7208.61585,-0.03125
7210.54432,0.05095
7212.47279,0.09152
7214.40125,0.10191
7216.32972,0.23567
7218.25819,0.48700
7220.18666,0.48316
7222.11513,0.33611
7224.04360,0.23362
7225.97207,0.13686
7227.90053,0.06648
7229.82900,0.09485
7231.75747,0.11999
7233.68594,0.07509
7235.61441,0.05417
7237.54288,0.08946
7239.47135,0.16923
7241.39982,0.19421
7243.32828,0.06035
7245.25675,-0.10969
7247.18522,-0.19741
7249.11369,-0.21321
7251.04216,-0.08253
7252.97063,0.18747
7254.89910,0.28416
7256.82756,0.24623
7258.75603,0.28663
7260.68450,0.38962
7262.61297,0.34039
7264.54144,0.11807
7266.46991,-0.00676
7268.39838,-0.03680
7270.32685,-0.03540
7272.25531,0.06854
7274.18378,0.10842
7276.11225,0.08940
7278.04072,0.14948
7279.96919,0.19671
7281.89766,0.20226
7283.82613,0.16296
7285.75459,0.01019
7287.68306,-0.05534
7289.61153,0.05769
7291.54000,0.13337
7293.46847,0.08714
7295.39694,0.04175
7297.32541,0.04336
7299.25387,0.06101
7301.18234,0.09593
7303.11081,0.15130
7305.03928,0.17653
7306.96775,0.17219
7308.89622,0.13676
7310.82469,0.07135
7312.75316,0.07519
7314.68162,0.11478
7316.61009,0.12361
7318.53856,0.09148
7320.46703,0.00301
7322.39550,-0.04384
7324.32397,0.06280
7326.25244,0.15129
7328.18090,0.10607
7330.10937,0.20233
7332.03784,0.38001
7333.96631,0.26917
7335.89478,0.08827
7337.82325,0.02537
7339.75172,-0.06856
7341.68019,-0.18679
7343.60865,-0.22135
7345.53712,-0.24038
7347.46559,-0.17398
7349.39406,0.03485
7351.32253,0.23135
7353.25100,0.20181
7355.17947,0.11114
7357.10793,0.17691
7359.03640,0.24538
7360.96487,0.19121
7362.89334,0.11972
7364.82181,0.06727
7366.75028,0.08477
7368.67875,0.14529
7370.60722,0.17255
7372.53568,0.22152
7374.46415,0.30915
7376.39262,0.27073
7378.32109,0.21367
7380.24956,0.26775
7382.17803,0.34578
7384.10650,0.38059
7386.03496,0.36107
7387.96343,0.30131
7389.89190,0.23283
7391.82037,0.16382
7393.74884,0.16121
7395.67731,0.27055
7397.60578,0.36685
7399.53425,0.32657
7401.46271,0.17959
7403.39118,-0.00785
7405.31965,-0.11984
7407.24812,-0.09315
7409.17659,-0.01555
7411.10506,0.06914
7413.03353,0.13697
7414.96199,0.15579
7416.89046,0.08059
7418.81893,-0.18864
7420.74740,-0.38186
7422.67587,-0.22795
7424.60434,-0.03844
7426.53281,-0.00514
7428.46128,-0.03332
7430.38974,0.04827
7432.31821,0.19315
7434.24668,0.19142
7436.17515,0.10361
7438.10362,0.11431
7440.03209,0.11228
7441.96056,0.01390
7443.88902,-0.02053
7445.81749,0.01768
7447.74596,0.05652
7449.67443,0.15248
7451.60290,0.19236
7453.53137,0.00516
7455.45984,-0.15766
7457.38831,-0.15203
7459.31677,-0.04770
7461.24524,0.14771
7463.17371,0.36490
7465.10218,0.34748
7467.03065,0.11022
7468.95912,-0.03413
7470.88759,-0.06349
7472.81605,-0.10149
7474.74452,-0.15290
7476.67299,-0.23769
7478.60146,-0.40623
7480.52993,-0.46977
7482.45840,-0.25120
7484.38687,-0.05462
7486.31533,-0.02575
7488.24380,0.07759
7490.17227,0.32420
7492.10074,0.45379
7494.02921,0.42289
7495.95768,0.37864
7497.88615,0.31737
