399.19301,13.75083
401.12148,1.81037
403.04995,0.49310
404.97842,0.16696
406.90689,0.10476
408.83536,0.04973
410.76382,0.02010
412.69229,0.10460
414.62076,0.19860
416.54923,0.14189
418.47770,-0.06547
420.40617,-0.16732
422.33464,-0.09856
424.26311,-0.08994
426.19157,-0.09681
428.12004,-0.02819
430.04851,0.03466
431.97698,0.01694
433.90545,-0.04361
435.83392,-0.07926
437.76239,-0.09156
439.69085,-0.06860
441.61932,-0.05795
443.54779,-0.08922
445.47626,-0.09339
447.40473,-0.04144
449.33320,0.04017
451.26167,0.07755
453.19013,0.02161
455.11860,-0.06075
457.04707,-0.04569
458.97554,0.08305
460.90401,0.17023
462.83248,0.13647
464.76095,0.08603
466.68942,0.09884
468.61788,0.13055
470.54635,0.17775
472.47482,0.23228
474.40329,0.16124
476.33176,0.03988
478.26023,0.02963
480.18870,0.04471
482.11716,0.05666
484.04563,0.11330
485.97410,0.14911
487.90257,0.12471
489.83104,0.08320
491.75951,0.04552
493.68798,0.05187
495.61645,0.10606
497.54491,0.13728
499.47338,0.09805
501.40185,0.05831
503.33032,0.07169
505.25879,0.09709
507.18726,0.10554
509.11573,0.10038
511.04419,0.09202
512.97266,0.09251
514.90113,0.11226
516.82960,0.13984
518.75807,0.14400
520.68654,0.12607
522.61501,0.12405
524.54348,0.15163
526.47194,0.17336
528.40041,0.15567
530.32888,0.12850
532.25735,0.14104
534.18582,0.16167
536.11429,0.13894
538.04276,0.10989
539.97122,0.11441
541.89969,0.12267
543.82816,0.11740
545.75663,0.11930
547.68510,0.11379
549.61357,0.08776
551.54204,0.10014
553.47051,0.17191
555.39897,0.20645
557.32744,0.17568
559.25591,0.16404
561.18438,0.17648
563.11285,0.16720
565.04132,0.13998
566.96979,0.12306
568.89825,0.12042
570.82672,0.12140
572.75519,0.11823
574.68366,0.10798
576.61213,0.10096
578.54060,0.10576
580.46907,0.12132
582.39754,0.13277
584.32600,0.13202
586.25447,0.12492
588.18294,0.12903
590.11141,0.15143
592.03988,0.15445
593.96835,0.12689
595.89682,0.11344
597.82528,0.12005
599.75375,0.12345
601.68222,0.12719
603.61069,0.12487
605.53916,0.10993
607.46763,0.10169
609.39610,0.10106
611.32456,0.10811
613.25303,0.12587
615.18150,0.12994
617.10997,0.10980
619.03844,0.09474
620.96691,0.09893
622.89538,0.10241
624.82385,0.09583
626.75231,0.09494
628.68078,0.11207
630.60925,0.14162
632.53772,0.15568
634.46619,0.12814
636.39466,0.09752
638.32313,0.09976
640.25159,0.10525
642.18006,0.09206
644.10853,0.08954
646.03700,0.11533
647.96547,0.13439
649.89394,0.12173
651.82241,0.11025
653.75088,0.11409
655.67934,0.11182
657.60781,0.11270
659.53628,0.12606
661.46475,0.13268
663.39322,0.13209
665.32169,0.13015
667.25016,0.11838
669.17862,0.10197
671.10709,0.10682
673.03556,0.11922
674.96403,0.12672
676.89250,0.12831
678.82097,0.12890
680.74944,0.13225
682.67791,0.14228
684.60637,0.16456
686.53484,0.18195
688.46331,0.17457
690.39178,0.15786
692.32025,0.14922
694.24872,0.14614
696.17719,0.14178
698.10565,0.13402
700.03412,0.12858
701.96259,0.13322
703.89106,0.13800
705.81953,0.13486
707.74800,0.12975
709.67647,0.12362
711.60494,0.12708
713.53340,0.14253
715.46187,0.15256
717.39034,0.14902
719.31881,0.14319
721.24728,0.14904
723.17575,0.14820
725.10422,0.13066
727.03268,0.12739
728.96115,0.14561
730.88962,0.15568
732.81809,0.14959
734.74656,0.14628
736.67503,0.14833
738.60350,0.14558
740.53197,0.13631
742.46043,0.12463
744.38890,0.11977
746.31737,0.12261
748.24584,0.12763
750.17431,0.13750
752.10278,0.14937
754.03125,0.15425
755.95971,0.15144
757.88818,0.14817
759.81665,0.14939
761.74512,0.15211
763.67359,0.15286
765.60206,0.15250
767.53053,0.14926
769.45900,0.13816
771.38746,0.12438
773.31593,0.12121
775.24440,0.12957
777.17287,0.13668
779.10134,0.13590
781.02981,0.13437
782.95828,0.14161
784.88674,0.15615
786.81521,0.16800
788.74368,0.17421
790.67215,0.17531
792.60062,0.16900
794.52909,0.15688
796.45756,0.14219
798.38602,0.12928
800.31449,0.12676
802.24296,0.13234
804.17143,0.13147
806.09990,0.12419
808.02837,0.12146
809.95684,0.12515
811.88531,0.12714
813.81377,0.11961
815.74224,0.11186
817.67071,0.11784
819.59918,0.12765
821.52765,0.13304
823.45612,0.14409
825.38459,0.15092
827.31305,0.14178
829.24152,0.13791
831.16999,0.14681
833.09846,0.14831
835.02693,0.13820
836.95540,0.13191
838.88387,0.13307
840.81234,0.13764
842.74080,0.14566
844.66927,0.15195
846.59774,0.15160
848.52621,0.14633
850.45468,0.14022
852.38315,0.13872
854.31162,0.14266
856.24008,0.14592
858.16855,0.14357
860.09702,0.13694
862.02549,0.13018
863.95396,0.12592
865.88243,0.12784
867.81090,0.13261
869.73937,0.13153
871.66783,0.13380
873.59630,0.14777
875.52477,0.16099
877.45324,0.16761
879.38171,0.17011
881.31018,0.16591
883.23865,0.15664
885.16711,0.14814
887.09558,0.14268
889.02405,0.13984
890.95252,0.14065
892.88099,0.14437
894.80946,0.14676
896.73793,0.14868
898.66640,0.15276
900.59486,0.15814
902.52333,0.16261
904.45180,0.16055
906.38027,0.15520
908.30874,0.15790
910.23721,0.16334
912.16568,0.15804
914.09414,0.14768
916.02261,0.14606
917.95108,0.14894
919.87955,0.14344
921.80802,0.13388
923.73649,0.13391
925.66496,0.14269
927.59343,0.14769
929.52189,0.14124
931.45036,0.13201
933.37883,0.13381
935.30730,0.14450
937.23577,0.15495
939.16424,0.16219
941.09271,0.16525
943.02117,0.16289
944.94964,0.15480
946.87811,0.14730
948.80658,0.14868
950.73505,0.15504
952.66352,0.16018
954.59199,0.16429
956.52045,0.16303
958.44892,0.15596
960.37739,0.15218
962.30586,0.15209
964.23433,0.15010
966.16280,0.14659
968.09127,0.14748
970.01974,0.15701
971.94820,0.16568
973.87667,0.16034
975.80514,0.14742
977.73361,0.14338
979.66208,0.14987
981.59055,0.15608
983.51902,0.15705
985.44748,0.15673
987.37595,0.15594
989.30442,0.15138
991.23289,0.14574
993.16136,0.14514
995.08983,0.14888
997.01830,0.15060
998.94677,0.15196
1000.87523,0.15941
1002.80370,0.16565
1004.73217,0.16299
1006.66064,0.15911
1008.58911,0.15797
1010.51758,0.15631
1012.44605,0.15308
1014.37451,0.14767
1016.30298,0.14479
1018.23145,0.14707
1020.15992,0.14992
1022.08839,0.14847
1024.01686,0.14150
1025.94533,0.13767
1027.87380,0.14060
1029.80226,0.14606
1031.73073,0.15124
1033.65920,0.15244
1035.58767,0.15202
1037.51614,0.15247
1039.44461,0.15433
1041.37308,0.15834
1043.30154,0.15917
1045.23001,0.15733
1047.15848,0.16019
1049.08695,0.16586
1051.01542,0.16598
1052.94389,0.16066
1054.87236,0.15532
1056.80083,0.15520
1058.72929,0.16420
1060.65776,0.17089
1062.58623,0.16466
1064.51470,0.15905
1066.44317,0.16373
1068.37164,0.17074
1070.30011,0.18067
1072.22857,0.19266
1074.15704,0.19270
1076.08551,0.18007
1078.01398,0.16691
1079.94245,0.16049
1081.87092,0.16336
1083.79939,0.16903
1085.72786,0.16801
1087.65632,0.16283
1089.58479,0.16108
1091.51326,0.16390
1093.44173,0.16490
1095.37020,0.15991
1097.29867,0.15568
1099.22714,0.15813
1101.15560,0.16514
1103.08407,0.17218
1105.01254,0.17177
1106.94101,0.16197
1108.86948,0.15553
1110.79795,0.16006
1112.72642,0.16797
1114.65489,0.17425
1116.58335,0.17556
1118.51182,0.17391
1120.44029,0.17518
1122.36876,0.16911
1124.29723,0.15400
1126.22570,0.14830
1128.15417,0.15588
1130.08263,0.16330
1132.01110,0.16234
1133.93957,0.15822
1135.86804,0.15878
1137.79651,0.16111
1139.72498,0.16233
1141.65345,0.16598
1143.58191,0.16826
1145.51038,0.16231
1147.43885,0.15596
1149.36732,0.16095
1151.29579,0.17046
1153.22426,0.17327
1155.15273,0.17183
1157.08120,0.17087
1159.00966,0.17104
1160.93813,0.17012
1162.86660,0.16699
1164.79507,0.16689
1166.72354,0.16928
1168.65201,0.16533
1170.58048,0.15743
1172.50894,0.15898
1174.43741,0.17002
1176.36588,0.17686
1178.29435,0.17483
1180.22282,0.16889
1182.15129,0.16320
1184.07976,0.16198
1186.00823,0.16730
1187.93669,0.17200
1189.86516,0.16926
1191.79363,0.16484
1193.72210,0.16389
1195.65057,0.16355
1197.57904,0.16402
1199.50751,0.16604
1201.43597,0.16787
1203.36444,0.17081
1205.29291,0.17344
1207.22138,0.17295
1209.14985,0.17132
1211.07832,0.16846
1213.00679,0.16625
1214.93526,0.16807
1216.86372,0.16944
1218.79219,0.16924
1220.72066,0.17063
1222.64913,0.17166
1224.57760,0.17273
1226.50607,0.17442
1228.43454,0.17186
1230.36300,0.16598
1232.29147,0.16352
1234.21994,0.16361
1236.14841,0.16100
1238.07688,0.15813
1240.00535,0.16042
1241.93382,0.16573
1243.86229,0.16796
1245.79075,0.16603
1247.71922,0.16430
1249.64769,0.16492
1251.57616,0.16565
1253.50463,0.16679
1255.43310,0.16941
1257.36157,0.17016
1259.29003,0.16863
1261.21850,0.17057
1263.14697,0.17670
1265.07544,0.17950
1267.00391,0.17492
1268.93238,0.16799
1270.86085,0.16518
1272.78932,0.16623
1274.71778,0.16682
1276.64625,0.16639
1278.57472,0.16645
1280.50319,0.16680
1282.43166,0.16786
1284.36013,0.16898
1286.28860,0.16803
1288.21706,0.16919
1290.14553,0.17492
1292.07400,0.17757
1294.00247,0.17423
1295.93094,0.16929
1297.85941,0.16512
1299.78788,0.15905
1301.71634,0.14412
1303.64481,0.12530
1305.57328,0.12533
1307.50175,0.14920
1309.43022,0.17209
1311.35869,0.18048
1313.28716,0.18142
1315.21563,0.17877
1317.14409,0.17507
1319.07256,0.17457
1321.00103,0.17636
1322.92950,0.17742
1324.85797,0.17351
1326.78644,0.16609
1328.71491,0.16278
1330.64337,0.16067
1332.57184,0.15851
1334.50031,0.16011
1336.42878,0.16180
1338.35725,0.16399
1340.28572,0.16455
1342.21419,0.16351
1344.14266,0.17241
1346.07112,0.18233
1347.99959,0.17644
1349.92806,0.16537
1351.85653,0.16244
1353.78500,0.16288
1355.71347,0.16516
1357.64194,0.16961
1359.57040,0.17295
1361.49887,0.17613
1363.42734,0.17737
1365.35581,0.17454
1367.28428,0.17235
1369.21275,0.17414
1371.14122,0.17947
1373.06969,0.18417
1374.99815,0.18315
1376.92662,0.17907
1378.85509,0.17670
1380.78356,0.17544
1382.71203,0.17571
1384.64050,0.17892
1386.56897,0.18276
1388.49743,0.18443
1390.42590,0.18549
1392.35437,0.18724
1394.28284,0.18936
1396.21131,0.18981
1398.13978,0.18634
1400.06825,0.18109
1401.99672,0.17870
1403.92518,0.17946
1405.85365,0.17992
1407.78212,0.17965
1409.71059,0.18109
1411.63906,0.18332
1413.56753,0.18463
1415.49600,0.18638
1417.42446,0.18847
1419.35293,0.18475
1421.28140,0.18036
1423.20987,0.18371
1425.13834,0.18629
1427.06681,0.18454
1428.99528,0.18531
1430.92375,0.18682
1432.85221,0.18699
1434.78068,0.19067
1436.70915,0.19490
1438.63762,0.19285
1440.56609,0.18945
1442.49456,0.18629
1444.42303,0.18268
1446.35149,0.18152
1448.27996,0.18317
1450.20843,0.18588
1452.13690,0.19012
1454.06537,0.19618
1455.99384,0.20629
1457.92231,0.21163
1459.85077,0.20285
1461.77924,0.19841
1463.70771,0.20042
1465.63618,0.19865
1467.56465,0.19329
1469.49312,0.19390
1471.42159,0.20159
1473.35006,0.20993
1475.27852,0.20896
1477.20699,0.20028
1479.13546,0.19146
1481.06393,0.18821
1482.99240,0.18941
1484.92087,0.19420
1486.84934,0.20530
1488.77780,0.21587
1490.70627,0.21115
1492.63474,0.20260
1494.56321,0.20191
1496.49168,0.20364
1498.42015,0.20003
1500.34862,0.19646
1502.27709,0.20503
1504.20555,0.23190
1506.13402,0.26222
1508.06249,0.23891
1509.99096,0.20805
1511.91943,0.19829
1513.84790,0.19835
1515.77637,0.20506
1517.70483,0.20918
1519.63330,0.21192
1521.56177,0.22105
1523.49024,0.22010
1525.41871,0.21109
1527.34718,0.20374
1529.27565,0.19869
1531.20412,0.20131
1533.13258,0.20885
1535.06105,0.20748
1536.98952,0.20767
1538.91799,0.22565
1540.84646,0.24542
1542.77493,0.23462
1544.70340,0.21685
1546.63186,0.20395
1548.56033,0.20015
1550.48880,0.20249
1552.41727,0.20571
1554.34574,0.20867
1556.27421,0.21421
1558.20268,0.22359
1560.13115,0.21089
1562.05961,0.19444
1563.98808,0.19006
1565.91655,0.19280
1567.84502,0.19871
1569.77349,0.19915
1571.70196,0.19462
1573.63043,0.19745
1575.55889,0.20421
1577.48736,0.20060
1579.41583,0.19166
1581.34430,0.18632
1583.27277,0.18372
1585.20124,0.18147
1587.12971,0.17936
1589.05818,0.17880
1590.98664,0.17892
1592.91511,0.17885
1594.84358,0.17913
1596.77205,0.17820
1598.70052,0.17662
1600.62899,0.17801
1602.55746,0.18171
1604.48592,0.18488
1606.41439,0.18745
1608.34286,0.18857
1610.27133,0.18785
1612.19980,0.18764
1614.12827,0.19030
1616.05674,0.19549
1617.98521,0.19548
1619.91367,0.19412
1621.84214,0.20051
1623.77061,0.20886
1625.69908,0.20817
1627.62755,0.20266
1629.55602,0.20012
1631.48449,0.20275
1633.41295,0.20931
1635.34142,0.21533
1637.26989,0.20849
1639.19836,0.19945
1641.12683,0.19762
1643.05530,0.20246
1644.98377,0.21350
1646.91223,0.22298
1648.84070,0.22050
1650.76917,0.22136
1652.69764,0.23112
1654.62611,0.22372
1656.55458,0.20888
1658.48305,0.20433
1660.41152,0.20990
1662.33998,0.21849
1664.26845,0.21443
1666.19692,0.20524
1668.12539,0.20838
1670.05386,0.21796
1671.98233,0.21372
1673.91080,0.20515
1675.83926,0.20038
1677.76773,0.20096
1679.69620,0.20708
1681.62467,0.21699
1683.55314,0.22668
1685.48161,0.22277
1687.41008,0.21282
1689.33855,0.20570
1691.26701,0.20074
1693.19548,0.20181
1695.12395,0.21098
1697.05242,0.22225
1698.98089,0.22749
1700.90936,0.22232
1702.83783,0.21430
1704.76629,0.21068
1706.69476,0.20580
1708.62323,0.19939
1710.55170,0.19565
1712.48017,0.19565
1714.40864,0.20030
1716.33711,0.20739
1718.26558,0.20639
1720.19404,0.20088
1722.12251,0.19867
1724.05098,0.19663
1725.97945,0.19447
1727.90792,0.19560
1729.83639,0.19969
1731.76486,0.20390
1733.69332,0.20173
1735.62179,0.19266
1737.55026,0.18901
1739.47873,0.18938
1741.40720,0.19118
1743.33567,0.19646
1745.26414,0.20389
1747.19261,0.20947
1749.12107,0.21169
1751.04954,0.20851
1752.97801,0.20163
1754.90648,0.19754
1756.83495,0.19705
1758.76342,0.19898
1760.69189,0.20326
1762.62035,0.20277
1764.54882,0.19583
1766.47729,0.19197
1768.40576,0.19396
1770.33423,0.20149
1772.26270,0.20997
1774.19117,0.20649
1776.11964,0.19731
1778.04810,0.19334
1779.97657,0.19416
1781.90504,0.19520
1783.83351,0.19542
1785.76198,0.19435
1787.69045,0.19341
1789.61892,0.19801
1791.54738,0.20813
1793.47585,0.21097
1795.40432,0.20407
1797.33279,0.19892
1799.26126,0.19828
1801.18973,0.19869
1803.11820,0.19759
1805.04666,0.19430
1806.97513,0.19101
1808.90360,0.19165
1810.83207,0.19499
1812.76054,0.19569
1814.68901,0.19550
1816.61748,0.19707
1818.54595,0.19680
1820.47441,0.19471
1822.40288,0.19467
1824.33135,0.19512
1826.25982,0.19500
1828.18829,0.19786
1830.11676,0.19979
1832.04523,0.19566
1833.97369,0.19199
1835.90216,0.19172
1837.83063,0.19137
1839.75910,0.19103
1841.68757,0.19505
1843.61604,0.20092
1845.54451,0.19867
1847.47298,0.19139
1849.40144,0.18754
1851.32991,0.18853
1853.25838,0.19123
1855.18685,0.19203
1857.11532,0.19191
1859.04379,0.19158
1860.97226,0.18970
1862.90072,0.18874
1864.82919,0.19202
1866.75766,0.19809
1868.68613,0.19924
1870.61460,0.19226
1872.54307,0.18659
1874.47154,0.18624
1876.40001,0.18789
1878.32847,0.18864
1880.25694,0.18987
1882.18541,0.19312
1884.11388,0.19710
1886.04235,0.19928
1887.97082,0.19823
1889.89929,0.19562
1891.82775,0.19500
1893.75622,0.19735
1895.68469,0.19920
1897.61316,0.19653
1899.54163,0.19144
1901.47010,0.18802
1903.39857,0.18765
1905.32704,0.19004
1907.25550,0.19238
1909.18397,0.19199
1911.11244,0.19122
1913.04091,0.19244
1914.96938,0.19474
1916.89785,0.19569
1918.82632,0.19313
1920.75478,0.19106
1922.68325,0.19175
1924.61172,0.19072
1926.54019,0.18832
1928.46866,0.18769
1930.39713,0.18675
1932.32560,0.18560
1934.25407,0.18695
1936.18253,0.18859
1938.11100,0.18931
1940.03947,0.19138
1941.96794,0.19386
1943.89641,0.19302
1945.82488,0.18968
1947.75335,0.18844
1949.68181,0.18925
1951.61028,0.18950
1953.53875,0.18976
1955.46722,0.18979
1957.39569,0.18826
1959.32416,0.18720
1961.25263,0.18790
1963.18110,0.18861
1965.10956,0.18925
1967.03803,0.19099
1968.96650,0.19201
1970.89497,0.19104
1972.82344,0.19122
1974.75191,0.19257
1976.68038,0.19221
1978.60884,0.19223
1980.53731,0.19357
1982.46578,0.19394
1984.39425,0.19391
1986.32272,0.19432
1988.25119,0.19418
1990.17966,0.19329
1992.10812,0.19312
1994.03659,0.19509
1995.96506,0.19694
1997.89353,0.19452
1999.82200,0.18936
2001.75047,0.18758
2003.67894,0.18880
2005.60741,0.18817
2007.53587,0.18660
2009.46434,0.18767
2011.39281,0.19033
2013.32128,0.19132
2015.24975,0.19135
2017.17822,0.19331
2019.10669,0.19534
2021.03515,0.19448
2022.96362,0.19182
2024.89209,0.18927
2026.82056,0.18863
2028.74903,0.19044
2030.67750,0.19227
2032.60597,0.19288
2034.53444,0.19329
2036.46290,0.19421
2038.39137,0.19521
2040.31984,0.19372
2042.24831,0.18961
2044.17678,0.18762
2046.10525,0.19010
2048.03372,0.19359
2049.96218,0.19368
2051.89065,0.19270
2053.81912,0.19459
2055.74759,0.19636
2057.67606,0.19649
2059.60453,0.19694
2061.53300,0.19566
2063.46147,0.19197
2065.38993,0.18921
2067.31840,0.18841
2069.24687,0.18957
2071.17534,0.19307
2073.10381,0.19555
2075.03228,0.19448
2076.96075,0.19336
2078.88921,0.19356
2080.81768,0.19322
2082.74615,0.19386
2084.67462,0.19618
2086.60309,0.19672
2088.53156,0.19310
2090.46003,0.18855
2092.38850,0.18749
2094.31696,0.18903
2096.24543,0.19031
2098.17390,0.19085
2100.10237,0.19147
2102.03084,0.19161
2103.95931,0.19087
2105.88778,0.19050
2107.81624,0.18989
2109.74471,0.18838
2111.67318,0.18806
2113.60165,0.19008
2115.53012,0.19235
2117.45859,0.19320
2119.38706,0.19339
2121.31553,0.19276
2123.24399,0.19218
2125.17246,0.19449
2127.10093,0.19770
2129.02940,0.19823
2130.95787,0.19717
2132.88634,0.19514
2134.81481,0.19337
2136.74327,0.19364
2138.67174,0.19465
2140.60021,0.19545
2142.52868,0.19443
2144.45715,0.19197
2146.38562,0.19168
2148.31409,0.19320
2150.24255,0.19412
2152.17102,0.19462
2154.09949,0.19522
2156.02796,0.19586
2157.95643,0.19648
2159.88490,0.19620
2161.81337,0.19477
2163.74184,0.19429
2165.67030,0.19551
2167.59877,0.19559
2169.52724,0.19392
2171.45571,0.19387
2173.38418,0.19591
2175.31265,0.19692
2177.24112,0.19605
2179.16958,0.19510
2181.09805,0.19410
2183.02652,0.19227
2184.95499,0.19183
2186.88346,0.19428
2188.81193,0.19607
2190.74040,0.19376
2192.66887,0.18934
2194.59733,0.18759
2196.52580,0.18979
2198.45427,0.19232
2200.38274,0.19305
2202.31121,0.19195
2204.23968,0.18922
2206.16815,0.18804
2208.09661,0.19066
2210.02508,0.19412
2211.95355,0.19543
2213.88202,0.19471
2215.81049,0.19241
2217.73896,0.19107
2219.66743,0.19253
2221.59590,0.19333
2223.52436,0.19263
2225.45283,0.19245
2227.38130,0.19211
2229.30977,0.19152
2231.23824,0.19131
2233.16671,0.19076
2235.09518,0.18929
2237.02364,0.18789
2238.95211,0.18743
2240.88058,0.18786
2242.80905,0.19010
2244.73752,0.19389
2246.66599,0.19624
2248.59446,0.19599
2250.52293,0.19482
2252.45139,0.19400
2254.37986,0.19469
2256.30833,0.19629
2258.23680,0.19576
2260.16527,0.19331
2262.09374,0.19201
2264.02221,0.19128
2265.95067,0.19050
2267.87914,0.19185
2269.80761,0.19501
2271.73608,0.19722
2273.66455,0.19642
2275.59302,0.19311
2277.52149,0.18982
2279.44996,0.18810
2281.37842,0.18937
2283.30689,0.19255
2285.23536,0.19397
2287.16383,0.19394
2289.09230,0.19305
2291.02077,0.18968
2292.94924,0.18599
2294.87770,0.18421
2296.80617,0.18402
2298.73464,0.18578
2300.66311,0.18958
2302.59158,0.19304
2304.52005,0.19190
2306.44852,0.18725
2308.37699,0.18588
2310.30545,0.18874
2312.23392,0.19040
2314.16239,0.18932
2316.09086,0.18673
2318.01933,0.18357
2319.94780,0.18523
2321.87627,0.18945
2323.80473,0.18485
2325.73320,0.17758
2327.66167,0.17896
2329.59014,0.18274
2331.51861,0.17794
2333.44708,0.16601
2335.37555,0.15347
2337.30401,0.14691
2339.23248,0.16015
2341.16095,0.18651
2343.08942,0.19465
2345.01789,0.18342
2346.94636,0.17832
2348.87483,0.18198
2350.80330,0.18775
2352.73176,0.19181
2354.66023,0.18697
2356.58870,0.16682
2358.51717,0.14983
2360.44564,0.15762
2362.37411,0.17016
2364.30258,0.17605
2366.23104,0.17643
2368.15951,0.17008
2370.08798,0.16639
2372.01645,0.16657
2373.94492,0.17086
2375.87339,0.17732
2377.80186,0.18068
2379.73033,0.18259
2381.65879,0.18602
2383.58726,0.19067
2385.51573,0.19407
2387.44420,0.19317
2389.37267,0.18982
2391.30114,0.18853
2393.22961,0.18891
2395.15807,0.18896
2397.08654,0.18889
2399.01501,0.18944
2400.94348,0.19111
2402.87195,0.19156
2404.80042,0.18908
2406.72889,0.18693
2408.65736,0.18749
2410.58582,0.18869
2412.51429,0.18971
2414.44276,0.19235
2416.37123,0.19534
2418.29970,0.19704
2420.22817,0.19742
2422.15664,0.19566
2424.08510,0.19396
2426.01357,0.19365
2427.94204,0.19277
2429.87051,0.19309
2431.79898,0.19558
2433.72745,0.19642
2435.65592,0.19514
2437.58439,0.19407
2439.51285,0.19299
2441.44132,0.19173
2443.36979,0.19164
2445.29826,0.19319
2447.22673,0.19399
2449.15520,0.19254
2451.08367,0.19036
2453.01213,0.18716
2454.94060,0.18488
2456.86907,0.18811
2458.79754,0.19351
2460.72601,0.19528
2462.65448,0.19529
2464.58295,0.19545
2466.51142,0.19472
2468.43988,0.19353
2470.36835,0.19183
2472.29682,0.19012
2474.22529,0.18961
2476.15376,0.19072
2478.08223,0.19381
2480.01070,0.19624
2481.93916,0.19378
2483.86763,0.18833
2485.79610,0.18600
2487.72457,0.18761
2489.65304,0.19028
2491.58151,0.19301
2493.50998,0.19584
2495.43844,0.19805
2497.36691,0.19862
2499.29538,0.19764
2501.22385,0.19646
2503.15232,0.19703
2505.08079,0.19768
2507.00926,0.19579
2508.93773,0.19389
2510.86619,0.19342
2512.79466,0.19343
2514.72313,0.19395
2516.65160,0.19460
2518.58007,0.19621
2520.50854,0.19891
2522.43701,0.20000
2524.36547,0.19796
2526.29394,0.19383
2528.22241,0.19046
2530.15088,0.19029
2532.07935,0.19197
2534.00782,0.19280
2535.93629,0.19295
2537.86476,0.19320
2539.79322,0.19262
2541.72169,0.19234
2543.65016,0.19418
2545.57863,0.19578
2547.50710,0.19402
2549.43557,0.19076
2551.36404,0.19038
2553.29250,0.19318
2555.22097,0.19598
2557.14944,0.19581
2559.07791,0.19181
2561.00638,0.18766
2562.93485,0.18758
2564.86332,0.19077
2566.79179,0.19412
2568.72025,0.19635
2570.64872,0.19658
2572.57719,0.19483
2574.50566,0.19362
2576.43413,0.19469
2578.36260,0.19700
2580.29107,0.19824
2582.21953,0.19787
2584.14800,0.19657
2586.07647,0.19510
2588.00494,0.19484
2589.93341,0.19490
2591.86188,0.19495
2593.79035,0.19711
2595.71882,0.19971
2597.64728,0.20036
2599.57575,0.20060
2601.50422,0.20019
2603.43269,0.19874
2605.36116,0.19860
2607.28963,0.19815
2609.21810,0.19683
2611.14656,0.19753
2613.07503,0.19865
2615.00350,0.19954
2616.93197,0.20133
2618.86044,0.20128
2620.78891,0.19918
2622.71738,0.19857
2624.64585,0.19972
2626.57431,0.20044
2628.50278,0.20038
2630.43125,0.20088
2632.35972,0.20098
2634.28819,0.19866
2636.21666,0.19672
2638.14513,0.19675
2640.07359,0.19607
2642.00206,0.19569
2643.93053,0.19687
2645.85900,0.19668
2647.78747,0.19537
2649.71594,0.19668
2651.64441,0.19906
2653.57288,0.19896
2655.50134,0.19794
2657.42981,0.19722
2659.35828,0.19815
2661.28675,0.20090
2663.21522,0.20008
2665.14369,0.19603
2667.07216,0.19541
2669.00062,0.19920
2670.92909,0.20221
2672.85756,0.20184
2674.78603,0.20075
2676.71450,0.19941
2678.64297,0.19799
2680.57144,0.19979
2682.49990,0.20346
2684.42837,0.20389
2686.35684,0.20070
2688.28531,0.19801
2690.21378,0.19763
2692.14225,0.19737
2694.07072,0.19779
2695.99919,0.20101
2697.92765,0.20351
2699.85612,0.20292
2701.78459,0.20249
2703.71306,0.20343
2705.64153,0.20528
2707.57000,0.20725
2709.49847,0.20665
2711.42693,0.20452
2713.35540,0.20417
2715.28387,0.20326
2717.21234,0.20105
2719.14081,0.20202
2721.06928,0.20420
2722.99775,0.20323
2724.92622,0.20125
2726.85468,0.20048
2728.78315,0.20117
2730.71162,0.20275
2732.64009,0.20368
2734.56856,0.20298
2736.49703,0.20095
2738.42550,0.20150
2740.35396,0.20512
2742.28243,0.20652
2744.21090,0.20599
2746.13937,0.20579
2748.06784,0.20464
2749.99631,0.20348
2751.92478,0.20321
2753.85325,0.20338
2755.78171,0.20369
2757.71018,0.20302
2759.63865,0.20388
2761.56712,0.20739
2763.49559,0.20699
2765.42406,0.20154
2767.35253,0.20164
2769.28099,0.21219
2771.20946,0.22160
2773.13793,0.21934
2775.06640,0.21029
2776.99487,0.20539
2778.92334,0.20729
2780.85181,0.20906
2782.78028,0.20717
2784.70874,0.20471
2786.63721,0.20427
2788.56568,0.20533
2790.49415,0.20629
2792.42262,0.20686
2794.35109,0.20710
2796.27956,0.20733
2798.20802,0.20764
2800.13649,0.20783
2802.06496,0.20836
2803.99343,0.20791
2805.92190,0.20541
2807.85037,0.20359
2809.77884,0.20538
2811.70731,0.20996
2813.63577,0.21320
2815.56424,0.21375
2817.49271,0.21405
2819.42118,0.21408
2821.34965,0.21336
2823.27812,0.21159
2825.20659,0.20840
2827.13505,0.20605
2829.06352,0.20500
2830.99199,0.20471
2832.92046,0.20621
2834.84893,0.20960
2836.77740,0.21462
2838.70587,0.21816
2840.63433,0.21702
2842.56280,0.21427
2844.49127,0.21288
2846.41974,0.21142
2848.34821,0.20824
2850.27668,0.20532
2852.20515,0.20680
2854.13362,0.21030
2856.06208,0.21095
2857.99055,0.21005
2859.91902,0.20873
2861.84749,0.20658
2863.77596,0.20661
2865.70443,0.21024
2867.63290,0.21321
2869.56136,0.21230
2871.48983,0.20880
2873.41830,0.20513
2875.34677,0.20325
2877.27524,0.20359
2879.20371,0.20519
2881.13218,0.20705
2883.06065,0.20678
2884.98911,0.20439
2886.91758,0.20556
2888.84605,0.21042
2890.77452,0.21225
2892.70299,0.20963
2894.63146,0.20537
2896.55993,0.20243
2898.48839,0.20366
2900.41686,0.20822
2902.34533,0.21115
2904.27380,0.20852
2906.20227,0.20371
2908.13074,0.20190
2910.05921,0.20138
2911.98768,0.20010
2913.91614,0.19710
2915.84461,0.19197
2917.77308,0.19148
2919.70155,0.19724
2921.63002,0.20181
2923.55849,0.20295
2925.48696,0.20082
2927.41542,0.19624
2929.34389,0.19536
2931.27236,0.19965
2933.20083,0.20146
2935.12930,0.19614
2937.05777,0.18960
2938.98624,0.19204
2940.91471,0.20159
2942.84317,0.20611
2944.77164,0.20197
2946.70011,0.19566
2948.62858,0.19614
2950.55705,0.20299
2952.48552,0.20842
2954.41399,0.20667
2956.34245,0.19289
2958.27092,0.18133
2960.19939,0.19093
2962.12786,0.20765
2964.05633,0.20985
2965.98480,0.19951
2967.91327,0.19318
2969.84174,0.19971
2971.77020,0.20742
2973.69867,0.20846
2975.62714,0.20656
2977.55561,0.20070
2979.48408,0.19610
2981.41255,0.20073
2983.34102,0.21003
2985.26948,0.21305
2987.19795,0.20790
2989.12642,0.20686
2991.05489,0.21372
2992.98336,0.22017
2994.91183,0.22275
2996.84030,0.21938
2998.76877,0.21250
3000.69723,0.20964
3002.62570,0.20954
3004.55417,0.20799
3006.48264,0.20560
3008.41111,0.20042
3010.33958,0.18995
3012.26805,0.17197
3014.19651,0.14166
3016.12498,0.11341
3018.05345,0.12203
3019.98192,0.16613
3021.91039,0.20481
3023.83886,0.21946
3025.76733,0.21903
3027.69579,0.21568
3029.62426,0.21641
3031.55273,0.21846
3033.48120,0.21621
3035.40967,0.20977
3037.33814,0.20583
3039.26661,0.21041
3041.19508,0.21846
3043.12354,0.22058
3045.05201,0.21601
3046.98048,0.20929
3048.90895,0.20611
3050.83742,0.20891
3052.76589,0.21193
3054.69436,0.20709
3056.62282,0.19662
3058.55129,0.19598
3060.47976,0.20709
3062.40823,0.21456
3064.33670,0.20957
3066.26517,0.19862
3068.19364,0.19818
3070.12211,0.20776
3072.05057,0.21251
3073.97904,0.20726
3075.90751,0.19965
3077.83598,0.20128
3079.76445,0.20915
3081.69292,0.21072
3083.62139,0.20095
3085.54985,0.19412
3087.47832,0.20528
3089.40679,0.21926
3091.33526,0.21674
3093.26373,0.20113
3095.19220,0.19186
3097.12067,0.19660
3099.04914,0.20178
3100.97760,0.20140
3102.90607,0.19729
3104.83454,0.19621
3106.76301,0.20386
3108.69148,0.21021
3110.61995,0.20475
3112.54842,0.19532
3114.47688,0.19715
3116.40535,0.20513
3118.33382,0.20680
3120.26229,0.20322
3122.19076,0.20189
3124.11923,0.20840
3126.04770,0.21459
3127.97617,0.21059
3129.90463,0.20097
3131.83310,0.19586
3133.76157,0.19874
3135.69004,0.20471
3137.61851,0.20817
3139.54698,0.20829
3141.47545,0.20777
3143.40391,0.20902
3145.33238,0.21339
3147.26085,0.21647
3149.18932,0.21624
3151.11779,0.21796
3153.04626,0.21780
3154.97473,0.21320
3156.90320,0.21272
3158.83166,0.21774
3160.76013,0.22035
3162.68860,0.21706
3164.61707,0.21241
3166.54554,0.21267
3168.47401,0.21726
3170.40248,0.21909
3172.33094,0.21782
3174.25941,0.22038
3176.18788,0.22659
3178.11635,0.22958
3180.04482,0.22662
3181.97329,0.22216
3183.90176,0.22331
3185.83022,0.22768
3187.75869,0.22439
3189.68716,0.21430
3191.61563,0.20897
3193.54410,0.21403
3195.47257,0.22191
3197.40104,0.22229
3199.32951,0.21769
3201.25797,0.21393
3203.18644,0.21172
3205.11491,0.21292
3207.04338,0.21673
3208.97185,0.21941
3210.90032,0.22140
3212.82879,0.22386
3214.75725,0.22383
3216.68572,0.21953
3218.61419,0.21543
3220.54266,0.21445
3222.47113,0.21549
3224.39960,0.21885
3226.32807,0.22275
3228.25654,0.22238
3230.18500,0.21695
3232.11347,0.21392
3234.04194,0.21821
3235.97041,0.22249
3237.89888,0.21957
3239.82735,0.21278
3241.75582,0.20841
3243.68428,0.20796
3245.61275,0.21186
3247.54122,0.21814
3249.46969,0.22112
3251.39816,0.21925
3253.32663,0.21522
3255.25510,0.21258
3257.18357,0.21203
3259.11203,0.21260
3261.04050,0.21770
3262.96897,0.22421
3264.89744,0.22311
3266.82591,0.21786
3268.75438,0.21571
3270.68285,0.21505
3272.61131,0.21306
3274.53978,0.21185
3276.46825,0.21581
3278.39672,0.22167
3280.32519,0.22394
3282.25366,0.22466
3284.18213,0.22469
3286.11060,0.22075
3288.03906,0.21412
3289.96753,0.21027
3291.89600,0.20965
3293.82447,0.20951
3295.75294,0.21201
3297.68141,0.21659
3299.60988,0.21605
3301.53834,0.21156
3303.46681,0.20948
3305.39528,0.21046
3307.32375,0.21388
3309.25222,0.21675
3311.18069,0.21557
3313.10916,0.21043
3315.03763,0.20464
3316.96609,0.20536
3318.89456,0.21404
3320.82303,0.22090
3322.75150,0.21976
3324.67997,0.21638
3326.60844,0.21649
3328.53691,0.21771
3330.46537,0.21624
3332.39384,0.21432
3334.32231,0.21317
3336.25078,0.21064
3338.17925,0.20842
3340.10772,0.21116
3342.03619,0.21789
3343.96466,0.21953
3345.89312,0.21659
3347.82159,0.21935
3349.75006,0.22588
3351.67853,0.22572
3353.60700,0.21964
3355.53547,0.21826
3357.46394,0.22107
3359.39240,0.21939
3361.32087,0.21676
3363.24934,0.21953
3365.17781,0.22314
3367.10628,0.22253
3369.03475,0.22127
3370.96322,0.22403
3372.89168,0.22586
3374.82015,0.22187
3376.74862,0.21703
3378.67709,0.21455
3380.60556,0.21475
3382.53403,0.21837
3384.46250,0.22251
3386.39097,0.22423
3388.31943,0.22512
3390.24790,0.22425
3392.17637,0.21781
3394.10484,0.21134
3396.03331,0.21051
3397.96178,0.21206
3399.89025,0.21310
3401.81871,0.21176
3403.74718,0.20915
3405.67565,0.21042
3407.60412,0.21205
3409.53259,0.20646
3411.46106,0.20067
3413.38953,0.20444
3415.31800,0.21095
3417.24646,0.20970
3419.17493,0.20622
3421.10340,0.20985
3423.03187,0.21446
3424.96034,0.21263
3426.88881,0.20867
3428.81728,0.20927
3430.74574,0.21284
3432.67421,0.21274
3434.60268,0.21141
3436.53115,0.21473
3438.45962,0.21685
3440.38809,0.21146
3442.31656,0.20477
3444.24503,0.20394
3446.17349,0.20882
3448.10196,0.21441
3450.03043,0.21550
3451.95890,0.21108
3453.88737,0.20064
3455.81584,0.18962
3457.74431,0.18817
3459.67277,0.19314
3461.60124,0.19620
3463.52971,0.19878
3465.45818,0.19991
3467.38665,0.19675
3469.31512,0.19382
3471.24359,0.19584
3473.17206,0.20107
3475.10052,0.20145
3477.02899,0.19274
3478.95746,0.18634
3480.88593,0.19352
3482.81440,0.20517
3484.74287,0.20944
3486.67134,0.20634
3488.59980,0.19663
3490.52827,0.18593
3492.45674,0.18138
3494.38521,0.18270
3496.31368,0.18693
3498.24215,0.19112
3500.17062,0.19333
3502.09909,0.19275
3504.02755,0.18797
3505.95602,0.18227
3507.88449,0.18159
3509.81296,0.18527
3511.74143,0.18666
3513.66990,0.18414
3515.59837,0.18170
3517.52683,0.17947
3519.45530,0.17728
3521.38377,0.17750
3523.31224,0.17954
3525.24071,0.18184
3527.16918,0.18401
3529.09765,0.18329
3531.02611,0.17750
3532.95458,0.17075
3534.88305,0.16736
3536.81152,0.16804
3538.73999,0.17042
3540.66846,0.17065
3542.59693,0.17144
3544.52540,0.17729
3546.45386,0.18214
3548.38233,0.18224
3550.31080,0.18445
3552.23927,0.18590
3554.16774,0.17910
3556.09621,0.17027
3558.02468,0.16839
3559.95314,0.17168
3561.88161,0.17276
3563.81008,0.17196
3565.73855,0.17257
3567.66702,0.17260
3569.59549,0.16846
3571.52396,0.16232
3573.45243,0.15966
3575.38089,0.16148
3577.30936,0.16239
3579.23783,0.15727
3581.16630,0.15019
3583.09477,0.15123
3585.02324,0.16257
3586.95171,0.17378
3588.88017,0.17064
3590.80864,0.16482
3592.73711,0.16453
3594.66558,0.16143
3596.59405,0.15555
3598.52252,0.15474
3600.45099,0.15800
3602.37946,0.15873
3604.30792,0.15698
3606.23639,0.15680
3608.16486,0.15594
3610.09333,0.15202
3612.02180,0.14819
3613.95027,0.14706
3615.87874,0.15054
3617.80720,0.15505
3619.73567,0.15574
3621.66414,0.15302
3623.59261,0.14798
3625.52108,0.14627
3627.44955,0.15256
3629.37802,0.15310
3631.30649,0.14571
3633.23495,0.14647
3635.16342,0.14892
3637.09189,0.14705
3639.02036,0.14565
3640.94883,0.14520
3642.87730,0.14160
3644.80577,0.13874
3646.73423,0.14373
3648.66270,0.15228
3650.59117,0.14852
3652.51964,0.14188
3654.44811,0.14054
3656.37658,0.14064
3658.30505,0.13885
3660.23352,0.13760
3662.16198,0.13931
3664.09045,0.14168
3666.01892,0.14106
3667.94739,0.13853
3669.87586,0.13802
3671.80433,0.13902
3673.73280,0.13989
3675.66126,0.14035
3677.58973,0.13796
3679.51820,0.13678
3681.44667,0.13818
3683.37514,0.13921
3685.30361,0.13835
3687.23208,0.13601
3689.16055,0.13441
3691.08901,0.13496
3693.01748,0.13452
3694.94595,0.13204
3696.87442,0.12797
3698.80289,0.12599
3700.73136,0.12839
3702.65983,0.12997
3704.58829,0.12861
3706.51676,0.13041
3708.44523,0.13657
3710.37370,0.14010
3712.30217,0.13674
3714.23064,0.13352
3716.15911,0.13287
3718.08757,0.13530
3720.01604,0.14306
3721.94451,0.15078
3723.87298,0.14711
3725.80145,0.13460
3727.72992,0.12632
3729.65839,0.12818
3731.58686,0.13823
3733.51532,0.15218
3735.44379,0.15874
3737.37226,0.14936
3739.30073,0.14140
3741.22920,0.14230
3743.15767,0.14643
3745.08614,0.15019
3747.01460,0.15311
3748.94307,0.15485
3750.87154,0.14684
3752.80001,0.13385
3754.72848,0.12951
3756.65695,0.12903
3758.58542,0.12970
3760.51389,0.12913
3762.44235,0.12875
3764.37082,0.13285
3766.29929,0.13760
3768.22776,0.13453
3770.15623,0.12484
3772.08470,0.12057
3774.01317,0.12340
3775.94163,0.12716
3777.87010,0.13082
3779.79857,0.13232
3781.72704,0.13211
3783.65551,0.13353
3785.58398,0.13140
3787.51245,0.12749
3789.44092,0.13024
3791.36938,0.13313
3793.29785,0.12959
3795.22632,0.12640
3797.15479,0.12860
3799.08326,0.13379
3801.01173,0.14023
3802.94020,0.14182
3804.86866,0.13699
3806.79713,0.13233
3808.72560,0.13265
3810.65407,0.13201
3812.58254,0.12779
3814.51101,0.12786
3816.43948,0.13383
3818.36795,0.13652
3820.29641,0.13673
3822.22488,0.13640
3824.15335,0.13611
3826.08182,0.13464
3828.01029,0.13012
3829.93876,0.12654
3831.86723,0.12483
3833.79569,0.12295
3835.72416,0.12620
3837.65263,0.13725
3839.58110,0.14227
3841.50957,0.13771
3843.43804,0.13457
3845.36651,0.13157
3847.29498,0.12616
3849.22344,0.12453
3851.15191,0.13104
3853.08038,0.13912
3855.00885,0.13315
3856.93732,0.12644
3858.86579,0.13007
3860.79426,0.13966
3862.72272,0.14198
3864.65119,0.13270
3866.57966,0.12751
3868.50813,0.12995
3870.43660,0.13171
3872.36507,0.13294
3874.29354,0.13456
3876.22200,0.13084
3878.15047,0.12976
3880.07894,0.13851
3882.00741,0.14407
3883.93588,0.14038
3885.86435,0.13362
3887.79282,0.12807
3889.72129,0.12657
3891.64975,0.12543
3893.57822,0.12235
3895.50669,0.12052
3897.43516,0.12124
3899.36363,0.12344
3901.29210,0.12508
3903.22057,0.12534
3905.14903,0.12153
3907.07750,0.11610
3909.00597,0.11553
3910.93444,0.11735
3912.86291,0.11454
3914.79138,0.11133
3916.71985,0.11379
3918.64832,0.11468
3920.57678,0.11314
3922.50525,0.11575
3924.43372,0.11834
3926.36219,0.11735
3928.29066,0.11895
3930.21913,0.12195
3932.14760,0.11870
3934.07606,0.11310
3936.00453,0.11171
3937.93300,0.11414
3939.86147,0.11907
3941.78994,0.12185
3943.71841,0.11911
3945.64688,0.11672
3947.57535,0.11804
3949.50381,0.11940
3951.43228,0.11840
3953.36075,0.11514
3955.28922,0.11134
3957.21769,0.10844
3959.14616,0.10728
3961.07463,0.10907
3963.00309,0.11125
3964.93156,0.11259
3966.86003,0.11550
3968.78850,0.11729
3970.71697,0.11327
3972.64544,0.10759
3974.57391,0.10653
3976.50238,0.10788
3978.43084,0.11021
3980.35931,0.11370
3982.28778,0.11378
3984.21625,0.11071
3986.14472,0.11053
3988.07319,0.11311
3990.00166,0.11262
3991.93012,0.10687
3993.85859,0.09829
3995.78706,0.09269
3997.71553,0.09512
3999.64400,0.10068
4001.57247,0.10116
4003.50094,0.09741
4005.42941,0.09721
4007.35787,0.10307
4009.28634,0.10909
4011.21481,0.11187
4013.14328,0.11158
4015.07175,0.10740
4017.00022,0.10179
4018.92869,0.09756
4020.85715,0.09331
4022.78562,0.09036
4024.71409,0.09270
4026.64256,0.09811
4028.57103,0.10294
4030.49950,0.10570
4032.42797,0.10406
4034.35644,0.10407
4036.28490,0.11137
4038.21337,0.11653
4040.14184,0.11241
4042.07031,0.10733
4043.99878,0.10930
4045.92725,0.11373
4047.85572,0.11350
4049.78418,0.10835
4051.71265,0.10220
4053.64112,0.09591
4055.56959,0.09019
4057.49806,0.08887
4059.42653,0.08988
4061.35500,0.09376
4063.28346,0.10296
4065.21193,0.10874
4067.14040,0.10554
4069.06887,0.09852
4070.99734,0.09303
4072.92581,0.09088
4074.85428,0.09198
4076.78275,0.09395
4078.71121,0.09568
4080.63968,0.09820
4082.56815,0.09918
4084.49662,0.09575
4086.42509,0.08940
4088.35356,0.08692
4090.28203,0.08944
4092.21049,0.08953
4094.13896,0.08987
4096.06743,0.09626
4097.99590,0.10129
4099.92437,0.09978
4101.85284,0.09636
4103.78131,0.09360
4105.70978,0.09073
4107.63824,0.08683
4109.56671,0.08435
4111.49518,0.08644
4113.42365,0.08803
4115.35212,0.08731
4117.28059,0.08837
4119.20906,0.08858
4121.13752,0.08621
4123.06599,0.08273
4124.99446,0.08067
4126.92293,0.08369
4128.85140,0.08752
4130.77987,0.08608
4132.70834,0.08367
4134.63681,0.08762
4136.56527,0.09606
4138.49374,0.10293
4140.42221,0.10528
4142.35068,0.10009
4144.27915,0.08900
4146.20762,0.08087
4148.13609,0.08096
4150.06455,0.08460
4151.99302,0.08784
4153.92149,0.09140
4155.84996,0.09159
4157.77843,0.08640
4159.70690,0.08118
4161.63537,0.07864
4163.56384,0.07606
4165.49230,0.07289
4167.42077,0.07301
4169.34924,0.07584
4171.27771,0.07718
4173.20618,0.07849
4175.13465,0.08302
4177.06312,0.08862
4178.99158,0.09033
4180.92005,0.08788
4182.84852,0.08412
4184.77699,0.08138
4186.70546,0.08012
4188.63393,0.07732
4190.56240,0.07563
4192.49087,0.07968
4194.41933,0.08281
4196.34780,0.07883
4198.27627,0.07378
4200.20474,0.07422
4202.13321,0.07509
4204.06168,0.07407
4205.99015,0.07734
4207.91861,0.08193
4209.84708,0.07950
4211.77555,0.06985
4213.70402,0.06034
4215.63249,0.05959
4217.56096,0.06637
4219.48943,0.07104
4221.41789,0.07067
4223.34636,0.06987
4225.27483,0.07171
4227.20330,0.07502
4229.13177,0.07372
4231.06024,0.06631
4232.98871,0.06268
4234.91718,0.06711
4236.84564,0.07214
4238.77411,0.07371
4240.70258,0.07529
4242.63105,0.07466
4244.55952,0.06905
4246.48799,0.07020
4248.41646,0.08340
4250.34492,0.09474
4252.27339,0.09170
4254.20186,0.07747
4256.13033,0.06689
4258.05880,0.06401
4259.98727,0.06198
4261.91574,0.06064
4263.84421,0.06068
4265.77267,0.05800
4267.70114,0.05466
4269.62961,0.05635
4271.55808,0.05778
4273.48655,0.05728
4275.41502,0.06151
4277.34349,0.06727
4279.27195,0.06859
4281.20042,0.06745
4283.12889,0.06650
4285.05736,0.06043
4286.98583,0.05125
4288.91430,0.05157
4290.84277,0.06021
4292.77124,0.06672
4294.69970,0.06606
4296.62817,0.06247
4298.55664,0.06299
4300.48511,0.06309
4302.41358,0.05775
4304.34205,0.05492
4306.27052,0.05736
4308.19898,0.05862
4310.12745,0.05826
4312.05592,0.05481
4313.98439,0.05080
4315.91286,0.05239
4317.84133,0.05329
4319.76980,0.04975
4321.69827,0.04748
4323.62673,0.05029
4325.55520,0.05362
4327.48367,0.04989
4329.41214,0.04454
4331.34061,0.04652
4333.26908,0.05281
4335.19755,0.05571
4337.12601,0.04895
4339.05448,0.03889
4340.98295,0.04341
4342.91142,0.05734
4344.83989,0.06105
4346.76836,0.05854
4348.69683,0.05639
4350.62530,0.05135
4352.55376,0.04957
4354.48223,0.05059
4356.41070,0.04267
4358.33917,0.03298
4360.26764,0.03538
4362.19611,0.04274
4364.12458,0.04620
4366.05304,0.04824
4367.98151,0.04855
4369.90998,0.04580
4371.83845,0.04336
4373.76692,0.04004
4375.69539,0.03521
4377.62386,0.03489
4379.55232,0.03913
4381.48079,0.04147
4383.40926,0.04126
4385.33773,0.04272
4387.26620,0.04282
4389.19467,0.03901
4391.12314,0.03685
4393.05161,0.03636
4394.98007,0.03620
4396.90854,0.04003
4398.83701,0.04588
4400.76548,0.04639
4402.69395,0.04113
4404.62242,0.03950
4406.55089,0.04324
4408.47935,0.04358
4410.40782,0.03851
4412.33629,0.03345
4414.26476,0.03272
4416.19323,0.03478
4418.12170,0.03241
4420.05017,0.02437
4421.97864,0.01890
4423.90710,0.02241
4425.83557,0.02932
4427.76404,0.03075
4429.69251,0.03001
4431.62098,0.03063
4433.54945,0.02864
4435.47792,0.02686
4437.40638,0.03096
4439.33485,0.04025
4441.26332,0.04724
4443.19179,0.04026
4445.12026,0.02377
4447.04873,0.01724
4448.97720,0.02273
4450.90567,0.02843
4452.83413,0.03059
4454.76260,0.03044
4456.69107,0.02878
4458.61954,0.02939
4460.54801,0.02961
4462.47648,0.02106
4464.40495,0.01349
4466.33341,0.02282
4468.26188,0.04003
4470.19035,0.04297
4472.11882,0.02939
4474.04729,0.01625
4475.97576,0.01416
4477.90423,0.02067
4479.83270,0.02895
4481.76116,0.03578
4483.68963,0.03990
4485.61810,0.03965
4487.54657,0.03230
4489.47504,0.01542
4491.40351,0.00232
4493.33198,0.00675
4495.26044,0.01813
4497.18891,0.02700
4499.11738,0.03298
4501.04585,0.03276
4502.97432,0.02648
4504.90279,0.01921
4506.83126,0.01689
4508.75973,0.01900
4510.68819,0.02097
4512.61666,0.02250
4514.54513,0.02503
4516.47360,0.02957
4518.40207,0.03138
4520.33054,0.02621
4522.25901,0.02129
4524.18747,0.01961
4526.11594,0.01915
4528.04441,0.02375
4529.97288,0.02679
4531.90135,0.02227
4533.82982,0.02437
4535.75829,0.03394
4537.68676,0.03267
4539.61522,0.01992
4541.54369,0.01030
4543.47216,0.00949
4545.40063,0.01212
4547.32910,0.01196
4549.25757,0.01039
4551.18604,0.01300
4553.11450,0.01999
4555.04297,0.02665
4556.97144,0.02898
4558.89991,0.02744
4560.82838,0.02526
4562.75685,0.02536
4564.68532,0.02741
4566.61378,0.02492
4568.54225,0.01643
4570.47072,0.00759
4572.39919,0.00453
4574.32766,0.00994
4576.25613,0.02117
4578.18460,0.03181
4580.11307,0.02813
4582.04153,0.01410
4583.97000,0.01201
4585.89847,0.02070
4587.82694,0.02633
4589.75541,0.02422
4591.68388,0.01433
4593.61235,0.00424
4595.54081,0.00387
4597.46928,0.00986
4599.39775,0.01322
4601.32622,0.01514
4603.25469,0.01686
4605.18316,0.01590
4607.11163,0.01776
4609.04010,0.02622
4610.96856,0.03211
4612.89703,0.02466
4614.82550,0.00786
4616.75397,-0.00084
4618.68244,0.00126
4620.61091,0.00248
4622.53938,0.00681
4624.46784,0.01401
4626.39631,0.01298
4628.32478,0.01076
4630.25325,0.01277
4632.18172,0.01248
4634.11019,0.01292
4636.03866,0.01309
4637.96713,0.00728
4639.89559,0.00330
4641.82406,0.00468
4643.75253,0.00414
4645.68100,0.00294
4647.60947,0.00625
4649.53794,0.01011
4651.46641,0.01103
4653.39487,0.01051
4655.32334,0.00889
4657.25181,0.00789
4659.18028,0.00867
4661.10875,0.01108
4663.03722,0.01606
4664.96569,0.02075
4666.89416,0.01921
4668.82262,0.01186
4670.75109,0.00768
4672.67956,0.01022
4674.60803,0.01280
4676.53650,0.01246
4678.46497,0.01402
4680.39344,0.01866
4682.32190,0.02123
4684.25037,0.02154
4686.17884,0.02284
4688.10731,0.01832
4690.03578,0.00523
4691.96425,-0.00437
4693.89272,-0.00470
4695.82119,0.00071
4697.74965,0.00585
4699.67812,0.01056
4701.60659,0.01797
4703.53506,0.01532
4705.46353,0.00053
4707.39200,-0.00564
4709.32047,0.00514
4711.24893,0.01885
4713.17740,0.02045
4715.10587,0.01549
4717.03434,0.01217
4718.96281,0.00945
4720.89128,0.01135
4722.81975,0.01661
4724.74821,0.01897
4726.67668,0.02311
4728.60515,0.02883
4730.53362,0.02600
4732.46209,0.01909
4734.39056,0.01572
4736.31903,0.01031
4738.24750,0.00662
4740.17596,0.00768
4742.10443,0.00176
4744.03290,-0.00612
4745.96137,-0.00428
4747.88984,0.00034
4749.81831,0.00148
4751.74678,0.00031
4753.67524,0.00146
4755.60371,0.00792
4757.53218,0.01159
4759.46065,0.00805
4761.38912,0.00402
4763.31759,0.00366
4765.24606,0.00912
4767.17453,0.01572
4769.10299,0.01210
4771.03146,0.00871
4772.95993,0.01491
4774.88840,0.01529
4776.81687,0.00939
4778.74534,0.00780
4780.67381,0.00789
4782.60227,0.00675
4784.53074,0.00567
4786.45921,0.00394
4788.38768,-0.00005
4790.31615,-0.00775
4792.24462,-0.01822
4794.17309,-0.01976
4796.10156,-0.00817
4798.03002,-0.00325
4799.95849,-0.00690
4801.88696,0.00111
4803.81543,0.01333
4805.74390,0.01006
4807.67237,0.00358
4809.60084,0.00879
4811.52930,0.01260
4813.45777,0.00420
4815.38624,-0.00428
4817.31471,0.00274
4819.24318,0.01745
4821.17165,0.01582
4823.10012,-0.00258
4825.02859,-0.01082
4826.95705,0.00285
4828.88552,0.01694
4830.81399,0.01259
4832.74246,-0.00296
4834.67093,-0.01373
4836.59940,-0.00433
4838.52787,0.02187
4840.45633,0.03532
4842.38480,0.02663
4844.31327,0.01965
4846.24174,0.02059
4848.17021,0.01339
4850.09868,0.00862
4852.02715,0.02399
4853.95562,0.03878
4855.88408,0.03068
4857.81255,0.01072
4859.74102,-0.00267
4861.66949,-0.00362
4863.59796,0.00685
4865.52643,0.01481
4867.45490,0.01123
4869.38336,0.00868
4871.31183,0.00558
4873.24030,-0.00695
4875.16877,-0.01737
4877.09724,-0.01982
4879.02571,-0.02214
4880.95418,-0.02194
4882.88265,-0.01163
4884.81111,0.00345
4886.73958,0.01559
4888.66805,0.02032
4890.59652,0.01530
4892.52499,0.00625
4894.45346,0.00657
4896.38193,0.02421
4898.31039,0.04292
4900.23886,0.04591
4902.16733,0.03736
4904.09580,0.02462
4906.02427,0.01397
4907.95274,0.00933
4909.88121,0.01157
4911.80967,0.01713
4913.73814,0.02393
4915.66661,0.03050
4917.59508,0.02466
4919.52355,0.00853
4921.45202,0.00248
4923.38049,0.00792
4925.30896,0.01416
4927.23742,0.01817
4929.16589,0.01852
4931.09436,0.01486
4933.02283,0.00593
4934.95130,-0.00148
4936.87977,0.00222
4938.80824,0.00338
4940.73670,-0.00424
4942.66517,-0.00147
4944.59364,0.00461
4946.52211,-0.00497
4948.45058,-0.01347
4950.37905,-0.00777
4952.30752,0.00022
4954.23599,-0.00051
4956.16445,-0.00589
4958.09292,-0.00337
4960.02139,0.00208
4961.94986,0.00427
4963.87833,0.01149
4965.80680,0.02069
4967.73527,0.01816
4969.66373,0.01059
4971.59220,0.01636
4973.52067,0.02492
4975.44914,0.02881
4977.37761,0.03824
4979.30608,0.03851
4981.23455,0.02255
4983.16302,0.01456
4985.09148,0.02708
4987.01995,0.04263
4988.94842,0.04537
4990.87689,0.03810
4992.80536,0.02702
4994.73383,0.02709
4996.66230,0.03987
4998.59076,0.03349
5000.51923,0.00166
5002.44770,-0.02098
5004.37617,-0.01045
5006.30464,0.01742
5008.23311,0.03162
5010.16158,0.02243
5012.09005,0.00537
5014.01851,-0.00061
5015.94698,0.00736
5017.87545,0.01440
5019.80392,0.00844
5021.73239,0.00217
5023.66086,0.00892
5025.58933,0.01976
5027.51779,0.02598
5029.44626,0.02157
5031.37473,0.00725
5033.30320,0.00254
5035.23167,0.00913
5037.16014,0.00457
5039.08861,-0.00687
5041.01708,-0.00264
5042.94554,0.01349
5044.87401,0.02592
5046.80248,0.02574
5048.73095,0.01939
5050.65942,0.02377
5052.58789,0.03232
5054.51636,0.02745
5056.44482,0.02004
5058.37329,0.03035
5060.30176,0.04620
5062.23023,0.04832
5064.15870,0.04242
5066.08717,0.03542
5068.01564,0.02389
5069.94410,0.00789
5071.87257,0.00399
5073.80104,0.01576
5075.72951,0.02442
5077.65798,0.03105
5079.58645,0.04254
5081.51492,0.04437
5083.44339,0.03081
5085.37185,0.02386
5087.30032,0.03059
5089.22879,0.03133
5091.15726,0.02355
5093.08573,0.01645
5095.01420,0.01698
5096.94267,0.02408
5098.87113,0.02290
5100.79960,0.01282
5102.72807,0.00643
5104.65654,0.00643
5106.58501,0.00626
5108.51348,0.00107
5110.44195,-0.00494
5112.37042,-0.00103
5114.29888,0.01423
5116.22735,0.02756
5118.15582,0.03113
5120.08429,0.03069
5122.01276,0.03679
5123.94123,0.04546
5125.86970,0.04077
5127.79816,0.02979
5129.72663,0.02470
5131.65510,0.01251
5133.58357,-0.00710
5135.51204,-0.01607
5137.44051,-0.00518
5139.36898,0.01895
5141.29745,0.03154
5143.22591,0.02681
5145.15438,0.02238
5147.08285,0.01641
5149.01132,0.01070
5150.93979,0.02211
5152.86826,0.03503
5154.79673,0.02276
5156.72519,0.00694
5158.65366,0.01801
5160.58213,0.03502
5162.51060,0.03445
5164.43907,0.02749
5166.36754,0.02500
5168.29601,0.02692
5170.22448,0.03525
5172.15294,0.04097
5174.08141,0.04514
5176.00988,0.05756
5177.93835,0.06065
5179.86682,0.04734
5181.79529,0.04186
5183.72376,0.04119
5185.65222,0.02792
5187.58069,0.01953
5189.50916,0.02356
5191.43763,0.03256
5193.36610,0.04766
5195.29457,0.05257
5197.22304,0.04125
5199.15151,0.03792
5201.07997,0.04579
5203.00844,0.04603
5204.93691,0.03727
5206.86538,0.02916
5208.79385,0.02245
5210.72232,0.01637
5212.65079,0.01907
5214.57925,0.03452
5216.50772,0.05336
5218.43619,0.06463
5220.36466,0.07005
5222.29313,0.07991
5224.22160,0.08582
5226.15007,0.06719
5228.07854,0.03564
5230.00700,0.02411
5231.93547,0.03980
5233.86394,0.05695
5235.79241,0.05698
5237.72088,0.04529
5239.64935,0.02459
5241.57782,0.00854
5243.50628,0.01617
5245.43475,0.03195
5247.36322,0.03840
5249.29169,0.04471
5251.22016,0.04976
5253.14863,0.04996
5255.07710,0.05490
5257.00556,0.06835
5258.93403,0.06789
5260.86250,0.04023
5262.79097,0.01591
5264.71944,0.02223
5266.64791,0.04458
5268.57638,0.05908
5270.50485,0.05689
5272.43331,0.04787
5274.36178,0.04433
5276.29025,0.04858
5278.21872,0.05628
5280.14719,0.05514
5282.07566,0.04456
5284.00413,0.04336
5285.93259,0.06779
5287.86106,0.10453
5289.78953,0.11709
5291.71800,0.10956
5293.64647,0.10853
5295.57494,0.09840
5297.50341,0.07395
5299.43188,0.05472
5301.36034,0.04951
5303.28881,0.05566
5305.21728,0.06641
5307.14575,0.07105
5309.07422,0.06677
5311.00269,0.05562
5312.93116,0.04005
5314.85962,0.03497
5316.78809,0.04185
5318.71656,0.04797
5320.64503,0.04681
5322.57350,0.04076
5324.50197,0.04428
5326.43044,0.06326
5328.35891,0.08183
5330.28737,0.08724
5332.21584,0.09579
5334.14431,0.10954
5336.07278,0.10596
5338.00125,0.08680
5339.92972,0.06341
5341.85819,0.04314
5343.78665,0.03137
5345.71512,0.01945
5347.64359,0.00706
5349.57206,0.00146
5351.50053,0.00654
5353.42900,0.02915
5355.35747,0.05517
5357.28594,0.08495
5359.21440,0.11910
5361.14287,0.12055
5363.07134,0.08646
5364.99981,0.05138
5366.92828,0.03829
5368.85675,0.05167
5370.78522,0.06743
5372.71368,0.06587
5374.64215,0.07538
5376.57062,0.10600
5378.49909,0.11058
5380.42756,0.08403
5382.35603,0.05574
5384.28450,0.05081
5386.21297,0.06014
5388.14143,0.06735
5390.06990,0.08306
5391.99837,0.08996
5393.92684,0.07250
5395.85531,0.05519
5397.78378,0.05582
5399.71225,0.06196
5401.64071,0.06099
5403.56918,0.05749
5405.49765,0.06919
5407.42612,0.09479
5409.35459,0.10495
5411.28306,0.09437
5413.21153,0.08665
5415.13999,0.08337
5417.06846,0.06422
5418.99693,0.04136
5420.92540,0.03579
5422.85387,0.03232
5424.78234,0.02954
5426.71081,0.04936
5428.63928,0.07807
5430.56774,0.08265
5432.49621,0.07018
5434.42468,0.05660
5436.35315,0.05580
5438.28162,0.07383
5440.21009,0.09505
5442.13856,0.11072
5444.06702,0.11328
5445.99549,0.09785
5447.92396,0.08766
5449.85243,0.09264
5451.78090,0.09106
5453.70937,0.07927
5455.63784,0.07067
5457.56631,0.07488
5459.49477,0.09137
5461.42324,0.10349
5463.35171,0.09955
5465.28018,0.08977
5467.20865,0.07686
5469.13712,0.05990
5471.06559,0.05727
5472.99405,0.06539
5474.92252,0.07129
5476.85099,0.08824
5478.77946,0.10572
5480.70793,0.11180
5482.63640,0.12139
5484.56487,0.11303
5486.49334,0.06412
5488.42180,0.03006
5490.35027,0.04980
5492.27874,0.07657
5494.20721,0.07705
5496.13568,0.06743
5498.06415,0.05299
5499.99262,0.02779
5501.92108,0.01122
5503.84955,0.02166
5505.77802,0.04960
5507.70649,0.07799
5509.63496,0.09922
5511.56343,0.11342
5513.49190,0.10834
5515.42037,0.08826
5517.34883,0.07493
5519.27730,0.07088
5521.20577,0.06627
5523.13424,0.05769
5525.06271,0.06605
5526.99118,0.09267
5528.91965,0.10615
5530.84811,0.10853
5532.77658,0.11187
5534.70505,0.09948
5536.63352,0.08112
5538.56199,0.09395
5540.49046,0.12899
5542.41893,0.13783
5544.34740,0.11406
5546.27586,0.09188
5548.20433,0.08402
5550.13280,0.08585
5552.06127,0.08789
5553.98974,0.08666
5555.91821,0.09165
5557.84668,0.08591
5559.77514,0.05404
5561.70361,0.02632
5563.63208,0.02510
5565.56055,0.04423
5567.48902,0.06653
5569.41749,0.07863
5571.34596,0.08883
5573.27443,0.10645
5575.20289,0.13100
5577.13136,0.13992
5579.05983,0.12063
5580.98830,0.10636
5582.91677,0.11120
5584.84524,0.11537
5586.77371,0.11914
5588.70217,0.12213
5590.63064,0.11296
5592.55911,0.08971
5594.48758,0.07240
5596.41605,0.08691
5598.34452,0.10147
5600.27299,0.07375
5602.20145,0.05127
5604.12992,0.06830
5606.05839,0.08726
5607.98686,0.09475
5609.91533,0.11327
5611.84380,0.14210
5613.77227,0.14153
5615.70074,0.11172
5617.62920,0.09408
5619.55767,0.08166
5621.48614,0.06722
5623.41461,0.06591
5625.34308,0.05983
5627.27155,0.05139
5629.20002,0.04662
5631.12848,0.03159
5633.05695,0.02807
5634.98542,0.04595
5636.91389,0.05618
5638.84236,0.03816
5640.77083,0.01594
5642.69930,0.02151
5644.62777,0.05999
5646.55623,0.11816
5648.48470,0.14519
5650.41317,0.12123
5652.34164,0.08690
5654.27011,0.06087
5656.19858,0.04763
5658.12705,0.05079
5660.05551,0.05810
5661.98398,0.06986
5663.91245,0.08144
5665.84092,0.07461
5667.76939,0.06072
5669.69786,0.05353
5671.62633,0.05475
5673.55480,0.07376
5675.48326,0.11096
5677.41173,0.13705
5679.34020,0.11578
5681.26867,0.07199
5683.19714,0.06754
5685.12561,0.09921
5687.05408,0.10487
5688.98254,0.07945
5690.91101,0.07344
5692.83948,0.08620
5694.76795,0.09669
5696.69642,0.10108
5698.62489,0.09478
5700.55336,0.09646
5702.48183,0.10811
5704.41029,0.08972
5706.33876,0.05519
5708.26723,0.04503
5710.19570,0.05142
5712.12417,0.06575
5714.05264,0.08222
5715.98111,0.09756
5717.90957,0.10432
5719.83804,0.09032
5721.76651,0.07586
5723.69498,0.06828
5725.62345,0.07165
5727.55192,0.09237
5729.48039,0.10351
5731.40886,0.09568
5733.33732,0.09217
5735.26579,0.09569
5737.19426,0.08281
5739.12273,0.07027
5741.05120,0.10290
5742.97967,0.14278
5744.90814,0.12910
5746.83660,0.09560
5748.76507,0.07703
5750.69354,0.06760
5752.62201,0.08444
5754.55048,0.09021
5756.47895,0.05017
5758.40742,0.02334
5760.33588,0.04933
5762.26435,0.09706
5764.19282,0.12164
5766.12129,0.13641
5768.04976,0.16482
5769.97823,0.16813
5771.90670,0.14312
5773.83517,0.12559
5775.76363,0.09724
5777.69210,0.06694
5779.62057,0.07991
5781.54904,0.11482
5783.47751,0.11602
5785.40598,0.08848
5787.33445,0.07459
5789.26291,0.05921
5791.19138,0.04490
5793.11985,0.06296
5795.04832,0.07498
5796.97679,0.07566
5798.90526,0.09179
5800.83373,0.10023
5802.76220,0.09192
5804.69066,0.08390
5806.61913,0.07914
5808.54760,0.06423
5810.47607,0.04351
5812.40454,0.02761
5814.33301,0.02347
5816.26148,0.04794
5818.18994,0.08702
5820.11841,0.10081
5822.04688,0.09093
5823.97535,0.08877
5825.90382,0.08578
5827.83229,0.07757
5829.76076,0.08226
5831.68923,0.09349
5833.61769,0.09801
5835.54616,0.09202
5837.47463,0.09941
5839.40310,0.11991
5841.33157,0.13144
5843.26004,0.14051
5845.18851,0.12590
5847.11697,0.09964
5849.04544,0.11761
5850.97391,0.14576
5852.90238,0.12034
5854.83085,0.07145
5856.75932,0.05560
5858.68779,0.06654
5860.61626,0.06193
5862.54472,0.04462
5864.47319,0.05667
5866.40166,0.09207
5868.33013,0.09845
5870.25860,0.06481
5872.18707,0.02844
5874.11554,0.01001
5876.04400,0.00342
5877.97247,0.01504
5879.90094,0.04797
5881.82941,0.07962
5883.75788,0.09454
5885.68635,0.09629
5887.61482,0.10089
5889.54329,0.10479
5891.47175,0.08901
5893.40022,0.07205
5895.32869,0.06180
5897.25716,0.04446
5899.18563,0.03471
5901.11410,0.04518
5903.04257,0.06513
5904.97103,0.07956
5906.89950,0.10297
5908.82797,0.13781
5910.75644,0.13055
5912.68491,0.06908
5914.61338,0.01875
5916.54185,0.02056
5918.47032,0.05981
5920.39878,0.11224
5922.32725,0.14638
5924.25572,0.15466
5926.18419,0.15420
5928.11266,0.15660
5930.04113,0.15618
5931.96960,0.12470
5933.89806,0.08038
5935.82653,0.07536
5937.75500,0.09022
5939.68347,0.07412
5941.61194,0.03882
5943.54041,0.04275
5945.46888,0.08901
5947.39734,0.11933
5949.32581,0.10784
5951.25428,0.08154
5953.18275,0.06387
5955.11122,0.05407
5957.03969,0.04574
5958.96816,0.04330
5960.89663,0.05338
5962.82509,0.07561
5964.75356,0.09748
5966.68203,0.10541
5968.61050,0.12222
5970.53897,0.14804
5972.46744,0.12700
5974.39591,0.05688
5976.32437,0.02050
5978.25284,0.04726
5980.18131,0.08435
5982.10978,0.12148
5984.03825,0.17590
5985.96672,0.20001
5987.89519,0.15301
5989.82366,0.07982
5991.75212,0.03341
5993.68059,0.03169
5995.60906,0.06747
5997.53753,0.10254
5999.46600,0.12652
6001.39447,0.14652
6003.32294,0.14492
6005.25140,0.12768
6007.17987,0.12719
6009.10834,0.13511
6011.03681,0.12293
6012.96528,0.09751
6014.89375,0.08094
6016.82222,0.07456
6018.75069,0.07130
6020.67915,0.08940
6022.60762,0.11652
6024.53609,0.09931
6026.46456,0.05765
6028.39303,0.04077
6030.32150,0.03255
6032.24997,0.02908
6034.17843,0.03707
6036.10690,0.01045
6038.03537,-0.03774
6039.96384,-0.03149
6041.89231,0.03329
6043.82078,0.08324
6045.74925,0.07581
6047.67772,0.05368
6049.60618,0.04690
6051.53465,0.04830
6053.46312,0.06645
6055.39159,0.09786
6057.32006,0.09998
6059.24853,0.06858
6061.17700,0.07818
6063.10546,0.12054
6065.03393,0.10293
6066.96240,0.06594
6068.89087,0.05219
6070.81934,0.02147
6072.74781,0.00137
6074.67628,0.01552
6076.60475,0.00474
6078.53321,-0.01530
6080.46168,0.01404
6082.39015,0.03085
6084.31862,-0.00462
6086.24709,-0.01639
6088.17556,0.02091
6090.10403,0.06406
6092.03249,0.08206
6093.96096,0.06409
6095.88943,0.06023
6097.81790,0.10349
6099.74637,0.12475
6101.67484,0.09973
6103.60331,0.10250
6105.53177,0.10847
6107.46024,0.04977
6109.38871,-0.00960
6111.31718,0.01933
6113.24565,0.10721
6115.17412,0.14623
6117.10259,0.09537
6119.03106,0.04873
6120.95952,0.05133
6122.88799,0.03343
6124.81646,-0.00249
6126.74493,-0.00741
6128.67340,0.02070
6130.60187,0.05247
6132.53034,0.07810
6134.45880,0.11897
6136.38727,0.16060
6138.31574,0.14298
6140.24421,0.06294
6142.17268,0.00997
6144.10115,0.06352
6146.02962,0.15357
6147.95809,0.17286
6149.88655,0.13103
6151.81502,0.08872
6153.74349,0.07871
6155.67196,0.08713
6157.60043,0.09151
6159.52890,0.07113
6161.45737,0.01410
6163.38583,-0.04784
6165.31430,-0.08722
6167.24277,-0.08238
6169.17124,-0.03147
6171.09971,0.00934
6173.02818,0.01067
6174.95665,0.01684
6176.88512,0.05554
6178.81358,0.11642
6180.74205,0.15698
6182.67052,0.13153
6184.59899,0.10146
6186.52746,0.13186
6188.45593,0.16161
6190.38440,0.14933
6192.31286,0.14299
6194.24133,0.14224
6196.16980,0.12034
6198.09827,0.08814
6200.02674,0.04698
6201.95521,0.02631
6203.88368,0.07209
6205.81215,0.13922
6207.74061,0.18249
6209.66908,0.19016
6211.59755,0.13853
6213.52602,0.08006
6215.45449,0.06089
6217.38296,0.05255
6219.31143,0.04238
6221.23989,0.05564
6223.16836,0.10155
6225.09683,0.15648
6227.02530,0.17735
6228.95377,0.14556
6230.88224,0.09306
6232.81071,0.06479
6234.73918,0.05922
6236.66764,0.07069
6238.59611,0.10670
6240.52458,0.11551
6242.45305,0.06574
6244.38152,0.03926
6246.30999,0.08072
6248.23846,0.13374
6250.16692,0.14763
6252.09539,0.10006
6254.02386,0.04078
6255.95233,0.03746
6257.88080,0.05707
6259.80927,0.02502
6261.73774,-0.03411
6263.66621,-0.04075
6265.59467,0.00059
6267.52314,0.04742
6269.45161,0.08666
6271.38008,0.09149
6273.30855,0.05228
6275.23702,0.01692
6277.16549,0.02353
6279.09395,0.02493
6281.02242,0.03190
6282.95089,0.08729
6284.87936,0.12991
6286.80783,0.12436
6288.73630,0.10981
6290.66477,0.10694
6292.59323,0.09429
6294.52170,0.05870
6296.45017,0.02430
6298.37864,0.01205
6300.30711,0.04914
6302.23558,0.13167
6304.16405,0.16369
6306.09252,0.11071
6308.02098,0.07217
6309.94945,0.12711
6311.87792,0.21436
6313.80639,0.25440
6315.73486,0.24974
6317.66333,0.20043
6319.59180,0.11106
6321.52026,0.06583
6323.44873,0.13080
6325.37720,0.20276
6327.30567,0.18996
6329.23414,0.15318
6331.16261,0.17066
6333.09108,0.20866
6335.01955,0.19492
6336.94801,0.15967
6338.87648,0.15111
6340.80495,0.12388
6342.73342,0.04340
6344.66189,-0.02604
6346.59036,-0.02325
6348.51883,-0.00381
6350.44729,-0.01932
6352.37576,-0.02627
6354.30423,-0.00168
6356.23270,0.02649
6358.16117,0.07858
6360.08964,0.15642
6362.01811,0.18253
6363.94658,0.15272
6365.87504,0.12679
6367.80351,0.12659
6369.73198,0.13207
6371.66045,0.11105
6373.58892,0.08665
6375.51739,0.10581
6377.44586,0.11749
6379.37432,0.08597
6381.30279,0.05953
6383.23126,0.05030
6385.15973,0.05422
6387.08820,0.07346
6389.01667,0.09045
6390.94514,0.10811
6392.87361,0.13438
6394.80207,0.14192
6396.73054,0.11217
6398.65901,0.06982
6400.58748,0.01366
6402.51595,-0.03556
6404.44442,-0.02308
6406.37289,0.03749
6408.30135,0.07466
6410.22982,0.06433
6412.15829,0.06126
6414.08676,0.09361
6416.01523,0.13708
6417.94370,0.15609
6419.87217,0.11482
6421.80064,0.06411
6423.72910,0.09883
6425.65757,0.16880
6427.58604,0.12678
6429.51451,0.01500
6431.44298,-0.01793
6433.37145,0.07420
6435.29992,0.20622
6437.22838,0.25512
6439.15685,0.21541
6441.08532,0.18367
6443.01379,0.17033
6444.94226,0.15938
6446.87073,0.12793
6448.79920,0.05572
6450.72766,0.00740
6452.65613,-0.00048
6454.58460,-0.01219
6456.51307,0.00156
6458.44154,0.03775
6460.37001,0.03492
6462.29848,0.00636
6464.22695,0.00366
6466.15541,0.00207
6468.08388,-0.01696
6470.01235,-0.00763
6471.94082,0.04601
6473.86929,0.11250
6475.79776,0.14814
6477.72623,0.11735
6479.65469,0.02745
6481.58316,-0.02963
6483.51163,0.02759
6485.44010,0.10955
6487.36857,0.11568
6489.29704,0.09830
6491.22551,0.13259
6493.15398,0.14730
6495.08244,0.09073
6497.01091,0.04414
6498.93938,0.05279
6500.86785,0.09241
6502.79632,0.13122
6504.72479,0.14608
6506.65326,0.12440
6508.58172,0.07491
6510.51019,0.02088
6512.43866,-0.01443
6514.36713,-0.03859
6516.29560,-0.02921
6518.22407,0.03835
6520.15254,0.09201
6522.08101,0.10735
6524.00947,0.14776
6525.93794,0.21266
6527.86641,0.19046
6529.79488,0.06839
6531.72335,-0.01336
6533.65182,0.00486
6535.58029,0.04070
6537.50875,0.05300
6539.43722,0.07417
6541.36569,0.09740
6543.29416,0.06052
6545.22263,-0.00433
6547.15110,0.00577
6549.07957,0.05073
6551.00804,0.02614
6552.93650,-0.01296
6554.86497,0.02435
6556.79344,0.09295
6558.72191,0.12440
6560.65038,0.11411
6562.57885,0.08415
6564.50732,0.07350
6566.43578,0.12650
6568.36425,0.17058
6570.29272,0.12841
6572.22119,0.06337
6574.14966,0.02188
6576.07813,0.01098
6578.00660,0.05429
6579.93507,0.10317
6581.86353,0.12007
6583.79200,0.12776
6585.72047,0.13037
6587.64894,0.10711
6589.57741,0.06714
6591.50588,0.09758
6593.43435,0.20553
6595.36281,0.25105
6597.29128,0.21959
6599.21975,0.19328
6601.14822,0.16918
6603.07669,0.14909
6605.00516,0.14013
6606.93363,0.10686
6608.86210,0.07626
6610.79056,0.07123
6612.71903,0.03614
6614.64750,-0.03212
6616.57597,-0.07021
6618.50444,-0.03685
6620.43291,0.02337
6622.36138,0.06003
6624.28984,0.09119
6626.21831,0.13304
6628.14678,0.12749
6630.07525,0.10165
6632.00372,0.15971
6633.93219,0.16618
6635.86066,-0.00113
6637.78912,-0.13965
6639.71759,-0.11143
6641.64606,-0.00743
6643.57453,0.10057
6645.50300,0.16550
6647.43147,0.15366
6649.35994,0.09197
6651.28841,0.03363
6653.21687,0.01517
6655.14534,0.03952
6657.07381,0.06060
6659.00228,0.07506
6660.93075,0.12640
6662.85922,0.13569
6664.78769,0.06441
6666.71615,0.01606
6668.64462,0.03606
6670.57309,0.05388
6672.50156,0.02967
6674.43003,0.03565
6676.35850,0.06087
6678.28697,0.03945
6680.21544,0.04442
6682.14390,0.10447
6684.07237,0.16176
6686.00084,0.17605
6687.92931,0.09913
6689.85778,0.00044
6691.78625,0.00146
6693.71472,0.03805
6695.64318,0.05952
6697.57165,0.12580
6699.50012,0.21506
6701.42859,0.20624
6703.35706,0.11571
6705.28553,0.05812
6707.21400,0.05183
6709.14247,0.07243
6711.07093,0.09397
6712.99940,0.08461
6714.92787,0.05593
6716.85634,0.04378
6718.78481,0.08277
6720.71328,0.15618
6722.64175,0.18343
6724.57021,0.13023
6726.49868,0.03675
6728.42715,-0.02032
6730.35562,-0.02114
6732.28409,-0.03179
6734.21256,-0.04247
6736.14103,-0.00945
6738.06950,-0.00583
6739.99796,-0.06073
6741.92643,-0.05827
6743.85490,0.03992
6745.78337,0.13825
6747.71184,0.16663
6749.64031,0.12182
6751.56878,0.07679
6753.49724,0.03759
6755.42571,-0.02256
6757.35418,-0.06076
6759.28265,-0.05253
6761.21112,-0.03647
6763.13959,-0.02971
6765.06806,0.02889
6766.99653,0.11059
6768.92499,0.12325
6770.85346,0.08766
6772.78193,0.04737
6774.71040,0.02294
6776.63887,0.03662
6778.56734,0.05021
6780.49581,0.05533
6782.42427,0.08728
6784.35274,0.12832
6786.28121,0.13625
6788.20968,0.11143
6790.13815,0.07122
6792.06662,0.05020
6793.99509,0.08877
6795.92355,0.14530
6797.85202,0.18474
6799.78049,0.24768
6801.70896,0.30006
6803.63743,0.22818
6805.56590,0.10992
6807.49437,0.08662
6809.42284,0.08181
6811.35130,0.03972
6813.27977,-0.00568
6815.20824,-0.07690
6817.13671,-0.07352
6819.06518,0.08034
6820.99365,0.21121
6822.92212,0.17634
6824.85058,0.08968
6826.77905,0.07974
6828.70752,0.11199
6830.63599,0.11169
6832.56446,0.07302
6834.49293,0.04697
6836.42140,0.00410
6838.34987,-0.04292
6840.27833,-0.02082
6842.20680,0.01351
6844.13527,0.02377
6846.06374,0.04547
6847.99221,0.02368
6849.92068,-0.04457
6851.84915,0.00054
6853.77761,0.15232
6855.70608,0.20977
6857.63455,0.06733
6859.56302,-0.06747
6861.49149,-0.02756
6863.41996,0.09000
6865.34843,0.14902
6867.27690,0.14987
6869.20536,0.10785
6871.13383,0.07135
6873.06230,0.09957
6874.99077,0.13742
6876.91924,0.13112
6878.84771,0.13052
6880.77618,0.12604
6882.70464,0.07090
6884.63311,0.04465
6886.56158,0.11859
6888.49005,0.20346
6890.41852,0.20793
6892.34699,0.16339
6894.27546,0.08872
6896.20393,0.02809
6898.13239,0.06109
6900.06086,0.12155
6901.98933,0.16122
6903.91780,0.18493
6905.84627,0.13493
6907.77474,0.07871
6909.70321,0.10621
6911.63167,0.13421
6913.56014,0.06253
6915.48861,-0.04543
6917.41708,-0.05526
6919.34555,0.03723
6921.27402,0.11637
6923.20249,0.12233
6925.13096,0.08723
6927.05942,0.11064
6928.98789,0.19441
6930.91636,0.22285
6932.84483,0.19794
6934.77330,0.18086
6936.70177,0.12504
6938.63024,0.01040
6940.55870,-0.03934
6942.48717,0.05098
6944.41564,0.18512
6946.34411,0.27973
6948.27258,0.24878
6950.20105,0.15727
6952.12952,0.13270
6954.05799,0.16958
6955.98645,0.20617
6957.91492,0.17714
6959.84339,0.10061
6961.77186,0.12261
6963.70033,0.23101
6965.62880,0.23096
6967.55727,0.11732
6969.48573,0.05007
6971.41420,0.06121
6973.34267,0.12483
6975.27114,0.23430
6977.19961,0.27931
6979.12808,0.24797
6981.05655,0.22306
6982.98501,0.20369
6984.91348,0.19976
6986.84195,0.23018
6988.77042,0.20350
6990.69889,0.10399
6992.62736,0.02008
6994.55583,-0.01240
6996.48430,-0.00782
6998.41276,-0.00491
7000.34123,-0.01487
7002.26970,-0.02299
7004.19817,-0.00715
7006.12664,0.02879
7008.05511,0.02594
7009.98358,0.01587
7011.91204,0.06436
7013.84051,0.11435
7015.76898,0.12294
7017.69745,0.16594
7019.62592,0.23140
7021.55439,0.22711
7023.48286,0.12349
7025.41133,0.00681
7027.33979,-0.00275
7029.26826,0.09815
7031.19673,0.20022
7033.12520,0.21538
7035.05367,0.14062
7036.98214,0.09207
7038.91061,0.06523
7040.83907,-0.01057
7042.76754,-0.06389
7044.69601,-0.03246
7046.62448,-0.00695
7048.55295,-0.04837
7050.48142,-0.09977
7052.40989,-0.04261
7054.33836,0.08330
7056.26682,0.11123
7058.19529,0.02314
7060.12376,-0.09538
7062.05223,-0.13011
7063.98070,0.00790
7065.90917,0.19564
7067.83764,0.31619
7069.76610,0.28406
7071.69457,0.06324
7073.62304,-0.02044
7075.55151,0.08174
7077.47998,0.09607
7079.40845,-0.01867
7081.33692,-0.09233
7083.26539,-0.04251
7085.19385,0.10290
7087.12232,0.25783
7089.05079,0.29583
7090.97926,0.33135
7092.90773,0.37308
7094.83620,0.31988
7096.76467,0.24978
7098.69313,0.19029
7100.62160,0.13635
7102.55007,0.11227
7104.47854,0.11180
7106.40701,0.09455
7108.33548,0.07309
7110.26395,0.08414
7112.19242,0.06219
7114.12088,0.00571
7116.04935,-0.01319
7117.97782,0.04237
7119.90629,0.13276
7121.83476,0.14812
7123.76323,0.14676
7125.69170,0.16648
7127.62016,0.07546
7129.54863,-0.04125
7131.47710,0.01221
7133.40557,0.13852
7135.33404,0.13731
7137.26251,0.04313
7139.19098,0.02225
7141.11944,0.17667
7143.04791,0.36506
7144.97638,0.34616
7146.90485,0.12610
7148.83332,-0.04186
7150.76179,-0.02467
7152.69026,0.12236
7154.61873,0.19350
7156.54719,0.11671
7158.47566,0.02460
7160.40413,-0.03552
7162.33260,-0.07558
7164.26107,-0.05027
7166.18954,0.07385
7168.11801,0.23833
7170.04647,0.27334
7171.97494,0.12326
7173.90341,0.03507
7175.83188,0.07585
7177.76035,0.11390
7179.68882,0.15521
7181.61729,0.16453
7183.54576,0.10173
7185.47422,0.14794
7187.40269,0.21295
7189.33116,0.08400
7191.25963,-0.13384
7193.18810,-0.15441
7195.11657,-0.00269
7197.04504,0.15122
7198.97350,0.15959
7200.90197,0.03279
7202.83044,-0.07570
7204.75891,-0.06758
7206.68738,-0.06064
7208.61585,-0.08517
7210.54432,-0.01485
7212.47279,0.11167
7214.40125,0.13871
7216.32972,0.09402
7218.25819,0.15998
7220.18666,0.23854
7222.11513,0.21118
7224.04360,0.12669
7225.97207,0.08181
7227.90053,0.11475
7229.82900,0.05077
7231.75747,-0.06599
7233.68594,-0.03551
7235.61441,0.08560
7237.54288,0.26297
7239.47135,0.40941
7241.39982,0.40038
7243.32828,0.27559
7245.25675,0.21325
7247.18522,0.17736
7249.11369,0.03894
7251.04216,-0.17467
7252.97063,-0.27478
7254.89910,-0.10999
7256.82756,0.09429
7258.75603,0.19297
7260.68450,0.18719
7262.61297,0.18181
7264.54144,0.21685
7266.46991,0.14882
7268.39838,0.03262
7270.32685,0.00875
7272.25531,0.04778
7274.18378,0.11590
7276.11225,0.18960
7278.04072,0.23154
7279.96919,0.22099
7281.89766,0.15525
7283.82613,0.09392
7285.75459,0.08420
7287.68306,0.17443
7289.61153,0.30495
7291.54000,0.30717
7293.46847,0.18960
7295.39694,0.11186
7297.32541,0.11439
7299.25387,0.12184
7301.18234,0.07173
7303.11081,-0.01811
7305.03928,-0.06866
7306.96775,-0.15349
7308.89622,-0.31583
7310.82469,-0.28719
7312.75316,-0.13159
7314.68162,-0.06916
7316.61009,-0.07168
7318.53856,-0.13902
7320.46703,-0.21483
7322.39550,-0.07293
7324.32397,0.14661
7326.25244,0.25512
7328.18090,0.38941
7330.10937,0.41325
7332.03784,0.24224
7333.96631,0.06735
7335.89478,-0.03197
7337.82325,-0.06218
7339.75172,-0.06040
7341.68019,-0.06371
7343.60865,-0.01697
7345.53712,0.09383
7347.46559,0.09936
7349.39406,-0.03517
7351.32253,-0.05670
7353.25100,0.08464
7355.17947,0.19479
7357.10793,0.17932
7359.03640,0.03682
7360.96487,-0.04476
7362.89334,0.13361
7364.82181,0.27772
7366.75028,0.23753
7368.67875,0.26280
7370.60722,0.34201
7372.53568,0.33180
7374.46415,0.19421
7376.39262,-0.06108
7378.32109,-0.29247
7380.24956,-0.35735
7382.17803,-0.17897
7384.10650,0.09464
7386.03496,0.32557
7387.96343,0.32466
7389.89190,0.11646
7391.82037,0.01696
7393.74884,0.08610
7395.67731,0.13335
7397.60578,0.04768
7399.53425,-0.04014
7401.46271,0.02643
7403.39118,0.14710
7405.31965,0.10746
7407.24812,0.04635
7409.17659,0.09667
7411.10506,0.16563
7413.03353,0.20968
7414.96199,0.25905
7416.89046,0.33363
7418.81893,0.29818
7420.74740,0.12480
7422.67587,0.10556
7424.60434,0.13808
7426.53281,0.10002
7428.46128,0.08604
7430.38974,0.05295
7432.31821,-0.08020
7434.24668,-0.11523
7436.17515,-0.02704
7438.10362,0.00945
7440.03209,0.01951
7441.96056,0.04711
7443.88902,0.06777
7445.81749,0.18330
7447.74596,0.40937
7449.67443,0.56882
7451.60290,0.49436
7453.53137,0.19751
7455.45984,-0.07040
7457.38831,-0.11197
7459.31677,-0.01996
7461.24524,-0.03421
7463.17371,-0.00078
7465.10218,0.17321
7467.03065,0.26428
7468.95912,0.28498
7470.88759,0.32626
7472.81605,0.28022
7474.74452,0.15955
7476.67299,0.06315
7478.60146,-0.05909
7480.52993,-0.21004
7482.45840,-0.29124
7484.38687,-0.27862
7486.31533,-0.19039
7488.24380,-0.13111
7490.17227,-0.13273
7492.10074,-0.14084
7494.02921,-0.14501
7495.95768,-0.13479
7497.88615,-0.21661
