399.19301,-0.03748
401.12148,0.45440
403.04995,0.42639
404.97842,0.30201
406.90689,0.15022
408.83536,0.02720
410.76382,-0.09296
412.69229,-0.23912
414.62076,-0.29324
416.54923,-0.23955
418.47770,-0.13489
420.40617,0.06224
422.33464,0.15916
424.26311,0.09558
426.19157,0.05690
428.12004,0.11722
430.04851,0.15570
431.97698,0.06621
433.90545,-0.03970
435.83392,-0.01670
437.76239,0.09359
439.69085,0.17614
441.61932,0.13361
443.54779,0.02867
445.47626,0.06177
447.40473,0.16568
449.33320,0.16201
451.26167,0.10233
453.19013,0.08377
455.11860,0.10073
457.04707,0.13670
458.97554,0.14433
460.90401,0.12047
462.83248,0.11377
464.76095,0.10523
466.68942,0.09388
468.61788,0.11687
470.54635,0.17981
472.47482,0.27033
474.40329,0.30840
476.33176,0.22970
478.26023,0.14981
480.18870,0.11787
482.11716,0.09055
484.04563,0.04660
485.97410,0.04036
487.90257,0.09026
489.83104,0.17342
491.75951,0.20043
493.68798,0.13845
495.61645,0.09724
497.54491,0.11370
499.47338,0.13158
501.40185,0.13180
503.33032,0.11993
505.25879,0.12076
507.18726,0.15532
509.11573,0.19913
511.04419,0.21143
512.97266,0.18560
514.90113,0.13738
516.82960,0.08690
518.75807,0.06462
520.68654,0.08860
522.61501,0.13343
524.54348,0.17217
526.47194,0.21566
528.40041,0.23136
530.32888,0.19159
532.25735,0.16304
534.18582,0.17770
536.11429,0.18862
538.04276,0.17249
539.97122,0.14314
541.89969,0.10061
543.82816,0.04762
545.75663,0.04132
547.68510,0.11178
549.61357,0.16694
551.54204,0.14027
553.47051,0.08981
555.39897,0.06939
557.32744,0.08697
559.25591,0.10745
561.18438,0.09870
563.11285,0.08740
565.04132,0.10945
566.96979,0.13890
568.89825,0.13591
570.82672,0.12056
572.75519,0.11361
574.68366,0.11360
576.61213,0.11887
578.54060,0.12408
580.46907,0.11850
582.39754,0.10234
584.32600,0.09421
586.25447,0.08895
588.18294,0.07956
590.11141,0.08031
592.03988,0.08722
593.96835,0.08902
595.89682,0.08888
597.82528,0.08953
599.75375,0.09423
601.68222,0.10198
603.61069,0.10785
605.53916,0.11533
607.46763,0.12053
609.39610,0.11348
611.32456,0.10688
613.25303,0.12294
615.18150,0.14761
617.10997,0.15067
619.03844,0.14360
620.96691,0.15133
622.89538,0.15929
624.82385,0.15262
626.75231,0.14253
628.68078,0.13726
630.60925,0.14516
632.53772,0.15753
634.46619,0.15244
636.39466,0.13697
638.32313,0.13019
640.25159,0.13486
642.18006,0.12629
644.10853,0.10726
646.03700,0.10926
647.96547,0.11914
649.89394,0.10791
651.82241,0.09905
653.75088,0.12045
655.67934,0.13218
657.60781,0.10897
659.53628,0.09562
661.46475,0.10959
663.39322,0.12637
665.32169,0.14089
667.25016,0.15912
669.17862,0.16926
671.10709,0.16496
673.03556,0.15598
674.96403,0.15085
676.89250,0.14797
678.82097,0.12293
680.74944,0.08874
682.67791,0.08538
684.60637,0.11145
686.53484,0.13947
688.46331,0.15612
690.39178,0.16314
692.32025,0.15697
694.24872,0.13800
696.17719,0.12628
698.10565,0.13237
700.03412,0.14156
701.96259,0.14437
703.89106,0.14054
705.81953,0.13163
707.74800,0.12912
709.67647,0.14466
711.60494,0.16306
713.53340,0.15523
715.46187,0.13223
717.39034,0.12520
719.31881,0.12698
721.24728,0.12167
723.17575,0.12567
725.10422,0.14448
727.03268,0.15223
728.96115,0.14459
730.88962,0.14030
732.81809,0.13941
734.74656,0.13389
736.67503,0.12658
738.60350,0.12048
740.53197,0.11973
742.46043,0.12651
744.38890,0.13601
746.31737,0.14124
748.24584,0.13416
750.17431,0.12741
752.10278,0.13718
754.03125,0.14729
755.95971,0.14689
757.88818,0.14490
759.81665,0.13709
761.74512,0.12006
763.67359,0.10625
765.60206,0.10179
767.53053,0.10533
769.45900,0.11369
771.38746,0.11913
773.31593,0.12221
775.24440,0.13052
777.17287,0.13800
779.10134,0.13098
781.02981,0.11938
782.95828,0.12489
784.88674,0.14471
786.81521,0.15797
788.74368,0.15744
790.67215,0.15340
792.60062,0.15143
794.52909,0.15116
796.45756,0.15415
798.38602,0.15884
800.31449,0.15876
802.24296,0.15502
804.17143,0.15192
806.09990,0.14143
808.02837,0.12110
809.95684,0.11031
811.88531,0.12246
813.81377,0.14011
815.74224,0.14526
817.67071,0.14514
819.59918,0.14775
821.52765,0.14658
823.45612,0.14097
825.38459,0.14264
827.31305,0.14993
829.24152,0.15152
831.16999,0.14749
833.09846,0.14705
835.02693,0.15289
836.95540,0.15390
838.88387,0.14783
840.81234,0.14434
842.74080,0.14927
844.66927,0.16029
846.59774,0.16702
848.52621,0.16507
850.45468,0.16291
852.38315,0.16480
854.31162,0.16008
856.24008,0.14518
858.16855,0.13363
860.09702,0.13290
862.02549,0.13745
863.95396,0.14098
865.88243,0.13737
867.81090,0.12726
869.73937,0.12393
871.66783,0.13344
873.59630,0.14534
875.52477,0.15013
877.45324,0.14761
879.38171,0.14310
881.31018,0.14258
883.23865,0.14457
885.16711,0.14310
887.09558,0.14048
889.02405,0.14331
890.95252,0.14750
892.88099,0.14391
894.80946,0.13682
896.73793,0.13776
898.66640,0.14522
900.59486,0.14749
902.52333,0.14291
904.45180,0.14348
906.38027,0.15185
908.30874,0.15572
910.23721,0.14760
912.16568,0.13767
914.09414,0.14120
916.02261,0.15332
917.95108,0.15764
919.87955,0.15236
921.80802,0.14391
923.73649,0.13641
925.66496,0.13743
927.59343,0.14674
929.52189,0.15276
931.45036,0.15097
933.37883,0.14309
935.30730,0.13551
937.23577,0.13769
939.16424,0.14663
941.09271,0.15134
943.02117,0.14834
944.94964,0.14181
946.87811,0.13881
948.80658,0.14490
950.73505,0.15479
952.66352,0.15810
954.59199,0.15254
956.52045,0.14358
958.44892,0.13851
960.37739,0.14128
962.30586,0.14712
964.23433,0.14739
966.16280,0.14409
968.09127,0.14362
970.01974,0.14230
971.94820,0.14090
973.87667,0.14601
975.80514,0.15217
977.73361,0.15486
979.66208,0.15686
981.59055,0.15566
983.51902,0.15429
985.44748,0.15909
987.37595,0.16564
989.30442,0.16908
991.23289,0.16709
993.16136,0.15712
995.08983,0.14428
997.01830,0.13679
998.94677,0.13703
1000.87523,0.14304
1002.80370,0.14712
1004.73217,0.14564
1006.66064,0.14694
1008.58911,0.15114
1010.51758,0.15156
1012.44605,0.15387
1014.37451,0.16082
1016.30298,0.15963
1018.23145,0.14567
1020.15992,0.13432
1022.08839,0.13669
1024.01686,0.14612
1025.94533,0.15204
1027.87380,0.15407
1029.80226,0.15702
1031.73073,0.15869
1033.65920,0.15357
1035.58767,0.14290
1037.51614,0.13759
1039.44461,0.14542
1041.37308,0.15825
1043.30154,0.16474
1045.23001,0.16521
1047.15848,0.16456
1049.08695,0.16066
1051.01542,0.15646
1052.94389,0.15969
1054.87236,0.16300
1056.80083,0.15939
1058.72929,0.15837
1060.65776,0.16399
1062.58623,0.16883
1064.51470,0.17179
1066.44317,0.17349
1068.37164,0.17301
1070.30011,0.17353
1072.22857,0.17391
1074.15704,0.17256
1076.08551,0.16922
1078.01398,0.16278
1079.94245,0.15926
1081.87092,0.16307
1083.79939,0.16765
1085.72786,0.16556
1087.65632,0.16084
1089.58479,0.15929
1091.51326,0.15423
1093.44173,0.14424
1095.37020,0.14063
1097.29867,0.14579
1099.22714,0.15094
1101.15560,0.15213
1103.08407,0.15591
1105.01254,0.16286
1106.94101,0.16672
1108.86948,0.16880
1110.79795,0.17069
1112.72642,0.17449
1114.65489,0.17555
1116.58335,0.16726
1118.51182,0.16335
1120.44029,0.17092
1122.36876,0.17621
1124.29723,0.17249
1126.22570,0.16574
1128.15417,0.15851
1130.08263,0.14958
1132.01110,0.14505
1133.93957,0.14894
1135.86804,0.15478
1137.79651,0.16075
1139.72498,0.16844
1141.65345,0.16934
1143.58191,0.16265
1145.51038,0.15989
1147.43885,0.16487
1149.36732,0.16892
1151.29579,0.16501
1153.22426,0.16280
1155.15273,0.16689
1157.08120,0.16699
1159.00966,0.16414
1160.93813,0.16559
1162.86660,0.16633
1164.79507,0.16185
1166.72354,0.15954
1168.65201,0.16239
1170.58048,0.16561
1172.50894,0.16860
1174.43741,0.16894
1176.36588,0.16478
1178.29435,0.15931
1180.22282,0.15524
1182.15129,0.15772
1184.07976,0.16506
1186.00823,0.16641
1187.93669,0.16227
1189.86516,0.16141
1191.79363,0.16510
1193.72210,0.16790
1195.65057,0.16616
1197.57904,0.16365
1199.50751,0.16512
1201.43597,0.16901
1203.36444,0.17072
1205.29291,0.16862
1207.22138,0.16517
1209.14985,0.16267
1211.07832,0.16165
1213.00679,0.16191
1214.93526,0.16118
1216.86372,0.15828
1218.79219,0.15875
1220.72066,0.16390
1222.64913,0.16514
1224.57760,0.16141
1226.50607,0.15835
1228.43454,0.15594
1230.36300,0.15734
1232.29147,0.16611
1234.21994,0.17411
1236.14841,0.17544
1238.07688,0.17426
1240.00535,0.17317
1241.93382,0.17169
1243.86229,0.16772
1245.79075,0.15954
1247.71922,0.15369
1249.64769,0.15629
1251.57616,0.16204
1253.50463,0.16546
1255.43310,0.16762
1257.36157,0.16939
1259.29003,0.16857
1261.21850,0.16611
1263.14697,0.16671
1265.07544,0.16919
1267.00391,0.16905
1268.93238,0.16774
1270.86085,0.16845
1272.78932,0.16817
1274.71778,0.16548
1276.64625,0.16679
1278.57472,0.17312
1280.50319,0.17486
1282.43166,0.17030
1284.36013,0.16864
1286.28860,0.16897
1288.21706,0.16552
1290.14553,0.16242
1292.07400,0.16454
1294.00247,0.16814
1295.93094,0.16766
1297.85941,0.16533
1299.78788,0.16095
1301.71634,0.14666
1303.64481,0.12776
1305.57328,0.12732
1307.50175,0.14879
1309.43022,0.16620
1311.35869,0.17157
1313.28716,0.17551
1315.21563,0.17718
1317.14409,0.17606
1319.07256,0.17349
1321.00103,0.16827
1322.92950,0.16644
1324.85797,0.16738
1326.78644,0.16525
1328.71491,0.16502
1330.64337,0.16629
1332.57184,0.16620
1334.50031,0.16874
1336.42878,0.17188
1338.35725,0.17378
1340.28572,0.16882
1342.21419,0.15728
1344.14266,0.15167
1346.07112,0.15136
1347.99959,0.15319
1349.92806,0.15823
1351.85653,0.16382
1353.78500,0.16785
1355.71347,0.16793
1357.64194,0.16573
1359.57040,0.16790
1361.49887,0.17507
1363.42734,0.17732
1365.35581,0.17301
1367.28428,0.17221
1369.21275,0.17368
1371.14122,0.17363
1373.06969,0.17681
1374.99815,0.18078
1376.92662,0.18057
1378.85509,0.18092
1380.78356,0.18037
1382.71203,0.17703
1384.64050,0.17814
1386.56897,0.18497
1388.49743,0.18480
1390.42590,0.17787
1392.35437,0.17855
1394.28284,0.18674
1396.21131,0.18904
1398.13978,0.18238
1400.06825,0.17501
1401.99672,0.17225
1403.92518,0.17450
1405.85365,0.17935
1407.78212,0.18184
1409.71059,0.18196
1411.63906,0.18279
1413.56753,0.18462
1415.49600,0.18806
1417.42446,0.19393
1419.35293,0.19655
1421.28140,0.19297
1423.20987,0.18820
1425.13834,0.18449
1427.06681,0.18641
1428.99528,0.19003
1430.92375,0.18552
1432.85221,0.17952
1434.78068,0.18250
1436.70915,0.19123
1438.63762,0.19371
1440.56609,0.18969
1442.49456,0.18463
1444.42303,0.18297
1446.35149,0.18624
1448.27996,0.18941
1450.20843,0.18903
1452.13690,0.19218
1454.06537,0.20411
1455.99384,0.22087
1457.92231,0.22055
1459.85077,0.20332
1461.77924,0.19425
1463.70771,0.19150
1465.63618,0.19010
1467.56465,0.19020
1469.49312,0.19317
1471.42159,0.20029
1473.35006,0.20583
1475.27852,0.20182
1477.20699,0.19650
1479.13546,0.19423
1481.06393,0.19175
1482.99240,0.18904
1484.92087,0.19245
1486.84934,0.20375
1488.77780,0.21436
1490.70627,0.21003
1492.63474,0.19947
1494.56321,0.19571
1496.49168,0.19697
1498.42015,0.19607
1500.34862,0.19062
1502.27709,0.18415
1504.20555,0.18512
1506.13402,0.20759
1508.06249,0.22380
1509.99096,0.20915
1511.91943,0.20015
1513.84790,0.20197
1515.77637,0.20968
1517.70483,0.21624
1519.63330,0.22436
1521.56177,0.23140
1523.49024,0.22386
1525.41871,0.21595
1527.34718,0.20791
1529.27565,0.19886
1531.20412,0.20202
1533.13258,0.21407
1535.06105,0.21601
1536.98952,0.21795
1538.91799,0.23871
1540.84646,0.26045
1542.77493,0.24406
1544.70340,0.21960
1546.63186,0.20536
1548.56033,0.20157
1550.48880,0.19862
1552.41727,0.19541
1554.34574,0.19986
1556.27421,0.21792
1558.20268,0.25255
1560.13115,0.24415
1562.05961,0.21300
1563.98808,0.19992
1565.91655,0.19607
1567.84502,0.19974
1569.77349,0.20256
1571.70196,0.19284
1573.63043,0.18650
1575.55889,0.19186
1577.48736,0.19361
1579.41583,0.18673
1581.34430,0.18264
1583.27277,0.18182
1585.20124,0.18171
1587.12971,0.18191
1589.05818,0.18260
1590.98664,0.18349
1592.91511,0.18457
1594.84358,0.18487
1596.77205,0.18440
1598.70052,0.18532
1600.62899,0.18679
1602.55746,0.18750
1604.48592,0.18689
1606.41439,0.18403
1608.34286,0.18194
1610.27133,0.18326
1612.19980,0.18504
1614.12827,0.18750
1616.05674,0.19419
1617.98521,0.19611
1619.91367,0.19253
1621.84214,0.19558
1623.77061,0.20002
1625.69908,0.19704
1627.62755,0.19356
1629.55602,0.19196
1631.48449,0.19325
1633.41295,0.20146
1635.34142,0.21446
1637.26989,0.21344
1639.19836,0.20178
1641.12683,0.19504
1643.05530,0.19823
1644.98377,0.21192
1646.91223,0.22783
1648.84070,0.22896
1650.76917,0.22836
1652.69764,0.23120
1654.62611,0.21674
1656.55458,0.20284
1658.48305,0.20023
1660.41152,0.20654
1662.33998,0.21262
1664.26845,0.20799
1666.19692,0.20527
1668.12539,0.21536
1670.05386,0.22787
1671.98233,0.22694
1673.91080,0.22277
1675.83926,0.21624
1677.76773,0.20753
1679.69620,0.20586
1681.62467,0.21463
1683.55314,0.22875
1685.48161,0.22844
1687.41008,0.22000
1689.33855,0.21237
1691.26701,0.20497
1693.19548,0.20616
1695.12395,0.21910
1697.05242,0.23218
1698.98089,0.23064
1700.90936,0.21654
1702.83783,0.20896
1704.76629,0.20981
1706.69476,0.20762
1708.62323,0.19982
1710.55170,0.19403
1712.48017,0.19694
1714.40864,0.21019
1716.33711,0.22600
1718.26558,0.22209
1720.19404,0.20360
1722.12251,0.19157
1724.05098,0.18713
1725.97945,0.18779
1727.90792,0.19334
1729.83639,0.20112
1731.76486,0.20780
1733.69332,0.21049
1735.62179,0.20382
1737.55026,0.19885
1739.47873,0.19937
1741.40720,0.19982
1743.33567,0.20023
1745.26414,0.20389
1747.19261,0.20938
1749.12107,0.21161
1751.04954,0.20499
1752.97801,0.19663
1754.90648,0.19341
1756.83495,0.19241
1758.76342,0.19342
1760.69189,0.19684
1762.62035,0.19683
1764.54882,0.19333
1766.47729,0.19184
1768.40576,0.19648
1770.33423,0.20942
1772.26270,0.21869
1774.19117,0.21058
1776.11964,0.19948
1778.04810,0.19819
1779.97657,0.20465
1781.90504,0.20629
1783.83351,0.19992
1785.76198,0.19216
1787.69045,0.18900
1789.61892,0.19536
1791.54738,0.20639
1793.47585,0.20681
1795.40432,0.20149
1797.33279,0.20102
1799.26126,0.20155
1801.18973,0.19827
1803.11820,0.19373
1805.04666,0.19125
1806.97513,0.18982
1808.90360,0.18849
1810.83207,0.18870
1812.76054,0.18973
1814.68901,0.19004
1816.61748,0.18788
1818.54595,0.17686
1820.47441,0.16465
1822.40288,0.17202
1824.33135,0.19340
1826.25982,0.20451
1828.18829,0.20635
1830.11676,0.20366
1832.04523,0.19545
1833.97369,0.19039
1835.90216,0.18966
1837.83063,0.19001
1839.75910,0.19092
1841.68757,0.19430
1843.61604,0.20028
1845.54451,0.20296
1847.47298,0.19973
1849.40144,0.19381
1851.32991,0.18865
1853.25838,0.18710
1855.18685,0.18726
1857.11532,0.18679
1859.04379,0.18743
1860.97226,0.18933
1862.90072,0.19082
1864.82919,0.19364
1866.75766,0.19961
1868.68613,0.20328
1870.61460,0.19754
1872.54307,0.18820
1874.47154,0.18426
1876.40001,0.18752
1878.32847,0.19149
1880.25694,0.19353
1882.18541,0.19534
1884.11388,0.19417
1886.04235,0.19006
1887.97082,0.18955
1889.89929,0.19254
1891.82775,0.19225
1893.75622,0.19018
1895.68469,0.18908
1897.61316,0.18873
1899.54163,0.19052
1901.47010,0.19212
1903.39857,0.19116
1905.32704,0.19074
1907.25550,0.19021
1909.18397,0.18770
1911.11244,0.18779
1913.04091,0.19061
1914.96938,0.19347
1916.89785,0.19763
1918.82632,0.20049
1920.75478,0.19944
1922.68325,0.19598
1924.61172,0.19119
1926.54019,0.18841
1928.46866,0.18903
1930.39713,0.18997
1932.32560,0.18955
1934.25407,0.18864
1936.18253,0.18768
1938.11100,0.18762
1940.03947,0.18927
1941.96794,0.19082
1943.89641,0.19061
1945.82488,0.19008
1947.75335,0.18924
1949.68181,0.18821
1951.61028,0.18908
1953.53875,0.19184
1955.46722,0.19412
1957.39569,0.19301
1959.32416,0.18921
1961.25263,0.18764
1963.18110,0.19020
1965.10956,0.19371
1967.03803,0.19504
1968.96650,0.19400
1970.89497,0.19277
1972.82344,0.19390
1974.75191,0.19670
1976.68038,0.19650
1978.60884,0.19334
1980.53731,0.19247
1982.46578,0.19288
1984.39425,0.19141
1986.32272,0.19063
1988.25119,0.19081
1990.17966,0.18910
1992.10812,0.18591
1994.03659,0.18487
1995.96506,0.18724
1997.89353,0.18917
1999.82200,0.18840
2001.75047,0.18749
2003.67894,0.18771
2005.60741,0.18833
2007.53587,0.18907
2009.46434,0.18957
2011.39281,0.19063
2013.32128,0.19300
2015.24975,0.19430
2017.17822,0.19285
2019.10669,0.19140
2021.03515,0.19232
2022.96362,0.19354
2024.89209,0.19203
2026.82056,0.18964
2028.74903,0.19104
2030.67750,0.19421
2032.60597,0.19409
2034.53444,0.19220
2036.46290,0.19143
2038.39137,0.19106
2040.31984,0.18938
2042.24831,0.18650
2044.17678,0.18588
2046.10525,0.18809
2048.03372,0.18924
2049.96218,0.18897
2051.89065,0.18995
2053.81912,0.19254
2055.74759,0.19385
2057.67606,0.19197
2059.60453,0.18853
2061.53300,0.18464
2063.46147,0.18140
2065.38993,0.18095
2067.31840,0.18318
2069.24687,0.18583
2071.17534,0.18696
2073.10381,0.18740
2075.03228,0.18867
2076.96075,0.18908
2078.88921,0.18892
2080.81768,0.19025
2082.74615,0.19103
2084.67462,0.18972
2086.60309,0.18812
2088.53156,0.18770
2090.46003,0.18817
2092.38850,0.18888
2094.31696,0.19050
2096.24543,0.19259
2098.17390,0.19170
2100.10237,0.18733
2102.03084,0.18609
2103.95931,0.18863
2105.88778,0.18791
2107.81624,0.18570
2109.74471,0.18659
2111.67318,0.18823
2113.60165,0.18964
2115.53012,0.19190
2117.45859,0.19373
2119.38706,0.19335
2121.31553,0.19138
2123.24399,0.19049
2125.17246,0.19070
2127.10093,0.19063
2129.02940,0.19012
2130.95787,0.18830
2132.88634,0.18676
2134.81481,0.18703
2136.74327,0.18681
2138.67174,0.18615
2140.60021,0.18789
2142.52868,0.19131
2144.45715,0.19302
2146.38562,0.19308
2148.31409,0.19295
2150.24255,0.19184
2152.17102,0.19130
2154.09949,0.19340
2156.02796,0.19486
2157.95643,0.19217
2159.88490,0.18837
2161.81337,0.18898
2163.74184,0.19291
2165.67030,0.19395
2167.59877,0.19103
2169.52724,0.18904
2171.45571,0.19056
2173.38418,0.19215
2175.31265,0.19147
2177.24112,0.19154
2179.16958,0.19355
2181.09805,0.19484
2183.02652,0.19360
2184.95499,0.19059
2186.88346,0.18836
2188.81193,0.18805
2190.74040,0.18933
2192.66887,0.19161
2194.59733,0.19159
2196.52580,0.18976
2198.45427,0.19144
2200.38274,0.19444
2202.31121,0.19449
2204.23968,0.19364
2206.16815,0.19227
2208.09661,0.18902
2210.02508,0.18623
2211.95355,0.18597
2213.88202,0.18719
2215.81049,0.18801
2217.73896,0.18779
2219.66743,0.18815
2221.59590,0.19016
2223.52436,0.19328
2225.45283,0.19533
2227.38130,0.19438
2229.30977,0.19287
2231.23824,0.19204
2233.16671,0.18940
2235.09518,0.18608
2237.02364,0.18567
2238.95211,0.18763
2240.88058,0.18962
2242.80905,0.19202
2244.73752,0.19393
2246.66599,0.19173
2248.59446,0.18703
2250.52293,0.18605
2252.45139,0.18880
2254.37986,0.19035
2256.30833,0.19013
2258.23680,0.18945
2260.16527,0.18925
2262.09374,0.19030
2264.02221,0.18992
2265.95067,0.18916
2267.87914,0.19192
2269.80761,0.19482
2271.73608,0.19385
2273.66455,0.19151
2275.59302,0.19171
2277.52149,0.19320
2279.44996,0.19283
2281.37842,0.19161
2283.30689,0.19202
2285.23536,0.19454
2287.16383,0.19570
2289.09230,0.19318
2291.02077,0.18969
2292.94924,0.18871
2294.87770,0.19112
2296.80617,0.19446
2298.73464,0.19485
2300.66311,0.19112
2302.59158,0.18876
2304.52005,0.19102
2306.44852,0.19260
2308.37699,0.19177
2310.30545,0.19191
2312.23392,0.19378
2314.16239,0.19618
2316.09086,0.19654
2318.01933,0.19214
2319.94780,0.18552
2321.87627,0.18505
2323.80473,0.19106
2325.73320,0.19155
2327.66167,0.18519
2329.59014,0.18516
2331.51861,0.19783
2333.44708,0.21408
2335.37555,0.22047
2337.30401,0.21460
2339.23248,0.20747
2341.16095,0.20860
2343.08942,0.21107
2345.01789,0.20459
2346.94636,0.19857
2348.87483,0.19787
2350.80330,0.19851
2352.73176,0.20171
2354.66023,0.20895
2356.58870,0.21615
2358.51717,0.22151
2360.44564,0.22035
2362.37411,0.20548
2364.30258,0.18798
2366.23104,0.18884
2368.15951,0.20019
2370.08798,0.19848
2372.01645,0.18972
2373.94492,0.19164
2375.87339,0.19794
2377.80186,0.19629
2379.73033,0.19107
2381.65879,0.18956
2383.58726,0.19022
2385.51573,0.19028
2387.44420,0.18964
2389.37267,0.18958
2391.30114,0.19140
2393.22961,0.19214
2395.15807,0.18946
2397.08654,0.18853
2399.01501,0.19232
2400.94348,0.19569
2402.87195,0.19491
2404.80042,0.19189
2406.72889,0.19007
2408.65736,0.19106
2410.58582,0.19282
2412.51429,0.19366
2414.44276,0.19470
2416.37123,0.19532
2418.29970,0.19407
2420.22817,0.19237
2422.15664,0.19135
2424.08510,0.19059
2426.01357,0.18963
2427.94204,0.18806
2429.87051,0.18753
2431.79898,0.18878
2433.72745,0.18945
2435.65592,0.19045
2437.58439,0.19363
2439.51285,0.19568
2441.44132,0.19424
2443.36979,0.19207
2445.29826,0.19152
2447.22673,0.19163
2449.15520,0.19128
2451.08367,0.19194
2453.01213,0.19534
2454.94060,0.19868
2456.86907,0.19819
2458.79754,0.19486
2460.72601,0.19114
2462.65448,0.18787
2464.58295,0.18675
2466.51142,0.18790
2468.43988,0.18845
2470.36835,0.18923
2472.29682,0.19182
2474.22529,0.19292
2476.15376,0.19168
2478.08223,0.19202
2480.01070,0.19479
2481.93916,0.19614
2483.86763,0.19419
2485.79610,0.19221
2487.72457,0.19313
2489.65304,0.19468
2491.58151,0.19553
2493.50998,0.19777
2495.43844,0.19953
2497.36691,0.19817
2499.29538,0.19513
2501.22385,0.19313
2503.15232,0.19412
2505.08079,0.19541
2507.00926,0.19361
2508.93773,0.19095
2510.86619,0.18989
2512.79466,0.19028
2514.72313,0.19155
2516.65160,0.19327
2518.58007,0.19568
2520.50854,0.19753
2522.43701,0.19758
2524.36547,0.19721
2526.29394,0.19608
2528.22241,0.19485
2530.15088,0.19560
2532.07935,0.19481
2534.00782,0.19194
2535.93629,0.19199
2537.86476,0.19397
2539.79322,0.19469
2541.72169,0.19508
2543.65016,0.19443
2545.57863,0.19156
2547.50710,0.18925
2549.43557,0.18956
2551.36404,0.19046
2553.29250,0.18991
2555.22097,0.19064
2557.14944,0.19313
2559.07791,0.19385
2561.00638,0.19380
2562.93485,0.19505
2564.86332,0.19736
2566.79179,0.19755
2568.72025,0.19300
2570.64872,0.18892
2572.57719,0.19063
2574.50566,0.19471
2576.43413,0.19560
2578.36260,0.19319
2580.29107,0.19018
2582.21953,0.19024
2584.14800,0.19364
2586.07647,0.19521
2588.00494,0.19415
2589.93341,0.19412
2591.86188,0.19537
2593.79035,0.19642
2595.71882,0.19676
2597.64728,0.19641
2599.57575,0.19689
2601.50422,0.19846
2603.43269,0.20057
2605.36116,0.20371
2607.28963,0.20563
2609.21810,0.20466
2611.14656,0.20182
2613.07503,0.19944
2615.00350,0.20048
2616.93197,0.20359
2618.86044,0.20382
2620.78891,0.19920
2622.71738,0.19453
2624.64585,0.19474
2626.57431,0.19545
2628.50278,0.19210
2630.43125,0.19126
2632.35972,0.19546
2634.28819,0.19625
2636.21666,0.19279
2638.14513,0.19164
2640.07359,0.19272
2642.00206,0.19190
2643.93053,0.18949
2645.85900,0.18961
2647.78747,0.19376
2649.71594,0.19738
2651.64441,0.19621
2653.57288,0.19181
2655.50134,0.18878
2657.42981,0.19071
2659.35828,0.19468
2661.28675,0.19560
2663.21522,0.19539
2665.14369,0.19740
2667.07216,0.20010
2669.00062,0.20048
2670.92909,0.19786
2672.85756,0.19622
2674.78603,0.19920
2676.71450,0.20124
2678.64297,0.19895
2680.57144,0.19812
2682.49990,0.19913
2684.42837,0.19819
2686.35684,0.19586
2688.28531,0.19531
2690.21378,0.19856
2692.14225,0.20319
2694.07072,0.20507
2695.99919,0.20452
2697.92765,0.20408
2699.85612,0.20354
2701.78459,0.20317
2703.71306,0.20248
2705.64153,0.20045
2707.57000,0.20029
2709.49847,0.20199
2711.42693,0.20195
2713.35540,0.20074
2715.28387,0.20032
2717.21234,0.20009
2719.14081,0.19899
2721.06928,0.19781
2722.99775,0.19672
2724.92622,0.19548
2726.85468,0.19591
2728.78315,0.19719
2730.71162,0.19871
2732.64009,0.20216
2734.56856,0.20401
2736.49703,0.20250
2738.42550,0.20200
2740.35396,0.20271
2742.28243,0.20383
2744.21090,0.20676
2746.13937,0.20818
2748.06784,0.20741
2749.99631,0.20747
2751.92478,0.20515
2753.85325,0.20071
2755.78171,0.20034
2757.71018,0.20246
2759.63865,0.20306
2761.56712,0.20355
2763.49559,0.20540
2765.42406,0.20734
2767.35253,0.20704
2769.28099,0.20511
2771.20946,0.20395
2773.13793,0.20315
2775.06640,0.20307
2776.99487,0.20425
2778.92334,0.20418
2780.85181,0.20360
2782.78028,0.20524
2784.70874,0.20671
2786.63721,0.20512
2788.56568,0.20187
2790.49415,0.20139
2792.42262,0.20571
2794.35109,0.20964
2796.27956,0.21029
2798.20802,0.21036
2800.13649,0.21083
2802.06496,0.21030
2803.99343,0.20722
2805.92190,0.20529
2807.85037,0.20791
2809.77884,0.20981
2811.70731,0.20889
2813.63577,0.20965
2815.56424,0.21125
2817.49271,0.20999
2819.42118,0.20656
2821.34965,0.20348
2823.27812,0.20460
2825.20659,0.20974
2827.13505,0.21198
2829.06352,0.20947
2830.99199,0.20687
2832.92046,0.20577
2834.84893,0.20619
2836.77740,0.20885
2838.70587,0.21089
2840.63433,0.21041
2842.56280,0.21035
2844.49127,0.21052
2846.41974,0.20912
2848.34821,0.20952
2850.27668,0.21249
2852.20515,0.21369
2854.13362,0.21150
2856.06208,0.20811
2857.99055,0.20642
2859.91902,0.20604
2861.84749,0.20617
2863.77596,0.20672
2865.70443,0.20601
2867.63290,0.20561
2869.56136,0.20629
2871.48983,0.20591
2873.41830,0.20533
2875.34677,0.20713
2877.27524,0.20957
2879.20371,0.20786
2881.13218,0.20334
2883.06065,0.20097
2884.98911,0.20225
2886.91758,0.20550
2888.84605,0.20754
2890.77452,0.20819
2892.70299,0.20809
2894.63146,0.20490
2896.55993,0.20078
2898.48839,0.20120
2900.41686,0.20513
2902.34533,0.20662
2904.27380,0.20297
2906.20227,0.19973
2908.13074,0.20259
2910.05921,0.20831
2911.98768,0.21087
2913.91614,0.20654
2915.84461,0.19863
2917.77308,0.19507
2919.70155,0.19604
2921.63002,0.19876
2923.55849,0.19973
2925.48696,0.19458
2927.41542,0.19144
2929.34389,0.19759
2931.27236,0.20504
2933.20083,0.20664
2935.12930,0.19988
2937.05777,0.19110
2938.98624,0.19442
2940.91471,0.20488
2942.84317,0.20710
2944.77164,0.19950
2946.70011,0.18891
2948.62858,0.18610
2950.55705,0.19270
2952.48552,0.19869
2954.41399,0.19949
2956.34245,0.19429
2958.27092,0.19040
2960.19939,0.19695
2962.12786,0.20413
2964.05633,0.20301
2965.98480,0.19961
2967.91327,0.19788
2969.84174,0.20053
2971.77020,0.20671
2973.69867,0.21013
2975.62714,0.20875
2977.55561,0.20260
2979.48408,0.19853
2981.41255,0.20312
2983.34102,0.21055
2985.26948,0.21337
2987.19795,0.20889
2989.12642,0.20370
2991.05489,0.20491
2992.98336,0.20966
2994.91183,0.21345
2996.84030,0.21292
2998.76877,0.21051
3000.69723,0.21173
3002.62570,0.21500
3004.55417,0.21539
3006.48264,0.21049
3008.41111,0.20204
3010.33958,0.18942
3012.26805,0.16640
3014.19651,0.13218
3016.12498,0.10665
3018.05345,0.12154
3019.98192,0.16879
3021.91039,0.20360
3023.83886,0.21350
3025.76733,0.21307
3027.69579,0.20906
3029.62426,0.20842
3031.55273,0.21376
3033.48120,0.21954
3035.40967,0.22160
3037.33814,0.21876
3039.26661,0.21566
3041.19508,0.21588
3043.12354,0.21849
3045.05201,0.22002
3046.98048,0.21572
3048.90895,0.21011
3050.83742,0.20753
3052.76589,0.20335
3054.69436,0.19686
3056.62282,0.19342
3058.55129,0.19837
3060.47976,0.20882
3062.40823,0.21559
3064.33670,0.21209
3066.26517,0.20301
3068.19364,0.20379
3070.12211,0.21257
3072.05057,0.21450
3073.97904,0.20777
3075.90751,0.20047
3077.83598,0.20351
3079.76445,0.21274
3081.69292,0.21188
3083.62139,0.19886
3085.54985,0.18923
3087.47832,0.19619
3089.40679,0.20987
3091.33526,0.21398
3093.26373,0.20501
3095.19220,0.19531
3097.12067,0.19878
3099.04914,0.20630
3100.97760,0.20429
3102.90607,0.19651
3104.83454,0.19672
3106.76301,0.20742
3108.69148,0.21619
3110.61995,0.21420
3112.54842,0.20782
3114.47688,0.21052
3116.40535,0.21586
3118.33382,0.21159
3120.26229,0.20241
3122.19076,0.19729
3124.11923,0.20191
3126.04770,0.21084
3127.97617,0.21516
3129.90463,0.21435
3131.83310,0.21311
3133.76157,0.21479
3135.69004,0.21707
3137.61851,0.21631
3139.54698,0.21386
3141.47545,0.21419
3143.40391,0.21731
3145.33238,0.21880
3147.26085,0.21505
3149.18932,0.21208
3151.11779,0.21555
3153.04626,0.21659
3154.97473,0.21279
3156.90320,0.21274
3158.83166,0.21615
3160.76013,0.21764
3162.68860,0.21667
3164.61707,0.21560
3166.54554,0.21801
3168.47401,0.22292
3170.40248,0.22522
3172.33094,0.22279
3174.25941,0.21619
3176.18788,0.21189
3178.11635,0.21473
3180.04482,0.21887
3181.97329,0.22075
3183.90176,0.22186
3185.83022,0.21930
3187.75869,0.21277
3189.68716,0.20996
3191.61563,0.21369
3193.54410,0.21957
3195.47257,0.22465
3197.40104,0.22680
3199.32951,0.22238
3201.25797,0.21283
3203.18644,0.20891
3205.11491,0.21521
3207.04338,0.22029
3208.97185,0.21679
3210.90032,0.21374
3212.82879,0.21822
3214.75725,0.22412
3216.68572,0.22559
3218.61419,0.22427
3220.54266,0.22192
3222.47113,0.21809
3224.39960,0.21287
3226.32807,0.20886
3228.25654,0.20876
3230.18500,0.21072
3232.11347,0.21427
3234.04194,0.22071
3235.97041,0.22374
3237.89888,0.21983
3239.82735,0.21466
3241.75582,0.20991
3243.68428,0.20569
3245.61275,0.20524
3247.54122,0.20895
3249.46969,0.21490
3251.39816,0.21800
3253.32663,0.21369
3255.25510,0.20848
3257.18357,0.21034
3259.11203,0.21316
3261.04050,0.20941
3262.96897,0.20620
3264.89744,0.21061
3266.82591,0.21660
3268.75438,0.21862
3270.68285,0.21870
3272.61131,0.21932
3274.53978,0.22068
3276.46825,0.21938
3278.39672,0.21428
3280.32519,0.21177
3282.25366,0.21535
3284.18213,0.21907
3286.11060,0.21669
3288.03906,0.21420
3289.96753,0.21854
3291.89600,0.22273
3293.82447,0.22080
3295.75294,0.21557
3297.68141,0.20998
3299.60988,0.20702
3301.53834,0.20771
3303.46681,0.20858
3305.39528,0.20902
3307.32375,0.21265
3309.25222,0.21657
3311.18069,0.21711
3313.10916,0.21639
3315.03763,0.21242
3316.96609,0.20897
3318.89456,0.21305
3320.82303,0.21664
3322.75150,0.21312
3324.67997,0.20725
3326.60844,0.20423
3328.53691,0.20713
3330.46537,0.21387
3332.39384,0.21868
3334.32231,0.21970
3336.25078,0.21833
3338.17925,0.21501
3340.10772,0.21169
3342.03619,0.21235
3343.96466,0.21705
3345.89312,0.21916
3347.82159,0.21532
3349.75006,0.21155
3351.67853,0.21169
3353.60700,0.21309
3355.53547,0.21299
3357.46394,0.21423
3359.39240,0.21967
3361.32087,0.22366
3363.24934,0.22461
3365.17781,0.22445
3367.10628,0.21962
3369.03475,0.21437
3370.96322,0.21290
3372.89168,0.20959
3374.82015,0.20571
3376.74862,0.20705
3378.67709,0.21099
3380.60556,0.21340
3382.53403,0.21673
3384.46250,0.21981
3386.39097,0.21561
3388.31943,0.20822
3390.24790,0.20769
3392.17637,0.21201
3394.10484,0.21116
3396.03331,0.20517
3397.96178,0.20453
3399.89025,0.20760
3401.81871,0.20606
3403.74718,0.20654
3405.67565,0.21187
3407.60412,0.21261
3409.53259,0.21004
3411.46106,0.21062
3413.38953,0.21136
3415.31800,0.21045
3417.24646,0.21100
3419.17493,0.21205
3421.10340,0.21075
3423.03187,0.21064
3424.96034,0.21389
3426.88881,0.21627
3428.81728,0.21524
3430.74574,0.21101
3432.67421,0.20586
3434.60268,0.20387
3436.53115,0.20609
3438.45962,0.20899
3440.38809,0.20831
3442.31656,0.20421
3444.24503,0.20414
3446.17349,0.21223
3448.10196,0.21861
3450.03043,0.21510
3451.95890,0.20848
3453.88737,0.20727
3455.81584,0.20802
3457.74431,0.20308
3459.67277,0.19735
3461.60124,0.19475
3463.52971,0.19129
3465.45818,0.18976
3467.38665,0.19184
3469.31512,0.19233
3471.24359,0.19122
3473.17206,0.19337
3475.10052,0.19697
3477.02899,0.19578
3478.95746,0.19155
3480.88593,0.19111
3482.81440,0.19345
3484.74287,0.19341
3486.67134,0.19407
3488.59980,0.19640
3490.52827,0.19535
3492.45674,0.19222
3494.38521,0.18830
3496.31368,0.18204
3498.24215,0.17801
3500.17062,0.18216
3502.09909,0.19101
3504.02755,0.19280
3505.95602,0.18890
3507.88449,0.18919
3509.81296,0.18807
3511.74143,0.18198
3513.66990,0.18100
3515.59837,0.18451
3517.52683,0.18516
3519.45530,0.18531
3521.38377,0.18629
3523.31224,0.18478
3525.24071,0.18502
3527.16918,0.18807
3529.09765,0.18307
3531.02611,0.17203
3532.95458,0.16892
3534.88305,0.17313
3536.81152,0.17600
3538.73999,0.17511
3540.66846,0.17232
3542.59693,0.16932
3544.52540,0.16636
3546.45386,0.16654
3548.38233,0.17034
3550.31080,0.17240
3552.23927,0.17257
3554.16774,0.17132
3556.09621,0.16919
3558.02468,0.16937
3559.95314,0.17181
3561.88161,0.17446
3563.81008,0.17743
3565.73855,0.18370
3567.66702,0.18888
3569.59549,0.18246
3571.52396,0.17273
3573.45243,0.16885
3575.38089,0.16804
3577.30936,0.16397
3579.23783,0.16015
3581.16630,0.16276
3583.09477,0.16859
3585.02324,0.17241
3586.95171,0.17122
3588.88017,0.16326
3590.80864,0.15507
3592.73711,0.15139
3594.66558,0.15230
3596.59405,0.15350
3598.52252,0.15424
3600.45099,0.15717
3602.37946,0.15633
3604.30792,0.15297
3606.23639,0.15646
3608.16486,0.16382
3610.09333,0.16512
3612.02180,0.16288
3613.95027,0.16223
3615.87874,0.16286
3617.80720,0.16278
3619.73567,0.15863
3621.66414,0.15027
3623.59261,0.14672
3625.52108,0.15425
3627.44955,0.16967
3629.37802,0.17305
3631.30649,0.15809
3633.23495,0.14605
3635.16342,0.14118
3637.09189,0.14134
3639.02036,0.14109
3640.94883,0.13946
3642.87730,0.14258
3644.80577,0.15166
3646.73423,0.16131
3648.66270,0.16397
3650.59117,0.15322
3652.51964,0.14116
3654.44811,0.13747
3656.37658,0.13914
3658.30505,0.13797
3660.23352,0.13444
3662.16198,0.13200
3664.09045,0.13094
3666.01892,0.13314
3667.94739,0.14202
3669.87586,0.15079
3671.80433,0.14592
3673.73280,0.14338
3675.66126,0.15400
3677.58973,0.15789
3679.51820,0.15089
3681.44667,0.14481
3683.37514,0.14230
3685.30361,0.14198
3687.23208,0.14269
3689.16055,0.14089
3691.08901,0.13468
3693.01748,0.13098
3694.94595,0.13105
3696.87442,0.13143
3698.80289,0.13140
3700.73136,0.13253
3702.65983,0.13439
3704.58829,0.13643
3706.51676,0.13843
3708.44523,0.14100
3710.37370,0.14752
3712.30217,0.15144
3714.23064,0.14633
3716.15911,0.14344
3718.08757,0.14528
3720.01604,0.14572
3721.94451,0.14255
3723.87298,0.13871
3725.80145,0.13718
3727.72992,0.13987
3729.65839,0.14221
3731.58686,0.14057
3733.51532,0.13976
3735.44379,0.14391
3737.37226,0.14672
3739.30073,0.14498
3741.22920,0.14164
3743.15767,0.13989
3745.08614,0.13931
3747.01460,0.13881
3748.94307,0.14090
3750.87154,0.14330
3752.80001,0.13714
3754.72848,0.12651
3756.65695,0.12124
3758.58542,0.12510
3760.51389,0.12920
3762.44235,0.12747
3764.37082,0.12492
3766.29929,0.12391
3768.22776,0.12663
3770.15623,0.13111
3772.08470,0.12950
3774.01317,0.12310
3775.94163,0.11955
3777.87010,0.12256
3779.79857,0.12536
3781.72704,0.12234
3783.65551,0.12078
3785.58398,0.12488
3787.51245,0.12930
3789.44092,0.12950
3791.36938,0.12729
3793.29785,0.12722
3795.22632,0.13334
3797.15479,0.13939
3799.08326,0.13871
3801.01173,0.13865
3802.94020,0.13890
3804.86866,0.13748
3806.79713,0.13569
3808.72560,0.13000
3810.65407,0.12688
3812.58254,0.13020
3814.51101,0.13563
3816.43948,0.13825
3818.36795,0.13970
3820.29641,0.14521
3822.22488,0.14507
3824.15335,0.13847
3826.08182,0.13770
3828.01029,0.13661
3829.93876,0.13081
3831.86723,0.13022
3833.79569,0.13697
3835.72416,0.14519
3837.65263,0.15384
3839.58110,0.15335
3841.50957,0.14148
3843.43804,0.13546
3845.36651,0.13670
3847.29498,0.13400
3849.22344,0.12897
3851.15191,0.12929
3853.08038,0.13318
3855.00885,0.12856
3856.93732,0.12252
3858.86579,0.12084
3860.79426,0.12476
3862.72272,0.13004
3864.65119,0.12640
3866.57966,0.12044
3868.50813,0.12478
3870.43660,0.13746
3872.36507,0.14263
3874.29354,0.13597
3876.22200,0.12746
3878.15047,0.12477
3880.07894,0.12378
3882.00741,0.11883
3883.93588,0.11797
3885.86435,0.12238
3887.79282,0.12509
3889.72129,0.12922
3891.64975,0.13368
3893.57822,0.13173
3895.50669,0.12674
3897.43516,0.12416
3899.36363,0.12898
3901.29210,0.14126
3903.22057,0.14744
3905.14903,0.13742
3907.07750,0.12469
3909.00597,0.11864
3910.93444,0.11715
3912.86291,0.11864
3914.79138,0.11910
3916.71985,0.11443
3918.64832,0.10829
3920.57678,0.10913
3922.50525,0.11780
3924.43372,0.12520
3926.36219,0.12147
3928.29066,0.11285
3930.21913,0.10955
3932.14760,0.10861
3934.07606,0.10821
3936.00453,0.11265
3937.93300,0.11813
3939.86147,0.12114
3941.78994,0.12346
3943.71841,0.12232
3945.64688,0.11728
3947.57535,0.11539
3949.50381,0.11790
3951.43228,0.11819
3953.36075,0.11288
3955.28922,0.10723
3957.21769,0.10495
3959.14616,0.10351
3961.07463,0.10462
3963.00309,0.10901
3964.93156,0.11253
3966.86003,0.11497
3968.78850,0.11730
3970.71697,0.11804
3972.64544,0.11615
3974.57391,0.11212
3976.50238,0.10607
3978.43084,0.10040
3980.35931,0.09761
3982.28778,0.09771
3984.21625,0.10204
3986.14472,0.10861
3988.07319,0.11150
3990.00166,0.10880
3991.93012,0.10472
3993.85859,0.10422
3995.78706,0.10536
3997.71553,0.10390
3999.64400,0.10171
4001.57247,0.10369
4003.50094,0.10717
4005.42941,0.10588
4007.35787,0.10181
4009.28634,0.09854
4011.21481,0.09833
4013.14328,0.10314
4015.07175,0.10758
4017.00022,0.10336
4018.92869,0.09468
4020.85715,0.09586
4022.78562,0.10386
4024.71409,0.10279
4026.64256,0.09595
4028.57103,0.09520
4030.49950,0.09700
4032.42797,0.09725
4034.35644,0.10081
4036.28490,0.10610
4038.21337,0.10635
4040.14184,0.10152
4042.07031,0.09744
4043.99878,0.09838
4045.92725,0.10082
4047.85572,0.10248
4049.78418,0.10571
4051.71265,0.10702
4053.64112,0.10412
4055.56959,0.09913
4057.49806,0.09250
4059.42653,0.08816
4061.35500,0.08679
4063.28346,0.08277
4065.21193,0.07958
4067.14040,0.08099
4069.06887,0.08339
4070.99734,0.08815
4072.92581,0.09425
4074.85428,0.09830
4076.78275,0.10050
4078.71121,0.09807
4080.63968,0.09236
4082.56815,0.08889
4084.49662,0.09015
4086.42509,0.09417
4088.35356,0.09504
4090.28203,0.09514
4092.21049,0.10058
4094.13896,0.10387
4096.06743,0.09820
4097.99590,0.09147
4099.92437,0.08808
4101.85284,0.08732
4103.78131,0.08955
4105.70978,0.08969
4107.63824,0.08878
4109.56671,0.09089
4111.49518,0.09152
4113.42365,0.09004
4115.35212,0.08934
4117.28059,0.08834
4119.20906,0.08826
4121.13752,0.08871
4123.06599,0.08611
4124.99446,0.08384
4126.92293,0.08525
4128.85140,0.08873
4130.77987,0.09316
4132.70834,0.09641
4134.63681,0.09700
4136.56527,0.09363
4138.49374,0.08585
4140.42221,0.07921
4142.35068,0.07889
4144.27915,0.08086
4146.20762,0.07819
4148.13609,0.07483
4150.06455,0.07786
4151.99302,0.08084
4153.92149,0.07665
4155.84996,0.07226
4157.77843,0.07525
4159.70690,0.08268
4161.63537,0.08605
4163.56384,0.08223
4165.49230,0.07883
4167.42077,0.08129
4169.34924,0.08488
4171.27771,0.08564
4173.20618,0.08388
4175.13465,0.08012
4177.06312,0.07553
4178.99158,0.07458
4180.92005,0.08206
4182.84852,0.08974
4184.77699,0.08790
4186.70546,0.08379
4188.63393,0.08266
4190.56240,0.08076
4192.49087,0.08080
4194.41933,0.08447
4196.34780,0.08372
4198.27627,0.07467
4200.20474,0.06779
4202.13321,0.06878
4204.06168,0.06802
4205.99015,0.06418
4207.91861,0.06645
4209.84708,0.07484
4211.77555,0.08100
4213.70402,0.07880
4215.63249,0.07085
4217.56096,0.06701
4219.48943,0.07093
4221.41789,0.07454
4223.34636,0.07067
4225.27483,0.06266
4227.20330,0.05855
4229.13177,0.06113
4231.06024,0.06628
4232.98871,0.07094
4234.91718,0.07295
4236.84564,0.07107
4238.77411,0.07021
4240.70258,0.06925
4242.63105,0.06293
4244.55952,0.05743
4246.48799,0.05752
4248.41646,0.05972
4250.34492,0.06258
4252.27339,0.06513
4254.20186,0.06784
4256.13033,0.07118
4258.05880,0.07259
4259.98727,0.07267
4261.91574,0.07110
4263.84421,0.06697
4265.77267,0.06348
4267.70114,0.06264
4269.62961,0.06325
4271.55808,0.06271
4273.48655,0.06283
4275.41502,0.06807
4277.34349,0.07338
4279.27195,0.06736
4281.20042,0.05442
4283.12889,0.05361
4285.05736,0.06364
4286.98583,0.06694
4288.91430,0.06159
4290.84277,0.05455
4292.77124,0.05151
4294.69970,0.05554
4296.62817,0.06045
4298.55664,0.06040
4300.48511,0.05828
4302.41358,0.05790
4304.34205,0.05719
4306.27052,0.05508
4308.19898,0.05571
4310.12745,0.05927
4312.05592,0.06102
4313.98439,0.05756
4315.91286,0.05161
4317.84133,0.04983
4319.76980,0.05083
4321.69827,0.04959
4323.62673,0.04714
4325.55520,0.04417
4327.48367,0.04295
4329.41214,0.04474
4331.34061,0.04650
4333.26908,0.04809
4335.19755,0.04794
4337.12601,0.04807
4339.05448,0.04961
4340.98295,0.04548
4342.91142,0.04177
4344.83989,0.04561
4346.76836,0.04627
4348.69683,0.03978
4350.62530,0.03552
4352.55376,0.03825
4354.48223,0.04151
4356.41070,0.03969
4358.33917,0.04088
4360.26764,0.04804
4362.19611,0.05117
4364.12458,0.04833
4366.05304,0.04430
4367.98151,0.04174
4369.90998,0.04097
4371.83845,0.04154
4373.76692,0.04492
4375.69539,0.04723
4377.62386,0.04492
4379.55232,0.04203
4381.48079,0.04034
4383.40926,0.03887
4385.33773,0.03658
4387.26620,0.03408
4389.19467,0.03506
4391.12314,0.03913
4393.05161,0.04158
4394.98007,0.03880
4396.90854,0.03365
4398.83701,0.03333
4400.76548,0.03397
4402.69395,0.03331
4404.62242,0.03989
4406.55089,0.04565
4408.47935,0.04031
4410.40782,0.03453
4412.33629,0.03505
4414.26476,0.03848
4416.19323,0.04232
4418.12170,0.04004
4420.05017,0.03173
4421.97864,0.02691
4423.90710,0.02382
4425.83557,0.02043
4427.76404,0.02339
4429.69251,0.02386
4431.62098,0.01589
4433.54945,0.01112
4435.47792,0.00946
4437.40638,0.00902
4439.33485,0.01511
4441.26332,0.02206
4443.19179,0.02362
4445.12026,0.02381
4447.04873,0.02765
4448.97720,0.03009
4450.90567,0.02480
4452.83413,0.01983
4454.76260,0.01952
4456.69107,0.01886
4458.61954,0.02226
4460.54801,0.03081
4462.47648,0.03486
4464.40495,0.03066
4466.33341,0.02487
4468.26188,0.02454
4470.19035,0.02942
4472.11882,0.03412
4474.04729,0.03174
4475.97576,0.02591
4477.90423,0.02500
4479.83270,0.02586
4481.76116,0.02803
4483.68963,0.03051
4485.61810,0.02763
4487.54657,0.02525
4489.47504,0.02654
4491.40351,0.02466
4493.33198,0.02444
4495.26044,0.03019
4497.18891,0.02960
4499.11738,0.02194
4501.04585,0.01546
4502.97432,0.01067
4504.90279,0.01255
4506.83126,0.01510
4508.75973,0.01041
4510.68819,0.01198
4512.61666,0.02303
4514.54513,0.03065
4516.47360,0.03046
4518.40207,0.02437
4520.33054,0.01550
4522.25901,0.00877
4524.18747,0.00699
4526.11594,0.00715
4528.04441,0.00734
4529.97288,0.00891
4531.90135,0.00835
4533.82982,0.00512
4535.75829,0.00794
4537.68676,0.01932
4539.61522,0.02797
4541.54369,0.02775
4543.47216,0.02393
4545.40063,0.02055
4547.32910,0.02120
4549.25757,0.02280
4551.18604,0.01863
4553.11450,0.01402
4555.04297,0.01357
4556.97144,0.01640
4558.89991,0.01887
4560.82838,0.01376
4562.75685,0.00660
4564.68532,0.00417
4566.61378,0.00184
4568.54225,0.00097
4570.47072,0.00693
4572.39919,0.01634
4574.32766,0.02170
4576.25613,0.02064
4578.18460,0.01416
4580.11307,0.00806
4582.04153,0.00744
4583.97000,0.00895
4585.89847,0.01272
4587.82694,0.02156
4589.75541,0.03059
4591.68388,0.02980
4593.61235,0.02211
4595.54081,0.01945
4597.46928,0.02056
4599.39775,0.02107
4601.32622,0.01918
4603.25469,0.01705
4605.18316,0.02131
4607.11163,0.02521
4609.04010,0.02083
4610.96856,0.01521
4612.89703,0.01225
4614.82550,0.00670
4616.75397,0.00363
4618.68244,0.01124
4620.61091,0.01964
4622.53938,0.01865
4624.46784,0.01358
4626.39631,0.01135
4628.32478,0.01038
4630.25325,0.00878
4632.18172,0.01254
4634.11019,0.02154
4636.03866,0.02498
4637.96713,0.02129
4639.89559,0.01629
4641.82406,0.00828
4643.75253,-0.00294
4645.68100,-0.00629
4647.60947,0.00235
4649.53794,0.01128
4651.46641,0.01224
4653.39487,0.01195
4655.32334,0.02141
4657.25181,0.03187
4659.18028,0.02689
4661.10875,0.01334
4663.03722,0.00628
4664.96569,0.00812
4666.89416,0.01093
4668.82262,0.00990
4670.75109,0.01416
4672.67956,0.02808
4674.60803,0.03660
4676.53650,0.02966
4678.46497,0.01987
4680.39344,0.01627
4682.32190,0.01484
4684.25037,0.01637
4686.17884,0.01731
4688.10731,0.01253
4690.03578,0.00954
4691.96425,0.01343
4693.89272,0.01796
4695.82119,0.01375
4697.74965,0.00389
4699.67812,0.00215
4701.60659,0.00648
4703.53506,0.00389
4705.46353,-0.00443
4707.39200,-0.00743
4709.32047,-0.00188
4711.24893,0.00677
4713.17740,0.01443
4715.10587,0.01854
4717.03434,0.01762
4718.96281,0.01303
4720.89128,0.00467
4722.81975,-0.00073
4724.74821,0.00593
4726.67668,0.01770
4728.60515,0.02421
4730.53362,0.02299
4732.46209,0.01051
4734.39056,-0.00810
4736.31903,-0.01468
4738.24750,-0.00618
4740.17596,0.00003
4742.10443,-0.00071
4744.03290,0.00081
4745.96137,0.00489
4747.88984,0.00788
4749.81831,0.00730
4751.74678,0.00463
4753.67524,0.00659
4755.60371,0.00615
4757.53218,-0.00201
4759.46065,-0.00304
4761.38912,0.00145
4763.31759,-0.00007
4765.24606,0.00104
4767.17453,0.00737
4769.10299,0.01686
4771.03146,0.03088
4772.95993,0.03549
4774.88840,0.02872
4776.81687,0.02524
4778.74534,0.02288
4780.67381,0.01839
4782.60227,0.02016
4784.53074,0.02568
4786.45921,0.02156
4788.38768,0.00703
4790.31615,0.00097
4792.24462,0.00485
4794.17309,-0.00481
4796.10156,-0.01939
4798.03002,-0.01126
4799.95849,0.00633
4801.88696,0.01173
4803.81543,0.01263
4805.74390,0.01635
4807.67237,0.01574
4809.60084,0.01071
4811.52930,0.00449
4813.45777,0.00299
4815.38624,0.00958
4817.31471,0.00671
4819.24318,-0.00997
4821.17165,-0.02019
4823.10012,-0.01313
4825.02859,0.00339
4826.95705,0.01084
4828.88552,0.00432
4830.81399,0.00009
4832.74246,0.00576
4834.67093,0.00678
4836.59940,-0.00434
4838.52787,-0.01429
4840.45633,-0.01381
4842.38480,-0.00355
4844.31327,0.01040
4846.24174,0.01865
4848.17021,0.01847
4850.09868,0.01626
4852.02715,0.01384
4853.95562,0.00260
4855.88408,-0.01115
4857.81255,-0.01172
4859.74102,-0.00287
4861.66949,0.00169
4863.59796,-0.00101
4865.52643,-0.00042
4867.45490,0.01139
4869.38336,0.01999
4871.31183,0.01203
4873.24030,0.00336
4875.16877,0.00638
4877.09724,0.01323
4879.02571,0.01822
4880.95418,0.01205
4882.88265,-0.00454
4884.81111,-0.01016
4886.73958,-0.00463
4888.66805,-0.00584
4890.59652,-0.00562
4892.52499,0.00969
4894.45346,0.02315
4896.38193,0.01691
4898.31039,0.00064
4900.23886,-0.00854
4902.16733,-0.01128
4904.09580,-0.01098
4906.02427,-0.00441
4907.95274,0.00417
4909.88121,0.01010
4911.80967,0.01389
4913.73814,0.01857
4915.66661,0.02325
4917.59508,0.02597
4919.52355,0.02930
4921.45202,0.02694
4923.38049,0.02086
4925.30896,0.02374
4927.23742,0.02845
4929.16589,0.02516
4931.09436,0.01941
4933.02283,0.01909
4934.95130,0.02466
4936.87977,0.03215
4938.80824,0.03719
4940.73670,0.03087
4942.66517,0.01672
4944.59364,0.01083
4946.52211,0.00860
4948.45058,0.00460
4950.37905,0.00511
4952.30752,0.00060
4954.23599,-0.00929
4956.16445,-0.01031
4958.09292,-0.00358
4960.02139,0.00322
4961.94986,0.00833
4963.87833,0.01317
4965.80680,0.01731
4967.73527,0.02253
4969.66373,0.02323
4971.59220,0.00705
4973.52067,-0.01145
4975.44914,-0.00976
4977.37761,-0.00139
4979.30608,-0.00068
4981.23455,0.00301
4983.16302,0.00940
4985.09148,0.00997
4987.01995,0.00281
4988.94842,-0.00869
4990.87689,-0.00765
4992.80536,0.01327
4994.73383,0.03084
4996.66230,0.02899
4998.59076,0.02650
5000.51923,0.02847
5002.44770,0.02178
5004.37617,0.01669
5006.30464,0.01676
5008.23311,0.01051
5010.16158,0.00486
5012.09005,0.00909
5014.01851,0.01874
5015.94698,0.02478
5017.87545,0.01761
5019.80392,0.00047
5021.73239,-0.00208
5023.66086,0.01772
5025.58933,0.03219
5027.51779,0.02773
5029.44626,0.02746
5031.37473,0.04351
5033.30320,0.05527
5035.23167,0.05207
5037.16014,0.04302
5039.08861,0.02902
5041.01708,0.01842
5042.94554,0.02352
5044.87401,0.02927
5046.80248,0.01973
5048.73095,0.00812
5050.65942,0.00987
5052.58789,0.01839
5054.51636,0.01752
5056.44482,0.00551
5058.37329,-0.00212
5060.30176,0.00172
5062.23023,0.00784
5064.15870,0.01135
5066.08717,0.01867
5068.01564,0.02759
5069.94410,0.02732
5071.87257,0.02236
5073.80104,0.02147
5075.72951,0.02719
5077.65798,0.03431
5079.58645,0.03369
5081.51492,0.03289
5083.44339,0.03885
5085.37185,0.04397
5087.30032,0.03989
5089.22879,0.03555
5091.15726,0.04469
5093.08573,0.05413
5095.01420,0.05013
5096.94267,0.04006
5098.87113,0.03419
5100.79960,0.02337
5102.72807,0.00500
5104.65654,0.00448
5106.58501,0.01781
5108.51348,0.02427
5110.44195,0.02471
5112.37042,0.01519
5114.29888,0.00749
5116.22735,0.02307
5118.15582,0.04290
5120.08429,0.03840
5122.01276,0.02152
5123.94123,0.01847
5125.86970,0.02636
5127.79816,0.02897
5129.72663,0.02885
5131.65510,0.02758
5133.58357,0.02177
5135.51204,0.02948
5137.44051,0.05156
5139.36898,0.05959
5141.29745,0.04609
5143.22591,0.02413
5145.15438,0.00864
5147.08285,0.00224
5149.01132,-0.00212
5150.93979,0.00123
5152.86826,0.01293
5154.79673,0.02272
5156.72519,0.03063
5158.65366,0.04079
5160.58213,0.05120
5162.51060,0.05782
5164.43907,0.05731
5166.36754,0.05895
5168.29601,0.06671
5170.22448,0.06147
5172.15294,0.04275
5174.08141,0.02809
5176.00988,0.02353
5177.93835,0.02951
5179.86682,0.03813
5181.79529,0.04192
5183.72376,0.03490
5185.65222,0.02046
5187.58069,0.01202
5189.50916,0.00727
5191.43763,0.00625
5193.36610,0.01235
5195.29457,0.01668
5197.22304,0.02389
5199.15151,0.04574
5201.07997,0.06744
5203.00844,0.07397
5204.93691,0.06910
5206.86538,0.04950
5208.79385,0.02520
5210.72232,0.02488
5212.65079,0.03492
5214.57925,0.03722
5216.50772,0.04914
5218.43619,0.07324
5220.36466,0.09001
5222.29313,0.08908
5224.22160,0.07938
5226.15007,0.07624
5228.07854,0.07376
5230.00700,0.07056
5231.93547,0.07475
5233.86394,0.07061
5235.79241,0.04646
5237.72088,0.02948
5239.64935,0.04160
5241.57782,0.06381
5243.50628,0.06881
5245.43475,0.05624
5247.36322,0.04872
5249.29169,0.04312
5251.22016,0.03159
5253.14863,0.03008
5255.07710,0.03769
5257.00556,0.04249
5258.93403,0.04266
5260.86250,0.03301
5262.79097,0.01363
5264.71944,0.00605
5266.64791,0.01391
5268.57638,0.02357
5270.50485,0.03522
5272.43331,0.04454
5274.36178,0.05269
5276.29025,0.06425
5278.21872,0.06888
5280.14719,0.05974
5282.07566,0.04734
5284.00413,0.04045
5285.93259,0.03197
5287.86106,0.02034
5289.78953,0.01933
5291.71800,0.02831
5293.64647,0.03348
5295.57494,0.04106
5297.50341,0.06272
5299.43188,0.08313
5301.36034,0.07095
5303.28881,0.03949
5305.21728,0.02884
5307.14575,0.04085
5309.07422,0.05236
5311.00269,0.04738
5312.93116,0.03652
5314.85962,0.04177
5316.78809,0.06279
5318.71656,0.07378
5320.64503,0.06098
5322.57350,0.04147
5324.50197,0.04225
5326.43044,0.06115
5328.35891,0.06977
5330.28737,0.06812
5332.21584,0.06876
5334.14431,0.07417
5336.07278,0.08065
5338.00125,0.07964
5339.92972,0.07700
5341.85819,0.07920
5343.78665,0.08864
5345.71512,0.09368
5347.64359,0.08056
5349.57206,0.07045
5351.50053,0.07408
5353.42900,0.08003
5355.35747,0.08732
5357.28594,0.09300
5359.21440,0.08608
5361.14287,0.07510
5363.07134,0.07623
5364.99981,0.08772
5366.92828,0.08918
5368.85675,0.07198
5370.78522,0.05410
5372.71368,0.04270
5374.64215,0.03947
5376.57062,0.06237
5378.49909,0.09324
5380.42756,0.10297
5382.35603,0.09966
5384.28450,0.08366
5386.21297,0.04744
5388.14143,0.01242
5390.06990,0.01045
5391.99837,0.04193
5393.92684,0.05582
5395.85531,0.03840
5397.78378,0.03938
5399.71225,0.05162
5401.64071,0.05993
5403.56918,0.07071
5405.49765,0.07615
5407.42612,0.07946
5409.35459,0.08333
5411.28306,0.07772
5413.21153,0.07293
5415.13999,0.07839
5417.06846,0.07248
5418.99693,0.05297
5420.92540,0.04748
5422.85387,0.06660
5424.78234,0.08370
5426.71081,0.07595
5428.63928,0.05505
5430.56774,0.03662
5432.49621,0.02710
5434.42468,0.04057
5436.35315,0.05770
5438.28162,0.05121
5440.21009,0.03350
5442.13856,0.02638
5444.06702,0.04293
5445.99549,0.07070
5447.92396,0.07557
5449.85243,0.05433
5451.78090,0.04104
5453.70937,0.04197
5455.63784,0.03598
5457.56631,0.02529
5459.49477,0.02837
5461.42324,0.03808
5463.35171,0.04558
5465.28018,0.06211
5467.20865,0.08536
5469.13712,0.10015
5471.06559,0.10382
5472.99405,0.09082
5474.92252,0.06837
5476.85099,0.06970
5478.77946,0.08620
5480.70793,0.09130
5482.63640,0.07452
5484.56487,0.03740
5486.49334,0.01927
5488.42180,0.03757
5490.35027,0.04563
5492.27874,0.02461
5494.20721,0.02184
5496.13568,0.05243
5498.06415,0.07893
5499.99262,0.08731
5501.92108,0.08533
5503.84955,0.06722
5505.77802,0.04121
5507.70649,0.03780
5509.63496,0.06184
5511.56343,0.07820
5513.49190,0.06698
5515.42037,0.05369
5517.34883,0.05067
5519.27730,0.05147
5521.20577,0.07764
5523.13424,0.12038
5525.06271,0.12700
5526.99118,0.09421
5528.91965,0.06566
5530.84811,0.06085
5532.77658,0.06160
5534.70505,0.05725
5536.63352,0.05837
5538.56199,0.07356
5540.49046,0.09974
5542.41893,0.12378
5544.34740,0.13940
5546.27586,0.14881
5548.20433,0.14574
5550.13280,0.12948
5552.06127,0.11200
5553.98974,0.11104
5555.91821,0.13115
5557.84668,0.14642
5559.77514,0.13096
5561.70361,0.08879
5563.63208,0.04914
5565.56055,0.04381
5567.48902,0.06628
5569.41749,0.08055
5571.34596,0.07871
5573.27443,0.07510
5575.20289,0.07423
5577.13136,0.08031
5579.05983,0.08091
5580.98830,0.05512
5582.91677,0.03305
5584.84524,0.04374
5586.77371,0.05612
5588.70217,0.05310
5590.63064,0.04712
5592.55911,0.03493
5594.48758,0.03468
5596.41605,0.06516
5598.34452,0.08648
5600.27299,0.08431
5602.20145,0.08640
5604.12992,0.08276
5606.05839,0.06533
5607.98686,0.05381
5609.91533,0.06789
5611.84380,0.10319
5613.77227,0.11852
5615.70074,0.10294
5617.62920,0.09119
5619.55767,0.10730
5621.48614,0.13807
5623.41461,0.13481
5625.34308,0.08785
5627.27155,0.05311
5629.20002,0.05563
5631.12848,0.07237
5633.05695,0.09655
5634.98542,0.12410
5636.91389,0.12722
5638.84236,0.09552
5640.77083,0.06712
5642.69930,0.06424
5644.62777,0.05963
5646.55623,0.03996
5648.48470,0.01850
5650.41317,0.00090
5652.34164,0.00617
5654.27011,0.04323
5656.19858,0.07114
5658.12705,0.06503
5660.05551,0.05402
5661.98398,0.05379
5663.91245,0.05286
5665.84092,0.06307
5667.76939,0.08473
5669.69786,0.09513
5671.62633,0.10042
5673.55480,0.10526
5675.48326,0.09820
5677.41173,0.09113
5679.34020,0.08831
5681.26867,0.08194
5683.19714,0.08577
5685.12561,0.10430
5687.05408,0.10746
5688.98254,0.08027
5690.91101,0.05839
5692.83948,0.05770
5694.76795,0.06643
5696.69642,0.08214
5698.62489,0.08221
5700.55336,0.05197
5702.48183,0.01638
5704.41029,0.00690
5706.33876,0.03679
5708.26723,0.09054
5710.19570,0.13605
5712.12417,0.15149
5714.05264,0.13631
5715.98111,0.10236
5717.90957,0.06006
5719.83804,0.03199
5721.76651,0.04791
5723.69498,0.08610
5725.62345,0.09969
5727.55192,0.09578
5729.48039,0.09016
5731.40886,0.07677
5733.33732,0.06626
5735.26579,0.06756
5737.19426,0.07034
5739.12273,0.06691
5741.05120,0.05773
5742.97967,0.04499
5744.90814,0.03807
5746.83660,0.04429
5748.76507,0.07307
5750.69354,0.10785
5752.62201,0.09961
5754.55048,0.07170
5756.47895,0.07431
5758.40742,0.09989
5760.33588,0.12540
5762.26435,0.13351
5764.19282,0.13468
5766.12129,0.13485
5768.04976,0.11296
5769.97823,0.09059
5771.90670,0.08801
5773.83517,0.07375
5775.76363,0.05551
5777.69210,0.06369
5779.62057,0.08236
5781.54904,0.09123
5783.47751,0.07969
5785.40598,0.05671
5787.33445,0.05810
5789.26291,0.07544
5791.19138,0.06219
5793.11985,0.02858
5795.04832,0.01723
5796.97679,0.02127
5798.90526,0.03078
5800.83373,0.06512
5802.76220,0.11116
5804.69066,0.13236
5806.61913,0.13067
5808.54760,0.11799
5810.47607,0.08476
5812.40454,0.05717
5814.33301,0.06646
5816.26148,0.07874
5818.18994,0.06497
5820.11841,0.05594
5822.04688,0.07593
5823.97535,0.09544
5825.90382,0.08011
5827.83229,0.05033
5829.76076,0.05752
5831.68923,0.07472
5833.61769,0.04752
5835.54616,0.01661
5837.47463,0.03336
5839.40310,0.06398
5841.33157,0.06585
5843.26004,0.06722
5845.18851,0.08518
5847.11697,0.10109
5849.04544,0.10552
5850.97391,0.09521
5852.90238,0.09944
5854.83085,0.10607
5856.75932,0.08657
5858.68779,0.07845
5860.61626,0.09659
5862.54472,0.12257
5864.47319,0.14105
5866.40166,0.13205
5868.33013,0.10210
5870.25860,0.08187
5872.18707,0.07797
5874.11554,0.07556
5876.04400,0.09317
5877.97247,0.14931
5879.90094,0.20043
5881.82941,0.19169
5883.75788,0.12254
5885.68635,0.05720
5887.61482,0.04270
5889.54329,0.04445
5891.47175,0.03729
5893.40022,0.03228
5895.32869,0.02611
5897.25716,0.03340
5899.18563,0.06875
5901.11410,0.09911
5903.04257,0.08430
5904.97103,0.05232
5906.89950,0.06497
5908.82797,0.11621
5910.75644,0.13800
5912.68491,0.08841
5914.61338,0.01443
5916.54185,0.00083
5918.47032,0.04314
5920.39878,0.09537
5922.32725,0.13099
5924.25572,0.11259
5926.18419,0.06432
5928.11266,0.05735
5930.04113,0.08229
5931.96960,0.08570
5933.89806,0.06444
5935.82653,0.05645
5937.75500,0.08135
5939.68347,0.10981
5941.61194,0.09561
5943.54041,0.05189
5945.46888,0.03509
5947.39734,0.05207
5949.32581,0.07835
5951.25428,0.09530
5953.18275,0.08506
5955.11122,0.06286
5957.03969,0.06530
5958.96816,0.09040
5960.89663,0.12207
5962.82509,0.14405
5964.75356,0.13071
5966.68203,0.08401
5968.61050,0.04776
5970.53897,0.04904
5972.46744,0.06698
5974.39591,0.09050
5976.32437,0.10025
5978.25284,0.08894
5980.18131,0.08999
5982.10978,0.10647
5984.03825,0.11191
5985.96672,0.08708
5987.89519,0.06142
5989.82366,0.06661
5991.75212,0.07509
5993.68059,0.08357
5995.60906,0.10594
5997.53753,0.10179
5999.46600,0.07010
6001.39447,0.07315
6003.32294,0.09890
6005.25140,0.08517
6007.17987,0.04693
6009.10834,0.03776
6011.03681,0.07694
6012.96528,0.11932
6014.89375,0.10590
6016.82222,0.06197
6018.75069,0.07327
6020.67915,0.13004
6022.60762,0.14557
6024.53609,0.11844
6026.46456,0.09110
6028.39303,0.07230
6030.32150,0.06502
6032.24997,0.07260
6034.17843,0.06904
6036.10690,0.05897
6038.03537,0.06541
6039.96384,0.06891
6041.89231,0.08259
6043.82078,0.12405
6045.74925,0.15409
6047.67772,0.13948
6049.60618,0.10345
6051.53465,0.08755
6053.46312,0.09510
6055.39159,0.11586
6057.32006,0.13713
6059.24853,0.15059
6061.17700,0.14760
6063.10546,0.12485
6065.03393,0.08371
6066.96240,0.02502
6068.89087,-0.01147
6070.81934,0.00584
6072.74781,0.04825
6074.67628,0.09116
6076.60475,0.11345
6078.53321,0.09757
6080.46168,0.06523
6082.39015,0.02322
6084.31862,-0.00436
6086.24709,0.02699
6088.17556,0.08314
6090.10403,0.11642
6092.03249,0.11517
6093.96096,0.08527
6095.88943,0.06463
6097.81790,0.06496
6099.74637,0.06136
6101.67484,0.07913
6103.60331,0.12719
6105.53177,0.14217
6107.46024,0.13208
6109.38871,0.16315
6111.31718,0.19257
6113.24565,0.13670
6115.17412,0.06629
6117.10259,0.08665
6119.03106,0.15281
6120.95952,0.15423
6122.88799,0.08335
6124.81646,0.02139
6126.74493,0.03479
6128.67340,0.10370
6130.60187,0.12906
6132.53034,0.07075
6134.45880,0.02568
6136.38727,0.04516
6138.31574,0.07719
6140.24421,0.09869
6142.17268,0.10272
6144.10115,0.07362
6146.02962,0.04625
6147.95809,0.03115
6149.88655,0.02267
6151.81502,0.05305
6153.74349,0.08614
6155.67196,0.08425
6157.60043,0.11268
6159.52890,0.17889
6161.45737,0.18981
6163.38583,0.12419
6165.31430,0.05734
6167.24277,0.01591
6169.17124,-0.00852
6171.09971,0.02003
6173.02818,0.09803
6174.95665,0.14678
6176.88512,0.12795
6178.81358,0.08163
6180.74205,0.05649
6182.67052,0.04797
6184.59899,0.02662
6186.52746,0.00361
6188.45593,0.01338
6190.38440,0.02933
6192.31286,-0.00468
6194.24133,-0.05709
6196.16980,-0.04436
6198.09827,0.03098
6200.02674,0.09593
6201.95521,0.12042
6203.88368,0.10121
6205.81215,0.05405
6207.74061,0.03698
6209.66908,0.06208
6211.59755,0.08980
6213.52602,0.12630
6215.45449,0.15376
6217.38296,0.12558
6219.31143,0.08474
6221.23989,0.07545
6223.16836,0.08399
6225.09683,0.11659
6227.02530,0.16013
6228.95377,0.16680
6230.88224,0.13852
6232.81071,0.09505
6234.73918,0.05164
6236.66764,0.01553
6238.59611,-0.02210
6240.52458,-0.03840
6242.45305,0.00191
6244.38152,0.06751
6246.30999,0.09959
6248.23846,0.09396
6250.16692,0.05874
6252.09539,0.01330
6254.02386,-0.00548
6255.95233,0.01659
6257.88080,0.05752
6259.80927,0.06879
6261.73774,0.06113
6263.66621,0.04770
6265.59467,-0.00039
6267.52314,-0.02198
6269.45161,0.04335
6271.38008,0.10716
6273.30855,0.08511
6275.23702,0.03440
6277.16549,0.03169
6279.09395,0.02894
6281.02242,0.00512
6282.95089,0.01588
6284.87936,0.07503
6286.80783,0.14221
6288.73630,0.16232
6290.66477,0.09118
6292.59323,0.00768
6294.52170,0.02904
6296.45017,0.09265
6298.37864,0.08739
6300.30711,0.06781
6302.23558,0.08175
6304.16405,0.07677
6306.09252,0.07140
6308.02098,0.09037
6309.94945,0.11462
6311.87792,0.11979
6313.80639,0.10507
6315.73486,0.09849
6317.66333,0.08007
6319.59180,0.05207
6321.52026,0.04509
6323.44873,0.02819
6325.37720,0.00502
6327.30567,-0.00180
6329.23414,-0.01071
6331.16261,-0.00219
6333.09108,0.03980
6335.01955,0.07633
6336.94801,0.08339
6338.87648,0.09069
6340.80495,0.12478
6342.73342,0.14197
6344.66189,0.11258
6346.59036,0.07459
6348.51883,0.05758
6350.44729,0.07835
6352.37576,0.13641
6354.30423,0.15395
6356.23270,0.11278
6358.16117,0.07389
6360.08964,0.05688
6362.01811,0.06051
6363.94658,0.08066
6365.87504,0.09504
6367.80351,0.09273
6369.73198,0.04093
6371.66045,-0.03086
6373.58892,-0.02549
6375.51739,0.03029
6377.44586,0.06172
6379.37432,0.07537
6381.30279,0.08566
6383.23126,0.07632
6385.15973,0.06884
6387.08820,0.09387
6389.01667,0.11480
6390.94514,0.13012
6392.87361,0.16442
6394.80207,0.20352
6396.73054,0.21602
6398.65901,0.18339
6400.58748,0.15146
6402.51595,0.13708
6404.44442,0.08844
6406.37289,0.02988
6408.30135,0.04980
6410.22982,0.15549
6412.15829,0.21103
6414.08676,0.15966
6416.01523,0.10170
6417.94370,0.08394
6419.87217,0.06808
6421.80064,0.04201
6423.72910,0.06072
6425.65757,0.12271
6427.58604,0.13629
6429.51451,0.08518
6431.44298,0.04075
6433.37145,0.02350
6435.29992,0.00141
6437.22838,-0.02847
6439.15685,-0.06865
6441.08532,-0.09949
6443.01379,-0.06239
6444.94226,0.01394
6446.87073,0.04834
6448.79920,0.04903
6450.72766,0.04165
6452.65613,0.03328
6454.58460,0.03570
6456.51307,0.05697
6458.44154,0.06909
6460.37001,0.05689
6462.29848,0.04255
6464.22695,0.03165
6466.15541,0.03968
6468.08388,0.05158
6470.01235,0.03822
6471.94082,0.02586
6473.86929,0.02965
6475.79776,0.06991
6477.72623,0.12905
6479.65469,0.17172
6481.58316,0.20477
6483.51163,0.18620
6485.44010,0.11042
6487.36857,0.03169
6489.29704,0.00199
6491.22551,0.04806
6493.15398,0.10199
6495.08244,0.07891
6497.01091,0.04323
6498.93938,0.05121
6500.86785,0.07155
6502.79632,0.08708
6504.72479,0.07493
6506.65326,0.02701
6508.58172,-0.01204
6510.51019,0.00086
6512.43866,0.07361
6514.36713,0.14988
6516.29560,0.16005
6518.22407,0.12088
6520.15254,0.10987
6522.08101,0.14507
6524.00947,0.16711
6525.93794,0.11639
6527.86641,0.02468
6529.79488,-0.04758
6531.72335,-0.06724
6533.65182,-0.03369
6535.58029,0.00386
6537.50875,0.03084
6539.43722,0.07933
6541.36569,0.11986
6543.29416,0.09805
6545.22263,0.05682
6547.15110,0.05652
6549.07957,0.06582
6551.00804,0.06043
6552.93650,0.07648
6554.86497,0.13728
6556.79344,0.19437
6558.72191,0.16749
6560.65038,0.10359
6562.57885,0.10495
6564.50732,0.12652
6566.43578,0.09400
6568.36425,0.05196
6570.29272,0.10244
6572.22119,0.22709
6574.14966,0.26684
6576.07813,0.21987
6578.00660,0.18741
6579.93507,0.13528
6581.86353,0.03867
6583.79200,-0.03120
6585.72047,-0.03498
6587.64894,-0.01189
6589.57741,-0.00928
6591.50588,-0.00201
6593.43435,0.05108
6595.36281,0.12577
6597.29128,0.17606
6599.21975,0.17784
6601.14822,0.12823
6603.07669,0.05706
6605.00516,-0.00058
6606.93363,-0.01780
6608.86210,-0.00042
6610.79056,-0.00729
6612.71903,-0.08252
6614.64750,-0.11522
6616.57597,0.04508
6618.50444,0.21333
6620.43291,0.16604
6622.36138,0.07853
6624.28984,0.07503
6626.21831,0.04000
6628.14678,-0.02093
6630.07525,-0.06442
6632.00372,-0.10995
6633.93219,-0.09882
6635.86066,-0.04406
6637.78912,-0.03009
6639.71759,-0.01405
6641.64606,0.06314
6643.57453,0.17134
6645.50300,0.24329
6647.43147,0.23391
6649.35994,0.18166
6651.28841,0.14518
6653.21687,0.13985
6655.14534,0.14541
6657.07381,0.09611
6659.00228,0.02156
6660.93075,0.01378
6662.85922,0.06113
6664.78769,0.13171
6666.71615,0.16850
6668.64462,0.09777
6670.57309,-0.00515
6672.50156,0.00925
6674.43003,0.08916
6676.35850,0.11926
6678.28697,0.13347
6680.21544,0.17058
6682.14390,0.20292
6684.07237,0.16051
6686.00084,0.05242
6687.92931,-0.03396
6689.85778,-0.04666
6691.78625,-0.02702
6693.71472,-0.05711
6695.64318,-0.09207
6697.57165,0.00787
6699.50012,0.18446
6701.42859,0.25152
6703.35706,0.19128
6705.28553,0.16386
6707.21400,0.24621
6709.14247,0.28502
6711.07093,0.21240
6712.99940,0.10782
6714.92787,-0.01665
6716.85634,-0.08340
6718.78481,-0.03676
6720.71328,0.01598
6722.64175,0.03911
6724.57021,0.08465
6726.49868,0.14416
6728.42715,0.16038
6730.35562,0.10819
6732.28409,0.06434
6734.21256,0.06411
6736.14103,0.08232
6738.06950,0.11017
6739.99796,0.08437
6741.92643,0.01614
6743.85490,0.03257
6745.78337,0.09485
6747.71184,0.07682
6749.64031,-0.01408
6751.56878,-0.03978
6753.49724,0.01662
6755.42571,0.05240
6757.35418,0.06049
6759.28265,0.07749
6761.21112,0.08503
6763.13959,0.01340
6765.06806,-0.09550
6766.99653,-0.04558
6768.92499,0.17239
6770.85346,0.31408
6772.78193,0.31471
6774.71040,0.27336
6776.63887,0.16212
6778.56734,0.04820
6780.49581,0.06445
6782.42427,0.11340
6784.35274,0.05127
6786.28121,-0.02449
6788.20968,-0.00001
6790.13815,0.03116
6792.06662,0.00936
6793.99509,0.02678
6795.92355,0.07417
6797.85202,0.12184
6799.78049,0.17808
6801.70896,0.17725
6803.63743,0.11727
6805.56590,0.09808
6807.49437,0.14193
6809.42284,0.20849
6811.35130,0.24833
6813.27977,0.22504
6815.20824,0.14767
6817.13671,0.04388
6819.06518,-0.04825
6820.99365,-0.07143
6822.92212,0.01514
6824.85058,0.08524
6826.77905,0.04088
6828.70752,-0.02133
6830.63599,0.01777
6832.56446,0.08776
6834.49293,0.07918
6836.42140,0.00263
6838.34987,-0.07517
6840.27833,-0.06706
6842.20680,0.05003
6844.13527,0.17724
6846.06374,0.24637
6847.99221,0.27156
6849.92068,0.22590
6851.84915,0.13255
6853.77761,0.11023
6855.70608,0.14571
6857.63455,0.08842
6859.56302,-0.03187
6861.49149,-0.08078
6863.41996,-0.03358
6865.34843,0.07394
6867.27690,0.17777
6869.20536,0.15268
6871.13383,0.04369
6873.06230,-0.01119
6874.99077,0.00029
6876.91924,0.02720
6878.84771,0.05171
6880.77618,0.07863
6882.70464,0.09877
6884.63311,0.11697
6886.56158,0.17606
6888.49005,0.22733
6890.41852,0.19462
6892.34699,0.10103
6894.27546,0.03842
6896.20393,0.04970
6898.13239,0.08165
6900.06086,0.10770
6901.98933,0.15147
6903.91780,0.12816
6905.84627,-0.01252
6907.77474,-0.11413
6909.70321,-0.11277
6911.63167,-0.05886
6913.56014,0.03291
6915.48861,0.16559
6917.41708,0.35136
6919.34555,0.46538
6921.27402,0.37064
6923.20249,0.19245
6925.13096,0.10016
6927.05942,0.16699
6928.98789,0.26399
6930.91636,0.17956
6932.84483,-0.01414
6934.77330,-0.09506
6936.70177,-0.09598
6938.63024,-0.16233
6940.55870,-0.27617
6942.48717,-0.24276
6944.41564,-0.08700
6946.34411,0.05691
6948.27258,0.11505
6950.20105,0.07951
6952.12952,0.00318
6954.05799,-0.02905
6955.98645,0.01149
6957.91492,0.06231
6959.84339,0.10949
6961.77186,0.14310
6963.70033,0.12096
6965.62880,0.06167
6967.55727,0.02741
6969.48573,0.04760
6971.41420,0.05982
6973.34267,-0.02548
6975.27114,-0.14206
6977.19961,-0.11629
6979.12808,-0.01974
6981.05655,0.01478
6982.98501,0.02753
6984.91348,0.04456
6986.84195,0.05657
6988.77042,0.11692
6990.69889,0.19266
6992.62736,0.19542
6994.55583,0.10559
6996.48430,0.03070
6998.41276,0.07619
7000.34123,0.11197
7002.26970,0.06648
7004.19817,0.02357
7006.12664,0.02534
7008.05511,0.04526
7009.98358,0.01845
7011.91204,-0.01002
7013.84051,0.07287
7015.76898,0.20934
7017.69745,0.22024
7019.62592,0.08726
7021.55439,-0.06728
7023.48286,-0.15339
7025.41133,-0.12719
7027.33979,-0.03773
7029.26826,0.03348
7031.19673,0.07450
7033.12520,0.11407
7035.05367,0.13925
7036.98214,0.10434
7038.91061,0.00774
7040.83907,-0.07189
7042.76754,-0.05431
7044.69601,0.02567
7046.62448,0.10740
7048.55295,0.13379
7050.48142,0.10360
7052.40989,0.12470
7054.33836,0.20247
7056.26682,0.22148
7058.19529,0.12958
7060.12376,0.06689
7062.05223,0.10177
7063.98070,0.10310
7065.90917,0.04863
7067.83764,0.05848
7069.76610,0.13673
7071.69457,0.14910
7073.62304,0.07941
7075.55151,0.00842
7077.47998,-0.01158
7079.40845,0.06195
7081.33692,0.16183
7083.26539,0.17381
7085.19385,0.16257
7087.12232,0.14465
7089.05079,0.08347
7090.97926,0.04830
7092.90773,0.03803
7094.83620,0.01187
7096.76467,0.01265
7098.69313,-0.01894
7100.62160,-0.09301
7102.55007,-0.07292
7104.47854,0.00614
7106.40701,0.06431
7108.33548,0.05424
7110.26395,-0.02428
7112.19242,0.00778
7114.12088,0.19630
7116.04935,0.31007
7117.97782,0.22335
7119.90629,0.12786
7121.83476,0.10789
7123.76323,0.03156
7125.69170,-0.10100
7127.62016,-0.14577
7129.54863,-0.07001
7131.47710,0.00259
7133.40557,-0.00292
7135.33404,-0.02948
7137.26251,-0.00165
7139.19098,0.14122
7141.11944,0.39018
7143.04791,0.56925
7144.97638,0.49062
7146.90485,0.24842
7148.83332,0.12897
7150.76179,0.16218
7152.69026,0.17695
7154.61873,0.08499
7156.54719,0.05770
7158.47566,0.15225
7160.40413,0.21556
7162.33260,0.15277
7164.26107,0.07080
7166.18954,0.02830
7168.11801,-0.04191
7170.04647,-0.10715
7171.97494,-0.17390
7173.90341,-0.25461
7175.83188,-0.25221
7177.76035,-0.15069
7179.68882,-0.02802
7181.61729,0.07612
7183.54576,0.14771
7185.47422,0.15696
7187.40269,0.13495
7189.33116,0.13711
7191.25963,0.10339
7193.18810,-0.00665
7195.11657,-0.04980
7197.04504,0.04138
7198.97350,0.13039
7200.90197,0.10940
7202.83044,0.03745
7204.75891,0.04277
7206.68738,0.12753
7208.61585,0.18626
7210.54432,0.24410
7212.47279,0.22564
7214.40125,0.03415
7216.32972,-0.15658
7218.25819,-0.09553
7220.18666,0.00225
7222.11513,-0.02747
7224.04360,-0.07228
7225.97207,-0.11201
7227.90053,-0.17662
7229.82900,-0.24455
7231.75747,-0.27917
7233.68594,-0.17212
7235.61441,0.01920
7237.54288,0.11921
7239.47135,0.13816
7241.39982,0.19445
7243.32828,0.26394
7245.25675,0.25728
7247.18522,0.19430
7249.11369,0.11895
7251.04216,-0.02370
7252.97063,-0.20074
7254.89910,-0.14347
7256.82756,0.07031
7258.75603,0.25913
7260.68450,0.28478
7262.61297,0.16238
7264.54144,0.05865
7266.46991,-0.00575
7268.39838,-0.00404
7270.32685,0.13315
7272.25531,0.36661
7274.18378,0.39747
7276.11225,0.23173
7278.04072,0.08797
7279.96919,0.09625
7281.89766,0.22170
7283.82613,0.27654
7285.75459,0.25501
7287.68306,0.17919
7289.61153,0.05096
7291.54000,0.01126
7293.46847,0.12829
7295.39694,0.21444
7297.32541,0.17839
7299.25387,0.10999
7301.18234,0.03945
7303.11081,-0.00079
7305.03928,0.06474
7306.96775,0.11631
7308.89622,0.14822
7310.82469,0.25614
7312.75316,0.25443
7314.68162,0.19782
7316.61009,0.13110
7318.53856,0.03638
7320.46703,0.07055
7322.39550,0.18451
7324.32397,0.19448
7326.25244,0.13517
7328.18090,0.08014
7330.10937,-0.01464
7332.03784,-0.12741
7333.96631,-0.16999
7335.89478,-0.08731
7337.82325,0.11457
7339.75172,0.28102
7341.68019,0.15400
7343.60865,0.02630
7345.53712,0.05289
7347.46559,0.15732
7349.39406,0.13693
7351.32253,-0.04672
7353.25100,-0.18263
7355.17947,-0.10310
7357.10793,0.21791
7359.03640,0.45929
7360.96487,0.41414
7362.89334,0.28066
7364.82181,0.13043
7366.75028,0.12096
7368.67875,0.27547
7370.60722,0.34679
7372.53568,0.30299
7374.46415,0.20024
7376.39262,0.03269
7378.32109,0.03995
7380.24956,0.30307
7382.17803,0.53766
7384.10650,0.51107
7386.03496,0.33901
7387.96343,0.17473
7389.89190,0.08804
7391.82037,0.00239
7393.74884,-0.15434
7395.67731,-0.23266
7397.60578,-0.11923
7399.53425,0.05931
7401.46271,0.16903
7403.39118,0.18993
7405.31965,0.12770
7407.24812,-0.00084
7409.17659,-0.08606
7411.10506,-0.07525
7413.03353,-0.03471
7414.96199,-0.00528
7416.89046,0.02407
7418.81893,0.17012
7420.74740,0.39326
7422.67587,0.39820
7424.60434,0.24285
7426.53281,0.13568
7428.46128,0.14318
7430.38974,0.12025
7432.31821,-0.04734
7434.24668,-0.17460
7436.17515,-0.13395
7438.10362,-0.01850
7440.03209,0.06258
7441.96056,0.04016
7443.88902,-0.07829
7445.81749,-0.19377
7447.74596,-0.32069
7449.67443,-0.36754
7451.60290,-0.08256
7453.53137,0.26284
7455.45984,0.27713
7457.38831,0.09086
7459.31677,-0.08489
7461.24524,-0.15101
7463.17371,-0.16379
7465.10218,-0.12194
7467.03065,-0.06315
7468.95912,-0.04380
7470.88759,-0.03561
7472.81605,-0.04929
7474.74452,-0.01393
7476.67299,0.09828
7478.60146,0.07016
7480.52993,-0.09566
7482.45840,-0.05011
7484.38687,0.11416
7486.31533,0.12453
7488.24380,0.04129
7490.17227,0.01779
7492.10074,0.01449
7494.02921,-0.03024
7495.95768,-0.04268
7497.88615,0.03848
