399.19301,13.44746
401.12148,0.24756
403.04995,-0.80210
404.97842,-0.45527
406.90689,-0.10762
408.83536,-0.03515
410.76382,-0.09099
412.69229,-0.03211
414.62076,0.05994
416.54923,0.08858
418.47770,0.08135
420.40617,0.02767
422.33464,0.00421
424.26311,-0.01457
426.19157,-0.06285
428.12004,-0.10355
430.04851,-0.07693
431.97698,-0.01864
433.90545,0.03716
435.83392,0.11320
437.76239,0.13126
439.69085,0.13549
441.61932,0.20652
443.54779,0.28044
445.47626,0.24205
447.40473,0.12056
449.33320,0.06332
451.26167,0.10490
453.19013,0.14322
455.11860,0.13791
457.04707,0.11344
458.97554,0.05542
460.90401,-0.01140
462.83248,-0.04672
464.76095,-0.04279
466.68942,-0.00527
468.61788,0.05462
470.54635,0.11540
472.47482,0.03508
474.40329,-0.24372
476.33176,-0.24372
478.26023,-0.08444
480.18870,0.00792
482.11716,0.06626
484.04563,0.10701
485.97410,0.11282
487.90257,0.08480
489.83104,0.03528
491.75951,0.02812
493.68798,0.05967
495.61645,0.07043
497.54491,0.07424
499.47338,0.10040
501.40185,0.12703
503.33032,0.12888
505.25879,0.14137
507.18726,0.17971
509.11573,0.17637
511.04419,0.14728
512.97266,0.14981
514.90113,0.15063
516.82960,0.12314
518.75807,0.09175
520.68654,0.08762
522.61501,0.12146
524.54348,0.14696
526.47194,0.13200
528.40041,0.10527
530.32888,0.09140
532.25735,0.09628
534.18582,0.09548
536.11429,0.08974
538.04276,0.10674
539.97122,0.12909
541.89969,0.12249
543.82816,0.10217
545.75663,0.11608
547.68510,0.13853
549.61357,0.12371
551.54204,0.07089
553.47051,0.02331
555.39897,0.04081
557.32744,0.08876
559.25591,0.10487
561.18438,0.08701
563.11285,0.05630
565.04132,0.05352
566.96979,0.07858
568.89825,0.10189
570.82672,0.11540
572.75519,0.11883
574.68366,0.13038
576.61213,0.14138
578.54060,0.12800
580.46907,0.11531
582.39754,0.12437
584.32600,0.12404
586.25447,0.09688
588.18294,0.07581
590.11141,0.08248
592.03988,0.11073
593.96835,0.12954
595.89682,0.10791
597.82528,0.07995
599.75375,0.10161
601.68222,0.16251
603.61069,0.18939
605.53916,0.15987
607.46763,0.12956
609.39610,0.11321
611.32456,0.08240
613.25303,0.05015
615.18150,0.04618
617.10997,0.06007
619.03844,0.06751
620.96691,0.06334
622.89538,0.06197
624.82385,0.07347
626.75231,0.08501
628.68078,0.08987
630.60925,0.09344
632.53772,0.09734
634.46619,0.11006
636.39466,0.12550
638.32313,0.12355
640.25159,0.11471
642.18006,0.11430
644.10853,0.11334
646.03700,0.11547
647.96547,0.12331
649.89394,0.12304
651.82241,0.11861
653.75088,0.12834
655.67934,0.14743
657.60781,0.15252
659.53628,0.13863
661.46475,0.12684
663.39322,0.13135
665.32169,0.13258
667.25016,0.12195
669.17862,0.14153
671.10709,0.16812
673.03556,0.17111
674.96403,0.17053
676.89250,0.16550
678.82097,0.15505
680.74944,0.15419
682.67791,0.15341
684.60637,0.14342
686.53484,0.14422
688.46331,0.15533
690.39178,0.15377
692.32025,0.13924
694.24872,0.12570
696.17719,0.12599
698.10565,0.13781
700.03412,0.14012
701.96259,0.13085
703.89106,0.12584
705.81953,0.12801
707.74800,0.12861
709.67647,0.12439
711.60494,0.11976
713.53340,0.12025
715.46187,0.13650
717.39034,0.16185
719.31881,0.17218
721.24728,0.16330
723.17575,0.14766
725.10422,0.13717
727.03268,0.13448
728.96115,0.12939
730.88962,0.12326
732.81809,0.12982
734.74656,0.14214
736.67503,0.14535
738.60350,0.14101
740.53197,0.13886
742.46043,0.14327
744.38890,0.14246
746.31737,0.13760
748.24584,0.13753
750.17431,0.13429
752.10278,0.13414
754.03125,0.14375
755.95971,0.15017
757.88818,0.14838
759.81665,0.14485
761.74512,0.13849
763.67359,0.12446
765.60206,0.11329
767.53053,0.11579
769.45900,0.12256
771.38746,0.12379
773.31593,0.12600
775.24440,0.13652
777.17287,0.14798
779.10134,0.14822
781.02981,0.14099
782.95828,0.13433
784.88674,0.12472
786.81521,0.12040
788.74368,0.15871
790.67215,0.23635
792.60062,0.26037
794.52909,0.19936
796.45756,0.14354
798.38602,0.12339
800.31449,0.12170
802.24296,0.13116
804.17143,0.13151
806.09990,0.13502
808.02837,0.14535
809.95684,0.14271
811.88531,0.13840
813.81377,0.14665
815.74224,0.15214
817.67071,0.14383
819.59918,0.13114
821.52765,0.12371
823.45612,0.12603
825.38459,0.13393
827.31305,0.13878
829.24152,0.13366
831.16999,0.11984
833.09846,0.11288
835.02693,0.12788
836.95540,0.15572
838.88387,0.16695
840.81234,0.15653
842.74080,0.15026
844.66927,0.15647
846.59774,0.15686
848.52621,0.15067
850.45468,0.15245
852.38315,0.15624
854.31162,0.15635
856.24008,0.15668
858.16855,0.14989
860.09702,0.14176
862.02549,0.14513
863.95396,0.14904
865.88243,0.14569
867.81090,0.13848
869.73937,0.13044
871.66783,0.13138
873.59630,0.13886
875.52477,0.13722
877.45324,0.12836
879.38171,0.12722
881.31018,0.13656
883.23865,0.14623
885.16711,0.14663
887.09558,0.14112
889.02405,0.14076
890.95252,0.14550
892.88099,0.14873
894.80946,0.14859
896.73793,0.14687
898.66640,0.14363
900.59486,0.13659
902.52333,0.13249
904.45180,0.13731
906.38027,0.14129
908.30874,0.14264
910.23721,0.14949
912.16568,0.15623
914.09414,0.15642
916.02261,0.15461
917.95108,0.15321
919.87955,0.14960
921.80802,0.14365
923.73649,0.13881
925.66496,0.13428
927.59343,0.12988
929.52189,0.13408
931.45036,0.14698
933.37883,0.15578
935.30730,0.15523
937.23577,0.14988
939.16424,0.14381
941.09271,0.13780
943.02117,0.13291
944.94964,0.13548
946.87811,0.14346
948.80658,0.14399
950.73505,0.14184
952.66352,0.14949
954.59199,0.16093
956.52045,0.16837
958.44892,0.17086
960.37739,0.16573
962.30586,0.15503
964.23433,0.14430
966.16280,0.13912
968.09127,0.13960
970.01974,0.14103
971.94820,0.14724
973.87667,0.15794
975.80514,0.16147
977.73361,0.15932
979.66208,0.15917
981.59055,0.15713
983.51902,0.15313
985.44748,0.15256
987.37595,0.15342
989.30442,0.15383
991.23289,0.15497
993.16136,0.15329
995.08983,0.14954
997.01830,0.15285
998.94677,0.16191
1000.87523,0.16282
1002.80370,0.15278
1004.73217,0.14790
1006.66064,0.15433
1008.58911,0.15655
1010.51758,0.14956
1012.44605,0.14611
1014.37451,0.14824
1016.30298,0.14930
1018.23145,0.15199
1020.15992,0.15727
1022.08839,0.16089
1024.01686,0.16271
1025.94533,0.16076
1027.87380,0.15760
1029.80226,0.15544
1031.73073,0.15101
1033.65920,0.14911
1035.58767,0.15143
1037.51614,0.15760
1039.44461,0.16474
1041.37308,0.16537
1043.30154,0.16499
1045.23001,0.16651
1047.15848,0.16813
1049.08695,0.17425
1051.01542,0.18028
1052.94389,0.17903
1054.87236,0.17281
1056.80083,0.16687
1058.72929,0.16379
1060.65776,0.16243
1062.58623,0.16421
1064.51470,0.16838
1066.44317,0.16915
1068.37164,0.16963
1070.30011,0.16827
1072.22857,0.15922
1074.15704,0.15581
1076.08551,0.16500
1078.01398,0.16882
1079.94245,0.16085
1081.87092,0.15483
1083.79939,0.15437
1085.72786,0.15520
1087.65632,0.15731
1089.58479,0.16134
1091.51326,0.16527
1093.44173,0.16654
1095.37020,0.16866
1097.29867,0.17287
1099.22714,0.17066
1101.15560,0.16195
1103.08407,0.15990
1105.01254,0.16466
1106.94101,0.16359
1108.86948,0.15725
1110.79795,0.15611
1112.72642,0.16021
1114.65489,0.16108
1116.58335,0.15758
1118.51182,0.15823
1120.44029,0.16401
1122.36876,0.16658
1124.29723,0.16673
1126.22570,0.16509
1128.15417,0.16003
1130.08263,0.15804
1132.01110,0.15705
1133.93957,0.15299
1135.86804,0.14953
1137.79651,0.14866
1139.72498,0.15205
1141.65345,0.15660
1143.58191,0.15618
1145.51038,0.15222
1147.43885,0.14868
1149.36732,0.15063
1151.29579,0.16271
1153.22426,0.17489
1155.15273,0.17647
1157.08120,0.17344
1159.00966,0.17419
1160.93813,0.17698
1162.86660,0.17439
1164.79507,0.16720
1166.72354,0.16324
1168.65201,0.16475
1170.58048,0.16966
1172.50894,0.17301
1174.43741,0.17077
1176.36588,0.16743
1178.29435,0.16618
1180.22282,0.16550
1182.15129,0.16639
1184.07976,0.16844
1186.00823,0.17364
1187.93669,0.18003
1189.86516,0.17701
1191.79363,0.16766
1193.72210,0.16155
1195.65057,0.15954
1197.57904,0.16221
1199.50751,0.16831
1201.43597,0.17274
1203.36444,0.16954
1205.29291,0.15922
1207.22138,0.15377
1209.14985,0.16051
1211.07832,0.17080
1213.00679,0.17463
1214.93526,0.17195
1216.86372,0.16777
1218.79219,0.16878
1220.72066,0.17527
1222.64913,0.17746
1224.57760,0.17091
1226.50607,0.16212
1228.43454,0.15879
1230.36300,0.16162
1232.29147,0.16386
1234.21994,0.16199
1236.14841,0.16020
1238.07688,0.16170
1240.00535,0.16519
1241.93382,0.16719
1243.86229,0.16664
1245.79075,0.16485
1247.71922,0.16302
1249.64769,0.16269
1251.57616,0.16246
1253.50463,0.16272
1255.43310,0.16765
1257.36157,0.17297
1259.29003,0.17118
1261.21850,0.16656
1263.14697,0.16231
1265.07544,0.15528
1267.00391,0.15136
1268.93238,0.15552
1270.86085,0.16299
1272.78932,0.16836
1274.71778,0.16803
1276.64625,0.16499
1278.57472,0.16407
1280.50319,0.16201
1282.43166,0.15978
1284.36013,0.16349
1286.28860,0.16755
1288.21706,0.16735
1290.14553,0.16720
1292.07400,0.16700
1294.00247,0.16478
1295.93094,0.16170
1297.85941,0.15953
1299.78788,0.15521
1301.71634,0.14199
1303.64481,0.12371
1305.57328,0.12137
1307.50175,0.14294
1309.43022,0.16372
1311.35869,0.16797
1313.28716,0.16598
1315.21563,0.16802
1317.14409,0.17545
1319.07256,0.17967
1321.00103,0.17359
1322.92950,0.16609
1324.85797,0.16440
1326.78644,0.16556
1328.71491,0.16672
1330.64337,0.16328
1332.57184,0.15795
1334.50031,0.15706
1336.42878,0.15909
1338.35725,0.16290
1340.28572,0.16151
1342.21419,0.15261
1344.14266,0.13737
1346.07112,0.12398
1347.99959,0.13404
1349.92806,0.15493
1351.85653,0.16281
1353.78500,0.16470
1355.71347,0.16746
1357.64194,0.17004
1359.57040,0.17111
1361.49887,0.17325
1363.42734,0.17767
1365.35581,0.17630
1367.28428,0.17161
1369.21275,0.17179
1371.14122,0.17580
1373.06969,0.17859
1374.99815,0.17945
1376.92662,0.17951
1378.85509,0.17849
1380.78356,0.17745
1382.71203,0.17836
1384.64050,0.18090
1386.56897,0.18322
1388.49743,0.18174
1390.42590,0.17818
1392.35437,0.17961
1394.28284,0.18577
1396.21131,0.18663
1398.13978,0.18035
1400.06825,0.17561
1401.99672,0.17569
1403.92518,0.17916
1405.85365,0.18264
1407.78212,0.18260
1409.71059,0.18112
1411.63906,0.17964
1413.56753,0.17825
1415.49600,0.18035
1417.42446,0.18758
1419.35293,0.19271
1421.28140,0.19259
1423.20987,0.19191
1425.13834,0.18785
1427.06681,0.18301
1428.99528,0.18302
1430.92375,0.18588
1432.85221,0.18877
1434.78068,0.19203
1436.70915,0.19142
1438.63762,0.18696
1440.56609,0.18450
1442.49456,0.18305
1444.42303,0.18421
1446.35149,0.18855
1448.27996,0.18952
1450.20843,0.18657
1452.13690,0.18727
1454.06537,0.19422
1455.99384,0.20627
1457.92231,0.20722
1459.85077,0.19082
1461.77924,0.18078
1463.70771,0.18228
1465.63618,0.18937
1467.56465,0.19286
1469.49312,0.19664
1471.42159,0.20373
1473.35006,0.20810
1475.27852,0.20556
1477.20699,0.19833
1479.13546,0.19058
1481.06393,0.18657
1482.99240,0.18659
1484.92087,0.19112
1486.84934,0.19942
1488.77780,0.20478
1490.70627,0.20133
1492.63474,0.19670
1494.56321,0.19689
1496.49168,0.20091
1498.42015,0.20336
1500.34862,0.20473
1502.27709,0.21320
1504.20555,0.23477
1506.13402,0.26368
1508.06249,0.24969
1509.99096,0.22171
1511.91943,0.21304
1513.84790,0.21290
1515.77637,0.21483
1517.70483,0.21320
1519.63330,0.21350
1521.56177,0.21939
1523.49024,0.21759
1525.41871,0.21278
1527.34718,0.20972
1529.27565,0.20652
1531.20412,0.20631
1533.13258,0.20804
1535.06105,0.20722
1536.98952,0.21000
1538.91799,0.22433
1540.84646,0.23942
1542.77493,0.22945
1544.70340,0.21112
1546.63186,0.19915
1548.56033,0.19681
1550.48880,0.19894
1552.41727,0.20237
1554.34574,0.20847
1556.27421,0.21825
1558.20268,0.23064
1560.13115,0.22016
1562.05961,0.20301
1563.98808,0.19454
1565.91655,0.19032
1567.84502,0.19290
1569.77349,0.19786
1571.70196,0.19348
1573.63043,0.19018
1575.55889,0.19499
1577.48736,0.19570
1579.41583,0.18940
1581.34430,0.18429
1583.27277,0.18156
1585.20124,0.18093
1587.12971,0.18106
1589.05818,0.18159
1590.98664,0.18296
1592.91511,0.18410
1594.84358,0.18508
1596.77205,0.18697
1598.70052,0.18760
1600.62899,0.18464
1602.55746,0.18234
1604.48592,0.18569
1606.41439,0.19088
1608.34286,0.19337
1610.27133,0.19385
1612.19980,0.19324
1614.12827,0.19294
1616.05674,0.19547
1617.98521,0.19806
1619.91367,0.19828
1621.84214,0.19970
1623.77061,0.20191
1625.69908,0.20146
1627.62755,0.19764
1629.55602,0.19468
1631.48449,0.19975
1633.41295,0.21296
1635.34142,0.22401
1637.26989,0.21562
1639.19836,0.20337
1641.12683,0.19766
1643.05530,0.19945
1644.98377,0.21363
1646.91223,0.23262
1648.84070,0.23272
1650.76917,0.23321
1652.69764,0.24513
1654.62611,0.23524
1656.55458,0.21471
1658.48305,0.20130
1660.41152,0.18893
1662.33998,0.17765
1664.26845,0.18111
1666.19692,0.19524
1668.12539,0.20704
1670.05386,0.21273
1671.98233,0.21308
1673.91080,0.20947
1675.83926,0.20234
1677.76773,0.19731
1679.69620,0.19589
1681.62467,0.19865
1683.55314,0.20941
1685.48161,0.21676
1687.41008,0.21138
1689.33855,0.20293
1691.26701,0.19609
1693.19548,0.19485
1695.12395,0.20139
1697.05242,0.21171
1698.98089,0.21435
1700.90936,0.20688
1702.83783,0.20241
1704.76629,0.20555
1706.69476,0.20757
1708.62323,0.20418
1710.55170,0.20219
1712.48017,0.20696
1714.40864,0.22032
1716.33711,0.23641
1718.26558,0.23034
1720.19404,0.21066
1722.12251,0.20036
1724.05098,0.19599
1725.97945,0.19323
1727.90792,0.19362
1729.83639,0.19838
1731.76486,0.20636
1733.69332,0.21117
1735.62179,0.20685
1737.55026,0.20251
1739.47873,0.19955
1741.40720,0.19746
1743.33567,0.19929
1745.26414,0.20329
1747.19261,0.20614
1749.12107,0.20608
1751.04954,0.20203
1752.97801,0.19735
1754.90648,0.19541
1756.83495,0.19647
1758.76342,0.19874
1760.69189,0.19823
1762.62035,0.19177
1764.54882,0.18705
1766.47729,0.19167
1768.40576,0.20024
1770.33423,0.20452
1772.26270,0.20259
1774.19117,0.19734
1776.11964,0.19460
1778.04810,0.19434
1779.97657,0.19533
1781.90504,0.19567
1783.83351,0.19357
1785.76198,0.19018
1787.69045,0.18859
1789.61892,0.19314
1791.54738,0.20296
1793.47585,0.20753
1795.40432,0.20463
1797.33279,0.20065
1799.26126,0.19761
1801.18973,0.19390
1803.11820,0.18965
1805.04666,0.18908
1806.97513,0.19203
1808.90360,0.19526
1810.83207,0.19677
1812.76054,0.19308
1814.68901,0.18765
1816.61748,0.18811
1818.54595,0.19102
1820.47441,0.19092
1822.40288,0.19035
1824.33135,0.19143
1826.25982,0.19461
1828.18829,0.19798
1830.11676,0.19740
1832.04523,0.19318
1833.97369,0.18972
1835.90216,0.18826
1837.83063,0.18797
1839.75910,0.18985
1841.68757,0.19592
1843.61604,0.20130
1845.54451,0.19882
1847.47298,0.19443
1849.40144,0.19176
1851.32991,0.19024
1853.25838,0.19057
1855.18685,0.18993
1857.11532,0.18837
1859.04379,0.18991
1860.97226,0.19251
1862.90072,0.19265
1864.82919,0.19325
1866.75766,0.19713
1868.68613,0.19949
1870.61460,0.19480
1872.54307,0.18932
1874.47154,0.18776
1876.40001,0.18803
1878.32847,0.18755
1880.25694,0.18682
1882.18541,0.18760
1884.11388,0.18920
1886.04235,0.18981
1887.97082,0.19116
1889.89929,0.19269
1891.82775,0.19091
1893.75622,0.18905
1895.68469,0.18960
1897.61316,0.19126
1899.54163,0.19413
1901.47010,0.19558
1903.39857,0.19325
1905.32704,0.19015
1907.25550,0.18838
1909.18397,0.18821
1911.11244,0.18912
1913.04091,0.18894
1914.96938,0.18935
1916.89785,0.19344
1918.82632,0.19711
1920.75478,0.19596
1922.68325,0.19214
1924.61172,0.18803
1926.54019,0.18728
1928.46866,0.18969
1930.39713,0.18949
1932.32560,0.18745
1934.25407,0.18869
1936.18253,0.19158
1938.11100,0.19333
1940.03947,0.19458
1941.96794,0.19369
1943.89641,0.19049
1945.82488,0.18887
1947.75335,0.18850
1949.68181,0.18862
1951.61028,0.18959
1953.53875,0.18992
1955.46722,0.18989
1957.39569,0.19133
1959.32416,0.19408
1961.25263,0.19572
1963.18110,0.19547
1965.10956,0.19434
1967.03803,0.19252
1968.96650,0.19106
1970.89497,0.19044
1972.82344,0.18930
1974.75191,0.18789
1976.68038,0.18685
1978.60884,0.18530
1980.53731,0.18508
1982.46578,0.18789
1984.39425,0.19109
1986.32272,0.19217
1988.25119,0.19120
1990.17966,0.19028
1992.10812,0.19022
1994.03659,0.18947
1995.96506,0.18820
1997.89353,0.18808
1999.82200,0.18975
2001.75047,0.19267
2003.67894,0.19542
2005.60741,0.19581
2007.53587,0.19359
2009.46434,0.19024
2011.39281,0.18764
2013.32128,0.18865
2015.24975,0.19362
2017.17822,0.19755
2019.10669,0.19655
2021.03515,0.19381
2022.96362,0.19200
2024.89209,0.19017
2026.82056,0.18815
2028.74903,0.18619
2030.67750,0.18615
2032.60597,0.18830
2034.53444,0.18827
2036.46290,0.18626
2038.39137,0.18711
2040.31984,0.18994
2042.24831,0.19030
2044.17678,0.18935
2046.10525,0.19008
2048.03372,0.19188
2049.96218,0.19349
2051.89065,0.19355
2053.81912,0.19363
2055.74759,0.19497
2057.67606,0.19393
2059.60453,0.19043
2061.53300,0.18715
2063.46147,0.18612
2065.38993,0.18851
2067.31840,0.19049
2069.24687,0.19016
2071.17534,0.19108
2073.10381,0.19355
2075.03228,0.19409
2076.96075,0.19236
2078.88921,0.19181
2080.81768,0.19376
2082.74615,0.19577
2084.67462,0.19606
2086.60309,0.19487
2088.53156,0.19294
2090.46003,0.19243
2092.38850,0.19351
2094.31696,0.19322
2096.24543,0.19203
2098.17390,0.19159
2100.10237,0.19110
2102.03084,0.19026
2103.95931,0.18871
2105.88778,0.18742
2107.81624,0.18914
2109.74471,0.19335
2111.67318,0.19507
2113.60165,0.19187
2115.53012,0.18809
2117.45859,0.18786
2119.38706,0.18982
2121.31553,0.19116
2123.24399,0.19238
2125.17246,0.19429
2127.10093,0.19531
2129.02940,0.19442
2130.95787,0.19291
2132.88634,0.19161
2134.81481,0.18845
2136.74327,0.18486
2138.67174,0.18561
2140.60021,0.18984
2142.52868,0.19276
2144.45715,0.19270
2146.38562,0.19187
2148.31409,0.19150
2150.24255,0.19091
2152.17102,0.19017
2154.09949,0.19021
2156.02796,0.19101
2157.95643,0.19172
2159.88490,0.19282
2161.81337,0.19425
2163.74184,0.19424
2165.67030,0.19296
2167.59877,0.19272
2169.52724,0.19306
2171.45571,0.19158
2173.38418,0.18924
2175.31265,0.18965
2177.24112,0.19258
2179.16958,0.19397
2181.09805,0.19299
2183.02652,0.19266
2184.95499,0.19412
2186.88346,0.19520
2188.81193,0.19405
2190.74040,0.19180
2192.66887,0.19090
2194.59733,0.19173
2196.52580,0.19360
2198.45427,0.19598
2200.38274,0.19649
2202.31121,0.19524
2204.23968,0.19564
2206.16815,0.19704
2208.09661,0.19516
2210.02508,0.19110
2211.95355,0.19146
2213.88202,0.19569
2215.81049,0.19713
2217.73896,0.19470
2219.66743,0.19325
2221.59590,0.19516
2223.52436,0.19623
2225.45283,0.19476
2227.38130,0.19400
2229.30977,0.19411
2231.23824,0.19281
2233.16671,0.18976
2235.09518,0.18604
2237.02364,0.18524
2238.95211,0.19027
2240.88058,0.19623
2242.80905,0.19594
2244.73752,0.19144
2246.66599,0.19012
2248.59446,0.19233
2250.52293,0.19388
2252.45139,0.19459
2254.37986,0.19555
2256.30833,0.19595
2258.23680,0.19484
2260.16527,0.19413
2262.09374,0.19601
2264.02221,0.19900
2265.95067,0.20082
2267.87914,0.20035
2269.80761,0.19796
2271.73608,0.19540
2273.66455,0.19361
2275.59302,0.19216
2277.52149,0.19262
2279.44996,0.19539
2281.37842,0.19638
2283.30689,0.19450
2285.23536,0.19168
2287.16383,0.18816
2289.09230,0.18620
2291.02077,0.18756
2292.94924,0.18791
2294.87770,0.18588
2296.80617,0.18568
2298.73464,0.18664
2300.66311,0.18602
2302.59158,0.18471
2304.52005,0.18416
2306.44852,0.18573
2308.37699,0.18903
2310.30545,0.18863
2312.23392,0.18378
2314.16239,0.18444
2316.09086,0.19131
2318.01933,0.19305
2319.94780,0.18742
2321.87627,0.18017
2323.80473,0.17616
2325.73320,0.18096
2327.66167,0.18737
2329.59014,0.18454
2331.51861,0.18162
2333.44708,0.18351
2335.37555,0.18341
2337.30401,0.18633
2339.23248,0.18986
2341.16095,0.18583
2343.08942,0.18744
2345.01789,0.19517
2346.94636,0.19194
2348.87483,0.18314
2350.80330,0.17693
2352.73176,0.17155
2354.66023,0.16493
2356.58870,0.16607
2358.51717,0.17038
2360.44564,0.16615
2362.37411,0.16640
2364.30258,0.17395
2366.23104,0.18133
2368.15951,0.18400
2370.08798,0.18111
2372.01645,0.17947
2373.94492,0.18189
2375.87339,0.18439
2377.80186,0.18664
2379.73033,0.19146
2381.65879,0.19610
2383.58726,0.19713
2385.51573,0.19609
2387.44420,0.19435
2389.37267,0.19240
2391.30114,0.19229
2393.22961,0.19423
2395.15807,0.19564
2397.08654,0.19534
2399.01501,0.19408
2400.94348,0.19287
2402.87195,0.19252
2404.80042,0.19262
2406.72889,0.19253
2408.65736,0.19239
2410.58582,0.19213
2412.51429,0.19051
2414.44276,0.18738
2416.37123,0.18572
2418.29970,0.18666
2420.22817,0.18852
2422.15664,0.19067
2424.08510,0.19264
2426.01357,0.19401
2427.94204,0.19365
2429.87051,0.19185
2431.79898,0.19203
2433.72745,0.19469
2435.65592,0.19692
2437.58439,0.19651
2439.51285,0.19396
2441.44132,0.19296
2443.36979,0.19361
2445.29826,0.19232
2447.22673,0.19042
2449.15520,0.19092
2451.08367,0.19224
2453.01213,0.19214
2454.94060,0.19128
2456.86907,0.19112
2458.79754,0.19160
2460.72601,0.19168
2462.65448,0.19130
2464.58295,0.19130
2466.51142,0.19363
2468.43988,0.19775
2470.36835,0.19773
2472.29682,0.19415
2474.22529,0.19359
2476.15376,0.19469
2478.08223,0.19430
2480.01070,0.19435
2481.93916,0.19508
2483.86763,0.19429
2485.79610,0.19355
2487.72457,0.19444
2489.65304,0.19408
2491.58151,0.19270
2493.50998,0.19314
2495.43844,0.19477
2497.36691,0.19587
2499.29538,0.19518
2501.22385,0.19320
2503.15232,0.19296
2505.08079,0.19309
2507.00926,0.19079
2508.93773,0.18986
2510.86619,0.19159
2512.79466,0.19316
2514.72313,0.19552
2516.65160,0.19857
2518.58007,0.19915
2520.50854,0.19650
2522.43701,0.19397
2524.36547,0.19466
2526.29394,0.19637
2528.22241,0.19659
2530.15088,0.19635
2532.07935,0.19483
2534.00782,0.19232
2535.93629,0.19147
2537.86476,0.19071
2539.79322,0.18964
2541.72169,0.19155
2543.65016,0.19491
2545.57863,0.19604
2547.50710,0.19463
2549.43557,0.19143
2551.36404,0.18928
2553.29250,0.19112
2555.22097,0.19380
2557.14944,0.19430
2559.07791,0.19519
2561.00638,0.19714
2562.93485,0.19798
2564.86332,0.19608
2566.79179,0.19291
2568.72025,0.19242
2570.64872,0.19372
2572.57719,0.19361
2574.50566,0.19270
2576.43413,0.19167
2578.36260,0.19087
2580.29107,0.19317
2582.21953,0.19841
2584.14800,0.20122
2586.07647,0.19997
2588.00494,0.19769
2589.93341,0.19527
2591.86188,0.19309
2593.79035,0.19389
2595.71882,0.19633
2597.64728,0.19618
2599.57575,0.19446
2601.50422,0.19464
2603.43269,0.19613
2605.36116,0.19595
2607.28963,0.19641
2609.21810,0.19908
2611.14656,0.19822
2613.07503,0.19317
2615.00350,0.19016
2616.93197,0.19015
2618.86044,0.18954
2620.78891,0.18905
2622.71738,0.19155
2624.64585,0.19628
2626.57431,0.20026
2628.50278,0.20014
2630.43125,0.19704
2632.35972,0.19596
2634.28819,0.19728
2636.21666,0.19797
2638.14513,0.19842
2640.07359,0.19880
2642.00206,0.19667
2643.93053,0.19419
2645.85900,0.19460
2647.78747,0.19483
2649.71594,0.19383
2651.64441,0.19387
2653.57288,0.19475
2655.50134,0.19551
2657.42981,0.19482
2659.35828,0.19482
2661.28675,0.19823
2663.21522,0.20160
2665.14369,0.20222
2667.07216,0.20098
2669.00062,0.19869
2670.92909,0.19719
2672.85756,0.19755
2674.78603,0.19793
2676.71450,0.19773
2678.64297,0.19790
2680.57144,0.19830
2682.49990,0.19826
2684.42837,0.19807
2686.35684,0.19931
2688.28531,0.20153
2690.21378,0.20361
2692.14225,0.20438
2694.07072,0.20382
2695.99919,0.20541
2697.92765,0.20709
2699.85612,0.20568
2701.78459,0.20511
2703.71306,0.20554
2705.64153,0.20413
2707.57000,0.20264
2709.49847,0.20192
2711.42693,0.20096
2713.35540,0.20026
2715.28387,0.19896
2717.21234,0.19672
2719.14081,0.19628
2721.06928,0.19943
2722.99775,0.20282
2724.92622,0.20156
2726.85468,0.19817
2728.78315,0.19848
2730.71162,0.20094
2732.64009,0.20058
2734.56856,0.19809
2736.49703,0.19763
2738.42550,0.20045
2740.35396,0.20447
2742.28243,0.20724
2744.21090,0.20746
2746.13937,0.20536
2748.06784,0.20228
2749.99631,0.20028
2751.92478,0.20297
2753.85325,0.20912
2755.78171,0.21119
2757.71018,0.20809
2759.63865,0.20564
2761.56712,0.20722
2763.49559,0.21111
2765.42406,0.21265
2767.35253,0.20999
2769.28099,0.20493
2771.20946,0.20034
2773.13793,0.20074
2775.06640,0.20500
2776.99487,0.20683
2778.92334,0.20727
2780.85181,0.20931
2782.78028,0.20998
2784.70874,0.20868
2786.63721,0.20787
2788.56568,0.20766
2790.49415,0.20814
2792.42262,0.20943
2794.35109,0.20930
2796.27956,0.20735
2798.20802,0.20742
2800.13649,0.21072
2802.06496,0.21291
2803.99343,0.21157
2805.92190,0.20898
2807.85037,0.20830
2809.77884,0.20995
2811.70731,0.21186
2813.63577,0.21309
2815.56424,0.21236
2817.49271,0.21059
2819.42118,0.21054
2821.34965,0.20940
2823.27812,0.20494
2825.20659,0.20141
2827.13505,0.20331
2829.06352,0.20911
2830.99199,0.21397
2832.92046,0.21560
2834.84893,0.21361
2836.77740,0.21120
2838.70587,0.21168
2840.63433,0.21214
2842.56280,0.21097
2844.49127,0.21106
2846.41974,0.21201
2848.34821,0.21111
2850.27668,0.20953
2852.20515,0.20976
2854.13362,0.21108
2856.06208,0.21178
2857.99055,0.21153
2859.91902,0.20960
2861.84749,0.20592
2863.77596,0.20347
2865.70443,0.20442
2867.63290,0.20689
2869.56136,0.20998
2871.48983,0.21140
2873.41830,0.20672
2875.34677,0.20246
2877.27524,0.20588
2879.20371,0.20972
2881.13218,0.20903
2883.06065,0.20678
2884.98911,0.20469
2886.91758,0.20658
2888.84605,0.21347
2890.77452,0.21890
2892.70299,0.21664
2894.63146,0.20779
2896.55993,0.20267
2898.48839,0.20570
2900.41686,0.20935
2902.34533,0.20851
2904.27380,0.20282
2906.20227,0.19663
2908.13074,0.19703
2910.05921,0.20232
2911.98768,0.20435
2913.91614,0.19959
2915.84461,0.19323
2917.77308,0.19355
2919.70155,0.19835
2921.63002,0.20103
2923.55849,0.20167
2925.48696,0.19760
2927.41542,0.19384
2929.34389,0.19923
2931.27236,0.20230
2933.20083,0.19710
2935.12930,0.18909
2937.05777,0.18044
2938.98624,0.18301
2940.91471,0.19532
2942.84317,0.20113
2944.77164,0.19816
2946.70011,0.19059
2948.62858,0.18834
2950.55705,0.19729
2952.48552,0.20766
2954.41399,0.20903
2956.34245,0.19776
2958.27092,0.18901
2960.19939,0.19820
2962.12786,0.20810
2964.05633,0.20282
2965.98480,0.19263
2967.91327,0.18911
2969.84174,0.19731
2971.77020,0.21151
2973.69867,0.21904
2975.62714,0.21371
2977.55561,0.20235
2979.48408,0.20282
2981.41255,0.21344
2983.34102,0.21690
2985.26948,0.21407
2987.19795,0.21097
2989.12642,0.20993
2991.05489,0.21475
2992.98336,0.22000
2994.91183,0.21864
2996.84030,0.21340
2998.76877,0.21130
3000.69723,0.21345
3002.62570,0.21256
3004.55417,0.20695
3006.48264,0.20173
3008.41111,0.19986
3010.33958,0.19707
3012.26805,0.17788
3014.19651,0.13698
3016.12498,0.10281
3018.05345,0.11487
3019.98192,0.16396
3021.91039,0.20024
3023.83886,0.20936
3025.76733,0.21110
3027.69579,0.21480
3029.62426,0.21920
3031.55273,0.22362
3033.48120,0.22604
3035.40967,0.22183
3037.33814,0.21294
3039.26661,0.20744
3041.19508,0.20700
3043.12354,0.20853
3045.05201,0.20783
3046.98048,0.20370
3048.90895,0.20389
3050.83742,0.20924
3052.76589,0.21135
3054.69436,0.20655
3056.62282,0.19742
3058.55129,0.19556
3060.47976,0.20447
3062.40823,0.21116
3064.33670,0.20617
3066.26517,0.19605
3068.19364,0.19728
3070.12211,0.20775
3072.05057,0.21112
3073.97904,0.20269
3075.90751,0.19154
3077.83598,0.19409
3079.76445,0.20758
3081.69292,0.21238
3083.62139,0.20344
3085.54985,0.19618
3087.47832,0.20580
3089.40679,0.22056
3091.33526,0.21818
3093.26373,0.19814
3095.19220,0.18500
3097.12067,0.19376
3099.04914,0.20831
3100.97760,0.21111
3102.90607,0.20159
3104.83454,0.19725
3106.76301,0.20744
3108.69148,0.21719
3110.61995,0.21197
3112.54842,0.19852
3114.47688,0.19894
3116.40535,0.21288
3118.33382,0.21818
3120.26229,0.20807
3122.19076,0.19847
3124.11923,0.20279
3126.04770,0.21111
3127.97617,0.21027
3129.90463,0.20285
3131.83310,0.20271
3133.76157,0.21381
3135.69004,0.22195
3137.61851,0.21783
3139.54698,0.21010
3141.47545,0.21162
3143.40391,0.21797
3145.33238,0.21818
3147.26085,0.21346
3149.18932,0.20980
3151.11779,0.21117
3153.04626,0.21670
3154.97473,0.21873
3156.90320,0.21449
3158.83166,0.21131
3160.76013,0.21469
3162.68860,0.22178
3164.61707,0.22431
3166.54554,0.22073
3168.47401,0.21795
3170.40248,0.21909
3172.33094,0.22174
3174.25941,0.22278
3176.18788,0.22304
3178.11635,0.22471
3180.04482,0.22785
3181.97329,0.23054
3183.90176,0.22903
3185.83022,0.22476
3187.75869,0.22331
3189.68716,0.22444
3191.61563,0.22589
3193.54410,0.22595
3195.47257,0.22071
3197.40104,0.21244
3199.32951,0.20891
3201.25797,0.21134
3203.18644,0.21406
3205.11491,0.21408
3207.04338,0.21494
3208.97185,0.21801
3210.90032,0.21991
3212.82879,0.22114
3214.75725,0.22538
3216.68572,0.22943
3218.61419,0.22665
3220.54266,0.21989
3222.47113,0.21688
3224.39960,0.21618
3226.32807,0.21322
3228.25654,0.21160
3230.18500,0.21451
3232.11347,0.21875
3234.04194,0.21984
3235.97041,0.21727
3237.89888,0.21528
3239.82735,0.21504
3241.75582,0.21301
3243.68428,0.20879
3245.61275,0.20818
3247.54122,0.21432
3249.46969,0.21995
3251.39816,0.21965
3253.32663,0.21745
3255.25510,0.21590
3257.18357,0.21311
3259.11203,0.20884
3261.04050,0.20580
3262.96897,0.20730
3264.89744,0.21104
3266.82591,0.21221
3268.75438,0.21266
3270.68285,0.21626
3272.61131,0.22002
3274.53978,0.21929
3276.46825,0.21778
3278.39672,0.21979
3280.32519,0.22168
3282.25366,0.22104
3284.18213,0.22032
3286.11060,0.22134
3288.03906,0.22335
3289.96753,0.22282
3291.89600,0.21729
3293.82447,0.21241
3295.75294,0.21253
3297.68141,0.21293
3299.60988,0.21275
3301.53834,0.21405
3303.46681,0.21454
3305.39528,0.21350
3307.32375,0.21026
3309.25222,0.20718
3311.18069,0.20872
3313.10916,0.20919
3315.03763,0.20552
3316.96609,0.20440
3318.89456,0.20779
3320.82303,0.21399
3322.75150,0.21743
3324.67997,0.21286
3326.60844,0.21033
3328.53691,0.21697
3330.46537,0.22362
3332.39384,0.22555
3334.32231,0.22434
3336.25078,0.22194
3338.17925,0.22343
3340.10772,0.22651
3342.03619,0.22293
3343.96466,0.21674
3345.89312,0.21866
3347.82159,0.22600
3349.75006,0.22959
3351.67853,0.22668
3353.60700,0.21891
3355.53547,0.21246
3357.46394,0.21346
3359.39240,0.21843
3361.32087,0.22020
3363.24934,0.22054
3365.17781,0.22417
3367.10628,0.22746
3369.03475,0.22708
3370.96322,0.22553
3372.89168,0.22417
3374.82015,0.22287
3376.74862,0.22202
3378.67709,0.22045
3380.60556,0.21696
3382.53403,0.21498
3384.46250,0.21751
3386.39097,0.22047
3388.31943,0.22003
3390.24790,0.21683
3392.17637,0.21359
3394.10484,0.21326
3396.03331,0.21371
3397.96178,0.21327
3399.89025,0.21494
3401.81871,0.22039
3403.74718,0.22621
3405.67565,0.22596
3407.60412,0.21955
3409.53259,0.21262
3411.46106,0.20842
3413.38953,0.20770
3415.31800,0.21101
3417.24646,0.21743
3419.17493,0.22091
3421.10340,0.21678
3423.03187,0.21056
3424.96034,0.20816
3426.88881,0.20802
3428.81728,0.20679
3430.74574,0.20499
3432.67421,0.20545
3434.60268,0.20594
3436.53115,0.20545
3438.45962,0.20714
3440.38809,0.20846
3442.31656,0.20646
3444.24503,0.20349
3446.17349,0.20323
3448.10196,0.20481
3450.03043,0.20293
3451.95890,0.19834
3453.88737,0.19755
3455.81584,0.20057
3457.74431,0.20161
3459.67277,0.20096
3461.60124,0.19870
3463.52971,0.19561
3465.45818,0.19512
3467.38665,0.19496
3469.31512,0.19592
3471.24359,0.19743
3473.17206,0.19536
3475.10052,0.19002
3477.02899,0.18305
3478.95746,0.18032
3480.88593,0.18319
3482.81440,0.18485
3484.74287,0.18607
3486.67134,0.19173
3488.59980,0.19948
3490.52827,0.20300
3492.45674,0.20011
3494.38521,0.19485
3496.31368,0.19151
3498.24215,0.18972
3500.17062,0.18883
3502.09909,0.18896
3504.02755,0.18728
3505.95602,0.18427
3507.88449,0.18435
3509.81296,0.18753
3511.74143,0.18910
3513.66990,0.18619
3515.59837,0.18327
3517.52683,0.18299
3519.45530,0.18142
3521.38377,0.17954
3523.31224,0.17830
3525.24071,0.17770
3527.16918,0.18245
3529.09765,0.18663
3531.02611,0.18250
3532.95458,0.17772
3534.88305,0.17635
3536.81152,0.17254
3538.73999,0.16605
3540.66846,0.16300
3542.59693,0.16580
3544.52540,0.17120
3546.45386,0.17467
3548.38233,0.17469
3550.31080,0.17233
3552.23927,0.17055
3554.16774,0.16956
3556.09621,0.16972
3558.02468,0.17119
3559.95314,0.16848
3561.88161,0.16422
3563.81008,0.16949
3565.73855,0.18485
3567.66702,0.19147
3569.59549,0.18066
3571.52396,0.16973
3573.45243,0.16402
3575.38089,0.16338
3577.30936,0.16683
3579.23783,0.16762
3581.16630,0.16362
3583.09477,0.16150
3585.02324,0.16312
3586.95171,0.16323
3588.88017,0.16141
3590.80864,0.16125
3592.73711,0.16398
3594.66558,0.16823
3596.59405,0.16650
3598.52252,0.16137
3600.45099,0.16025
3602.37946,0.15765
3604.30792,0.15080
3606.23639,0.14795
3608.16486,0.15298
3610.09333,0.15737
3612.02180,0.15645
3613.95027,0.15339
3615.87874,0.15089
3617.80720,0.15235
3619.73567,0.15609
3621.66414,0.15567
3623.59261,0.15345
3625.52108,0.15486
3627.44955,0.16349
3629.37802,0.16620
3631.30649,0.15389
3633.23495,0.14675
3635.16342,0.14475
3637.09189,0.14369
3639.02036,0.14373
3640.94883,0.14308
3642.87730,0.14290
3644.80577,0.14392
3646.73423,0.14723
3648.66270,0.15279
3650.59117,0.14760
3652.51964,0.13917
3654.44811,0.13850
3656.37658,0.14314
3658.30505,0.14586
3660.23352,0.14395
3662.16198,0.13991
3664.09045,0.13641
3666.01892,0.13660
3667.94739,0.14269
3669.87586,0.15207
3671.80433,0.15523
3673.73280,0.15592
3675.66126,0.15490
3677.58973,0.14573
3679.51820,0.13855
3681.44667,0.13422
3683.37514,0.12974
3685.30361,0.13195
3687.23208,0.14578
3689.16055,0.15745
3691.08901,0.14904
3693.01748,0.13755
3694.94595,0.13405
3696.87442,0.13330
3698.80289,0.13159
3700.73136,0.13188
3702.65983,0.13597
3704.58829,0.13969
3706.51676,0.13904
3708.44523,0.13288
3710.37370,0.12703
3712.30217,0.13037
3714.23064,0.13651
3716.15911,0.13970
3718.08757,0.13952
3720.01604,0.13550
3721.94451,0.13267
3723.87298,0.13665
3725.80145,0.14251
3727.72992,0.14196
3729.65839,0.13827
3731.58686,0.13907
3733.51532,0.14600
3735.44379,0.14988
3737.37226,0.14327
3739.30073,0.13657
3741.22920,0.13754
3743.15767,0.14557
3745.08614,0.15001
3747.01460,0.14681
3748.94307,0.15044
3750.87154,0.15487
3752.80001,0.14324
3754.72848,0.13477
3756.65695,0.13813
3758.58542,0.14282
3760.51389,0.13821
3762.44235,0.13162
3764.37082,0.13125
3766.29929,0.13508
3768.22776,0.13846
3770.15623,0.13875
3772.08470,0.13430
3774.01317,0.12891
3775.94163,0.12672
3777.87010,0.12880
3779.79857,0.13188
3781.72704,0.13396
3783.65551,0.13789
3785.58398,0.14065
3787.51245,0.13839
3789.44092,0.13371
3791.36938,0.12868
3793.29785,0.12678
3795.22632,0.13071
3797.15479,0.13524
3799.08326,0.13762
3801.01173,0.14314
3802.94020,0.14441
3804.86866,0.13825
3806.79713,0.13460
3808.72560,0.13538
3810.65407,0.13502
3812.58254,0.13359
3814.51101,0.13349
3816.43948,0.13419
3818.36795,0.13807
3820.29641,0.14438
3822.22488,0.13991
3824.15335,0.12922
3826.08182,0.12502
3828.01029,0.12787
3829.93876,0.13282
3831.86723,0.13653
3833.79569,0.13734
3835.72416,0.13170
3837.65263,0.12502
3839.58110,0.12746
3841.50957,0.12889
3843.43804,0.12775
3845.36651,0.12918
3847.29498,0.13133
3849.22344,0.13513
3851.15191,0.14032
3853.08038,0.14255
3855.00885,0.13758
3856.93732,0.13063
3858.86579,0.12362
3860.79426,0.12093
3862.72272,0.12798
3864.65119,0.13130
3866.57966,0.12305
3868.50813,0.12468
3870.43660,0.14340
3872.36507,0.15510
3874.29354,0.14867
3876.22200,0.13502
3878.15047,0.12699
3880.07894,0.12881
3882.00741,0.13291
3883.93588,0.12963
3885.86435,0.12397
3887.79282,0.12726
3889.72129,0.13608
3891.64975,0.13706
3893.57822,0.12816
3895.50669,0.12286
3897.43516,0.12391
3899.36363,0.12999
3901.29210,0.13595
3903.22057,0.13435
3905.14903,0.12931
3907.07750,0.12441
3909.00597,0.11903
3910.93444,0.11630
3912.86291,0.11770
3914.79138,0.11785
3916.71985,0.11232
3918.64832,0.10620
3920.57678,0.10558
3922.50525,0.11278
3924.43372,0.12353
3926.36219,0.12763
3928.29066,0.12413
3930.21913,0.11724
3932.14760,0.11354
3934.07606,0.11464
3936.00453,0.11336
3937.93300,0.11072
3939.86147,0.11226
3941.78994,0.11600
3943.71841,0.11501
3945.64688,0.10971
3947.57535,0.10490
3949.50381,0.10561
3951.43228,0.11081
3953.36075,0.11171
3955.28922,0.10949
3957.21769,0.11062
3959.14616,0.11179
3961.07463,0.10826
3963.00309,0.10432
3964.93156,0.10455
3966.86003,0.10917
3968.78850,0.11459
3970.71697,0.11316
3972.64544,0.10573
3974.57391,0.10122
3976.50238,0.10295
3978.43084,0.10664
3980.35931,0.10802
3982.28778,0.10911
3984.21625,0.11055
3986.14472,0.11004
3988.07319,0.11055
3990.00166,0.11244
3991.93012,0.11071
3993.85859,0.10527
3995.78706,0.10213
3997.71553,0.10400
3999.64400,0.10707
4001.57247,0.10985
4003.50094,0.11280
4005.42941,0.11210
4007.35787,0.10713
4009.28634,0.10466
4011.21481,0.10707
4013.14328,0.10886
4015.07175,0.10785
4017.00022,0.10741
4018.92869,0.10794
4020.85715,0.10556
4022.78562,0.10063
4024.71409,0.09941
4026.64256,0.10374
4028.57103,0.10751
4030.49950,0.10690
4032.42797,0.10334
4034.35644,0.09858
4036.28490,0.09532
4038.21337,0.09421
4040.14184,0.09337
4042.07031,0.09446
4043.99878,0.09841
4045.92725,0.10013
4047.85572,0.09767
4049.78418,0.09726
4051.71265,0.10041
4053.64112,0.10169
4055.56959,0.09833
4057.49806,0.09254
4059.42653,0.08990
4061.35500,0.09143
4063.28346,0.09387
4065.21193,0.09693
4067.14040,0.09937
4069.06887,0.09963
4070.99734,0.09952
4072.92581,0.09912
4074.85428,0.09788
4076.78275,0.10018
4078.71121,0.10609
4080.63968,0.10892
4082.56815,0.10926
4084.49662,0.10941
4086.42509,0.10637
4088.35356,0.10179
4090.28203,0.09695
4092.21049,0.08938
4094.13896,0.08475
4096.06743,0.08949
4097.99590,0.09699
4099.92437,0.09819
4101.85284,0.09501
4103.78131,0.09267
4105.70978,0.09232
4107.63824,0.09362
4109.56671,0.09348
4111.49518,0.09284
4113.42365,0.09379
4115.35212,0.09132
4117.28059,0.08829
4119.20906,0.09060
4121.13752,0.09445
4123.06599,0.09524
4124.99446,0.09235
4126.92293,0.09003
4128.85140,0.09097
4130.77987,0.09072
4132.70834,0.08540
4134.63681,0.08095
4136.56527,0.08595
4138.49374,0.09407
4140.42221,0.09335
4142.35068,0.08716
4144.27915,0.08714
4146.20762,0.09121
4148.13609,0.08906
4150.06455,0.08332
4151.99302,0.08387
4153.92149,0.09067
4155.84996,0.09308
4157.77843,0.08546
4159.70690,0.07499
4161.63537,0.07196
4163.56384,0.07721
4165.49230,0.08336
4167.42077,0.08548
4169.34924,0.08121
4171.27771,0.07256
4173.20618,0.06633
4175.13465,0.06504
4177.06312,0.06841
4178.99158,0.07337
4180.92005,0.07559
4182.84852,0.07572
4184.77699,0.07365
4186.70546,0.06985
4188.63393,0.06971
4190.56240,0.07454
4192.49087,0.07909
4194.41933,0.08145
4196.34780,0.08391
4198.27627,0.08609
4200.20474,0.08667
4202.13321,0.08517
4204.06168,0.08278
4205.99015,0.08328
4207.91861,0.08476
4209.84708,0.08358
4211.77555,0.08091
4213.70402,0.07410
4215.63249,0.06393
4217.56096,0.06046
4219.48943,0.06803
4221.41789,0.07837
4223.34636,0.08208
4225.27483,0.08141
4227.20330,0.07892
4229.13177,0.07384
4231.06024,0.07003
4232.98871,0.06706
4234.91718,0.06360
4236.84564,0.06213
4238.77411,0.06396
4240.70258,0.06718
4242.63105,0.06654
4244.55952,0.06295
4246.48799,0.06077
4248.41646,0.06136
4250.34492,0.06593
4252.27339,0.06847
4254.20186,0.06343
4256.13033,0.05821
4258.05880,0.05756
4259.98727,0.05800
4261.91574,0.05721
4263.84421,0.05427
4265.77267,0.05079
4267.70114,0.05072
4269.62961,0.05660
4271.55808,0.06273
4273.48655,0.06304
4275.41502,0.06223
4277.34349,0.06335
4279.27195,0.06272
4281.20042,0.05645
4283.12889,0.04653
4285.05736,0.04252
4286.98583,0.04687
4288.91430,0.05111
4290.84277,0.05024
4292.77124,0.05101
4294.69970,0.06274
4296.62817,0.07693
4298.55664,0.07644
4300.48511,0.06440
4302.41358,0.05357
4304.34205,0.05022
4306.27052,0.05713
4308.19898,0.06632
4310.12745,0.06594
4312.05592,0.05866
4313.98439,0.05549
4315.91286,0.05715
4317.84133,0.05446
4319.76980,0.04651
4321.69827,0.04410
4323.62673,0.05227
4325.55520,0.06066
4327.48367,0.05988
4329.41214,0.05553
4331.34061,0.05469
4333.26908,0.05535
4335.19755,0.05314
4337.12601,0.04816
4339.05448,0.04611
4340.98295,0.04897
4342.91142,0.05114
4344.83989,0.05050
4346.76836,0.04595
4348.69683,0.03679
4350.62530,0.03191
4352.55376,0.03602
4354.48223,0.04345
4356.41070,0.04967
4358.33917,0.05004
4360.26764,0.04536
4362.19611,0.04500
4364.12458,0.04851
4366.05304,0.04932
4367.98151,0.04672
4369.90998,0.04042
4371.83845,0.03770
4373.76692,0.04329
4375.69539,0.04976
4377.62386,0.05270
4379.55232,0.05043
4381.48079,0.04643
4383.40926,0.04522
4385.33773,0.04164
4387.26620,0.03592
4389.19467,0.03497
4391.12314,0.03842
4393.05161,0.04018
4394.98007,0.04026
4396.90854,0.04346
4398.83701,0.04695
4400.76548,0.04631
4402.69395,0.04185
4404.62242,0.03559
4406.55089,0.03264
4408.47935,0.03466
4410.40782,0.03833
4412.33629,0.04263
4414.26476,0.04760
4416.19323,0.04905
4418.12170,0.04391
4420.05017,0.03719
4421.97864,0.03405
4423.90710,0.03403
4425.83557,0.03552
4427.76404,0.03920
4429.69251,0.04334
4431.62098,0.04304
4433.54945,0.04043
4435.47792,0.03874
4437.40638,0.03397
4439.33485,0.02707
4441.26332,0.02724
4443.19179,0.03484
4445.12026,0.03984
4447.04873,0.03859
4448.97720,0.03472
4450.90567,0.02903
4452.83413,0.01986
4454.76260,0.01420
4456.69107,0.01716
4458.61954,0.01815
4460.54801,0.01380
4462.47648,0.01440
4464.40495,0.02120
4466.33341,0.02608
4468.26188,0.02493
4470.19035,0.02235
4472.11882,0.02343
4474.04729,0.02897
4475.97576,0.03823
4477.90423,0.04400
4479.83270,0.03874
4481.76116,0.02535
4483.68963,0.01371
4485.61810,0.00916
4487.54657,0.00616
4489.47504,0.00432
4491.40351,0.01270
4493.33198,0.02806
4495.26044,0.03803
4497.18891,0.04177
4499.11738,0.04305
4501.04585,0.03820
4502.97432,0.02671
4504.90279,0.01795
4506.83126,0.01835
4508.75973,0.02185
4510.68819,0.02044
4512.61666,0.01889
4514.54513,0.02347
4516.47360,0.02833
4518.40207,0.02847
4520.33054,0.02565
4522.25901,0.02614
4524.18747,0.03396
4526.11594,0.04027
4528.04441,0.03706
4529.97288,0.02454
4531.90135,0.01238
4533.82982,0.01154
4535.75829,0.01484
4537.68676,0.01817
4539.61522,0.02519
4541.54369,0.03033
4543.47216,0.02738
4545.40063,0.01358
4547.32910,0.00003
4549.25757,-0.00013
4551.18604,0.00582
4553.11450,0.00853
4555.04297,0.00663
4556.97144,0.00257
4558.89991,0.00004
4560.82838,-0.00020
4562.75685,0.00208
4564.68532,0.00347
4566.61378,0.00355
4568.54225,0.01057
4570.47072,0.01974
4572.39919,0.01630
4574.32766,0.00943
4576.25613,0.01320
4578.18460,0.01978
4580.11307,0.02453
4582.04153,0.02550
4583.97000,0.01904
4585.89847,0.00998
4587.82694,0.00663
4589.75541,0.01558
4591.68388,0.02621
4593.61235,0.02573
4595.54081,0.01899
4597.46928,0.01496
4599.39775,0.01640
4601.32622,0.01908
4603.25469,0.02369
4605.18316,0.03012
4607.11163,0.03414
4609.04010,0.03665
4610.96856,0.03245
4612.89703,0.01897
4614.82550,0.00728
4616.75397,0.00249
4618.68244,-0.00070
4620.61091,-0.00383
4622.53938,-0.00332
4624.46784,0.00300
4626.39631,0.01200
4628.32478,0.02009
4630.25325,0.02503
4632.18172,0.02170
4634.11019,0.01325
4636.03866,0.00962
4637.96713,0.01004
4639.89559,0.01182
4641.82406,0.01617
4643.75253,0.02139
4645.68100,0.02558
4647.60947,0.02221
4649.53794,0.01187
4651.46641,0.00628
4653.39487,0.00268
4655.32334,-0.00333
4657.25181,-0.00392
4659.18028,0.00289
4661.10875,0.01363
4663.03722,0.02252
4664.96569,0.02367
4666.89416,0.02341
4668.82262,0.02457
4670.75109,0.01460
4672.67956,-0.00019
4674.60803,0.00268
4676.53650,0.01482
4678.46497,0.01652
4680.39344,0.01431
4682.32190,0.01168
4684.25037,0.00564
4686.17884,0.00547
4688.10731,0.01318
4690.03578,0.02075
4691.96425,0.02311
4693.89272,0.02068
4695.82119,0.01676
4697.74965,0.01259
4699.67812,0.01123
4701.60659,0.01682
4703.53506,0.02124
4705.46353,0.01424
4707.39200,0.00665
4709.32047,0.00975
4711.24893,0.01006
4713.17740,0.00205
4715.10587,0.00353
4717.03434,0.01360
4718.96281,0.01465
4720.89128,0.00780
4722.81975,0.00332
4724.74821,0.00382
4726.67668,0.00920
4728.60515,0.01695
4730.53362,0.01996
4732.46209,0.01868
4734.39056,0.02202
4736.31903,0.02820
4738.24750,0.02387
4740.17596,0.00968
4742.10443,0.00320
4744.03290,0.00677
4745.96137,0.00625
4747.88984,0.00037
4749.81831,0.00082
4751.74678,0.00856
4753.67524,0.01186
4755.60371,0.00861
4757.53218,0.00660
4759.46065,0.00429
4761.38912,0.00517
4763.31759,0.01233
4765.24606,0.00905
4767.17453,-0.00485
4769.10299,-0.01334
4771.03146,-0.01282
4772.95993,-0.00670
4774.88840,-0.00555
4776.81687,-0.01382
4778.74534,-0.01839
4780.67381,-0.00818
4782.60227,0.00715
4784.53074,0.01154
4786.45921,0.00496
4788.38768,0.00100
4790.31615,0.00463
4792.24462,0.00920
4794.17309,0.01645
4796.10156,0.02128
4798.03002,0.01262
4799.95849,0.00052
4801.88696,-0.00244
4803.81543,0.00228
4805.74390,0.00394
4807.67237,-0.00749
4809.60084,-0.01769
4811.52930,-0.00727
4813.45777,0.00730
4815.38624,0.00772
4817.31471,0.00671
4819.24318,0.00834
4821.17165,0.00406
4823.10012,0.00020
4825.02859,0.00438
4826.95705,0.00858
4828.88552,0.00900
4830.81399,0.01065
4832.74246,0.00925
4834.67093,0.00016
4836.59940,-0.00779
4838.52787,-0.00204
4840.45633,0.01045
4842.38480,0.01622
4844.31327,0.02026
4846.24174,0.02298
4848.17021,0.02188
4850.09868,0.01737
4852.02715,0.00860
4853.95562,0.00603
4855.88408,0.00785
4857.81255,0.00389
4859.74102,0.00100
4861.66949,0.00188
4863.59796,0.00217
4865.52643,0.00699
4867.45490,0.01692
4869.38336,0.01751
4871.31183,0.00523
4873.24030,-0.00768
4875.16877,-0.01232
4877.09724,-0.00563
4879.02571,0.00835
4880.95418,0.02068
4882.88265,0.02094
4884.81111,0.00858
4886.73958,-0.00043
4888.66805,-0.00289
4890.59652,-0.01066
4892.52499,-0.01418
4894.45346,0.00207
4896.38193,0.02255
4898.31039,0.02356
4900.23886,0.00734
4902.16733,-0.00206
4904.09580,0.00986
4906.02427,0.02207
4907.95274,0.01328
4909.88121,0.00327
4911.80967,0.01288
4913.73814,0.02699
4915.66661,0.02567
4917.59508,0.01213
4919.52355,0.00172
4921.45202,-0.00090
4923.38049,-0.00217
4925.30896,-0.00421
4927.23742,-0.00271
4929.16589,0.00472
4931.09436,0.01007
4933.02283,0.00782
4934.95130,0.00583
4936.87977,0.00843
4938.80824,0.01528
4940.73670,0.02514
4942.66517,0.02723
4944.59364,0.01619
4946.52211,0.00109
4948.45058,-0.00820
4950.37905,-0.00676
4952.30752,0.00315
4954.23599,0.01514
4956.16445,0.02171
4958.09292,0.01919
4960.02139,0.01298
4961.94986,0.00476
4963.87833,-0.00454
4965.80680,-0.00383
4967.73527,0.01158
4969.66373,0.02580
4971.59220,0.02215
4973.52067,0.01470
4975.44914,0.02054
4977.37761,0.02309
4979.30608,0.01059
4981.23455,-0.00111
4983.16302,0.00441
4985.09148,0.01806
4987.01995,0.01804
4988.94842,0.00803
4990.87689,0.00987
4992.80536,0.02136
4994.73383,0.01984
4996.66230,0.00158
4998.59076,-0.01632
5000.51923,-0.01548
5002.44770,0.00134
5004.37617,0.01373
5006.30464,0.01961
5008.23311,0.01536
5010.16158,0.00139
5012.09005,0.00078
5014.01851,0.01307
5015.94698,0.02328
5017.87545,0.03046
5019.80392,0.03376
5021.73239,0.03169
5023.66086,0.02969
5025.58933,0.02928
5027.51779,0.02447
5029.44626,0.01915
5031.37473,0.01966
5033.30320,0.01773
5035.23167,0.00842
5037.16014,0.00562
5039.08861,0.01240
5041.01708,0.01113
5042.94554,0.00265
5044.87401,0.00251
5046.80248,0.00711
5048.73095,0.00894
5050.65942,0.00723
5052.58789,-0.00035
5054.51636,-0.00228
5056.44482,0.00516
5058.37329,0.00630
5060.30176,0.00999
5062.23023,0.02936
5064.15870,0.04495
5066.08717,0.04709
5068.01564,0.04480
5069.94410,0.03202
5071.87257,0.00716
5073.80104,-0.01066
5075.72951,-0.00798
5077.65798,0.00734
5079.58645,0.01883
5081.51492,0.02319
5083.44339,0.02294
5085.37185,0.02180
5087.30032,0.02665
5089.22879,0.03012
5091.15726,0.02725
5093.08573,0.02803
5095.01420,0.03350
5096.94267,0.03454
5098.87113,0.02921
5100.79960,0.02233
5102.72807,0.01943
5104.65654,0.02616
5106.58501,0.03392
5108.51348,0.02980
5110.44195,0.02616
5112.37042,0.03732
5114.29888,0.05027
5116.22735,0.04743
5118.15582,0.03152
5120.08429,0.01990
5122.01276,0.02323
5123.94123,0.03172
5125.86970,0.03237
5127.79816,0.02770
5129.72663,0.02399
5131.65510,0.02052
5133.58357,0.02066
5135.51204,0.03177
5137.44051,0.04460
5139.36898,0.03798
5141.29745,0.01888
5143.22591,0.01323
5145.15438,0.02202
5147.08285,0.03405
5149.01132,0.04015
5150.93979,0.02959
5152.86826,0.01248
5154.79673,0.00965
5156.72519,0.00647
5158.65366,-0.01034
5160.58213,-0.00903
5162.51060,0.00900
5164.43907,0.01789
5166.36754,0.02445
5168.29601,0.02782
5170.22448,0.02287
5172.15294,0.02063
5174.08141,0.02251
5176.00988,0.01512
5177.93835,0.00435
5179.86682,0.01033
5181.79529,0.02863
5183.72376,0.04195
5185.65222,0.03976
5187.58069,0.03095
5189.50916,0.02518
5191.43763,0.01708
5193.36610,0.00917
5195.29457,0.00424
5197.22304,-0.00054
5199.15151,-0.00648
5201.07997,-0.00905
5203.00844,-0.00230
5204.93691,0.00851
5206.86538,0.01557
5208.79385,0.01173
5210.72232,0.00164
5212.65079,0.00852
5214.57925,0.03178
5216.50772,0.04412
5218.43619,0.03550
5220.36466,0.01879
5222.29313,0.00794
5224.22160,0.00687
5226.15007,0.01194
5228.07854,0.01624
5230.00700,0.02053
5231.93547,0.02448
5233.86394,0.02667
5235.79241,0.03289
5237.72088,0.03536
5239.64935,0.02863
5241.57782,0.02236
5243.50628,0.02415
5245.43475,0.03707
5247.36322,0.05132
5249.29169,0.05850
5251.22016,0.06455
5253.14863,0.06697
5255.07710,0.05318
5257.00556,0.02931
5258.93403,0.00953
5260.86250,-0.01359
5262.79097,-0.03339
5264.71944,-0.01134
5266.64791,0.03909
5268.57638,0.06432
5270.50485,0.06175
5272.43331,0.05961
5274.36178,0.06167
5276.29025,0.05266
5278.21872,0.03490
5280.14719,0.03169
5282.07566,0.04763
5284.00413,0.05592
5285.93259,0.04696
5287.86106,0.03981
5289.78953,0.03764
5291.71800,0.03853
5293.64647,0.05103
5295.57494,0.07039
5297.50341,0.08470
5299.43188,0.09725
5301.36034,0.11053
5303.28881,0.10214
5305.21728,0.07591
5307.14575,0.06911
5309.07422,0.07914
5311.00269,0.07227
5312.93116,0.05164
5314.85962,0.04938
5316.78809,0.06139
5318.71656,0.05301
5320.64503,0.04455
5322.57350,0.05726
5324.50197,0.06032
5326.43044,0.05408
5328.35891,0.05883
5330.28737,0.06496
5332.21584,0.07112
5334.14431,0.07329
5336.07278,0.06623
5338.00125,0.05976
5339.92972,0.05539
5341.85819,0.05478
5343.78665,0.06094
5345.71512,0.06522
5347.64359,0.07138
5349.57206,0.09193
5351.50053,0.12766
5353.42900,0.15486
5355.35747,0.13462
5357.28594,0.08486
5359.21440,0.05230
5361.14287,0.05172
5363.07134,0.06120
5364.99981,0.06224
5366.92828,0.06484
5368.85675,0.07765
5370.78522,0.09671
5372.71368,0.10581
5374.64215,0.09095
5376.57062,0.06743
5378.49909,0.06673
5380.42756,0.09106
5382.35603,0.10465
5384.28450,0.07766
5386.21297,0.04640
5388.14143,0.05153
5390.06990,0.05837
5391.99837,0.05163
5393.92684,0.05967
5395.85531,0.07182
5397.78378,0.07039
5399.71225,0.08222
5401.64071,0.09972
5403.56918,0.09649
5405.49765,0.08334
5407.42612,0.06931
5409.35459,0.04684
5411.28306,0.02603
5413.21153,0.01819
5415.13999,0.02207
5417.06846,0.04267
5418.99693,0.06251
5420.92540,0.05845
5422.85387,0.04260
5424.78234,0.04030
5426.71081,0.06297
5428.63928,0.07944
5430.56774,0.05257
5432.49621,0.02090
5434.42468,0.02472
5436.35315,0.05109
5438.28162,0.07357
5440.21009,0.08669
5442.13856,0.09191
5444.06702,0.08268
5445.99549,0.05465
5447.92396,0.04023
5449.85243,0.05910
5451.78090,0.07778
5453.70937,0.08401
5455.63784,0.08297
5457.56631,0.06471
5459.49477,0.05167
5461.42324,0.06102
5463.35171,0.05723
5465.28018,0.03763
5467.20865,0.02879
5469.13712,0.03589
5471.06559,0.05869
5472.99405,0.07596
5474.92252,0.06812
5476.85099,0.06347
5478.77946,0.07862
5480.70793,0.08845
5482.63640,0.09185
5484.56487,0.09916
5486.49334,0.10594
5488.42180,0.10657
5490.35027,0.08762
5492.27874,0.04948
5494.20721,0.03061
5496.13568,0.03853
5498.06415,0.03689
5499.99262,0.03962
5501.92108,0.07320
5503.84955,0.08906
5505.77802,0.05763
5507.70649,0.02540
5509.63496,0.03075
5511.56343,0.04670
5513.49190,0.05005
5515.42037,0.06056
5517.34883,0.08314
5519.27730,0.09014
5521.20577,0.07844
5523.13424,0.07125
5525.06271,0.06337
5526.99118,0.05011
5528.91965,0.05099
5530.84811,0.06829
5532.77658,0.08668
5534.70505,0.08270
5536.63352,0.06094
5538.56199,0.05377
5540.49046,0.05815
5542.41893,0.07069
5544.34740,0.10077
5546.27586,0.11672
5548.20433,0.09809
5550.13280,0.07928
5552.06127,0.08642
5553.98974,0.10223
5555.91821,0.10399
5557.84668,0.10184
5559.77514,0.11073
5561.70361,0.12439
5563.63208,0.12691
5565.56055,0.11338
5567.48902,0.09530
5569.41749,0.08978
5571.34596,0.10007
5573.27443,0.10606
5575.20289,0.09609
5577.13136,0.07658
5579.05983,0.05995
5580.98830,0.06276
5582.91677,0.08254
5584.84524,0.09648
5586.77371,0.08573
5588.70217,0.06258
5590.63064,0.05405
5592.55911,0.04310
5594.48758,0.01528
5596.41605,0.00330
5598.34452,0.02666
5600.27299,0.07147
5602.20145,0.10534
5604.12992,0.10411
5606.05839,0.09540
5607.98686,0.10461
5609.91533,0.09920
5611.84380,0.06702
5613.77227,0.05100
5615.70074,0.04729
5617.62920,0.03469
5619.55767,0.04254
5621.48614,0.07101
5623.41461,0.08774
5625.34308,0.09090
5627.27155,0.09527
5629.20002,0.10392
5631.12848,0.12139
5633.05695,0.14870
5634.98542,0.16602
5636.91389,0.16209
5638.84236,0.14251
5640.77083,0.11785
5642.69930,0.10740
5644.62777,0.12220
5646.55623,0.14430
5648.48470,0.14561
5650.41317,0.13517
5652.34164,0.13287
5654.27011,0.12785
5656.19858,0.11582
5658.12705,0.10587
5660.05551,0.09537
5661.98398,0.09287
5663.91245,0.10366
5665.84092,0.10831
5667.76939,0.10082
5669.69786,0.09120
5671.62633,0.08076
5673.55480,0.07748
5675.48326,0.09499
5677.41173,0.11592
5679.34020,0.12758
5681.26867,0.14431
5683.19714,0.16348
5685.12561,0.16761
5687.05408,0.14565
5688.98254,0.11804
5690.91101,0.10936
5692.83948,0.11133
5694.76795,0.10818
5696.69642,0.08824
5698.62489,0.07127
5700.55336,0.09395
5702.48183,0.12456
5704.41029,0.10743
5706.33876,0.07312
5708.26723,0.07019
5710.19570,0.08722
5712.12417,0.10070
5714.05264,0.10823
5715.98111,0.12080
5717.90957,0.11862
5719.83804,0.09024
5721.76651,0.07722
5723.69498,0.08924
5725.62345,0.09357
5727.55192,0.07752
5729.48039,0.07641
5731.40886,0.10147
5733.33732,0.11482
5735.26579,0.11576
5737.19426,0.11200
5739.12273,0.08573
5741.05120,0.06674
5742.97967,0.08587
5744.90814,0.09894
5746.83660,0.07640
5748.76507,0.05433
5750.69354,0.05255
5752.62201,0.06142
5754.55048,0.08594
5756.47895,0.10958
5758.40742,0.10504
5760.33588,0.08742
5762.26435,0.08276
5764.19282,0.08983
5766.12129,0.08274
5768.04976,0.05464
5769.97823,0.04660
5771.90670,0.08082
5773.83517,0.12010
5775.76363,0.12644
5777.69210,0.10953
5779.62057,0.09130
5781.54904,0.07279
5783.47751,0.07325
5785.40598,0.09064
5787.33445,0.08516
5789.26291,0.07431
5791.19138,0.07364
5793.11985,0.05776
5795.04832,0.05717
5796.97679,0.07920
5798.90526,0.07901
5800.83373,0.06713
5802.76220,0.06156
5804.69066,0.04921
5806.61913,0.03228
5808.54760,0.04120
5810.47607,0.07909
5812.40454,0.10863
5814.33301,0.11782
5816.26148,0.10941
5818.18994,0.08608
5820.11841,0.06832
5822.04688,0.07059
5823.97535,0.09685
5825.90382,0.12414
5827.83229,0.11887
5829.76076,0.08359
5831.68923,0.06088
5833.61769,0.07278
5835.54616,0.08741
5837.47463,0.08645
5839.40310,0.08577
5841.33157,0.09573
5843.26004,0.11206
5845.18851,0.11395
5847.11697,0.09997
5849.04544,0.08744
5850.97391,0.07093
5852.90238,0.05350
5854.83085,0.06537
5856.75932,0.10602
5858.68779,0.13489
5860.61626,0.14157
5862.54472,0.14827
5864.47319,0.14702
5866.40166,0.12136
5868.33013,0.09667
5870.25860,0.08599
5872.18707,0.07098
5874.11554,0.06013
5876.04400,0.05794
5877.97247,0.05064
5879.90094,0.06177
5881.82941,0.07859
5883.75788,0.05972
5885.68635,0.03382
5887.61482,0.03591
5889.54329,0.05681
5891.47175,0.05390
5893.40022,0.01837
5895.32869,0.00173
5897.25716,0.01354
5899.18563,0.03785
5901.11410,0.07458
5903.04257,0.08793
5904.97103,0.06781
5906.89950,0.05839
5908.82797,0.07231
5910.75644,0.08861
5912.68491,0.08385
5914.61338,0.06863
5916.54185,0.08690
5918.47032,0.10938
5920.39878,0.08722
5922.32725,0.06015
5924.25572,0.06278
5926.18419,0.06224
5928.11266,0.03668
5930.04113,0.02626
5931.96960,0.04747
5933.89806,0.08371
5935.82653,0.12916
5937.75500,0.15067
5939.68347,0.13986
5941.61194,0.11834
5943.54041,0.07776
5945.46888,0.06013
5947.39734,0.10121
5949.32581,0.11821
5951.25428,0.07923
5953.18275,0.06821
5955.11122,0.09329
5957.03969,0.10057
5958.96816,0.11357
5960.89663,0.15337
5962.82509,0.16408
5964.75356,0.14104
5966.68203,0.09647
5968.61050,0.04814
5970.53897,0.04811
5972.46744,0.08673
5974.39591,0.10773
5976.32437,0.09013
5978.25284,0.06089
5980.18131,0.04353
5982.10978,0.04704
5984.03825,0.07274
5985.96672,0.09473
5987.89519,0.08504
5989.82366,0.04535
5991.75212,0.01169
5993.68059,0.01289
5995.60906,0.03535
5997.53753,0.06220
5999.46600,0.10395
6001.39447,0.14233
6003.32294,0.12466
6005.25140,0.06965
6007.17987,0.06587
6009.10834,0.09989
6011.03681,0.08525
6012.96528,0.05054
6014.89375,0.07691
6016.82222,0.12756
6018.75069,0.11738
6020.67915,0.08232
6022.60762,0.08240
6024.53609,0.09382
6026.46456,0.10280
6028.39303,0.09968
6030.32150,0.06712
6032.24997,0.03909
6034.17843,0.04161
6036.10690,0.03175
6038.03537,0.00155
6039.96384,0.01614
6041.89231,0.07033
6043.82078,0.09153
6045.74925,0.07012
6047.67772,0.04493
6049.60618,0.03794
6051.53465,0.06193
6053.46312,0.09605
6055.39159,0.11067
6057.32006,0.12422
6059.24853,0.15009
6061.17700,0.14549
6063.10546,0.08016
6065.03393,0.02175
6066.96240,0.03889
6068.89087,0.08921
6070.81934,0.11585
6072.74781,0.13168
6074.67628,0.15003
6076.60475,0.15057
6078.53321,0.13567
6080.46168,0.12132
6082.39015,0.09808
6084.31862,0.07093
6086.24709,0.06725
6088.17556,0.08777
6090.10403,0.11162
6092.03249,0.12366
6093.96096,0.10981
6095.88943,0.08317
6097.81790,0.09611
6099.74637,0.13251
6101.67484,0.12568
6103.60331,0.08943
6105.53177,0.06643
6107.46024,0.08284
6109.38871,0.12457
6111.31718,0.14133
6113.24565,0.13362
6115.17412,0.11787
6117.10259,0.10009
6119.03106,0.09170
6120.95952,0.08656
6122.88799,0.08988
6124.81646,0.12985
6126.74493,0.18570
6128.67340,0.19106
6130.60187,0.12805
6132.53034,0.05076
6134.45880,0.01906
6136.38727,0.04534
6138.31574,0.08431
6140.24421,0.07621
6142.17268,0.04557
6144.10115,0.04543
6146.02962,0.05918
6147.95809,0.07568
6149.88655,0.07968
6151.81502,0.05507
6153.74349,0.05466
6155.67196,0.10759
6157.60043,0.14946
6159.52890,0.13689
6161.45737,0.09713
6163.38583,0.07844
6165.31430,0.11722
6167.24277,0.17269
6169.17124,0.17242
6171.09971,0.11444
6173.02818,0.05490
6174.95665,0.02661
6176.88512,0.01725
6178.81358,0.01199
6180.74205,0.02248
6182.67052,0.05504
6184.59899,0.07173
6186.52746,0.06912
6188.45593,0.09171
6190.38440,0.14088
6192.31286,0.16273
6194.24133,0.10991
6196.16980,0.04906
6198.09827,0.06140
6200.02674,0.08703
6201.95521,0.07086
6203.88368,0.03451
6205.81215,0.01926
6207.74061,0.02806
6209.66908,0.02234
6211.59755,0.01581
6213.52602,0.06322
6215.45449,0.13127
6217.38296,0.14333
6219.31143,0.11883
6221.23989,0.11413
6223.16836,0.13179
6225.09683,0.17248
6227.02530,0.20482
6228.95377,0.16696
6230.88224,0.10114
6232.81071,0.07803
6234.73918,0.05491
6236.66764,0.02406
6238.59611,0.04980
6240.52458,0.11970
6242.45305,0.15705
6244.38152,0.15314
6246.30999,0.15739
6248.23846,0.16378
6250.16692,0.13711
6252.09539,0.08836
6254.02386,0.05087
6255.95233,0.04703
6257.88080,0.07959
6259.80927,0.09884
6261.73774,0.08307
6263.66621,0.08861
6265.59467,0.12166
6267.52314,0.11669
6269.45161,0.10650
6271.38008,0.17317
6273.30855,0.26732
6275.23702,0.26537
6277.16549,0.20058
6279.09395,0.15954
6281.02242,0.11544
6282.95089,0.05425
6284.87936,0.01515
6286.80783,0.01974
6288.73630,0.05537
6290.66477,0.07846
6292.59323,0.05028
6294.52170,0.00447
6296.45017,0.02535
6298.37864,0.08092
6300.30711,0.07274
6302.23558,0.04087
6304.16405,0.02146
6306.09252,0.02030
6308.02098,0.08443
6309.94945,0.14611
6311.87792,0.15833
6313.80639,0.15383
6315.73486,0.14407
6317.66333,0.13635
6319.59180,0.11545
6321.52026,0.06617
6323.44873,0.03742
6325.37720,0.05498
6327.30567,0.06268
6329.23414,0.08311
6331.16261,0.15398
6333.09108,0.16996
6335.01955,0.09834
6336.94801,0.07194
6338.87648,0.14473
6340.80495,0.18500
6342.73342,0.11071
6344.66189,0.02302
6346.59036,0.02495
6348.51883,0.07305
6350.44729,0.10771
6352.37576,0.14943
6354.30423,0.16503
6356.23270,0.14048
6358.16117,0.11498
6360.08964,0.07675
6362.01811,0.04275
6363.94658,0.06051
6365.87504,0.05752
6367.80351,-0.01768
6369.73198,-0.02939
6371.66045,0.05102
6373.58892,0.12015
6375.51739,0.18556
6377.44586,0.21952
6379.37432,0.15996
6381.30279,0.08532
6383.23126,0.08915
6385.15973,0.10664
6387.08820,0.05795
6389.01667,0.01637
6390.94514,0.01865
6392.87361,0.01777
6394.80207,0.02399
6396.73054,0.03024
6398.65901,0.01521
6400.58748,0.03589
6402.51595,0.08380
6404.44442,0.08370
6406.37289,0.05987
6408.30135,0.04891
6410.22982,0.04318
6412.15829,0.03993
6414.08676,0.02255
6416.01523,0.00972
6417.94370,0.02150
6419.87217,0.02727
6421.80064,0.02728
6423.72910,0.06175
6425.65757,0.12167
6427.58604,0.13053
6429.51451,0.07354
6431.44298,0.03755
6433.37145,0.05969
6435.29992,0.08680
6437.22838,0.08513
6439.15685,0.08493
6441.08532,0.09957
6443.01379,0.06323
6444.94226,0.01104
6446.87073,0.03501
6448.79920,0.08458
6450.72766,0.08546
6452.65613,0.05187
6454.58460,0.03536
6456.51307,0.03395
6458.44154,0.05016
6460.37001,0.09684
6462.29848,0.12619
6464.22695,0.10875
6466.15541,0.10023
6468.08388,0.15182
6470.01235,0.17975
6471.94082,0.10755
6473.86929,0.04916
6475.79776,0.06871
6477.72623,0.09703
6479.65469,0.11017
6481.58316,0.10233
6483.51163,0.06426
6485.44010,0.04410
6487.36857,0.03943
6489.29704,0.03492
6491.22551,0.05585
6493.15398,0.09651
6495.08244,0.12394
6497.01091,0.13527
6498.93938,0.13135
6500.86785,0.10580
6502.79632,0.10662
6504.72479,0.13347
6506.65326,0.12097
6508.58172,0.07543
6510.51019,0.04609
6512.43866,0.04608
6514.36713,0.03914
6516.29560,0.01483
6518.22407,0.00012
6520.15254,-0.00178
6522.08101,0.00939
6524.00947,0.04881
6525.93794,0.10354
6527.86641,0.12320
6529.79488,0.07488
6531.72335,0.00425
6533.65182,0.00219
6535.58029,0.03133
6537.50875,-0.00819
6539.43722,-0.07029
6541.36569,-0.05498
6543.29416,0.00166
6545.22263,0.04839
6547.15110,0.10226
6549.07957,0.12358
6551.00804,0.08445
6552.93650,0.03689
6554.86497,0.01848
6556.79344,0.03457
6558.72191,0.04843
6560.65038,0.03688
6562.57885,0.01736
6564.50732,0.01656
6566.43578,0.01108
6568.36425,-0.02804
6570.29272,-0.03469
6572.22119,0.01324
6574.14966,0.06174
6576.07813,0.10661
6578.00660,0.15167
6579.93507,0.18412
6581.86353,0.20344
6583.79200,0.16376
6585.72047,0.05988
6587.64894,-0.00803
6589.57741,0.02100
6591.50588,0.06830
6593.43435,0.01346
6595.36281,-0.08179
6597.29128,-0.08344
6599.21975,-0.04697
6601.14822,-0.01090
6603.07669,0.07235
6605.00516,0.15225
6606.93363,0.17814
6608.86210,0.17918
6610.79056,0.17954
6612.71903,0.19388
6614.64750,0.21785
6616.57597,0.20919
6618.50444,0.18387
6620.43291,0.18353
6622.36138,0.17919
6624.28984,0.12157
6626.21831,0.03331
6628.14678,0.02227
6630.07525,0.09938
6632.00372,0.10904
6633.93219,0.06295
6635.86066,0.07771
6637.78912,0.12692
6639.71759,0.13625
6641.64606,0.07007
6643.57453,-0.05466
6645.50300,-0.13718
6647.43147,-0.13369
6649.35994,-0.07708
6651.28841,-0.03310
6653.21687,-0.04547
6655.14534,-0.02973
6657.07381,0.07981
6659.00228,0.16034
6660.93075,0.14357
6662.85922,0.10677
6664.78769,0.07382
6666.71615,0.04292
6668.64462,0.01556
6670.57309,-0.04342
6672.50156,-0.06846
6674.43003,0.03595
6676.35850,0.17954
6678.28697,0.20518
6680.21544,0.09277
6682.14390,-0.01336
6684.07237,-0.01959
6686.00084,0.01451
6687.92931,0.02137
6689.85778,-0.00634
6691.78625,-0.03536
6693.71472,-0.01779
6695.64318,0.03379
6697.57165,0.05082
6699.50012,0.01308
6701.42859,-0.01064
6703.35706,0.01756
6705.28553,0.04078
6707.21400,0.04403
6709.14247,0.04066
6711.07093,0.01178
6712.99940,-0.02401
6714.92787,-0.00744
6716.85634,0.06626
6718.78481,0.09310
6720.71328,0.03912
6722.64175,0.01927
6724.57021,0.06518
6726.49868,0.07320
6728.42715,0.03959
6730.35562,0.00057
6732.28409,-0.04319
6734.21256,-0.00213
6736.14103,0.09662
6738.06950,0.11308
6739.99796,0.08455
6741.92643,0.10320
6743.85490,0.15207
6745.78337,0.18098
6747.71184,0.15821
6749.64031,0.07759
6751.56878,-0.00122
6753.49724,-0.02159
6755.42571,0.03208
6757.35418,0.10346
6759.28265,0.09953
6761.21112,0.02676
6763.13959,0.00080
6765.06806,-0.00925
6766.99653,-0.06664
6768.92499,-0.07005
6770.85346,0.01245
6772.78193,0.06018
6774.71040,0.03547
6776.63887,-0.00862
6778.56734,-0.02037
6780.49581,0.01885
6782.42427,0.06601
6784.35274,0.07108
6786.28121,0.07407
6788.20968,0.11090
6790.13815,0.18748
6792.06662,0.24284
6793.99509,0.19029
6795.92355,0.10206
6797.85202,0.05451
6799.78049,0.03361
6801.70896,0.01323
6803.63743,-0.00305
6805.56590,-0.01107
6807.49437,-0.05821
6809.42284,-0.10211
6811.35130,-0.04446
6813.27977,-0.00152
6815.20824,-0.09077
6817.13671,-0.12650
6819.06518,-0.04669
6820.99365,0.01164
6822.92212,0.02011
6824.85058,0.05670
6826.77905,0.14580
6828.70752,0.17737
6830.63599,0.07504
6832.56446,-0.04110
6834.49293,-0.09158
6836.42140,-0.07722
6838.34987,0.02886
6840.27833,0.15989
6842.20680,0.17228
6844.13527,0.06411
6846.06374,-0.03438
6847.99221,-0.02540
6849.92068,0.05262
6851.84915,0.05528
6853.77761,-0.04093
6855.70608,-0.10580
6857.63455,-0.01990
6859.56302,0.09625
6861.49149,0.12190
6863.41996,0.10056
6865.34843,0.10544
6867.27690,0.12671
6869.20536,0.11460
6871.13383,0.02782
6873.06230,-0.09841
6874.99077,-0.13169
6876.91924,-0.08902
6878.84771,-0.04672
6880.77618,0.05354
6882.70464,0.18338
6884.63311,0.22400
6886.56158,0.19832
6888.49005,0.17429
6890.41852,0.15825
6892.34699,0.15051
6894.27546,0.14761
6896.20393,0.11088
6898.13239,0.05854
6900.06086,0.05182
6901.98933,0.10502
6903.91780,0.16963
6905.84627,0.11995
6907.77474,0.01694
6909.70321,0.01195
6911.63167,0.05455
6913.56014,0.04959
6915.48861,-0.01091
6917.41708,-0.05987
6919.34555,-0.05450
6921.27402,-0.02754
6923.20249,0.02716
6925.13096,0.07658
6927.05942,0.07436
6928.98789,0.09177
6930.91636,0.14967
6932.84483,0.15440
6934.77330,0.11275
6936.70177,0.08861
6938.63024,0.04174
6940.55870,-0.06860
6942.48717,-0.09486
6944.41564,0.01042
6946.34411,0.09753
6948.27258,0.07537
6950.20105,0.09117
6952.12952,0.21160
6954.05799,0.21750
6955.98645,0.04680
6957.91492,-0.06875
6959.84339,-0.03658
6961.77186,0.07465
6963.70033,0.13989
6965.62880,0.12662
6967.55727,0.06511
6969.48573,0.01152
6971.41420,-0.01110
6973.34267,-0.04460
6975.27114,-0.04237
6977.19961,0.03243
6979.12808,0.13433
6981.05655,0.19111
6982.98501,0.10275
6984.91348,-0.04501
6986.84195,-0.04052
6988.77042,0.09491
6990.69889,0.18419
6992.62736,0.20294
6994.55583,0.20349
6996.48430,0.17297
6998.41276,0.15084
7000.34123,0.17756
7002.26970,0.16342
7004.19817,0.12144
7006.12664,0.13028
7008.05511,0.10970
7009.98358,0.06709
7011.91204,0.12919
7013.84051,0.20184
7015.76898,0.18363
7017.69745,0.19407
7019.62592,0.23428
7021.55439,0.24809
7023.48286,0.22168
7025.41133,0.10450
7027.33979,-0.04177
7029.26826,-0.11266
7031.19673,-0.09312
7033.12520,0.07737
7035.05367,0.28863
7036.98214,0.25960
7038.91061,0.12539
7040.83907,0.08081
7042.76754,0.08711
7044.69601,0.08363
7046.62448,0.09328
7048.55295,0.09030
7050.48142,0.09726
7052.40989,0.13520
7054.33836,0.18017
7056.26682,0.16853
7058.19529,0.02342
7060.12376,-0.06935
7062.05223,-0.02132
7063.98070,-0.01409
7065.90917,-0.08354
7067.83764,-0.14648
7069.76610,-0.17362
7071.69457,-0.13415
7073.62304,-0.05120
7075.55151,0.03336
7077.47998,0.06537
7079.40845,-0.02005
7081.33692,-0.12532
7083.26539,-0.09675
7085.19385,-0.01501
7087.12232,-0.00858
7089.05079,-0.10539
7090.97926,-0.16180
7092.90773,-0.10266
7094.83620,-0.02477
7096.76467,-0.00785
7098.69313,-0.01769
7100.62160,0.00548
7102.55007,0.07732
7104.47854,0.10427
7106.40701,0.03539
7108.33548,0.00682
7110.26395,0.04942
7112.19242,0.06744
7114.12088,0.03883
7116.04935,0.07549
7117.97782,0.24542
7119.90629,0.34542
7121.83476,0.20853
7123.76323,0.01647
7125.69170,0.04794
7127.62016,0.14547
7129.54863,0.03560
7131.47710,-0.08031
7133.40557,-0.01556
7135.33404,0.09688
7137.26251,0.17435
7139.19098,0.21094
7141.11944,0.15800
7143.04791,0.07659
7144.97638,0.10549
7146.90485,0.22878
7148.83332,0.28023
7150.76179,0.26192
7152.69026,0.24808
7154.61873,0.20034
7156.54719,0.12320
7158.47566,0.14793
7160.40413,0.23282
7162.33260,0.16708
7164.26107,-0.02423
7166.18954,-0.13099
7168.11801,-0.08402
7170.04647,0.10437
7171.97494,0.26764
7173.90341,0.22700
7175.83188,0.10568
7177.76035,0.02724
7179.68882,-0.03159
7181.61729,-0.06067
7183.54576,-0.05265
7185.47422,0.02322
7187.40269,0.14394
7189.33116,0.20354
7191.25963,0.21037
7193.18810,0.22026
7195.11657,0.20766
7197.04504,0.13479
7198.97350,0.02768
7200.90197,0.00226
7202.83044,0.09939
7204.75891,0.20020
7206.68738,0.16751
7208.61585,0.09398
7210.54432,0.01661
7212.47279,-0.05246
7214.40125,-0.04003
7216.32972,0.08698
7218.25819,0.22885
7220.18666,0.23251
7222.11513,0.18231
7224.04360,0.12547
7225.97207,0.03544
7227.90053,-0.01595
7229.82900,0.01274
7231.75747,0.08425
7233.68594,0.11983
7235.61441,0.08357
7237.54288,0.04235
7239.47135,0.07848
7241.39982,0.08491
7243.32828,-0.12121
7245.25675,-0.29705
7247.18522,-0.23062
7249.11369,-0.08727
7251.04216,0.00680
7252.97063,0.07099
7254.89910,0.07716
7256.82756,0.00562
7258.75603,-0.03723
7260.68450,0.09892
7262.61297,0.32326
7264.54144,0.37439
7266.46991,0.27223
7268.39838,0.18455
7270.32685,0.16186
7272.25531,0.13242
7274.18378,0.11796
7276.11225,0.12879
7278.04072,0.07011
7279.96919,-0.00979
7281.89766,0.01723
7283.82613,0.10387
7285.75459,0.16779
7287.68306,0.17052
7289.61153,0.16345
7291.54000,0.12914
7293.46847,-0.03535
7295.39694,-0.12674
7297.32541,-0.02780
7299.25387,0.01356
7301.18234,0.02553
7303.11081,0.16139
7305.03928,0.28145
7306.96775,0.31945
7308.89622,0.37092
7310.82469,0.37025
7312.75316,0.28936
7314.68162,0.19764
7316.61009,0.09475
7318.53856,0.01904
7320.46703,0.04390
7322.39550,0.11292
7324.32397,0.15580
7326.25244,0.19922
7328.18090,0.16854
7330.10937,-0.01709
7332.03784,-0.12391
7333.96631,-0.10318
7335.89478,-0.03297
7337.82325,0.14647
7339.75172,0.36388
7341.68019,0.30156
7343.60865,0.14427
7345.53712,0.06458
7347.46559,0.02144
7349.39406,0.06283
7351.32253,0.23984
7353.25100,0.37592
7355.17947,0.34776
7357.10793,0.22372
7359.03640,0.14321
7360.96487,0.20322
7362.89334,0.29493
7364.82181,0.28487
7366.75028,0.17619
7368.67875,0.05102
7370.60722,-0.00250
7372.53568,-0.01832
7374.46415,-0.08252
7376.39262,-0.16401
7378.32109,-0.16692
7380.24956,-0.08216
7382.17803,0.03196
7384.10650,0.08125
7386.03496,0.12074
7387.96343,0.14146
7389.89190,0.06799
7391.82037,-0.03213
7393.74884,-0.09050
7395.67731,-0.10120
7397.60578,-0.07107
7399.53425,0.01870
7401.46271,0.12589
7403.39118,0.20520
7405.31965,0.24496
7407.24812,0.19433
7409.17659,0.08558
7411.10506,0.04216
7413.03353,0.10002
7414.96199,0.14957
7416.89046,0.16293
7418.81893,0.26493
7420.74740,0.34475
7422.67587,0.26268
7424.60434,0.17744
7426.53281,0.16711
7428.46128,0.15456
7430.38974,0.07607
7432.31821,0.04974
7434.24668,0.07424
7436.17515,0.07039
7438.10362,0.09587
7440.03209,0.13315
7441.96056,0.11162
7443.88902,0.10953
7445.81749,0.14326
7447.74596,0.20591
7449.67443,0.26791
7451.60290,0.19857
7453.53137,0.10374
7455.45984,0.06444
7457.38831,-0.00440
7459.31677,-0.02082
7461.24524,0.08154
7463.17371,0.17154
7465.10218,0.18072
7467.03065,0.04438
7468.95912,-0.14551
7470.88759,-0.14954
7472.81605,0.05767
7474.74452,0.15537
7476.67299,0.04814
7478.60146,-0.12587
7480.52993,-0.22953
7482.45840,-0.17021
7484.38687,-0.03379
7486.31533,0.04370
7488.24380,0.01923
7490.17227,-0.06885
7492.10074,-0.03911
7494.02921,0.14501
7495.95768,0.30862
7497.88615,0.32699
