399.19301,7.49364
401.12148,0.47248
403.04995,-0.04444
404.97842,-0.06402
406.90689,0.02156
408.83536,0.10539
410.76382,0.09795
412.69229,0.06810
414.62076,0.09924
416.54923,0.19186
418.47770,0.25611
420.40617,0.05472
422.33464,-0.11942
424.26311,-0.11516
426.19157,-0.05742
428.12004,0.01829
430.04851,0.09014
431.97698,0.06542
433.90545,0.02845
435.83392,0.08832
437.76239,0.15404
439.69085,0.15418
441.61932,0.15738
443.54779,0.23184
445.47626,0.23820
447.40473,0.17444
449.33320,0.17546
451.26167,0.20377
453.19013,0.18586
455.11860,0.13879
457.04707,0.10726
458.97554,0.08199
460.90401,0.05888
462.83248,0.03477
464.76095,0.00899
466.68942,0.02078
468.61788,0.05287
470.54635,0.05535
472.47482,-0.05106
474.40329,-0.24635
476.33176,-0.19291
478.26023,-0.06114
480.18870,-0.02870
482.11716,-0.02405
484.04563,-0.00232
485.97410,0.03450
487.90257,0.09443
489.83104,0.13070
491.75951,0.13743
493.68798,0.14102
495.61645,0.17626
497.54491,0.23969
499.47338,0.25597
501.40185,0.20017
503.33032,0.13889
505.25879,0.10832
507.18726,0.10519
509.11573,0.13999
511.04419,0.14039
512.97266,0.08297
514.90113,0.05253
516.82960,0.07943
518.75807,0.09797
520.68654,0.08861
522.61501,0.08891
524.54348,0.09583
526.47194,0.09874
528.40041,0.11039
530.32888,0.12559
532.25735,0.13439
534.18582,0.14724
536.11429,0.17286
538.04276,0.18481
539.97122,0.14694
541.89969,0.09347
543.82816,0.09006
545.75663,0.11259
547.68510,0.12497
549.61357,0.13414
551.54204,0.16608
553.47051,0.21945
555.39897,0.21907
557.32744,0.16228
559.25591,0.13358
561.18438,0.14150
563.11285,0.14667
565.04132,0.15232
566.96979,0.17283
568.89825,0.16935
570.82672,0.12590
572.75519,0.10639
574.68366,0.13566
576.61213,0.14922
578.54060,0.12392
580.46907,0.10730
582.39754,0.10840
584.32600,0.09388
586.25447,0.07578
588.18294,0.08150
590.11141,0.09406
592.03988,0.11094
593.96835,0.14245
595.89682,0.15534
597.82528,0.13277
599.75375,0.10296
601.68222,0.08770
603.61069,0.09290
605.53916,0.11263
607.46763,0.12642
609.39610,0.11866
611.32456,0.09699
613.25303,0.08877
615.18150,0.09549
617.10997,0.09150
619.03844,0.07849
620.96691,0.08846
622.89538,0.13212
624.82385,0.16641
626.75231,0.15908
628.68078,0.13365
630.60925,0.10727
632.53772,0.07862
634.46619,0.07964
636.39466,0.11449
638.32313,0.14032
640.25159,0.14628
642.18006,0.13373
644.10853,0.10588
646.03700,0.09485
647.96547,0.10985
649.89394,0.12401
651.82241,0.12507
653.75088,0.12616
655.67934,0.13391
657.60781,0.13991
659.53628,0.13668
661.46475,0.13329
663.39322,0.13743
665.32169,0.14186
667.25016,0.14850
669.17862,0.15608
671.10709,0.16377
673.03556,0.17133
674.96403,0.14966
676.89250,0.11384
678.82097,0.11026
680.74944,0.12253
682.67791,0.11900
684.60637,0.10930
686.53484,0.11689
688.46331,0.13776
690.39178,0.15258
692.32025,0.15868
694.24872,0.15475
696.17719,0.14513
698.10565,0.13682
700.03412,0.12946
701.96259,0.12661
703.89106,0.12859
705.81953,0.13317
707.74800,0.13772
709.67647,0.13860
711.60494,0.13755
713.53340,0.14113
715.46187,0.15802
717.39034,0.17698
719.31881,0.17540
721.24728,0.16119
723.17575,0.15742
725.10422,0.15834
727.03268,0.14632
728.96115,0.12611
730.88962,0.11538
732.81809,0.11902
734.74656,0.12706
736.67503,0.13050
738.60350,0.12689
740.53197,0.12198
742.46043,0.12780
744.38890,0.13679
746.31737,0.13301
748.24584,0.12754
750.17431,0.13648
752.10278,0.15005
754.03125,0.15384
755.95971,0.15435
757.88818,0.15754
759.81665,0.15244
761.74512,0.13786
763.67359,0.13020
765.60206,0.12722
767.53053,0.11873
769.45900,0.11752
771.38746,0.12211
773.31593,0.12419
775.24440,0.13700
777.17287,0.15293
779.10134,0.15339
781.02981,0.14513
782.95828,0.13887
784.88674,0.14080
786.81521,0.14595
788.74368,0.15851
790.67215,0.19127
792.60062,0.20401
794.52909,0.16954
796.45756,0.14015
798.38602,0.14619
800.31449,0.15863
802.24296,0.15419
804.17143,0.14688
806.09990,0.14525
808.02837,0.13836
809.95684,0.13119
811.88531,0.13518
813.81377,0.14888
815.74224,0.15724
817.67071,0.14991
819.59918,0.13947
821.52765,0.14079
823.45612,0.14885
825.38459,0.15464
827.31305,0.15529
829.24152,0.15293
831.16999,0.15099
833.09846,0.14487
835.02693,0.13633
836.95540,0.13173
838.88387,0.13328
840.81234,0.14238
842.74080,0.15271
844.66927,0.15696
846.59774,0.15318
848.52621,0.14504
850.45468,0.13947
852.38315,0.13821
854.31162,0.13834
856.24008,0.13784
858.16855,0.13501
860.09702,0.13426
862.02549,0.14366
863.95396,0.15610
865.88243,0.15968
867.81090,0.15302
869.73937,0.14140
871.66783,0.13633
873.59630,0.14307
875.52477,0.15062
877.45324,0.14912
879.38171,0.14364
881.31018,0.14084
883.23865,0.14097
885.16711,0.14236
887.09558,0.14027
889.02405,0.13146
890.95252,0.12056
892.88099,0.11447
894.80946,0.12051
896.73793,0.13679
898.66640,0.14676
900.59486,0.14762
902.52333,0.14763
904.45180,0.14478
906.38027,0.14126
908.30874,0.13984
910.23721,0.13439
912.16568,0.12838
914.09414,0.13024
916.02261,0.13508
917.95108,0.14156
919.87955,0.15123
921.80802,0.15176
923.73649,0.14455
925.66496,0.14442
927.59343,0.14652
929.52189,0.14459
931.45036,0.14845
933.37883,0.15756
935.30730,0.15936
937.23577,0.15439
939.16424,0.15178
941.09271,0.15164
943.02117,0.14975
944.94964,0.14769
946.87811,0.14567
948.80658,0.14179
950.73505,0.13987
952.66352,0.14075
954.59199,0.14237
956.52045,0.14666
958.44892,0.15218
960.37739,0.15371
962.30586,0.14835
964.23433,0.13887
966.16280,0.13332
968.09127,0.13295
970.01974,0.13348
971.94820,0.13652
973.87667,0.14102
975.80514,0.14209
977.73361,0.14271
979.66208,0.14545
981.59055,0.14565
983.51902,0.14582
985.44748,0.14944
987.37595,0.14956
989.30442,0.14605
991.23289,0.14411
993.16136,0.14093
995.08983,0.13597
997.01830,0.13754
998.94677,0.14749
1000.87523,0.15557
1002.80370,0.15514
1004.73217,0.15063
1006.66064,0.14880
1008.58911,0.14645
1010.51758,0.14064
1012.44605,0.14147
1014.37451,0.15331
1016.30298,0.16370
1018.23145,0.16369
1020.15992,0.16203
1022.08839,0.16193
1024.01686,0.15549
1025.94533,0.14457
1027.87380,0.13475
1029.80226,0.13006
1031.73073,0.13558
1033.65920,0.14868
1035.58767,0.15919
1037.51614,0.16169
1039.44461,0.15766
1041.37308,0.15098
1043.30154,0.14788
1045.23001,0.15256
1047.15848,0.16036
1049.08695,0.16364
1051.01542,0.16358
1052.94389,0.16243
1054.87236,0.15983
1056.80083,0.15753
1058.72929,0.15590
1060.65776,0.15624
1062.58623,0.15922
1064.51470,0.16110
1066.44317,0.16127
1068.37164,0.16410
1070.30011,0.16771
1072.22857,0.16828
1074.15704,0.16562
1076.08551,0.16019
1078.01398,0.15880
1079.94245,0.16505
1081.87092,0.17070
1083.79939,0.17029
1085.72786,0.16745
1087.65632,0.16491
1089.58479,0.16319
1091.51326,0.16571
1093.44173,0.17099
1095.37020,0.17142
1097.29867,0.16632
1099.22714,0.16473
1101.15560,0.17179
1103.08407,0.17877
1105.01254,0.17641
1106.94101,0.17178
1108.86948,0.17089
1110.79795,0.16828
1112.72642,0.16464
1114.65489,0.16623
1116.58335,0.17175
1118.51182,0.17104
1120.44029,0.16379
1122.36876,0.15965
1124.29723,0.15787
1126.22570,0.15639
1128.15417,0.15502
1130.08263,0.14951
1132.01110,0.14360
1133.93957,0.14424
1135.86804,0.14944
1137.79651,0.15483
1139.72498,0.15928
1141.65345,0.16175
1143.58191,0.16093
1145.51038,0.16024
1147.43885,0.16545
1149.36732,0.17023
1151.29579,0.16754
1153.22426,0.16720
1155.15273,0.17447
1157.08120,0.18064
1159.00966,0.17956
1160.93813,0.17173
1162.86660,0.16513
1164.79507,0.16635
1166.72354,0.16901
1168.65201,0.16874
1170.58048,0.16963
1172.50894,0.17182
1174.43741,0.16984
1176.36588,0.16407
1178.29435,0.16090
1180.22282,0.16084
1182.15129,0.16297
1184.07976,0.16592
1186.00823,0.16666
1187.93669,0.16669
1189.86516,0.16614
1191.79363,0.16375
1193.72210,0.16343
1195.65057,0.16724
1197.57904,0.16881
1199.50751,0.16462
1201.43597,0.15856
1203.36444,0.15518
1205.29291,0.15962
1207.22138,0.16763
1209.14985,0.16873
1211.07832,0.16567
1213.00679,0.16679
1214.93526,0.16890
1216.86372,0.16726
1218.79219,0.16510
1220.72066,0.16251
1222.64913,0.15947
1224.57760,0.15956
1226.50607,0.16181
1228.43454,0.16505
1230.36300,0.16915
1232.29147,0.17024
1234.21994,0.16706
1236.14841,0.16424
1238.07688,0.16359
1240.00535,0.16375
1241.93382,0.16454
1243.86229,0.16385
1245.79075,0.16166
1247.71922,0.16250
1249.64769,0.16588
1251.57616,0.16584
1253.50463,0.16258
1255.43310,0.16104
1257.36157,0.16080
1259.29003,0.16162
1261.21850,0.16682
1263.14697,0.17176
1265.07544,0.16869
1267.00391,0.16199
1268.93238,0.15950
1270.86085,0.16191
1272.78932,0.16742
1274.71778,0.17110
1276.64625,0.17139
1278.57472,0.17140
1280.50319,0.16816
1282.43166,0.16364
1284.36013,0.16363
1286.28860,0.16311
1288.21706,0.16286
1290.14553,0.16798
1292.07400,0.17089
1294.00247,0.16540
1295.93094,0.15690
1297.85941,0.15244
1299.78788,0.14774
1301.71634,0.13204
1303.64481,0.11274
1305.57328,0.11509
1307.50175,0.14203
1309.43022,0.16597
1311.35869,0.17296
1313.28716,0.17324
1315.21563,0.17439
1317.14409,0.17488
1319.07256,0.17202
1321.00103,0.16829
1322.92950,0.16893
1324.85797,0.16934
1326.78644,0.16577
1328.71491,0.16510
1330.64337,0.16488
1332.57184,0.16275
1334.50031,0.16327
1336.42878,0.16472
1338.35725,0.16624
1340.28572,0.16114
1342.21419,0.14823
1344.14266,0.13816
1346.07112,0.13506
1347.99959,0.14265
1349.92806,0.15514
1351.85653,0.16101
1353.78500,0.16082
1355.71347,0.15940
1357.64194,0.16105
1359.57040,0.16560
1361.49887,0.16801
1363.42734,0.16855
1365.35581,0.17181
1367.28428,0.17596
1369.21275,0.17618
1371.14122,0.17516
1373.06969,0.17775
1374.99815,0.17935
1376.92662,0.17672
1378.85509,0.17420
1380.78356,0.17367
1382.71203,0.17523
1384.64050,0.17834
1386.56897,0.18014
1388.49743,0.17654
1390.42590,0.17273
1392.35437,0.17583
1394.28284,0.18410
1396.21131,0.19168
1398.13978,0.19431
1400.06825,0.19092
1401.99672,0.18696
1403.92518,0.18608
1405.85365,0.18546
1407.78212,0.18314
1409.71059,0.18077
1411.63906,0.17882
1413.56753,0.17920
1415.49600,0.18555
1417.42446,0.19217
1419.35293,0.18917
1421.28140,0.18744
1423.20987,0.19041
1425.13834,0.18808
1427.06681,0.18360
1428.99528,0.18253
1430.92375,0.18360
1432.85221,0.18719
1434.78068,0.19340
1436.70915,0.19701
1438.63762,0.19335
1440.56609,0.18944
1442.49456,0.18750
1444.42303,0.18580
1446.35149,0.18714
1448.27996,0.19127
1450.20843,0.19193
1452.13690,0.19171
1454.06537,0.19554
1455.99384,0.20489
1457.92231,0.20959
1459.85077,0.19986
1461.77924,0.19470
1463.70771,0.19687
1465.63618,0.19570
1467.56465,0.19305
1469.49312,0.19990
1471.42159,0.21393
1473.35006,0.22165
1475.27852,0.21627
1477.20699,0.20400
1479.13546,0.19113
1481.06393,0.18334
1482.99240,0.18346
1484.92087,0.19256
1486.84934,0.20732
1488.77780,0.21697
1490.70627,0.21039
1492.63474,0.19983
1494.56321,0.19704
1496.49168,0.20099
1498.42015,0.20069
1500.34862,0.19077
1502.27709,0.17881
1504.20555,0.17059
1506.13402,0.18390
1508.06249,0.21198
1509.99096,0.20712
1511.91943,0.20029
1513.84790,0.20336
1515.77637,0.20986
1517.70483,0.20933
1519.63330,0.20593
1521.56177,0.21042
1523.49024,0.21132
1525.41871,0.20604
1527.34718,0.19927
1529.27565,0.19255
1531.20412,0.19181
1533.13258,0.19765
1535.06105,0.20111
1536.98952,0.20502
1538.91799,0.21983
1540.84646,0.23659
1542.77493,0.22947
1544.70340,0.21152
1546.63186,0.20086
1548.56033,0.20272
1550.48880,0.20458
1552.41727,0.19947
1554.34574,0.19830
1556.27421,0.21041
1558.20268,0.23225
1560.13115,0.22163
1562.05961,0.20152
1563.98808,0.19544
1565.91655,0.19285
1567.84502,0.19035
1569.77349,0.18794
1571.70196,0.18379
1573.63043,0.18416
1575.55889,0.19096
1577.48736,0.19133
1579.41583,0.18399
1581.34430,0.18054
1583.27277,0.18221
1585.20124,0.18377
1587.12971,0.18398
1589.05818,0.18701
1590.98664,0.19101
1592.91511,0.18996
1594.84358,0.18590
1596.77205,0.18493
1598.70052,0.18625
1600.62899,0.18698
1602.55746,0.18742
1604.48592,0.18676
1606.41439,0.18601
1608.34286,0.18780
1610.27133,0.18757
1612.19980,0.18504
1614.12827,0.19005
1616.05674,0.20261
1617.98521,0.20297
1619.91367,0.19498
1621.84214,0.19432
1623.77061,0.19764
1625.69908,0.19791
1627.62755,0.19766
1629.55602,0.19867
1631.48449,0.20161
1633.41295,0.20777
1635.34142,0.21376
1637.26989,0.21057
1639.19836,0.20595
1641.12683,0.20436
1643.05530,0.20501
1644.98377,0.21268
1646.91223,0.22611
1648.84070,0.22636
1650.76917,0.22443
1652.69764,0.23267
1654.62611,0.22546
1656.55458,0.20955
1658.48305,0.20496
1660.41152,0.21188
1662.33998,0.22019
1664.26845,0.21459
1666.19692,0.20807
1668.12539,0.21436
1670.05386,0.22174
1671.98233,0.21708
1673.91080,0.21203
1675.83926,0.20631
1677.76773,0.20051
1679.69620,0.20075
1681.62467,0.20497
1683.55314,0.20902
1685.48161,0.20656
1687.41008,0.20310
1689.33855,0.20243
1691.26701,0.19954
1693.19548,0.19868
1695.12395,0.21005
1697.05242,0.22825
1698.98089,0.23136
1700.90936,0.21818
1702.83783,0.20892
1704.76629,0.20612
1706.69476,0.20151
1708.62323,0.19618
1710.55170,0.19461
1712.48017,0.19856
1714.40864,0.20921
1716.33711,0.22267
1718.26558,0.21782
1720.19404,0.19801
1722.12251,0.18681
1724.05098,0.18588
1725.97945,0.18844
1727.90792,0.19195
1729.83639,0.19618
1731.76486,0.20205
1733.69332,0.20843
1735.62179,0.20418
1737.55026,0.19979
1739.47873,0.20391
1741.40720,0.20872
1743.33567,0.20698
1745.26414,0.20331
1747.19261,0.20395
1749.12107,0.20755
1751.04954,0.20517
1752.97801,0.19778
1754.90648,0.19443
1756.83495,0.19546
1758.76342,0.19646
1760.69189,0.19803
1762.62035,0.19864
1764.54882,0.19476
1766.47729,0.19211
1768.40576,0.19711
1770.33423,0.20817
1772.26270,0.21241
1774.19117,0.20374
1776.11964,0.19572
1778.04810,0.19159
1779.97657,0.18814
1781.90504,0.18744
1783.83351,0.19160
1785.76198,0.19555
1787.69045,0.19662
1789.61892,0.19771
1791.54738,0.19914
1793.47585,0.19909
1795.40432,0.19840
1797.33279,0.19827
1799.26126,0.19764
1801.18973,0.19384
1803.11820,0.18815
1805.04666,0.18565
1806.97513,0.18655
1808.90360,0.18771
1810.83207,0.18819
1812.76054,0.18859
1814.68901,0.18911
1816.61748,0.19018
1818.54595,0.19217
1820.47441,0.19475
1822.40288,0.19719
1824.33135,0.19737
1826.25982,0.19704
1828.18829,0.20077
1830.11676,0.20211
1832.04523,0.19691
1833.97369,0.19240
1835.90216,0.18920
1837.83063,0.18807
1839.75910,0.19164
1841.68757,0.19923
1843.61604,0.20740
1845.54451,0.20729
1847.47298,0.20158
1849.40144,0.19719
1851.32991,0.19341
1853.25838,0.19085
1855.18685,0.18972
1857.11532,0.19023
1859.04379,0.19217
1860.97226,0.19233
1862.90072,0.19159
1864.82919,0.19419
1866.75766,0.20022
1868.68613,0.20289
1870.61460,0.19759
1872.54307,0.19144
1874.47154,0.18815
1876.40001,0.18769
1878.32847,0.18878
1880.25694,0.18832
1882.18541,0.18789
1884.11388,0.19045
1886.04235,0.19332
1887.97082,0.19432
1889.89929,0.19322
1891.82775,0.19049
1893.75622,0.18824
1895.68469,0.18583
1897.61316,0.18301
1899.54163,0.18347
1901.47010,0.18800
1903.39857,0.19143
1905.32704,0.19072
1907.25550,0.18969
1909.18397,0.18951
1911.11244,0.18772
1913.04091,0.18695
1914.96938,0.18953
1916.89785,0.19316
1918.82632,0.19477
1920.75478,0.19533
1922.68325,0.19571
1924.61172,0.19267
1926.54019,0.18838
1928.46866,0.18753
1930.39713,0.18918
1932.32560,0.19019
1934.25407,0.19060
1936.18253,0.19159
1938.11100,0.19112
1940.03947,0.18934
1941.96794,0.19031
1943.89641,0.19384
1945.82488,0.19546
1947.75335,0.19442
1949.68181,0.19242
1951.61028,0.19085
1953.53875,0.19017
1955.46722,0.18912
1957.39569,0.18813
1959.32416,0.18968
1961.25263,0.19172
1963.18110,0.19126
1965.10956,0.19100
1967.03803,0.19181
1968.96650,0.19108
1970.89497,0.19024
1972.82344,0.19039
1974.75191,0.18929
1976.68038,0.18615
1978.60884,0.18347
1980.53731,0.18344
1982.46578,0.18416
1984.39425,0.18444
1986.32272,0.18712
1988.25119,0.19214
1990.17966,0.19558
1992.10812,0.19503
1994.03659,0.19169
1995.96506,0.19025
1997.89353,0.19192
1999.82200,0.19223
2001.75047,0.18990
2003.67894,0.18766
2005.60741,0.18607
2007.53587,0.18552
2009.46434,0.18693
2011.39281,0.18923
2013.32128,0.19070
2015.24975,0.19132
2017.17822,0.19195
2019.10669,0.19090
2021.03515,0.18781
2022.96362,0.18582
2024.89209,0.18614
2026.82056,0.18655
2028.74903,0.18595
2030.67750,0.18750
2032.60597,0.19036
2034.53444,0.18991
2036.46290,0.18844
2038.39137,0.18879
2040.31984,0.18937
2042.24831,0.19002
2044.17678,0.19147
2046.10525,0.19258
2048.03372,0.19185
2049.96218,0.18900
2051.89065,0.18561
2053.81912,0.18441
2055.74759,0.18454
2057.67606,0.18427
2059.60453,0.18564
2061.53300,0.18730
2063.46147,0.18681
2065.38993,0.18695
2067.31840,0.18854
2069.24687,0.18933
2071.17534,0.18971
2073.10381,0.19063
2075.03228,0.19094
2076.96075,0.19003
2078.88921,0.18935
2080.81768,0.18897
2082.74615,0.18780
2084.67462,0.18669
2086.60309,0.18620
2088.53156,0.18585
2090.46003,0.18615
2092.38850,0.18656
2094.31696,0.18582
2096.24543,0.18508
2098.17390,0.18568
2100.10237,0.18668
2102.03084,0.18734
2103.95931,0.18858
2105.88778,0.19027
2107.81624,0.19205
2109.74471,0.19386
2111.67318,0.19383
2113.60165,0.19172
2115.53012,0.18960
2117.45859,0.18776
2119.38706,0.18623
2121.31553,0.18570
2123.24399,0.18545
2125.17246,0.18549
2127.10093,0.18764
2129.02940,0.19105
2130.95787,0.19369
2132.88634,0.19531
2134.81481,0.19191
2136.74327,0.18123
2138.67174,0.17305
2140.60021,0.17577
2142.52868,0.18456
2144.45715,0.19208
2146.38562,0.19563
2148.31409,0.19515
2150.24255,0.19242
2152.17102,0.18932
2154.09949,0.18811
2156.02796,0.18996
2157.95643,0.19141
2159.88490,0.19078
2161.81337,0.19091
2163.74184,0.19154
2165.67030,0.19130
2167.59877,0.19211
2169.52724,0.19322
2171.45571,0.19175
2173.38418,0.19100
2175.31265,0.19428
2177.24112,0.19659
2179.16958,0.19575
2181.09805,0.19570
2183.02652,0.19501
2184.95499,0.19183
2186.88346,0.19015
2188.81193,0.19067
2190.74040,0.19072
2192.66887,0.19044
2194.59733,0.19049
2196.52580,0.19138
2198.45427,0.19361
2200.38274,0.19506
2202.31121,0.19394
2204.23968,0.19214
2206.16815,0.19211
2208.09661,0.19369
2210.02508,0.19526
2211.95355,0.19474
2213.88202,0.19130
2215.81049,0.18823
2217.73896,0.18883
2219.66743,0.19146
2221.59590,0.19343
2223.52436,0.19447
2225.45283,0.19456
2227.38130,0.19433
2229.30977,0.19514
2231.23824,0.19534
2233.16671,0.19412
2235.09518,0.19335
2237.02364,0.19265
2238.95211,0.19185
2240.88058,0.19171
2242.80905,0.19197
2244.73752,0.19201
2246.66599,0.19131
2248.59446,0.19192
2250.52293,0.19495
2252.45139,0.19677
2254.37986,0.19542
2256.30833,0.19400
2258.23680,0.19465
2260.16527,0.19466
2262.09374,0.19252
2264.02221,0.19122
2265.95067,0.19135
2267.87914,0.19079
2269.80761,0.19052
2271.73608,0.19230
2273.66455,0.19535
2275.59302,0.19661
2277.52149,0.19524
2279.44996,0.19361
2281.37842,0.19316
2283.30689,0.19420
2285.23536,0.19451
2287.16383,0.19221
2289.09230,0.19004
2291.02077,0.19004
2292.94924,0.19266
2294.87770,0.19683
2296.80617,0.19625
2298.73464,0.18981
2300.66311,0.18609
2302.59158,0.18680
2304.52005,0.18668
2306.44852,0.18724
2308.37699,0.19163
2310.30545,0.19427
2312.23392,0.18828
2314.16239,0.17863
2316.09086,0.17426
2318.01933,0.17241
2319.94780,0.16931
2321.87627,0.17135
2323.80473,0.17689
2325.73320,0.17520
2327.66167,0.16783
2329.59014,0.16470
2331.51861,0.16792
2333.44708,0.17094
2335.37555,0.17130
2337.30401,0.17255
2339.23248,0.17666
2341.16095,0.17880
2343.08942,0.17875
2345.01789,0.18018
2346.94636,0.18313
2348.87483,0.18718
2350.80330,0.18915
2352.73176,0.18514
2354.66023,0.17252
2356.58870,0.15492
2358.51717,0.14981
2360.44564,0.16078
2362.37411,0.16371
2364.30258,0.16236
2366.23104,0.17890
2368.15951,0.19475
2370.08798,0.19097
2372.01645,0.18215
2373.94492,0.18033
2375.87339,0.18260
2377.80186,0.18465
2379.73033,0.18564
2381.65879,0.18623
2383.58726,0.18729
2385.51573,0.18906
2387.44420,0.18981
2389.37267,0.18787
2391.30114,0.18641
2393.22961,0.18724
2395.15807,0.18740
2397.08654,0.18840
2399.01501,0.19174
2400.94348,0.19324
2402.87195,0.19194
2404.80042,0.19118
2406.72889,0.19065
2408.65736,0.18769
2410.58582,0.18378
2412.51429,0.18359
2414.44276,0.18701
2416.37123,0.18852
2418.29970,0.18863
2420.22817,0.19250
2422.15664,0.19829
2424.08510,0.19987
2426.01357,0.19622
2427.94204,0.19228
2429.87051,0.19089
2431.79898,0.19072
2433.72745,0.19164
2435.65592,0.19359
2437.58439,0.19464
2439.51285,0.19376
2441.44132,0.19203
2443.36979,0.19092
2445.29826,0.19090
2447.22673,0.19230
2449.15520,0.19351
2451.08367,0.19206
2453.01213,0.18986
2454.94060,0.18886
2456.86907,0.18793
2458.79754,0.18764
2460.72601,0.18827
2462.65448,0.18866
2464.58295,0.18947
2466.51142,0.19112
2468.43988,0.19282
2470.36835,0.19386
2472.29682,0.19289
2474.22529,0.19010
2476.15376,0.18880
2478.08223,0.18988
2480.01070,0.19066
2481.93916,0.19091
2483.86763,0.19052
2485.79610,0.18905
2487.72457,0.18874
2489.65304,0.18985
2491.58151,0.19084
2493.50998,0.19152
2495.43844,0.19188
2497.36691,0.19177
2499.29538,0.19221
2501.22385,0.19348
2503.15232,0.19410
2505.08079,0.19466
2507.00926,0.19550
2508.93773,0.19478
2510.86619,0.19297
2512.79466,0.19346
2514.72313,0.19705
2516.65160,0.19901
2518.58007,0.19692
2520.50854,0.19388
2522.43701,0.19174
2524.36547,0.19043
2526.29394,0.19118
2528.22241,0.19425
2530.15088,0.19648
2532.07935,0.19563
2534.00782,0.19293
2535.93629,0.19081
2537.86476,0.19079
2539.79322,0.19175
2541.72169,0.19265
2543.65016,0.19411
2545.57863,0.19475
2547.50710,0.19322
2549.43557,0.19064
2551.36404,0.18803
2553.29250,0.18740
2555.22097,0.18946
2557.14944,0.19097
2559.07791,0.19119
2561.00638,0.19220
2562.93485,0.19412
2564.86332,0.19583
2566.79179,0.19656
2568.72025,0.19727
2570.64872,0.19812
2572.57719,0.19831
2574.50566,0.19802
2576.43413,0.19690
2578.36260,0.19713
2580.29107,0.20013
2582.21953,0.20069
2584.14800,0.19707
2586.07647,0.19473
2588.00494,0.19530
2589.93341,0.19554
2591.86188,0.19460
2593.79035,0.19472
2595.71882,0.19586
2597.64728,0.19415
2599.57575,0.19082
2601.50422,0.19202
2603.43269,0.19648
2605.36116,0.19839
2607.28963,0.19765
2609.21810,0.19746
2611.14656,0.19707
2613.07503,0.19447
2615.00350,0.19271
2616.93197,0.19346
2618.86044,0.19368
2620.78891,0.19322
2622.71738,0.19434
2624.64585,0.19704
2626.57431,0.19892
2628.50278,0.19863
2630.43125,0.19801
2632.35972,0.19706
2634.28819,0.19624
2636.21666,0.19768
2638.14513,0.19787
2640.07359,0.19636
2642.00206,0.19783
2643.93053,0.19980
2645.85900,0.19954
2647.78747,0.19856
2649.71594,0.19657
2651.64441,0.19430
2653.57288,0.19327
2655.50134,0.19325
2657.42981,0.19369
2659.35828,0.19421
2661.28675,0.19565
2663.21522,0.19752
2665.14369,0.19686
2667.07216,0.19420
2669.00062,0.19419
2670.92909,0.19855
2672.85756,0.20166
2674.78603,0.19939
2676.71450,0.19593
2678.64297,0.19542
2680.57144,0.19795
2682.49990,0.20151
2684.42837,0.20286
2686.35684,0.20120
2688.28531,0.19848
2690.21378,0.19651
2692.14225,0.19614
2694.07072,0.19621
2695.99919,0.19720
2697.92765,0.20240
2699.85612,0.20769
2701.78459,0.20669
2703.71306,0.20171
2705.64153,0.19765
2707.57000,0.19678
2709.49847,0.19739
2711.42693,0.19873
2713.35540,0.20180
2715.28387,0.20281
2717.21234,0.19989
2719.14081,0.19699
2721.06928,0.19709
2722.99775,0.19856
2724.92622,0.19772
2726.85468,0.19593
2728.78315,0.19677
2730.71162,0.20039
2732.64009,0.20423
2734.56856,0.20431
2736.49703,0.20171
2738.42550,0.20074
2740.35396,0.20019
2742.28243,0.19854
2744.21090,0.19828
2746.13937,0.19896
2748.06784,0.19866
2749.99631,0.19945
2751.92478,0.20009
2753.85325,0.19798
2755.78171,0.19763
2757.71018,0.20175
2759.63865,0.20623
2761.56712,0.20784
2763.49559,0.20625
2765.42406,0.20228
2767.35253,0.19882
2769.28099,0.19801
2771.20946,0.19830
2773.13793,0.19782
2775.06640,0.19825
2776.99487,0.20130
2778.92334,0.20470
2780.85181,0.20556
2782.78028,0.20340
2784.70874,0.20204
2786.63721,0.20485
2788.56568,0.20819
2790.49415,0.20836
2792.42262,0.20681
2794.35109,0.20736
2796.27956,0.21189
2798.20802,0.21546
2800.13649,0.21326
2802.06496,0.20891
2803.99343,0.20679
2805.92190,0.20716
2807.85037,0.20868
2809.77884,0.20909
2811.70731,0.20723
2813.63577,0.20594
2815.56424,0.20802
2817.49271,0.21064
2819.42118,0.21158
2821.34965,0.21058
2823.27812,0.20790
2825.20659,0.20731
2827.13505,0.20926
2829.06352,0.20966
2830.99199,0.20757
2832.92046,0.20559
2834.84893,0.20616
2836.77740,0.20864
2838.70587,0.20958
2840.63433,0.20796
2842.56280,0.20685
2844.49127,0.20793
2846.41974,0.20941
2848.34821,0.20929
2850.27668,0.20703
2852.20515,0.20389
2854.13362,0.20232
2856.06208,0.20344
2857.99055,0.20591
2859.91902,0.20669
2861.84749,0.20507
2863.77596,0.20472
2865.70443,0.20666
2867.63290,0.20782
2869.56136,0.20553
2871.48983,0.20018
2873.41830,0.19714
2875.34677,0.19915
2877.27524,0.20314
2879.20371,0.20828
2881.13218,0.21339
2883.06065,0.21227
2884.98911,0.20428
2886.91758,0.19923
2888.84605,0.20247
2890.77452,0.20809
2892.70299,0.20837
2894.63146,0.20174
2896.55993,0.19578
2898.48839,0.19679
2900.41686,0.20065
2902.34533,0.20275
2904.27380,0.20334
2906.20227,0.20446
2908.13074,0.20648
2910.05921,0.20524
2911.98768,0.19916
2913.91614,0.19180
2915.84461,0.18853
2917.77308,0.19311
2919.70155,0.20125
2921.63002,0.20648
2923.55849,0.20334
2925.48696,0.18751
2927.41542,0.17266
2929.34389,0.17712
2931.27236,0.19008
2933.20083,0.19338
2935.12930,0.18956
2937.05777,0.18836
2938.98624,0.19578
2940.91471,0.20494
2942.84317,0.20767
2944.77164,0.20437
2946.70011,0.19435
2948.62858,0.19043
2950.55705,0.19965
2952.48552,0.20651
2954.41399,0.20358
2956.34245,0.19287
2958.27092,0.18424
2960.19939,0.18890
2962.12786,0.19880
2964.05633,0.20271
2965.98480,0.19913
2967.91327,0.19148
2969.84174,0.19182
2971.77020,0.20314
2973.69867,0.21163
2975.62714,0.20955
2977.55561,0.20163
2979.48408,0.19766
2981.41255,0.20243
2983.34102,0.20864
2985.26948,0.20551
2987.19795,0.19423
2989.12642,0.19031
2991.05489,0.19942
2992.98336,0.20959
2994.91183,0.21429
2996.84030,0.21354
2998.76877,0.20946
3000.69723,0.20940
3002.62570,0.21349
3004.55417,0.21648
3006.48264,0.21419
3008.41111,0.20499
3010.33958,0.19147
3012.26805,0.16826
3014.19651,0.12798
3016.12498,0.09155
3018.05345,0.10031
3019.98192,0.15224
3021.91039,0.19782
3023.83886,0.21437
3025.76733,0.21421
3027.69579,0.20887
3029.62426,0.20700
3031.55273,0.20874
3033.48120,0.20687
3035.40967,0.20459
3037.33814,0.20759
3039.26661,0.21252
3041.19508,0.21294
3043.12354,0.20977
3045.05201,0.20762
3046.98048,0.20525
3048.90895,0.20459
3050.83742,0.20737
3052.76589,0.20950
3054.69436,0.20646
3056.62282,0.19782
3058.55129,0.19496
3060.47976,0.20306
3062.40823,0.21108
3064.33670,0.20893
3066.26517,0.19874
3068.19364,0.19654
3070.12211,0.20701
3072.05057,0.21555
3073.97904,0.21190
3075.90751,0.20081
3077.83598,0.19871
3079.76445,0.20677
3081.69292,0.20904
3083.62139,0.19929
3085.54985,0.18721
3087.47832,0.18847
3089.40679,0.20015
3091.33526,0.20612
3093.26373,0.19942
3095.19220,0.19187
3097.12067,0.19825
3099.04914,0.20748
3100.97760,0.20596
3102.90607,0.19674
3104.83454,0.19321
3106.76301,0.20254
3108.69148,0.21115
3110.61995,0.20609
3112.54842,0.19490
3114.47688,0.19603
3116.40535,0.20698
3118.33382,0.20821
3120.26229,0.19655
3122.19076,0.18714
3124.11923,0.19270
3126.04770,0.20536
3127.97617,0.21324
3129.90463,0.21720
3131.83310,0.22067
3133.76157,0.22257
3135.69004,0.21958
3137.61851,0.21131
3139.54698,0.20541
3141.47545,0.20892
3143.40391,0.21542
3145.33238,0.21739
3147.26085,0.21587
3149.18932,0.21445
3151.11779,0.21522
3153.04626,0.21639
3154.97473,0.21406
3156.90320,0.20848
3158.83166,0.20642
3160.76013,0.21083
3162.68860,0.21745
3164.61707,0.22156
3166.54554,0.21989
3168.47401,0.21668
3170.40248,0.21874
3172.33094,0.22164
3174.25941,0.21995
3176.18788,0.21693
3178.11635,0.21678
3180.04482,0.21967
3181.97329,0.22230
3183.90176,0.22341
3185.83022,0.22188
3187.75869,0.21546
3189.68716,0.20884
3191.61563,0.20884
3193.54410,0.21418
3195.47257,0.21864
3197.40104,0.21834
3199.32951,0.21464
3201.25797,0.21284
3203.18644,0.21444
3205.11491,0.21629
3207.04338,0.21731
3208.97185,0.21906
3210.90032,0.22051
3212.82879,0.21900
3214.75725,0.21564
3216.68572,0.21217
3218.61419,0.21134
3220.54266,0.21497
3222.47113,0.21817
3224.39960,0.21795
3226.32807,0.21783
3228.25654,0.21901
3230.18500,0.21937
3232.11347,0.21961
3234.04194,0.21824
3235.97041,0.21410
3237.89888,0.21282
3239.82735,0.21593
3241.75582,0.21908
3243.68428,0.22078
3245.61275,0.22151
3247.54122,0.22064
3249.46969,0.21930
3251.39816,0.21740
3253.32663,0.21132
3255.25510,0.20583
3257.18357,0.20876
3259.11203,0.21322
3261.04050,0.21064
3262.96897,0.20642
3264.89744,0.20425
3266.82591,0.20042
3268.75438,0.19789
3270.68285,0.20097
3272.61131,0.20679
3274.53978,0.21149
3276.46825,0.21313
3278.39672,0.21114
3280.32519,0.20762
3282.25366,0.20687
3284.18213,0.20933
3286.11060,0.21076
3288.03906,0.20953
3289.96753,0.20687
3291.89600,0.20513
3293.82447,0.20596
3295.75294,0.20645
3297.68141,0.20481
3299.60988,0.20662
3301.53834,0.21399
3303.46681,0.21760
3305.39528,0.21398
3307.32375,0.21150
3309.25222,0.21312
3311.18069,0.21410
3313.10916,0.21110
3315.03763,0.20766
3316.96609,0.20876
3318.89456,0.20828
3320.82303,0.20336
3322.75150,0.20501
3324.67997,0.21317
3326.60844,0.21737
3328.53691,0.21772
3330.46537,0.21849
3332.39384,0.22031
3334.32231,0.22152
3336.25078,0.21936
3338.17925,0.21606
3340.10772,0.21442
3342.03619,0.21128
3343.96466,0.20699
3345.89312,0.20710
3347.82159,0.21241
3349.75006,0.21781
3351.67853,0.21897
3353.60700,0.21659
3355.53547,0.21347
3357.46394,0.21274
3359.39240,0.21583
3361.32087,0.21847
3363.24934,0.21806
3365.17781,0.21871
3367.10628,0.22239
3369.03475,0.22469
3370.96322,0.22153
3372.89168,0.21731
3374.82015,0.21875
3376.74862,0.22274
3378.67709,0.22314
3380.60556,0.21956
3382.53403,0.21442
3384.46250,0.20953
3386.39097,0.20541
3388.31943,0.20522
3390.24790,0.21055
3392.17637,0.21525
3394.10484,0.21785
3396.03331,0.21998
3397.96178,0.21756
3399.89025,0.21288
3401.81871,0.21254
3403.74718,0.21438
3405.67565,0.21130
3407.60412,0.20622
3409.53259,0.20733
3411.46106,0.21063
3413.38953,0.21110
3415.31800,0.21402
3417.24646,0.21854
3419.17493,0.21378
3421.10340,0.20306
3423.03187,0.19944
3424.96034,0.20289
3426.88881,0.21094
3428.81728,0.21734
3430.74574,0.21388
3432.67421,0.20751
3434.60268,0.20665
3436.53115,0.20776
3438.45962,0.20483
3440.38809,0.19818
3442.31656,0.19525
3444.24503,0.19967
3446.17349,0.20379
3448.10196,0.20356
3450.03043,0.20420
3451.95890,0.20497
3453.88737,0.20361
3455.81584,0.20260
3457.74431,0.20171
3459.67277,0.20041
3461.60124,0.19921
3463.52971,0.19621
3465.45818,0.19292
3467.38665,0.19359
3469.31512,0.19516
3471.24359,0.19452
3473.17206,0.19602
3475.10052,0.19873
3477.02899,0.19636
3478.95746,0.19050
3480.88593,0.18593
3482.81440,0.18457
3484.74287,0.19018
3486.67134,0.19857
3488.59980,0.19822
3490.52827,0.19142
3492.45674,0.18639
3494.38521,0.18176
3496.31368,0.17645
3498.24215,0.17461
3500.17062,0.17809
3502.09909,0.18332
3504.02755,0.18404
3505.95602,0.18010
3507.88449,0.17790
3509.81296,0.17802
3511.74143,0.17726
3513.66990,0.17593
3515.59837,0.17380
3517.52683,0.17205
3519.45530,0.17410
3521.38377,0.17873
3523.31224,0.18211
3525.24071,0.18195
3527.16918,0.17983
3529.09765,0.17915
3531.02611,0.17875
3532.95458,0.17841
3534.88305,0.17785
3536.81152,0.17314
3538.73999,0.16949
3540.66846,0.17262
3542.59693,0.17442
3544.52540,0.17165
3546.45386,0.17132
3548.38233,0.17138
3550.31080,0.16956
3552.23927,0.17005
3554.16774,0.17165
3556.09621,0.17160
3558.02468,0.17068
3559.95314,0.17155
3561.88161,0.17376
3563.81008,0.17309
3565.73855,0.16955
3567.66702,0.16671
3569.59549,0.16450
3571.52396,0.16159
3573.45243,0.16050
3575.38089,0.16270
3577.30936,0.16655
3579.23783,0.16833
3581.16630,0.16531
3583.09477,0.16380
3585.02324,0.16895
3586.95171,0.17162
3588.88017,0.16378
3590.80864,0.15897
3592.73711,0.16219
3594.66558,0.16545
3596.59405,0.16473
3598.52252,0.16447
3600.45099,0.16384
3602.37946,0.16079
3604.30792,0.15899
3606.23639,0.16076
3608.16486,0.16483
3610.09333,0.16989
3612.02180,0.17520
3613.95027,0.17346
3615.87874,0.16296
3617.80720,0.15392
3619.73567,0.15014
3621.66414,0.14833
3623.59261,0.14600
3625.52108,0.14505
3627.44955,0.15255
3629.37802,0.16407
3631.30649,0.16010
3633.23495,0.15044
3635.16342,0.14461
3637.09189,0.14279
3639.02036,0.14235
3640.94883,0.14148
3642.87730,0.14045
3644.80577,0.14307
3646.73423,0.15089
3648.66270,0.15512
3650.59117,0.15005
3652.51964,0.14520
3654.44811,0.14071
3656.37658,0.13623
3658.30505,0.13402
3660.23352,0.13414
3662.16198,0.13502
3664.09045,0.13486
3666.01892,0.13551
3667.94739,0.13915
3669.87586,0.14139
3671.80433,0.14133
3673.73280,0.14570
3675.66126,0.14969
3677.58973,0.14374
3679.51820,0.13619
3681.44667,0.13251
3683.37514,0.13197
3685.30361,0.13147
3687.23208,0.13100
3689.16055,0.13660
3691.08901,0.14246
3693.01748,0.13973
3694.94595,0.13522
3696.87442,0.13157
3698.80289,0.12989
3700.73136,0.13288
3702.65983,0.13737
3704.58829,0.13707
3706.51676,0.13553
3708.44523,0.13799
3710.37370,0.14117
3712.30217,0.13720
3714.23064,0.13207
3716.15911,0.13135
3718.08757,0.13411
3720.01604,0.13940
3721.94451,0.14112
3723.87298,0.13559
3725.80145,0.13072
3727.72992,0.13017
3729.65839,0.13097
3731.58686,0.13120
3733.51532,0.13327
3735.44379,0.14153
3737.37226,0.14379
3739.30073,0.14054
3741.22920,0.14254
3743.15767,0.14736
3745.08614,0.14505
3747.01460,0.13912
3748.94307,0.14432
3750.87154,0.15479
3752.80001,0.14366
3754.72848,0.12953
3756.65695,0.13111
3758.58542,0.13950
3760.51389,0.13760
3762.44235,0.13258
3764.37082,0.13429
3766.29929,0.13512
3768.22776,0.13207
3770.15623,0.13056
3772.08470,0.13005
3774.01317,0.12758
3775.94163,0.12271
3777.87010,0.11949
3779.79857,0.12137
3781.72704,0.12389
3783.65551,0.12452
3785.58398,0.12409
3787.51245,0.12220
3789.44092,0.11991
3791.36938,0.11957
3793.29785,0.12264
3795.22632,0.12734
3797.15479,0.13094
3799.08326,0.13486
3801.01173,0.13981
3802.94020,0.13866
3804.86866,0.13097
3806.79713,0.12190
3808.72560,0.12112
3810.65407,0.12922
3812.58254,0.13752
3814.51101,0.14431
3816.43948,0.14471
3818.36795,0.13938
3820.29641,0.14129
3822.22488,0.14267
3824.15335,0.13593
3826.08182,0.12819
3828.01029,0.12201
3829.93876,0.12044
3831.86723,0.12355
3833.79569,0.12981
3835.72416,0.13705
3837.65263,0.14262
3839.58110,0.14624
3841.50957,0.14784
3843.43804,0.14133
3845.36651,0.12980
3847.29498,0.12559
3849.22344,0.12997
3851.15191,0.13793
3853.08038,0.14115
3855.00885,0.13072
3856.93732,0.12462
3858.86579,0.12791
3860.79426,0.13579
3862.72272,0.14289
3864.65119,0.14259
3866.57966,0.13479
3868.50813,0.12960
3870.43660,0.12894
3872.36507,0.12599
3874.29354,0.12138
3876.22200,0.11804
3878.15047,0.11863
3880.07894,0.12460
3882.00741,0.12849
3883.93588,0.12713
3885.86435,0.12504
3887.79282,0.12299
3889.72129,0.12143
3891.64975,0.11907
3893.57822,0.12034
3895.50669,0.12879
3897.43516,0.13732
3899.36363,0.13990
3901.29210,0.13830
3903.22057,0.13705
3905.14903,0.13237
3907.07750,0.12225
3909.00597,0.11289
3910.93444,0.10893
3912.86291,0.10967
3914.79138,0.11181
3916.71985,0.11614
3918.64832,0.12105
3920.57678,0.12205
3922.50525,0.12424
3924.43372,0.13106
3926.36219,0.13212
3928.29066,0.12495
3930.21913,0.12086
3932.14760,0.12106
3934.07606,0.11853
3936.00453,0.11518
3937.93300,0.11251
3939.86147,0.10882
3941.78994,0.10790
3943.71841,0.11079
3945.64688,0.11162
3947.57535,0.11081
3949.50381,0.10952
3951.43228,0.10563
3953.36075,0.10267
3955.28922,0.10518
3957.21769,0.10916
3959.14616,0.10926
3961.07463,0.10738
3963.00309,0.10615
3964.93156,0.10651
3966.86003,0.10702
3968.78850,0.10486
3970.71697,0.10105
3972.64544,0.10054
3974.57391,0.10397
3976.50238,0.10572
3978.43084,0.10538
3980.35931,0.10494
3982.28778,0.10413
3984.21625,0.10541
3986.14472,0.10819
3988.07319,0.10947
3990.00166,0.11031
3991.93012,0.11053
3993.85859,0.10951
3995.78706,0.10924
3997.71553,0.10902
3999.64400,0.10824
4001.57247,0.10469
4003.50094,0.09655
4005.42941,0.09331
4007.35787,0.10112
4009.28634,0.11094
4011.21481,0.11262
4013.14328,0.10634
4015.07175,0.10006
4017.00022,0.09878
4018.92869,0.10028
4020.85715,0.10075
4022.78562,0.09970
4024.71409,0.09956
4026.64256,0.10215
4028.57103,0.10483
4030.49950,0.10141
4032.42797,0.09485
4034.35644,0.09315
4036.28490,0.09273
4038.21337,0.09069
4040.14184,0.09303
4042.07031,0.10005
4043.99878,0.10447
4045.92725,0.10358
4047.85572,0.10057
4049.78418,0.09569
4051.71265,0.09140
4053.64112,0.09137
4055.56959,0.09416
4057.49806,0.09719
4059.42653,0.09759
4061.35500,0.09828
4063.28346,0.10133
4065.21193,0.10151
4067.14040,0.09844
4069.06887,0.09378
4070.99734,0.08907
4072.92581,0.08758
4074.85428,0.08861
4076.78275,0.08816
4078.71121,0.08645
4080.63968,0.08613
4082.56815,0.08688
4084.49662,0.09162
4086.42509,0.09922
4088.35356,0.10150
4090.28203,0.10004
4092.21049,0.10146
4094.13896,0.10439
4096.06743,0.10336
4097.99590,0.09948
4099.92437,0.09829
4101.85284,0.09670
4103.78131,0.08991
4105.70978,0.08276
4107.63824,0.07949
4109.56671,0.07995
4111.49518,0.08548
4113.42365,0.09229
4115.35212,0.09312
4117.28059,0.08980
4119.20906,0.08939
4121.13752,0.09196
4123.06599,0.09248
4124.99446,0.09030
4126.92293,0.08853
4128.85140,0.08822
4130.77987,0.08795
4132.70834,0.08623
4134.63681,0.08410
4136.56527,0.08186
4138.49374,0.07848
4140.42221,0.07580
4142.35068,0.07396
4144.27915,0.07357
4146.20762,0.07639
4148.13609,0.08005
4150.06455,0.08233
4151.99302,0.08222
4153.92149,0.08331
4155.84996,0.08842
4157.77843,0.09144
4159.70690,0.08817
4161.63537,0.08281
4163.56384,0.08039
4165.49230,0.08001
4167.42077,0.07983
4169.34924,0.08088
4171.27771,0.08368
4173.20618,0.08490
4175.13465,0.08071
4177.06312,0.07528
4178.99158,0.07359
4180.92005,0.07430
4182.84852,0.07760
4184.77699,0.08017
4186.70546,0.07556
4188.63393,0.07000
4190.56240,0.07287
4192.49087,0.08088
4194.41933,0.08281
4196.34780,0.07673
4198.27627,0.07514
4200.20474,0.07865
4202.13321,0.07621
4204.06168,0.07113
4205.99015,0.07070
4207.91861,0.07230
4209.84708,0.07382
4211.77555,0.07700
4213.70402,0.07920
4215.63249,0.07470
4217.56096,0.06460
4219.48943,0.06003
4221.41789,0.06709
4223.34636,0.07954
4225.27483,0.08712
4227.20330,0.08666
4229.13177,0.08427
4231.06024,0.07776
4232.98871,0.06553
4234.91718,0.05906
4236.84564,0.06305
4238.77411,0.07081
4240.70258,0.07477
4242.63105,0.07335
4244.55952,0.06986
4246.48799,0.06592
4248.41646,0.06276
4250.34492,0.06205
4252.27339,0.06132
4254.20186,0.05789
4256.13033,0.05899
4258.05880,0.06863
4259.98727,0.07397
4261.91574,0.06825
4263.84421,0.06219
4265.77267,0.05997
4267.70114,0.05637
4269.62961,0.05447
4271.55808,0.05847
4273.48655,0.06422
4275.41502,0.06948
4277.34349,0.07070
4279.27195,0.06275
4281.20042,0.05435
4283.12889,0.05768
4285.05736,0.06574
4286.98583,0.06577
4288.91430,0.06377
4290.84277,0.06626
4292.77124,0.06450
4294.69970,0.05750
4296.62817,0.05507
4298.55664,0.05618
4300.48511,0.05343
4302.41358,0.05236
4304.34205,0.05576
4306.27052,0.05490
4308.19898,0.04971
4310.12745,0.04529
4312.05592,0.04467
4313.98439,0.04965
4315.91286,0.05688
4317.84133,0.06185
4319.76980,0.06133
4321.69827,0.05543
4323.62673,0.05178
4325.55520,0.05409
4327.48367,0.05568
4329.41214,0.05410
4331.34061,0.05219
4333.26908,0.05046
4335.19755,0.05030
4337.12601,0.05304
4339.05448,0.05513
4340.98295,0.05433
4342.91142,0.05567
4344.83989,0.05656
4346.76836,0.05081
4348.69683,0.04711
4350.62530,0.04831
4352.55376,0.04561
4354.48223,0.04349
4356.41070,0.04930
4358.33917,0.05593
4360.26764,0.05652
4362.19611,0.05371
4364.12458,0.05296
4366.05304,0.05308
4367.98151,0.04997
4369.90998,0.04955
4371.83845,0.05667
4373.76692,0.06424
4375.69539,0.06586
4377.62386,0.06084
4379.55232,0.05078
4381.48079,0.04115
4383.40926,0.03773
4385.33773,0.03900
4387.26620,0.04110
4389.19467,0.04284
4391.12314,0.04553
4393.05161,0.04779
4394.98007,0.04226
4396.90854,0.03486
4398.83701,0.03876
4400.76548,0.04731
4402.69395,0.04891
4404.62242,0.04589
4406.55089,0.04254
4408.47935,0.03690
4410.40782,0.03364
4412.33629,0.03670
4414.26476,0.03821
4416.19323,0.03814
4418.12170,0.04065
4420.05017,0.04127
4421.97864,0.03560
4423.90710,0.02769
4425.83557,0.02710
4427.76404,0.03241
4429.69251,0.03660
4431.62098,0.03982
4433.54945,0.03833
4435.47792,0.03275
4437.40638,0.03127
4439.33485,0.03331
4441.26332,0.03687
4443.19179,0.03734
4445.12026,0.03114
4447.04873,0.02738
4448.97720,0.02645
4450.90567,0.02495
4452.83413,0.02811
4454.76260,0.03124
4456.69107,0.02889
4458.61954,0.02526
4460.54801,0.02503
4462.47648,0.02933
4464.40495,0.03025
4466.33341,0.02561
4468.26188,0.02676
4470.19035,0.03573
4472.11882,0.04399
4474.04729,0.04635
4475.97576,0.04469
4477.90423,0.04033
4479.83270,0.03394
4481.76116,0.03153
4483.68963,0.02813
4485.61810,0.01877
4487.54657,0.01715
4489.47504,0.02784
4491.40351,0.03461
4493.33198,0.02803
4495.26044,0.01962
4497.18891,0.02107
4499.11738,0.02966
4501.04585,0.03437
4502.97432,0.03189
4504.90279,0.02863
4506.83126,0.02747
4508.75973,0.02753
4510.68819,0.02804
4512.61666,0.02909
4514.54513,0.03162
4516.47360,0.03373
4518.40207,0.02918
4520.33054,0.01618
4522.25901,0.00440
4524.18747,0.00045
4526.11594,0.00208
4528.04441,0.00790
4529.97288,0.01455
4531.90135,0.01473
4533.82982,0.00823
4535.75829,0.00508
4537.68676,0.00959
4539.61522,0.01530
4541.54369,0.01914
4543.47216,0.02327
4545.40063,0.02507
4547.32910,0.02094
4549.25757,0.01670
4551.18604,0.01855
4553.11450,0.02074
4555.04297,0.01735
4556.97144,0.01453
4558.89991,0.01445
4560.82838,0.01384
4562.75685,0.01722
4564.68532,0.02450
4566.61378,0.02964
4568.54225,0.02900
4570.47072,0.02323
4572.39919,0.01923
4574.32766,0.02021
4576.25613,0.02342
4578.18460,0.02392
4580.11307,0.01855
4582.04153,0.01249
4583.97000,0.00815
4585.89847,0.00227
4587.82694,0.00306
4589.75541,0.01411
4591.68388,0.02027
4593.61235,0.01917
4595.54081,0.01888
4597.46928,0.01411
4599.39775,0.00427
4601.32622,0.00085
4603.25469,0.00133
4605.18316,-0.00478
4607.11163,-0.00861
4609.04010,-0.00177
4610.96856,0.01010
4612.89703,0.01665
4614.82550,0.00989
4616.75397,-0.00257
4618.68244,-0.00834
4620.61091,-0.00339
4622.53938,0.00522
4624.46784,0.00785
4626.39631,0.00669
4628.32478,0.00206
4630.25325,-0.00385
4632.18172,0.00082
4634.11019,0.00951
4636.03866,0.00835
4637.96713,0.00738
4639.89559,0.01674
4641.82406,0.02652
4643.75253,0.02307
4645.68100,0.00882
4647.60947,-0.00128
4649.53794,-0.00247
4651.46641,0.00022
4653.39487,0.00444
4655.32334,0.01178
4657.25181,0.02336
4659.18028,0.03081
4661.10875,0.02551
4663.03722,0.01473
4664.96569,0.00807
4666.89416,0.00257
4668.82262,-0.00441
4670.75109,-0.00690
4672.67956,-0.00295
4674.60803,0.00356
4676.53650,0.01146
4678.46497,0.01494
4680.39344,0.00914
4682.32190,0.00489
4684.25037,0.00715
4686.17884,0.00837
4688.10731,0.01187
4690.03578,0.01907
4691.96425,0.02119
4693.89272,0.01917
4695.82119,0.01198
4697.74965,-0.00167
4699.67812,-0.00891
4701.60659,-0.00178
4703.53506,0.01036
4705.46353,0.01173
4707.39200,0.00569
4709.32047,0.00675
4711.24893,0.01063
4713.17740,0.01042
4715.10587,0.00806
4717.03434,0.00388
4718.96281,0.00256
4720.89128,0.01037
4722.81975,0.01985
4724.74821,0.01479
4726.67668,0.00046
4728.60515,-0.00092
4730.53362,0.00787
4732.46209,0.00920
4734.39056,0.00567
4736.31903,0.00786
4738.24750,0.01144
4740.17596,0.01121
4742.10443,0.01560
4744.03290,0.02256
4745.96137,0.02077
4747.88984,0.01632
4749.81831,0.01425
4751.74678,0.00792
4753.67524,-0.00481
4755.60371,-0.01981
4757.53218,-0.02277
4759.46065,-0.00931
4761.38912,0.00027
4763.31759,0.00372
4765.24606,0.01665
4767.17453,0.02870
4769.10299,0.02478
4771.03146,0.01598
4772.95993,0.01002
4774.88840,-0.00214
4776.81687,-0.01282
4778.74534,-0.00597
4780.67381,0.00856
4782.60227,0.01008
4784.53074,-0.00078
4786.45921,-0.00689
4788.38768,-0.00451
4790.31615,-0.00018
4792.24462,0.00547
4794.17309,0.01158
4796.10156,0.01448
4798.03002,0.01129
4799.95849,0.01007
4801.88696,0.01855
4803.81543,0.02556
4805.74390,0.01948
4807.67237,0.00726
4809.60084,0.00248
4811.52930,0.00535
4813.45777,0.01047
4815.38624,0.01957
4817.31471,0.02944
4819.24318,0.02854
4821.17165,0.01251
4823.10012,-0.00104
4825.02859,0.00214
4826.95705,0.01241
4828.88552,0.02199
4830.81399,0.02421
4832.74246,0.01449
4834.67093,0.00340
4836.59940,-0.00659
4838.52787,-0.01484
4840.45633,-0.01137
4842.38480,0.00004
4844.31327,0.00640
4846.24174,0.00324
4848.17021,-0.00169
4850.09868,-0.00230
4852.02715,-0.00139
4853.95562,0.00095
4855.88408,0.00526
4857.81255,0.00781
4859.74102,0.00758
4861.66949,0.00726
4863.59796,0.00740
4865.52643,0.01090
4867.45490,0.01618
4869.38336,0.01334
4871.31183,0.00751
4873.24030,0.00530
4875.16877,-0.00321
4877.09724,-0.01330
4879.02571,-0.00944
4880.95418,0.00562
4882.88265,0.01820
4884.81111,0.02102
4886.73958,0.02179
4888.66805,0.02643
4890.59652,0.01886
4892.52499,-0.00336
4894.45346,-0.01362
4896.38193,0.00049
4898.31039,0.02013
4900.23886,0.01951
4902.16733,0.00209
4904.09580,-0.00390
4906.02427,0.01097
4907.95274,0.02493
4909.88121,0.02402
4911.80967,0.01202
4913.73814,-0.00076
4915.66661,0.00202
4917.59508,0.01277
4919.52355,0.01041
4921.45202,0.00830
4923.38049,0.01575
4925.30896,0.01796
4927.23742,0.01807
4929.16589,0.02092
4931.09436,0.02079
4933.02283,0.01893
4934.95130,0.01826
4936.87977,0.01267
4938.80824,-0.00480
4940.73670,-0.01856
4942.66517,-0.01126
4944.59364,0.00301
4946.52211,0.00530
4948.45058,0.00343
4950.37905,0.00959
4952.30752,0.01718
4954.23599,0.01886
4956.16445,0.01723
4958.09292,0.01741
4960.02139,0.02165
4961.94986,0.02086
4963.87833,0.00882
4965.80680,0.00020
4967.73527,0.00232
4969.66373,0.00829
4971.59220,0.01750
4973.52067,0.01800
4975.44914,0.00186
4977.37761,-0.00915
4979.30608,-0.00115
4981.23455,0.01038
4983.16302,0.01170
4985.09148,0.00212
4987.01995,-0.01173
4988.94842,-0.01096
4990.87689,0.00514
4992.80536,0.01317
4994.73383,0.00548
4996.66230,0.00445
4998.59076,0.02015
5000.51923,0.02870
5002.44770,0.03129
5004.37617,0.04003
5006.30464,0.03812
5008.23311,0.02240
5010.16158,0.01094
5012.09005,0.00990
5014.01851,0.01189
5015.94698,0.01545
5017.87545,0.02151
5019.80392,0.02306
5021.73239,0.02008
5023.66086,0.02605
5025.58933,0.03451
5027.51779,0.02757
5029.44626,0.01890
5031.37473,0.02344
5033.30320,0.02774
5035.23167,0.02283
5037.16014,0.02108
5039.08861,0.02835
5041.01708,0.04061
5042.94554,0.04790
5044.87401,0.04043
5046.80248,0.03237
5048.73095,0.03788
5050.65942,0.04527
5052.58789,0.04032
5054.51636,0.03153
5056.44482,0.02828
5058.37329,0.02400
5060.30176,0.02235
5062.23023,0.02832
5064.15870,0.03577
5066.08717,0.03946
5068.01564,0.03737
5069.94410,0.03128
5071.87257,0.02307
5073.80104,0.01647
5075.72951,0.02044
5077.65798,0.03137
5079.58645,0.03023
5081.51492,0.01907
5083.44339,0.01606
5085.37185,0.02453
5087.30032,0.03326
5089.22879,0.03096
5091.15726,0.02042
5093.08573,0.01061
5095.01420,0.01441
5096.94267,0.02778
5098.87113,0.02115
5100.79960,0.00636
5102.72807,0.01678
5104.65654,0.03441
5106.58501,0.03922
5108.51348,0.04237
5110.44195,0.05142
5112.37042,0.05917
5114.29888,0.05350
5116.22735,0.04231
5118.15582,0.04216
5120.08429,0.04701
5122.01276,0.03904
5123.94123,0.01336
5125.86970,-0.00701
5127.79816,0.00805
5129.72663,0.04698
5131.65510,0.06919
5133.58357,0.06224
5135.51204,0.03990
5137.44051,0.01782
5139.36898,0.01614
5141.29745,0.03479
5143.22591,0.04617
5145.15438,0.03436
5147.08285,0.01016
5149.01132,-0.00327
5150.93979,0.00636
5152.86826,0.02391
5154.79673,0.02690
5156.72519,0.01579
5158.65366,0.00684
5160.58213,0.00299
5162.51060,-0.00065
5164.43907,0.00643
5166.36754,0.03376
5168.29601,0.05956
5170.22448,0.05674
5172.15294,0.03811
5174.08141,0.03041
5176.00988,0.02997
5177.93835,0.02850
5179.86682,0.02806
5181.79529,0.02850
5183.72376,0.03798
5185.65222,0.05134
5187.58069,0.04160
5189.50916,0.02369
5191.43763,0.03135
5193.36610,0.05374
5195.29457,0.05829
5197.22304,0.03928
5199.15151,0.02002
5201.07997,0.01457
5203.00844,0.01879
5204.93691,0.02573
5206.86538,0.03151
5208.79385,0.03420
5210.72232,0.03561
5212.65079,0.04308
5214.57925,0.04717
5216.50772,0.04037
5218.43619,0.03586
5220.36466,0.03625
5222.29313,0.03424
5224.22160,0.03321
5226.15007,0.03350
5228.07854,0.03450
5230.00700,0.03897
5231.93547,0.03598
5233.86394,0.03383
5235.79241,0.05009
5237.72088,0.06098
5239.64935,0.04695
5241.57782,0.03554
5243.50628,0.05598
5245.43475,0.08271
5247.36322,0.07788
5249.29169,0.05937
5251.22016,0.05883
5253.14863,0.07022
5255.07710,0.06890
5257.00556,0.05544
5258.93403,0.05344
5260.86250,0.06238
5262.79097,0.06842
5264.71944,0.06820
5266.64791,0.06421
5268.57638,0.06398
5270.50485,0.06340
5272.43331,0.06000
5274.36178,0.05954
5276.29025,0.05018
5278.21872,0.03186
5280.14719,0.02786
5282.07566,0.04503
5284.00413,0.06276
5285.93259,0.06267
5287.86106,0.05141
5289.78953,0.04532
5291.71800,0.04560
5293.64647,0.04479
5295.57494,0.05052
5297.50341,0.05871
5299.43188,0.05592
5301.36034,0.04870
5303.28881,0.04819
5305.21728,0.05250
5307.14575,0.05522
5309.07422,0.06223
5311.00269,0.06537
5312.93116,0.05276
5314.85962,0.04350
5316.78809,0.04812
5318.71656,0.05776
5320.64503,0.06710
5322.57350,0.05739
5324.50197,0.03012
5326.43044,0.03286
5328.35891,0.06273
5330.28737,0.07299
5332.21584,0.06616
5334.14431,0.04530
5336.07278,0.00912
5338.00125,-0.01203
5339.92972,0.01178
5341.85819,0.05760
5343.78665,0.08524
5345.71512,0.08125
5347.64359,0.07078
5349.57206,0.06495
5351.50053,0.04934
5353.42900,0.02701
5355.35747,0.02350
5357.28594,0.03280
5359.21440,0.03629
5361.14287,0.03759
5363.07134,0.04299
5364.99981,0.05230
5366.92828,0.06253
5368.85675,0.06428
5370.78522,0.05630
5372.71368,0.05548
5374.64215,0.06428
5376.57062,0.05920
5378.49909,0.04192
5380.42756,0.03969
5382.35603,0.05315
5384.28450,0.05976
5386.21297,0.04666
5388.14143,0.03438
5390.06990,0.04404
5391.99837,0.07661
5393.92684,0.11118
5395.85531,0.11735
5397.78378,0.10457
5399.71225,0.08936
5401.64071,0.06041
5403.56918,0.03124
5405.49765,0.03282
5407.42612,0.05340
5409.35459,0.05585
5411.28306,0.02830
5413.21153,0.00712
5415.13999,0.02325
5417.06846,0.05456
5418.99693,0.07718
5420.92540,0.08295
5422.85387,0.07260
5424.78234,0.05796
5426.71081,0.04821
5428.63928,0.04013
5430.56774,0.04641
5432.49621,0.06634
5434.42468,0.07069
5436.35315,0.06327
5438.28162,0.06290
5440.21009,0.06549
5442.13856,0.07410
5444.06702,0.09296
5445.99549,0.10899
5447.92396,0.10346
5449.85243,0.08498
5451.78090,0.07779
5453.70937,0.07401
5455.63784,0.06565
5457.56631,0.07025
5459.49477,0.08693
5461.42324,0.08998
5463.35171,0.06556
5465.28018,0.03329
5467.20865,0.01684
5469.13712,0.02411
5471.06559,0.04453
5472.99405,0.05741
5474.92252,0.07039
5476.85099,0.09399
5478.77946,0.11404
5480.70793,0.11010
5482.63640,0.07428
5484.56487,0.04258
5486.49334,0.04841
5488.42180,0.07732
5490.35027,0.09269
5492.27874,0.07853
5494.20721,0.06074
5496.13568,0.05114
5498.06415,0.03370
5499.99262,0.02567
5501.92108,0.04665
5503.84955,0.06791
5505.77802,0.06765
5507.70649,0.05480
5509.63496,0.04377
5511.56343,0.03833
5513.49190,0.03524
5515.42037,0.03710
5517.34883,0.04399
5519.27730,0.05627
5521.20577,0.06879
5523.13424,0.07683
5525.06271,0.08439
5526.99118,0.07887
5528.91965,0.06385
5530.84811,0.05691
5532.77658,0.05549
5534.70505,0.06651
5536.63352,0.08582
5538.56199,0.09149
5540.49046,0.09168
5542.41893,0.09849
5544.34740,0.10282
5546.27586,0.09618
5548.20433,0.06944
5550.13280,0.04193
5552.06127,0.03442
5553.98974,0.02534
5555.91821,0.01629
5557.84668,0.02954
5559.77514,0.04978
5561.70361,0.06200
5563.63208,0.06847
5565.56055,0.06579
5567.48902,0.06490
5569.41749,0.07497
5571.34596,0.07784
5573.27443,0.07552
5575.20289,0.07811
5577.13136,0.08344
5579.05983,0.09073
5580.98830,0.08424
5582.91677,0.06653
5584.84524,0.06340
5586.77371,0.07369
5588.70217,0.08295
5590.63064,0.09970
5592.55911,0.12095
5594.48758,0.11884
5596.41605,0.09065
5598.34452,0.05356
5600.27299,0.03662
5602.20145,0.05606
5604.12992,0.07587
5606.05839,0.05908
5607.98686,0.03043
5609.91533,0.03713
5611.84380,0.05917
5613.77227,0.06112
5615.70074,0.06797
5617.62920,0.08205
5619.55767,0.07826
5621.48614,0.07738
5623.41461,0.09864
5625.34308,0.11236
5627.27155,0.10313
5629.20002,0.09996
5631.12848,0.10511
5633.05695,0.10240
5634.98542,0.11064
5636.91389,0.12653
5638.84236,0.11637
5640.77083,0.08429
5642.69930,0.05602
5644.62777,0.05352
5646.55623,0.08010
5648.48470,0.10931
5650.41317,0.11761
5652.34164,0.10413
5654.27011,0.08290
5656.19858,0.07798
5658.12705,0.09820
5660.05551,0.10362
5661.98398,0.07462
5663.91245,0.04855
5665.84092,0.03142
5667.76939,0.01549
5669.69786,0.01518
5671.62633,0.03714
5673.55480,0.07954
5675.48326,0.11748
5677.41173,0.12718
5679.34020,0.11580
5681.26867,0.08950
5683.19714,0.06756
5685.12561,0.06842
5687.05408,0.07952
5688.98254,0.08415
5690.91101,0.08394
5692.83948,0.08997
5694.76795,0.10268
5696.69642,0.10545
5698.62489,0.08053
5700.55336,0.05936
5702.48183,0.07682
5704.41029,0.10235
5706.33876,0.10295
5708.26723,0.08821
5710.19570,0.08723
5712.12417,0.10025
5714.05264,0.10031
5715.98111,0.09800
5717.90957,0.10638
5719.83804,0.09848
5721.76651,0.07858
5723.69498,0.08132
5725.62345,0.10263
5727.55192,0.10857
5729.48039,0.09804
5731.40886,0.10413
5733.33732,0.11401
5735.26579,0.10493
5737.19426,0.10574
5739.12273,0.12663
5741.05120,0.12330
5742.97967,0.07559
5744.90814,0.02676
5746.83660,-0.00290
5748.76507,-0.02755
5750.69354,-0.02769
5752.62201,0.00039
5754.55048,0.02428
5756.47895,0.03892
5758.40742,0.05101
5760.33588,0.05880
5762.26435,0.06371
5764.19282,0.05973
5766.12129,0.06271
5768.04976,0.08742
5769.97823,0.08721
5771.90670,0.06139
5773.83517,0.06340
5775.76363,0.08937
5777.69210,0.10251
5779.62057,0.08315
5781.54904,0.05612
5783.47751,0.05258
5785.40598,0.06911
5787.33445,0.07513
5789.26291,0.06202
5791.19138,0.07291
5793.11985,0.09645
5795.04832,0.08247
5796.97679,0.05476
5798.90526,0.04536
5800.83373,0.03634
5802.76220,0.02763
5804.69066,0.04558
5806.61913,0.08464
5808.54760,0.11218
5810.47607,0.12408
5812.40454,0.12539
5814.33301,0.10173
5816.26148,0.08051
5818.18994,0.10855
5820.11841,0.15002
5822.04688,0.13444
5823.97535,0.07656
5825.90382,0.04511
5827.83229,0.05604
5829.76076,0.08082
5831.68923,0.08604
5833.61769,0.06528
5835.54616,0.05928
5837.47463,0.06829
5839.40310,0.07563
5841.33157,0.10007
5843.26004,0.11621
5845.18851,0.09028
5847.11697,0.04798
5849.04544,0.02988
5850.97391,0.02793
5852.90238,0.03379
5854.83085,0.07574
5856.75932,0.12207
5858.68779,0.12768
5860.61626,0.09753
5862.54472,0.05460
5864.47319,0.04387
5866.40166,0.06687
5868.33013,0.08375
5870.25860,0.09489
5872.18707,0.12257
5874.11554,0.16677
5876.04400,0.18486
5877.97247,0.14386
5879.90094,0.07662
5881.82941,0.03038
5883.75788,0.02166
5885.68635,0.05370
5887.61482,0.09853
5889.54329,0.10825
5891.47175,0.08437
5893.40022,0.05682
5895.32869,0.05207
5897.25716,0.07521
5899.18563,0.11142
5901.11410,0.14370
5903.04257,0.13759
5904.97103,0.10777
5906.89950,0.10070
5908.82797,0.09573
5910.75644,0.07587
5912.68491,0.07889
5914.61338,0.10591
5916.54185,0.12907
5918.47032,0.12358
5920.39878,0.06337
5922.32725,0.00840
5924.25572,0.01312
5926.18419,0.02448
5928.11266,0.01430
5930.04113,0.02259
5931.96960,0.05534
5933.89806,0.07289
5935.82653,0.08485
5937.75500,0.11968
5939.68347,0.14191
5941.61194,0.12484
5943.54041,0.10008
5945.46888,0.09504
5947.39734,0.09461
5949.32581,0.09756
5951.25428,0.09882
5953.18275,0.06007
5955.11122,0.01097
5957.03969,0.02159
5958.96816,0.06756
5960.89663,0.08033
5962.82509,0.08241
5964.75356,0.10719
5966.68203,0.12860
5968.61050,0.13907
5970.53897,0.15039
5972.46744,0.15090
5974.39591,0.15306
5976.32437,0.16703
5978.25284,0.16034
5980.18131,0.13090
5982.10978,0.11322
5984.03825,0.12513
5985.96672,0.13113
5987.89519,0.08908
5989.82366,0.04021
5991.75212,0.03649
5993.68059,0.07061
5995.60906,0.10955
5997.53753,0.10919
5999.46600,0.07889
6001.39447,0.06816
6003.32294,0.08090
6005.25140,0.08044
6007.17987,0.04657
6009.10834,0.02067
6011.03681,0.03243
6012.96528,0.04663
6014.89375,0.06112
6016.82222,0.08179
6018.75069,0.08648
6020.67915,0.06919
6022.60762,0.03916
6024.53609,0.04803
6026.46456,0.11033
6028.39303,0.15298
6030.32150,0.13969
6032.24997,0.12433
6034.17843,0.14859
6036.10690,0.19114
6038.03537,0.20028
6039.96384,0.14443
6041.89231,0.05526
6043.82078,0.00475
6045.74925,0.01525
6047.67772,0.05122
6049.60618,0.08945
6051.53465,0.14244
6053.46312,0.19003
6055.39159,0.18533
6057.32006,0.15383
6059.24853,0.13363
6061.17700,0.11068
6063.10546,0.08552
6065.03393,0.09093
6066.96240,0.10566
6068.89087,0.08961
6070.81934,0.07835
6072.74781,0.08608
6074.67628,0.09655
6076.60475,0.10028
6078.53321,0.08465
6080.46168,0.10661
6082.39015,0.16047
6084.31862,0.15318
6086.24709,0.11172
6088.17556,0.11461
6090.10403,0.12951
6092.03249,0.11643
6093.96096,0.09545
6095.88943,0.08472
6097.81790,0.10342
6099.74637,0.16008
6101.67484,0.20150
6103.60331,0.20552
6105.53177,0.18961
6107.46024,0.13835
6109.38871,0.09213
6111.31718,0.09686
6113.24565,0.09787
6115.17412,0.07052
6117.10259,0.07270
6119.03106,0.12099
6120.95952,0.14400
6122.88799,0.13919
6124.81646,0.13426
6126.74493,0.11555
6128.67340,0.08368
6130.60187,0.05641
6132.53034,0.06607
6134.45880,0.09615
6136.38727,0.09201
6138.31574,0.08518
6140.24421,0.13732
6142.17268,0.17751
6144.10115,0.11926
6146.02962,0.02205
6147.95809,-0.02619
6149.88655,0.01575
6151.81502,0.12439
6153.74349,0.20897
6155.67196,0.20385
6157.60043,0.12858
6159.52890,0.04734
6161.45737,0.00998
6163.38583,0.01698
6165.31430,0.03673
6167.24277,0.05675
6169.17124,0.07804
6171.09971,0.08332
6173.02818,0.06997
6174.95665,0.07377
6176.88512,0.08828
6178.81358,0.07476
6180.74205,0.05422
6182.67052,0.04931
6184.59899,0.05969
6186.52746,0.09490
6188.45593,0.14602
6190.38440,0.18484
6192.31286,0.18778
6194.24133,0.14075
6196.16980,0.06645
6198.09827,0.00953
6200.02674,-0.00464
6201.95521,0.01470
6203.88368,0.03210
6205.81215,0.04178
6207.74061,0.06505
6209.66908,0.08472
6211.59755,0.07065
6213.52602,0.04968
6215.45449,0.04923
6217.38296,0.04257
6219.31143,0.03072
6221.23989,0.04439
6223.16836,0.06739
6225.09683,0.07421
6227.02530,0.10311
6228.95377,0.15257
6230.88224,0.11811
6232.81071,-0.00146
6234.73918,-0.04537
6236.66764,0.01843
6238.59611,0.07973
6240.52458,0.09789
6242.45305,0.09774
6244.38152,0.07494
6246.30999,0.04771
6248.23846,0.03946
6250.16692,0.06501
6252.09539,0.14477
6254.02386,0.17683
6255.95233,0.06395
6257.88080,-0.07670
6259.80927,-0.10462
6261.73774,-0.03503
6263.66621,0.05510
6265.59467,0.06208
6267.52314,-0.00937
6269.45161,-0.04753
6271.38008,-0.03354
6273.30855,0.00927
6275.23702,0.04779
6277.16549,0.06161
6279.09395,0.06412
6281.02242,0.04806
6282.95089,0.03671
6284.87936,0.07051
6286.80783,0.12809
6288.73630,0.15986
6290.66477,0.15314
6292.59323,0.13451
6294.52170,0.10403
6296.45017,0.05720
6298.37864,0.00601
6300.30711,-0.04575
6302.23558,-0.04962
6304.16405,0.03790
6306.09252,0.14656
6308.02098,0.19045
6309.94945,0.15074
6311.87792,0.05504
6313.80639,-0.03467
6315.73486,-0.07628
6317.66333,-0.07203
6319.59180,-0.01940
6321.52026,0.06070
6323.44873,0.10466
6325.37720,0.09077
6327.30567,0.04990
6329.23414,0.06115
6331.16261,0.13904
6333.09108,0.15936
6335.01955,0.11801
6336.94801,0.08840
6338.87648,0.05213
6340.80495,0.02392
6342.73342,0.05224
6344.66189,0.13092
6346.59036,0.17431
6348.51883,0.13289
6350.44729,0.09331
6352.37576,0.09703
6354.30423,0.10253
6356.23270,0.10855
6358.16117,0.11196
6360.08964,0.11251
6362.01811,0.12541
6363.94658,0.13425
6365.87504,0.15090
6367.80351,0.16739
6369.73198,0.14243
6371.66045,0.13462
6373.58892,0.13740
6375.51739,0.08589
6377.44586,0.06421
6379.37432,0.10109
6381.30279,0.11467
6383.23126,0.09511
6385.15973,0.07099
6387.08820,0.04945
6389.01667,0.05556
6390.94514,0.08740
6392.87361,0.10257
6394.80207,0.08073
6396.73054,0.06623
6398.65901,0.06977
6400.58748,0.06527
6402.51595,0.06672
6404.44442,0.10387
6406.37289,0.17853
6408.30135,0.22677
6410.22982,0.19751
6412.15829,0.13312
6414.08676,0.10502
6416.01523,0.14246
6417.94370,0.16397
6419.87217,0.11074
6421.80064,0.05258
6423.72910,0.03263
6425.65757,0.08045
6427.58604,0.14118
6429.51451,0.12685
6431.44298,0.09647
6433.37145,0.12738
6435.29992,0.15376
6437.22838,0.10775
6439.15685,0.04899
6441.08532,0.02370
6443.01379,0.03599
6444.94226,0.11303
6446.87073,0.18383
6448.79920,0.17597
6450.72766,0.10739
6452.65613,0.04832
6454.58460,0.04324
6456.51307,0.07282
6458.44154,0.08208
6460.37001,0.03811
6462.29848,-0.00464
6464.22695,0.00614
6466.15541,0.02556
6468.08388,0.03034
6470.01235,0.04604
6471.94082,0.04359
6473.86929,0.02607
6475.79776,0.06627
6477.72623,0.13469
6479.65469,0.16390
6481.58316,0.14567
6483.51163,0.08621
6485.44010,0.05098
6487.36857,0.07949
6489.29704,0.15902
6491.22551,0.24159
6493.15398,0.24886
6495.08244,0.19680
6497.01091,0.14208
6498.93938,0.09125
6500.86785,0.08173
6502.79632,0.12666
6504.72479,0.14712
6506.65326,0.12853
6508.58172,0.11794
6510.51019,0.10995
6512.43866,0.10536
6514.36713,0.12803
6516.29560,0.14254
6518.22407,0.10655
6520.15254,0.04915
6522.08101,0.01796
6524.00947,0.01249
6525.93794,0.00493
6527.86641,0.01918
6529.79488,0.09449
6531.72335,0.18393
6533.65182,0.22208
6535.58029,0.21070
6537.50875,0.15831
6539.43722,0.08576
6541.36569,0.06002
6543.29416,0.08268
6545.22263,0.07209
6547.15110,0.02419
6549.07957,-0.00066
6551.00804,0.01915
6552.93650,0.06776
6554.86497,0.11366
6556.79344,0.13771
6558.72191,0.17726
6560.65038,0.20216
6562.57885,0.13856
6564.50732,0.04146
6566.43578,0.01352
6568.36425,0.06233
6570.29272,0.11349
6572.22119,0.12671
6574.14966,0.14280
6576.07813,0.14097
6578.00660,0.08150
6579.93507,0.04107
6581.86353,0.04818
6583.79200,0.04446
6585.72047,0.05811
6587.64894,0.09644
6589.57741,0.11540
6591.50588,0.13049
6593.43435,0.15007
6595.36281,0.15729
6597.29128,0.11847
6599.21975,0.00566
6601.14822,-0.06296
6603.07669,0.00082
6605.00516,0.06647
6606.93363,0.08181
6608.86210,0.05651
6610.79056,0.01121
6612.71903,0.05764
6614.64750,0.19286
6616.57597,0.24747
6618.50444,0.17896
6620.43291,0.10098
6622.36138,0.03941
6624.28984,0.02632
6626.21831,0.09584
6628.14678,0.14119
6630.07525,0.08368
6632.00372,0.00198
6633.93219,-0.02185
6635.86066,0.00919
6637.78912,0.02440
6639.71759,0.01105
6641.64606,0.04625
6643.57453,0.12817
6645.50300,0.15132
6647.43147,0.12375
6649.35994,0.11228
6651.28841,0.09570
6653.21687,0.07621
6655.14534,0.08569
6657.07381,0.09222
6659.00228,0.05333
6660.93075,0.01813
6662.85922,0.02100
6664.78769,0.06145
6666.71615,0.12341
6668.64462,0.18657
6670.57309,0.23535
6672.50156,0.20441
6674.43003,0.08882
6676.35850,0.00960
6678.28697,0.03227
6680.21544,0.10513
6682.14390,0.17903
6684.07237,0.20643
6686.00084,0.13689
6687.92931,0.05004
6689.85778,0.06591
6691.78625,0.16358
6693.71472,0.25317
6695.64318,0.24753
6697.57165,0.11847
6699.50012,0.02096
6701.42859,0.04974
6703.35706,0.09920
6705.28553,0.08929
6707.21400,0.04910
6709.14247,0.05847
6711.07093,0.07958
6712.99940,0.01060
6714.92787,-0.07900
6716.85634,-0.07204
6718.78481,-0.00355
6720.71328,0.03997
6722.64175,0.02267
6724.57021,-0.00360
6726.49868,0.03383
6728.42715,0.06720
6730.35562,0.03953
6732.28409,0.07796
6734.21256,0.21459
6736.14103,0.28068
6738.06950,0.25097
6739.99796,0.24218
6741.92643,0.22849
6743.85490,0.15966
6745.78337,0.11388
6747.71184,0.11312
6749.64031,0.10813
6751.56878,0.09118
6753.49724,0.07331
6755.42571,0.03237
6757.35418,-0.02087
6759.28265,-0.04626
6761.21112,-0.04398
6763.13959,-0.04574
6765.06806,-0.04766
6766.99653,-0.02299
6768.92499,0.01559
6770.85346,0.05479
6772.78193,0.09631
6774.71040,0.11410
6776.63887,0.09044
6778.56734,0.06991
6780.49581,0.07840
6782.42427,0.07386
6784.35274,0.07500
6786.28121,0.10614
6788.20968,0.08939
6790.13815,0.04135
6792.06662,0.03819
6793.99509,0.01847
6795.92355,-0.02965
6797.85202,-0.04400
6799.78049,-0.01298
6801.70896,0.06499
6803.63743,0.12849
6805.56590,0.11077
6807.49437,0.06102
6809.42284,0.01566
6811.35130,-0.00669
6813.27977,0.03095
6815.20824,0.12281
6817.13671,0.19737
6819.06518,0.19915
6820.99365,0.16988
6822.92212,0.09137
6824.85058,-0.03912
6826.77905,-0.07626
6828.70752,-0.02668
6830.63599,-0.03976
6832.56446,-0.07390
6834.49293,-0.06556
6836.42140,-0.07533
6838.34987,-0.07060
6840.27833,-0.03642
6842.20680,-0.01545
6844.13527,-0.01874
6846.06374,-0.08017
6847.99221,-0.13317
6849.92068,-0.08987
6851.84915,-0.03744
6853.77761,0.02055
6855.70608,0.07664
6857.63455,0.02756
6859.56302,-0.00905
6861.49149,0.11258
6863.41996,0.26337
6865.34843,0.28626
6867.27690,0.24596
6869.20536,0.25007
6871.13383,0.22051
6873.06230,0.09120
6874.99077,0.02865
6876.91924,0.05049
6878.84771,0.03681
6880.77618,0.01608
6882.70464,0.03588
6884.63311,0.04111
6886.56158,-0.01986
6888.49005,-0.11623
6890.41852,-0.14061
6892.34699,-0.05955
6894.27546,0.04795
6896.20393,0.13154
6898.13239,0.15368
6900.06086,0.09524
6901.98933,0.06498
6903.91780,0.14113
6905.84627,0.17365
6907.77474,0.11013
6909.70321,0.12244
6911.63167,0.16509
6913.56014,0.13229
6915.48861,0.10106
6917.41708,0.09286
6919.34555,0.07811
6921.27402,0.06490
6923.20249,0.04132
6925.13096,0.02986
6927.05942,0.03696
6928.98789,0.09089
6930.91636,0.16893
6932.84483,0.11964
6934.77330,-0.02059
6936.70177,-0.10017
6938.63024,-0.02783
6940.55870,0.19940
6942.48717,0.32694
6944.41564,0.22341
6946.34411,0.06888
6948.27258,0.08914
6950.20105,0.20043
6952.12952,0.19681
6954.05799,0.08044
6955.98645,-0.02941
6957.91492,-0.08491
6959.84339,-0.07851
6961.77186,0.03112
6963.70033,0.18266
6965.62880,0.25196
6967.55727,0.18440
6969.48573,0.09743
6971.41420,0.08700
6973.34267,0.00714
6975.27114,-0.13537
6977.19961,-0.12118
6979.12808,-0.01817
6981.05655,0.00508
6982.98501,-0.00490
6984.91348,0.04026
6986.84195,0.07998
6988.77042,0.08899
6990.69889,0.07104
6992.62736,0.04796
6994.55583,0.08203
6996.48430,0.09778
6998.41276,-0.04686
7000.34123,-0.17606
7002.26970,-0.06575
7004.19817,0.14578
7006.12664,0.25609
7008.05511,0.18801
7009.98358,0.03908
7011.91204,-0.06345
7013.84051,-0.04075
7015.76898,0.07195
7017.69745,0.11139
7019.62592,0.05399
7021.55439,0.00310
7023.48286,-0.03380
7025.41133,-0.09082
7027.33979,-0.08670
7029.26826,0.03458
7031.19673,0.08085
7033.12520,-0.00839
7035.05367,-0.05582
7036.98214,-0.02600
7038.91061,-0.02116
7040.83907,-0.00355
7042.76754,0.09003
7044.69601,0.20856
7046.62448,0.25331
7048.55295,0.16489
7050.48142,0.06081
7052.40989,0.07001
7054.33836,0.11360
7056.26682,0.06064
7058.19529,-0.00005
7060.12376,0.04069
7062.05223,0.09615
7063.98070,0.11698
7065.90917,0.08840
7067.83764,0.01785
7069.76610,-0.06534
7071.69457,-0.12960
7073.62304,-0.07673
7075.55151,0.06148
7077.47998,0.17647
7079.40845,0.19744
7081.33692,0.11946
7083.26539,0.11972
7085.19385,0.16429
7087.12232,0.08528
7089.05079,-0.02638
7090.97926,-0.01210
7092.90773,0.07147
7094.83620,0.12122
7096.76467,0.11608
7098.69313,0.04880
7100.62160,0.00928
7102.55007,0.06679
7104.47854,0.09513
7106.40701,0.03555
7108.33548,0.03051
7110.26395,0.09655
7112.19242,0.11367
7114.12088,0.12346
7116.04935,0.19476
7117.97782,0.19460
7119.90629,0.13992
7121.83476,0.17313
7123.76323,0.23097
7125.69170,0.21800
7127.62016,0.09788
7129.54863,-0.03877
7131.47710,-0.09775
7133.40557,-0.05125
7135.33404,-0.02326
7137.26251,-0.14973
7139.19098,-0.27043
7141.11944,-0.13642
7143.04791,0.12209
7144.97638,0.23022
7146.90485,0.10316
7148.83332,-0.08710
7150.76179,-0.18152
7152.69026,-0.11783
7154.61873,0.01980
7156.54719,0.00394
7158.47566,-0.05154
7160.40413,0.01851
7162.33260,0.06082
7164.26107,-0.02607
7166.18954,-0.09076
7168.11801,-0.05047
7170.04647,-0.03273
7171.97494,-0.00545
7173.90341,0.09756
7175.83188,0.13452
7177.76035,0.04468
7179.68882,0.02011
7181.61729,0.15194
7183.54576,0.18024
7185.47422,0.06886
7187.40269,0.02207
7189.33116,-0.04795
7191.25963,-0.08755
7193.18810,0.02018
7195.11657,0.09324
7197.04504,0.08346
7198.97350,0.03100
7200.90197,-0.03650
7202.83044,0.01438
7204.75891,0.24523
7206.68738,0.38986
7208.61585,0.33647
7210.54432,0.19193
7212.47279,0.06631
7214.40125,0.07200
7216.32972,0.27396
7218.25819,0.53146
7220.18666,0.50896
7222.11513,0.37191
7224.04360,0.36440
7225.97207,0.42243
7227.90053,0.36940
7229.82900,0.16680
7231.75747,-0.00515
7233.68594,-0.00742
7235.61441,0.00814
7237.54288,0.03687
7239.47135,0.12297
7241.39982,0.16034
7243.32828,0.08603
7245.25675,0.03853
7247.18522,0.02948
7249.11369,0.01585
7251.04216,0.09400
7252.97063,0.18857
7254.89910,0.07285
7256.82756,-0.04972
7258.75603,-0.03307
7260.68450,0.08926
7262.61297,0.06488
7264.54144,-0.07466
7266.46991,-0.01483
7268.39838,0.13034
7270.32685,0.14485
7272.25531,0.06861
7274.18378,0.05491
7276.11225,0.05075
7278.04072,0.01405
7279.96919,-0.05579
7281.89766,-0.05811
7283.82613,0.06995
7285.75459,0.14563
7287.68306,0.08037
7289.61153,-0.01091
7291.54000,-0.04481
7293.46847,-0.01704
7295.39694,0.02775
7297.32541,0.01748
7299.25387,-0.01294
7301.18234,-0.04319
7303.11081,-0.11087
7305.03928,-0.07242
7306.96775,0.21655
7308.89622,0.48399
7310.82469,0.33191
7312.75316,0.04925
7314.68162,-0.01317
7316.61009,0.04124
7318.53856,-0.01590
7320.46703,-0.05745
7322.39550,0.04881
7324.32397,0.28141
7326.25244,0.48274
7328.18090,0.48062
7330.10937,0.30831
7332.03784,0.22158
7333.96631,0.23346
7335.89478,0.22269
7337.82325,0.14076
7339.75172,0.06594
7341.68019,0.20348
7343.60865,0.45033
7345.53712,0.53646
7347.46559,0.37428
7349.39406,0.19975
7351.32253,0.06120
7353.25100,-0.06504
7355.17947,-0.08495
7357.10793,-0.03402
7359.03640,-0.04088
7360.96487,-0.10498
7362.89334,-0.07932
7364.82181,0.05792
7366.75028,0.21137
7368.67875,0.29771
7370.60722,0.24502
7372.53568,0.08842
7374.46415,-0.00123
7376.39262,0.14583
7378.32109,0.20429
7380.24956,0.06078
7382.17803,-0.11643
7384.10650,-0.19487
7386.03496,-0.06247
7387.96343,0.24243
7389.89190,0.39267
7391.82037,0.26963
7393.74884,0.10904
7395.67731,0.02586
7397.60578,-0.04514
7399.53425,-0.00211
7401.46271,0.05591
7403.39118,-0.03142
7405.31965,-0.15020
7407.24812,-0.10361
7409.17659,0.07040
7411.10506,0.11884
7413.03353,0.00395
7414.96199,-0.10510
7416.89046,-0.19007
7418.81893,-0.26256
7420.74740,-0.16570
7422.67587,0.06114
7424.60434,0.19298
7426.53281,0.16215
7428.46128,0.07595
7430.38974,0.06783
7432.31821,0.14103
7434.24668,0.22697
7436.17515,0.23751
7438.10362,0.16363
7440.03209,0.14239
7441.96056,0.06969
7443.88902,-0.06623
7445.81749,-0.05370
7447.74596,0.03147
7449.67443,0.04147
7451.60290,0.04643
7453.53137,0.11958
7455.45984,0.15526
7457.38831,0.04891
7459.31677,-0.12454
7461.24524,-0.09391
7463.17371,0.11070
7465.10218,0.22974
7467.03065,0.20732
7468.95912,0.22322
7470.88759,0.21667
7472.81605,-0.06021
7474.74452,-0.29313
7476.67299,-0.14846
7478.60146,0.16209
7480.52993,0.34228
7482.45840,0.41896
7484.38687,0.41525
7486.31533,0.25850
7488.24380,0.02845
7490.17227,-0.06556
7492.10074,0.01491
7494.02921,0.13156
7495.95768,0.16975
7497.88615,0.15779
