399.19301,0.49139
401.12148,0.06587
403.04995,0.23927
404.97842,0.35491
406.90689,0.37833
408.83536,0.33588
410.76382,0.35271
412.69229,0.25552
414.62076,0.07613
416.54923,0.05849
418.47770,0.16546
420.40617,0.10405
422.33464,-0.11122
424.26311,-0.19811
426.19157,-0.04562
428.12004,0.12294
430.04851,0.15307
431.97698,0.10863
433.90545,0.13526
435.83392,0.22197
437.76239,0.22128
439.69085,0.13296
441.61932,0.11829
443.54779,0.14753
445.47626,0.10521
447.40473,0.07704
449.33320,0.09551
451.26167,0.11904
453.19013,0.10610
455.11860,0.08226
457.04707,0.12150
458.97554,0.16390
460.90401,0.13733
462.83248,0.09206
464.76095,0.03456
466.68942,-0.00207
468.61788,0.02943
470.54635,0.13030
472.47482,0.27915
474.40329,0.31130
476.33176,0.24978
478.26023,0.24558
480.18870,0.24262
482.11716,0.20048
484.04563,0.12281
485.97410,0.09019
487.90257,0.10114
489.83104,0.03488
491.75951,-0.04590
493.68798,-0.01664
495.61645,0.07576
497.54491,0.15657
499.47338,0.14750
501.40185,0.05680
503.33032,0.03960
505.25879,0.11102
507.18726,0.15934
509.11573,0.16926
511.04419,0.17542
512.97266,0.18538
514.90113,0.17223
516.82960,0.12875
518.75807,0.08425
520.68654,0.05241
522.61501,0.06288
524.54348,0.10242
526.47194,0.13194
528.40041,0.13938
530.32888,0.10491
532.25735,0.09076
534.18582,0.12602
536.11429,0.13283
538.04276,0.11043
539.97122,0.09685
541.89969,0.08008
543.82816,0.06675
545.75663,0.07388
547.68510,0.10286
549.61357,0.04823
551.54204,-0.27093
553.47051,-0.60258
555.39897,-0.45994
557.32744,-0.01533
559.25591,0.20370
561.18438,0.18788
563.11285,0.15967
565.04132,0.13441
566.96979,0.07886
568.89825,0.05220
570.82672,0.06322
572.75519,0.06207
574.68366,0.05048
576.61213,0.04199
578.54060,0.05007
580.46907,0.06980
582.39754,0.08738
584.32600,0.10226
586.25447,0.09352
588.18294,0.07786
590.11141,0.09164
592.03988,0.12196
593.96835,0.14943
595.89682,0.14888
597.82528,0.11777
599.75375,0.10893
601.68222,0.13087
603.61069,0.14548
605.53916,0.14214
607.46763,0.13972
609.39610,0.15944
611.32456,0.17698
613.25303,0.16465
615.18150,0.13464
617.10997,0.10764
619.03844,0.10913
620.96691,0.12803
622.89538,0.12779
624.82385,0.12223
626.75231,0.12922
628.68078,0.15245
630.60925,0.18978
632.53772,0.18965
634.46619,0.15386
636.39466,0.14943
638.32313,0.16838
640.25159,0.17051
642.18006,0.14052
644.10853,0.10812
646.03700,0.11155
647.96547,0.13026
649.89394,0.13602
651.82241,0.13593
653.75088,0.14683
655.67934,0.16072
657.60781,0.15142
659.53628,0.13782
661.46475,0.14741
663.39322,0.16417
665.32169,0.17448
667.25016,0.17711
669.17862,0.16067
671.10709,0.13754
673.03556,0.12083
674.96403,0.11222
676.89250,0.11292
678.82097,0.11929
680.74944,0.13495
682.67791,0.14324
684.60637,0.12551
686.53484,0.11007
688.46331,0.11887
690.39178,0.13127
692.32025,0.13468
694.24872,0.13782
696.17719,0.14118
698.10565,0.14453
700.03412,0.15004
701.96259,0.14171
703.89106,0.12723
705.81953,0.13415
707.74800,0.14409
709.67647,0.13240
711.60494,0.11523
713.53340,0.11685
715.46187,0.13765
717.39034,0.14878
719.31881,0.13771
721.24728,0.12565
723.17575,0.12105
725.10422,0.11449
727.03268,0.10627
728.96115,0.10761
730.88962,0.12150
732.81809,0.13642
734.74656,0.14650
736.67503,0.15126
738.60350,0.14388
740.53197,0.13197
742.46043,0.13287
744.38890,0.14555
746.31737,0.15427
748.24584,0.13921
750.17431,0.11275
752.10278,0.10637
754.03125,0.11583
755.95971,0.13089
757.88818,0.14524
759.81665,0.15347
761.74512,0.16260
763.67359,0.15851
765.60206,0.14064
767.53053,0.14224
769.45900,0.15942
771.38746,0.16038
773.31593,0.14181
775.24440,0.12439
777.17287,0.12515
779.10134,0.13805
781.02981,0.14963
782.95828,0.15418
784.88674,0.15244
786.81521,0.15293
788.74368,0.15287
790.67215,0.14995
792.60062,0.14713
794.52909,0.13781
796.45756,0.13627
798.38602,0.15021
800.31449,0.15044
802.24296,0.12826
804.17143,0.11362
806.09990,0.12480
808.02837,0.13983
809.95684,0.13825
811.88531,0.13298
813.81377,0.13625
815.74224,0.15225
817.67071,0.16911
819.59918,0.15928
821.52765,0.13950
823.45612,0.13432
825.38459,0.12454
827.31305,0.11304
829.24152,0.11497
831.16999,0.12153
833.09846,0.13209
835.02693,0.14756
836.95540,0.16168
838.88387,0.16013
840.81234,0.14101
842.74080,0.13344
844.66927,0.14919
846.59774,0.16292
848.52621,0.15888
850.45468,0.14904
852.38315,0.14580
854.31162,0.14520
856.24008,0.14680
858.16855,0.15271
860.09702,0.15403
862.02549,0.15212
863.95396,0.15218
865.88243,0.14948
867.81090,0.14662
869.73937,0.14412
871.66783,0.14053
873.59630,0.13926
875.52477,0.13647
877.45324,0.13217
879.38171,0.12944
881.31018,0.12804
883.23865,0.12995
885.16711,0.13019
887.09558,0.13256
889.02405,0.14624
890.95252,0.15466
892.88099,0.15083
894.80946,0.15040
896.73793,0.15379
898.66640,0.15309
900.59486,0.15057
902.52333,0.15348
904.45180,0.15591
906.38027,0.14733
908.30874,0.14096
910.23721,0.14467
912.16568,0.14691
914.09414,0.14818
916.02261,0.15151
917.95108,0.15240
919.87955,0.14971
921.80802,0.14527
923.73649,0.14368
925.66496,0.14348
927.59343,0.13982
929.52189,0.13630
931.45036,0.13775
933.37883,0.14369
935.30730,0.14482
937.23577,0.13953
939.16424,0.13915
941.09271,0.14421
943.02117,0.15082
944.94964,0.15227
946.87811,0.14467
948.80658,0.14109
950.73505,0.14499
952.66352,0.14943
954.59199,0.15092
956.52045,0.14581
958.44892,0.14291
960.37739,0.15091
962.30586,0.15907
964.23433,0.16127
966.16280,0.16013
968.09127,0.15530
970.01974,0.15087
971.94820,0.14635
973.87667,0.14244
975.80514,0.14666
977.73361,0.15548
979.66208,0.15820
981.59055,0.14903
983.51902,0.13799
985.44748,0.13648
987.37595,0.13993
989.30442,0.14748
991.23289,0.15661
993.16136,0.16145
995.08983,0.16467
997.01830,0.16032
998.94677,0.15453
1000.87523,0.16162
1002.80370,0.16661
1004.73217,0.16231
1006.66064,0.16060
1008.58911,0.16076
1010.51758,0.15872
1012.44605,0.15242
1014.37451,0.14759
1016.30298,0.14971
1018.23145,0.15132
1020.15992,0.15370
1022.08839,0.15760
1024.01686,0.15576
1025.94533,0.16104
1027.87380,0.18440
1029.80226,0.19914
1031.73073,0.18188
1033.65920,0.15546
1035.58767,0.14471
1037.51614,0.14594
1039.44461,0.15186
1041.37308,0.15502
1043.30154,0.15048
1045.23001,0.14951
1047.15848,0.15520
1049.08695,0.15858
1051.01542,0.15918
1052.94389,0.15711
1054.87236,0.16150
1056.80083,0.17495
1058.72929,0.17483
1060.65776,0.16135
1062.58623,0.15775
1064.51470,0.16799
1066.44317,0.17656
1068.37164,0.17132
1070.30011,0.16595
1072.22857,0.17282
1074.15704,0.18047
1076.08551,0.18515
1078.01398,0.18344
1079.94245,0.17154
1081.87092,0.16418
1083.79939,0.16739
1085.72786,0.16829
1087.65632,0.15557
1089.58479,0.14358
1091.51326,0.15040
1093.44173,0.15943
1095.37020,0.15964
1097.29867,0.16314
1099.22714,0.16628
1101.15560,0.15917
1103.08407,0.14985
1105.01254,0.15511
1106.94101,0.17265
1108.86948,0.17968
1110.79795,0.17320
1112.72642,0.16546
1114.65489,0.15817
1116.58335,0.15614
1118.51182,0.15852
1120.44029,0.15827
1122.36876,0.15784
1124.29723,0.15568
1126.22570,0.15135
1128.15417,0.15129
1130.08263,0.15518
1132.01110,0.15772
1133.93957,0.15423
1135.86804,0.14948
1137.79651,0.14961
1139.72498,0.14992
1141.65345,0.15226
1143.58191,0.15777
1145.51038,0.16037
1147.43885,0.16171
1149.36732,0.16271
1151.29579,0.16291
1153.22426,0.16440
1155.15273,0.16951
1157.08120,0.17872
1159.00966,0.18179
1160.93813,0.17455
1162.86660,0.16796
1164.79507,0.16491
1166.72354,0.16338
1168.65201,0.16283
1170.58048,0.15945
1172.50894,0.15884
1174.43741,0.16681
1176.36588,0.17435
1178.29435,0.17365
1180.22282,0.16773
1182.15129,0.16535
1184.07976,0.16821
1186.00823,0.16782
1187.93669,0.16569
1189.86516,0.16889
1191.79363,0.17066
1193.72210,0.16528
1195.65057,0.16047
1197.57904,0.16235
1199.50751,0.16474
1201.43597,0.16290
1203.36444,0.16297
1205.29291,0.16706
1207.22138,0.17080
1209.14985,0.17044
1211.07832,0.16603
1213.00679,0.16399
1214.93526,0.16654
1216.86372,0.17060
1218.79219,0.17375
1220.72066,0.17225
1222.64913,0.16890
1224.57760,0.16919
1226.50607,0.16946
1228.43454,0.16792
1230.36300,0.16992
1232.29147,0.17466
1234.21994,0.17280
1236.14841,0.16479
1238.07688,0.16136
1240.00535,0.16122
1241.93382,0.15947
1243.86229,0.15929
1245.79075,0.15928
1247.71922,0.15790
1249.64769,0.15780
1251.57616,0.15899
1253.50463,0.16163
1255.43310,0.16507
1257.36157,0.16583
1259.29003,0.16264
1261.21850,0.15793
1263.14697,0.15679
1265.07544,0.16010
1267.00391,0.16117
1268.93238,0.16092
1270.86085,0.16593
1272.78932,0.17172
1274.71778,0.16969
1276.64625,0.16330
1278.57472,0.16311
1280.50319,0.16567
1282.43166,0.16436
1284.36013,0.16616
1286.28860,0.16992
1288.21706,0.17086
1290.14553,0.17355
1292.07400,0.17339
1294.00247,0.16638
1295.93094,0.15934
1297.85941,0.15440
1299.78788,0.14815
1301.71634,0.13391
1303.64481,0.11727
1305.57328,0.12215
1307.50175,0.14996
1309.43022,0.17201
1311.35869,0.17774
1313.28716,0.18045
1315.21563,0.18191
1317.14409,0.17665
1319.07256,0.16860
1321.00103,0.16186
1322.92950,0.16088
1324.85797,0.16580
1326.78644,0.16925
1328.71491,0.16836
1330.64337,0.15993
1332.57184,0.15082
1334.50031,0.15518
1336.42878,0.16539
1338.35725,0.17099
1340.28572,0.16870
1342.21419,0.16095
1344.14266,0.15960
1346.07112,0.16155
1347.99959,0.16280
1349.92806,0.16809
1351.85653,0.17053
1353.78500,0.16598
1355.71347,0.16253
1357.64194,0.16480
1359.57040,0.17189
1361.49887,0.17899
1363.42734,0.17711
1365.35581,0.17154
1367.28428,0.17244
1369.21275,0.17711
1371.14122,0.18016
1373.06969,0.17971
1374.99815,0.17822
1376.92662,0.17983
1378.85509,0.18188
1380.78356,0.18088
1382.71203,0.17939
1384.64050,0.18249
1386.56897,0.18859
1388.49743,0.18984
1390.42590,0.18806
1392.35437,0.18849
1394.28284,0.18819
1396.21131,0.18577
1398.13978,0.18119
1400.06825,0.17468
1401.99672,0.17463
1403.92518,0.18227
1405.85365,0.18827
1407.78212,0.18574
1409.71059,0.18095
1411.63906,0.18234
1413.56753,0.18739
1415.49600,0.19065
1417.42446,0.19245
1419.35293,0.19027
1421.28140,0.18537
1423.20987,0.18257
1425.13834,0.18108
1427.06681,0.18231
1428.99528,0.18835
1430.92375,0.19486
1432.85221,0.19499
1434.78068,0.19167
1436.70915,0.19005
1438.63762,0.18900
1440.56609,0.18882
1442.49456,0.19005
1444.42303,0.19155
1446.35149,0.19481
1448.27996,0.19693
1450.20843,0.19536
1452.13690,0.19431
1454.06537,0.19754
1455.99384,0.20958
1457.92231,0.21577
1459.85077,0.20534
1461.77924,0.20217
1463.70771,0.20514
1465.63618,0.20238
1467.56465,0.19490
1469.49312,0.19368
1471.42159,0.20263
1473.35006,0.21070
1475.27852,0.20492
1477.20699,0.19671
1479.13546,0.19178
1481.06393,0.19002
1482.99240,0.19075
1484.92087,0.19668
1486.84934,0.21047
1488.77780,0.21940
1490.70627,0.20772
1492.63474,0.19565
1494.56321,0.19711
1496.49168,0.20576
1498.42015,0.20441
1500.34862,0.19871
1502.27709,0.21269
1504.20555,0.24684
1506.13402,0.27414
1508.06249,0.24523
1509.99096,0.21527
1511.91943,0.20683
1513.84790,0.21046
1515.77637,0.21849
1517.70483,0.21894
1519.63330,0.21693
1521.56177,0.22180
1523.49024,0.22090
1525.41871,0.21220
1527.34718,0.20260
1529.27565,0.19756
1531.20412,0.19915
1533.13258,0.20009
1535.06105,0.19657
1536.98952,0.20398
1538.91799,0.23455
1540.84646,0.26750
1542.77493,0.25425
1544.70340,0.22372
1546.63186,0.20361
1548.56033,0.20105
1550.48880,0.20336
1552.41727,0.20275
1554.34574,0.20435
1556.27421,0.21249
1558.20268,0.22632
1560.13115,0.21094
1562.05961,0.19161
1563.98808,0.18786
1565.91655,0.18913
1567.84502,0.19279
1569.77349,0.19490
1571.70196,0.19105
1573.63043,0.19207
1575.55889,0.19512
1577.48736,0.18625
1579.41583,0.17728
1581.34430,0.17757
1583.27277,0.18245
1585.20124,0.18441
1587.12971,0.18336
1589.05818,0.18359
1590.98664,0.18523
1592.91511,0.18642
1594.84358,0.18359
1596.77205,0.17818
1598.70052,0.17686
1600.62899,0.17861
1602.55746,0.18087
1604.48592,0.18319
1606.41439,0.18283
1608.34286,0.18233
1610.27133,0.18626
1612.19980,0.19223
1614.12827,0.19862
1616.05674,0.20362
1617.98521,0.19962
1619.91367,0.19529
1621.84214,0.19882
1623.77061,0.20325
1625.69908,0.20195
1627.62755,0.20038
1629.55602,0.19969
1631.48449,0.19902
1633.41295,0.20490
1635.34142,0.22068
1637.26989,0.22142
1639.19836,0.20656
1641.12683,0.19764
1643.05530,0.20178
1644.98377,0.21961
1646.91223,0.23680
1648.84070,0.23425
1650.76917,0.23474
1652.69764,0.24055
1654.62611,0.21936
1656.55458,0.20038
1658.48305,0.19329
1660.41152,0.18863
1662.33998,0.18650
1664.26845,0.19352
1666.19692,0.20544
1668.12539,0.21880
1670.05386,0.22788
1671.98233,0.22238
1673.91080,0.21477
1675.83926,0.20990
1677.76773,0.20334
1679.69620,0.20168
1681.62467,0.21575
1683.55314,0.24286
1685.48161,0.24114
1687.41008,0.22326
1689.33855,0.21775
1691.26701,0.21553
1693.19548,0.21203
1695.12395,0.21406
1697.05242,0.22139
1698.98089,0.22498
1700.90936,0.22306
1702.83783,0.21897
1704.76629,0.21762
1706.69476,0.21222
1708.62323,0.20164
1710.55170,0.19703
1712.48017,0.20105
1714.40864,0.21160
1716.33711,0.22143
1718.26558,0.21177
1720.19404,0.19547
1722.12251,0.18869
1724.05098,0.18898
1725.97945,0.19334
1727.90792,0.19974
1729.83639,0.20739
1731.76486,0.21396
1733.69332,0.21205
1735.62179,0.20348
1737.55026,0.20166
1739.47873,0.20281
1741.40720,0.20072
1743.33567,0.19871
1745.26414,0.20276
1747.19261,0.21101
1749.12107,0.21647
1751.04954,0.21362
1752.97801,0.20531
1754.90648,0.19895
1756.83495,0.19574
1758.76342,0.19494
1760.69189,0.19770
1762.62035,0.19725
1764.54882,0.19066
1766.47729,0.18885
1768.40576,0.19681
1770.33423,0.21106
1772.26270,0.21918
1774.19117,0.20989
1776.11964,0.19889
1778.04810,0.19464
1779.97657,0.19447
1781.90504,0.19708
1783.83351,0.19861
1785.76198,0.19472
1787.69045,0.19156
1789.61892,0.19685
1791.54738,0.20651
1793.47585,0.20622
1795.40432,0.19854
1797.33279,0.19527
1799.26126,0.19469
1801.18973,0.19130
1803.11820,0.18720
1805.04666,0.18532
1806.97513,0.18461
1808.90360,0.18497
1810.83207,0.18755
1812.76054,0.19103
1814.68901,0.19380
1816.61748,0.19556
1818.54595,0.19451
1820.47441,0.19161
1822.40288,0.19199
1824.33135,0.19434
1826.25982,0.19472
1828.18829,0.19764
1830.11676,0.20104
1832.04523,0.19887
1833.97369,0.19580
1835.90216,0.19397
1837.83063,0.19206
1839.75910,0.19163
1841.68757,0.19680
1843.61604,0.20349
1845.54451,0.19999
1847.47298,0.19338
1849.40144,0.19027
1851.32991,0.18771
1853.25838,0.18693
1855.18685,0.18711
1857.11532,0.18570
1859.04379,0.18378
1860.97226,0.18300
1862.90072,0.18594
1864.82919,0.19358
1866.75766,0.20276
1868.68613,0.20557
1870.61460,0.19741
1872.54307,0.18793
1874.47154,0.18459
1876.40001,0.18759
1878.32847,0.19240
1880.25694,0.19444
1882.18541,0.19518
1884.11388,0.19617
1886.04235,0.19503
1887.97082,0.19313
1889.89929,0.19092
1891.82775,0.18897
1893.75622,0.19104
1895.68469,0.19236
1897.61316,0.18969
1899.54163,0.18858
1901.47010,0.18981
1903.39857,0.19119
1905.32704,0.19191
1907.25550,0.19209
1909.18397,0.19219
1911.11244,0.19129
1913.04091,0.19164
1914.96938,0.19449
1916.89785,0.19565
1918.82632,0.19411
1920.75478,0.19299
1922.68325,0.19248
1924.61172,0.19119
1926.54019,0.18924
1928.46866,0.18858
1930.39713,0.18978
1932.32560,0.19168
1934.25407,0.19177
1936.18253,0.18871
1938.11100,0.18686
1940.03947,0.18855
1941.96794,0.19129
1943.89641,0.19240
1945.82488,0.19005
1947.75335,0.18789
1949.68181,0.18838
1951.61028,0.18779
1953.53875,0.18741
1955.46722,0.19021
1957.39569,0.19269
1959.32416,0.19266
1961.25263,0.19156
1963.18110,0.19094
1965.10956,0.19253
1967.03803,0.19557
1968.96650,0.19627
1970.89497,0.19467
1972.82344,0.19486
1974.75191,0.19746
1976.68038,0.19778
1978.60884,0.19446
1980.53731,0.19137
1982.46578,0.19016
1984.39425,0.19073
1986.32272,0.19137
1988.25119,0.19071
1990.17966,0.19127
1992.10812,0.19249
1994.03659,0.19201
1995.96506,0.19081
1997.89353,0.18892
1999.82200,0.18770
2001.75047,0.18943
2003.67894,0.19152
2005.60741,0.18982
2007.53587,0.18539
2009.46434,0.18416
2011.39281,0.18796
2013.32128,0.19193
2015.24975,0.19283
2017.17822,0.19104
2019.10669,0.18986
2021.03515,0.19133
2022.96362,0.19215
2024.89209,0.19008
2026.82056,0.18688
2028.74903,0.18668
2030.67750,0.19032
2032.60597,0.19240
2034.53444,0.19096
2036.46290,0.18961
2038.39137,0.19031
2040.31984,0.19234
2042.24831,0.19350
2044.17678,0.19345
2046.10525,0.19347
2048.03372,0.19269
2049.96218,0.19085
2051.89065,0.18945
2053.81912,0.18877
2055.74759,0.18884
2057.67606,0.18995
2059.60453,0.19078
2061.53300,0.18913
2063.46147,0.18713
2065.38993,0.18902
2067.31840,0.19190
2069.24687,0.19064
2071.17534,0.18743
2073.10381,0.18755
2075.03228,0.19259
2076.96075,0.19650
2078.88921,0.19312
2080.81768,0.18810
2082.74615,0.18756
2084.67462,0.18875
2086.60309,0.18944
2088.53156,0.19002
2090.46003,0.18997
2092.38850,0.18856
2094.31696,0.18828
2096.24543,0.19092
2098.17390,0.19137
2100.10237,0.18868
2102.03084,0.19038
2103.95931,0.19660
2105.88778,0.19946
2107.81624,0.19663
2109.74471,0.19257
2111.67318,0.19045
2113.60165,0.18939
2115.53012,0.18939
2117.45859,0.19045
2119.38706,0.19101
2121.31553,0.19145
2123.24399,0.19144
2125.17246,0.19131
2127.10093,0.19216
2129.02940,0.19206
2130.95787,0.19096
2132.88634,0.19120
2134.81481,0.19461
2136.74327,0.19913
2138.67174,0.19773
2140.60021,0.19172
2142.52868,0.18884
2144.45715,0.18744
2146.38562,0.18619
2148.31409,0.18851
2150.24255,0.19183
2152.17102,0.19225
2154.09949,0.19056
2156.02796,0.19087
2157.95643,0.19335
2159.88490,0.19339
2161.81337,0.19205
2163.74184,0.19259
2165.67030,0.19423
2167.59877,0.19506
2169.52724,0.19338
2171.45571,0.19159
2173.38418,0.19302
2175.31265,0.19451
2177.24112,0.19391
2179.16958,0.19199
2181.09805,0.18849
2183.02652,0.18682
2184.95499,0.18869
2186.88346,0.19182
2188.81193,0.19460
2190.74040,0.19525
2192.66887,0.19456
2194.59733,0.19387
2196.52580,0.19291
2198.45427,0.19246
2200.38274,0.19333
2202.31121,0.19462
2204.23968,0.19431
2206.16815,0.19406
2208.09661,0.19574
2210.02508,0.19559
2211.95355,0.19420
2213.88202,0.19508
2215.81049,0.19473
2217.73896,0.19203
2219.66743,0.18932
2221.59590,0.18677
2223.52436,0.18576
2225.45283,0.18691
2227.38130,0.18936
2229.30977,0.19082
2231.23824,0.18997
2233.16671,0.19035
2235.09518,0.19282
2237.02364,0.19433
2238.95211,0.19507
2240.88058,0.19544
2242.80905,0.19389
2244.73752,0.19203
2246.66599,0.19185
2248.59446,0.19258
2250.52293,0.19287
2252.45139,0.19208
2254.37986,0.19083
2256.30833,0.18992
2258.23680,0.19016
2260.16527,0.19124
2262.09374,0.19156
2264.02221,0.19080
2265.95067,0.18971
2267.87914,0.18962
2269.80761,0.19071
2271.73608,0.19182
2273.66455,0.19293
2275.59302,0.19386
2277.52149,0.19363
2279.44996,0.19193
2281.37842,0.18923
2283.30689,0.18823
2285.23536,0.19048
2287.16383,0.19332
2289.09230,0.19530
2291.02077,0.19730
2292.94924,0.19843
2294.87770,0.19682
2296.80617,0.19375
2298.73464,0.19183
2300.66311,0.19068
2302.59158,0.19000
2304.52005,0.19048
2306.44852,0.19108
2308.37699,0.19256
2310.30545,0.19655
2312.23392,0.20025
2314.16239,0.20177
2316.09086,0.19931
2318.01933,0.19310
2319.94780,0.19064
2321.87627,0.19062
2323.80473,0.18874
2325.73320,0.18985
2327.66167,0.19061
2329.59014,0.18596
2331.51861,0.18065
2333.44708,0.18180
2335.37555,0.19148
2337.30401,0.19997
2339.23248,0.19818
2341.16095,0.19810
2343.08942,0.20586
2345.01789,0.20820
2346.94636,0.20457
2348.87483,0.20416
2350.80330,0.20615
2352.73176,0.20462
2354.66023,0.20133
2356.58870,0.19797
2358.51717,0.19797
2360.44564,0.21042
2362.37411,0.21334
2364.30258,0.20884
2366.23104,0.21574
2368.15951,0.22172
2370.08798,0.21616
2372.01645,0.20054
2373.94492,0.18802
2375.87339,0.18730
2377.80186,0.18956
2379.73033,0.18968
2381.65879,0.18932
2383.58726,0.18837
2385.51573,0.18842
2387.44420,0.18961
2389.37267,0.18950
2391.30114,0.18882
2393.22961,0.19073
2395.15807,0.19523
2397.08654,0.19720
2399.01501,0.19441
2400.94348,0.19078
2402.87195,0.18974
2404.80042,0.19175
2406.72889,0.19517
2408.65736,0.19738
2410.58582,0.19655
2412.51429,0.19369
2414.44276,0.19240
2416.37123,0.19304
2418.29970,0.19296
2420.22817,0.19293
2422.15664,0.19353
2424.08510,0.19247
2426.01357,0.19107
2427.94204,0.19202
2429.87051,0.19432
2431.79898,0.19633
2433.72745,0.19677
2435.65592,0.19596
2437.58439,0.19502
2439.51285,0.19364
2441.44132,0.19335
2443.36979,0.19457
2445.29826,0.19554
2447.22673,0.19625
2449.15520,0.19543
2451.08367,0.19392
2453.01213,0.19398
2454.94060,0.19305
2456.86907,0.19139
2458.79754,0.19208
2460.72601,0.19363
2462.65448,0.19374
2464.58295,0.19288
2466.51142,0.19281
2468.43988,0.19251
2470.36835,0.19114
2472.29682,0.19123
2474.22529,0.19211
2476.15376,0.19225
2478.08223,0.19244
2480.01070,0.19149
2481.93916,0.18835
2483.86763,0.18550
2485.79610,0.18553
2487.72457,0.18739
2489.65304,0.18953
2491.58151,0.19180
2493.50998,0.19272
2495.43844,0.19159
2497.36691,0.18994
2499.29538,0.18994
2501.22385,0.19304
2503.15232,0.19568
2505.08079,0.19459
2507.00926,0.19316
2508.93773,0.19254
2510.86619,0.19086
2512.79466,0.18947
2514.72313,0.18948
2516.65160,0.19172
2518.58007,0.19586
2520.50854,0.19763
2522.43701,0.19561
2524.36547,0.19212
2526.29394,0.19096
2528.22241,0.19364
2530.15088,0.19464
2532.07935,0.19307
2534.00782,0.19253
2535.93629,0.19215
2537.86476,0.19275
2539.79322,0.19461
2541.72169,0.19516
2543.65016,0.19500
2545.57863,0.19551
2547.50710,0.19501
2549.43557,0.19220
2551.36404,0.18967
2553.29250,0.19016
2555.22097,0.19114
2557.14944,0.18967
2559.07791,0.18876
2561.00638,0.19117
2562.93485,0.19515
2564.86332,0.19610
2566.79179,0.19058
2568.72025,0.18441
2570.64872,0.18636
2572.57719,0.19334
2574.50566,0.19657
2576.43413,0.19540
2578.36260,0.19353
2580.29107,0.19184
2582.21953,0.19072
2584.14800,0.19001
2586.07647,0.18906
2588.00494,0.18824
2589.93341,0.18784
2591.86188,0.18981
2593.79035,0.19389
2595.71882,0.19529
2597.64728,0.19337
2599.57575,0.19174
2601.50422,0.19183
2603.43269,0.19282
2605.36116,0.19377
2607.28963,0.19357
2609.21810,0.18987
2611.14656,0.18502
2613.07503,0.18755
2615.00350,0.19681
2616.93197,0.20293
2618.86044,0.20434
2620.78891,0.20352
2622.71738,0.20036
2624.64585,0.19764
2626.57431,0.19723
2628.50278,0.19759
2630.43125,0.19764
2632.35972,0.19734
2634.28819,0.19871
2636.21666,0.20205
2638.14513,0.20307
2640.07359,0.20097
2642.00206,0.19892
2643.93053,0.19808
2645.85900,0.19735
2647.78747,0.19599
2649.71594,0.19666
2651.64441,0.20024
2653.57288,0.20250
2655.50134,0.20155
2657.42981,0.20052
2659.35828,0.20066
2661.28675,0.19918
2663.21522,0.19745
2665.14369,0.19856
2667.07216,0.19911
2669.00062,0.19662
2670.92909,0.19490
2672.85756,0.19672
2674.78603,0.19855
2676.71450,0.19706
2678.64297,0.19653
2680.57144,0.19891
2682.49990,0.19789
2684.42837,0.19348
2686.35684,0.19242
2688.28531,0.19511
2690.21378,0.19830
2692.14225,0.19952
2694.07072,0.19789
2695.99919,0.19544
2697.92765,0.19367
2699.85612,0.19194
2701.78459,0.18958
2703.71306,0.19001
2705.64153,0.19596
2707.57000,0.20108
2709.49847,0.20092
2711.42693,0.20000
2713.35540,0.20028
2715.28387,0.20047
2717.21234,0.20162
2719.14081,0.20317
2721.06928,0.20227
2722.99775,0.19974
2724.92622,0.20153
2726.85468,0.20717
2728.78315,0.20828
2730.71162,0.20375
2732.64009,0.19913
2734.56856,0.19876
2736.49703,0.20217
2738.42550,0.20356
2740.35396,0.20223
2742.28243,0.20140
2744.21090,0.20030
2746.13937,0.19889
2748.06784,0.19821
2749.99631,0.19766
2751.92478,0.19762
2753.85325,0.19831
2755.78171,0.19954
2757.71018,0.20183
2759.63865,0.20426
2761.56712,0.20518
2763.49559,0.20426
2765.42406,0.20375
2767.35253,0.20489
2769.28099,0.20541
2771.20946,0.20599
2773.13793,0.20728
2775.06640,0.20643
2776.99487,0.20507
2778.92334,0.20577
2780.85181,0.20641
2782.78028,0.20525
2784.70874,0.20391
2786.63721,0.20384
2788.56568,0.20388
2790.49415,0.20387
2792.42262,0.20352
2794.35109,0.20235
2796.27956,0.20244
2798.20802,0.20445
2800.13649,0.20681
2802.06496,0.20799
2803.99343,0.20768
2805.92190,0.20682
2807.85037,0.20607
2809.77884,0.20431
2811.70731,0.20323
2813.63577,0.20548
2815.56424,0.20782
2817.49271,0.20802
2819.42118,0.20744
2821.34965,0.20807
2823.27812,0.20984
2825.20659,0.21065
2827.13505,0.20993
2829.06352,0.20667
2830.99199,0.20421
2832.92046,0.20538
2834.84893,0.20578
2836.77740,0.20552
2838.70587,0.20695
2840.63433,0.20734
2842.56280,0.20638
2844.49127,0.20560
2846.41974,0.20473
2848.34821,0.20294
2850.27668,0.20038
2852.20515,0.20075
2854.13362,0.20389
2856.06208,0.20617
2857.99055,0.20784
2859.91902,0.20927
2861.84749,0.21036
2863.77596,0.21106
2865.70443,0.21129
2867.63290,0.21228
2869.56136,0.21433
2871.48983,0.21470
2873.41830,0.21029
2875.34677,0.20390
2877.27524,0.20294
2879.20371,0.20661
2881.13218,0.20677
2883.06065,0.20396
2884.98911,0.20248
2886.91758,0.20270
2888.84605,0.20293
2890.77452,0.20155
2892.70299,0.20076
2894.63146,0.20063
2896.55993,0.20081
2898.48839,0.20200
2900.41686,0.20293
2902.34533,0.20280
2904.27380,0.20049
2906.20227,0.19827
2908.13074,0.19945
2910.05921,0.20220
2911.98768,0.20436
2913.91614,0.20284
2915.84461,0.19405
2917.77308,0.18669
2919.70155,0.18925
2921.63002,0.19532
2923.55849,0.19733
2925.48696,0.19276
2927.41542,0.19092
2929.34389,0.19912
2931.27236,0.20550
2933.20083,0.20290
2935.12930,0.19490
2937.05777,0.18879
2938.98624,0.19478
2940.91471,0.20606
2942.84317,0.20810
2944.77164,0.20011
2946.70011,0.18839
2948.62858,0.18719
2950.55705,0.19859
2952.48552,0.20625
2954.41399,0.20408
2956.34245,0.19120
2958.27092,0.17987
2960.19939,0.18667
2962.12786,0.19996
2964.05633,0.20746
2965.98480,0.20762
2967.91327,0.19992
2969.84174,0.19570
2971.77020,0.19861
2973.69867,0.20078
2975.62714,0.19926
2977.55561,0.19436
2979.48408,0.19445
2981.41255,0.20468
2983.34102,0.21497
2985.26948,0.21523
2987.19795,0.20585
2989.12642,0.20067
2991.05489,0.20811
2992.98336,0.21562
2994.91183,0.21509
2996.84030,0.21006
2998.76877,0.20431
3000.69723,0.20382
3002.62570,0.20702
3004.55417,0.20656
3006.48264,0.20163
3008.41111,0.19601
3010.33958,0.18794
3012.26805,0.16690
3014.19651,0.13252
3016.12498,0.10556
3018.05345,0.11545
3019.98192,0.15841
3021.91039,0.19163
3023.83886,0.20179
3025.76733,0.20682
3027.69579,0.21185
3029.62426,0.21733
3031.55273,0.22062
3033.48120,0.21651
3035.40967,0.21235
3037.33814,0.21221
3039.26661,0.21096
3041.19508,0.21050
3043.12354,0.21278
3045.05201,0.21224
3046.98048,0.20702
3048.90895,0.20415
3050.83742,0.20610
3052.76589,0.20554
3054.69436,0.20008
3056.62282,0.19639
3058.55129,0.20129
3060.47976,0.21114
3062.40823,0.21463
3064.33670,0.20576
3066.26517,0.19327
3068.19364,0.19420
3070.12211,0.20491
3072.05057,0.20721
3073.97904,0.19848
3075.90751,0.19091
3077.83598,0.19421
3079.76445,0.20414
3081.69292,0.21008
3083.62139,0.20113
3085.54985,0.18524
3087.47832,0.18710
3089.40679,0.20111
3091.33526,0.20505
3093.26373,0.19657
3095.19220,0.19035
3097.12067,0.19751
3099.04914,0.20720
3100.97760,0.20505
3102.90607,0.19292
3104.83454,0.18895
3106.76301,0.19844
3108.69148,0.20690
3110.61995,0.20717
3112.54842,0.20056
3114.47688,0.19847
3116.40535,0.20672
3118.33382,0.21128
3120.26229,0.20507
3122.19076,0.19997
3124.11923,0.20463
3126.04770,0.21003
3127.97617,0.20760
3129.90463,0.20098
3131.83310,0.20136
3133.76157,0.21098
3135.69004,0.21845
3137.61851,0.21811
3139.54698,0.21374
3141.47545,0.21057
3143.40391,0.20814
3145.33238,0.20569
3147.26085,0.20493
3149.18932,0.20552
3151.11779,0.21031
3153.04626,0.21867
3154.97473,0.22300
3156.90320,0.22200
3158.83166,0.22115
3160.76013,0.22188
3162.68860,0.22145
3164.61707,0.22094
3166.54554,0.22349
3168.47401,0.22482
3170.40248,0.22008
3172.33094,0.21581
3174.25941,0.21671
3176.18788,0.21956
3178.11635,0.22244
3180.04482,0.22351
3181.97329,0.22378
3183.90176,0.22432
3185.83022,0.22175
3187.75869,0.21765
3189.68716,0.21621
3191.61563,0.21733
3193.54410,0.21678
3195.47257,0.21253
3197.40104,0.21254
3199.32951,0.21777
3201.25797,0.21910
3203.18644,0.21725
3205.11491,0.21585
3207.04338,0.21585
3208.97185,0.21724
3210.90032,0.21736
3212.82879,0.21864
3214.75725,0.22082
3216.68572,0.22060
3218.61419,0.22059
3220.54266,0.21914
3222.47113,0.21655
3224.39960,0.21858
3226.32807,0.22506
3228.25654,0.23260
3230.18500,0.23518
3232.11347,0.22916
3234.04194,0.22152
3235.97041,0.21855
3237.89888,0.21786
3239.82735,0.21603
3241.75582,0.21595
3243.68428,0.22031
3245.61275,0.22166
3247.54122,0.21812
3249.46969,0.21772
3251.39816,0.22132
3253.32663,0.22566
3255.25510,0.22755
3257.18357,0.22692
3259.11203,0.22639
3261.04050,0.22393
3262.96897,0.21923
3264.89744,0.21608
3266.82591,0.21465
3268.75438,0.21173
3270.68285,0.20854
3272.61131,0.20791
3274.53978,0.20894
3276.46825,0.21106
3278.39672,0.21431
3280.32519,0.21569
3282.25366,0.21368
3284.18213,0.21228
3286.11060,0.21074
3288.03906,0.20881
3289.96753,0.21052
3291.89600,0.20996
3293.82447,0.20510
3295.75294,0.20429
3297.68141,0.20921
3299.60988,0.21406
3301.53834,0.21230
3303.46681,0.20678
3305.39528,0.20458
3307.32375,0.20385
3309.25222,0.20547
3311.18069,0.21000
3313.10916,0.21092
3315.03763,0.21030
3316.96609,0.20971
3318.89456,0.20808
3320.82303,0.21070
3322.75150,0.21566
3324.67997,0.21714
3326.60844,0.21526
3328.53691,0.21335
3330.46537,0.21381
3332.39384,0.21404
3334.32231,0.21406
3336.25078,0.21466
3338.17925,0.21501
3340.10772,0.21990
3342.03619,0.22679
3343.96466,0.22650
3345.89312,0.21833
3347.82159,0.20885
3349.75006,0.20744
3351.67853,0.21130
3353.60700,0.20947
3355.53547,0.20365
3357.46394,0.20109
3359.39240,0.20506
3361.32087,0.21195
3363.24934,0.21705
3365.17781,0.22068
3367.10628,0.22203
3369.03475,0.22250
3370.96322,0.22257
3372.89168,0.21863
3374.82015,0.21377
3376.74862,0.21092
3378.67709,0.20782
3380.60556,0.20782
3382.53403,0.21369
3384.46250,0.22050
3386.39097,0.22449
3388.31943,0.22463
3390.24790,0.22040
3392.17637,0.21452
3394.10484,0.21269
3396.03331,0.21539
3397.96178,0.21328
3399.89025,0.20272
3401.81871,0.19404
3403.74718,0.19435
3405.67565,0.19986
3407.60412,0.20455
3409.53259,0.20482
3411.46106,0.20216
3413.38953,0.20112
3415.31800,0.20266
3417.24646,0.20476
3419.17493,0.20642
3421.10340,0.21063
3423.03187,0.21559
3424.96034,0.21495
3426.88881,0.21166
3428.81728,0.21012
3430.74574,0.21070
3432.67421,0.20997
3434.60268,0.20146
3436.53115,0.19251
3438.45962,0.19531
3440.38809,0.20427
3442.31656,0.20724
3444.24503,0.20700
3446.17349,0.21305
3448.10196,0.21890
3450.03043,0.21308
3451.95890,0.20297
3453.88737,0.19988
3455.81584,0.20288
3457.74431,0.20535
3459.67277,0.20329
3461.60124,0.19715
3463.52971,0.19068
3465.45818,0.18892
3467.38665,0.19396
3469.31512,0.20141
3471.24359,0.20639
3473.17206,0.20692
3475.10052,0.20324
3477.02899,0.20083
3478.95746,0.20311
3480.88593,0.20494
3482.81440,0.20081
3484.74287,0.19313
3486.67134,0.18710
3488.59980,0.18454
3490.52827,0.18448
3492.45674,0.18440
3494.38521,0.18290
3496.31368,0.18166
3498.24215,0.18298
3500.17062,0.18711
3502.09909,0.19138
3504.02755,0.18990
3505.95602,0.18386
3507.88449,0.18176
3509.81296,0.18147
3511.74143,0.17578
3513.66990,0.16961
3515.59837,0.17036
3517.52683,0.17721
3519.45530,0.18413
3521.38377,0.18860
3523.31224,0.19055
3525.24071,0.18882
3527.16918,0.18683
3529.09765,0.18488
3531.02611,0.17969
3532.95458,0.17383
3534.88305,0.17046
3536.81152,0.17010
3538.73999,0.16942
3540.66846,0.16591
3542.59693,0.16499
3544.52540,0.16816
3546.45386,0.16738
3548.38233,0.16198
3550.31080,0.15867
3552.23927,0.16050
3554.16774,0.16448
3556.09621,0.16663
3558.02468,0.16943
3559.95314,0.17230
3561.88161,0.17123
3563.81008,0.16963
3565.73855,0.17407
3567.66702,0.17703
3569.59549,0.16652
3571.52396,0.15591
3573.45243,0.15395
3575.38089,0.15573
3577.30936,0.16025
3579.23783,0.16838
3581.16630,0.17090
3583.09477,0.16684
3585.02324,0.16611
3586.95171,0.16880
3588.88017,0.16727
3590.80864,0.16419
3592.73711,0.16395
3594.66558,0.16340
3596.59405,0.15988
3598.52252,0.15714
3600.45099,0.15453
3602.37946,0.15191
3604.30792,0.15402
3606.23639,0.16095
3608.16486,0.16595
3610.09333,0.16375
3612.02180,0.16081
3613.95027,0.16058
3615.87874,0.16124
3617.80720,0.16691
3619.73567,0.17171
3621.66414,0.16125
3623.59261,0.15094
3625.52108,0.15311
3627.44955,0.16136
3629.37802,0.16452
3631.30649,0.16058
3633.23495,0.15571
3635.16342,0.15046
3637.09189,0.14759
3639.02036,0.15012
3640.94883,0.15322
3642.87730,0.15207
3644.80577,0.15192
3646.73423,0.15639
3648.66270,0.15745
3650.59117,0.14942
3652.51964,0.14192
3654.44811,0.13972
3656.37658,0.13998
3658.30505,0.13690
3660.23352,0.13486
3662.16198,0.13506
3664.09045,0.13271
3666.01892,0.13098
3667.94739,0.13717
3669.87586,0.14818
3671.80433,0.15207
3673.73280,0.15784
3675.66126,0.16503
3677.58973,0.15645
3679.51820,0.14464
3681.44667,0.13676
3683.37514,0.13267
3685.30361,0.13494
3687.23208,0.14310
3689.16055,0.14964
3691.08901,0.14572
3693.01748,0.13796
3694.94595,0.13440
3696.87442,0.13514
3698.80289,0.13624
3700.73136,0.13626
3702.65983,0.13300
3704.58829,0.12763
3706.51676,0.12939
3708.44523,0.13883
3710.37370,0.14537
3712.30217,0.14158
3714.23064,0.13707
3716.15911,0.13861
3718.08757,0.14226
3720.01604,0.14494
3721.94451,0.14770
3723.87298,0.14902
3725.80145,0.14962
3727.72992,0.15107
3729.65839,0.15121
3731.58686,0.15201
3733.51532,0.15702
3735.44379,0.15826
3737.37226,0.14779
3739.30073,0.13920
3741.22920,0.14087
3743.15767,0.14961
3745.08614,0.15181
3747.01460,0.14282
3748.94307,0.13747
3750.87154,0.14066
3752.80001,0.13898
3754.72848,0.13399
3756.65695,0.13690
3758.58542,0.14073
3760.51389,0.13586
3762.44235,0.12891
3764.37082,0.12197
3766.29929,0.11678
3768.22776,0.11889
3770.15623,0.12318
3772.08470,0.12524
3774.01317,0.12644
3775.94163,0.12810
3777.87010,0.13297
3779.79857,0.13611
3781.72704,0.13182
3783.65551,0.12787
3785.58398,0.12907
3787.51245,0.13091
3789.44092,0.12882
3791.36938,0.12639
3793.29785,0.12650
3795.22632,0.12837
3797.15479,0.13398
3799.08326,0.14100
3801.01173,0.14441
3802.94020,0.14254
3804.86866,0.13989
3806.79713,0.13700
3808.72560,0.13099
3810.65407,0.12650
3812.58254,0.12857
3814.51101,0.13607
3816.43948,0.14016
3818.36795,0.14157
3820.29641,0.15066
3822.22488,0.15333
3824.15335,0.14249
3826.08182,0.13427
3828.01029,0.13437
3829.93876,0.13805
3831.86723,0.13959
3833.79569,0.13789
3835.72416,0.13362
3837.65263,0.13063
3839.58110,0.12971
3841.50957,0.12608
3843.43804,0.12754
3845.36651,0.13652
3847.29498,0.14007
3849.22344,0.13528
3851.15191,0.13288
3853.08038,0.14399
3855.00885,0.15107
3856.93732,0.14129
3858.86579,0.13026
3860.79426,0.12834
3862.72272,0.13980
3864.65119,0.14851
3866.57966,0.14281
3868.50813,0.13680
3870.43660,0.13430
3872.36507,0.13154
3874.29354,0.12543
3876.22200,0.11829
3878.15047,0.11983
3880.07894,0.12842
3882.00741,0.13186
3883.93588,0.12895
3885.86435,0.12233
3887.79282,0.11634
3889.72129,0.11484
3891.64975,0.11424
3893.57822,0.11557
3895.50669,0.11979
3897.43516,0.12222
3899.36363,0.12150
3901.29210,0.12041
3903.22057,0.12195
3905.14903,0.12351
3907.07750,0.11997
3909.00597,0.11521
3910.93444,0.11219
3912.86291,0.11141
3914.79138,0.11431
3916.71985,0.11687
3918.64832,0.11396
3920.57678,0.11124
3922.50525,0.11481
3924.43372,0.11871
3926.36219,0.11724
3928.29066,0.11702
3930.21913,0.12051
3932.14760,0.12109
3934.07606,0.11652
3936.00453,0.11074
3937.93300,0.10607
3939.86147,0.10602
3941.78994,0.11088
3943.71841,0.11396
3945.64688,0.11561
3947.57535,0.12041
3949.50381,0.12228
3951.43228,0.11840
3953.36075,0.11891
3955.28922,0.12291
3957.21769,0.11921
3959.14616,0.11012
3961.07463,0.10617
3963.00309,0.10886
3964.93156,0.11198
3966.86003,0.11033
3968.78850,0.10720
3970.71697,0.10797
3972.64544,0.11042
3974.57391,0.11127
3976.50238,0.10784
3978.43084,0.10175
3980.35931,0.09983
3982.28778,0.10235
3984.21625,0.10546
3986.14472,0.10501
3988.07319,0.10334
3990.00166,0.10755
3991.93012,0.11274
3993.85859,0.11121
3995.78706,0.10447
3997.71553,0.10066
3999.64400,0.10630
4001.57247,0.11356
4003.50094,0.11337
4005.42941,0.10912
4007.35787,0.10527
4009.28634,0.10548
4011.21481,0.10819
4013.14328,0.10680
4015.07175,0.10456
4017.00022,0.10612
4018.92869,0.10882
4020.85715,0.10825
4022.78562,0.10666
4024.71409,0.11164
4026.64256,0.11730
4028.57103,0.11481
4030.49950,0.11084
4032.42797,0.10854
4034.35644,0.10434
4036.28490,0.10036
4038.21337,0.09719
4040.14184,0.09597
4042.07031,0.09880
4043.99878,0.10010
4045.92725,0.10049
4047.85572,0.10470
4049.78418,0.10743
4051.71265,0.10692
4053.64112,0.10457
4055.56959,0.10028
4057.49806,0.09927
4059.42653,0.10212
4061.35500,0.10350
4063.28346,0.10218
4065.21193,0.10056
4067.14040,0.09878
4069.06887,0.09712
4070.99734,0.10020
4072.92581,0.10432
4074.85428,0.09933
4076.78275,0.09022
4078.71121,0.08848
4080.63968,0.08961
4082.56815,0.08624
4084.49662,0.08560
4086.42509,0.09080
4088.35356,0.09256
4090.28203,0.08895
4092.21049,0.08609
4094.13896,0.08575
4096.06743,0.08792
4097.99590,0.09341
4099.92437,0.09910
4101.85284,0.09967
4103.78131,0.09469
4105.70978,0.08948
4107.63824,0.08934
4109.56671,0.09136
4111.49518,0.09040
4113.42365,0.08957
4115.35212,0.09007
4117.28059,0.08810
4119.20906,0.08525
4121.13752,0.08745
4123.06599,0.09261
4124.99446,0.09096
4126.92293,0.08373
4128.85140,0.08002
4130.77987,0.08315
4132.70834,0.09123
4134.63681,0.09609
4136.56527,0.08970
4138.49374,0.07773
4140.42221,0.07442
4142.35068,0.07999
4144.27915,0.08435
4146.20762,0.08932
4148.13609,0.09358
4150.06455,0.08921
4151.99302,0.08466
4153.92149,0.08594
4155.84996,0.08391
4157.77843,0.07861
4159.70690,0.07927
4161.63537,0.08508
4163.56384,0.08623
4165.49230,0.08238
4167.42077,0.08169
4169.34924,0.08395
4171.27771,0.08574
4173.20618,0.08796
4175.13465,0.08870
4177.06312,0.08664
4178.99158,0.08176
4180.92005,0.07354
4182.84852,0.07009
4184.77699,0.07701
4186.70546,0.08683
4188.63393,0.08837
4190.56240,0.07952
4192.49087,0.07280
4194.41933,0.07477
4196.34780,0.07871
4198.27627,0.07894
4200.20474,0.07432
4202.13321,0.07146
4204.06168,0.07660
4205.99015,0.08297
4207.91861,0.08280
4209.84708,0.07650
4211.77555,0.07053
4213.70402,0.07281
4215.63249,0.07851
4217.56096,0.07810
4219.48943,0.07296
4221.41789,0.06866
4223.34636,0.06844
4225.27483,0.06893
4227.20330,0.06543
4229.13177,0.06194
4231.06024,0.06604
4232.98871,0.07454
4234.91718,0.07480
4236.84564,0.06531
4238.77411,0.05849
4240.70258,0.06197
4242.63105,0.07181
4244.55952,0.07830
4246.48799,0.07739
4248.41646,0.07608
4250.34492,0.07450
4252.27339,0.06748
4254.20186,0.06161
4256.13033,0.06447
4258.05880,0.07290
4259.98727,0.07470
4261.91574,0.06591
4263.84421,0.05869
4265.77267,0.05729
4267.70114,0.05673
4269.62961,0.06067
4271.55808,0.07083
4273.48655,0.08026
4275.41502,0.08398
4277.34349,0.08248
4279.27195,0.07942
4281.20042,0.07099
4283.12889,0.05824
4285.05736,0.05444
4286.98583,0.05877
4288.91430,0.06285
4290.84277,0.06498
4292.77124,0.06527
4294.69970,0.06634
4296.62817,0.06775
4298.55664,0.06627
4300.48511,0.06225
4302.41358,0.05931
4304.34205,0.05861
4306.27052,0.05666
4308.19898,0.05709
4310.12745,0.06250
4312.05592,0.06279
4313.98439,0.05881
4315.91286,0.05852
4317.84133,0.05878
4319.76980,0.05751
4321.69827,0.05498
4323.62673,0.05303
4325.55520,0.05320
4327.48367,0.05481
4329.41214,0.06123
4331.34061,0.07008
4333.26908,0.07329
4335.19755,0.06986
4337.12601,0.06486
4339.05448,0.05970
4340.98295,0.05375
4342.91142,0.05089
4344.83989,0.05135
4346.76836,0.04999
4348.69683,0.04665
4350.62530,0.04440
4352.55376,0.04068
4354.48223,0.03573
4356.41070,0.03132
4358.33917,0.02638
4360.26764,0.03009
4362.19611,0.04298
4364.12458,0.04925
4366.05304,0.04359
4367.98151,0.03586
4369.90998,0.03724
4371.83845,0.04542
4373.76692,0.05114
4375.69539,0.05353
4377.62386,0.05295
4379.55232,0.04829
4381.48079,0.04229
4383.40926,0.03727
4385.33773,0.03873
4387.26620,0.04710
4389.19467,0.05013
4391.12314,0.04875
4393.05161,0.05006
4394.98007,0.05042
4396.90854,0.04853
4398.83701,0.04486
4400.76548,0.04207
4402.69395,0.04068
4404.62242,0.03713
4406.55089,0.03207
4408.47935,0.02727
4410.40782,0.02663
4412.33629,0.02881
4414.26476,0.02558
4416.19323,0.01998
4418.12170,0.02367
4420.05017,0.03638
4421.97864,0.04304
4423.90710,0.03752
4425.83557,0.02920
4427.76404,0.02564
4429.69251,0.02821
4431.62098,0.03234
4433.54945,0.03366
4435.47792,0.03352
4437.40638,0.03133
4439.33485,0.02918
4441.26332,0.03418
4443.19179,0.04285
4445.12026,0.04223
4447.04873,0.03320
4448.97720,0.02893
4450.90567,0.03121
4452.83413,0.03433
4454.76260,0.03801
4456.69107,0.03795
4458.61954,0.03102
4460.54801,0.02830
4462.47648,0.02975
4464.40495,0.02261
4466.33341,0.01209
4468.26188,0.00929
4470.19035,0.01601
4472.11882,0.02508
4474.04729,0.02319
4475.97576,0.01442
4477.90423,0.01490
4479.83270,0.02036
4481.76116,0.02183
4483.68963,0.02084
4485.61810,0.01823
4487.54657,0.02010
4489.47504,0.02812
4491.40351,0.03262
4493.33198,0.02978
4495.26044,0.02528
4497.18891,0.02426
4499.11738,0.02096
4501.04585,0.01144
4502.97432,0.00672
4504.90279,0.01060
4506.83126,0.01306
4508.75973,0.01014
4510.68819,0.01057
4512.61666,0.01892
4514.54513,0.02273
4516.47360,0.01698
4518.40207,0.01520
4520.33054,0.01883
4522.25901,0.01913
4524.18747,0.02077
4526.11594,0.02652
4528.04441,0.02858
4529.97288,0.03010
4531.90135,0.03399
4533.82982,0.02984
4535.75829,0.02119
4537.68676,0.02231
4539.61522,0.02724
4541.54369,0.02474
4543.47216,0.02360
4545.40063,0.02865
4547.32910,0.03190
4549.25757,0.03093
4551.18604,0.02618
4553.11450,0.02214
4555.04297,0.01970
4556.97144,0.01340
4558.89991,0.00806
4560.82838,0.00948
4562.75685,0.01616
4564.68532,0.02236
4566.61378,0.01843
4568.54225,0.00754
4570.47072,0.00368
4572.39919,0.00921
4574.32766,0.01866
4576.25613,0.02786
4578.18460,0.03512
4580.11307,0.03942
4582.04153,0.03537
4583.97000,0.02337
4585.89847,0.01460
4587.82694,0.01871
4589.75541,0.02639
4591.68388,0.01998
4593.61235,0.00725
4595.54081,0.00365
4597.46928,0.00346
4599.39775,0.00280
4601.32622,0.00547
4603.25469,0.00690
4605.18316,0.00269
4607.11163,-0.00413
4609.04010,-0.00272
4610.96856,0.01117
4612.89703,0.01902
4614.82550,0.01062
4616.75397,-0.00123
4618.68244,-0.01109
4620.61091,-0.01606
4622.53938,-0.00628
4624.46784,0.00709
4626.39631,0.00762
4628.32478,0.00541
4630.25325,0.00842
4632.18172,0.00831
4634.11019,0.00531
4636.03866,0.00456
4637.96713,0.00624
4639.89559,0.01723
4641.82406,0.03178
4643.75253,0.03221
4645.68100,0.02366
4647.60947,0.02010
4649.53794,0.02124
4651.46641,0.01712
4653.39487,0.00601
4655.32334,-0.00382
4657.25181,-0.01074
4659.18028,-0.00915
4661.10875,0.00551
4663.03722,0.01766
4664.96569,0.01644
4666.89416,0.00708
4668.82262,-0.00519
4670.75109,-0.01541
4672.67956,-0.01589
4674.60803,-0.00540
4676.53650,0.00677
4678.46497,0.01365
4680.39344,0.01529
4682.32190,0.01525
4684.25037,0.01822
4686.17884,0.02001
4688.10731,0.01605
4690.03578,0.01142
4691.96425,0.00755
4693.89272,0.00962
4695.82119,0.02078
4697.74965,0.02459
4699.67812,0.01830
4701.60659,0.01352
4703.53506,0.00867
4705.46353,0.00151
4707.39200,-0.00677
4709.32047,-0.00838
4711.24893,0.00081
4713.17740,0.01015
4715.10587,0.01341
4717.03434,0.00946
4718.96281,0.00218
4720.89128,0.00011
4722.81975,0.00456
4724.74821,0.01220
4726.67668,0.01714
4728.60515,0.01685
4730.53362,0.01849
4732.46209,0.02296
4734.39056,0.02240
4736.31903,0.01337
4738.24750,0.00423
4740.17596,0.00721
4742.10443,0.01236
4744.03290,0.00939
4745.96137,0.01118
4747.88984,0.01813
4749.81831,0.01995
4751.74678,0.01715
4753.67524,0.01172
4755.60371,0.00942
4757.53218,0.01359
4759.46065,0.01655
4761.38912,0.01264
4763.31759,0.00515
4765.24606,0.00215
4767.17453,0.00423
4769.10299,0.00644
4771.03146,0.00699
4772.95993,0.00598
4774.88840,0.00776
4776.81687,0.01101
4778.74534,0.01531
4780.67381,0.02417
4782.60227,0.02281
4784.53074,0.00794
4786.45921,0.00057
4788.38768,0.00245
4790.31615,0.00494
4792.24462,0.01063
4794.17309,0.01391
4796.10156,0.01038
4798.03002,0.01278
4799.95849,0.02321
4801.88696,0.02789
4803.81543,0.01560
4805.74390,-0.00705
4807.67237,-0.01261
4809.60084,-0.00070
4811.52930,0.00285
4813.45777,0.00123
4815.38624,0.00496
4817.31471,0.00881
4819.24318,0.00945
4821.17165,0.00866
4823.10012,0.01137
4825.02859,0.01961
4826.95705,0.03004
4828.88552,0.03324
4830.81399,0.02398
4832.74246,0.00798
4834.67093,-0.00809
4836.59940,-0.01764
4838.52787,-0.02148
4840.45633,-0.02045
4842.38480,-0.00591
4844.31327,0.01179
4846.24174,0.01697
4848.17021,0.01751
4850.09868,0.01718
4852.02715,0.01569
4853.95562,0.01742
4855.88408,0.01434
4857.81255,0.00523
4859.74102,-0.00129
4861.66949,-0.00574
4863.59796,-0.00674
4865.52643,-0.00098
4867.45490,0.00591
4869.38336,0.00888
4871.31183,0.00527
4873.24030,-0.00318
4875.16877,-0.00416
4877.09724,0.00945
4879.02571,0.02530
4880.95418,0.02595
4882.88265,0.01345
4884.81111,-0.00136
4886.73958,-0.01128
4888.66805,-0.00579
4890.59652,0.00912
4892.52499,0.01782
4894.45346,0.02308
4896.38193,0.02438
4898.31039,0.01463
4900.23886,0.00162
4902.16733,0.00091
4904.09580,0.01618
4906.02427,0.02672
4907.95274,0.02035
4909.88121,0.01035
4911.80967,0.00899
4913.73814,0.01610
4915.66661,0.01301
4917.59508,-0.00076
4919.52355,0.00185
4921.45202,0.01878
4923.38049,0.02730
4925.30896,0.02385
4927.23742,0.01679
4929.16589,0.01399
4931.09436,0.01251
4933.02283,0.00667
4934.95130,0.00714
4936.87977,0.01572
4938.80824,0.01700
4940.73670,0.00893
4942.66517,0.00280
4944.59364,0.00843
4946.52211,0.01328
4948.45058,0.00258
4950.37905,-0.00829
4952.30752,-0.00802
4954.23599,-0.00141
4956.16445,0.00457
4958.09292,0.00385
4960.02139,0.00503
4961.94986,0.01572
4963.87833,0.02502
4965.80680,0.01960
4967.73527,0.00643
4969.66373,0.00699
4971.59220,0.01532
4973.52067,0.01245
4975.44914,0.01021
4977.37761,0.02027
4979.30608,0.03009
4981.23455,0.02945
4983.16302,0.02164
4985.09148,0.01185
4987.01995,0.00250
4988.94842,0.00499
4990.87689,0.02335
4992.80536,0.03561
4994.73383,0.03500
4996.66230,0.03876
4998.59076,0.04279
5000.51923,0.03404
5002.44770,0.01864
5004.37617,0.01033
5006.30464,0.01288
5008.23311,0.01771
5010.16158,0.01456
5012.09005,0.00441
5014.01851,0.00100
5015.94698,0.00606
5017.87545,0.00987
5019.80392,0.01263
5021.73239,0.00754
5023.66086,-0.00798
5025.58933,-0.01208
5027.51779,-0.00066
5029.44626,0.01386
5031.37473,0.02904
5033.30320,0.03690
5035.23167,0.04044
5037.16014,0.04644
5039.08861,0.04228
5041.01708,0.02400
5042.94554,0.00743
5044.87401,0.00587
5046.80248,0.00893
5048.73095,0.00188
5050.65942,-0.00366
5052.58789,0.00150
5054.51636,0.00487
5056.44482,0.00242
5058.37329,0.00947
5060.30176,0.02465
5062.23023,0.03289
5064.15870,0.04295
5066.08717,0.05267
5068.01564,0.03941
5069.94410,0.01609
5071.87257,0.01162
5073.80104,0.02429
5075.72951,0.03553
5077.65798,0.03114
5079.58645,0.01244
5081.51492,0.00340
5083.44339,0.02029
5085.37185,0.04026
5087.30032,0.03818
5089.22879,0.03007
5091.15726,0.03226
5093.08573,0.03088
5095.01420,0.02466
5096.94267,0.03211
5098.87113,0.04896
5100.79960,0.05228
5102.72807,0.04369
5104.65654,0.03814
5106.58501,0.03914
5108.51348,0.03729
5110.44195,0.02317
5112.37042,0.01523
5114.29888,0.02863
5116.22735,0.04522
5118.15582,0.04852
5120.08429,0.03730
5122.01276,0.02418
5123.94123,0.02445
5125.86970,0.03556
5127.79816,0.04273
5129.72663,0.04166
5131.65510,0.03782
5133.58357,0.02721
5135.51204,0.00903
5137.44051,-0.00250
5139.36898,-0.00116
5141.29745,0.00665
5143.22591,0.01770
5145.15438,0.02881
5147.08285,0.02878
5149.01132,0.01701
5150.93979,0.01945
5152.86826,0.03428
5154.79673,0.02948
5156.72519,0.02013
5158.65366,0.02410
5160.58213,0.01651
5162.51060,-0.00152
5164.43907,-0.01024
5166.36754,-0.00650
5168.29601,0.01069
5170.22448,0.03060
5172.15294,0.03612
5174.08141,0.02957
5176.00988,0.01903
5177.93835,0.01687
5179.86682,0.02594
5181.79529,0.03481
5183.72376,0.04316
5185.65222,0.04469
5187.58069,0.03605
5189.50916,0.02928
5191.43763,0.02460
5193.36610,0.02151
5195.29457,0.02894
5197.22304,0.04933
5199.15151,0.06323
5201.07997,0.06013
5203.00844,0.06333
5204.93691,0.07487
5206.86538,0.07470
5208.79385,0.06338
5210.72232,0.03938
5212.65079,0.01315
5214.57925,0.00960
5216.50772,0.02913
5218.43619,0.04951
5220.36466,0.05015
5222.29313,0.04256
5224.22160,0.04582
5226.15007,0.05318
5228.07854,0.04651
5230.00700,0.02806
5231.93547,0.01866
5233.86394,0.03253
5235.79241,0.05445
5237.72088,0.05846
5239.64935,0.05243
5241.57782,0.05378
5243.50628,0.06085
5245.43475,0.06754
5247.36322,0.05823
5249.29169,0.03333
5251.22016,0.01692
5253.14863,0.01658
5255.07710,0.02608
5257.00556,0.02858
5258.93403,0.01568
5260.86250,0.00570
5262.79097,0.01579
5264.71944,0.03410
5266.64791,0.04231
5268.57638,0.05062
5270.50485,0.06510
5272.43331,0.06804
5274.36178,0.05693
5276.29025,0.05064
5278.21872,0.04995
5280.14719,0.03633
5282.07566,0.02228
5284.00413,0.04043
5285.93259,0.07091
5287.86106,0.07243
5289.78953,0.06586
5291.71800,0.06762
5293.64647,0.05536
5295.57494,0.03975
5297.50341,0.02741
5299.43188,0.02347
5301.36034,0.04092
5303.28881,0.05903
5305.21728,0.07472
5307.14575,0.09021
5309.07422,0.07754
5311.00269,0.04836
5312.93116,0.03463
5314.85962,0.03355
5316.78809,0.03696
5318.71656,0.05574
5320.64503,0.07965
5322.57350,0.07598
5324.50197,0.06002
5326.43044,0.07192
5328.35891,0.09092
5330.28737,0.08812
5332.21584,0.07747
5334.14431,0.07590
5336.07278,0.08645
5338.00125,0.08888
5339.92972,0.08249
5341.85819,0.09189
5343.78665,0.10268
5345.71512,0.09053
5347.64359,0.06744
5349.57206,0.05893
5351.50053,0.07381
5353.42900,0.09488
5355.35747,0.10095
5357.28594,0.08387
5359.21440,0.05575
5361.14287,0.03730
5363.07134,0.03548
5364.99981,0.05012
5366.92828,0.06057
5368.85675,0.05982
5370.78522,0.06831
5372.71368,0.07803
5374.64215,0.06744
5376.57062,0.04208
5378.49909,0.03262
5380.42756,0.05502
5382.35603,0.09197
5384.28450,0.10615
5386.21297,0.08492
5388.14143,0.06381
5390.06990,0.06092
5391.99837,0.05748
5393.92684,0.03829
5395.85531,0.02605
5397.78378,0.03791
5399.71225,0.06742
5401.64071,0.09599
5403.56918,0.09366
5405.49765,0.06977
5407.42612,0.05254
5409.35459,0.04462
5411.28306,0.04216
5413.21153,0.05222
5415.13999,0.07417
5417.06846,0.08354
5418.99693,0.07043
5420.92540,0.05587
5422.85387,0.06562
5424.78234,0.09036
5426.71081,0.10207
5428.63928,0.09357
5430.56774,0.08711
5432.49621,0.09668
5434.42468,0.09950
5436.35315,0.08299
5438.28162,0.06797
5440.21009,0.06264
5442.13856,0.05801
5444.06702,0.05182
5445.99549,0.05791
5447.92396,0.07409
5449.85243,0.08334
5451.78090,0.08071
5453.70937,0.06068
5455.63784,0.03460
5457.56631,0.03481
5459.49477,0.06037
5461.42324,0.08078
5463.35171,0.08436
5465.28018,0.09187
5467.20865,0.10701
5469.13712,0.09610
5471.06559,0.06790
5472.99405,0.05837
5474.92252,0.06288
5476.85099,0.06561
5478.77946,0.05743
5480.70793,0.05129
5482.63640,0.07094
5484.56487,0.09618
5486.49334,0.09957
5488.42180,0.09157
5490.35027,0.08142
5492.27874,0.07265
5494.20721,0.06827
5496.13568,0.06135
5498.06415,0.04863
5499.99262,0.03619
5501.92108,0.03691
5503.84955,0.04585
5505.77802,0.05987
5507.70649,0.07963
5509.63496,0.08617
5511.56343,0.08381
5513.49190,0.08385
5515.42037,0.08219
5517.34883,0.08340
5519.27730,0.08828
5521.20577,0.09120
5523.13424,0.08713
5525.06271,0.06678
5526.99118,0.03825
5528.91965,0.03128
5530.84811,0.05373
5532.77658,0.08085
5534.70505,0.08196
5536.63352,0.06372
5538.56199,0.06781
5540.49046,0.08318
5542.41893,0.08049
5544.34740,0.07912
5546.27586,0.09016
5548.20433,0.09121
5550.13280,0.07327
5552.06127,0.06147
5553.98974,0.07197
5555.91821,0.08302
5557.84668,0.06599
5559.77514,0.02665
5561.70361,-0.00466
5563.63208,-0.00391
5565.56055,0.03221
5567.48902,0.06945
5569.41749,0.07931
5571.34596,0.07401
5573.27443,0.06885
5575.20289,0.06777
5577.13136,0.06354
5579.05983,0.06669
5580.98830,0.07490
5582.91677,0.05975
5584.84524,0.04650
5586.77371,0.04606
5588.70217,0.03489
5590.63064,0.03114
5592.55911,0.05053
5594.48758,0.08060
5596.41605,0.09262
5598.34452,0.08455
5600.27299,0.09821
5602.20145,0.12366
5604.12992,0.13416
5606.05839,0.13569
5607.98686,0.12013
5609.91533,0.11643
5611.84380,0.13993
5613.77227,0.13358
5615.70074,0.11050
5617.62920,0.11390
5619.55767,0.10610
5621.48614,0.07597
5623.41461,0.06566
5625.34308,0.07904
5627.27155,0.09536
5629.20002,0.11179
5631.12848,0.12321
5633.05695,0.10804
5634.98542,0.07872
5636.91389,0.07112
5638.84236,0.06382
5640.77083,0.05115
5642.69930,0.07989
5644.62777,0.13324
5646.55623,0.14179
5648.48470,0.11368
5650.41317,0.10420
5652.34164,0.11085
5654.27011,0.11959
5656.19858,0.12714
5658.12705,0.12291
5660.05551,0.10702
5661.98398,0.09289
5663.91245,0.08488
5665.84092,0.07017
5667.76939,0.05775
5669.69786,0.06821
5671.62633,0.09277
5673.55480,0.11049
5675.48326,0.11868
5677.41173,0.11657
5679.34020,0.10795
5681.26867,0.09295
5683.19714,0.06088
5685.12561,0.04735
5687.05408,0.07151
5688.98254,0.10081
5690.91101,0.11943
5692.83948,0.12206
5694.76795,0.12373
5696.69642,0.13265
5698.62489,0.12500
5700.55336,0.11598
5702.48183,0.12071
5704.41029,0.11587
5706.33876,0.11262
5708.26723,0.12071
5710.19570,0.10994
5712.12417,0.08827
5714.05264,0.09206
5715.98111,0.10907
5717.90957,0.09569
5719.83804,0.04874
5721.76651,0.00508
5723.69498,-0.01267
5725.62345,0.00595
5727.55192,0.03881
5729.48039,0.04774
5731.40886,0.05472
5733.33732,0.08146
5735.26579,0.10398
5737.19426,0.10823
5739.12273,0.10787
5741.05120,0.10913
5742.97967,0.08341
5744.90814,0.03005
5746.83660,0.01241
5748.76507,0.05218
5750.69354,0.11060
5752.62201,0.14557
5754.55048,0.11725
5756.47895,0.05241
5758.40742,0.03077
5760.33588,0.06627
5762.26435,0.10054
5764.19282,0.10664
5766.12129,0.10521
5768.04976,0.08489
5769.97823,0.04712
5771.90670,0.02843
5773.83517,0.02723
5775.76363,0.02242
5777.69210,0.02269
5779.62057,0.04984
5781.54904,0.10343
5783.47751,0.14569
5785.40598,0.15279
5787.33445,0.15642
5789.26291,0.17007
5791.19138,0.16697
5793.11985,0.14066
5795.04832,0.08569
5796.97679,0.01936
5798.90526,0.00193
5800.83373,0.05030
5802.76220,0.11157
5804.69066,0.12255
5806.61913,0.09362
5808.54760,0.06956
5810.47607,0.04927
5812.40454,0.04112
5814.33301,0.05007
5816.26148,0.05826
5818.18994,0.08066
5820.11841,0.11707
5822.04688,0.13085
5823.97535,0.11061
5825.90382,0.08452
5827.83229,0.08301
5829.76076,0.09184
5831.68923,0.08491
5833.61769,0.06792
5835.54616,0.05927
5837.47463,0.07293
5839.40310,0.09314
5841.33157,0.09667
5843.26004,0.10019
5845.18851,0.12117
5847.11697,0.15079
5849.04544,0.16166
5850.97391,0.12962
5852.90238,0.07502
5854.83085,0.03187
5856.75932,0.03161
5858.68779,0.05505
5860.61626,0.05333
5862.54472,0.03958
5864.47319,0.04326
5866.40166,0.06387
5868.33013,0.07966
5870.25860,0.07541
5872.18707,0.06537
5874.11554,0.06415
5876.04400,0.07160
5877.97247,0.07999
5879.90094,0.07975
5881.82941,0.06488
5883.75788,0.04600
5885.68635,0.02472
5887.61482,0.02001
5889.54329,0.05303
5891.47175,0.08686
5893.40022,0.10695
5895.32869,0.11497
5897.25716,0.10239
5899.18563,0.09522
5901.11410,0.10082
5903.04257,0.08410
5904.97103,0.05592
5906.89950,0.05401
5908.82797,0.07941
5910.75644,0.13620
5912.68491,0.18553
5914.61338,0.18422
5916.54185,0.18366
5918.47032,0.20553
5920.39878,0.20318
5922.32725,0.16024
5924.25572,0.12244
5926.18419,0.11794
5928.11266,0.10603
5930.04113,0.06785
5931.96960,0.03074
5933.89806,0.02890
5935.82653,0.05452
5937.75500,0.05692
5939.68347,0.06626
5941.61194,0.12716
5943.54041,0.17873
5945.46888,0.16787
5947.39734,0.11680
5949.32581,0.08561
5951.25428,0.10769
5953.18275,0.13289
5955.11122,0.14220
5957.03969,0.15027
5958.96816,0.14002
5960.89663,0.11642
5962.82509,0.09459
5964.75356,0.07779
5966.68203,0.07982
5968.61050,0.09567
5970.53897,0.10450
5972.46744,0.09397
5974.39591,0.07357
5976.32437,0.06851
5978.25284,0.07653
5980.18131,0.08246
5982.10978,0.06542
5984.03825,0.03078
5985.96672,0.03569
5987.89519,0.07595
5989.82366,0.08421
5991.75212,0.06124
5993.68059,0.05594
5995.60906,0.06247
5997.53753,0.04038
5999.46600,0.03152
6001.39447,0.06296
6003.32294,0.05909
6005.25140,0.02472
6007.17987,0.02047
6009.10834,0.00882
6011.03681,0.00295
6012.96528,0.03195
6014.89375,0.05857
6016.82222,0.07237
6018.75069,0.08305
6020.67915,0.09482
6022.60762,0.09855
6024.53609,0.09626
6026.46456,0.09903
6028.39303,0.07718
6030.32150,0.05443
6032.24997,0.07147
6034.17843,0.07136
6036.10690,0.04221
6038.03537,0.02656
6039.96384,0.04381
6041.89231,0.08579
6043.82078,0.09536
6045.74925,0.07961
6047.67772,0.06544
6049.60618,0.04521
6051.53465,0.08104
6053.46312,0.16140
6055.39159,0.17258
6057.32006,0.13077
6059.24853,0.12539
6061.17700,0.13103
6063.10546,0.10770
6065.03393,0.07731
6066.96240,0.05170
6068.89087,0.01697
6070.81934,-0.00021
6072.74781,0.02425
6074.67628,0.02240
6076.60475,-0.03770
6078.53321,-0.05564
6080.46168,0.01994
6082.39015,0.11840
6084.31862,0.18497
6086.24709,0.20448
6088.17556,0.18385
6090.10403,0.14768
6092.03249,0.10657
6093.96096,0.06715
6095.88943,0.03520
6097.81790,0.02025
6099.74637,0.02749
6101.67484,0.04266
6103.60331,0.02643
6105.53177,-0.01657
6107.46024,-0.01340
6109.38871,0.03804
6111.31718,0.06703
6113.24565,0.08993
6115.17412,0.16193
6117.10259,0.24030
6119.03106,0.23848
6120.95952,0.17888
6122.88799,0.12325
6124.81646,0.07462
6126.74493,0.05314
6128.67340,0.08223
6130.60187,0.10946
6132.53034,0.10024
6134.45880,0.10201
6136.38727,0.13118
6138.31574,0.13716
6140.24421,0.10011
6142.17268,0.08386
6144.10115,0.11118
6146.02962,0.11646
6147.95809,0.07478
6149.88655,0.02047
6151.81502,0.00828
6153.74349,0.04896
6155.67196,0.07569
6157.60043,0.06509
6159.52890,0.06150
6161.45737,0.08239
6163.38583,0.10227
6165.31430,0.09236
6167.24277,0.07627
6169.17124,0.08550
6171.09971,0.09196
6173.02818,0.08109
6174.95665,0.07592
6176.88512,0.08996
6178.81358,0.11469
6180.74205,0.09990
6182.67052,0.05563
6184.59899,0.07088
6186.52746,0.14294
6188.45593,0.19005
6190.38440,0.18159
6192.31286,0.13414
6194.24133,0.09433
6196.16980,0.10690
6198.09827,0.11582
6200.02674,0.07334
6201.95521,0.03123
6203.88368,0.00468
6205.81215,-0.00572
6207.74061,0.04721
6209.66908,0.13231
6211.59755,0.15728
6213.52602,0.13940
6215.45449,0.12720
6217.38296,0.11406
6219.31143,0.10162
6221.23989,0.08555
6223.16836,0.06415
6225.09683,0.04479
6227.02530,0.01887
6228.95377,0.01874
6230.88224,0.05513
6232.81071,0.08125
6234.73918,0.08965
6236.66764,0.07303
6238.59611,0.03851
6240.52458,0.03707
6242.45305,0.06695
6244.38152,0.11485
6246.30999,0.16965
6248.23846,0.18611
6250.16692,0.17499
6252.09539,0.14782
6254.02386,0.09931
6255.95233,0.05981
6257.88080,0.04155
6259.80927,0.06569
6261.73774,0.10464
6263.66621,0.10694
6265.59467,0.13918
6267.52314,0.18998
6269.45161,0.18196
6271.38008,0.16351
6273.30855,0.13727
6275.23702,0.09798
6277.16549,0.09949
6279.09395,0.12439
6281.02242,0.12961
6282.95089,0.11991
6284.87936,0.08522
6286.80783,0.01690
6288.73630,-0.02911
6290.66477,-0.00879
6292.59323,0.06362
6294.52170,0.11644
6296.45017,0.07917
6298.37864,-0.00472
6300.30711,-0.03916
6302.23558,0.00015
6304.16405,0.05967
6306.09252,0.09239
6308.02098,0.08475
6309.94945,0.09454
6311.87792,0.13661
6313.80639,0.15687
6315.73486,0.17242
6317.66333,0.16877
6319.59180,0.13470
6321.52026,0.12109
6323.44873,0.12912
6325.37720,0.11215
6327.30567,0.07366
6329.23414,0.07818
6331.16261,0.13362
6333.09108,0.15549
6335.01955,0.11246
6336.94801,0.08995
6338.87648,0.08974
6340.80495,0.03193
6342.73342,-0.03726
6344.66189,-0.02332
6346.59036,0.10396
6348.51883,0.25878
6350.44729,0.32490
6352.37576,0.26961
6354.30423,0.15782
6356.23270,0.08221
6358.16117,0.06200
6360.08964,0.06436
6362.01811,0.06449
6363.94658,0.03986
6365.87504,0.04105
6367.80351,0.09623
6369.73198,0.09379
6371.66045,0.05335
6373.58892,0.08749
6375.51739,0.13950
6377.44586,0.12856
6379.37432,0.09102
6381.30279,0.09801
6383.23126,0.12663
6385.15973,0.09929
6387.08820,0.06994
6389.01667,0.06807
6390.94514,0.04379
6392.87361,0.01033
6394.80207,0.02350
6396.73054,0.07060
6398.65901,0.10670
6400.58748,0.10045
6402.51595,0.04776
6404.44442,0.02018
6406.37289,0.04805
6408.30135,0.03366
6410.22982,-0.02316
6412.15829,-0.00986
6414.08676,0.06602
6416.01523,0.13559
6417.94370,0.15597
6419.87217,0.10133
6421.80064,0.04107
6423.72910,0.04473
6425.65757,0.10076
6427.58604,0.16357
6429.51451,0.16019
6431.44298,0.05511
6433.37145,-0.05430
6435.29992,-0.07865
6437.22838,-0.01973
6439.15685,0.04016
6441.08532,0.05201
6443.01379,0.05142
6444.94226,0.05038
6446.87073,0.06181
6448.79920,0.07337
6450.72766,0.05790
6452.65613,0.07595
6454.58460,0.10217
6456.51307,0.04684
6458.44154,0.00013
6460.37001,0.03077
6462.29848,0.06020
6464.22695,0.06187
6466.15541,0.06483
6468.08388,0.08521
6470.01235,0.09418
6471.94082,0.08750
6473.86929,0.10356
6475.79776,0.09832
6477.72623,0.07302
6479.65469,0.09397
6481.58316,0.10382
6483.51163,0.06198
6485.44010,0.05646
6487.36857,0.12415
6489.29704,0.19877
6491.22551,0.18384
6493.15398,0.08106
6495.08244,0.03213
6497.01091,0.08480
6498.93938,0.13073
6500.86785,0.08252
6502.79632,0.01714
6504.72479,0.04128
6506.65326,0.08692
6508.58172,0.08818
6510.51019,0.09511
6512.43866,0.09873
6514.36713,0.05824
6516.29560,0.01010
6518.22407,-0.01210
6520.15254,0.00951
6522.08101,0.05202
6524.00947,0.05051
6525.93794,0.00056
6527.86641,-0.01959
6529.79488,0.04032
6531.72335,0.14353
6533.65182,0.17531
6535.58029,0.09723
6537.50875,0.03233
6539.43722,0.06555
6541.36569,0.14340
6543.29416,0.19393
6545.22263,0.18840
6547.15110,0.17277
6549.07957,0.19246
6551.00804,0.20641
6552.93650,0.18395
6554.86497,0.16655
6556.79344,0.13134
6558.72191,0.06652
6560.65038,0.05035
6562.57885,0.11237
6564.50732,0.20331
6566.43578,0.22057
6568.36425,0.16974
6570.29272,0.18401
6572.22119,0.25415
6574.14966,0.29220
6576.07813,0.29121
6578.00660,0.24381
6579.93507,0.18421
6581.86353,0.16338
6583.79200,0.12676
6585.72047,0.06690
6587.64894,0.05721
6589.57741,0.08489
6591.50588,0.08622
6593.43435,0.05494
6595.36281,0.02894
6597.29128,0.03274
6599.21975,0.07617
6601.14822,0.12791
6603.07669,0.18230
6605.00516,0.25832
6606.93363,0.24291
6608.86210,0.09297
6610.79056,-0.03514
6612.71903,-0.04519
6614.64750,0.02099
6616.57597,0.05410
6618.50444,-0.01498
6620.43291,-0.06534
6622.36138,0.00347
6624.28984,0.10390
6626.21831,0.17395
6628.14678,0.23090
6630.07525,0.22075
6632.00372,0.14031
6633.93219,0.05871
6635.86066,0.01878
6637.78912,0.03183
6639.71759,0.04462
6641.64606,0.03741
6643.57453,0.02262
6645.50300,0.01115
6647.43147,0.05676
6649.35994,0.14614
6651.28841,0.18786
6653.21687,0.15035
6655.14534,0.08824
6657.07381,0.08641
6659.00228,0.10796
6660.93075,0.04893
6662.85922,-0.05194
6664.78769,-0.10194
6666.71615,-0.09141
6668.64462,-0.06018
6670.57309,0.02183
6672.50156,0.15219
6674.43003,0.20759
6676.35850,0.16723
6678.28697,0.06641
6680.21544,0.00165
6682.14390,0.09864
6684.07237,0.21235
6686.00084,0.15003
6687.92931,0.05258
6689.85778,0.07351
6691.78625,0.10394
6693.71472,0.09476
6695.64318,0.10563
6697.57165,0.11064
6699.50012,0.04893
6701.42859,-0.01964
6703.35706,-0.01092
6705.28553,0.02944
6707.21400,0.05246
6709.14247,0.08771
6711.07093,0.11296
6712.99940,0.10622
6714.92787,0.09065
6716.85634,0.07463
6718.78481,0.02886
6720.71328,-0.05718
6722.64175,-0.09439
6724.57021,-0.06974
6726.49868,-0.09127
6728.42715,-0.11907
6730.35562,-0.05814
6732.28409,0.01954
6734.21256,0.04121
6736.14103,0.01533
6738.06950,-0.04227
6739.99796,-0.05269
6741.92643,0.04728
6743.85490,0.12748
6745.78337,0.11429
6747.71184,0.13893
6749.64031,0.21953
6751.56878,0.22352
6753.49724,0.16257
6755.42571,0.14014
6757.35418,0.19722
6759.28265,0.26437
6761.21112,0.25175
6763.13959,0.18035
6765.06806,0.04529
6766.99653,-0.09387
6768.92499,-0.08874
6770.85346,0.03862
6772.78193,0.13373
6774.71040,0.14498
6776.63887,0.11057
6778.56734,0.03621
6780.49581,-0.04295
6782.42427,-0.03657
6784.35274,0.02919
6786.28121,0.03679
6788.20968,-0.00663
6790.13815,-0.01700
6792.06662,0.03756
6793.99509,0.12794
6795.92355,0.16803
6797.85202,0.14271
6799.78049,0.08151
6801.70896,-0.04733
6803.63743,-0.14280
6805.56590,-0.10342
6807.49437,-0.02235
6809.42284,0.07514
6811.35130,0.19771
6813.27977,0.29455
6815.20824,0.34461
6817.13671,0.30335
6819.06518,0.20934
6820.99365,0.14977
6822.92212,0.14327
6824.85058,0.16705
6826.77905,0.16115
6828.70752,0.15740
6830.63599,0.16234
6832.56446,0.10278
6834.49293,0.02983
6836.42140,-0.00843
6838.34987,0.00655
6840.27833,0.07709
6842.20680,0.12486
6844.13527,0.12101
6846.06374,0.08364
6847.99221,0.02122
6849.92068,-0.02878
6851.84915,-0.04259
6853.77761,-0.02480
6855.70608,-0.00119
6857.63455,-0.00550
6859.56302,0.00699
6861.49149,0.03049
6863.41996,-0.00092
6865.34843,-0.02270
6867.27690,0.00775
6869.20536,0.03289
6871.13383,0.07496
6873.06230,0.17611
6874.99077,0.27459
6876.91924,0.25033
6878.84771,0.10375
6880.77618,0.03420
6882.70464,0.10729
6884.63311,0.19004
6886.56158,0.18230
6888.49005,0.08702
6890.41852,0.01151
6892.34699,0.02453
6894.27546,0.08640
6896.20393,0.09464
6898.13239,0.08871
6900.06086,0.16577
6901.98933,0.20745
6903.91780,0.18094
6905.84627,0.20519
6907.77474,0.23570
6909.70321,0.19408
6911.63167,0.13791
6913.56014,0.05507
6915.48861,-0.05693
6917.41708,-0.07364
6919.34555,0.03814
6921.27402,0.13026
6923.20249,0.12479
6925.13096,0.09010
6927.05942,0.04866
6928.98789,0.00150
6930.91636,-0.01038
6932.84483,-0.03520
6934.77330,-0.05716
6936.70177,-0.02086
6938.63024,-0.01531
6940.55870,-0.05195
6942.48717,-0.01214
6944.41564,0.06908
6946.34411,0.12924
6948.27258,0.14797
6950.20105,0.13187
6952.12952,0.13158
6954.05799,0.17122
6955.98645,0.21287
6957.91492,0.19160
6959.84339,0.12130
6961.77186,0.08776
6963.70033,0.12283
6965.62880,0.14988
6967.55727,0.11076
6969.48573,0.03730
6971.41420,-0.03711
6973.34267,-0.11731
6975.27114,-0.14999
6977.19961,-0.05854
6979.12808,0.05611
6981.05655,0.06619
6982.98501,-0.02083
6984.91348,-0.12329
6986.84195,-0.13076
6988.77042,-0.05005
6990.69889,0.01131
6992.62736,0.01983
6994.55583,0.00314
6996.48430,0.00443
6998.41276,-0.02885
7000.34123,-0.07671
7002.26970,0.01387
7004.19817,0.17014
7006.12664,0.27309
7008.05511,0.31578
7009.98358,0.31835
7011.91204,0.27380
7013.84051,0.20037
7015.76898,0.19127
7017.69745,0.20554
7019.62592,0.15245
7021.55439,0.07988
7023.48286,0.05160
7025.41133,0.06223
7027.33979,0.06836
7029.26826,0.10916
7031.19673,0.18568
7033.12520,0.16678
7035.05367,0.09991
7036.98214,0.11684
7038.91061,0.17218
7040.83907,0.22168
7042.76754,0.21779
7044.69601,0.10191
7046.62448,-0.00841
7048.55295,0.01457
7050.48142,0.09646
7052.40989,0.15694
7054.33836,0.15575
7056.26682,0.10579
7058.19529,0.09968
7060.12376,0.07874
7062.05223,-0.01733
7063.98070,-0.07088
7065.90917,-0.02832
7067.83764,0.02071
7069.76610,-0.01064
7071.69457,-0.11041
7073.62304,-0.13710
7075.55151,-0.11280
7077.47998,-0.08899
7079.40845,-0.00321
7081.33692,0.07217
7083.26539,0.03081
7085.19385,-0.01914
7087.12232,-0.01443
7089.05079,0.02551
7090.97926,0.05725
7092.90773,0.09238
7094.83620,0.10882
7096.76467,0.06220
7098.69313,0.01523
7100.62160,0.01637
7102.55007,-0.03192
7104.47854,-0.15512
7106.40701,-0.20515
7108.33548,-0.11710
7110.26395,0.00414
7112.19242,0.07892
7114.12088,0.06541
7116.04935,0.03725
7117.97782,0.07041
7119.90629,0.07937
7121.83476,0.05118
7123.76323,0.04326
7125.69170,0.03704
7127.62016,0.02478
7129.54863,0.04351
7131.47710,0.12414
7133.40557,0.24927
7135.33404,0.32130
7137.26251,0.26122
7139.19098,0.15277
7141.11944,0.15012
7143.04791,0.23808
7144.97638,0.26182
7146.90485,0.20864
7148.83332,0.21565
7150.76179,0.19305
7152.69026,0.05472
7154.61873,-0.04651
7156.54719,-0.01993
7158.47566,0.01184
7160.40413,-0.03317
7162.33260,-0.09670
7164.26107,-0.12325
7166.18954,-0.08896
7168.11801,0.01602
7170.04647,0.10440
7171.97494,0.13688
7173.90341,0.18912
7175.83188,0.24737
7177.76035,0.21604
7179.68882,0.12718
7181.61729,0.05191
7183.54576,0.05360
7185.47422,0.12360
7187.40269,0.13689
7189.33116,0.09633
7191.25963,0.08203
7193.18810,0.14203
7195.11657,0.20863
7197.04504,0.18817
7198.97350,0.12101
7200.90197,0.11888
7202.83044,0.19595
7204.75891,0.24952
7206.68738,0.16197
7208.61585,0.01969
7210.54432,-0.06288
7212.47279,-0.00448
7214.40125,0.18544
7216.32972,0.36035
7218.25819,0.27882
7220.18666,0.04208
7222.11513,-0.06512
7224.04360,-0.02907
7225.97207,0.10060
7227.90053,0.15237
7229.82900,0.00380
7231.75747,-0.18923
7233.68594,-0.25934
7235.61441,-0.23176
7237.54288,-0.20127
7239.47135,-0.29678
7241.39982,-0.39789
7243.32828,-0.24656
7245.25675,0.02842
7247.18522,0.14802
7249.11369,0.16951
7251.04216,0.22583
7252.97063,0.23523
7254.89910,0.09009
7256.82756,-0.01545
7258.75603,-0.01602
7260.68450,0.04607
7262.61297,0.10610
7264.54144,0.05976
7266.46991,0.01721
7268.39838,0.13843
7270.32685,0.37235
7272.25531,0.56108
7274.18378,0.53579
7276.11225,0.37341
7278.04072,0.19123
7279.96919,0.08749
7281.89766,0.08336
7283.82613,0.06277
7285.75459,0.06239
7287.68306,0.17249
7289.61153,0.27731
7291.54000,0.19191
7293.46847,0.08388
7295.39694,0.10622
7297.32541,0.09338
7299.25387,-0.01973
7301.18234,-0.10559
7303.11081,-0.12431
7305.03928,-0.13686
7306.96775,-0.15552
7308.89622,-0.24506
7310.82469,-0.27162
7312.75316,-0.09623
7314.68162,0.10995
7316.61009,0.21831
7318.53856,0.18386
7320.46703,0.04805
7322.39550,-0.05227
7324.32397,0.02217
7326.25244,0.20165
7328.18090,0.33879
7330.10937,0.31002
7332.03784,0.19748
7333.96631,0.07822
7335.89478,-0.05010
7337.82325,-0.06315
7339.75172,0.18798
7341.68019,0.48647
7343.60865,0.58671
7345.53712,0.62167
7347.46559,0.69437
7349.39406,0.70764
7351.32253,0.55904
7353.25100,0.33187
7355.17947,0.09119
7357.10793,-0.08664
7359.03640,-0.07340
7360.96487,0.06357
7362.89334,0.14829
7364.82181,0.07284
7366.75028,0.04757
7368.67875,0.22273
7370.60722,0.27828
7372.53568,0.10809
7374.46415,-0.04472
7376.39262,-0.00226
7378.32109,0.04431
7380.24956,0.01819
7382.17803,0.00466
7384.10650,0.11119
7386.03496,0.30894
7387.96343,0.32095
7389.89190,0.14548
7391.82037,0.04725
7393.74884,0.01959
7395.67731,-0.03580
7397.60578,-0.06291
7399.53425,-0.03432
7401.46271,0.06712
7403.39118,0.24090
7405.31965,0.33145
7407.24812,0.32209
7409.17659,0.32633
7411.10506,0.30710
7413.03353,0.19968
7414.96199,0.04514
7416.89046,-0.04511
7418.81893,0.01589
7420.74740,0.11855
7422.67587,0.06748
7424.60434,-0.06450
7426.53281,-0.15461
7428.46128,-0.15942
7430.38974,-0.01833
7432.31821,0.05354
7434.24668,-0.09537
7436.17515,-0.13115
7438.10362,0.16555
7440.03209,0.42557
7441.96056,0.26533
7443.88902,-0.09114
7445.81749,-0.19225
7447.74596,0.08286
7449.67443,0.47826
7451.60290,0.53485
7453.53137,0.26978
7455.45984,0.05927
7457.38831,-0.03137
7459.31677,-0.02948
7461.24524,0.00135
7463.17371,-0.01896
7465.10218,-0.07854
7467.03065,-0.10389
7468.95912,-0.00398
7470.88759,0.12267
7472.81605,0.07875
7474.74452,-0.01999
7476.67299,-0.05058
7478.60146,-0.02319
7480.52993,0.11033
7482.45840,0.18434
7484.38687,0.08673
7486.31533,-0.01986
7488.24380,-0.07644
7490.17227,-0.06497
7492.10074,0.02593
7494.02921,0.12813
7495.95768,0.19675
7497.88615,0.24661
