399.19301,0.34349
401.12148,0.36404
403.04995,0.20770
404.97842,-0.13351
406.90689,-0.36321
408.83536,-0.25092
410.76382,0.03743
412.69229,0.12337
414.62076,-0.00892
416.54923,-0.19516
418.47770,-0.28994
420.40617,-0.11386
422.33464,0.08252
424.26311,0.16159
426.19157,0.16251
428.12004,0.11731
430.04851,0.03588
431.97698,-0.03799
433.90545,-0.07168
435.83392,-0.01401
437.76239,0.09456
439.69085,0.14285
441.61932,0.05834
443.54779,-0.11063
445.47626,-0.14045
447.40473,-0.02198
449.33320,0.03653
451.26167,0.00306
453.19013,-0.00080
455.11860,0.05292
457.04707,0.08133
458.97554,0.07015
460.90401,0.09802
462.83248,0.13018
464.76095,0.09642
466.68942,0.05702
468.61788,0.05323
470.54635,0.07034
472.47482,0.16155
474.40329,0.23681
476.33176,0.13586
478.26023,0.09825
480.18870,0.16044
482.11716,0.19750
484.04563,0.19545
485.97410,0.20310
487.90257,0.18347
489.83104,0.14509
491.75951,0.13357
493.68798,0.12333
495.61645,0.08771
497.54491,0.07363
499.47338,0.09671
501.40185,0.12559
503.33032,0.15860
505.25879,0.19723
507.18726,0.20724
509.11573,0.20040
511.04419,0.21163
512.97266,0.19725
514.90113,0.15114
516.82960,0.12041
518.75807,0.12291
520.68654,0.14848
522.61501,0.17351
524.54348,0.18547
526.47194,0.18706
528.40041,0.16735
530.32888,0.13237
532.25735,0.11464
534.18582,0.12654
536.11429,0.15722
538.04276,0.17276
539.97122,0.15972
541.89969,0.12416
543.82816,0.07059
545.75663,0.03830
547.68510,0.04258
549.61357,0.02614
551.54204,-0.08075
553.47051,-0.19478
555.39897,-0.16532
557.32744,-0.03776
559.25591,0.05327
561.18438,0.09095
563.11285,0.09630
565.04132,0.07096
566.96979,0.05599
568.89825,0.08890
570.82672,0.11458
572.75519,0.10297
574.68366,0.08147
576.61213,0.05117
578.54060,0.03191
580.46907,0.04903
582.39754,0.07513
584.32600,0.07269
586.25447,0.06024
588.18294,0.07866
590.11141,0.10706
592.03988,0.10962
593.96835,0.10617
595.89682,0.10576
597.82528,0.10208
599.75375,0.11930
601.68222,0.14069
603.61069,0.13199
605.53916,0.12881
607.46763,0.14267
609.39610,0.14856
611.32456,0.16511
613.25303,0.19840
615.18150,0.21159
617.10997,0.18841
619.03844,0.15204
620.96691,0.12955
622.89538,0.13101
624.82385,0.15246
626.75231,0.17552
628.68078,0.17106
630.60925,0.13392
632.53772,0.10495
634.46619,0.11476
636.39466,0.14097
638.32313,0.16281
640.25159,0.17351
642.18006,0.16582
644.10853,0.15160
646.03700,0.14891
647.96547,0.15225
649.89394,0.14799
651.82241,0.14536
653.75088,0.15198
655.67934,0.15137
657.60781,0.14452
659.53628,0.14879
661.46475,0.15056
663.39322,0.14107
665.32169,0.13273
667.25016,0.12140
669.17862,0.10311
671.10709,0.09549
673.03556,0.09128
674.96403,0.09296
676.89250,0.10381
678.82097,0.10356
680.74944,0.09665
682.67791,0.10101
684.60637,0.10112
686.53484,0.08606
688.46331,0.07172
690.39178,0.07139
692.32025,0.07836
694.24872,0.09555
696.17719,0.12161
698.10565,0.12996
700.03412,0.11702
701.96259,0.10565
703.89106,0.10995
705.81953,0.12931
707.74800,0.15820
709.67647,0.17504
711.60494,0.16490
713.53340,0.15224
715.46187,0.15471
717.39034,0.16212
719.31881,0.16434
721.24728,0.15910
723.17575,0.15436
725.10422,0.15489
727.03268,0.15529
728.96115,0.15578
730.88962,0.15848
732.81809,0.15797
734.74656,0.15480
736.67503,0.15337
738.60350,0.14826
740.53197,0.13932
742.46043,0.13616
744.38890,0.13667
746.31737,0.13901
748.24584,0.14883
750.17431,0.15794
752.10278,0.15489
754.03125,0.14520
755.95971,0.13775
757.88818,0.13123
759.81665,0.12904
761.74512,0.13533
763.67359,0.14282
765.60206,0.14252
767.53053,0.13668
769.45900,0.13631
771.38746,0.14100
773.31593,0.14040
775.24440,0.12919
777.17287,0.11491
779.10134,0.10918
781.02981,0.11069
782.95828,0.11883
784.88674,0.13492
786.81521,0.14572
788.74368,0.14310
790.67215,0.13869
792.60062,0.13450
794.52909,0.12562
796.45756,0.11802
798.38602,0.11234
800.31449,0.10822
802.24296,0.11646
804.17143,0.13522
806.09990,0.14189
808.02837,0.13260
809.95684,0.12829
811.88531,0.13402
813.81377,0.13877
815.74224,0.14598
817.67071,0.15568
819.59918,0.14722
821.52765,0.12785
823.45612,0.12326
825.38459,0.12971
827.31305,0.13113
829.24152,0.12772
831.16999,0.13072
833.09846,0.13973
835.02693,0.14563
836.95540,0.14392
838.88387,0.14030
840.81234,0.14362
842.74080,0.14834
844.66927,0.14846
846.59774,0.15273
848.52621,0.16458
850.45468,0.16918
852.38315,0.16073
854.31162,0.15504
856.24008,0.15827
858.16855,0.15880
860.09702,0.15381
862.02549,0.14867
863.95396,0.14123
865.88243,0.13701
867.81090,0.13647
869.73937,0.12914
871.66783,0.12344
873.59630,0.12930
875.52477,0.14280
877.45324,0.15390
879.38171,0.15465
881.31018,0.15179
883.23865,0.14975
885.16711,0.14364
887.09558,0.13724
889.02405,0.13658
890.95252,0.13900
892.88099,0.14017
894.80946,0.13922
896.73793,0.13690
898.66640,0.13434
900.59486,0.13648
902.52333,0.14056
904.45180,0.13647
906.38027,0.13229
908.30874,0.13867
910.23721,0.14772
912.16568,0.15109
914.09414,0.14898
916.02261,0.14458
917.95108,0.13938
919.87955,0.13488
921.80802,0.13597
923.73649,0.14159
925.66496,0.14806
927.59343,0.15376
929.52189,0.15127
931.45036,0.14391
933.37883,0.14410
935.30730,0.14861
937.23577,0.14927
939.16424,0.15014
941.09271,0.15466
943.02117,0.15338
944.94964,0.14649
946.87811,0.14435
948.80658,0.14549
950.73505,0.14873
952.66352,0.15335
954.59199,0.15601
956.52045,0.15717
958.44892,0.15660
960.37739,0.15845
962.30586,0.16416
964.23433,0.16525
966.16280,0.15720
968.09127,0.14858
970.01974,0.15021
971.94820,0.15900
973.87667,0.16319
975.80514,0.15650
977.73361,0.14680
979.66208,0.14752
981.59055,0.15545
983.51902,0.15856
985.44748,0.15508
987.37595,0.15163
989.30442,0.15306
991.23289,0.15327
993.16136,0.14814
995.08983,0.14578
997.01830,0.15121
998.94677,0.15858
1000.87523,0.15769
1002.80370,0.14707
1004.73217,0.13722
1006.66064,0.13633
1008.58911,0.14335
1010.51758,0.14983
1012.44605,0.14733
1014.37451,0.14198
1016.30298,0.14503
1018.23145,0.15159
1020.15992,0.15378
1022.08839,0.15259
1024.01686,0.14938
1025.94533,0.14588
1027.87380,0.14324
1029.80226,0.14081
1031.73073,0.13872
1033.65920,0.14296
1035.58767,0.15615
1037.51614,0.16280
1039.44461,0.15536
1041.37308,0.14749
1043.30154,0.14817
1045.23001,0.15688
1047.15848,0.16509
1049.08695,0.16505
1051.01542,0.16638
1052.94389,0.17550
1054.87236,0.18189
1056.80083,0.17835
1058.72929,0.17236
1060.65776,0.17469
1062.58623,0.17951
1064.51470,0.17589
1066.44317,0.16879
1068.37164,0.16608
1070.30011,0.16581
1072.22857,0.16460
1074.15704,0.16630
1076.08551,0.17191
1078.01398,0.17555
1079.94245,0.17420
1081.87092,0.16609
1083.79939,0.15564
1085.72786,0.15041
1087.65632,0.14856
1089.58479,0.14712
1091.51326,0.14858
1093.44173,0.15413
1095.37020,0.15896
1097.29867,0.16005
1099.22714,0.16186
1101.15560,0.16753
1103.08407,0.17184
1105.01254,0.16975
1106.94101,0.16571
1108.86948,0.16317
1110.79795,0.15967
1112.72642,0.15465
1114.65489,0.15040
1116.58335,0.14851
1118.51182,0.14764
1120.44029,0.14649
1122.36876,0.14749
1124.29723,0.15330
1126.22570,0.15970
1128.15417,0.16081
1130.08263,0.15898
1132.01110,0.15776
1133.93957,0.15592
1135.86804,0.15350
1137.79651,0.15029
1139.72498,0.14691
1141.65345,0.14985
1143.58191,0.15598
1145.51038,0.15490
1147.43885,0.15414
1149.36732,0.16282
1151.29579,0.17114
1153.22426,0.17164
1155.15273,0.16832
1157.08120,0.16602
1159.00966,0.16792
1160.93813,0.17064
1162.86660,0.16715
1164.79507,0.16054
1166.72354,0.15791
1168.65201,0.15839
1170.58048,0.16130
1172.50894,0.16775
1174.43741,0.17299
1176.36588,0.17313
1178.29435,0.16840
1180.22282,0.16030
1182.15129,0.15540
1184.07976,0.15698
1186.00823,0.15933
1187.93669,0.15972
1189.86516,0.15980
1191.79363,0.16151
1193.72210,0.16571
1195.65057,0.17036
1197.57904,0.17543
1199.50751,0.17685
1201.43597,0.17030
1203.36444,0.16525
1205.29291,0.16498
1207.22138,0.16090
1209.14985,0.15555
1211.07832,0.15461
1213.00679,0.15535
1214.93526,0.15613
1216.86372,0.15826
1218.79219,0.16103
1220.72066,0.16146
1222.64913,0.15966
1224.57760,0.16023
1226.50607,0.16448
1228.43454,0.16723
1230.36300,0.16635
1232.29147,0.16509
1234.21994,0.16528
1236.14841,0.16724
1238.07688,0.16741
1240.00535,0.16400
1241.93382,0.16233
1243.86229,0.16051
1245.79075,0.15410
1247.71922,0.15263
1249.64769,0.16188
1251.57616,0.17040
1253.50463,0.17144
1255.43310,0.17031
1257.36157,0.16830
1259.29003,0.16402
1261.21850,0.16212
1263.14697,0.16495
1265.07544,0.16775
1267.00391,0.16710
1268.93238,0.16526
1270.86085,0.16649
1272.78932,0.16961
1274.71778,0.17142
1276.64625,0.17377
1278.57472,0.17618
1280.50319,0.17445
1282.43166,0.17143
1284.36013,0.17196
1286.28860,0.17269
1288.21706,0.17203
1290.14553,0.17218
1292.07400,0.17110
1294.00247,0.16784
1295.93094,0.16418
1297.85941,0.16061
1299.78788,0.15677
1301.71634,0.14818
1303.64481,0.13270
1305.57328,0.12810
1307.50175,0.14642
1309.43022,0.16639
1311.35869,0.17220
1313.28716,0.17312
1315.21563,0.17497
1317.14409,0.17422
1319.07256,0.17134
1321.00103,0.17036
1322.92950,0.16891
1324.85797,0.16194
1326.78644,0.15649
1328.71491,0.15890
1330.64337,0.15871
1332.57184,0.15535
1334.50031,0.15697
1336.42878,0.15872
1338.35725,0.15913
1340.28572,0.15661
1342.21419,0.14729
1344.14266,0.14004
1346.07112,0.14405
1347.99959,0.15771
1349.92806,0.16624
1351.85653,0.16363
1353.78500,0.16140
1355.71347,0.16465
1357.64194,0.16722
1359.57040,0.16835
1361.49887,0.17300
1363.42734,0.17523
1365.35581,0.17311
1367.28428,0.17518
1369.21275,0.17769
1371.14122,0.17681
1373.06969,0.17819
1374.99815,0.18418
1376.92662,0.18791
1378.85509,0.18454
1380.78356,0.17905
1382.71203,0.17871
1384.64050,0.18527
1386.56897,0.19292
1388.49743,0.19145
1390.42590,0.18537
1392.35437,0.18451
1394.28284,0.18827
1396.21131,0.19223
1398.13978,0.19195
1400.06825,0.18520
1401.99672,0.17954
1403.92518,0.18279
1405.85365,0.18957
1407.78212,0.18799
1409.71059,0.18033
1411.63906,0.17550
1413.56753,0.17580
1415.49600,0.18123
1417.42446,0.19231
1419.35293,0.19869
1421.28140,0.19397
1423.20987,0.18676
1425.13834,0.18016
1427.06681,0.17875
1428.99528,0.18292
1430.92375,0.18648
1432.85221,0.18609
1434.78068,0.18533
1436.70915,0.18438
1438.63762,0.18218
1440.56609,0.18320
1442.49456,0.18628
1444.42303,0.18776
1446.35149,0.18544
1448.27996,0.18086
1450.20843,0.18040
1452.13690,0.18481
1454.06537,0.19408
1455.99384,0.20941
1457.92231,0.21259
1459.85077,0.19869
1461.77924,0.19260
1463.70771,0.19572
1465.63618,0.19865
1467.56465,0.19635
1469.49312,0.19715
1471.42159,0.20503
1473.35006,0.20925
1475.27852,0.20063
1477.20699,0.19277
1479.13546,0.18892
1481.06393,0.18513
1482.99240,0.18549
1484.92087,0.19348
1486.84934,0.20295
1488.77780,0.20705
1490.70627,0.20248
1492.63474,0.19465
1494.56321,0.19285
1496.49168,0.19892
1498.42015,0.20159
1500.34862,0.19735
1502.27709,0.19669
1504.20555,0.20540
1506.13402,0.22757
1508.06249,0.23324
1509.99096,0.21261
1511.91943,0.20011
1513.84790,0.20156
1515.77637,0.21034
1517.70483,0.21451
1519.63330,0.21342
1521.56177,0.21166
1523.49024,0.20884
1525.41871,0.20981
1527.34718,0.20891
1529.27565,0.20337
1531.20412,0.20297
1533.13258,0.20572
1535.06105,0.20217
1536.98952,0.20382
1538.91799,0.22233
1540.84646,0.23962
1542.77493,0.22779
1544.70340,0.20955
1546.63186,0.19550
1548.56033,0.19254
1550.48880,0.19707
1552.41727,0.20032
1554.34574,0.20327
1556.27421,0.20922
1558.20268,0.21250
1560.13115,0.19907
1562.05961,0.19099
1563.98808,0.19069
1565.91655,0.19255
1567.84502,0.19665
1569.77349,0.19930
1571.70196,0.19526
1573.63043,0.19341
1575.55889,0.19423
1577.48736,0.18735
1579.41583,0.18010
1581.34430,0.17767
1583.27277,0.17694
1585.20124,0.17752
1587.12971,0.17903
1589.05818,0.18176
1590.98664,0.18616
1592.91511,0.19006
1594.84358,0.19053
1596.77205,0.18681
1598.70052,0.18340
1600.62899,0.18263
1602.55746,0.18152
1604.48592,0.18043
1606.41439,0.18025
1608.34286,0.18074
1610.27133,0.18265
1612.19980,0.18586
1614.12827,0.19305
1616.05674,0.20184
1617.98521,0.20004
1619.91367,0.19476
1621.84214,0.19468
1623.77061,0.19631
1625.69908,0.19702
1627.62755,0.19616
1629.55602,0.19230
1631.48449,0.19224
1633.41295,0.20161
1635.34142,0.21662
1637.26989,0.21783
1639.19836,0.20750
1641.12683,0.20033
1643.05530,0.20084
1644.98377,0.21110
1646.91223,0.22436
1648.84070,0.22231
1650.76917,0.21658
1652.69764,0.21795
1654.62611,0.21420
1656.55458,0.20527
1658.48305,0.20122
1660.41152,0.20189
1662.33998,0.20475
1664.26845,0.20555
1666.19692,0.20591
1668.12539,0.20971
1670.05386,0.21204
1671.98233,0.20724
1673.91080,0.20151
1675.83926,0.19873
1677.76773,0.19871
1679.69620,0.20068
1681.62467,0.20685
1683.55314,0.21691
1685.48161,0.21836
1687.41008,0.21454
1689.33855,0.21118
1691.26701,0.20456
1693.19548,0.20084
1695.12395,0.20521
1697.05242,0.21345
1698.98089,0.22188
1700.90936,0.22550
1702.83783,0.22185
1704.76629,0.21692
1706.69476,0.20867
1708.62323,0.20013
1710.55170,0.19705
1712.48017,0.20084
1714.40864,0.21317
1716.33711,0.23008
1718.26558,0.22486
1720.19404,0.20548
1722.12251,0.19643
1724.05098,0.19381
1725.97945,0.19246
1727.90792,0.19312
1729.83639,0.19682
1731.76486,0.20380
1733.69332,0.20850
1735.62179,0.20419
1737.55026,0.20133
1739.47873,0.20097
1741.40720,0.20013
1743.33567,0.20089
1745.26414,0.20325
1747.19261,0.20574
1749.12107,0.20578
1751.04954,0.20159
1752.97801,0.19658
1754.90648,0.19379
1756.83495,0.19302
1758.76342,0.19343
1760.69189,0.19549
1762.62035,0.19536
1764.54882,0.19214
1766.47729,0.19198
1768.40576,0.19646
1770.33423,0.20323
1772.26270,0.20653
1774.19117,0.20290
1776.11964,0.19906
1778.04810,0.19713
1779.97657,0.19455
1781.90504,0.19027
1783.83351,0.18755
1785.76198,0.18781
1787.69045,0.19154
1789.61892,0.20028
1791.54738,0.20940
1793.47585,0.20889
1795.40432,0.20295
1797.33279,0.19915
1799.26126,0.19842
1801.18973,0.19884
1803.11820,0.19789
1805.04666,0.19618
1806.97513,0.19376
1808.90360,0.19127
1810.83207,0.19129
1812.76054,0.19237
1814.68901,0.19153
1816.61748,0.19060
1818.54595,0.19216
1820.47441,0.19362
1822.40288,0.19355
1824.33135,0.19345
1826.25982,0.19312
1828.18829,0.19480
1830.11676,0.19763
1832.04523,0.19588
1833.97369,0.19311
1835.90216,0.19275
1837.83063,0.19161
1839.75910,0.18968
1841.68757,0.19217
1843.61604,0.19812
1845.54451,0.19918
1847.47298,0.19631
1849.40144,0.19412
1851.32991,0.19331
1853.25838,0.19400
1855.18685,0.19428
1857.11532,0.19376
1859.04379,0.19386
1860.97226,0.19388
1862.90072,0.19301
1864.82919,0.19351
1866.75766,0.19831
1868.68613,0.20325
1870.61460,0.19850
1872.54307,0.18861
1874.47154,0.18373
1876.40001,0.18447
1878.32847,0.18610
1880.25694,0.18747
1882.18541,0.18925
1884.11388,0.19036
1886.04235,0.19042
1887.97082,0.19307
1889.89929,0.19712
1891.82775,0.19556
1893.75622,0.19182
1895.68469,0.19030
1897.61316,0.18942
1899.54163,0.19081
1901.47010,0.19408
1903.39857,0.19496
1905.32704,0.19365
1907.25550,0.19297
1909.18397,0.19332
1911.11244,0.19353
1913.04091,0.19404
1914.96938,0.19598
1916.89785,0.19816
1918.82632,0.19830
1920.75478,0.19750
1922.68325,0.19562
1924.61172,0.19096
1926.54019,0.18826
1928.46866,0.18892
1930.39713,0.18891
1932.32560,0.18898
1934.25407,0.19000
1936.18253,0.18926
1938.11100,0.18954
1940.03947,0.19452
1941.96794,0.19796
1943.89641,0.19454
1945.82488,0.19104
1947.75335,0.19127
1949.68181,0.19192
1951.61028,0.19181
1953.53875,0.19199
1955.46722,0.19209
1957.39569,0.19086
1959.32416,0.18827
1961.25263,0.18784
1963.18110,0.19170
1965.10956,0.19524
1967.03803,0.19359
1968.96650,0.19005
1970.89497,0.19095
1972.82344,0.19442
1974.75191,0.19518
1976.68038,0.19345
1978.60884,0.19189
1980.53731,0.19008
1982.46578,0.18777
1984.39425,0.18729
1986.32272,0.18801
1988.25119,0.18776
1990.17966,0.18784
1992.10812,0.18878
1994.03659,0.18813
1995.96506,0.18681
1997.89353,0.18728
1999.82200,0.18863
2001.75047,0.19019
2003.67894,0.19123
2005.60741,0.19046
2007.53587,0.18966
2009.46434,0.19015
2011.39281,0.19148
2013.32128,0.19333
2015.24975,0.19535
2017.17822,0.19652
2019.10669,0.19509
2021.03515,0.19325
2022.96362,0.19426
2024.89209,0.19498
2026.82056,0.19202
2028.74903,0.18961
2030.67750,0.19082
2032.60597,0.19175
2034.53444,0.19052
2036.46290,0.18881
2038.39137,0.18857
2040.31984,0.19110
2042.24831,0.19475
2044.17678,0.19663
2046.10525,0.19398
2048.03372,0.18775
2049.96218,0.18255
2051.89065,0.18051
2053.81912,0.18162
2055.74759,0.18535
2057.67606,0.18943
2059.60453,0.19204
2061.53300,0.19394
2063.46147,0.19540
2065.38993,0.19624
2067.31840,0.19643
2069.24687,0.19391
2071.17534,0.18995
2073.10381,0.18915
2075.03228,0.19141
2076.96075,0.19294
2078.88921,0.19197
2080.81768,0.19028
2082.74615,0.18959
2084.67462,0.18960
2086.60309,0.19060
2088.53156,0.19159
2090.46003,0.19095
2092.38850,0.19020
2094.31696,0.19107
2096.24543,0.19170
2098.17390,0.18925
2100.10237,0.18696
2102.03084,0.18847
2103.95931,0.19038
2105.88778,0.19008
2107.81624,0.18959
2109.74471,0.19022
2111.67318,0.19071
2113.60165,0.19054
2115.53012,0.19014
2117.45859,0.18982
2119.38706,0.19117
2121.31553,0.19389
2123.24399,0.19509
2125.17246,0.19552
2127.10093,0.19668
2129.02940,0.19584
2130.95787,0.19291
2132.88634,0.19123
2134.81481,0.19200
2136.74327,0.19304
2138.67174,0.19222
2140.60021,0.19091
2142.52868,0.19056
2144.45715,0.19194
2146.38562,0.19443
2148.31409,0.19454
2150.24255,0.19158
2152.17102,0.18988
2154.09949,0.19193
2156.02796,0.19437
2157.95643,0.19475
2159.88490,0.19514
2161.81337,0.19687
2163.74184,0.19731
2165.67030,0.19563
2167.59877,0.19404
2169.52724,0.19201
2171.45571,0.19020
2173.38418,0.19092
2175.31265,0.19234
2177.24112,0.19311
2179.16958,0.19500
2181.09805,0.19697
2183.02652,0.19570
2184.95499,0.19149
2186.88346,0.18818
2188.81193,0.18802
2190.74040,0.18978
2192.66887,0.19154
2194.59733,0.19142
2196.52580,0.18858
2198.45427,0.18596
2200.38274,0.18807
2202.31121,0.19289
2204.23968,0.19381
2206.16815,0.19109
2208.09661,0.18979
2210.02508,0.19041
2211.95355,0.19046
2213.88202,0.18941
2215.81049,0.18900
2217.73896,0.19026
2219.66743,0.19102
2221.59590,0.19094
2223.52436,0.19283
2225.45283,0.19527
2227.38130,0.19474
2229.30977,0.19236
2231.23824,0.19274
2233.16671,0.19514
2235.09518,0.19495
2237.02364,0.19371
2238.95211,0.19458
2240.88058,0.19545
2242.80905,0.19341
2244.73752,0.19148
2246.66599,0.19191
2248.59446,0.19237
2250.52293,0.19340
2252.45139,0.19438
2254.37986,0.19420
2256.30833,0.19451
2258.23680,0.19436
2260.16527,0.19187
2262.09374,0.18768
2264.02221,0.18630
2265.95067,0.19041
2267.87914,0.19378
2269.80761,0.19362
2271.73608,0.19499
2273.66455,0.19588
2275.59302,0.19328
2277.52149,0.19182
2279.44996,0.19296
2281.37842,0.19360
2283.30689,0.19237
2285.23536,0.18996
2287.16383,0.18707
2289.09230,0.18484
2291.02077,0.18459
2292.94924,0.18535
2294.87770,0.18592
2296.80617,0.18580
2298.73464,0.18395
2300.66311,0.18176
2302.59158,0.18094
2304.52005,0.18037
2306.44852,0.18126
2308.37699,0.18509
2310.30545,0.18823
2312.23392,0.18651
2314.16239,0.17917
2316.09086,0.17357
2318.01933,0.17932
2319.94780,0.19175
2321.87627,0.19644
2323.80473,0.18691
2325.73320,0.17260
2327.66167,0.16713
2329.59014,0.17135
2331.51861,0.18043
2333.44708,0.18790
2335.37555,0.18668
2337.30401,0.18206
2339.23248,0.18990
2341.16095,0.20926
2343.08942,0.21257
2345.01789,0.19791
2346.94636,0.19146
2348.87483,0.19252
2350.80330,0.19129
2352.73176,0.19113
2354.66023,0.20467
2356.58870,0.21533
2358.51717,0.20003
2360.44564,0.18503
2362.37411,0.18067
2364.30258,0.18192
2366.23104,0.19080
2368.15951,0.18842
2370.08798,0.17577
2372.01645,0.17296
2373.94492,0.18133
2375.87339,0.19085
2377.80186,0.19413
2379.73033,0.19138
2381.65879,0.18755
2383.58726,0.18671
2385.51573,0.18947
2387.44420,0.19252
2389.37267,0.19460
2391.30114,0.19614
2393.22961,0.19453
2395.15807,0.19152
2397.08654,0.19301
2399.01501,0.19672
2400.94348,0.19673
2402.87195,0.19467
2404.80042,0.19422
2406.72889,0.19470
2408.65736,0.19398
2410.58582,0.19230
2412.51429,0.19308
2414.44276,0.19555
2416.37123,0.19419
2418.29970,0.19062
2420.22817,0.19078
2422.15664,0.19346
2424.08510,0.19433
2426.01357,0.19307
2427.94204,0.19160
2429.87051,0.18997
2431.79898,0.18842
2433.72745,0.18916
2435.65592,0.19159
2437.58439,0.19338
2439.51285,0.19415
2441.44132,0.19454
2443.36979,0.19602
2445.29826,0.19726
2447.22673,0.19530
2449.15520,0.19266
2451.08367,0.19404
2453.01213,0.19776
2454.94060,0.19869
2456.86907,0.19714
2458.79754,0.19627
2460.72601,0.19660
2462.65448,0.19727
2464.58295,0.19669
2466.51142,0.19489
2468.43988,0.19487
2470.36835,0.19691
2472.29682,0.19726
2474.22529,0.19506
2476.15376,0.19333
2478.08223,0.19350
2480.01070,0.19558
2481.93916,0.19761
2483.86763,0.19775
2485.79610,0.19807
2487.72457,0.19789
2489.65304,0.19626
2491.58151,0.19668
2493.50998,0.19819
2495.43844,0.19606
2497.36691,0.19225
2499.29538,0.19251
2501.22385,0.19533
2503.15232,0.19606
2505.08079,0.19529
2507.00926,0.19458
2508.93773,0.19387
2510.86619,0.19394
2512.79466,0.19512
2514.72313,0.19516
2516.65160,0.19306
2518.58007,0.19165
2520.50854,0.19164
2522.43701,0.19041
2524.36547,0.18860
2526.29394,0.18985
2528.22241,0.19338
2530.15088,0.19522
2532.07935,0.19433
2534.00782,0.19080
2535.93629,0.18641
2537.86476,0.18553
2539.79322,0.18843
2541.72169,0.19098
2543.65016,0.19145
2545.57863,0.19162
2547.50710,0.19169
2549.43557,0.18972
2551.36404,0.18712
2553.29250,0.18765
2555.22097,0.19150
2557.14944,0.19502
2559.07791,0.19544
2561.00638,0.19422
2562.93485,0.19485
2564.86332,0.19679
2566.79179,0.19656
2568.72025,0.19538
2570.64872,0.19605
2572.57719,0.19627
2574.50566,0.19429
2576.43413,0.19267
2578.36260,0.19374
2580.29107,0.19750
2582.21953,0.20008
2584.14800,0.19859
2586.07647,0.19656
2588.00494,0.19727
2589.93341,0.19784
2591.86188,0.19587
2593.79035,0.19419
2595.71882,0.19399
2597.64728,0.19491
2599.57575,0.19631
2601.50422,0.19530
2603.43269,0.19316
2605.36116,0.19173
2607.28963,0.19072
2609.21810,0.19310
2611.14656,0.19814
2613.07503,0.19985
2615.00350,0.19722
2616.93197,0.19414
2618.86044,0.19380
2620.78891,0.19547
2622.71738,0.19474
2624.64585,0.19304
2626.57431,0.19560
2628.50278,0.19901
2630.43125,0.19794
2632.35972,0.19404
2634.28819,0.19120
2636.21666,0.19158
2638.14513,0.19561
2640.07359,0.20056
2642.00206,0.20106
2643.93053,0.19702
2645.85900,0.19393
2647.78747,0.19417
2649.71594,0.19578
2651.64441,0.19647
2653.57288,0.19770
2655.50134,0.20173
2657.42981,0.20438
2659.35828,0.20194
2661.28675,0.19812
2663.21522,0.19698
2665.14369,0.19881
2667.07216,0.20131
2669.00062,0.20203
2670.92909,0.20208
2672.85756,0.20280
2674.78603,0.20178
2676.71450,0.19954
2678.64297,0.19918
2680.57144,0.19932
2682.49990,0.19819
2684.42837,0.19719
2686.35684,0.19701
2688.28531,0.19645
2690.21378,0.19510
2692.14225,0.19540
2694.07072,0.19910
2695.99919,0.20348
2697.92765,0.20618
2699.85612,0.20700
2701.78459,0.20437
2703.71306,0.19984
2705.64153,0.19813
2707.57000,0.20046
2709.49847,0.20434
2711.42693,0.20547
2713.35540,0.20194
2715.28387,0.19766
2717.21234,0.19627
2719.14081,0.19722
2721.06928,0.19977
2722.99775,0.20318
2724.92622,0.20605
2726.85468,0.20611
2728.78315,0.20098
2730.71162,0.19459
2732.64009,0.19248
2734.56856,0.19470
2736.49703,0.19937
2738.42550,0.20343
2740.35396,0.20477
2742.28243,0.20465
2744.21090,0.20427
2746.13937,0.20305
2748.06784,0.20220
2749.99631,0.20339
2751.92478,0.20482
2753.85325,0.20481
2755.78171,0.20484
2757.71018,0.20589
2759.63865,0.20617
2761.56712,0.20548
2763.49559,0.20542
2765.42406,0.20607
2767.35253,0.20738
2769.28099,0.20868
2771.20946,0.20828
2773.13793,0.20729
2775.06640,0.20954
2776.99487,0.21378
2778.92334,0.21507
2780.85181,0.21332
2782.78028,0.21080
2784.70874,0.20903
2786.63721,0.20922
2788.56568,0.21007
2790.49415,0.21038
2792.42262,0.21069
2794.35109,0.21066
2796.27956,0.21046
2798.20802,0.21086
2800.13649,0.21204
2802.06496,0.21296
2803.99343,0.21000
2805.92190,0.20393
2807.85037,0.19977
2809.77884,0.19864
2811.70731,0.20092
2813.63577,0.20429
2815.56424,0.20325
2817.49271,0.19974
2819.42118,0.19964
2821.34965,0.20301
2823.27812,0.20600
2825.20659,0.20728
2827.13505,0.20873
2829.06352,0.21015
2830.99199,0.21000
2832.92046,0.20952
2834.84893,0.20935
2836.77740,0.20826
2838.70587,0.20736
2840.63433,0.20882
2842.56280,0.21193
2844.49127,0.21283
2846.41974,0.20960
2848.34821,0.20676
2850.27668,0.20650
2852.20515,0.20623
2854.13362,0.20655
2856.06208,0.20666
2857.99055,0.20531
2859.91902,0.20499
2861.84749,0.20483
2863.77596,0.20405
2865.70443,0.20617
2867.63290,0.21053
2869.56136,0.21293
2871.48983,0.21162
2873.41830,0.20943
2875.34677,0.21035
2877.27524,0.21163
2879.20371,0.21045
2881.13218,0.21007
2883.06065,0.21004
2884.98911,0.20827
2886.91758,0.20957
2888.84605,0.21493
2890.77452,0.21668
2892.70299,0.21000
2894.63146,0.19901
2896.55993,0.19506
2898.48839,0.19995
2900.41686,0.20436
2902.34533,0.20367
2904.27380,0.19883
2906.20227,0.19740
2908.13074,0.20263
2910.05921,0.20576
2911.98768,0.20329
2913.91614,0.19948
2915.84461,0.19728
2917.77308,0.19696
2919.70155,0.19860
2921.63002,0.20171
2923.55849,0.20072
2925.48696,0.19385
2927.41542,0.19199
2929.34389,0.20053
2931.27236,0.20941
2933.20083,0.20974
2935.12930,0.20030
2937.05777,0.18924
2938.98624,0.19019
2940.91471,0.20026
2942.84317,0.20681
2944.77164,0.20383
2946.70011,0.19253
2948.62858,0.18941
2950.55705,0.19989
2952.48552,0.20547
2954.41399,0.19882
2956.34245,0.18551
2958.27092,0.17877
2960.19939,0.18848
2962.12786,0.20163
2964.05633,0.20502
2965.98480,0.19928
2967.91327,0.19262
2969.84174,0.19467
2971.77020,0.20143
2973.69867,0.20610
2975.62714,0.20562
2977.55561,0.19750
2979.48408,0.19408
2981.41255,0.20297
2983.34102,0.21140
2985.26948,0.20900
2987.19795,0.19970
2989.12642,0.19796
2991.05489,0.20818
2992.98336,0.21777
2994.91183,0.21809
2996.84030,0.21129
2998.76877,0.20457
3000.69723,0.20365
3002.62570,0.20766
3004.55417,0.21164
3006.48264,0.21085
3008.41111,0.20646
3010.33958,0.19829
3012.26805,0.17629
3014.19651,0.13781
3016.12498,0.10603
3018.05345,0.11731
3019.98192,0.16613
3021.91039,0.20473
3023.83886,0.21783
3025.76733,0.22108
3027.69579,0.22083
3029.62426,0.21945
3031.55273,0.21980
3033.48120,0.22112
3035.40967,0.21946
3037.33814,0.21356
3039.26661,0.21047
3041.19508,0.21358
3043.12354,0.21425
3045.05201,0.20676
3046.98048,0.19837
3048.90895,0.19989
3050.83742,0.20811
3052.76589,0.20955
3054.69436,0.19974
3056.62282,0.18898
3058.55129,0.19289
3060.47976,0.20709
3062.40823,0.21396
3064.33670,0.20595
3066.26517,0.19204
3068.19364,0.19133
3070.12211,0.20106
3072.05057,0.20614
3073.97904,0.20293
3075.90751,0.19684
3077.83598,0.20126
3079.76445,0.21367
3081.69292,0.21671
3083.62139,0.20461
3085.54985,0.19291
3087.47832,0.19866
3089.40679,0.20943
3091.33526,0.20751
3093.26373,0.19638
3095.19220,0.19165
3097.12067,0.20201
3099.04914,0.21528
3100.97760,0.21439
3102.90607,0.19752
3104.83454,0.18526
3106.76301,0.19117
3108.69148,0.20250
3110.61995,0.20480
3112.54842,0.19892
3114.47688,0.19961
3116.40535,0.21051
3118.33382,0.21674
3120.26229,0.21047
3122.19076,0.20229
3124.11923,0.20453
3126.04770,0.21109
3127.97617,0.21290
3129.90463,0.21191
3131.83310,0.21401
3133.76157,0.21960
3135.69004,0.22099
3137.61851,0.21579
3139.54698,0.21096
3141.47545,0.21117
3143.40391,0.21086
3145.33238,0.20711
3147.26085,0.20516
3149.18932,0.20765
3151.11779,0.21337
3153.04626,0.21786
3154.97473,0.21742
3156.90320,0.21439
3158.83166,0.21378
3160.76013,0.21382
3162.68860,0.21156
3164.61707,0.21011
3166.54554,0.20951
3168.47401,0.20933
3170.40248,0.20963
3172.33094,0.21159
3174.25941,0.21570
3176.18788,0.21616
3178.11635,0.21563
3180.04482,0.21834
3181.97329,0.21895
3183.90176,0.21877
3185.83022,0.22250
3187.75869,0.22536
3189.68716,0.22258
3191.61563,0.21981
3193.54410,0.22121
3195.47257,0.22277
3197.40104,0.22281
3199.32951,0.22207
3201.25797,0.22094
3203.18644,0.22053
3205.11491,0.21905
3207.04338,0.21486
3208.97185,0.21102
3210.90032,0.21267
3212.82879,0.22087
3214.75725,0.22768
3216.68572,0.22564
3218.61419,0.21886
3220.54266,0.21430
3222.47113,0.21346
3224.39960,0.21502
3226.32807,0.21727
3228.25654,0.21779
3230.18500,0.21587
3232.11347,0.21324
3234.04194,0.21211
3235.97041,0.21358
3237.89888,0.21446
3239.82735,0.21087
3241.75582,0.20768
3243.68428,0.21275
3245.61275,0.22163
3247.54122,0.22563
3249.46969,0.22452
3251.39816,0.21935
3253.32663,0.21372
3255.25510,0.21295
3257.18357,0.21294
3259.11203,0.20968
3261.04050,0.20834
3262.96897,0.21130
3264.89744,0.21384
3266.82591,0.21256
3268.75438,0.21115
3270.68285,0.21330
3272.61131,0.21772
3274.53978,0.22130
3276.46825,0.21879
3278.39672,0.21170
3280.32519,0.20663
3282.25366,0.20548
3284.18213,0.21017
3286.11060,0.21633
3288.03906,0.21477
3289.96753,0.20975
3291.89600,0.20903
3293.82447,0.21082
3295.75294,0.21445
3297.68141,0.21942
3299.60988,0.22299
3301.53834,0.22470
3303.46681,0.22244
3305.39528,0.21736
3307.32375,0.21565
3309.25222,0.21639
3311.18069,0.21331
3313.10916,0.20876
3315.03763,0.20839
3316.96609,0.21083
3318.89456,0.21434
3320.82303,0.21746
3322.75150,0.21620
3324.67997,0.21185
3326.60844,0.20978
3328.53691,0.21136
3330.46537,0.21409
3332.39384,0.21390
3334.32231,0.21307
3336.25078,0.21663
3338.17925,0.21853
3340.10772,0.21525
3342.03619,0.21267
3343.96466,0.21344
3345.89312,0.21712
3347.82159,0.21898
3349.75006,0.21468
3351.67853,0.21119
3353.60700,0.21624
3355.53547,0.22212
3357.46394,0.21914
3359.39240,0.21235
3361.32087,0.20979
3363.24934,0.21190
3365.17781,0.21287
3367.10628,0.21112
3369.03475,0.21097
3370.96322,0.21255
3372.89168,0.21670
3374.82015,0.22061
3376.74862,0.22002
3378.67709,0.21997
3380.60556,0.22110
3382.53403,0.21911
3384.46250,0.21422
3386.39097,0.21030
3388.31943,0.21151
3390.24790,0.21508
3392.17637,0.21639
3394.10484,0.21523
3396.03331,0.21193
3397.96178,0.20742
3399.89025,0.20364
3401.81871,0.20025
3403.74718,0.19702
3405.67565,0.19761
3407.60412,0.20255
3409.53259,0.20563
3411.46106,0.20630
3413.38953,0.20905
3415.31800,0.21171
3417.24646,0.21233
3419.17493,0.21455
3421.10340,0.21831
3423.03187,0.21823
3424.96034,0.21324
3426.88881,0.20862
3428.81728,0.20802
3430.74574,0.20924
3432.67421,0.20984
3434.60268,0.20939
3436.53115,0.20860
3438.45962,0.20995
3440.38809,0.21090
3442.31656,0.20758
3444.24503,0.20330
3446.17349,0.20272
3448.10196,0.20593
3450.03043,0.20753
3451.95890,0.20468
3453.88737,0.19996
3455.81584,0.19643
3457.74431,0.19751
3459.67277,0.20299
3461.60124,0.20419
3463.52971,0.19768
3465.45818,0.19102
3467.38665,0.18892
3469.31512,0.19330
3471.24359,0.19843
3473.17206,0.19611
3475.10052,0.19100
3477.02899,0.18639
3478.95746,0.18247
3480.88593,0.18572
3482.81440,0.19610
3484.74287,0.20278
3486.67134,0.20103
3488.59980,0.19542
3490.52827,0.19091
3492.45674,0.18907
3494.38521,0.18922
3496.31368,0.19074
3498.24215,0.19207
3500.17062,0.19065
3502.09909,0.18592
3504.02755,0.18179
3505.95602,0.18378
3507.88449,0.18955
3509.81296,0.19216
3511.74143,0.19061
3513.66990,0.18740
3515.59837,0.18330
3517.52683,0.18175
3519.45530,0.18397
3521.38377,0.18479
3523.31224,0.18118
3525.24071,0.17927
3527.16918,0.18293
3529.09765,0.18291
3531.02611,0.17756
3532.95458,0.17505
3534.88305,0.17426
3536.81152,0.17251
3538.73999,0.17214
3540.66846,0.17409
3542.59693,0.17704
3544.52540,0.17779
3546.45386,0.17595
3548.38233,0.17767
3550.31080,0.18159
3552.23927,0.18038
3554.16774,0.17348
3556.09621,0.16594
3558.02468,0.16225
3559.95314,0.16124
3561.88161,0.16027
3563.81008,0.16389
3565.73855,0.17158
3567.66702,0.17220
3569.59549,0.16819
3571.52396,0.16907
3573.45243,0.17016
3575.38089,0.16593
3577.30936,0.16036
3579.23783,0.15935
3581.16630,0.16274
3583.09477,0.16505
3585.02324,0.16238
3586.95171,0.15744
3588.88017,0.15578
3590.80864,0.15633
3592.73711,0.15713
3594.66558,0.16055
3596.59405,0.16616
3598.52252,0.16887
3600.45099,0.16700
3602.37946,0.16230
3604.30792,0.15789
3606.23639,0.15655
3608.16486,0.15909
3610.09333,0.16074
3612.02180,0.15758
3613.95027,0.15424
3615.87874,0.15637
3617.80720,0.16490
3619.73567,0.17039
3621.66414,0.16109
3623.59261,0.15029
3625.52108,0.15052
3627.44955,0.16283
3629.37802,0.17424
3631.30649,0.16950
3633.23495,0.15991
3635.16342,0.15004
3637.09189,0.14201
3639.02036,0.13761
3640.94883,0.13423
3642.87730,0.12998
3644.80577,0.13118
3646.73423,0.14607
3648.66270,0.16593
3650.59117,0.16320
3652.51964,0.15081
3654.44811,0.14444
3656.37658,0.14081
3658.30505,0.13510
3660.23352,0.13031
3662.16198,0.12971
3664.09045,0.13091
3666.01892,0.13270
3667.94739,0.13885
3669.87586,0.14897
3671.80433,0.15318
3673.73280,0.15538
3675.66126,0.15905
3677.58973,0.15255
3679.51820,0.13967
3681.44667,0.13017
3683.37514,0.12722
3685.30361,0.12885
3687.23208,0.13546
3689.16055,0.14803
3691.08901,0.14992
3693.01748,0.13808
3694.94595,0.12899
3696.87442,0.12783
3698.80289,0.13064
3700.73136,0.13212
3702.65983,0.13223
3704.58829,0.13398
3706.51676,0.13783
3708.44523,0.14422
3710.37370,0.15124
3712.30217,0.15423
3714.23064,0.15380
3716.15911,0.15139
3718.08757,0.14703
3720.01604,0.14470
3721.94451,0.14563
3723.87298,0.14515
3725.80145,0.14275
3727.72992,0.13998
3729.65839,0.13979
3731.58686,0.14405
3733.51532,0.14779
3735.44379,0.14495
3737.37226,0.14030
3739.30073,0.13926
3741.22920,0.14208
3743.15767,0.14713
3745.08614,0.14459
3747.01460,0.13909
3748.94307,0.14355
3750.87154,0.14535
3752.80001,0.13546
3754.72848,0.13088
3756.65695,0.13351
3758.58542,0.13751
3760.51389,0.13544
3762.44235,0.12946
3764.37082,0.12839
3766.29929,0.13384
3768.22776,0.14049
3770.15623,0.14170
3772.08470,0.13452
3774.01317,0.12895
3775.94163,0.13034
3777.87010,0.13332
3779.79857,0.13165
3781.72704,0.12729
3783.65551,0.12535
3785.58398,0.12335
3787.51245,0.11926
3789.44092,0.11812
3791.36938,0.12145
3793.29785,0.12502
3795.22632,0.12577
3797.15479,0.12279
3799.08326,0.12058
3801.01173,0.12624
3802.94020,0.13349
3804.86866,0.13369
3806.79713,0.13053
3808.72560,0.12827
3810.65407,0.12798
3812.58254,0.12503
3814.51101,0.12379
3816.43948,0.13228
3818.36795,0.13995
3820.29641,0.14206
3822.22488,0.14201
3824.15335,0.13915
3826.08182,0.13360
3828.01029,0.12652
3829.93876,0.12426
3831.86723,0.12950
3833.79569,0.13680
3835.72416,0.14094
3837.65263,0.14187
3839.58110,0.13701
3841.50957,0.12885
3843.43804,0.12625
3845.36651,0.12688
3847.29498,0.12725
3849.22344,0.13290
3851.15191,0.14400
3853.08038,0.14761
3855.00885,0.13501
3856.93732,0.12653
3858.86579,0.12689
3860.79426,0.13105
3862.72272,0.13056
3864.65119,0.12426
3866.57966,0.12028
3868.50813,0.12044
3870.43660,0.12323
3872.36507,0.12455
3874.29354,0.12014
3876.22200,0.11294
3878.15047,0.10949
3880.07894,0.11060
3882.00741,0.11478
3883.93588,0.12148
3885.86435,0.12463
3887.79282,0.11908
3889.72129,0.11523
3891.64975,0.11880
3893.57822,0.12219
3895.50669,0.12233
3897.43516,0.12407
3899.36363,0.12695
3901.29210,0.12646
3903.22057,0.12429
3905.14903,0.12309
3907.07750,0.12229
3909.00597,0.12075
3910.93444,0.11564
3912.86291,0.10871
3914.79138,0.10613
3916.71985,0.10852
3918.64832,0.11051
3920.57678,0.11201
3922.50525,0.11428
3924.43372,0.11336
3926.36219,0.11084
3928.29066,0.11148
3930.21913,0.11292
3932.14760,0.11323
3934.07606,0.11454
3936.00453,0.11389
3937.93300,0.11012
3939.86147,0.10983
3941.78994,0.11503
3943.71841,0.11838
3945.64688,0.11503
3947.57535,0.11001
3949.50381,0.10913
3951.43228,0.11150
3953.36075,0.11234
3955.28922,0.11077
3957.21769,0.10905
3959.14616,0.10680
3961.07463,0.10287
3963.00309,0.10006
3964.93156,0.10185
3966.86003,0.10594
3968.78850,0.10828
3970.71697,0.10888
3972.64544,0.10869
3974.57391,0.10664
3976.50238,0.10239
3978.43084,0.09816
3980.35931,0.09794
3982.28778,0.10307
3984.21625,0.10694
3986.14472,0.10478
3988.07319,0.10087
3990.00166,0.10007
3991.93012,0.10191
3993.85859,0.10467
3995.78706,0.10994
3997.71553,0.11381
3999.64400,0.11040
4001.57247,0.10455
4003.50094,0.10270
4005.42941,0.10316
4007.35787,0.10417
4009.28634,0.10616
4011.21481,0.10793
4013.14328,0.10831
4015.07175,0.10436
4017.00022,0.09775
4018.92869,0.09602
4020.85715,0.09841
4022.78562,0.09846
4024.71409,0.09565
4026.64256,0.09216
4028.57103,0.08918
4030.49950,0.08877
4032.42797,0.09075
4034.35644,0.09469
4036.28490,0.09723
4038.21337,0.09279
4040.14184,0.08734
4042.07031,0.08945
4043.99878,0.09859
4045.92725,0.10779
4047.85572,0.10962
4049.78418,0.10496
4051.71265,0.09908
4053.64112,0.09292
4055.56959,0.08609
4057.49806,0.08441
4059.42653,0.09086
4061.35500,0.09643
4063.28346,0.09599
4065.21193,0.09636
4067.14040,0.10069
4069.06887,0.10234
4070.99734,0.09838
4072.92581,0.09650
4074.85428,0.09789
4076.78275,0.09379
4078.71121,0.08686
4080.63968,0.08757
4082.56815,0.09653
4084.49662,0.10427
4086.42509,0.10225
4088.35356,0.09496
4090.28203,0.09203
4092.21049,0.09194
4094.13896,0.09153
4096.06743,0.09427
4097.99590,0.09801
4099.92437,0.09868
4101.85284,0.09805
4103.78131,0.09606
4105.70978,0.09153
4107.63824,0.08677
4109.56671,0.08535
4111.49518,0.08892
4113.42365,0.09285
4115.35212,0.09085
4117.28059,0.08736
4119.20906,0.08881
4121.13752,0.08970
4123.06599,0.08451
4124.99446,0.07982
4126.92293,0.08052
4128.85140,0.08187
4130.77987,0.08295
4132.70834,0.08555
4134.63681,0.08703
4136.56527,0.08341
4138.49374,0.07606
4140.42221,0.07458
4142.35068,0.08093
4144.27915,0.08617
4146.20762,0.08654
4148.13609,0.08613
4150.06455,0.08916
4151.99302,0.09152
4153.92149,0.08868
4155.84996,0.08782
4157.77843,0.09157
4159.70690,0.09092
4161.63537,0.08421
4163.56384,0.07864
4165.49230,0.07841
4167.42077,0.07971
4169.34924,0.07840
4171.27771,0.07877
4173.20618,0.08407
4175.13465,0.08869
4177.06312,0.08822
4178.99158,0.08540
4180.92005,0.08139
4182.84852,0.07801
4184.77699,0.07935
4186.70546,0.08214
4188.63393,0.08236
4190.56240,0.08175
4192.49087,0.08190
4194.41933,0.08281
4196.34780,0.08271
4198.27627,0.08008
4200.20474,0.07784
4202.13321,0.07656
4204.06168,0.07403
4205.99015,0.07259
4207.91861,0.07298
4209.84708,0.07404
4211.77555,0.07452
4213.70402,0.07119
4215.63249,0.06669
4217.56096,0.06619
4219.48943,0.06777
4221.41789,0.06848
4223.34636,0.06899
4225.27483,0.07236
4227.20330,0.07720
4229.13177,0.07667
4231.06024,0.07524
4232.98871,0.07997
4234.91718,0.08586
4236.84564,0.08534
4238.77411,0.07764
4240.70258,0.07198
4242.63105,0.07156
4244.55952,0.06878
4246.48799,0.06319
4248.41646,0.06269
4250.34492,0.06938
4252.27339,0.07774
4254.20186,0.08364
4256.13033,0.08232
4258.05880,0.07439
4259.98727,0.06938
4261.91574,0.07031
4263.84421,0.07279
4265.77267,0.07338
4267.70114,0.06930
4269.62961,0.06375
4271.55808,0.06187
4273.48655,0.06010
4275.41502,0.05838
4277.34349,0.06032
4279.27195,0.06417
4281.20042,0.07001
4283.12889,0.07339
4285.05736,0.06972
4286.98583,0.06620
4288.91430,0.06620
4290.84277,0.06676
4292.77124,0.06705
4294.69970,0.06619
4296.62817,0.06624
4298.55664,0.06590
4300.48511,0.05989
4302.41358,0.05365
4304.34205,0.05548
4306.27052,0.05920
4308.19898,0.05897
4310.12745,0.06045
4312.05592,0.06234
4313.98439,0.06058
4315.91286,0.05799
4317.84133,0.05483
4319.76980,0.05054
4321.69827,0.04704
4323.62673,0.04448
4325.55520,0.04198
4327.48367,0.04300
4329.41214,0.05097
4331.34061,0.05901
4333.26908,0.05777
4335.19755,0.05161
4337.12601,0.04791
4339.05448,0.04418
4340.98295,0.04085
4342.91142,0.04025
4344.83989,0.03868
4346.76836,0.03600
4348.69683,0.03570
4350.62530,0.03857
4352.55376,0.04517
4354.48223,0.05225
4356.41070,0.05428
4358.33917,0.05210
4360.26764,0.04656
4362.19611,0.03969
4364.12458,0.03778
4366.05304,0.04005
4367.98151,0.04352
4369.90998,0.05052
4371.83845,0.05483
4373.76692,0.04950
4375.69539,0.04291
4377.62386,0.04115
4379.55232,0.04387
4381.48079,0.04926
4383.40926,0.05003
4385.33773,0.04717
4387.26620,0.04531
4389.19467,0.04262
4391.12314,0.04356
4393.05161,0.04855
4394.98007,0.04661
4396.90854,0.03755
4398.83701,0.03014
4400.76548,0.03081
4402.69395,0.03997
4404.62242,0.04598
4406.55089,0.04043
4408.47935,0.03243
4410.40782,0.03335
4412.33629,0.03550
4414.26476,0.03211
4416.19323,0.03359
4418.12170,0.04116
4420.05017,0.04274
4421.97864,0.03224
4423.90710,0.02232
4425.83557,0.02515
4427.76404,0.02789
4429.69251,0.02233
4431.62098,0.01947
4433.54945,0.02200
4435.47792,0.02600
4437.40638,0.03233
4439.33485,0.03837
4441.26332,0.03761
4443.19179,0.03032
4445.12026,0.02456
4447.04873,0.02443
4448.97720,0.02675
4450.90567,0.02989
4452.83413,0.03332
4454.76260,0.03484
4456.69107,0.03522
4458.61954,0.03819
4460.54801,0.04191
4462.47648,0.04036
4464.40495,0.03567
4466.33341,0.03043
4468.26188,0.02073
4470.19035,0.01370
4472.11882,0.02118
4474.04729,0.03486
4475.97576,0.03910
4477.90423,0.03425
4479.83270,0.02995
4481.76116,0.03223
4483.68963,0.03752
4485.61810,0.03590
4487.54657,0.02871
4489.47504,0.02748
4491.40351,0.03104
4493.33198,0.02969
4495.26044,0.02732
4497.18891,0.02795
4499.11738,0.02755
4501.04585,0.02716
4502.97432,0.02668
4504.90279,0.02476
4506.83126,0.02275
4508.75973,0.02380
4510.68819,0.02797
4512.61666,0.02758
4514.54513,0.02136
4516.47360,0.01716
4518.40207,0.01635
4520.33054,0.01514
4522.25901,0.01413
4524.18747,0.01168
4526.11594,0.01011
4528.04441,0.01775
4529.97288,0.02519
4531.90135,0.01976
4533.82982,0.00786
4535.75829,0.00010
4537.68676,0.00242
4539.61522,0.01176
4541.54369,0.01809
4543.47216,0.01996
4545.40063,0.01959
4547.32910,0.01453
4549.25757,0.01193
4551.18604,0.01954
4553.11450,0.02622
4555.04297,0.02380
4556.97144,0.02161
4558.89991,0.02500
4560.82838,0.02755
4562.75685,0.02650
4564.68532,0.02682
4566.61378,0.02449
4568.54225,0.01403
4570.47072,0.00318
4572.39919,-0.00275
4574.32766,-0.00281
4576.25613,0.00323
4578.18460,0.01069
4580.11307,0.01407
4582.04153,0.01519
4583.97000,0.01814
4585.89847,0.01980
4587.82694,0.01932
4589.75541,0.01520
4591.68388,0.00656
4593.61235,0.00159
4595.54081,0.00503
4597.46928,0.01221
4599.39775,0.01482
4601.32622,0.01161
4603.25469,0.01052
4605.18316,0.01663
4607.11163,0.02286
4609.04010,0.02376
4610.96856,0.02303
4612.89703,0.02084
4614.82550,0.01693
4616.75397,0.01384
4618.68244,0.01578
4620.61091,0.02381
4622.53938,0.02856
4624.46784,0.02597
4626.39631,0.01952
4628.32478,0.01352
4630.25325,0.01335
4632.18172,0.01387
4634.11019,0.01073
4636.03866,0.00723
4637.96713,0.00509
4639.89559,0.01148
4641.82406,0.02096
4643.75253,0.01604
4645.68100,0.00063
4647.60947,-0.00596
4649.53794,0.00274
4651.46641,0.01251
4653.39487,0.01146
4655.32334,0.00168
4657.25181,-0.00901
4659.18028,-0.00685
4661.10875,0.00663
4663.03722,0.00989
4664.96569,-0.00036
4666.89416,-0.01071
4668.82262,-0.01454
4670.75109,-0.01242
4672.67956,-0.00713
4674.60803,0.00159
4676.53650,0.01367
4678.46497,0.01889
4680.39344,0.00812
4682.32190,-0.00080
4684.25037,0.00720
4686.17884,0.01274
4688.10731,0.00488
4690.03578,-0.00190
4691.96425,0.00034
4693.89272,0.00732
4695.82119,0.01435
4697.74965,0.01754
4699.67812,0.01069
4701.60659,-0.00115
4703.53506,-0.00267
4705.46353,0.00148
4707.39200,0.00244
4709.32047,0.00523
4711.24893,0.00545
4713.17740,0.00588
4715.10587,0.01494
4717.03434,0.02358
4718.96281,0.02726
4720.89128,0.03352
4722.81975,0.03787
4724.74821,0.02657
4726.67668,0.00900
4728.60515,0.00153
4730.53362,-0.00198
4732.46209,-0.00898
4734.39056,-0.01335
4736.31903,-0.00962
4738.24750,-0.00357
4740.17596,-0.00377
4742.10443,-0.01154
4744.03290,-0.01940
4745.96137,-0.01908
4747.88984,-0.01119
4749.81831,-0.00405
4751.74678,0.00025
4753.67524,0.00389
4755.60371,0.00818
4757.53218,0.01304
4759.46065,0.01380
4761.38912,0.01721
4763.31759,0.02028
4765.24606,0.01174
4767.17453,0.00429
4769.10299,0.00661
4771.03146,0.00965
4772.95993,0.00593
4774.88840,0.00062
4776.81687,0.00060
4778.74534,0.00150
4780.67381,0.00036
4782.60227,0.00948
4784.53074,0.03214
4786.45921,0.04278
4788.38768,0.02993
4790.31615,0.01361
4792.24462,0.00581
4794.17309,0.00130
4796.10156,-0.00173
4798.03002,-0.00078
4799.95849,0.00023
4801.88696,0.00044
4803.81543,0.00451
4805.74390,0.01421
4807.67237,0.02076
4809.60084,0.01562
4811.52930,0.01233
4813.45777,0.01847
4815.38624,0.01801
4817.31471,0.00372
4819.24318,-0.00902
4821.17165,-0.00543
4823.10012,0.00291
4825.02859,0.00443
4826.95705,0.00757
4828.88552,0.01070
4830.81399,0.00747
4832.74246,0.00305
4834.67093,-0.00197
4836.59940,-0.00629
4838.52787,-0.00248
4840.45633,0.00339
4842.38480,0.00118
4844.31327,-0.00173
4846.24174,0.00244
4848.17021,0.00896
4850.09868,0.01535
4852.02715,0.01654
4853.95562,0.00644
4855.88408,-0.00278
4857.81255,-0.00047
4859.74102,0.00425
4861.66949,0.00095
4863.59796,-0.00776
4865.52643,-0.01547
4867.45490,-0.01789
4869.38336,-0.00991
4871.31183,0.00706
4873.24030,0.02125
4875.16877,0.02161
4877.09724,0.01188
4879.02571,0.00567
4880.95418,0.00775
4882.88265,0.01219
4884.81111,0.01372
4886.73958,0.01180
4888.66805,0.01004
4890.59652,0.00938
4892.52499,0.00375
4894.45346,-0.00257
4896.38193,0.00097
4898.31039,0.00912
4900.23886,0.01374
4902.16733,0.01734
4904.09580,0.01882
4906.02427,0.01100
4907.95274,-0.00246
4909.88121,-0.00501
4911.80967,0.00555
4913.73814,0.00894
4915.66661,0.00072
4917.59508,-0.00477
4919.52355,-0.00564
4921.45202,-0.00391
4923.38049,0.00544
4925.30896,0.01797
4927.23742,0.02372
4929.16589,0.02427
4931.09436,0.02097
4933.02283,0.01293
4934.95130,0.00584
4936.87977,0.00091
4938.80824,-0.00168
4940.73670,0.00690
4942.66517,0.02289
4944.59364,0.02404
4946.52211,0.01598
4948.45058,0.02030
4950.37905,0.02158
4952.30752,0.00889
4954.23599,0.00139
4956.16445,0.00212
4958.09292,0.00261
4960.02139,0.00875
4961.94986,0.01743
4963.87833,0.01894
4965.80680,0.02217
4967.73527,0.03281
4969.66373,0.03626
4971.59220,0.02238
4973.52067,0.01059
4975.44914,0.01491
4977.37761,0.01840
4979.30608,0.01542
4981.23455,0.01659
4983.16302,0.02551
4985.09148,0.03095
4987.01995,0.02483
4988.94842,0.01651
4990.87689,0.00874
4992.80536,0.00531
4994.73383,0.01284
4996.66230,0.02047
4998.59076,0.02339
5000.51923,0.02532
5002.44770,0.02074
5004.37617,0.00928
5006.30464,0.00301
5008.23311,0.00624
5010.16158,0.01474
5012.09005,0.02259
5014.01851,0.02166
5015.94698,0.01470
5017.87545,0.01030
5019.80392,0.01068
5021.73239,0.00939
5023.66086,0.00414
5025.58933,0.00574
5027.51779,0.01701
5029.44626,0.02769
5031.37473,0.02420
5033.30320,0.01106
5035.23167,0.01063
5037.16014,0.02405
5039.08861,0.03753
5041.01708,0.04385
5042.94554,0.04112
5044.87401,0.03680
5046.80248,0.03966
5048.73095,0.04311
5050.65942,0.04251
5052.58789,0.04624
5054.51636,0.04970
5056.44482,0.04326
5058.37329,0.03388
5060.30176,0.02641
5062.23023,0.02909
5064.15870,0.04385
5066.08717,0.04146
5068.01564,0.01881
5069.94410,0.00070
5071.87257,-0.00395
5073.80104,0.01050
5075.72951,0.03330
5077.65798,0.03909
5079.58645,0.02382
5081.51492,0.01096
5083.44339,0.01772
5085.37185,0.02352
5087.30032,0.00598
5089.22879,-0.00803
5091.15726,0.00881
5093.08573,0.02719
5095.01420,0.02551
5096.94267,0.02266
5098.87113,0.02419
5100.79960,0.02390
5102.72807,0.02703
5104.65654,0.02908
5106.58501,0.02168
5108.51348,0.01525
5110.44195,0.02181
5112.37042,0.03163
5114.29888,0.02754
5116.22735,0.01640
5118.15582,0.01751
5120.08429,0.02494
5122.01276,0.02670
5123.94123,0.02895
5125.86970,0.02396
5127.79816,0.01050
5129.72663,0.01545
5131.65510,0.03765
5133.58357,0.05180
5135.51204,0.05098
5137.44051,0.04386
5139.36898,0.04238
5141.29745,0.04611
5143.22591,0.04834
5145.15438,0.05559
5147.08285,0.05333
5149.01132,0.03128
5150.93979,0.02023
5152.86826,0.02279
5154.79673,0.02516
5156.72519,0.03146
5158.65366,0.03662
5160.58213,0.04220
5162.51060,0.05204
5164.43907,0.05683
5166.36754,0.04573
5168.29601,0.02222
5170.22448,0.00076
5172.15294,-0.00784
5174.08141,-0.00409
5176.00988,0.00580
5177.93835,0.01564
5179.86682,0.02116
5181.79529,0.03105
5183.72376,0.04853
5185.65222,0.05366
5187.58069,0.03765
5189.50916,0.02661
5191.43763,0.04181
5193.36610,0.06039
5195.29457,0.06023
5197.22304,0.05748
5199.15151,0.05905
5201.07997,0.04937
5203.00844,0.02984
5204.93691,0.02142
5206.86538,0.02552
5208.79385,0.01740
5210.72232,0.00847
5212.65079,0.01900
5214.57925,0.03459
5216.50772,0.03888
5218.43619,0.03235
5220.36466,0.02760
5222.29313,0.03699
5224.22160,0.05870
5226.15007,0.06943
5228.07854,0.05291
5230.00700,0.03234
5231.93547,0.01771
5233.86394,0.00289
5235.79241,-0.00340
5237.72088,0.00966
5239.64935,0.04400
5241.57782,0.07709
5243.50628,0.08410
5245.43475,0.06791
5247.36322,0.04230
5249.29169,0.02174
5251.22016,0.01092
5253.14863,0.00440
5255.07710,0.01165
5257.00556,0.03572
5258.93403,0.05848
5260.86250,0.06758
5262.79097,0.06849
5264.71944,0.06368
5266.64791,0.05538
5268.57638,0.05802
5270.50485,0.05537
5272.43331,0.02525
5274.36178,0.00031
5276.29025,0.00680
5278.21872,0.02662
5280.14719,0.04757
5282.07566,0.06348
5284.00413,0.06787
5285.93259,0.07003
5287.86106,0.07721
5289.78953,0.07934
5291.71800,0.06715
5293.64647,0.05112
5295.57494,0.03695
5297.50341,0.02576
5299.43188,0.02134
5301.36034,0.01926
5303.28881,0.02097
5305.21728,0.03096
5307.14575,0.04116
5309.07422,0.04659
5311.00269,0.05586
5312.93116,0.06470
5314.85962,0.05952
5316.78809,0.04769
5318.71656,0.03850
5320.64503,0.02771
5322.57350,0.02249
5324.50197,0.02324
5326.43044,0.02274
5328.35891,0.03798
5330.28737,0.06861
5332.21584,0.09411
5334.14431,0.10743
5336.07278,0.10523
5338.00125,0.08312
5339.92972,0.05744
5341.85819,0.05474
5343.78665,0.06421
5345.71512,0.06958
5347.64359,0.07100
5349.57206,0.06282
5351.50053,0.05518
5353.42900,0.05783
5355.35747,0.06653
5357.28594,0.07811
5359.21440,0.07835
5361.14287,0.07022
5363.07134,0.07515
5364.99981,0.08370
5366.92828,0.06857
5368.85675,0.04141
5370.78522,0.03587
5372.71368,0.04863
5374.64215,0.05685
5376.57062,0.06131
5378.49909,0.06973
5380.42756,0.07621
5382.35603,0.07900
5384.28450,0.08678
5386.21297,0.09305
5388.14143,0.08207
5390.06990,0.06772
5391.99837,0.06766
5393.92684,0.07126
5395.85531,0.06701
5397.78378,0.06817
5399.71225,0.06998
5401.64071,0.06367
5403.56918,0.04966
5405.49765,0.03370
5407.42612,0.03410
5409.35459,0.05361
5411.28306,0.07722
5413.21153,0.08557
5415.13999,0.07743
5417.06846,0.07770
5418.99693,0.08518
5420.92540,0.07199
5422.85387,0.04278
5424.78234,0.03180
5426.71081,0.05330
5428.63928,0.09051
5430.56774,0.09862
5432.49621,0.08825
5434.42468,0.09285
5436.35315,0.08750
5438.28162,0.07043
5440.21009,0.07155
5442.13856,0.07771
5444.06702,0.06942
5445.99549,0.06590
5447.92396,0.06633
5449.85243,0.06053
5451.78090,0.05871
5453.70937,0.05560
5455.63784,0.05093
5457.56631,0.04894
5459.49477,0.04278
5461.42324,0.04360
5463.35171,0.05543
5465.28018,0.05015
5467.20865,0.03146
5469.13712,0.02882
5471.06559,0.04522
5472.99405,0.06910
5474.92252,0.08593
5476.85099,0.10390
5478.77946,0.12853
5480.70793,0.13104
5482.63640,0.11266
5484.56487,0.09551
5486.49334,0.08145
5488.42180,0.07401
5490.35027,0.08150
5492.27874,0.08465
5494.20721,0.06375
5496.13568,0.04501
5498.06415,0.04333
5499.99262,0.04222
5501.92108,0.04232
5503.84955,0.05820
5505.77802,0.08213
5507.70649,0.09142
5509.63496,0.07571
5511.56343,0.06233
5513.49190,0.07765
5515.42037,0.09923
5517.34883,0.10205
5519.27730,0.09662
5521.20577,0.09880
5523.13424,0.10372
5525.06271,0.08725
5526.99118,0.05465
5528.91965,0.04238
5530.84811,0.04774
5532.77658,0.05859
5534.70505,0.07985
5536.63352,0.08716
5538.56199,0.08709
5540.49046,0.11143
5542.41893,0.13862
5544.34740,0.14518
5546.27586,0.13357
5548.20433,0.10385
5550.13280,0.07174
5552.06127,0.05826
5553.98974,0.06165
5555.91821,0.07430
5557.84668,0.09849
5559.77514,0.11343
5561.70361,0.10274
5563.63208,0.08559
5565.56055,0.07800
5567.48902,0.08169
5569.41749,0.07989
5571.34596,0.06101
5573.27443,0.04785
5575.20289,0.05414
5577.13136,0.07208
5579.05983,0.09273
5580.98830,0.10038
5582.91677,0.09090
5584.84524,0.08089
5586.77371,0.07648
5588.70217,0.07436
5590.63064,0.07975
5592.55911,0.08734
5594.48758,0.09068
5596.41605,0.09227
5598.34452,0.08234
5600.27299,0.06903
5602.20145,0.06951
5604.12992,0.07093
5606.05839,0.07528
5607.98686,0.09356
5609.91533,0.10460
5611.84380,0.08869
5613.77227,0.04786
5615.70074,0.00552
5617.62920,-0.00610
5619.55767,0.01910
5621.48614,0.05375
5623.41461,0.07241
5625.34308,0.09427
5627.27155,0.12194
5629.20002,0.11346
5631.12848,0.09582
5633.05695,0.10191
5634.98542,0.10102
5636.91389,0.09089
5638.84236,0.09194
5640.77083,0.10113
5642.69930,0.11722
5644.62777,0.12067
5646.55623,0.08748
5648.48470,0.04780
5650.41317,0.03789
5652.34164,0.05656
5654.27011,0.09013
5656.19858,0.10391
5658.12705,0.07906
5660.05551,0.04620
5661.98398,0.03644
5663.91245,0.06131
5665.84092,0.09430
5667.76939,0.08873
5669.69786,0.06015
5671.62633,0.05234
5673.55480,0.07019
5675.48326,0.08912
5677.41173,0.08788
5679.34020,0.08220
5681.26867,0.08605
5683.19714,0.10347
5685.12561,0.13974
5687.05408,0.15299
5688.98254,0.10923
5690.91101,0.05688
5692.83948,0.04367
5694.76795,0.06802
5696.69642,0.10581
5698.62489,0.11496
5700.55336,0.09482
5702.48183,0.07734
5704.41029,0.06225
5706.33876,0.06101
5708.26723,0.08842
5710.19570,0.11563
5712.12417,0.10659
5714.05264,0.07393
5715.98111,0.06404
5717.90957,0.06455
5719.83804,0.04658
5721.76651,0.04466
5723.69498,0.06857
5725.62345,0.08284
5727.55192,0.08726
5729.48039,0.10271
5731.40886,0.11750
5733.33732,0.11068
5735.26579,0.08187
5737.19426,0.05423
5739.12273,0.06175
5741.05120,0.08811
5742.97967,0.09123
5744.90814,0.09228
5746.83660,0.09919
5748.76507,0.08535
5750.69354,0.07476
5752.62201,0.08223
5754.55048,0.08155
5756.47895,0.07034
5758.40742,0.05888
5760.33588,0.04941
5762.26435,0.05277
5764.19282,0.07916
5766.12129,0.09554
5768.04976,0.07807
5769.97823,0.04638
5771.90670,0.03111
5773.83517,0.06332
5775.76363,0.12073
5777.69210,0.13849
5779.62057,0.10271
5781.54904,0.07769
5783.47751,0.09794
5785.40598,0.12380
5787.33445,0.12978
5789.26291,0.10935
5791.19138,0.06170
5793.11985,0.02476
5795.04832,0.02774
5796.97679,0.05087
5798.90526,0.06561
5800.83373,0.07183
5802.76220,0.06451
5804.69066,0.04156
5806.61913,0.02655
5808.54760,0.02892
5810.47607,0.04475
5812.40454,0.06109
5814.33301,0.05602
5816.26148,0.03513
5818.18994,0.03536
5820.11841,0.07844
5822.04688,0.11491
5823.97535,0.09437
5825.90382,0.05606
5827.83229,0.04257
5829.76076,0.04893
5831.68923,0.07827
5833.61769,0.12228
5835.54616,0.14817
5837.47463,0.15525
5839.40310,0.15507
5841.33157,0.15027
5843.26004,0.13373
5845.18851,0.10460
5847.11697,0.07609
5849.04544,0.05591
5850.97391,0.06942
5852.90238,0.11650
5854.83085,0.14620
5856.75932,0.13057
5858.68779,0.09993
5860.61626,0.09309
5862.54472,0.11396
5864.47319,0.13232
5866.40166,0.12913
5868.33013,0.11436
5870.25860,0.08565
5872.18707,0.06359
5874.11554,0.07977
5876.04400,0.09643
5877.97247,0.08097
5879.90094,0.08564
5881.82941,0.12248
5883.75788,0.12692
5885.68635,0.08320
5887.61482,0.04992
5889.54329,0.07469
5891.47175,0.11070
5893.40022,0.09536
5895.32869,0.06402
5897.25716,0.06796
5899.18563,0.09269
5901.11410,0.11730
5903.04257,0.13417
5904.97103,0.12630
5906.89950,0.10216
5908.82797,0.07830
5910.75644,0.05123
5912.68491,0.02987
5914.61338,0.03490
5916.54185,0.06524
5918.47032,0.09970
5920.39878,0.12379
5922.32725,0.12259
5924.25572,0.09435
5926.18419,0.08247
5928.11266,0.10170
5930.04113,0.11670
5931.96960,0.12069
5933.89806,0.12193
5935.82653,0.10893
5937.75500,0.09112
5939.68347,0.10535
5941.61194,0.12756
5943.54041,0.10664
5945.46888,0.07431
5947.39734,0.05293
5949.32581,0.03813
5951.25428,0.03781
5953.18275,0.02786
5955.11122,0.02587
5957.03969,0.06795
5958.96816,0.12491
5960.89663,0.15522
5962.82509,0.17548
5964.75356,0.19838
5966.68203,0.19730
5968.61050,0.18256
5970.53897,0.16550
5972.46744,0.13197
5974.39591,0.11574
5976.32437,0.12494
5978.25284,0.10607
5980.18131,0.06858
5982.10978,0.07307
5984.03825,0.10189
5985.96672,0.11563
5987.89519,0.15490
5989.82366,0.21238
5991.75212,0.19499
5993.68059,0.12200
5995.60906,0.09617
5997.53753,0.09286
5999.46600,0.07568
6001.39447,0.08464
6003.32294,0.10020
6005.25140,0.08854
6007.17987,0.07875
6009.10834,0.09287
6011.03681,0.12656
6012.96528,0.15769
6014.89375,0.13983
6016.82222,0.09191
6018.75069,0.08936
6020.67915,0.10730
6022.60762,0.09723
6024.53609,0.07861
6026.46456,0.07503
6028.39303,0.11229
6030.32150,0.16292
6032.24997,0.16398
6034.17843,0.11287
6036.10690,0.03988
6038.03537,-0.01860
6039.96384,-0.01719
6041.89231,0.03815
6043.82078,0.07652
6045.74925,0.07361
6047.67772,0.08173
6049.60618,0.12024
6051.53465,0.13302
6053.46312,0.10787
6055.39159,0.10299
6057.32006,0.11348
6059.24853,0.11692
6061.17700,0.14428
6063.10546,0.16118
6065.03393,0.11186
6066.96240,0.04316
6068.89087,0.02473
6070.81934,0.04817
6072.74781,0.06307
6074.67628,0.06256
6076.60475,0.06467
6078.53321,0.06812
6080.46168,0.06299
6082.39015,0.05426
6084.31862,0.07303
6086.24709,0.12292
6088.17556,0.14809
6090.10403,0.13840
6092.03249,0.10329
6093.96096,0.03453
6095.88943,-0.00875
6097.81790,0.01061
6099.74637,0.04290
6101.67484,0.05518
6103.60331,0.06997
6105.53177,0.09630
6107.46024,0.10292
6109.38871,0.09006
6111.31718,0.10282
6113.24565,0.11322
6115.17412,0.05872
6117.10259,0.00378
6119.03106,0.02840
6120.95952,0.05548
6122.88799,0.04043
6124.81646,0.03303
6126.74493,0.05463
6128.67340,0.08813
6130.60187,0.10050
6132.53034,0.09473
6134.45880,0.08514
6136.38727,0.06211
6138.31574,0.03925
6140.24421,0.04686
6142.17268,0.06523
6144.10115,0.06076
6146.02962,0.03870
6147.95809,0.00976
6149.88655,0.01027
6151.81502,0.05466
6153.74349,0.09611
6155.67196,0.12194
6157.60043,0.13838
6159.52890,0.12819
6161.45737,0.08939
6163.38583,0.07672
6165.31430,0.10739
6167.24277,0.08650
6169.17124,0.00439
6171.09971,-0.04279
6173.02818,-0.01413
6174.95665,0.05431
6176.88512,0.11555
6178.81358,0.14342
6180.74205,0.13239
6182.67052,0.10203
6184.59899,0.10900
6186.52746,0.17284
6188.45593,0.20502
6190.38440,0.14846
6192.31286,0.08646
6194.24133,0.05679
6196.16980,0.05571
6198.09827,0.08585
6200.02674,0.09353
6201.95521,0.07353
6203.88368,0.07821
6205.81215,0.09830
6207.74061,0.09505
6209.66908,0.08930
6211.59755,0.10118
6213.52602,0.08742
6215.45449,0.04601
6217.38296,0.03575
6219.31143,0.08636
6221.23989,0.13524
6223.16836,0.09455
6225.09683,0.02632
6227.02530,0.03936
6228.95377,0.07447
6230.88224,0.07470
6232.81071,0.08798
6234.73918,0.12380
6236.66764,0.13867
6238.59611,0.12520
6240.52458,0.10765
6242.45305,0.09734
6244.38152,0.06208
6246.30999,-0.00015
6248.23846,-0.03391
6250.16692,-0.04347
6252.09539,-0.06610
6254.02386,-0.05415
6255.95233,0.02545
6257.88080,0.09150
6259.80927,0.07491
6261.73774,0.02959
6263.66621,0.03588
6265.59467,0.09273
6267.52314,0.12325
6269.45161,0.10268
6271.38008,0.08633
6273.30855,0.10060
6275.23702,0.10970
6277.16549,0.09600
6279.09395,0.11018
6281.02242,0.15600
6282.95089,0.16763
6284.87936,0.13979
6286.80783,0.11510
6288.73630,0.08480
6290.66477,0.04726
6292.59323,0.04610
6294.52170,0.07704
6296.45017,0.11198
6298.37864,0.14910
6300.30711,0.14053
6302.23558,0.07948
6304.16405,0.05068
6306.09252,0.04366
6308.02098,0.04047
6309.94945,0.07244
6311.87792,0.08394
6313.80639,0.05151
6315.73486,0.06012
6317.66333,0.09873
6319.59180,0.09259
6321.52026,0.07857
6323.44873,0.08237
6325.37720,0.07250
6327.30567,0.07293
6329.23414,0.09636
6331.16261,0.13277
6333.09108,0.16769
6335.01955,0.15993
6336.94801,0.11509
6338.87648,0.08198
6340.80495,0.08572
6342.73342,0.11596
6344.66189,0.14243
6346.59036,0.13281
6348.51883,0.10801
6350.44729,0.09579
6352.37576,0.06644
6354.30423,0.04486
6356.23270,0.07402
6358.16117,0.12794
6360.08964,0.16376
6362.01811,0.16476
6363.94658,0.12948
6365.87504,0.09279
6367.80351,0.10749
6369.73198,0.12502
6371.66045,0.07210
6373.58892,-0.00759
6375.51739,-0.04703
6377.44586,-0.04422
6379.37432,0.00660
6381.30279,0.05377
6383.23126,0.00540
6385.15973,-0.04344
6387.08820,0.01474
6389.01667,0.08405
6390.94514,0.08013
6392.87361,0.02183
6394.80207,0.01242
6396.73054,0.07132
6398.65901,0.12030
6400.58748,0.13097
6402.51595,0.12177
6404.44442,0.11005
6406.37289,0.09702
6408.30135,0.11779
6410.22982,0.17448
6412.15829,0.17323
6414.08676,0.13317
6416.01523,0.15673
6417.94370,0.17412
6419.87217,0.07132
6421.80064,-0.04098
6423.72910,-0.04861
6425.65757,0.02108
6427.58604,0.10060
6429.51451,0.14877
6431.44298,0.15290
6433.37145,0.13450
6435.29992,0.09283
6437.22838,0.01594
6439.15685,-0.04221
6441.08532,-0.04544
6443.01379,-0.00447
6444.94226,0.06322
6446.87073,0.09924
6448.79920,0.08905
6450.72766,0.08096
6452.65613,0.08055
6454.58460,0.08129
6456.51307,0.11193
6458.44154,0.15915
6460.37001,0.18473
6462.29848,0.16510
6464.22695,0.08399
6466.15541,-0.01113
6468.08388,-0.04200
6470.01235,-0.02147
6471.94082,0.00723
6473.86929,0.02969
6475.79776,0.00302
6477.72623,-0.03949
6479.65469,-0.04456
6481.58316,-0.04675
6483.51163,-0.01721
6485.44010,0.06871
6487.36857,0.11792
6489.29704,0.08053
6491.22551,0.05374
6493.15398,0.08383
6495.08244,0.10341
6497.01091,0.08881
6498.93938,0.04366
6500.86785,0.00778
6502.79632,-0.00263
6504.72479,-0.03420
6506.65326,-0.05951
6508.58172,-0.03715
6510.51019,0.00303
6512.43866,0.07050
6514.36713,0.17394
6516.29560,0.19170
6518.22407,0.08407
6520.15254,-0.01602
6522.08101,-0.04604
6524.00947,-0.02853
6525.93794,0.02067
6527.86641,0.07710
6529.79488,0.10537
6531.72335,0.11435
6533.65182,0.08266
6535.58029,-0.01095
6537.50875,-0.06828
6539.43722,-0.03950
6541.36569,0.00045
6543.29416,-0.00698
6545.22263,-0.03197
6547.15110,-0.02484
6549.07957,-0.02201
6551.00804,-0.04434
6552.93650,-0.03853
6554.86497,-0.00054
6556.79344,0.06048
6558.72191,0.13154
6560.65038,0.12976
6562.57885,0.04444
6564.50732,0.00519
6566.43578,0.06145
6568.36425,0.05450
6570.29272,-0.04109
6572.22119,-0.03332
6574.14966,0.06373
6576.07813,0.09689
6578.00660,0.10081
6579.93507,0.11235
6581.86353,0.07383
6583.79200,0.05630
6585.72047,0.14634
6587.64894,0.20616
6589.57741,0.12061
6591.50588,0.00556
6593.43435,-0.00717
6595.36281,0.03006
6597.29128,0.01362
6599.21975,-0.01637
6601.14822,-0.02523
6603.07669,-0.04317
6605.00516,-0.04088
6606.93363,0.00502
6608.86210,0.04048
6610.79056,0.03819
6612.71903,0.06140
6614.64750,0.10462
6616.57597,0.04480
6618.50444,-0.06360
6620.43291,-0.05367
6622.36138,-0.00654
6624.28984,-0.02570
6626.21831,-0.00539
6628.14678,0.06062
6630.07525,0.04128
6632.00372,0.00721
6633.93219,0.04520
6635.86066,0.06076
6637.78912,0.01730
6639.71759,-0.02256
6641.64606,-0.05409
6643.57453,-0.05482
6645.50300,0.02346
6647.43147,0.11650
6649.35994,0.09522
6651.28841,-0.01687
6653.21687,-0.09352
6655.14534,-0.04010
6657.07381,0.10477
6659.00228,0.17133
6660.93075,0.14352
6662.85922,0.10105
6664.78769,0.03849
6666.71615,-0.02653
6668.64462,-0.02906
6670.57309,0.04767
6672.50156,0.13615
6674.43003,0.17981
6676.35850,0.19908
6678.28697,0.18640
6680.21544,0.13094
6682.14390,0.04903
6684.07237,-0.03758
6686.00084,-0.06602
6687.92931,-0.04224
6689.85778,-0.03609
6691.78625,-0.01560
6693.71472,0.03834
6695.64318,0.07810
6697.57165,0.08987
6699.50012,0.10079
6701.42859,0.11179
6703.35706,0.10278
6705.28553,0.08073
6707.21400,0.08288
6709.14247,0.10226
6711.07093,0.08472
6712.99940,0.06361
6714.92787,0.07102
6716.85634,0.07822
6718.78481,0.12483
6720.71328,0.19864
6722.64175,0.17374
6724.57021,0.08817
6726.49868,0.06935
6728.42715,0.10820
6730.35562,0.10826
6732.28409,0.04658
6734.21256,0.01828
6736.14103,0.00234
6738.06950,-0.07523
6739.99796,-0.12352
6741.92643,-0.08804
6743.85490,-0.05358
6745.78337,-0.05092
6747.71184,-0.06930
6749.64031,-0.07687
6751.56878,-0.02264
6753.49724,0.04852
6755.42571,0.07371
6757.35418,0.04154
6759.28265,-0.02454
6761.21112,-0.02517
6763.13959,0.01244
6765.06806,0.01992
6766.99653,0.04505
6768.92499,0.06979
6770.85346,0.05723
6772.78193,0.04171
6774.71040,0.03013
6776.63887,-0.01976
6778.56734,-0.06590
6780.49581,-0.04201
6782.42427,0.01309
6784.35274,0.03700
6786.28121,0.00924
6788.20968,-0.05490
6790.13815,-0.10481
6792.06662,-0.09817
6793.99509,-0.02573
6795.92355,0.06641
6797.85202,0.06295
6799.78049,-0.00432
6801.70896,0.00364
6803.63743,0.05540
6805.56590,0.07274
6807.49437,0.07848
6809.42284,0.03605
6811.35130,-0.02826
6813.27977,0.02032
6815.20824,0.13023
6817.13671,0.14688
6819.06518,0.10328
6820.99365,0.09251
6822.92212,0.03414
6824.85058,-0.06503
6826.77905,-0.00044
6828.70752,0.17566
6830.63599,0.22672
6832.56446,0.16966
6834.49293,0.15860
6836.42140,0.18447
6838.34987,0.19485
6840.27833,0.20305
6842.20680,0.19578
6844.13527,0.18717
6846.06374,0.22133
6847.99221,0.29350
6849.92068,0.25339
6851.84915,0.07845
6853.77761,0.01330
6855.70608,0.12297
6857.63455,0.17673
6859.56302,0.09064
6861.49149,-0.01984
6863.41996,-0.06932
6865.34843,-0.05150
6867.27690,-0.01459
6869.20536,0.02157
6871.13383,0.06224
6873.06230,0.03478
6874.99077,-0.04509
6876.91924,-0.03925
6878.84771,0.04898
6880.77618,0.10550
6882.70464,0.09624
6884.63311,-0.00071
6886.56158,-0.13254
6888.49005,-0.12036
6890.41852,0.01374
6892.34699,0.09247
6894.27546,0.09163
6896.20393,0.08821
6898.13239,0.08640
6900.06086,0.06705
6901.98933,0.09837
6903.91780,0.17767
6905.84627,0.15579
6907.77474,0.02361
6909.70321,-0.04336
6911.63167,0.00428
6913.56014,0.03164
6915.48861,0.01997
6917.41708,0.09942
6919.34555,0.19557
6921.27402,0.17205
6923.20249,0.10942
6925.13096,0.08590
6927.05942,0.11175
6928.98789,0.16392
6930.91636,0.16810
6932.84483,0.08553
6934.77330,0.00984
6936.70177,-0.01311
6938.63024,-0.00493
6940.55870,0.03209
6942.48717,0.08107
6944.41564,0.10538
6946.34411,0.08967
6948.27258,0.04173
6950.20105,-0.03720
6952.12952,-0.11982
6954.05799,-0.11491
6955.98645,0.01478
6957.91492,0.10936
6959.84339,0.07549
6961.77186,-0.00689
6963.70033,-0.03483
6965.62880,0.02928
6967.55727,0.10050
6969.48573,0.07246
6971.41420,0.02359
6973.34267,0.04451
6975.27114,0.07713
6977.19961,0.04786
6979.12808,-0.04265
6981.05655,-0.13321
6982.98501,-0.11539
6984.91348,0.04322
6986.84195,0.18055
6988.77042,0.16470
6990.69889,0.08609
6992.62736,0.05606
6994.55583,0.06854
6996.48430,0.09291
6998.41276,0.06931
7000.34123,0.03020
7002.26970,0.09037
7004.19817,0.19375
7006.12664,0.22309
7008.05511,0.16746
7009.98358,0.13033
7011.91204,0.14355
7013.84051,0.16378
7015.76898,0.17171
7017.69745,0.12999
7019.62592,0.06251
7021.55439,0.04926
7023.48286,0.06348
7025.41133,0.07487
7027.33979,0.05881
7029.26826,0.01235
7031.19673,0.04737
7033.12520,0.09896
7035.05367,0.02651
7036.98214,-0.10516
7038.91061,-0.19352
7040.83907,-0.20517
7042.76754,-0.12022
7044.69601,0.02927
7046.62448,0.13903
7048.55295,0.14239
7050.48142,0.10809
7052.40989,0.04449
7054.33836,-0.02244
7056.26682,0.00649
7058.19529,0.04000
7060.12376,-0.02502
7062.05223,-0.09514
7063.98070,-0.07842
7065.90917,-0.01131
7067.83764,-0.00593
7069.76610,-0.07189
7071.69457,-0.09765
7073.62304,-0.00291
7075.55151,0.10502
7077.47998,0.09085
7079.40845,-0.02257
7081.33692,-0.05589
7083.26539,0.07872
7085.19385,0.20927
7087.12232,0.20080
7089.05079,0.08371
7090.97926,0.03583
7092.90773,0.10454
7094.83620,0.17409
7096.76467,0.21696
7098.69313,0.25043
7100.62160,0.21240
7102.55007,0.13865
7104.47854,0.09796
7106.40701,0.04383
7108.33548,-0.03982
7110.26395,-0.04702
7112.19242,-0.01918
7114.12088,-0.05742
7116.04935,-0.11551
7117.97782,-0.13972
7119.90629,-0.07043
7121.83476,0.01904
7123.76323,-0.02260
7125.69170,-0.08912
7127.62016,-0.09030
7129.54863,-0.07800
7131.47710,0.00101
7133.40557,0.07939
7135.33404,0.03945
7137.26251,-0.03362
7139.19098,-0.07231
7141.11944,0.03309
7143.04791,0.32475
7144.97638,0.45334
7146.90485,0.20864
7148.83332,-0.04110
7150.76179,-0.05349
7152.69026,0.14261
7154.61873,0.31188
7156.54719,0.23203
7158.47566,0.05595
7160.40413,-0.01338
7162.33260,0.02745
7164.26107,0.08430
7166.18954,0.08046
7168.11801,0.03771
7170.04647,0.02422
7171.97494,0.04611
7173.90341,0.08766
7175.83188,0.12189
7177.76035,0.13079
7179.68882,0.11861
7181.61729,0.13369
7183.54576,0.17019
7185.47422,0.12235
7187.40269,0.07539
7189.33116,0.09151
7191.25963,0.05089
7193.18810,-0.05596
7195.11657,-0.06225
7197.04504,0.02230
7198.97350,0.03066
7200.90197,-0.04421
7202.83044,-0.13686
7204.75891,-0.19024
7206.68738,-0.05274
7208.61585,0.13451
7210.54432,0.16826
7212.47279,0.13341
7214.40125,0.17882
7216.32972,0.27220
7218.25819,0.30781
7220.18666,0.25253
7222.11513,0.17560
7224.04360,0.12373
7225.97207,0.04725
7227.90053,-0.03949
7229.82900,0.00618
7231.75747,0.13141
7233.68594,0.19134
7235.61441,0.24108
7237.54288,0.27212
7239.47135,0.21852
7241.39982,0.09195
7243.32828,-0.05394
7245.25675,-0.14500
7247.18522,-0.15629
7249.11369,-0.04658
7251.04216,0.15672
7252.97063,0.26088
7254.89910,0.18474
7256.82756,0.09916
7258.75603,0.01833
7260.68450,-0.02018
7262.61297,0.05259
7264.54144,0.04901
7266.46991,-0.04866
7268.39838,-0.04241
7270.32685,0.00600
7272.25531,-0.02688
7274.18378,0.05067
7276.11225,0.21303
7278.04072,0.26839
7279.96919,0.20785
7281.89766,0.12520
7283.82613,0.13027
7285.75459,0.23217
7287.68306,0.27558
7289.61153,0.13992
7291.54000,-0.12037
7293.46847,-0.20225
7295.39694,0.01896
7297.32541,0.21047
7299.25387,0.16233
7301.18234,0.02118
7303.11081,-0.03981
7305.03928,-0.02057
7306.96775,0.01826
7308.89622,0.07399
7310.82469,0.07285
7312.75316,0.04493
7314.68162,-0.01167
7316.61009,-0.09505
7318.53856,-0.01574
7320.46703,0.16611
7322.39550,0.28944
7324.32397,0.28424
7326.25244,0.15536
7328.18090,0.01449
7330.10937,-0.00804
7332.03784,0.05378
7333.96631,0.12057
7335.89478,0.17434
7337.82325,0.18367
7339.75172,0.17681
7341.68019,0.25265
7343.60865,0.30599
7345.53712,0.26940
7347.46559,0.13734
7349.39406,-0.00119
7351.32253,-0.03029
7353.25100,-0.08326
7355.17947,-0.16502
7357.10793,-0.04558
7359.03640,0.12128
7360.96487,0.03434
7362.89334,-0.01242
7364.82181,0.11622
7366.75028,0.25016
7368.67875,0.36757
7370.60722,0.38835
7372.53568,0.20183
7374.46415,-0.01167
7376.39262,0.02436
7378.32109,0.10898
7380.24956,0.16787
7382.17803,0.22338
7384.10650,0.25688
7386.03496,0.29804
7387.96343,0.23311
7389.89190,0.04800
7391.82037,-0.09447
7393.74884,-0.12289
7395.67731,-0.15056
7397.60578,-0.20980
7399.53425,-0.16873
7401.46271,-0.12441
7403.39118,-0.23296
7405.31965,-0.25625
7407.24812,-0.05530
7409.17659,0.06677
7411.10506,0.04090
7413.03353,-0.00049
7414.96199,0.01646
7416.89046,0.14049
7418.81893,0.27156
7420.74740,0.29324
7422.67587,0.23199
7424.60434,0.11158
7426.53281,0.03807
7428.46128,-0.00719
7430.38974,-0.15441
7432.31821,-0.24665
7434.24668,-0.06466
7436.17515,0.20629
7438.10362,0.20997
7440.03209,-0.00419
7441.96056,-0.15895
7443.88902,-0.18024
7445.81749,-0.07335
7447.74596,0.07483
7449.67443,0.11709
7451.60290,0.06961
7453.53137,0.06391
7455.45984,0.14910
7457.38831,0.30061
7459.31677,0.31027
7461.24524,0.05273
7463.17371,-0.11658
7465.10218,-0.07729
7467.03065,-0.01383
7468.95912,-0.03009
7470.88759,-0.10798
7472.81605,-0.19921
7474.74452,-0.16441
7476.67299,-0.02181
7478.60146,-0.00155
7480.52993,-0.07059
7482.45840,0.08390
7484.38687,0.41839
7486.31533,0.61468
7488.24380,0.49455
7490.17227,0.24504
7492.10074,0.13743
7494.02921,0.17181
7495.95768,0.24437
7497.88615,0.31377
