399.19301,0.61191
401.12148,0.05750
403.04995,0.10831
404.97842,0.23727
406.90689,0.14213
408.83536,0.01552
410.76382,0.01904
412.69229,0.01124
414.62076,0.03919
416.54923,0.11088
418.47770,0.09550
420.40617,0.06138
422.33464,0.05152
424.26311,0.03852
426.19157,0.06009
428.12004,0.10255
430.04851,0.20631
431.97698,0.29806
433.90545,0.23677
435.83392,0.13900
437.76239,0.12652
439.69085,0.19763
441.61932,0.24989
443.54779,0.20500
445.47626,0.11981
447.40473,0.02014
449.33320,0.00237
451.26167,0.07995
453.19013,0.09608
455.11860,0.06328
457.04707,0.03098
458.97554,-0.01600
460.90401,-0.04409
462.83248,-0.07186
464.76095,-0.08120
466.68942,-0.05331
468.61788,-0.00493
470.54635,0.06823
472.47482,0.13410
474.40329,0.16852
476.33176,0.12596
478.26023,0.05629
480.18870,0.06731
482.11716,0.11890
484.04563,0.11984
485.97410,0.10379
487.90257,0.10556
489.83104,0.12023
491.75951,0.09233
493.68798,0.03351
495.61645,0.03079
497.54491,0.05757
499.47338,0.08478
501.40185,0.09164
503.33032,0.04060
505.25879,0.00420
507.18726,0.02671
509.11573,0.07584
511.04419,0.11300
512.97266,0.12337
514.90113,0.12834
516.82960,0.12035
518.75807,0.08731
520.68654,0.05471
522.61501,0.04606
524.54348,0.09540
526.47194,0.14569
528.40041,0.13578
530.32888,0.12333
532.25735,0.12820
534.18582,0.14177
536.11429,0.15273
538.04276,0.14569
539.97122,0.13702
541.89969,0.11271
543.82816,0.06775
545.75663,0.03529
547.68510,0.04371
549.61357,0.08742
551.54204,0.09988
553.47051,0.08692
555.39897,0.09503
557.32744,0.10381
559.25591,0.11536
561.18438,0.12690
563.11285,0.11937
565.04132,0.09957
566.96979,0.07686
568.89825,0.08555
570.82672,0.11310
572.75519,0.13362
574.68366,0.16009
576.61213,0.17011
578.54060,0.16223
580.46907,0.15249
582.39754,0.14410
584.32600,0.15194
586.25447,0.15179
588.18294,0.13227
590.11141,0.12314
592.03988,0.12714
593.96835,0.13965
595.89682,0.13695
597.82528,0.11037
599.75375,0.09220
601.68222,0.08227
603.61069,0.07970
605.53916,0.08838
607.46763,0.09557
609.39610,0.10045
611.32456,0.10532
613.25303,0.10785
615.18150,0.08849
617.10997,0.06442
619.03844,0.07737
620.96691,0.10606
622.89538,0.13287
624.82385,0.15333
626.75231,0.14527
628.68078,0.12463
630.60925,0.11315
632.53772,0.10614
634.46619,0.12121
636.39466,0.16141
638.32313,0.18657
640.25159,0.17487
642.18006,0.15472
644.10853,0.14792
646.03700,0.14197
647.96547,0.14320
649.89394,0.15336
651.82241,0.14347
653.75088,0.12342
655.67934,0.11936
657.60781,0.13125
659.53628,0.14140
661.46475,0.13588
663.39322,0.13478
665.32169,0.13494
667.25016,0.11775
669.17862,0.12065
671.10709,0.14189
673.03556,0.15466
674.96403,0.16336
676.89250,0.16096
678.82097,0.16011
680.74944,0.15702
682.67791,0.13877
684.60637,0.12185
686.53484,0.12007
688.46331,0.12932
690.39178,0.13035
692.32025,0.12019
694.24872,0.11585
696.17719,0.12062
698.10565,0.12692
700.03412,0.12444
701.96259,0.12223
703.89106,0.13453
705.81953,0.15253
707.74800,0.16952
709.67647,0.16943
711.60494,0.14915
713.53340,0.13554
715.46187,0.13535
717.39034,0.14424
719.31881,0.14920
721.24728,0.14311
723.17575,0.14206
725.10422,0.13854
727.03268,0.12685
728.96115,0.11925
730.88962,0.11486
732.81809,0.11224
734.74656,0.11899
736.67503,0.13837
738.60350,0.14601
740.53197,0.12547
742.46043,0.11356
744.38890,0.12561
746.31737,0.13478
748.24584,0.13214
750.17431,0.12134
752.10278,0.11716
754.03125,0.12727
755.95971,0.14232
757.88818,0.15792
759.81665,0.15536
761.74512,0.13285
763.67359,0.11412
765.60206,0.10868
767.53053,0.11885
769.45900,0.13213
771.38746,0.13707
773.31593,0.13521
775.24440,0.12893
777.17287,0.13097
779.10134,0.13728
781.02981,0.14095
782.95828,0.14548
784.88674,0.14366
786.81521,0.13829
788.74368,0.12870
790.67215,0.12046
792.60062,0.12737
794.52909,0.13156
796.45756,0.12912
798.38602,0.13750
800.31449,0.15004
802.24296,0.15574
804.17143,0.14990
806.09990,0.14219
808.02837,0.13765
809.95684,0.12614
811.88531,0.12093
813.81377,0.12487
815.74224,0.12273
817.67071,0.12082
819.59918,0.12239
821.52765,0.12782
823.45612,0.13515
825.38459,0.13617
827.31305,0.13680
829.24152,0.14021
831.16999,0.14533
833.09846,0.15153
835.02693,0.15057
836.95540,0.13907
838.88387,0.12629
840.81234,0.12929
842.74080,0.14648
844.66927,0.15854
846.59774,0.16099
848.52621,0.15701
850.45468,0.15168
852.38315,0.14556
854.31162,0.13211
856.24008,0.12323
858.16855,0.12836
860.09702,0.14377
862.02549,0.16015
863.95396,0.15719
865.88243,0.15812
867.81090,0.20487
869.73937,0.25579
871.66783,0.24600
873.59630,0.19283
875.52477,0.15387
877.45324,0.14237
879.38171,0.13706
881.31018,0.13601
883.23865,0.14019
885.16711,0.14377
887.09558,0.14672
889.02405,0.14412
890.95252,0.14145
892.88099,0.14429
894.80946,0.14620
896.73793,0.14600
898.66640,0.14347
900.59486,0.14534
902.52333,0.15070
904.45180,0.14650
906.38027,0.14058
908.30874,0.14125
910.23721,0.14523
912.16568,0.15033
914.09414,0.15220
916.02261,0.14970
917.95108,0.14350
919.87955,0.14040
921.80802,0.14252
923.73649,0.14093
925.66496,0.13901
927.59343,0.13996
929.52189,0.14222
931.45036,0.14754
933.37883,0.14499
935.30730,0.13452
937.23577,0.13685
939.16424,0.15237
941.09271,0.16043
943.02117,0.15343
944.94964,0.14422
946.87811,0.13783
948.80658,0.13370
950.73505,0.14103
952.66352,0.15034
954.59199,0.15010
956.52045,0.14668
958.44892,0.13977
960.37739,0.13271
962.30586,0.12796
964.23433,0.12715
966.16280,0.13708
968.09127,0.14526
970.01974,0.14462
971.94820,0.14656
973.87667,0.14896
975.80514,0.14722
977.73361,0.14718
979.66208,0.14955
981.59055,0.14789
983.51902,0.14512
985.44748,0.15067
987.37595,0.15619
989.30442,0.15484
991.23289,0.15462
993.16136,0.15500
995.08983,0.15291
997.01830,0.14876
998.94677,0.14863
1000.87523,0.15771
1002.80370,0.16502
1004.73217,0.16852
1006.66064,0.17219
1008.58911,0.16603
1010.51758,0.15456
1012.44605,0.15159
1014.37451,0.15589
1016.30298,0.15863
1018.23145,0.15735
1020.15992,0.15859
1022.08839,0.15914
1024.01686,0.15108
1025.94533,0.12328
1027.87380,0.09473
1029.80226,0.11371
1031.73073,0.14841
1033.65920,0.15218
1035.58767,0.14929
1037.51614,0.14940
1039.44461,0.14713
1041.37308,0.14651
1043.30154,0.14954
1045.23001,0.16194
1047.15848,0.17330
1049.08695,0.17211
1051.01542,0.16602
1052.94389,0.16466
1054.87236,0.17147
1056.80083,0.17620
1058.72929,0.17478
1060.65776,0.17478
1062.58623,0.16852
1064.51470,0.15973
1066.44317,0.16271
1068.37164,0.17042
1070.30011,0.16961
1072.22857,0.15822
1074.15704,0.14998
1076.08551,0.14974
1078.01398,0.14703
1079.94245,0.13876
1081.87092,0.13329
1083.79939,0.14021
1085.72786,0.15147
1087.65632,0.15990
1089.58479,0.17044
1091.51326,0.17245
1093.44173,0.16765
1095.37020,0.16985
1097.29867,0.16912
1099.22714,0.16555
1101.15560,0.16634
1103.08407,0.16522
1105.01254,0.16068
1106.94101,0.15222
1108.86948,0.14833
1110.79795,0.15302
1112.72642,0.15975
1114.65489,0.16935
1116.58335,0.17524
1118.51182,0.17744
1120.44029,0.18048
1122.36876,0.17530
1124.29723,0.16608
1126.22570,0.16409
1128.15417,0.16534
1130.08263,0.16229
1132.01110,0.15645
1133.93957,0.15359
1135.86804,0.15698
1137.79651,0.16459
1139.72498,0.16636
1141.65345,0.16231
1143.58191,0.16488
1145.51038,0.17027
1147.43885,0.17011
1149.36732,0.16689
1151.29579,0.16368
1153.22426,0.16780
1155.15273,0.17366
1157.08120,0.17078
1159.00966,0.16932
1160.93813,0.16997
1162.86660,0.16712
1164.79507,0.16679
1166.72354,0.16908
1168.65201,0.16969
1170.58048,0.16575
1172.50894,0.16234
1174.43741,0.16524
1176.36588,0.16998
1178.29435,0.17174
1180.22282,0.16652
1182.15129,0.16009
1184.07976,0.16398
1186.00823,0.17279
1187.93669,0.17657
1189.86516,0.17298
1191.79363,0.16515
1193.72210,0.16180
1195.65057,0.16316
1197.57904,0.16420
1199.50751,0.16450
1201.43597,0.16486
1203.36444,0.16679
1205.29291,0.16664
1207.22138,0.16268
1209.14985,0.15873
1211.07832,0.15830
1213.00679,0.16562
1214.93526,0.17228
1216.86372,0.16755
1218.79219,0.16049
1220.72066,0.16028
1222.64913,0.16404
1224.57760,0.16683
1226.50607,0.16726
1228.43454,0.16932
1230.36300,0.17170
1232.29147,0.17011
1234.21994,0.16733
1236.14841,0.16533
1238.07688,0.16374
1240.00535,0.16042
1241.93382,0.15691
1243.86229,0.15858
1245.79075,0.16090
1247.71922,0.16155
1249.64769,0.16378
1251.57616,0.16504
1253.50463,0.16503
1255.43310,0.16500
1257.36157,0.16373
1259.29003,0.15900
1261.21850,0.15464
1263.14697,0.15915
1265.07544,0.16676
1267.00391,0.16651
1268.93238,0.15980
1270.86085,0.15751
1272.78932,0.16397
1274.71778,0.16738
1276.64625,0.16609
1278.57472,0.16835
1280.50319,0.16854
1282.43166,0.16683
1284.36013,0.16852
1286.28860,0.16877
1288.21706,0.17042
1290.14553,0.17348
1292.07400,0.16938
1294.00247,0.16212
1295.93094,0.15964
1297.85941,0.15974
1299.78788,0.15374
1301.71634,0.13907
1303.64481,0.12471
1305.57328,0.12653
1307.50175,0.14808
1309.43022,0.16723
1311.35869,0.17247
1313.28716,0.17277
1315.21563,0.17027
1317.14409,0.16738
1319.07256,0.16540
1321.00103,0.16144
1322.92950,0.16053
1324.85797,0.16189
1326.78644,0.16195
1328.71491,0.16319
1330.64337,0.16176
1332.57184,0.15890
1334.50031,0.15971
1336.42878,0.16244
1338.35725,0.16464
1340.28572,0.15866
1342.21419,0.15089
1344.14266,0.15063
1346.07112,0.15243
1347.99959,0.15782
1349.92806,0.16463
1351.85653,0.16693
1353.78500,0.16819
1355.71347,0.16899
1357.64194,0.16902
1359.57040,0.17133
1361.49887,0.17755
1363.42734,0.18011
1365.35581,0.17358
1367.28428,0.16816
1369.21275,0.16954
1371.14122,0.17635
1373.06969,0.18322
1374.99815,0.18142
1376.92662,0.17653
1378.85509,0.17733
1380.78356,0.18011
1382.71203,0.18100
1384.64050,0.17919
1386.56897,0.17820
1388.49743,0.18104
1390.42590,0.18389
1392.35437,0.18763
1394.28284,0.19370
1396.21131,0.19855
1398.13978,0.19864
1400.06825,0.19322
1401.99672,0.18809
1403.92518,0.18639
1405.85365,0.18547
1407.78212,0.18311
1409.71059,0.18056
1411.63906,0.18142
1413.56753,0.18415
1415.49600,0.18620
1417.42446,0.19004
1419.35293,0.19329
1421.28140,0.19326
1423.20987,0.19212
1425.13834,0.19029
1427.06681,0.19030
1428.99528,0.19119
1430.92375,0.19274
1432.85221,0.19570
1434.78068,0.19846
1436.70915,0.19689
1438.63762,0.18837
1440.56609,0.18332
1442.49456,0.18391
1444.42303,0.18625
1446.35149,0.19053
1448.27996,0.19334
1450.20843,0.19235
1452.13690,0.19311
1454.06537,0.19814
1455.99384,0.21140
1457.92231,0.21808
1459.85077,0.20171
1461.77924,0.19204
1463.70771,0.19507
1465.63618,0.19954
1467.56465,0.19772
1469.49312,0.19750
1471.42159,0.20173
1473.35006,0.20229
1475.27852,0.19939
1477.20699,0.19666
1479.13546,0.19205
1481.06393,0.18855
1482.99240,0.18841
1484.92087,0.19380
1486.84934,0.20593
1488.77780,0.21625
1490.70627,0.21079
1492.63474,0.19842
1494.56321,0.19345
1496.49168,0.19639
1498.42015,0.19761
1500.34862,0.20005
1502.27709,0.20666
1504.20555,0.21308
1506.13402,0.22582
1508.06249,0.22893
1509.99096,0.21134
1511.91943,0.19887
1513.84790,0.19561
1515.77637,0.20199
1517.70483,0.21401
1519.63330,0.22726
1521.56177,0.23506
1523.49024,0.22315
1525.41871,0.21047
1527.34718,0.20492
1529.27565,0.20280
1531.20412,0.20829
1533.13258,0.21403
1535.06105,0.20812
1536.98952,0.20708
1538.91799,0.22810
1540.84646,0.26008
1542.77493,0.25409
1544.70340,0.23104
1546.63186,0.21307
1548.56033,0.20685
1550.48880,0.20671
1552.41727,0.20555
1554.34574,0.20961
1556.27421,0.22701
1558.20268,0.24394
1560.13115,0.21444
1562.05961,0.19226
1563.98808,0.19063
1565.91655,0.19403
1567.84502,0.19808
1569.77349,0.19886
1571.70196,0.19449
1573.63043,0.19609
1575.55889,0.20505
1577.48736,0.20471
1579.41583,0.19636
1581.34430,0.18931
1583.27277,0.18188
1585.20124,0.17757
1587.12971,0.17841
1589.05818,0.18073
1590.98664,0.18293
1592.91511,0.18579
1594.84358,0.18796
1596.77205,0.18435
1598.70052,0.17814
1600.62899,0.17844
1602.55746,0.18207
1604.48592,0.18405
1606.41439,0.18517
1608.34286,0.18552
1610.27133,0.18847
1612.19980,0.19262
1614.12827,0.19755
1616.05674,0.20304
1617.98521,0.19944
1619.91367,0.19658
1621.84214,0.20065
1623.77061,0.20208
1625.69908,0.19869
1627.62755,0.19641
1629.55602,0.19556
1631.48449,0.19734
1633.41295,0.20765
1635.34142,0.22660
1637.26989,0.22609
1639.19836,0.21226
1641.12683,0.20498
1643.05530,0.20361
1644.98377,0.20885
1646.91223,0.21696
1648.84070,0.21859
1650.76917,0.22677
1652.69764,0.24353
1654.62611,0.22966
1656.55458,0.20685
1658.48305,0.19721
1660.41152,0.19618
1662.33998,0.19649
1664.26845,0.19298
1666.19692,0.19204
1668.12539,0.19828
1670.05386,0.20499
1671.98233,0.20348
1673.91080,0.20461
1675.83926,0.20826
1677.76773,0.20698
1679.69620,0.20672
1681.62467,0.21349
1683.55314,0.22945
1685.48161,0.23013
1687.41008,0.21505
1689.33855,0.20507
1691.26701,0.19925
1693.19548,0.20168
1695.12395,0.21492
1697.05242,0.22365
1698.98089,0.21973
1700.90936,0.21168
1702.83783,0.20898
1704.76629,0.21245
1706.69476,0.20923
1708.62323,0.19892
1710.55170,0.19288
1712.48017,0.19494
1714.40864,0.20720
1716.33711,0.22200
1718.26558,0.21673
1720.19404,0.20094
1722.12251,0.19235
1724.05098,0.18912
1725.97945,0.18743
1727.90792,0.18923
1729.83639,0.19504
1731.76486,0.20257
1733.69332,0.20873
1735.62179,0.20461
1737.55026,0.20292
1739.47873,0.20683
1741.40720,0.20490
1743.33567,0.20231
1745.26414,0.20594
1747.19261,0.21077
1749.12107,0.21141
1751.04954,0.20186
1752.97801,0.19090
1754.90648,0.18977
1756.83495,0.19556
1758.76342,0.19984
1760.69189,0.19973
1762.62035,0.19598
1764.54882,0.19207
1766.47729,0.19260
1768.40576,0.19849
1770.33423,0.20845
1772.26270,0.21500
1774.19117,0.20786
1776.11964,0.19699
1778.04810,0.19348
1779.97657,0.19472
1781.90504,0.19230
1783.83351,0.18788
1785.76198,0.18683
1787.69045,0.19217
1789.61892,0.20305
1791.54738,0.21190
1793.47585,0.20956
1795.40432,0.20179
1797.33279,0.19772
1799.26126,0.19731
1801.18973,0.19636
1803.11820,0.19377
1805.04666,0.19074
1806.97513,0.18969
1808.90360,0.19136
1810.83207,0.19061
1812.76054,0.18685
1814.68901,0.18728
1816.61748,0.20550
1818.54595,0.23270
1820.47441,0.22831
1822.40288,0.20308
1824.33135,0.19600
1826.25982,0.19934
1828.18829,0.20090
1830.11676,0.20033
1832.04523,0.19461
1833.97369,0.19174
1835.90216,0.19333
1837.83063,0.19595
1839.75910,0.19732
1841.68757,0.19978
1843.61604,0.20230
1845.54451,0.19921
1847.47298,0.19559
1849.40144,0.19371
1851.32991,0.19265
1853.25838,0.19403
1855.18685,0.19561
1857.11532,0.19523
1859.04379,0.19337
1860.97226,0.19083
1862.90072,0.19074
1864.82919,0.19432
1866.75766,0.19878
1868.68613,0.19814
1870.61460,0.19287
1872.54307,0.19015
1874.47154,0.18858
1876.40001,0.18777
1878.32847,0.18822
1880.25694,0.18850
1882.18541,0.19024
1884.11388,0.19142
1886.04235,0.19090
1887.97082,0.19203
1889.89929,0.19277
1891.82775,0.19169
1893.75622,0.19220
1895.68469,0.19395
1897.61316,0.19264
1899.54163,0.18922
1901.47010,0.18973
1903.39857,0.19146
1905.32704,0.19053
1907.25550,0.19216
1909.18397,0.19416
1911.11244,0.19204
1913.04091,0.19042
1914.96938,0.19174
1916.89785,0.19512
1918.82632,0.19702
1920.75478,0.19604
1922.68325,0.19466
1924.61172,0.19171
1926.54019,0.18756
1928.46866,0.18479
1930.39713,0.18561
1932.32560,0.18821
1934.25407,0.18848
1936.18253,0.18892
1938.11100,0.19018
1940.03947,0.19095
1941.96794,0.19375
1943.89641,0.19493
1945.82488,0.19297
1947.75335,0.19127
1949.68181,0.18944
1951.61028,0.18934
1953.53875,0.19118
1955.46722,0.19191
1957.39569,0.19093
1959.32416,0.18962
1961.25263,0.19014
1963.18110,0.19076
1965.10956,0.18928
1967.03803,0.18773
1968.96650,0.18818
1970.89497,0.18986
1972.82344,0.18899
1974.75191,0.18590
1976.68038,0.18562
1978.60884,0.18775
1980.53731,0.18972
1982.46578,0.19037
1984.39425,0.18957
1986.32272,0.18895
1988.25119,0.18804
1990.17966,0.18782
1992.10812,0.18843
1994.03659,0.18720
1995.96506,0.18838
1997.89353,0.19287
1999.82200,0.19487
2001.75047,0.19328
2003.67894,0.18916
2005.60741,0.18522
2007.53587,0.18455
2009.46434,0.18639
2011.39281,0.18936
2013.32128,0.19198
2015.24975,0.19375
2017.17822,0.19408
2019.10669,0.19191
2021.03515,0.18978
2022.96362,0.18973
2024.89209,0.19023
2026.82056,0.18955
2028.74903,0.18889
2030.67750,0.18886
2032.60597,0.18730
2034.53444,0.18684
2036.46290,0.18886
2038.39137,0.18889
2040.31984,0.18790
2042.24831,0.18824
2044.17678,0.18876
2046.10525,0.18861
2048.03372,0.18830
2049.96218,0.19019
2051.89065,0.19175
2053.81912,0.19029
2055.74759,0.19023
2057.67606,0.19244
2059.60453,0.19328
2061.53300,0.19211
2063.46147,0.19137
2065.38993,0.19273
2067.31840,0.19319
2069.24687,0.19142
2071.17534,0.19064
2073.10381,0.19100
2075.03228,0.19077
2076.96075,0.18951
2078.88921,0.18939
2080.81768,0.19244
2082.74615,0.19449
2084.67462,0.19345
2086.60309,0.19160
2088.53156,0.19005
2090.46003,0.19039
2092.38850,0.19151
2094.31696,0.19143
2096.24543,0.19083
2098.17390,0.19188
2100.10237,0.19529
2102.03084,0.19704
2103.95931,0.19671
2105.88778,0.19686
2107.81624,0.19478
2109.74471,0.19101
2111.67318,0.19018
2113.60165,0.19150
2115.53012,0.19178
2117.45859,0.19009
2119.38706,0.18855
2121.31553,0.18880
2123.24399,0.18906
2125.17246,0.18962
2127.10093,0.19182
2129.02940,0.19469
2130.95787,0.19509
2132.88634,0.19160
2134.81481,0.18969
2136.74327,0.19170
2138.67174,0.19394
2140.60021,0.19441
2142.52868,0.19269
2144.45715,0.19121
2146.38562,0.19196
2148.31409,0.19289
2150.24255,0.19264
2152.17102,0.19182
2154.09949,0.19167
2156.02796,0.19175
2157.95643,0.19072
2159.88490,0.19047
2161.81337,0.19164
2163.74184,0.19216
2165.67030,0.19189
2167.59877,0.19257
2169.52724,0.19424
2171.45571,0.19399
2173.38418,0.19257
2175.31265,0.19185
2177.24112,0.18947
2179.16958,0.18640
2181.09805,0.18519
2183.02652,0.18494
2184.95499,0.18476
2186.88346,0.18510
2188.81193,0.18632
2190.74040,0.18789
2192.66887,0.19023
2194.59733,0.19278
2196.52580,0.19257
2198.45427,0.19071
2200.38274,0.18990
2202.31121,0.19040
2204.23968,0.19215
2206.16815,0.19298
2208.09661,0.19324
2210.02508,0.19426
2211.95355,0.19395
2213.88202,0.19388
2215.81049,0.19458
2217.73896,0.19468
2219.66743,0.19637
2221.59590,0.19815
2223.52436,0.19703
2225.45283,0.19418
2227.38130,0.19162
2229.30977,0.19063
2231.23824,0.19039
2233.16671,0.19017
2235.09518,0.19142
2237.02364,0.19373
2238.95211,0.19485
2240.88058,0.19343
2242.80905,0.19207
2244.73752,0.19308
2246.66599,0.19254
2248.59446,0.19006
2250.52293,0.18881
2252.45139,0.18899
2254.37986,0.19077
2256.30833,0.19236
2258.23680,0.19334
2260.16527,0.19441
2262.09374,0.19455
2264.02221,0.19483
2265.95067,0.19438
2267.87914,0.19203
2269.80761,0.19045
2271.73608,0.19156
2273.66455,0.19500
2275.59302,0.19693
2277.52149,0.19470
2279.44996,0.19270
2281.37842,0.19404
2283.30689,0.19451
2285.23536,0.19172
2287.16383,0.19013
2289.09230,0.19001
2291.02077,0.18776
2292.94924,0.18582
2294.87770,0.18645
2296.80617,0.19014
2298.73464,0.19624
2300.66311,0.19850
2302.59158,0.19362
2304.52005,0.18589
2306.44852,0.18269
2308.37699,0.18628
2310.30545,0.18862
2312.23392,0.18647
2314.16239,0.18500
2316.09086,0.18635
2318.01933,0.19112
2319.94780,0.19707
2321.87627,0.20432
2323.80473,0.20920
2325.73320,0.20103
2327.66167,0.19051
2329.59014,0.18765
2331.51861,0.18336
2333.44708,0.17750
2335.37555,0.18382
2337.30401,0.20711
2339.23248,0.21963
2341.16095,0.20604
2343.08942,0.18857
2345.01789,0.18049
2346.94636,0.18416
2348.87483,0.19098
2350.80330,0.19359
2352.73176,0.19591
2354.66023,0.19703
2356.58870,0.18689
2358.51717,0.17159
2360.44564,0.16509
2362.37411,0.17800
2364.30258,0.19551
2366.23104,0.19899
2368.15951,0.19405
2370.08798,0.18760
2372.01645,0.18780
2373.94492,0.19486
2375.87339,0.20093
2377.80186,0.20149
2379.73033,0.19837
2381.65879,0.19769
2383.58726,0.19841
2385.51573,0.19603
2387.44420,0.19286
2389.37267,0.19167
2391.30114,0.19263
2393.22961,0.19477
2395.15807,0.19573
2397.08654,0.19512
2399.01501,0.19257
2400.94348,0.18969
2402.87195,0.18875
2404.80042,0.18796
2406.72889,0.18874
2408.65736,0.19106
2410.58582,0.19054
2412.51429,0.18850
2414.44276,0.18808
2416.37123,0.19021
2418.29970,0.19385
2420.22817,0.19602
2422.15664,0.19574
2424.08510,0.19508
2426.01357,0.19614
2427.94204,0.19769
2429.87051,0.19840
2431.79898,0.19871
2433.72745,0.19718
2435.65592,0.19474
2437.58439,0.19402
2439.51285,0.19350
2441.44132,0.19265
2443.36979,0.19185
2445.29826,0.19130
2447.22673,0.19352
2449.15520,0.19676
2451.08367,0.19733
2453.01213,0.19507
2454.94060,0.19152
2456.86907,0.18973
2458.79754,0.18925
2460.72601,0.18936
2462.65448,0.19133
2464.58295,0.19284
2466.51142,0.19277
2468.43988,0.19168
2470.36835,0.19155
2472.29682,0.19301
2474.22529,0.19256
2476.15376,0.19248
2478.08223,0.19435
2480.01070,0.19389
2481.93916,0.19144
2483.86763,0.19069
2485.79610,0.19260
2487.72457,0.19387
2489.65304,0.19298
2491.58151,0.19194
2493.50998,0.19155
2495.43844,0.19314
2497.36691,0.19590
2499.29538,0.19807
2501.22385,0.20022
2503.15232,0.19959
2505.08079,0.19665
2507.00926,0.19569
2508.93773,0.19513
2510.86619,0.19526
2512.79466,0.19695
2514.72313,0.19743
2516.65160,0.19633
2518.58007,0.19424
2520.50854,0.19367
2522.43701,0.19521
2524.36547,0.19566
2526.29394,0.19408
2528.22241,0.19227
2530.15088,0.19421
2532.07935,0.19828
2534.00782,0.19969
2535.93629,0.20007
2537.86476,0.19918
2539.79322,0.19705
2541.72169,0.19703
2543.65016,0.19696
2545.57863,0.19543
2547.50710,0.19413
2549.43557,0.19315
2551.36404,0.19259
2553.29250,0.19157
2555.22097,0.19010
2557.14944,0.19008
2559.07791,0.19196
2561.00638,0.19317
2562.93485,0.19247
2564.86332,0.19466
2566.79179,0.19994
2568.72025,0.20137
2570.64872,0.19881
2572.57719,0.19670
2574.50566,0.19670
2576.43413,0.19799
2578.36260,0.19814
2580.29107,0.19694
2582.21953,0.19565
2584.14800,0.19501
2586.07647,0.19546
2588.00494,0.19632
2589.93341,0.19634
2591.86188,0.19432
2593.79035,0.19259
2595.71882,0.19241
2597.64728,0.19168
2599.57575,0.19265
2601.50422,0.19442
2603.43269,0.19424
2605.36116,0.19575
2607.28963,0.19901
2609.21810,0.20043
2611.14656,0.19749
2613.07503,0.19215
2615.00350,0.19220
2616.93197,0.19669
2618.86044,0.19830
2620.78891,0.19711
2622.71738,0.19677
2624.64585,0.19926
2626.57431,0.20174
2628.50278,0.20165
2630.43125,0.20097
2632.35972,0.19844
2634.28819,0.19345
2636.21666,0.18953
2638.14513,0.19052
2640.07359,0.19610
2642.00206,0.19882
2643.93053,0.19690
2645.85900,0.19530
2647.78747,0.19562
2649.71594,0.19830
2651.64441,0.20175
2653.57288,0.20296
2655.50134,0.20123
2657.42981,0.19858
2659.35828,0.19749
2661.28675,0.19703
2663.21522,0.19673
2665.14369,0.19822
2667.07216,0.20108
2669.00062,0.20344
2670.92909,0.20308
2672.85756,0.20194
2674.78603,0.20342
2676.71450,0.20313
2678.64297,0.19815
2680.57144,0.19232
2682.49990,0.19022
2684.42837,0.19448
2686.35684,0.20051
2688.28531,0.20212
2690.21378,0.19879
2692.14225,0.19520
2694.07072,0.19541
2695.99919,0.19632
2697.92765,0.19683
2699.85612,0.19958
2701.78459,0.20179
2703.71306,0.20207
2705.64153,0.20172
2707.57000,0.20075
2709.49847,0.20081
2711.42693,0.20176
2713.35540,0.20166
2715.28387,0.19981
2717.21234,0.19880
2719.14081,0.20198
2721.06928,0.20559
2722.99775,0.20675
2724.92622,0.20677
2726.85468,0.20570
2728.78315,0.20406
2730.71162,0.20154
2732.64009,0.20006
2734.56856,0.20025
2736.49703,0.19932
2738.42550,0.19841
2740.35396,0.19923
2742.28243,0.20213
2744.21090,0.20497
2746.13937,0.20455
2748.06784,0.20486
2749.99631,0.20746
2751.92478,0.20691
2753.85325,0.20387
2755.78171,0.20178
2757.71018,0.20325
2759.63865,0.20803
2761.56712,0.20973
2763.49559,0.20933
2765.42406,0.21042
2767.35253,0.20954
2769.28099,0.20595
2771.20946,0.20378
2773.13793,0.20684
2775.06640,0.21032
2776.99487,0.20739
2778.92334,0.20316
2780.85181,0.20332
2782.78028,0.20507
2784.70874,0.20502
2786.63721,0.20468
2788.56568,0.20622
2790.49415,0.20656
2792.42262,0.20384
2794.35109,0.20117
2796.27956,0.20133
2798.20802,0.20332
2800.13649,0.20342
2802.06496,0.20317
2803.99343,0.20465
2805.92190,0.20492
2807.85037,0.20433
2809.77884,0.20548
2811.70731,0.20813
2813.63577,0.21132
2815.56424,0.21460
2817.49271,0.21506
2819.42118,0.21146
2821.34965,0.20953
2823.27812,0.21168
2825.20659,0.21135
2827.13505,0.20685
2829.06352,0.20397
2830.99199,0.20484
2832.92046,0.20844
2834.84893,0.21090
2836.77740,0.21075
2838.70587,0.20963
2840.63433,0.20660
2842.56280,0.20576
2844.49127,0.20824
2846.41974,0.20921
2848.34821,0.20848
2850.27668,0.20901
2852.20515,0.21193
2854.13362,0.21085
2856.06208,0.20448
2857.99055,0.20268
2859.91902,0.20678
2861.84749,0.21027
2863.77596,0.21055
2865.70443,0.20812
2867.63290,0.20482
2869.56136,0.20189
2871.48983,0.19993
2873.41830,0.19922
2875.34677,0.20101
2877.27524,0.20610
2879.20371,0.20878
2881.13218,0.20680
2883.06065,0.20554
2884.98911,0.20628
2886.91758,0.20774
2888.84605,0.20869
2890.77452,0.20884
2892.70299,0.20717
2894.63146,0.20100
2896.55993,0.19674
2898.48839,0.19920
2900.41686,0.20309
2902.34533,0.20570
2904.27380,0.20507
2906.20227,0.20289
2908.13074,0.20369
2910.05921,0.20486
2911.98768,0.20453
2913.91614,0.20164
2915.84461,0.19746
2917.77308,0.19752
2919.70155,0.19812
2921.63002,0.19780
2923.55849,0.19926
2925.48696,0.19643
2927.41542,0.19290
2929.34389,0.19594
2931.27236,0.19926
2933.20083,0.19775
2935.12930,0.19092
2937.05777,0.18549
2938.98624,0.19192
2940.91471,0.20477
2942.84317,0.21139
2944.77164,0.20595
2946.70011,0.19188
2948.62858,0.18583
2950.55705,0.19457
2952.48552,0.20317
2954.41399,0.20086
2956.34245,0.18744
2958.27092,0.17633
2960.19939,0.18576
2962.12786,0.20601
2964.05633,0.21638
2965.98480,0.21449
2967.91327,0.20738
2969.84174,0.20534
2971.77020,0.21010
2973.69867,0.21272
2975.62714,0.20869
2977.55561,0.20103
2979.48408,0.19958
2981.41255,0.20512
2983.34102,0.20753
2985.26948,0.20590
2987.19795,0.20093
2989.12642,0.19464
2991.05489,0.19690
2992.98336,0.20641
2994.91183,0.21188
2996.84030,0.20984
2998.76877,0.20618
3000.69723,0.20696
3002.62570,0.20899
3004.55417,0.20803
3006.48264,0.20567
3008.41111,0.20156
3010.33958,0.19091
3012.26805,0.16532
3014.19651,0.12569
3016.12498,0.09918
3018.05345,0.11725
3019.98192,0.16446
3021.91039,0.19632
3023.83886,0.20455
3025.76733,0.20347
3027.69579,0.20121
3029.62426,0.20626
3031.55273,0.21523
3033.48120,0.21697
3035.40967,0.21411
3037.33814,0.21122
3039.26661,0.20783
3041.19508,0.20760
3043.12354,0.21015
3045.05201,0.20901
3046.98048,0.20396
3048.90895,0.20434
3050.83742,0.21236
3052.76589,0.21494
3054.69436,0.20561
3056.62282,0.19368
3058.55129,0.19307
3060.47976,0.20335
3062.40823,0.20912
3064.33670,0.20459
3066.26517,0.19812
3068.19364,0.19983
3070.12211,0.20804
3072.05057,0.20958
3073.97904,0.19943
3075.90751,0.19133
3077.83598,0.19854
3079.76445,0.21306
3081.69292,0.21872
3083.62139,0.20752
3085.54985,0.19302
3087.47832,0.19703
3089.40679,0.21031
3091.33526,0.20923
3093.26373,0.19388
3095.19220,0.18656
3097.12067,0.19709
3099.04914,0.20888
3100.97760,0.20748
3102.90607,0.19518
3104.83454,0.19120
3106.76301,0.20404
3108.69148,0.21594
3110.61995,0.21179
3112.54842,0.19592
3114.47688,0.18921
3116.40535,0.19748
3118.33382,0.20430
3120.26229,0.20245
3122.19076,0.19754
3124.11923,0.20117
3126.04770,0.21453
3127.97617,0.22266
3129.90463,0.21900
3131.83310,0.21404
3133.76157,0.21583
3135.69004,0.21644
3137.61851,0.20806
3139.54698,0.20170
3141.47545,0.20995
3143.40391,0.22067
3145.33238,0.21881
3147.26085,0.21162
3149.18932,0.21098
3151.11779,0.21496
3153.04626,0.21768
3154.97473,0.21925
3156.90320,0.21727
3158.83166,0.21372
3160.76013,0.21399
3162.68860,0.21471
3164.61707,0.21592
3166.54554,0.21955
3168.47401,0.22209
3170.40248,0.22095
3172.33094,0.21757
3174.25941,0.21567
3176.18788,0.21473
3178.11635,0.21388
3180.04482,0.21417
3181.97329,0.21464
3183.90176,0.21704
3185.83022,0.22064
3187.75869,0.22031
3189.68716,0.21776
3191.61563,0.21510
3193.54410,0.21100
3195.47257,0.20911
3197.40104,0.21315
3199.32951,0.21889
3201.25797,0.21808
3203.18644,0.21324
3205.11491,0.21155
3207.04338,0.21345
3208.97185,0.22129
3210.90032,0.22863
3212.82879,0.22598
3214.75725,0.21903
3216.68572,0.21386
3218.61419,0.21307
3220.54266,0.21586
3222.47113,0.21452
3224.39960,0.20933
3226.32807,0.20707
3228.25654,0.20780
3230.18500,0.20918
3232.11347,0.21085
3234.04194,0.21187
3235.97041,0.21207
3237.89888,0.21475
3239.82735,0.21978
3241.75582,0.22100
3243.68428,0.21840
3245.61275,0.21544
3247.54122,0.21426
3249.46969,0.21721
3251.39816,0.21968
3253.32663,0.21755
3255.25510,0.21383
3257.18357,0.21172
3259.11203,0.21114
3261.04050,0.21130
3262.96897,0.21644
3264.89744,0.22386
3266.82591,0.22302
3268.75438,0.21454
3270.68285,0.20675
3272.61131,0.20705
3274.53978,0.21156
3276.46825,0.20804
3278.39672,0.20153
3280.32519,0.20147
3282.25366,0.20391
3284.18213,0.20696
3286.11060,0.21021
3288.03906,0.21100
3289.96753,0.21210
3291.89600,0.21495
3293.82447,0.21581
3295.75294,0.21706
3297.68141,0.22225
3299.60988,0.22251
3301.53834,0.21361
3303.46681,0.20561
3305.39528,0.20177
3307.32375,0.20273
3309.25222,0.20824
3311.18069,0.21001
3313.10916,0.21133
3315.03763,0.21709
3316.96609,0.21983
3318.89456,0.21771
3320.82303,0.21631
3322.75150,0.21739
3324.67997,0.21747
3326.60844,0.21792
3328.53691,0.22082
3330.46537,0.22099
3332.39384,0.22108
3334.32231,0.22462
3336.25078,0.22359
3338.17925,0.21787
3340.10772,0.21205
3342.03619,0.20740
3343.96466,0.20839
3345.89312,0.21221
3347.82159,0.21454
3349.75006,0.21868
3351.67853,0.22709
3353.60700,0.23336
3355.53547,0.22817
3357.46394,0.21805
3359.39240,0.21340
3361.32087,0.21404
3363.24934,0.21705
3365.17781,0.21927
3367.10628,0.22335
3369.03475,0.22853
3370.96322,0.22815
3372.89168,0.22434
3374.82015,0.21913
3376.74862,0.21529
3378.67709,0.21832
3380.60556,0.22261
3382.53403,0.22263
3384.46250,0.21932
3386.39097,0.21386
3388.31943,0.20767
3390.24790,0.20327
3392.17637,0.20695
3394.10484,0.21547
3396.03331,0.21835
3397.96178,0.21641
3399.89025,0.21452
3401.81871,0.21364
3403.74718,0.21227
3405.67565,0.21239
3407.60412,0.21536
3409.53259,0.21261
3411.46106,0.20354
3413.38953,0.19998
3415.31800,0.20238
3417.24646,0.20418
3419.17493,0.20751
3421.10340,0.21409
3423.03187,0.21775
3424.96034,0.21410
3426.88881,0.20651
3428.81728,0.20016
3430.74574,0.20045
3432.67421,0.20711
3434.60268,0.21084
3436.53115,0.21160
3438.45962,0.21199
3440.38809,0.20945
3442.31656,0.20779
3444.24503,0.20720
3446.17349,0.20759
3448.10196,0.21010
3450.03043,0.20866
3451.95890,0.20422
3453.88737,0.20081
3455.81584,0.19898
3457.74431,0.19855
3459.67277,0.19681
3461.60124,0.19573
3463.52971,0.19721
3465.45818,0.19838
3467.38665,0.20101
3469.31512,0.20428
3471.24359,0.20360
3473.17206,0.19873
3475.10052,0.19363
3477.02899,0.19329
3478.95746,0.19431
3480.88593,0.19123
3482.81440,0.18681
3484.74287,0.18570
3486.67134,0.18784
3488.59980,0.18902
3490.52827,0.18909
3492.45674,0.18956
3494.38521,0.18984
3496.31368,0.19329
3498.24215,0.19788
3500.17062,0.19783
3502.09909,0.19434
3504.02755,0.19018
3505.95602,0.18824
3507.88449,0.18645
3509.81296,0.18273
3511.74143,0.18191
3513.66990,0.18226
3515.59837,0.18141
3517.52683,0.18198
3519.45530,0.18301
3521.38377,0.18349
3523.31224,0.18247
3525.24071,0.18077
3527.16918,0.18057
3529.09765,0.17968
3531.02611,0.17678
3532.95458,0.17256
3534.88305,0.17007
3536.81152,0.17049
3538.73999,0.16928
3540.66846,0.16912
3542.59693,0.17302
3544.52540,0.17729
3546.45386,0.18093
3548.38233,0.17943
3550.31080,0.17455
3552.23927,0.17227
3554.16774,0.16970
3556.09621,0.16956
3558.02468,0.17437
3559.95314,0.17891
3561.88161,0.17892
3563.81008,0.17501
3565.73855,0.17432
3567.66702,0.17439
3569.59549,0.16874
3571.52396,0.16862
3573.45243,0.17364
3575.38089,0.17184
3577.30936,0.16203
3579.23783,0.15457
3581.16630,0.15688
3583.09477,0.16491
3585.02324,0.17208
3586.95171,0.17644
3588.88017,0.17162
3590.80864,0.16265
3592.73711,0.15950
3594.66558,0.16258
3596.59405,0.16633
3598.52252,0.16495
3600.45099,0.15949
3602.37946,0.15289
3604.30792,0.14953
3606.23639,0.15225
3608.16486,0.15587
3610.09333,0.15900
3612.02180,0.16243
3613.95027,0.15983
3615.87874,0.15326
3617.80720,0.15176
3619.73567,0.15516
3621.66414,0.15085
3623.59261,0.14401
3625.52108,0.14913
3627.44955,0.16512
3629.37802,0.17120
3631.30649,0.15973
3633.23495,0.14958
3635.16342,0.14494
3637.09189,0.14280
3639.02036,0.14129
3640.94883,0.14108
3642.87730,0.14250
3644.80577,0.14842
3646.73423,0.15874
3648.66270,0.16643
3650.59117,0.16268
3652.51964,0.15127
3654.44811,0.14279
3656.37658,0.14022
3658.30505,0.14030
3660.23352,0.14036
3662.16198,0.13848
3664.09045,0.13585
3666.01892,0.13719
3667.94739,0.14434
3669.87586,0.15327
3671.80433,0.15608
3673.73280,0.15971
3675.66126,0.16090
3677.58973,0.15034
3679.51820,0.14371
3681.44667,0.14141
3683.37514,0.13884
3685.30361,0.13808
3687.23208,0.14188
3689.16055,0.14972
3691.08901,0.14840
3693.01748,0.13837
3694.94595,0.13379
3696.87442,0.13363
3698.80289,0.13279
3700.73136,0.13074
3702.65983,0.12571
3704.58829,0.12455
3706.51676,0.13290
3708.44523,0.14487
3710.37370,0.15014
3712.30217,0.14224
3714.23064,0.13276
3716.15911,0.12828
3718.08757,0.13098
3720.01604,0.14256
3721.94451,0.15384
3723.87298,0.15795
3725.80145,0.15618
3727.72992,0.15219
3729.65839,0.15294
3731.58686,0.15765
3733.51532,0.16302
3735.44379,0.16863
3737.37226,0.16369
3739.30073,0.15484
3741.22920,0.15414
3743.15767,0.15716
3745.08614,0.15488
3747.01460,0.15212
3748.94307,0.15388
3750.87154,0.15148
3752.80001,0.14415
3754.72848,0.14076
3756.65695,0.13768
3758.58542,0.13652
3760.51389,0.13750
3762.44235,0.13716
3764.37082,0.13955
3766.29929,0.14131
3768.22776,0.13794
3770.15623,0.13091
3772.08470,0.12268
3774.01317,0.12045
3775.94163,0.12367
3777.87010,0.12812
3779.79857,0.12984
3781.72704,0.12726
3783.65551,0.12643
3785.58398,0.12860
3787.51245,0.13052
3789.44092,0.13015
3791.36938,0.12801
3793.29785,0.13035
3795.22632,0.13961
3797.15479,0.14593
3799.08326,0.14209
3801.01173,0.13688
3802.94020,0.13757
3804.86866,0.13828
3806.79713,0.13726
3808.72560,0.13383
3810.65407,0.12767
3812.58254,0.12508
3814.51101,0.12776
3816.43948,0.12747
3818.36795,0.12871
3820.29641,0.13680
3822.22488,0.13457
3824.15335,0.12732
3826.08182,0.12771
3828.01029,0.13154
3829.93876,0.13606
3831.86723,0.14089
3833.79569,0.14341
3835.72416,0.14353
3837.65263,0.14535
3839.58110,0.14622
3841.50957,0.14210
3843.43804,0.13752
3845.36651,0.13050
3847.29498,0.12272
3849.22344,0.12048
3851.15191,0.12708
3853.08038,0.14544
3855.00885,0.14902
3856.93732,0.13451
3858.86579,0.12434
3860.79426,0.12201
3862.72272,0.12672
3864.65119,0.13107
3866.57966,0.13101
3868.50813,0.13423
3870.43660,0.13760
3872.36507,0.13367
3874.29354,0.12519
3876.22200,0.11886
3878.15047,0.12212
3880.07894,0.12787
3882.00741,0.12417
3883.93588,0.12015
3885.86435,0.12089
3887.79282,0.12006
3889.72129,0.11735
3891.64975,0.11652
3893.57822,0.11850
3895.50669,0.12141
3897.43516,0.12814
3899.36363,0.13614
3901.29210,0.13905
3903.22057,0.13864
3905.14903,0.12892
3907.07750,0.11712
3909.00597,0.11446
3910.93444,0.11695
3912.86291,0.11929
3914.79138,0.11769
3916.71985,0.11423
3918.64832,0.11377
3920.57678,0.11415
3922.50525,0.11502
3924.43372,0.11720
3926.36219,0.12078
3928.29066,0.12422
3930.21913,0.12293
3932.14760,0.11825
3934.07606,0.11467
3936.00453,0.10989
3937.93300,0.10392
3939.86147,0.10217
3941.78994,0.10818
3943.71841,0.11703
3945.64688,0.12119
3947.57535,0.12217
3949.50381,0.12111
3951.43228,0.11693
3953.36075,0.11140
3955.28922,0.10708
3957.21769,0.10632
3959.14616,0.10827
3961.07463,0.11013
3963.00309,0.10861
3964.93156,0.10438
3966.86003,0.10330
3968.78850,0.10489
3970.71697,0.10579
3972.64544,0.10676
3974.57391,0.10647
3976.50238,0.10479
3978.43084,0.10332
3980.35931,0.10211
3982.28778,0.10150
3984.21625,0.10073
3986.14472,0.10192
3988.07319,0.10472
3990.00166,0.10624
3991.93012,0.10818
3993.85859,0.10653
3995.78706,0.09986
3997.71553,0.09555
3999.64400,0.09668
4001.57247,0.10219
4003.50094,0.10702
4005.42941,0.10847
4007.35787,0.11012
4009.28634,0.11177
4011.21481,0.11080
4013.14328,0.10700
4015.07175,0.10278
4017.00022,0.10225
4018.92869,0.10559
4020.85715,0.11074
4022.78562,0.11371
4024.71409,0.11247
4026.64256,0.11197
4028.57103,0.11214
4030.49950,0.11039
4032.42797,0.10595
4034.35644,0.09929
4036.28490,0.09879
4038.21337,0.10227
4040.14184,0.09937
4042.07031,0.09329
4043.99878,0.09000
4045.92725,0.09099
4047.85572,0.09463
4049.78418,0.09915
4051.71265,0.10208
4053.64112,0.09739
4055.56959,0.08939
4057.49806,0.08767
4059.42653,0.09219
4061.35500,0.09854
4063.28346,0.10146
4065.21193,0.10173
4067.14040,0.10386
4069.06887,0.10651
4070.99734,0.10762
4072.92581,0.10521
4074.85428,0.10016
4076.78275,0.09776
4078.71121,0.09835
4080.63968,0.09731
4082.56815,0.09149
4084.49662,0.08516
4086.42509,0.08428
4088.35356,0.08484
4090.28203,0.08373
4092.21049,0.08427
4094.13896,0.08840
4096.06743,0.09586
4097.99590,0.09889
4099.92437,0.09286
4101.85284,0.08661
4103.78131,0.08573
4105.70978,0.08353
4107.63824,0.07766
4109.56671,0.07892
4111.49518,0.08657
4113.42365,0.09096
4115.35212,0.09571
4117.28059,0.09903
4119.20906,0.09465
4121.13752,0.08970
4123.06599,0.08917
4124.99446,0.09050
4126.92293,0.09034
4128.85140,0.08565
4130.77987,0.08051
4132.70834,0.08075
4134.63681,0.08512
4136.56527,0.08828
4138.49374,0.08875
4140.42221,0.09090
4142.35068,0.09423
4144.27915,0.09594
4146.20762,0.09399
4148.13609,0.08612
4150.06455,0.08001
4151.99302,0.08103
4153.92149,0.08458
4155.84996,0.08684
4157.77843,0.08446
4159.70690,0.08198
4161.63537,0.08548
4163.56384,0.08708
4165.49230,0.08227
4167.42077,0.07556
4169.34924,0.06986
4171.27771,0.06719
4173.20618,0.07047
4175.13465,0.08233
4177.06312,0.09193
4178.99158,0.08758
4180.92005,0.07688
4182.84852,0.06991
4184.77699,0.06883
4186.70546,0.06976
4188.63393,0.07291
4190.56240,0.07954
4192.49087,0.08183
4194.41933,0.07950
4196.34780,0.07767
4198.27627,0.07410
4200.20474,0.06508
4202.13321,0.05735
4204.06168,0.06212
4205.99015,0.07317
4207.91861,0.07822
4209.84708,0.07824
4211.77555,0.07946
4213.70402,0.08239
4215.63249,0.07756
4217.56096,0.06408
4219.48943,0.05936
4221.41789,0.06391
4223.34636,0.06532
4225.27483,0.06625
4227.20330,0.06454
4229.13177,0.05935
4231.06024,0.06151
4232.98871,0.07051
4234.91718,0.07877
4236.84564,0.08406
4238.77411,0.08772
4240.70258,0.08844
4242.63105,0.08557
4244.55952,0.08170
4246.48799,0.07370
4248.41646,0.06544
4250.34492,0.06779
4252.27339,0.07454
4254.20186,0.07421
4256.13033,0.06869
4258.05880,0.06559
4259.98727,0.06600
4261.91574,0.06400
4263.84421,0.05853
4265.77267,0.05401
4267.70114,0.05431
4269.62961,0.05924
4271.55808,0.06337
4273.48655,0.06790
4275.41502,0.07484
4277.34349,0.07653
4279.27195,0.07048
4281.20042,0.06283
4283.12889,0.05856
4285.05736,0.05651
4286.98583,0.05428
4288.91430,0.05323
4290.84277,0.05175
4292.77124,0.04982
4294.69970,0.05201
4296.62817,0.05672
4298.55664,0.06073
4300.48511,0.06192
4302.41358,0.05659
4304.34205,0.04898
4306.27052,0.04852
4308.19898,0.05552
4310.12745,0.05924
4312.05592,0.05453
4313.98439,0.05065
4315.91286,0.05245
4317.84133,0.05537
4319.76980,0.05845
4321.69827,0.06107
4323.62673,0.06031
4325.55520,0.05807
4327.48367,0.05735
4329.41214,0.05324
4331.34061,0.04437
4333.26908,0.04104
4335.19755,0.04566
4337.12601,0.04927
4339.05448,0.04641
4340.98295,0.04177
4342.91142,0.04603
4344.83989,0.05392
4346.76836,0.05453
4348.69683,0.05517
4350.62530,0.05711
4352.55376,0.05662
4354.48223,0.05749
4356.41070,0.05748
4358.33917,0.05529
4360.26764,0.05247
4362.19611,0.05072
4364.12458,0.05068
4366.05304,0.04987
4367.98151,0.05149
4369.90998,0.05476
4371.83845,0.05409
4373.76692,0.04989
4375.69539,0.04163
4377.62386,0.03432
4379.55232,0.03766
4381.48079,0.04551
4383.40926,0.04662
4385.33773,0.04172
4387.26620,0.03751
4389.19467,0.03799
4391.12314,0.03993
4393.05161,0.03923
4394.98007,0.03507
4396.90854,0.03178
4398.83701,0.03397
4400.76548,0.04051
4402.69395,0.04908
4404.62242,0.05148
4406.55089,0.04633
4408.47935,0.04225
4410.40782,0.03969
4412.33629,0.03935
4414.26476,0.04160
4416.19323,0.03961
4418.12170,0.03563
4420.05017,0.03898
4421.97864,0.04386
4423.90710,0.03712
4425.83557,0.02415
4427.76404,0.02242
4429.69251,0.03346
4431.62098,0.04182
4433.54945,0.03990
4435.47792,0.03221
4437.40638,0.02569
4439.33485,0.02547
4441.26332,0.03009
4443.19179,0.03304
4445.12026,0.03008
4447.04873,0.02661
4448.97720,0.02907
4450.90567,0.03365
4452.83413,0.03805
4454.76260,0.04670
4456.69107,0.05482
4458.61954,0.04959
4460.54801,0.03422
4462.47648,0.02648
4464.40495,0.03174
4466.33341,0.04000
4468.26188,0.04053
4470.19035,0.03453
4472.11882,0.03072
4474.04729,0.02856
4475.97576,0.02605
4477.90423,0.02352
4479.83270,0.01971
4481.76116,0.01893
4483.68963,0.02151
4485.61810,0.02455
4487.54657,0.02874
4489.47504,0.03385
4491.40351,0.03744
4493.33198,0.03352
4495.26044,0.02856
4497.18891,0.03205
4499.11738,0.03330
4501.04585,0.02477
4502.97432,0.01292
4504.90279,0.00513
4506.83126,0.00527
4508.75973,0.00830
4510.68819,0.00989
4512.61666,0.00995
4514.54513,0.00703
4516.47360,0.00693
4518.40207,0.01372
4520.33054,0.02105
4522.25901,0.02376
4524.18747,0.01774
4526.11594,0.00962
4528.04441,0.01364
4529.97288,0.02380
4531.90135,0.02667
4533.82982,0.02365
4535.75829,0.02155
4537.68676,0.01964
4539.61522,0.01834
4541.54369,0.02308
4543.47216,0.02585
4545.40063,0.01880
4547.32910,0.00854
4549.25757,0.00506
4551.18604,0.00804
4553.11450,0.00657
4555.04297,0.00646
4556.97144,0.01426
4558.89991,0.01967
4560.82838,0.02392
4562.75685,0.02577
4564.68532,0.01914
4566.61378,0.01665
4568.54225,0.02069
4570.47072,0.01915
4572.39919,0.01303
4574.32766,0.00606
4576.25613,-0.00097
4578.18460,-0.00392
4580.11307,0.00260
4582.04153,0.01205
4583.97000,0.01396
4585.89847,0.01682
4587.82694,0.01866
4589.75541,0.01313
4591.68388,0.01223
4593.61235,0.01361
4595.54081,0.01246
4597.46928,0.01523
4599.39775,0.01714
4601.32622,0.01185
4603.25469,0.00697
4605.18316,0.01245
4607.11163,0.02089
4609.04010,0.01968
4610.96856,0.01131
4612.89703,0.00411
4614.82550,0.00327
4616.75397,0.00951
4618.68244,0.01560
4620.61091,0.01678
4622.53938,0.01563
4624.46784,0.01402
4626.39631,0.01273
4628.32478,0.01370
4630.25325,0.01715
4632.18172,0.01886
4634.11019,0.01983
4636.03866,0.02548
4637.96713,0.03143
4639.89559,0.02809
4641.82406,0.01127
4643.75253,-0.00505
4645.68100,-0.00404
4647.60947,0.00581
4649.53794,0.01545
4651.46641,0.02714
4653.39487,0.03455
4655.32334,0.03353
4657.25181,0.02585
4659.18028,0.01623
4661.10875,0.00931
4663.03722,0.00296
4664.96569,0.00043
4666.89416,0.00289
4668.82262,0.00782
4670.75109,0.01459
4672.67956,0.01343
4674.60803,0.00618
4676.53650,0.00382
4678.46497,0.00642
4680.39344,0.01083
4682.32190,0.00955
4684.25037,0.00460
4686.17884,0.00351
4688.10731,-0.00038
4690.03578,-0.00456
4691.96425,0.00325
4693.89272,0.01950
4695.82119,0.02874
4697.74965,0.02567
4699.67812,0.01741
4701.60659,0.00795
4703.53506,0.00623
4705.46353,0.01416
4707.39200,0.01768
4709.32047,0.01767
4711.24893,0.01186
4713.17740,-0.00297
4715.10587,-0.00816
4717.03434,-0.00026
4718.96281,0.00900
4720.89128,0.00878
4722.81975,-0.00336
4724.74821,-0.00335
4726.67668,0.01575
4728.60515,0.02726
4730.53362,0.02232
4732.46209,0.01582
4734.39056,0.01412
4736.31903,0.00928
4738.24750,0.00420
4740.17596,0.00949
4742.10443,0.01633
4744.03290,0.01423
4745.96137,0.01000
4747.88984,0.01086
4749.81831,0.01295
4751.74678,0.01075
4753.67524,0.00814
4755.60371,0.00625
4757.53218,0.00495
4759.46065,0.01180
4761.38912,0.01987
4763.31759,0.01450
4765.24606,0.00301
4767.17453,0.00350
4769.10299,0.01462
4771.03146,0.01709
4772.95993,0.00826
4774.88840,0.00346
4776.81687,0.00436
4778.74534,0.00680
4780.67381,0.01288
4782.60227,0.01888
4784.53074,0.01988
4786.45921,0.01489
4788.38768,0.00778
4790.31615,0.00678
4792.24462,0.01261
4794.17309,0.01806
4796.10156,0.01641
4798.03002,0.01276
4799.95849,0.01555
4801.88696,0.01542
4803.81543,0.00485
4805.74390,-0.00459
4807.67237,-0.00031
4809.60084,0.01257
4811.52930,0.01813
4813.45777,0.01726
4815.38624,0.01447
4817.31471,0.01146
4819.24318,0.01385
4821.17165,0.01219
4823.10012,0.00511
4825.02859,0.00239
4826.95705,0.00375
4828.88552,0.00679
4830.81399,0.00293
4832.74246,-0.00160
4834.67093,0.01098
4836.59940,0.02749
4838.52787,0.02985
4840.45633,0.02117
4842.38480,0.01102
4844.31327,0.01016
4846.24174,0.01583
4848.17021,0.01806
4850.09868,0.01409
4852.02715,0.01212
4853.95562,0.01991
4855.88408,0.02264
4857.81255,0.01449
4859.74102,0.00487
4861.66949,-0.00289
4863.59796,-0.00287
4865.52643,0.00471
4867.45490,0.01064
4869.38336,0.00617
4871.31183,-0.00562
4873.24030,-0.01059
4875.16877,-0.00649
4877.09724,-0.00135
4879.02571,-0.00026
4880.95418,-0.00554
4882.88265,-0.00804
4884.81111,0.00348
4886.73958,0.02584
4888.66805,0.04344
4890.59652,0.03831
4892.52499,0.02600
4894.45346,0.02769
4896.38193,0.03227
4898.31039,0.03411
4900.23886,0.03222
4902.16733,0.02984
4904.09580,0.03179
4906.02427,0.02995
4907.95274,0.02087
4909.88121,0.00199
4911.80967,-0.01299
4913.73814,-0.00333
4915.66661,0.01578
4917.59508,0.02140
4919.52355,0.01255
4921.45202,0.00668
4923.38049,0.01552
4925.30896,0.01956
4927.23742,0.00519
4929.16589,-0.00601
4931.09436,0.00315
4933.02283,0.01771
4934.95130,0.01580
4936.87977,0.00187
4938.80824,-0.00408
4940.73670,0.00457
4942.66517,0.01538
4944.59364,0.01803
4946.52211,0.02181
4948.45058,0.03012
4950.37905,0.02950
4952.30752,0.02142
4954.23599,0.01336
4956.16445,0.00488
4958.09292,-0.00045
4960.02139,-0.00374
4961.94986,-0.00270
4963.87833,0.00225
4965.80680,0.00705
4967.73527,0.02205
4969.66373,0.03774
4971.59220,0.03831
4973.52067,0.02778
4975.44914,0.01165
4977.37761,0.00649
4979.30608,0.01395
4981.23455,0.01480
4983.16302,0.01075
4985.09148,0.00414
4987.01995,-0.00334
4988.94842,0.00276
4990.87689,0.01663
4992.80536,0.02225
4994.73383,0.02159
4996.66230,0.02123
4998.59076,0.01764
5000.51923,0.01307
5002.44770,0.01808
5004.37617,0.02450
5006.30464,0.02348
5008.23311,0.02212
5010.16158,0.01853
5012.09005,0.01327
5014.01851,0.02009
5015.94698,0.03643
5017.87545,0.04065
5019.80392,0.02786
5021.73239,0.01050
5023.66086,0.00731
5025.58933,0.02134
5027.51779,0.02109
5029.44626,0.00764
5031.37473,0.01253
5033.30320,0.01745
5035.23167,0.00131
5037.16014,-0.00647
5039.08861,0.00743
5041.01708,0.01807
5042.94554,0.01343
5044.87401,0.00909
5046.80248,0.02178
5048.73095,0.04001
5050.65942,0.04739
5052.58789,0.04448
5054.51636,0.03002
5056.44482,0.01738
5058.37329,0.02081
5060.30176,0.03271
5062.23023,0.04247
5064.15870,0.04485
5066.08717,0.04261
5068.01564,0.03254
5069.94410,0.01648
5071.87257,0.00814
5073.80104,0.00588
5075.72951,0.00587
5077.65798,0.01394
5079.58645,0.03633
5081.51492,0.05736
5083.44339,0.05308
5085.37185,0.03519
5087.30032,0.02338
5089.22879,0.02396
5091.15726,0.03420
5093.08573,0.03754
5095.01420,0.03318
5096.94267,0.03398
5098.87113,0.03699
5100.79960,0.04068
5102.72807,0.05093
5104.65654,0.05989
5106.58501,0.06021
5108.51348,0.05970
5110.44195,0.06134
5112.37042,0.05560
5114.29888,0.04349
5116.22735,0.03768
5118.15582,0.03361
5120.08429,0.02571
5122.01276,0.02739
5123.94123,0.03763
5125.86970,0.04030
5127.79816,0.03563
5129.72663,0.04132
5131.65510,0.05588
5133.58357,0.05372
5135.51204,0.03819
5137.44051,0.02973
5139.36898,0.02993
5141.29745,0.03169
5143.22591,0.02884
5145.15438,0.03532
5147.08285,0.05566
5149.01132,0.06142
5150.93979,0.04601
5152.86826,0.03625
5154.79673,0.04265
5156.72519,0.04465
5158.65366,0.03068
5160.58213,0.01517
5162.51060,0.01351
5164.43907,0.02701
5166.36754,0.03471
5168.29601,0.02997
5170.22448,0.03088
5172.15294,0.03509
5174.08141,0.03330
5176.00988,0.02089
5177.93835,0.00054
5179.86682,0.00459
5181.79529,0.03206
5183.72376,0.04835
5185.65222,0.05840
5187.58069,0.06935
5189.50916,0.06660
5191.43763,0.05076
5193.36610,0.03269
5195.29457,0.01829
5197.22304,0.00959
5199.15151,0.01389
5201.07997,0.02864
5203.00844,0.03853
5204.93691,0.05175
5206.86538,0.07296
5208.79385,0.07003
5210.72232,0.04506
5212.65079,0.03678
5214.57925,0.05240
5216.50772,0.05899
5218.43619,0.04624
5220.36466,0.03603
5222.29313,0.03807
5224.22160,0.04828
5226.15007,0.04090
5228.07854,0.01445
5230.00700,0.01101
5231.93547,0.03829
5233.86394,0.07898
5235.79241,0.10367
5237.72088,0.08455
5239.64935,0.05507
5241.57782,0.05006
5243.50628,0.04497
5245.43475,0.02642
5247.36322,0.01373
5249.29169,0.01271
5251.22016,0.01032
5253.14863,0.00639
5255.07710,0.00800
5257.00556,0.00997
5258.93403,0.03007
5260.86250,0.07037
5262.79097,0.08134
5264.71944,0.06165
5266.64791,0.05810
5268.57638,0.06974
5270.50485,0.07122
5272.43331,0.04875
5274.36178,0.02444
5276.29025,0.01782
5278.21872,0.01651
5280.14719,0.02482
5282.07566,0.05123
5284.00413,0.07079
5285.93259,0.05770
5287.86106,0.03659
5289.78953,0.03782
5291.71800,0.04941
5293.64647,0.06250
5295.57494,0.06342
5297.50341,0.05006
5299.43188,0.05522
5301.36034,0.06736
5303.28881,0.05454
5305.21728,0.02969
5307.14575,0.02194
5309.07422,0.04611
5311.00269,0.07642
5312.93116,0.08176
5314.85962,0.05937
5316.78809,0.03653
5318.71656,0.04691
5320.64503,0.07342
5322.57350,0.08778
5324.50197,0.08974
5326.43044,0.07974
5328.35891,0.06508
5330.28737,0.05788
5332.21584,0.06244
5334.14431,0.06274
5336.07278,0.03868
5338.00125,0.01624
5339.92972,0.02050
5341.85819,0.03065
5343.78665,0.03758
5345.71512,0.04786
5347.64359,0.06537
5349.57206,0.07619
5351.50053,0.06892
5353.42900,0.06530
5355.35747,0.06203
5357.28594,0.04548
5359.21440,0.03730
5361.14287,0.03591
5363.07134,0.03547
5364.99981,0.04256
5366.92828,0.04668
5368.85675,0.04027
5370.78522,0.03175
5372.71368,0.04006
5374.64215,0.05669
5376.57062,0.04940
5378.49909,0.04191
5380.42756,0.06147
5382.35603,0.08369
5384.28450,0.09074
5386.21297,0.09496
5388.14143,0.09936
5390.06990,0.08430
5391.99837,0.06618
5393.92684,0.07661
5395.85531,0.07631
5397.78378,0.04420
5399.71225,0.03109
5401.64071,0.04986
5403.56918,0.07528
5405.49765,0.09910
5407.42612,0.12481
5409.35459,0.13122
5411.28306,0.10635
5413.21153,0.07953
5415.13999,0.06702
5417.06846,0.06524
5418.99693,0.07135
5420.92540,0.08313
5422.85387,0.09505
5424.78234,0.09480
5426.71081,0.08705
5428.63928,0.07302
5430.56774,0.05676
5432.49621,0.06243
5434.42468,0.07438
5436.35315,0.07487
5438.28162,0.08115
5440.21009,0.08859
5442.13856,0.08140
5444.06702,0.06293
5445.99549,0.05548
5447.92396,0.06716
5449.85243,0.07404
5451.78090,0.07491
5453.70937,0.08298
5455.63784,0.09087
5457.56631,0.09268
5459.49477,0.09154
5461.42324,0.08419
5463.35171,0.07557
5465.28018,0.07263
5467.20865,0.07316
5469.13712,0.07713
5471.06559,0.08205
5472.99405,0.08107
5474.92252,0.07285
5476.85099,0.06797
5478.77946,0.06747
5480.70793,0.08055
5482.63640,0.11053
5484.56487,0.10652
5486.49334,0.06038
5488.42180,0.03493
5490.35027,0.05170
5492.27874,0.07962
5494.20721,0.09193
5496.13568,0.08960
5498.06415,0.07794
5499.99262,0.06514
5501.92108,0.05991
5503.84955,0.05704
5505.77802,0.06263
5507.70649,0.06679
5509.63496,0.05769
5511.56343,0.05738
5513.49190,0.05907
5515.42037,0.05852
5517.34883,0.07632
5519.27730,0.09662
5521.20577,0.10269
5523.13424,0.08680
5525.06271,0.06479
5526.99118,0.07791
5528.91965,0.10479
5530.84811,0.10366
5532.77658,0.08030
5534.70505,0.06156
5536.63352,0.06742
5538.56199,0.08838
5540.49046,0.10673
5542.41893,0.11014
5544.34740,0.09854
5546.27586,0.09269
5548.20433,0.09079
5550.13280,0.07237
5552.06127,0.05545
5553.98974,0.06635
5555.91821,0.07861
5557.84668,0.06703
5559.77514,0.05979
5561.70361,0.06703
5563.63208,0.06521
5565.56055,0.07009
5567.48902,0.09121
5569.41749,0.10438
5571.34596,0.11622
5573.27443,0.11512
5575.20289,0.08853
5577.13136,0.06241
5579.05983,0.05553
5580.98830,0.07493
5582.91677,0.09293
5584.84524,0.10190
5586.77371,0.11198
5588.70217,0.10722
5590.63064,0.09495
5592.55911,0.07025
5594.48758,0.04353
5596.41605,0.05276
5598.34452,0.07402
5600.27299,0.09843
5602.20145,0.12971
5604.12992,0.12120
5606.05839,0.09189
5607.98686,0.07945
5609.91533,0.06506
5611.84380,0.05408
5613.77227,0.07272
5615.70074,0.12123
5617.62920,0.16026
5619.55767,0.15897
5621.48614,0.13921
5623.41461,0.11882
5625.34308,0.10893
5627.27155,0.11405
5629.20002,0.11156
5631.12848,0.10403
5633.05695,0.09752
5634.98542,0.08122
5636.91389,0.06644
5638.84236,0.06942
5640.77083,0.07581
5642.69930,0.06487
5644.62777,0.05975
5646.55623,0.07054
5648.48470,0.06449
5650.41317,0.06127
5652.34164,0.08378
5654.27011,0.11382
5656.19858,0.13449
5658.12705,0.13652
5660.05551,0.13596
5661.98398,0.12763
5663.91245,0.09340
5665.84092,0.05912
5667.76939,0.04243
5669.69786,0.04398
5671.62633,0.07251
5673.55480,0.11663
5675.48326,0.13946
5677.41173,0.12523
5679.34020,0.11116
5681.26867,0.10755
5683.19714,0.08654
5685.12561,0.05499
5687.05408,0.02425
5688.98254,0.01431
5690.91101,0.03367
5692.83948,0.03353
5694.76795,0.00928
5696.69642,0.00480
5698.62489,0.03728
5700.55336,0.08402
5702.48183,0.10884
5704.41029,0.11934
5706.33876,0.11970
5708.26723,0.09533
5710.19570,0.07358
5712.12417,0.07393
5714.05264,0.08246
5715.98111,0.09372
5717.90957,0.11163
5719.83804,0.12436
5721.76651,0.11536
5723.69498,0.11625
5725.62345,0.14345
5727.55192,0.14902
5729.48039,0.13068
5731.40886,0.11552
5733.33732,0.09096
5735.26579,0.07299
5737.19426,0.07188
5739.12273,0.05792
5741.05120,0.04670
5742.97967,0.07514
5744.90814,0.11882
5746.83660,0.11739
5748.76507,0.07345
5750.69354,0.04031
5752.62201,0.04068
5754.55048,0.07228
5756.47895,0.10556
5758.40742,0.11562
5760.33588,0.12629
5762.26435,0.14038
5764.19282,0.13007
5766.12129,0.10677
5768.04976,0.09102
5769.97823,0.07976
5771.90670,0.07761
5773.83517,0.10205
5775.76363,0.12761
5777.69210,0.10126
5779.62057,0.05381
5781.54904,0.04493
5783.47751,0.06829
5785.40598,0.10099
5787.33445,0.12301
5789.26291,0.12604
5791.19138,0.11229
5793.11985,0.08053
5795.04832,0.04162
5796.97679,0.03124
5798.90526,0.05378
5800.83373,0.05784
5802.76220,0.04191
5804.69066,0.04286
5806.61913,0.04856
5808.54760,0.05589
5810.47607,0.07669
5812.40454,0.09171
5814.33301,0.08352
5816.26148,0.05077
5818.18994,0.01652
5820.11841,-0.00557
5822.04688,-0.01228
5823.97535,0.02756
5825.90382,0.08615
5827.83229,0.11064
5829.76076,0.10579
5831.68923,0.10145
5833.61769,0.09930
5835.54616,0.07901
5837.47463,0.05830
5839.40310,0.06264
5841.33157,0.07984
5843.26004,0.09181
5845.18851,0.09337
5847.11697,0.08656
5849.04544,0.08014
5850.97391,0.09226
5852.90238,0.12895
5854.83085,0.14989
5856.75932,0.13863
5858.68779,0.13567
5860.61626,0.11689
5862.54472,0.07290
5864.47319,0.06109
5866.40166,0.08630
5868.33013,0.11035
5870.25860,0.08318
5872.18707,0.03652
5874.11554,0.04491
5876.04400,0.08723
5877.97247,0.11269
5879.90094,0.10456
5881.82941,0.07492
5883.75788,0.06392
5885.68635,0.07755
5887.61482,0.09158
5889.54329,0.09356
5891.47175,0.08217
5893.40022,0.06798
5895.32869,0.06889
5897.25716,0.09060
5899.18563,0.10397
5901.11410,0.07698
5903.04257,0.03102
5904.97103,0.01170
5906.89950,0.02394
5908.82797,0.03487
5910.75644,0.05373
5912.68491,0.09845
5914.61338,0.10814
5916.54185,0.08516
5918.47032,0.08762
5920.39878,0.10242
5922.32725,0.10594
5924.25572,0.08255
5926.18419,0.06768
5928.11266,0.12510
5930.04113,0.18405
5931.96960,0.15910
5933.89806,0.10163
5935.82653,0.09583
5937.75500,0.14747
5939.68347,0.18112
5941.61194,0.13745
5943.54041,0.06227
5945.46888,0.03098
5947.39734,0.05268
5949.32581,0.08484
5951.25428,0.09356
5953.18275,0.08800
5955.11122,0.07918
5957.03969,0.07046
5958.96816,0.05580
5960.89663,0.04330
5962.82509,0.04838
5964.75356,0.06167
5966.68203,0.08089
5968.61050,0.08477
5970.53897,0.04854
5972.46744,-0.00671
5974.39591,-0.02484
5976.32437,0.01714
5978.25284,0.04302
5980.18131,0.02607
5982.10978,0.03318
5984.03825,0.06165
5985.96672,0.07797
5987.89519,0.10081
5989.82366,0.11790
5991.75212,0.09211
5993.68059,0.04214
5995.60906,0.04320
5997.53753,0.09965
5999.46600,0.12066
6001.39447,0.09166
6003.32294,0.06083
6005.25140,0.06907
6007.17987,0.10524
6009.10834,0.11192
6011.03681,0.11138
6012.96528,0.13792
6014.89375,0.17150
6016.82222,0.20076
6018.75069,0.20195
6020.67915,0.17468
6022.60762,0.13580
6024.53609,0.09078
6026.46456,0.06731
6028.39303,0.04719
6030.32150,0.00342
6032.24997,-0.02501
6034.17843,-0.03046
6036.10690,-0.01777
6038.03537,0.02764
6039.96384,0.07950
6041.89231,0.10707
6043.82078,0.10296
6045.74925,0.11646
6047.67772,0.15870
6049.60618,0.15491
6051.53465,0.12558
6053.46312,0.13030
6055.39159,0.14199
6057.32006,0.12481
6059.24853,0.08891
6061.17700,0.08415
6063.10546,0.10262
6065.03393,0.07791
6066.96240,0.02975
6068.89087,0.01562
6070.81934,0.02850
6072.74781,0.02596
6074.67628,0.01967
6076.60475,0.04697
6078.53321,0.07355
6080.46168,0.08147
6082.39015,0.10692
6084.31862,0.13054
6086.24709,0.12679
6088.17556,0.10544
6090.10403,0.07463
6092.03249,0.05334
6093.96096,0.04371
6095.88943,0.05054
6097.81790,0.08664
6099.74637,0.10592
6101.67484,0.06765
6103.60331,0.02546
6105.53177,0.01883
6107.46024,0.00824
6109.38871,-0.01328
6111.31718,-0.00952
6113.24565,0.01001
6115.17412,0.02425
6117.10259,0.02773
6119.03106,0.01549
6120.95952,-0.00080
6122.88799,-0.00853
6124.81646,0.00685
6126.74493,0.06445
6128.67340,0.11346
6130.60187,0.09852
6132.53034,0.06508
6134.45880,0.05253
6136.38727,0.05570
6138.31574,0.06553
6140.24421,0.07512
6142.17268,0.07477
6144.10115,0.06689
6146.02962,0.05287
6147.95809,0.01164
6149.88655,-0.01720
6151.81502,0.02024
6153.74349,0.06530
6155.67196,0.08044
6157.60043,0.09967
6159.52890,0.11341
6161.45737,0.10813
6163.38583,0.10439
6165.31430,0.12557
6167.24277,0.15576
6169.17124,0.15535
6171.09971,0.12200
6173.02818,0.09367
6174.95665,0.11387
6176.88512,0.14338
6178.81358,0.11102
6180.74205,0.05897
6182.67052,0.04629
6184.59899,0.07527
6186.52746,0.10700
6188.45593,0.07708
6190.38440,-0.00252
6192.31286,-0.04779
6194.24133,-0.00036
6196.16980,0.08305
6198.09827,0.12526
6200.02674,0.14874
6201.95521,0.13989
6203.88368,0.09215
6205.81215,0.07473
6207.74061,0.08534
6209.66908,0.10957
6211.59755,0.13147
6213.52602,0.08591
6215.45449,0.00500
6217.38296,-0.03768
6219.31143,-0.05387
6221.23989,-0.06606
6223.16836,-0.03875
6225.09683,0.04105
6227.02530,0.10240
6228.95377,0.11433
6230.88224,0.10924
6232.81071,0.08520
6234.73918,0.05918
6236.66764,0.05228
6238.59611,0.04531
6240.52458,0.05619
6242.45305,0.08406
6244.38152,0.06967
6246.30999,0.01458
6248.23846,-0.03443
6250.16692,-0.04855
6252.09539,-0.01630
6254.02386,0.03868
6255.95233,0.08820
6257.88080,0.11889
6259.80927,0.11204
6261.73774,0.06714
6263.66621,0.04911
6265.59467,0.06781
6267.52314,0.04773
6269.45161,0.01597
6271.38008,0.01806
6273.30855,0.05168
6275.23702,0.06985
6277.16549,0.04449
6279.09395,0.05666
6281.02242,0.10844
6282.95089,0.13846
6284.87936,0.13754
6286.80783,0.13215
6288.73630,0.12030
6290.66477,0.06287
6292.59323,0.02896
6294.52170,0.07092
6296.45017,0.09064
6298.37864,0.06189
6300.30711,0.04042
6302.23558,0.01682
6304.16405,-0.02058
6306.09252,-0.02895
6308.02098,0.01245
6309.94945,0.06979
6311.87792,0.09688
6313.80639,0.06753
6315.73486,0.01850
6317.66333,0.05843
6319.59180,0.14078
6321.52026,0.09187
6323.44873,-0.00246
6325.37720,0.01933
6327.30567,0.09309
6329.23414,0.09704
6331.16261,0.02813
6333.09108,0.00705
6335.01955,0.05673
6336.94801,0.10672
6338.87648,0.12066
6340.80495,0.08985
6342.73342,0.07034
6344.66189,0.08121
6346.59036,0.10085
6348.51883,0.14682
6350.44729,0.18944
6352.37576,0.19100
6354.30423,0.15985
6356.23270,0.10819
6358.16117,0.05375
6360.08964,0.01119
6362.01811,-0.00382
6363.94658,-0.01358
6365.87504,-0.03728
6367.80351,-0.02087
6369.73198,0.01489
6371.66045,0.03469
6373.58892,0.08280
6375.51739,0.12583
6377.44586,0.10604
6379.37432,0.04867
6381.30279,0.01286
6383.23126,-0.02375
6385.15973,-0.11427
6387.08820,-0.14954
6389.01667,-0.08685
6390.94514,-0.00732
6392.87361,0.05541
6394.80207,0.08238
6396.73054,0.09928
6398.65901,0.13449
6400.58748,0.13802
6402.51595,0.09762
6404.44442,0.07067
6406.37289,0.09970
6408.30135,0.14488
6410.22982,0.14496
6412.15829,0.13408
6414.08676,0.13037
6416.01523,0.09092
6417.94370,0.03792
6419.87217,0.04324
6421.80064,0.06509
6423.72910,0.04995
6425.65757,0.02911
6427.58604,0.00712
6429.51451,0.00119
6431.44298,0.04314
6433.37145,0.07304
6435.29992,0.08976
6437.22838,0.10546
6439.15685,0.07001
6441.08532,0.05216
6443.01379,0.09563
6444.94226,0.13249
6446.87073,0.15444
6448.79920,0.14282
6450.72766,0.06852
6452.65613,-0.00532
6454.58460,0.00203
6456.51307,0.10476
6458.44154,0.15210
6460.37001,0.07815
6462.29848,0.05521
6464.22695,0.12152
6466.15541,0.17657
6468.08388,0.20846
6470.01235,0.22044
6471.94082,0.20053
6473.86929,0.11518
6475.79776,-0.00785
6477.72623,-0.03448
6479.65469,0.02407
6481.58316,0.05480
6483.51163,0.03219
6485.44010,-0.00423
6487.36857,-0.01238
6489.29704,0.02254
6491.22551,0.07309
6493.15398,0.08522
6495.08244,0.06204
6497.01091,0.05262
6498.93938,0.06841
6500.86785,0.09006
6502.79632,0.07689
6504.72479,0.02877
6506.65326,0.00745
6508.58172,0.05342
6510.51019,0.12959
6512.43866,0.17969
6514.36713,0.22016
6516.29560,0.21767
6518.22407,0.09817
6520.15254,-0.02048
6522.08101,-0.04256
6524.00947,-0.02862
6525.93794,-0.02921
6527.86641,-0.06013
6529.79488,-0.06519
6531.72335,-0.00033
6533.65182,0.03929
6535.58029,0.04014
6537.50875,0.09485
6539.43722,0.17357
6541.36569,0.19804
6543.29416,0.18236
6545.22263,0.13322
6547.15110,0.06549
6549.07957,0.03441
6551.00804,0.04048
6552.93650,0.06334
6554.86497,0.10540
6556.79344,0.10151
6558.72191,0.02908
6560.65038,0.01841
6562.57885,0.10657
6564.50732,0.15153
6566.43578,0.12029
6568.36425,0.13044
6570.29272,0.17126
6572.22119,0.11584
6574.14966,0.01583
6576.07813,-0.00051
6578.00660,0.01841
6579.93507,0.01267
6581.86353,0.01162
6583.79200,0.06138
6585.72047,0.14516
6587.64894,0.15900
6589.57741,0.08716
6591.50588,0.01616
6593.43435,0.01007
6595.36281,0.07771
6597.29128,0.14823
6599.21975,0.21167
6601.14822,0.24596
6603.07669,0.15583
6605.00516,0.07759
6606.93363,0.12105
6608.86210,0.14775
6610.79056,0.10104
6612.71903,0.03545
6614.64750,-0.00770
6616.57597,-0.02427
6618.50444,-0.03712
6620.43291,-0.00425
6622.36138,0.05264
6624.28984,0.06427
6626.21831,0.06008
6628.14678,0.12637
6630.07525,0.23911
6632.00372,0.24402
6633.93219,0.16061
6635.86066,0.08476
6637.78912,0.04958
6639.71759,0.07108
6641.64606,0.07356
6643.57453,0.05605
6645.50300,0.12744
6647.43147,0.17408
6649.35994,0.10713
6651.28841,0.05856
6653.21687,0.04556
6655.14534,0.01118
6657.07381,-0.03902
6659.00228,-0.04499
6660.93075,-0.00599
6662.85922,0.00822
6664.78769,0.00128
6666.71615,-0.00199
6668.64462,0.00739
6670.57309,0.01946
6672.50156,0.02739
6674.43003,0.09779
6676.35850,0.18641
6678.28697,0.20990
6680.21544,0.22618
6682.14390,0.22497
6684.07237,0.16696
6686.00084,0.14195
6687.92931,0.15539
6689.85778,0.14322
6691.78625,0.11550
6693.71472,0.07068
6695.64318,0.01566
6697.57165,0.00810
6699.50012,0.06477
6701.42859,0.09800
6703.35706,0.09611
6705.28553,0.13701
6707.21400,0.17755
6709.14247,0.17003
6711.07093,0.12223
6712.99940,0.08713
6714.92787,0.13023
6716.85634,0.16301
6718.78481,0.13419
6720.71328,0.11165
6722.64175,0.07940
6724.57021,0.02773
6726.49868,0.02984
6728.42715,0.11569
6730.35562,0.15707
6732.28409,0.08184
6734.21256,0.01853
6736.14103,0.01112
6738.06950,0.01228
6739.99796,0.00542
6741.92643,-0.04109
6743.85490,-0.07469
6745.78337,-0.01249
6747.71184,0.08273
6749.64031,0.08392
6751.56878,-0.03374
6753.49724,-0.11053
6755.42571,0.01122
6757.35418,0.19775
6759.28265,0.23201
6761.21112,0.07554
6763.13959,-0.06356
6765.06806,-0.07246
6766.99653,-0.03033
6768.92499,-0.00372
6770.85346,0.01786
6772.78193,0.07641
6774.71040,0.13044
6776.63887,0.13933
6778.56734,0.15639
6780.49581,0.12025
6782.42427,0.02591
6784.35274,-0.01902
6786.28121,-0.04578
6788.20968,-0.06745
6790.13815,0.00904
6792.06662,0.13531
6793.99509,0.14290
6795.92355,0.08987
6797.85202,0.12245
6799.78049,0.16446
6801.70896,0.11348
6803.63743,0.08742
6805.56590,0.15435
6807.49437,0.22245
6809.42284,0.23630
6811.35130,0.20095
6813.27977,0.21283
6815.20824,0.23030
6817.13671,0.13024
6819.06518,0.03076
6820.99365,0.01604
6822.92212,0.04832
6824.85058,0.10859
6826.77905,0.17226
6828.70752,0.20127
6830.63599,0.19872
6832.56446,0.20125
6834.49293,0.17039
6836.42140,0.10113
6838.34987,0.08466
6840.27833,0.07830
6842.20680,0.02609
6844.13527,-0.01448
6846.06374,-0.01240
6847.99221,0.02524
6849.92068,0.04835
6851.84915,0.00798
6853.77761,-0.03919
6855.70608,-0.03057
6857.63455,0.02801
6859.56302,0.07869
6861.49149,0.07804
6863.41996,0.03478
6865.34843,-0.00194
6867.27690,-0.02019
6869.20536,-0.07325
6871.13383,-0.12320
6873.06230,-0.03308
6874.99077,0.08379
6876.91924,0.08224
6878.84771,0.05311
6880.77618,0.09437
6882.70464,0.18850
6884.63311,0.21934
6886.56158,0.14648
6888.49005,0.03033
6890.41852,-0.08412
6892.34699,-0.14655
6894.27546,-0.11312
6896.20393,0.00873
6898.13239,0.07291
6900.06086,-0.02761
6901.98933,-0.09789
6903.91780,-0.04330
6905.84627,-0.00948
6907.77474,-0.02282
6909.70321,-0.00997
6911.63167,-0.01058
6913.56014,-0.05927
6915.48861,-0.10763
6917.41708,-0.06480
6919.34555,0.01392
6921.27402,-0.02484
6923.20249,-0.08060
6925.13096,-0.06904
6927.05942,-0.02927
6928.98789,0.00802
6930.91636,0.03618
6932.84483,0.09967
6934.77330,0.15294
6936.70177,0.09316
6938.63024,-0.02243
6940.55870,-0.05143
6942.48717,0.02883
6944.41564,0.12674
6946.34411,0.14914
6948.27258,0.10302
6950.20105,0.07899
6952.12952,0.16666
6954.05799,0.32561
6955.98645,0.40847
6957.91492,0.40243
6959.84339,0.32040
6961.77186,0.15877
6963.70033,0.03137
6965.62880,-0.02180
6967.55727,-0.06774
6969.48573,-0.08051
6971.41420,0.03319
6973.34267,0.19451
6975.27114,0.23929
6977.19961,0.11719
6979.12808,-0.03093
6981.05655,-0.04703
6982.98501,0.00758
6984.91348,0.00400
6986.84195,0.03639
6988.77042,0.13767
6990.69889,0.16568
6992.62736,0.10091
6994.55583,0.09015
6996.48430,0.24562
6998.41276,0.37506
7000.34123,0.29980
7002.26970,0.17855
7004.19817,0.07001
7006.12664,-0.03850
7008.05511,-0.10435
7009.98358,-0.08874
7011.91204,0.05680
7013.84051,0.21248
7015.76898,0.18280
7017.69745,0.09000
7019.62592,0.06501
7021.55439,0.09138
7023.48286,0.17053
7025.41133,0.26825
7027.33979,0.27837
7029.26826,0.18521
7031.19673,0.07415
7033.12520,-0.07411
7035.05367,-0.19003
7036.98214,-0.12144
7038.91061,0.02666
7040.83907,0.10181
7042.76754,0.02709
7044.69601,-0.09402
7046.62448,-0.09748
7048.55295,-0.07847
7050.48142,-0.09833
7052.40989,-0.03202
7054.33836,0.09525
7056.26682,0.18262
7058.19529,0.25995
7060.12376,0.24808
7062.05223,0.10686
7063.98070,0.03264
7065.90917,0.07908
7067.83764,0.03643
7069.76610,-0.08484
7071.69457,-0.03406
7073.62304,0.14939
7075.55151,0.25496
7077.47998,0.23668
7079.40845,0.13534
7081.33692,0.05421
7083.26539,0.07426
7085.19385,0.16801
7087.12232,0.26829
7089.05079,0.24313
7090.97926,0.09191
7092.90773,-0.03346
7094.83620,-0.05658
7096.76467,-0.01589
7098.69313,0.08922
7100.62160,0.18581
7102.55007,0.14623
7104.47854,0.02865
7106.40701,-0.00543
7108.33548,0.06876
7110.26395,0.14171
7112.19242,0.15709
7114.12088,0.20231
7116.04935,0.34036
7117.97782,0.37067
7119.90629,0.18755
7121.83476,0.03010
7123.76323,0.02442
7125.69170,0.12707
7127.62016,0.12370
7129.54863,-0.03679
7131.47710,-0.07830
7133.40557,0.08750
7135.33404,0.21980
7137.26251,0.17710
7139.19098,0.08632
7141.11944,0.12481
7143.04791,0.20364
7144.97638,0.23063
7146.90485,0.24260
7148.83332,0.19268
7150.76179,0.11643
7152.69026,0.05948
7154.61873,-0.00089
7156.54719,-0.03191
7158.47566,-0.00904
7160.40413,0.01149
7162.33260,-0.05519
7164.26107,-0.11573
7166.18954,-0.01358
7168.11801,0.15497
7170.04647,0.25650
7171.97494,0.24569
7173.90341,0.12941
7175.83188,-0.08714
7177.76035,-0.28127
7179.68882,-0.24153
7181.61729,-0.06637
7183.54576,0.01641
7185.47422,-0.05136
7187.40269,-0.11197
7189.33116,-0.08325
7191.25963,-0.07212
7193.18810,-0.04043
7195.11657,-0.02455
7197.04504,-0.07894
7198.97350,0.02734
7200.90197,0.25234
7202.83044,0.39761
7204.75891,0.37392
7206.68738,0.25687
7208.61585,0.20095
7210.54432,0.17234
7212.47279,0.22665
7214.40125,0.31344
7216.32972,0.24185
7218.25819,0.10446
7220.18666,0.05310
7222.11513,0.09548
7224.04360,0.23954
7225.97207,0.34225
7227.90053,0.34936
7229.82900,0.37272
7231.75747,0.33242
7233.68594,0.15654
7235.61441,0.03800
7237.54288,0.00668
7239.47135,-0.02959
7241.39982,-0.04416
7243.32828,-0.01492
7245.25675,0.05115
7247.18522,0.08498
7249.11369,-0.03910
7251.04216,-0.24871
7252.97063,-0.25686
7254.89910,-0.16580
7256.82756,-0.20744
7258.75603,-0.19772
7260.68450,0.03767
7262.61297,0.09684
7264.54144,-0.16774
7266.46991,-0.24371
7268.39838,-0.09241
7270.32685,0.09002
7272.25531,0.15783
7274.18378,0.07748
7276.11225,0.04107
7278.04072,0.12107
7279.96919,0.26668
7281.89766,0.35036
7283.82613,0.31960
7285.75459,0.19873
7287.68306,0.05552
7289.61153,0.08672
7291.54000,0.26491
7293.46847,0.30921
7295.39694,0.22808
7297.32541,0.13694
7299.25387,0.03351
7301.18234,-0.07795
7303.11081,-0.13249
7305.03928,-0.06133
7306.96775,0.07681
7308.89622,0.18233
7310.82469,0.19004
7312.75316,0.13015
7314.68162,0.10160
7316.61009,0.11609
7318.53856,0.17703
7320.46703,0.28455
7322.39550,0.29790
7324.32397,0.19696
7326.25244,0.09931
7328.18090,-0.02362
7330.10937,-0.25756
7332.03784,-0.39365
7333.96631,-0.29436
7335.89478,-0.18059
7337.82325,-0.15091
7339.75172,-0.20064
7341.68019,-0.27313
7343.60865,-0.13724
7345.53712,0.08522
7347.46559,0.06500
7349.39406,-0.13985
7351.32253,-0.18984
7353.25100,-0.06197
7355.17947,-0.03321
7357.10793,-0.14228
7359.03640,-0.26253
7360.96487,-0.32220
7362.89334,-0.21079
7364.82181,-0.08803
7366.75028,-0.04695
7368.67875,0.03047
7370.60722,0.15001
7372.53568,0.22364
7374.46415,0.06646
7376.39262,-0.16474
7378.32109,-0.11756
7380.24956,-0.08814
7382.17803,-0.15904
7384.10650,-0.06531
7386.03496,0.12899
7387.96343,0.18338
7389.89190,0.18906
7391.82037,0.17942
7393.74884,0.07744
7395.67731,-0.02019
7397.60578,-0.08470
7399.53425,-0.12796
7401.46271,-0.01797
7403.39118,0.20212
7405.31965,0.26798
7407.24812,0.19238
7409.17659,0.09772
7411.10506,-0.01740
7413.03353,-0.07515
7414.96199,-0.01736
7416.89046,0.19854
7418.81893,0.48042
7420.74740,0.49811
7422.67587,0.31396
7424.60434,0.12206
7426.53281,0.02476
7428.46128,0.03104
7430.38974,0.02580
7432.31821,0.04419
7434.24668,0.15576
7436.17515,0.29929
7438.10362,0.42053
7440.03209,0.48775
7441.96056,0.47497
7443.88902,0.33858
7445.81749,0.19217
7447.74596,0.11161
7449.67443,-0.02515
7451.60290,-0.11468
7453.53137,-0.04495
7455.45984,-0.00944
7457.38831,-0.01971
7459.31677,-0.00850
7461.24524,0.12243
7463.17371,0.26253
7465.10218,0.17159
7467.03065,0.04206
7468.95912,0.10591
7470.88759,0.23183
7472.81605,0.21945
7474.74452,0.08129
7476.67299,-0.00791
7478.60146,-0.00330
7480.52993,0.03216
7482.45840,-0.04388
7484.38687,-0.26615
7486.31533,-0.37212
7488.24380,-0.31059
7490.17227,-0.19452
7492.10074,0.00592
7494.02921,0.11871
7495.95768,0.07753
7497.88615,0.00154
