399.19301,0.08544
401.12148,-0.52892
403.04995,-0.29289
404.97842,-0.09553
406.90689,0.12232
408.83536,0.29919
410.76382,0.31622
412.69229,0.30432
414.62076,0.30770
416.54923,0.25168
418.47770,0.07814
420.40617,-0.08971
422.33464,-0.06886
424.26311,-0.01471
426.19157,-0.02569
428.12004,0.01151
430.04851,0.10336
431.97698,0.10540
433.90545,0.04383
435.83392,0.05145
437.76239,0.09071
439.69085,0.05798
441.61932,-0.02935
443.54779,-0.01331
445.47626,0.14808
447.40473,0.28908
449.33320,0.30549
451.26167,0.26374
453.19013,0.23723
455.11860,0.20779
457.04707,0.15325
458.97554,0.10880
460.90401,0.07618
462.83248,0.04094
464.76095,0.04001
466.68942,0.09372
468.61788,0.17438
470.54635,0.25458
472.47482,0.27807
474.40329,0.21337
476.33176,0.20296
478.26023,0.20104
480.18870,0.15569
482.11716,0.10585
484.04563,0.06380
485.97410,0.01322
487.90257,0.01237
489.83104,0.08451
491.75951,0.13385
493.68798,0.12766
495.61645,0.11804
497.54491,0.12744
499.47338,0.13264
501.40185,0.11804
503.33032,0.11467
505.25879,0.13733
507.18726,0.13458
509.11573,0.08462
511.04419,0.04178
512.97266,0.05299
514.90113,0.12317
516.82960,0.19474
518.75807,0.19651
520.68654,0.15683
522.61501,0.15463
524.54348,0.18102
526.47194,0.16427
528.40041,0.12397
530.32888,0.10380
532.25735,0.11757
534.18582,0.16459
536.11429,0.19521
538.04276,0.17944
539.97122,0.15233
541.89969,0.13321
543.82816,0.11006
545.75663,0.09631
547.68510,0.11748
549.61357,0.12832
551.54204,0.04935
553.47051,-0.04677
555.39897,-0.01866
557.32744,0.07422
559.25591,0.09684
561.18438,0.08154
563.11285,0.08613
565.04132,0.10541
566.96979,0.13984
568.89825,0.17488
570.82672,0.18423
572.75519,0.16694
574.68366,0.13360
576.61213,0.10876
578.54060,0.11326
580.46907,0.13981
582.39754,0.16680
584.32600,0.17703
586.25447,0.17506
588.18294,0.16196
590.11141,0.13870
592.03988,0.12646
593.96835,0.12559
595.89682,0.11816
597.82528,0.10567
599.75375,0.09955
601.68222,0.10459
603.61069,0.11819
605.53916,0.12156
607.46763,0.10448
609.39610,0.09557
611.32456,0.11067
613.25303,0.12842
615.18150,0.13213
617.10997,0.13166
619.03844,0.13175
620.96691,0.11656
622.89538,0.09807
624.82385,0.10813
626.75231,0.12997
628.68078,0.13271
630.60925,0.13753
632.53772,0.15654
634.46619,0.16243
636.39466,0.15007
638.32313,0.13978
640.25159,0.14285
642.18006,0.15276
644.10853,0.16000
646.03700,0.16004
647.96547,0.14557
649.89394,0.12928
651.82241,0.14621
653.75088,0.17550
655.67934,0.17413
657.60781,0.15971
659.53628,0.15243
661.46475,0.13951
663.39322,0.11767
665.32169,0.09325
667.25016,0.06707
669.17862,0.06781
671.10709,0.09877
673.03556,0.12735
674.96403,0.15057
676.89250,0.15823
678.82097,0.14909
680.74944,0.13374
682.67791,0.11706
684.60637,0.10852
686.53484,0.12152
688.46331,0.13455
690.39178,0.12248
692.32025,0.11149
694.24872,0.12344
696.17719,0.14577
698.10565,0.15601
700.03412,0.14606
701.96259,0.13432
703.89106,0.13924
705.81953,0.15473
707.74800,0.15479
709.67647,0.13827
711.60494,0.13222
713.53340,0.13519
715.46187,0.13063
717.39034,0.12535
719.31881,0.12781
721.24728,0.13635
723.17575,0.14649
725.10422,0.15045
727.03268,0.14833
728.96115,0.14714
730.88962,0.14266
732.81809,0.12531
734.74656,0.10707
736.67503,0.11121
738.60350,0.12960
740.53197,0.14005
742.46043,0.14344
744.38890,0.14591
746.31737,0.15048
748.24584,0.15771
750.17431,0.15280
752.10278,0.13616
754.03125,0.12817
755.95971,0.12353
757.88818,0.11709
759.81665,0.12329
761.74512,0.13481
763.67359,0.13517
765.60206,0.12865
767.53053,0.12797
769.45900,0.13481
771.38746,0.14324
773.31593,0.15062
775.24440,0.15223
777.17287,0.14452
779.10134,0.13733
781.02981,0.13457
782.95828,0.13103
784.88674,0.13769
786.81521,0.15411
788.74368,0.15519
790.67215,0.13800
792.60062,0.12230
794.52909,0.11881
796.45756,0.12153
798.38602,0.12443
800.31449,0.12872
802.24296,0.13330
804.17143,0.13912
806.09990,0.14500
808.02837,0.14953
809.95684,0.16109
811.88531,0.16943
813.81377,0.15586
815.74224,0.13714
817.67071,0.13611
819.59918,0.14872
821.52765,0.15890
823.45612,0.15720
825.38459,0.15161
827.31305,0.15263
829.24152,0.15812
831.16999,0.16203
833.09846,0.15848
835.02693,0.15153
836.95540,0.15103
838.88387,0.14901
840.81234,0.14385
842.74080,0.14534
844.66927,0.14354
846.59774,0.13636
848.52621,0.13865
850.45468,0.14632
852.38315,0.15482
854.31162,0.16737
856.24008,0.17102
858.16855,0.16302
860.09702,0.15486
862.02549,0.14995
863.95396,0.15184
865.88243,0.15267
867.81090,0.13920
869.73937,0.12049
871.66783,0.11273
873.59630,0.11538
875.52477,0.11638
877.45324,0.11515
879.38171,0.12092
881.31018,0.13095
883.23865,0.13732
885.16711,0.13916
887.09558,0.13802
889.02405,0.14154
890.95252,0.15505
892.88099,0.16569
894.80946,0.16264
896.73793,0.15549
898.66640,0.15414
900.59486,0.15197
902.52333,0.14760
904.45180,0.15029
906.38027,0.15343
908.30874,0.15156
910.23721,0.14745
912.16568,0.14114
914.09414,0.14072
916.02261,0.14274
917.95108,0.13963
919.87955,0.14030
921.80802,0.14652
923.73649,0.15036
925.66496,0.14535
927.59343,0.13397
929.52189,0.13056
931.45036,0.13944
933.37883,0.14848
935.30730,0.14933
937.23577,0.14894
939.16424,0.15289
941.09271,0.15070
943.02117,0.14088
944.94964,0.13532
946.87811,0.13461
948.80658,0.13845
950.73505,0.14814
952.66352,0.15605
954.59199,0.15960
956.52045,0.16046
958.44892,0.15532
960.37739,0.14672
962.30586,0.14233
964.23433,0.14180
966.16280,0.14058
968.09127,0.14237
970.01974,0.14808
971.94820,0.14912
973.87667,0.14717
975.80514,0.15130
977.73361,0.15999
979.66208,0.16399
981.59055,0.16086
983.51902,0.15779
985.44748,0.15547
987.37595,0.15001
989.30442,0.14394
991.23289,0.14211
993.16136,0.14546
995.08983,0.14758
997.01830,0.14631
998.94677,0.14554
1000.87523,0.14461
1002.80370,0.14784
1004.73217,0.15602
1006.66064,0.16028
1008.58911,0.16095
1010.51758,0.15862
1012.44605,0.15307
1014.37451,0.15049
1016.30298,0.14797
1018.23145,0.14628
1020.15992,0.15383
1022.08839,0.16076
1024.01686,0.15660
1025.94533,0.15433
1027.87380,0.16177
1029.80226,0.16573
1031.73073,0.16034
1033.65920,0.15626
1035.58767,0.15734
1037.51614,0.15633
1039.44461,0.15112
1041.37308,0.14807
1043.30154,0.14609
1045.23001,0.14265
1047.15848,0.14411
1049.08695,0.14872
1051.01542,0.15286
1052.94389,0.15747
1054.87236,0.15277
1056.80083,0.14095
1058.72929,0.14298
1060.65776,0.15660
1062.58623,0.16405
1064.51470,0.16424
1066.44317,0.16277
1068.37164,0.16347
1070.30011,0.17018
1072.22857,0.17943
1074.15704,0.17762
1076.08551,0.16274
1078.01398,0.15148
1079.94245,0.15102
1081.87092,0.15483
1083.79939,0.16112
1085.72786,0.16835
1087.65632,0.17148
1089.58479,0.17270
1091.51326,0.17290
1093.44173,0.16800
1095.37020,0.15899
1097.29867,0.15199
1099.22714,0.15296
1101.15560,0.15760
1103.08407,0.16161
1105.01254,0.16836
1106.94101,0.17380
1108.86948,0.17531
1110.79795,0.17717
1112.72642,0.17628
1114.65489,0.17120
1116.58335,0.16639
1118.51182,0.16309
1120.44029,0.16538
1122.36876,0.17251
1124.29723,0.17558
1126.22570,0.17291
1128.15417,0.16741
1130.08263,0.16271
1132.01110,0.16069
1133.93957,0.15591
1135.86804,0.14976
1137.79651,0.14909
1139.72498,0.14976
1141.65345,0.15073
1143.58191,0.15657
1145.51038,0.16349
1147.43885,0.16815
1149.36732,0.17238
1151.29579,0.17572
1153.22426,0.17624
1155.15273,0.17309
1157.08120,0.16750
1159.00966,0.16334
1160.93813,0.16181
1162.86660,0.16064
1164.79507,0.16134
1166.72354,0.16636
1168.65201,0.17068
1170.58048,0.16929
1172.50894,0.16574
1174.43741,0.16347
1176.36588,0.16271
1178.29435,0.16440
1180.22282,0.16719
1182.15129,0.16814
1184.07976,0.16495
1186.00823,0.15983
1187.93669,0.16023
1189.86516,0.16438
1191.79363,0.16489
1193.72210,0.16570
1195.65057,0.17046
1197.57904,0.17411
1199.50751,0.17400
1201.43597,0.17169
1203.36444,0.16917
1205.29291,0.16646
1207.22138,0.16394
1209.14985,0.16324
1211.07832,0.16329
1213.00679,0.16316
1214.93526,0.16467
1216.86372,0.16737
1218.79219,0.16668
1220.72066,0.16280
1222.64913,0.16229
1224.57760,0.16638
1226.50607,0.16955
1228.43454,0.16832
1230.36300,0.16527
1232.29147,0.16358
1234.21994,0.16325
1236.14841,0.16426
1238.07688,0.16506
1240.00535,0.16273
1241.93382,0.15977
1243.86229,0.16006
1245.79075,0.16055
1247.71922,0.15953
1249.64769,0.16050
1251.57616,0.16147
1253.50463,0.15919
1255.43310,0.15886
1257.36157,0.16209
1259.29003,0.16295
1261.21850,0.16228
1263.14697,0.16269
1265.07544,0.16237
1267.00391,0.16183
1268.93238,0.16097
1270.86085,0.16005
1272.78932,0.16035
1274.71778,0.16142
1276.64625,0.16416
1278.57472,0.16654
1280.50319,0.16356
1282.43166,0.15995
1284.36013,0.16182
1286.28860,0.16307
1288.21706,0.16240
1290.14553,0.16545
1292.07400,0.16631
1294.00247,0.16066
1295.93094,0.15696
1297.85941,0.15734
1299.78788,0.15239
1301.71634,0.13525
1303.64481,0.11642
1305.57328,0.12024
1307.50175,0.14611
1309.43022,0.16570
1311.35869,0.17209
1313.28716,0.17737
1315.21563,0.18106
1317.14409,0.17994
1319.07256,0.17591
1321.00103,0.17089
1322.92950,0.16725
1324.85797,0.16231
1326.78644,0.15794
1328.71491,0.16028
1330.64337,0.16158
1332.57184,0.15966
1334.50031,0.16157
1336.42878,0.16233
1338.35725,0.16210
1340.28572,0.16057
1342.21419,0.13851
1344.14266,0.09646
1346.07112,0.07087
1347.99959,0.09309
1349.92806,0.13551
1351.85653,0.15528
1353.78500,0.15767
1355.71347,0.15911
1357.64194,0.16174
1359.57040,0.16734
1361.49887,0.17270
1363.42734,0.17053
1365.35581,0.16516
1367.28428,0.16547
1369.21275,0.17175
1371.14122,0.17992
1373.06969,0.18577
1374.99815,0.18529
1376.92662,0.18289
1378.85509,0.18429
1380.78356,0.18292
1382.71203,0.17541
1384.64050,0.17439
1386.56897,0.18416
1388.49743,0.18942
1390.42590,0.18754
1392.35437,0.18882
1394.28284,0.19453
1396.21131,0.19948
1398.13978,0.20055
1400.06825,0.19643
1401.99672,0.18993
1403.92518,0.18704
1405.85365,0.18547
1407.78212,0.18102
1409.71059,0.17849
1411.63906,0.18161
1413.56753,0.18684
1415.49600,0.19116
1417.42446,0.19578
1419.35293,0.19572
1421.28140,0.19015
1423.20987,0.18808
1425.13834,0.18791
1427.06681,0.18854
1428.99528,0.19095
1430.92375,0.19055
1432.85221,0.18750
1434.78068,0.18548
1436.70915,0.18483
1438.63762,0.18406
1440.56609,0.18069
1442.49456,0.17686
1444.42303,0.17741
1446.35149,0.18192
1448.27996,0.18570
1450.20843,0.18869
1452.13690,0.19376
1454.06537,0.20310
1455.99384,0.21763
1457.92231,0.21704
1459.85077,0.19933
1461.77924,0.19301
1463.70771,0.19682
1465.63618,0.19878
1467.56465,0.19634
1469.49312,0.20021
1471.42159,0.21319
1473.35006,0.21931
1475.27852,0.20813
1477.20699,0.19902
1479.13546,0.19622
1481.06393,0.19215
1482.99240,0.18691
1484.92087,0.18927
1486.84934,0.20070
1488.77780,0.20990
1490.70627,0.20290
1492.63474,0.19340
1494.56321,0.19587
1496.49168,0.20453
1498.42015,0.20150
1500.34862,0.19066
1502.27709,0.19056
1504.20555,0.20718
1506.13402,0.23649
1508.06249,0.23827
1509.99096,0.21856
1511.91943,0.20780
1513.84790,0.20498
1515.77637,0.20744
1517.70483,0.21061
1519.63330,0.21597
1521.56177,0.22538
1523.49024,0.22804
1525.41871,0.22371
1527.34718,0.21536
1529.27565,0.20714
1531.20412,0.20619
1533.13258,0.21028
1535.06105,0.21052
1536.98952,0.21458
1538.91799,0.23597
1540.84646,0.25777
1542.77493,0.24074
1544.70340,0.21816
1546.63186,0.20977
1548.56033,0.21200
1550.48880,0.21382
1552.41727,0.21210
1554.34574,0.21353
1556.27421,0.22281
1558.20268,0.23308
1560.13115,0.21475
1562.05961,0.19887
1563.98808,0.19562
1565.91655,0.19598
1567.84502,0.19854
1569.77349,0.19929
1571.70196,0.19349
1573.63043,0.19117
1575.55889,0.19640
1577.48736,0.19500
1579.41583,0.18623
1581.34430,0.18310
1583.27277,0.18245
1585.20124,0.17867
1587.12971,0.17674
1589.05818,0.17843
1590.98664,0.17954
1592.91511,0.18138
1594.84358,0.18322
1596.77205,0.18057
1598.70052,0.17772
1600.62899,0.18193
1602.55746,0.18944
1604.48592,0.19135
1606.41439,0.19031
1608.34286,0.19161
1610.27133,0.19052
1612.19980,0.18691
1614.12827,0.18999
1616.05674,0.20043
1617.98521,0.20157
1619.91367,0.19629
1621.84214,0.19683
1623.77061,0.19722
1625.69908,0.19388
1627.62755,0.19369
1629.55602,0.19610
1631.48449,0.19968
1633.41295,0.20828
1635.34142,0.22098
1637.26989,0.21790
1639.19836,0.20464
1641.12683,0.19766
1643.05530,0.20034
1644.98377,0.21573
1646.91223,0.23696
1648.84070,0.23922
1650.76917,0.23746
1652.69764,0.23873
1654.62611,0.21799
1656.55458,0.20237
1658.48305,0.20173
1660.41152,0.20655
1662.33998,0.20716
1664.26845,0.20134
1666.19692,0.20039
1668.12539,0.21165
1670.05386,0.22360
1671.98233,0.21721
1673.91080,0.20669
1675.83926,0.20229
1677.76773,0.20218
1679.69620,0.20533
1681.62467,0.21601
1683.55314,0.23258
1685.48161,0.22647
1687.41008,0.20899
1689.33855,0.20043
1691.26701,0.19802
1693.19548,0.20334
1695.12395,0.22037
1697.05242,0.23830
1698.98089,0.24004
1700.90936,0.22612
1702.83783,0.21441
1704.76629,0.21248
1706.69476,0.20925
1708.62323,0.20156
1710.55170,0.19728
1712.48017,0.20004
1714.40864,0.21212
1716.33711,0.22650
1718.26558,0.21938
1720.19404,0.20260
1722.12251,0.19493
1724.05098,0.19289
1725.97945,0.19189
1727.90792,0.19398
1729.83639,0.20176
1731.76486,0.21122
1733.69332,0.21665
1735.62179,0.21175
1737.55026,0.20390
1739.47873,0.19923
1741.40720,0.19784
1743.33567,0.20009
1745.26414,0.20608
1747.19261,0.21195
1749.12107,0.21295
1751.04954,0.20677
1752.97801,0.19770
1754.90648,0.19335
1756.83495,0.19468
1758.76342,0.19688
1760.69189,0.19698
1762.62035,0.19366
1764.54882,0.19089
1766.47729,0.19327
1768.40576,0.20002
1770.33423,0.20889
1772.26270,0.21046
1774.19117,0.20149
1776.11964,0.19623
1778.04810,0.19625
1779.97657,0.19665
1781.90504,0.19566
1783.83351,0.19454
1785.76198,0.19302
1787.69045,0.19420
1789.61892,0.20286
1791.54738,0.21329
1793.47585,0.21115
1795.40432,0.20190
1797.33279,0.19785
1799.26126,0.19883
1801.18973,0.19768
1803.11820,0.19173
1805.04666,0.18670
1806.97513,0.18629
1808.90360,0.19031
1810.83207,0.19447
1812.76054,0.19430
1814.68901,0.19258
1816.61748,0.18906
1818.54595,0.16984
1820.47441,0.14338
1822.40288,0.14946
1824.33135,0.18311
1826.25982,0.19966
1828.18829,0.20269
1830.11676,0.20568
1832.04523,0.19913
1833.97369,0.19171
1835.90216,0.19100
1837.83063,0.19310
1839.75910,0.19566
1841.68757,0.20069
1843.61604,0.20518
1845.54451,0.20203
1847.47298,0.19469
1849.40144,0.18987
1851.32991,0.18816
1853.25838,0.18795
1855.18685,0.18817
1857.11532,0.18808
1859.04379,0.18816
1860.97226,0.18791
1862.90072,0.18733
1864.82919,0.19128
1866.75766,0.20134
1868.68613,0.20465
1870.61460,0.19640
1872.54307,0.19264
1874.47154,0.19392
1876.40001,0.19361
1878.32847,0.19243
1880.25694,0.19190
1882.18541,0.19162
1884.11388,0.19142
1886.04235,0.19113
1887.97082,0.19238
1889.89929,0.19470
1891.82775,0.19429
1893.75622,0.19208
1895.68469,0.18995
1897.61316,0.18808
1899.54163,0.18742
1901.47010,0.18693
1903.39857,0.18600
1905.32704,0.18774
1907.25550,0.19179
1909.18397,0.19248
1911.11244,0.18801
1913.04091,0.18428
1914.96938,0.18649
1916.89785,0.19178
1918.82632,0.19321
1920.75478,0.19106
1922.68325,0.18938
1924.61172,0.18681
1926.54019,0.18508
1928.46866,0.18865
1930.39713,0.19315
1932.32560,0.19289
1934.25407,0.19060
1936.18253,0.18929
1938.11100,0.18735
1940.03947,0.18577
1941.96794,0.18761
1943.89641,0.19083
1945.82488,0.19198
1947.75335,0.19089
1949.68181,0.19015
1951.61028,0.19281
1953.53875,0.19662
1955.46722,0.19676
1957.39569,0.19338
1959.32416,0.19164
1961.25263,0.19309
1963.18110,0.19490
1965.10956,0.19710
1967.03803,0.19916
1968.96650,0.19760
1970.89497,0.19280
1972.82344,0.18949
1974.75191,0.18920
1976.68038,0.18861
1978.60884,0.18768
1980.53731,0.18779
1982.46578,0.18809
1984.39425,0.18980
1986.32272,0.19279
1988.25119,0.19456
1990.17966,0.19457
1992.10812,0.19284
1994.03659,0.19022
1995.96506,0.18932
1997.89353,0.19007
1999.82200,0.19037
2001.75047,0.19091
2003.67894,0.19187
2005.60741,0.19053
2007.53587,0.18727
2009.46434,0.18478
2011.39281,0.18389
2013.32128,0.18484
2015.24975,0.18678
2017.17822,0.18776
2019.10669,0.18751
2021.03515,0.18720
2022.96362,0.18762
2024.89209,0.18893
2026.82056,0.19017
2028.74903,0.18977
2030.67750,0.18959
2032.60597,0.19104
2034.53444,0.19117
2036.46290,0.19173
2038.39137,0.19454
2040.31984,0.19400
2042.24831,0.18993
2044.17678,0.18737
2046.10525,0.18586
2048.03372,0.18541
2049.96218,0.18836
2051.89065,0.19193
2053.81912,0.19227
2055.74759,0.19106
2057.67606,0.19024
2059.60453,0.18930
2061.53300,0.18916
2063.46147,0.18987
2065.38993,0.19013
2067.31840,0.19044
2069.24687,0.19132
2071.17534,0.19248
2073.10381,0.19274
2075.03228,0.19233
2076.96075,0.19317
2078.88921,0.19342
2080.81768,0.19168
2082.74615,0.19039
2084.67462,0.19050
2086.60309,0.19072
2088.53156,0.18987
2090.46003,0.18829
2092.38850,0.18641
2094.31696,0.18562
2096.24543,0.18838
2098.17390,0.19271
2100.10237,0.19464
2102.03084,0.19453
2103.95931,0.19465
2105.88778,0.19542
2107.81624,0.19497
2109.74471,0.19257
2111.67318,0.19114
2113.60165,0.19215
2115.53012,0.19297
2117.45859,0.19185
2119.38706,0.19131
2121.31553,0.19418
2123.24399,0.19677
2125.17246,0.19584
2127.10093,0.19511
2129.02940,0.19571
2130.95787,0.19492
2132.88634,0.19316
2134.81481,0.19416
2136.74327,0.19809
2138.67174,0.19975
2140.60021,0.19825
2142.52868,0.19610
2144.45715,0.19440
2146.38562,0.19489
2148.31409,0.19657
2150.24255,0.19694
2152.17102,0.19501
2154.09949,0.19162
2156.02796,0.19021
2157.95643,0.19143
2159.88490,0.19288
2161.81337,0.19371
2163.74184,0.19378
2165.67030,0.19292
2167.59877,0.19192
2169.52724,0.19163
2171.45571,0.19240
2173.38418,0.19376
2175.31265,0.19364
2177.24112,0.19171
2179.16958,0.19079
2181.09805,0.19140
2183.02652,0.19120
2184.95499,0.18995
2186.88346,0.18898
2188.81193,0.18906
2190.74040,0.18982
2192.66887,0.18974
2194.59733,0.18869
2196.52580,0.18840
2198.45427,0.19004
2200.38274,0.19095
2202.31121,0.18879
2204.23968,0.18670
2206.16815,0.18666
2208.09661,0.18772
2210.02508,0.18974
2211.95355,0.19194
2213.88202,0.19259
2215.81049,0.19137
2217.73896,0.19001
2219.66743,0.19037
2221.59590,0.19260
2223.52436,0.19406
2225.45283,0.19365
2227.38130,0.19328
2229.30977,0.19304
2231.23824,0.19299
2233.16671,0.19394
2235.09518,0.19409
2237.02364,0.19399
2238.95211,0.19499
2240.88058,0.19359
2242.80905,0.19067
2244.73752,0.19118
2246.66599,0.19332
2248.59446,0.19268
2250.52293,0.19036
2252.45139,0.19048
2254.37986,0.19285
2256.30833,0.19435
2258.23680,0.19380
2260.16527,0.19246
2262.09374,0.19250
2264.02221,0.19332
2265.95067,0.19254
2267.87914,0.19053
2269.80761,0.18989
2271.73608,0.19130
2273.66455,0.19354
2275.59302,0.19557
2277.52149,0.19654
2279.44996,0.19592
2281.37842,0.19431
2283.30689,0.19355
2285.23536,0.19303
2287.16383,0.19150
2289.09230,0.19208
2291.02077,0.19560
2292.94924,0.19667
2294.87770,0.19175
2296.80617,0.18589
2298.73464,0.18627
2300.66311,0.19038
2302.59158,0.19251
2304.52005,0.19362
2306.44852,0.19332
2308.37699,0.18944
2310.30545,0.18674
2312.23392,0.19123
2314.16239,0.19813
2316.09086,0.19816
2318.01933,0.19478
2319.94780,0.19721
2321.87627,0.20149
2323.80473,0.19757
2325.73320,0.19036
2327.66167,0.19075
2329.59014,0.19285
2331.51861,0.18458
2333.44708,0.17376
2335.37555,0.17761
2337.30401,0.19158
2339.23248,0.19594
2341.16095,0.19024
2343.08942,0.18387
2345.01789,0.17584
2346.94636,0.17017
2348.87483,0.17107
2350.80330,0.17590
2352.73176,0.18093
2354.66023,0.18790
2356.58870,0.20556
2358.51717,0.22241
2360.44564,0.21758
2362.37411,0.20913
2364.30258,0.21562
2366.23104,0.22626
2368.15951,0.22697
2370.08798,0.21453
2372.01645,0.20064
2373.94492,0.19278
2375.87339,0.19104
2377.80186,0.19318
2379.73033,0.19443
2381.65879,0.19490
2383.58726,0.19546
2385.51573,0.19461
2387.44420,0.19366
2389.37267,0.19396
2391.30114,0.19378
2393.22961,0.19219
2395.15807,0.19067
2397.08654,0.19018
2399.01501,0.19026
2400.94348,0.19014
2402.87195,0.18966
2404.80042,0.18986
2406.72889,0.19232
2408.65736,0.19656
2410.58582,0.19831
2412.51429,0.19445
2414.44276,0.18907
2416.37123,0.18804
2418.29970,0.18983
2420.22817,0.19091
2422.15664,0.19230
2424.08510,0.19386
2426.01357,0.19470
2427.94204,0.19549
2429.87051,0.19618
2431.79898,0.19685
2433.72745,0.19683
2435.65592,0.19483
2437.58439,0.19106
2439.51285,0.18780
2441.44132,0.18734
2443.36979,0.18891
2445.29826,0.19114
2447.22673,0.19316
2449.15520,0.19411
2451.08367,0.19532
2453.01213,0.19715
2454.94060,0.19703
2456.86907,0.19353
2458.79754,0.18982
2460.72601,0.19058
2462.65448,0.19466
2464.58295,0.19644
2466.51142,0.19383
2468.43988,0.19025
2470.36835,0.18905
2472.29682,0.19034
2474.22529,0.19186
2476.15376,0.19129
2478.08223,0.18974
2480.01070,0.19028
2481.93916,0.19298
2483.86763,0.19448
2485.79610,0.19271
2487.72457,0.18941
2489.65304,0.18769
2491.58151,0.18868
2493.50998,0.19101
2495.43844,0.19316
2497.36691,0.19465
2499.29538,0.19517
2501.22385,0.19493
2503.15232,0.19511
2505.08079,0.19522
2507.00926,0.19470
2508.93773,0.19411
2510.86619,0.19283
2512.79466,0.19177
2514.72313,0.19202
2516.65160,0.19323
2518.58007,0.19587
2520.50854,0.19862
2522.43701,0.19944
2524.36547,0.19795
2526.29394,0.19370
2528.22241,0.19000
2530.15088,0.19040
2532.07935,0.19254
2534.00782,0.19458
2535.93629,0.19612
2537.86476,0.19706
2539.79322,0.19955
2541.72169,0.20192
2543.65016,0.20058
2545.57863,0.19818
2547.50710,0.19666
2549.43557,0.19390
2551.36404,0.19267
2553.29250,0.19361
2555.22097,0.19231
2557.14944,0.19111
2559.07791,0.19245
2561.00638,0.19239
2562.93485,0.19185
2564.86332,0.19348
2566.79179,0.19411
2568.72025,0.19357
2570.64872,0.19364
2572.57719,0.19428
2574.50566,0.19624
2576.43413,0.19712
2578.36260,0.19572
2580.29107,0.19528
2582.21953,0.19617
2584.14800,0.19590
2586.07647,0.19389
2588.00494,0.19223
2589.93341,0.19248
2591.86188,0.19343
2593.79035,0.19460
2595.71882,0.19600
2597.64728,0.19526
2599.57575,0.19395
2601.50422,0.19428
2603.43269,0.19319
2605.36116,0.19180
2607.28963,0.19270
2609.21810,0.19292
2611.14656,0.19209
2613.07503,0.19265
2615.00350,0.19343
2616.93197,0.19269
2618.86044,0.19168
2620.78891,0.19206
2622.71738,0.19332
2624.64585,0.19439
2626.57431,0.19441
2628.50278,0.19416
2630.43125,0.19572
2632.35972,0.19736
2634.28819,0.19635
2636.21666,0.19548
2638.14513,0.19769
2640.07359,0.20037
2642.00206,0.20125
2643.93053,0.20067
2645.85900,0.19918
2647.78747,0.19745
2649.71594,0.19690
2651.64441,0.19905
2653.57288,0.20142
2655.50134,0.20116
2657.42981,0.20086
2659.35828,0.20282
2661.28675,0.20443
2663.21522,0.20181
2665.14369,0.19597
2667.07216,0.19204
2669.00062,0.19166
2670.92909,0.19275
2672.85756,0.19575
2674.78603,0.19882
2676.71450,0.19755
2678.64297,0.19435
2680.57144,0.19369
2682.49990,0.19648
2684.42837,0.20046
2686.35684,0.20134
2688.28531,0.19978
2690.21378,0.19855
2692.14225,0.19649
2694.07072,0.19477
2695.99919,0.19594
2697.92765,0.19801
2699.85612,0.19973
2701.78459,0.20088
2703.71306,0.20044
2705.64153,0.20011
2707.57000,0.20047
2709.49847,0.20023
2711.42693,0.20107
2713.35540,0.20357
2715.28387,0.20442
2717.21234,0.20247
2719.14081,0.20005
2721.06928,0.19925
2722.99775,0.20003
2724.92622,0.20090
2726.85468,0.20170
2728.78315,0.20337
2730.71162,0.20561
2732.64009,0.20765
2734.56856,0.20829
2736.49703,0.20654
2738.42550,0.20508
2740.35396,0.20635
2742.28243,0.20801
2744.21090,0.20756
2746.13937,0.20575
2748.06784,0.20504
2749.99631,0.20540
2751.92478,0.20528
2753.85325,0.20538
2755.78171,0.20574
2757.71018,0.20628
2759.63865,0.20782
2761.56712,0.20848
2763.49559,0.20713
2765.42406,0.20536
2767.35253,0.20398
2769.28099,0.20173
2771.20946,0.20061
2773.13793,0.20377
2775.06640,0.20511
2776.99487,0.20233
2778.92334,0.20227
2780.85181,0.20361
2782.78028,0.20208
2784.70874,0.20224
2786.63721,0.20689
2788.56568,0.21113
2790.49415,0.21354
2792.42262,0.21382
2794.35109,0.20897
2796.27956,0.20397
2798.20802,0.20446
2800.13649,0.20667
2802.06496,0.20543
2803.99343,0.20162
2805.92190,0.20013
2807.85037,0.20114
2809.77884,0.20148
2811.70731,0.20227
2813.63577,0.20413
2815.56424,0.20559
2817.49271,0.20705
2819.42118,0.20841
2821.34965,0.20995
2823.27812,0.21309
2825.20659,0.21475
2827.13505,0.21074
2829.06352,0.20602
2830.99199,0.20728
2832.92046,0.21033
2834.84893,0.21139
2836.77740,0.21368
2838.70587,0.21498
2840.63433,0.21239
2842.56280,0.21091
2844.49127,0.21273
2846.41974,0.21465
2848.34821,0.21277
2850.27668,0.20732
2852.20515,0.20493
2854.13362,0.20672
2856.06208,0.20966
2857.99055,0.21244
2859.91902,0.21193
2861.84749,0.20921
2863.77596,0.20724
2865.70443,0.20645
2867.63290,0.20619
2869.56136,0.20358
2871.48983,0.20015
2873.41830,0.20002
2875.34677,0.20140
2877.27524,0.20268
2879.20371,0.20489
2881.13218,0.20498
2883.06065,0.19992
2884.98911,0.19482
2886.91758,0.19623
2888.84605,0.20095
2890.77452,0.20362
2892.70299,0.20448
2894.63146,0.20444
2896.55993,0.20557
2898.48839,0.20685
2900.41686,0.20533
2902.34533,0.20501
2904.27380,0.20550
2906.20227,0.20235
2908.13074,0.19906
2910.05921,0.19861
2911.98768,0.19910
2913.91614,0.19829
2915.84461,0.19768
2917.77308,0.20124
2919.70155,0.20495
2921.63002,0.20468
2923.55849,0.20141
2925.48696,0.19241
2927.41542,0.18508
2929.34389,0.19307
2931.27236,0.20733
2933.20083,0.20854
2935.12930,0.19623
2937.05777,0.18649
2938.98624,0.19195
2940.91471,0.20462
2942.84317,0.20795
2944.77164,0.19789
2946.70011,0.18418
2948.62858,0.18230
2950.55705,0.19153
2952.48552,0.19910
2954.41399,0.20093
2956.34245,0.19402
2958.27092,0.18710
2960.19939,0.19514
2962.12786,0.20852
2964.05633,0.21137
2965.98480,0.20502
2967.91327,0.20039
2969.84174,0.20475
2971.77020,0.21120
2973.69867,0.21232
2975.62714,0.20773
2977.55561,0.19676
2979.48408,0.19058
2981.41255,0.19958
2983.34102,0.21152
2985.26948,0.21365
2987.19795,0.20576
2989.12642,0.19664
2991.05489,0.19756
2992.98336,0.20408
2994.91183,0.20699
2996.84030,0.20828
2998.76877,0.21053
3000.69723,0.21283
3002.62570,0.21436
3004.55417,0.21534
3006.48264,0.21369
3008.41111,0.20696
3010.33958,0.19578
3012.26805,0.17505
3014.19651,0.13966
3016.12498,0.10997
3018.05345,0.12165
3019.98192,0.16819
3021.91039,0.20400
3023.83886,0.21326
3025.76733,0.21107
3027.69579,0.20771
3029.62426,0.20796
3031.55273,0.21146
3033.48120,0.21293
3035.40967,0.20940
3037.33814,0.20257
3039.26661,0.19904
3041.19508,0.20176
3043.12354,0.20758
3045.05201,0.20856
3046.98048,0.19954
3048.90895,0.19172
3050.83742,0.19367
3052.76589,0.19931
3054.69436,0.19886
3056.62282,0.19055
3058.55129,0.18946
3060.47976,0.19971
3062.40823,0.20849
3064.33670,0.20797
3066.26517,0.19918
3068.19364,0.19716
3070.12211,0.20739
3072.05057,0.21260
3073.97904,0.20251
3075.90751,0.19018
3077.83598,0.19361
3079.76445,0.20596
3081.69292,0.20882
3083.62139,0.19786
3085.54985,0.18772
3087.47832,0.19452
3089.40679,0.20642
3091.33526,0.20417
3093.26373,0.18952
3095.19220,0.18120
3097.12067,0.18923
3099.04914,0.19961
3100.97760,0.19894
3102.90607,0.19098
3104.83454,0.19315
3106.76301,0.20495
3108.69148,0.20765
3110.61995,0.19951
3112.54842,0.19114
3114.47688,0.19242
3116.40535,0.20022
3118.33382,0.20321
3120.26229,0.19915
3122.19076,0.19559
3124.11923,0.20135
3126.04770,0.20823
3127.97617,0.20565
3129.90463,0.20111
3131.83310,0.20486
3133.76157,0.21448
3135.69004,0.22087
3137.61851,0.21913
3139.54698,0.21367
3141.47545,0.21301
3143.40391,0.21504
3145.33238,0.21448
3147.26085,0.21272
3149.18932,0.21260
3151.11779,0.21434
3153.04626,0.21432
3154.97473,0.21010
3156.90320,0.20501
3158.83166,0.20585
3160.76013,0.21223
3162.68860,0.21716
3164.61707,0.21747
3166.54554,0.21638
3168.47401,0.21840
3170.40248,0.21811
3172.33094,0.21149
3174.25941,0.20882
3176.18788,0.21534
3178.11635,0.22060
3180.04482,0.21788
3181.97329,0.21341
3183.90176,0.20946
3185.83022,0.20493
3187.75869,0.20540
3189.68716,0.21079
3191.61563,0.21616
3193.54410,0.22203
3195.47257,0.22673
3197.40104,0.22901
3199.32951,0.22949
3201.25797,0.22468
3203.18644,0.21839
3205.11491,0.21624
3207.04338,0.21387
3208.97185,0.21043
3210.90032,0.21058
3212.82879,0.21402
3214.75725,0.21963
3216.68572,0.22620
3218.61419,0.22724
3220.54266,0.22126
3222.47113,0.21521
3224.39960,0.21009
3226.32807,0.20527
3228.25654,0.20505
3230.18500,0.20736
3232.11347,0.20871
3234.04194,0.21167
3235.97041,0.21546
3237.89888,0.21760
3239.82735,0.22032
3241.75582,0.22283
3243.68428,0.22150
3245.61275,0.21969
3247.54122,0.21999
3249.46969,0.21940
3251.39816,0.21686
3253.32663,0.21202
3255.25510,0.20677
3257.18357,0.20418
3259.11203,0.20472
3261.04050,0.20945
3262.96897,0.21697
3264.89744,0.22168
3266.82591,0.22215
3268.75438,0.22107
3270.68285,0.21852
3272.61131,0.21610
3274.53978,0.21599
3276.46825,0.21368
3278.39672,0.20749
3280.32519,0.20458
3282.25366,0.20619
3284.18213,0.20811
3286.11060,0.21068
3288.03906,0.21297
3289.96753,0.21382
3291.89600,0.21323
3293.82447,0.21000
3295.75294,0.20808
3297.68141,0.21081
3299.60988,0.21442
3301.53834,0.21734
3303.46681,0.22032
3305.39528,0.21982
3307.32375,0.21738
3309.25222,0.21792
3311.18069,0.21858
3313.10916,0.21749
3315.03763,0.21590
3316.96609,0.21337
3318.89456,0.21116
3320.82303,0.20995
3322.75150,0.21143
3324.67997,0.21639
3326.60844,0.21886
3328.53691,0.21420
3330.46537,0.20731
3332.39384,0.20907
3334.32231,0.21822
3336.25078,0.22270
3338.17925,0.22027
3340.10772,0.21597
3342.03619,0.21345
3343.96466,0.21078
3345.89312,0.20995
3347.82159,0.21546
3349.75006,0.21763
3351.67853,0.21333
3353.60700,0.21310
3355.53547,0.21700
3357.46394,0.21516
3359.39240,0.20938
3361.32087,0.21047
3363.24934,0.21513
3365.17781,0.21660
3367.10628,0.21796
3369.03475,0.22029
3370.96322,0.22204
3372.89168,0.22409
3374.82015,0.22472
3376.74862,0.22006
3378.67709,0.21549
3380.60556,0.21751
3382.53403,0.22214
3384.46250,0.22229
3386.39097,0.21713
3388.31943,0.21567
3390.24790,0.22087
3392.17637,0.22321
3394.10484,0.21918
3396.03331,0.21472
3397.96178,0.21272
3399.89025,0.21007
3401.81871,0.20765
3403.74718,0.20948
3405.67565,0.21367
3407.60412,0.21507
3409.53259,0.20840
3411.46106,0.20038
3413.38953,0.20410
3415.31800,0.21397
3417.24646,0.21742
3419.17493,0.21540
3421.10340,0.21410
3423.03187,0.21158
3424.96034,0.20760
3426.88881,0.20750
3428.81728,0.20941
3430.74574,0.20936
3432.67421,0.20731
3434.60268,0.20474
3436.53115,0.20319
3438.45962,0.20332
3440.38809,0.20534
3442.31656,0.20690
3444.24503,0.20773
3446.17349,0.21026
3448.10196,0.21352
3450.03043,0.21628
3451.95890,0.21518
3453.88737,0.20654
3455.81584,0.19558
3457.74431,0.18997
3459.67277,0.19107
3461.60124,0.19510
3463.52971,0.19787
3465.45818,0.19822
3467.38665,0.19513
3469.31512,0.19089
3471.24359,0.19277
3473.17206,0.20038
3475.10052,0.20317
3477.02899,0.19898
3478.95746,0.19637
3480.88593,0.19609
3482.81440,0.19561
3484.74287,0.19895
3486.67134,0.20319
3488.59980,0.20056
3490.52827,0.19451
3492.45674,0.18942
3494.38521,0.18412
3496.31368,0.18125
3498.24215,0.18025
3500.17062,0.17828
3502.09909,0.17733
3504.02755,0.17722
3505.95602,0.17832
3507.88449,0.18316
3509.81296,0.18769
3511.74143,0.18545
3513.66990,0.17825
3515.59837,0.17275
3517.52683,0.17396
3519.45530,0.18130
3521.38377,0.18690
3523.31224,0.18535
3525.24071,0.18042
3527.16918,0.17840
3529.09765,0.18140
3531.02611,0.18119
3532.95458,0.17485
3534.88305,0.17355
3536.81152,0.17935
3538.73999,0.18284
3540.66846,0.18351
3542.59693,0.18793
3544.52540,0.19516
3546.45386,0.19625
3548.38233,0.18925
3550.31080,0.17957
3552.23927,0.17072
3554.16774,0.16665
3556.09621,0.16703
3558.02468,0.16754
3559.95314,0.16700
3561.88161,0.16705
3563.81008,0.17024
3565.73855,0.17798
3567.66702,0.18069
3569.59549,0.17059
3571.52396,0.16180
3573.45243,0.16047
3575.38089,0.16093
3577.30936,0.16093
3579.23783,0.15980
3581.16630,0.15531
3583.09477,0.15414
3585.02324,0.16340
3586.95171,0.17683
3588.88017,0.17858
3590.80864,0.17125
3592.73711,0.16305
3594.66558,0.15499
3596.59405,0.15363
3598.52252,0.16131
3600.45099,0.16701
3602.37946,0.16501
3604.30792,0.16310
3606.23639,0.16479
3608.16486,0.16696
3610.09333,0.16767
3612.02180,0.16675
3613.95027,0.16279
3615.87874,0.15941
3617.80720,0.16011
3619.73567,0.15915
3621.66414,0.15414
3623.59261,0.15097
3625.52108,0.15066
3627.44955,0.14938
3629.37802,0.14417
3631.30649,0.14180
3633.23495,0.14304
3635.16342,0.14443
3637.09189,0.14681
3639.02036,0.15179
3640.94883,0.15627
3642.87730,0.15703
3644.80577,0.15683
3646.73423,0.16169
3648.66270,0.17342
3650.59117,0.16890
3652.51964,0.14881
3654.44811,0.13487
3656.37658,0.13106
3658.30505,0.13620
3660.23352,0.14252
3662.16198,0.14309
3664.09045,0.13847
3666.01892,0.13519
3667.94739,0.13978
3669.87586,0.14974
3671.80433,0.14943
3673.73280,0.14623
3675.66126,0.15021
3677.58973,0.15142
3679.51820,0.14631
3681.44667,0.13912
3683.37514,0.13457
3685.30361,0.13559
3687.23208,0.14029
3689.16055,0.14678
3691.08901,0.15008
3693.01748,0.14657
3694.94595,0.13850
3696.87442,0.12917
3698.80289,0.12479
3700.73136,0.12808
3702.65983,0.13270
3704.58829,0.13173
3706.51676,0.13209
3708.44523,0.14382
3710.37370,0.15852
3712.30217,0.15308
3714.23064,0.13949
3716.15911,0.13323
3718.08757,0.13432
3720.01604,0.14005
3721.94451,0.14311
3723.87298,0.14178
3725.80145,0.13799
3727.72992,0.13471
3729.65839,0.13616
3731.58686,0.14271
3733.51532,0.15164
3735.44379,0.15737
3737.37226,0.15838
3739.30073,0.15487
3741.22920,0.14801
3743.15767,0.14248
3745.08614,0.14533
3747.01460,0.15231
3748.94307,0.15254
3750.87154,0.14256
3752.80001,0.13280
3754.72848,0.13242
3756.65695,0.13612
3758.58542,0.13607
3760.51389,0.13114
3762.44235,0.12729
3764.37082,0.12478
3766.29929,0.12670
3768.22776,0.13529
3770.15623,0.14109
3772.08470,0.13675
3774.01317,0.13109
3775.94163,0.13360
3777.87010,0.14343
3779.79857,0.14604
3781.72704,0.13529
3783.65551,0.12390
3785.58398,0.11761
3787.51245,0.11865
3789.44092,0.12510
3791.36938,0.12796
3793.29785,0.12503
3795.22632,0.12413
3797.15479,0.12796
3799.08326,0.13317
3801.01173,0.13869
3802.94020,0.13899
3804.86866,0.13904
3806.79713,0.14055
3808.72560,0.13127
3810.65407,0.12036
3812.58254,0.11965
3814.51101,0.12552
3816.43948,0.13377
3818.36795,0.14469
3820.29641,0.15019
3822.22488,0.14057
3824.15335,0.13375
3826.08182,0.13482
3828.01029,0.13329
3829.93876,0.12957
3831.86723,0.13116
3833.79569,0.13692
3835.72416,0.14002
3837.65263,0.14011
3839.58110,0.14014
3841.50957,0.14096
3843.43804,0.13939
3845.36651,0.13243
3847.29498,0.12585
3849.22344,0.12462
3851.15191,0.12763
3853.08038,0.13711
3855.00885,0.14247
3856.93732,0.13197
3858.86579,0.11968
3860.79426,0.11754
3862.72272,0.12775
3864.65119,0.13534
3866.57966,0.13396
3868.50813,0.13542
3870.43660,0.13993
3872.36507,0.14169
3874.29354,0.13993
3876.22200,0.13589
3878.15047,0.13585
3880.07894,0.13913
3882.00741,0.13548
3883.93588,0.12541
3885.86435,0.11438
3887.79282,0.10767
3889.72129,0.10835
3891.64975,0.11318
3893.57822,0.11514
3895.50669,0.11647
3897.43516,0.12287
3899.36363,0.13238
3901.29210,0.13697
3903.22057,0.13336
3905.14903,0.12360
3907.07750,0.11355
3909.00597,0.10966
3910.93444,0.11192
3912.86291,0.11493
3914.79138,0.11666
3916.71985,0.11826
3918.64832,0.11845
3920.57678,0.11664
3922.50525,0.11493
3924.43372,0.11511
3926.36219,0.11816
3928.29066,0.12289
3930.21913,0.12406
3932.14760,0.12053
3934.07606,0.11886
3936.00453,0.11739
3937.93300,0.11485
3939.86147,0.11712
3941.78994,0.11984
3943.71841,0.11608
3945.64688,0.11372
3947.57535,0.11590
3949.50381,0.11567
3951.43228,0.11245
3953.36075,0.11125
3955.28922,0.11145
3957.21769,0.10952
3959.14616,0.10697
3961.07463,0.10561
3963.00309,0.10520
3964.93156,0.10804
3966.86003,0.11355
3968.78850,0.11637
3970.71697,0.11379
3972.64544,0.11162
3974.57391,0.11559
3976.50238,0.11957
3978.43084,0.11777
3980.35931,0.11456
3982.28778,0.10995
3984.21625,0.10159
3986.14472,0.09486
3988.07319,0.09411
3990.00166,0.09978
3991.93012,0.10713
3993.85859,0.10937
3995.78706,0.10750
3997.71553,0.10613
3999.64400,0.10658
4001.57247,0.10489
4003.50094,0.10078
4005.42941,0.10105
4007.35787,0.10666
4009.28634,0.10924
4011.21481,0.10445
4013.14328,0.10068
4015.07175,0.10213
4017.00022,0.10367
4018.92869,0.10405
4020.85715,0.10129
4022.78562,0.09515
4024.71409,0.09290
4026.64256,0.09493
4028.57103,0.09719
4030.49950,0.10137
4032.42797,0.10554
4034.35644,0.10471
4036.28490,0.09775
4038.21337,0.09187
4040.14184,0.09534
4042.07031,0.10179
4043.99878,0.10246
4045.92725,0.09849
4047.85572,0.09444
4049.78418,0.09371
4051.71265,0.09787
4053.64112,0.10405
4055.56959,0.10621
4057.49806,0.10484
4059.42653,0.10274
4061.35500,0.09897
4063.28346,0.09643
4065.21193,0.09718
4067.14040,0.09651
4069.06887,0.09312
4070.99734,0.09183
4072.92581,0.09409
4074.85428,0.09557
4076.78275,0.09243
4078.71121,0.08788
4080.63968,0.08870
4082.56815,0.09347
4084.49662,0.09391
4086.42509,0.09090
4088.35356,0.09246
4090.28203,0.09531
4092.21049,0.09335
4094.13896,0.09238
4096.06743,0.09545
4097.99590,0.09622
4099.92437,0.09310
4101.85284,0.09171
4103.78131,0.09477
4105.70978,0.09775
4107.63824,0.09409
4109.56671,0.08641
4111.49518,0.08254
4113.42365,0.08241
4115.35212,0.08511
4117.28059,0.09007
4119.20906,0.08962
4121.13752,0.08398
4123.06599,0.08450
4124.99446,0.09117
4126.92293,0.09195
4128.85140,0.08647
4130.77987,0.08507
4132.70834,0.08814
4134.63681,0.09019
4136.56527,0.08797
4138.49374,0.07886
4140.42221,0.07124
4142.35068,0.07709
4144.27915,0.09029
4146.20762,0.09606
4148.13609,0.09077
4150.06455,0.08470
4151.99302,0.08568
4153.92149,0.08984
4155.84996,0.09451
4157.77843,0.09800
4159.70690,0.09492
4161.63537,0.08811
4163.56384,0.08366
4165.49230,0.07978
4167.42077,0.07923
4169.34924,0.08547
4171.27771,0.08926
4173.20618,0.08412
4175.13465,0.07365
4177.06312,0.06746
4178.99158,0.07247
4180.92005,0.08013
4182.84852,0.08235
4184.77699,0.08394
4186.70546,0.08595
4188.63393,0.08279
4190.56240,0.07643
4192.49087,0.07133
4194.41933,0.06742
4196.34780,0.06797
4198.27627,0.07222
4200.20474,0.07377
4202.13321,0.07389
4204.06168,0.07377
4205.99015,0.07305
4207.91861,0.07732
4209.84708,0.08444
4211.77555,0.08376
4213.70402,0.07659
4215.63249,0.07346
4217.56096,0.07570
4219.48943,0.07777
4221.41789,0.07725
4223.34636,0.07299
4225.27483,0.06368
4227.20330,0.05419
4229.13177,0.05336
4231.06024,0.05889
4232.98871,0.06161
4234.91718,0.06265
4236.84564,0.06821
4238.77411,0.07510
4240.70258,0.07487
4242.63105,0.06940
4244.55952,0.06820
4246.48799,0.07184
4248.41646,0.07164
4250.34492,0.06748
4252.27339,0.06815
4254.20186,0.07109
4256.13033,0.06729
4258.05880,0.06065
4259.98727,0.06010
4261.91574,0.06470
4263.84421,0.06710
4265.77267,0.06426
4267.70114,0.06100
4269.62961,0.06337
4271.55808,0.06979
4273.48655,0.07288
4275.41502,0.06914
4277.34349,0.06386
4279.27195,0.06206
4281.20042,0.05960
4283.12889,0.05600
4285.05736,0.05895
4286.98583,0.06732
4288.91430,0.07456
4290.84277,0.07727
4292.77124,0.07222
4294.69970,0.06316
4296.62817,0.05546
4298.55664,0.04856
4300.48511,0.04424
4302.41358,0.04357
4304.34205,0.04265
4306.27052,0.04119
4308.19898,0.04499
4310.12745,0.05569
4312.05592,0.06395
4313.98439,0.06325
4315.91286,0.06092
4317.84133,0.06115
4319.76980,0.05762
4321.69827,0.05135
4323.62673,0.05039
4325.55520,0.05420
4327.48367,0.05608
4329.41214,0.05424
4331.34061,0.05072
4333.26908,0.04819
4335.19755,0.05246
4337.12601,0.06230
4339.05448,0.06375
4340.98295,0.05281
4342.91142,0.04366
4344.83989,0.04573
4346.76836,0.05278
4348.69683,0.05399
4350.62530,0.04641
4352.55376,0.04090
4354.48223,0.04318
4356.41070,0.04490
4358.33917,0.04441
4360.26764,0.04306
4362.19611,0.04035
4364.12458,0.04053
4366.05304,0.04274
4367.98151,0.04095
4369.90998,0.03674
4371.83845,0.03883
4373.76692,0.04329
4375.69539,0.03907
4377.62386,0.03475
4379.55232,0.04012
4381.48079,0.04458
4383.40926,0.03908
4385.33773,0.03201
4387.26620,0.03466
4389.19467,0.04314
4391.12314,0.04834
4393.05161,0.04892
4394.98007,0.04612
4396.90854,0.04455
4398.83701,0.04423
4400.76548,0.03976
4402.69395,0.03524
4404.62242,0.03324
4406.55089,0.03192
4408.47935,0.03497
4410.40782,0.03848
4412.33629,0.03762
4414.26476,0.03916
4416.19323,0.04254
4418.12170,0.04099
4420.05017,0.03850
4421.97864,0.04115
4423.90710,0.04199
4425.83557,0.03493
4427.76404,0.02864
4429.69251,0.02698
4431.62098,0.02942
4433.54945,0.03487
4435.47792,0.03644
4437.40638,0.03912
4439.33485,0.04415
4441.26332,0.04263
4443.19179,0.03969
4445.12026,0.04255
4447.04873,0.04880
4448.97720,0.04882
4450.90567,0.03840
4452.83413,0.03125
4454.76260,0.03454
4456.69107,0.03997
4458.61954,0.04236
4460.54801,0.04074
4462.47648,0.03751
4464.40495,0.03695
4466.33341,0.03627
4468.26188,0.03374
4470.19035,0.03605
4472.11882,0.03904
4474.04729,0.03537
4475.97576,0.03283
4477.90423,0.02953
4479.83270,0.01734
4481.76116,0.00810
4483.68963,0.01445
4485.61810,0.02688
4487.54657,0.03171
4489.47504,0.03204
4491.40351,0.03296
4493.33198,0.03135
4495.26044,0.02704
4497.18891,0.02243
4499.11738,0.01767
4501.04585,0.01733
4502.97432,0.02449
4504.90279,0.02844
4506.83126,0.02323
4508.75973,0.01980
4510.68819,0.02421
4512.61666,0.02755
4514.54513,0.02197
4516.47360,0.00950
4518.40207,-0.00102
4520.33054,0.00162
4522.25901,0.01300
4524.18747,0.01556
4526.11594,0.01050
4528.04441,0.01246
4529.97288,0.02343
4531.90135,0.03606
4533.82982,0.04204
4535.75829,0.03582
4537.68676,0.02308
4539.61522,0.01297
4541.54369,0.00875
4543.47216,0.01333
4545.40063,0.02349
4547.32910,0.02983
4549.25757,0.03095
4551.18604,0.02569
4553.11450,0.01276
4555.04297,0.00457
4556.97144,0.00816
4558.89991,0.01316
4560.82838,0.01077
4562.75685,0.00519
4564.68532,0.00340
4566.61378,0.00769
4568.54225,0.01736
4570.47072,0.02082
4572.39919,0.01189
4574.32766,0.00653
4576.25613,0.01072
4578.18460,0.01174
4580.11307,0.00829
4582.04153,0.01060
4583.97000,0.01992
4585.89847,0.02516
4587.82694,0.02073
4589.75541,0.01994
4591.68388,0.02774
4593.61235,0.03033
4595.54081,0.02313
4597.46928,0.01299
4599.39775,0.00783
4601.32622,0.00421
4603.25469,-0.00398
4605.18316,-0.00585
4607.11163,0.00010
4609.04010,0.00383
4610.96856,0.00814
4612.89703,0.00944
4614.82550,0.00211
4616.75397,0.00032
4618.68244,0.01085
4620.61091,0.02120
4622.53938,0.02346
4624.46784,0.01978
4626.39631,0.01786
4628.32478,0.01853
4630.25325,0.01196
4632.18172,0.00081
4634.11019,-0.00014
4636.03866,0.00889
4637.96713,0.01755
4639.89559,0.02022
4641.82406,0.01656
4643.75253,0.01552
4645.68100,0.02146
4647.60947,0.02281
4649.53794,0.01647
4651.46641,0.01535
4653.39487,0.01942
4655.32334,0.02092
4657.25181,0.02267
4659.18028,0.02274
4661.10875,0.01366
4663.03722,-0.00315
4664.96569,-0.01285
4666.89416,-0.00282
4668.82262,0.01244
4670.75109,0.01514
4672.67956,0.01452
4674.60803,0.01687
4676.53650,0.01199
4678.46497,0.00268
4680.39344,-0.00084
4682.32190,-0.00229
4684.25037,-0.00557
4686.17884,-0.00495
4688.10731,0.00038
4690.03578,0.00114
4691.96425,-0.00555
4693.89272,-0.00657
4695.82119,0.00546
4697.74965,0.01676
4699.67812,0.01943
4701.60659,0.01904
4703.53506,0.02090
4705.46353,0.02297
4707.39200,0.01477
4709.32047,0.00172
4711.24893,-0.00234
4713.17740,0.00090
4715.10587,0.00537
4717.03434,0.00840
4718.96281,0.00771
4720.89128,0.00312
4722.81975,0.00296
4724.74821,0.00707
4726.67668,0.00847
4728.60515,0.01273
4730.53362,0.01310
4732.46209,0.00382
4734.39056,0.00487
4736.31903,0.01834
4738.24750,0.02444
4740.17596,0.01771
4742.10443,0.00458
4744.03290,0.00011
4745.96137,0.00937
4747.88984,0.01534
4749.81831,0.01069
4751.74678,0.00257
4753.67524,-0.00211
4755.60371,-0.00072
4757.53218,0.00434
4759.46065,0.01082
4761.38912,0.01443
4763.31759,0.01361
4765.24606,0.01640
4767.17453,0.02769
4769.10299,0.03566
4771.03146,0.03135
4772.95993,0.02420
4774.88840,0.02237
4776.81687,0.02197
4778.74534,0.01284
4780.67381,-0.00418
4782.60227,-0.00918
4784.53074,0.00507
4786.45921,0.01815
4788.38768,0.01649
4790.31615,0.00660
4792.24462,-0.00253
4794.17309,-0.00445
4796.10156,-0.00026
4798.03002,-0.00319
4799.95849,-0.01751
4801.88696,-0.02975
4803.81543,-0.02596
4805.74390,-0.00692
4807.67237,0.00786
4809.60084,0.00445
4811.52930,-0.00116
4813.45777,0.00452
4815.38624,0.00790
4817.31471,-0.00021
4819.24318,-0.01016
4821.17165,-0.01103
4823.10012,-0.00565
4825.02859,-0.00105
4826.95705,0.00693
4828.88552,0.01697
4830.81399,0.01928
4832.74246,0.01300
4834.67093,0.00811
4836.59940,0.01211
4838.52787,0.01485
4840.45633,0.00840
4842.38480,0.00368
4844.31327,0.00775
4846.24174,0.01363
4848.17021,0.01179
4850.09868,0.00606
4852.02715,0.00980
4853.95562,0.01934
4855.88408,0.02238
4857.81255,0.01901
4859.74102,0.01461
4861.66949,0.01064
4863.59796,0.00604
4865.52643,0.00328
4867.45490,0.00744
4869.38336,0.01533
4871.31183,0.00890
4873.24030,-0.00632
4875.16877,-0.00089
4877.09724,0.01565
4879.02571,0.02637
4880.95418,0.03655
4882.88265,0.03756
4884.81111,0.03164
4886.73958,0.04084
4888.66805,0.05520
4890.59652,0.04568
4892.52499,0.01962
4894.45346,0.00855
4896.38193,0.01895
4898.31039,0.02909
4900.23886,0.02433
4902.16733,0.01414
4904.09580,0.00971
4906.02427,0.00382
4907.95274,-0.00899
4909.88121,-0.01263
4911.80967,0.00148
4913.73814,0.01524
4915.66661,0.01510
4917.59508,0.00896
4919.52355,0.00506
4921.45202,0.00741
4923.38049,0.02051
4925.30896,0.03220
4927.23742,0.02479
4929.16589,0.00579
4931.09436,-0.00937
4933.02283,-0.01660
4934.95130,-0.01706
4936.87977,-0.01092
4938.80824,0.00274
4940.73670,0.00862
4942.66517,-0.00569
4944.59364,-0.02076
4946.52211,-0.02144
4948.45058,-0.01300
4950.37905,-0.00175
4952.30752,0.00153
4954.23599,-0.00282
4956.16445,-0.00405
4958.09292,-0.00660
4960.02139,-0.01087
4961.94986,-0.00641
4963.87833,0.00317
4965.80680,0.00799
4967.73527,0.00775
4969.66373,0.00648
4971.59220,0.00574
4973.52067,0.00674
4975.44914,0.00989
4977.37761,0.01627
4979.30608,0.02524
4981.23455,0.02224
4983.16302,0.01023
4985.09148,0.01189
4987.01995,0.01976
4988.94842,0.02111
4990.87689,0.02578
4992.80536,0.03488
4994.73383,0.03182
4996.66230,0.01697
4998.59076,0.01005
5000.51923,0.01075
5002.44770,0.00910
5004.37617,0.00280
5006.30464,0.00015
5008.23311,0.00818
5010.16158,0.01375
5012.09005,0.01446
5014.01851,0.01314
5015.94698,0.00125
5017.87545,-0.00862
5019.80392,-0.00385
5021.73239,0.00183
5023.66086,-0.00335
5025.58933,-0.00852
5027.51779,-0.00545
5029.44626,-0.00315
5031.37473,0.00215
5033.30320,0.01935
5035.23167,0.03600
5037.16014,0.03985
5039.08861,0.03324
5041.01708,0.02081
5042.94554,0.00781
5044.87401,-0.00514
5046.80248,-0.00986
5048.73095,0.00681
5050.65942,0.02493
5052.58789,0.02653
5054.51636,0.02342
5056.44482,0.02174
5058.37329,0.02196
5060.30176,0.02188
5062.23023,0.01926
5064.15870,0.01791
5066.08717,0.01507
5068.01564,0.01241
5069.94410,0.01477
5071.87257,0.01634
5073.80104,0.01844
5075.72951,0.02325
5077.65798,0.02882
5079.58645,0.03636
5081.51492,0.04210
5083.44339,0.05177
5085.37185,0.05878
5087.30032,0.04328
5089.22879,0.02125
5091.15726,0.01573
5093.08573,0.01962
5095.01420,0.02101
5096.94267,0.02144
5098.87113,0.02444
5100.79960,0.02300
5102.72807,0.01572
5104.65654,0.02069
5106.58501,0.03911
5108.51348,0.04375
5110.44195,0.02823
5112.37042,0.01278
5114.29888,0.01583
5116.22735,0.03932
5118.15582,0.06066
5120.08429,0.05612
5122.01276,0.03481
5123.94123,0.02221
5125.86970,0.02238
5127.79816,0.02283
5129.72663,0.02293
5131.65510,0.02896
5133.58357,0.03257
5135.51204,0.03393
5137.44051,0.04587
5139.36898,0.05395
5141.29745,0.04709
5143.22591,0.04211
5145.15438,0.04406
5147.08285,0.04720
5149.01132,0.04344
5150.93979,0.03209
5152.86826,0.03371
5154.79673,0.05061
5156.72519,0.05950
5158.65366,0.05251
5160.58213,0.04396
5162.51060,0.04667
5164.43907,0.05468
5166.36754,0.05327
5168.29601,0.04011
5170.22448,0.02298
5172.15294,0.01350
5174.08141,0.01631
5176.00988,0.02256
5177.93835,0.02202
5179.86682,0.01767
5181.79529,0.01494
5183.72376,0.01494
5185.65222,0.02626
5187.58069,0.04378
5189.50916,0.05109
5191.43763,0.05346
5193.36610,0.05702
5195.29457,0.05399
5197.22304,0.04286
5199.15151,0.03732
5201.07997,0.04660
5203.00844,0.05789
5204.93691,0.06684
5206.86538,0.08042
5208.79385,0.08585
5210.72232,0.07789
5212.65079,0.06391
5214.57925,0.04840
5216.50772,0.03764
5218.43619,0.03422
5220.36466,0.03582
5222.29313,0.03461
5224.22160,0.03372
5226.15007,0.04437
5228.07854,0.05381
5230.00700,0.04876
5231.93547,0.04289
5233.86394,0.05043
5235.79241,0.05787
5237.72088,0.05006
5239.64935,0.04079
5241.57782,0.04132
5243.50628,0.04581
5245.43475,0.05371
5247.36322,0.05546
5249.29169,0.04663
5251.22016,0.05321
5253.14863,0.06748
5255.07710,0.05912
5257.00556,0.04666
5258.93403,0.04710
5260.86250,0.03868
5262.79097,0.02194
5264.71944,0.02121
5266.64791,0.03198
5268.57638,0.03593
5270.50485,0.03752
5272.43331,0.04528
5274.36178,0.04602
5276.29025,0.04286
5278.21872,0.06092
5280.14719,0.08707
5282.07566,0.08575
5284.00413,0.06306
5285.93259,0.05305
5287.86106,0.05939
5289.78953,0.05594
5291.71800,0.03820
5293.64647,0.03622
5295.57494,0.05270
5297.50341,0.05705
5299.43188,0.04800
5301.36034,0.04934
5303.28881,0.05873
5305.21728,0.05905
5307.14575,0.06091
5309.07422,0.08313
5311.00269,0.10274
5312.93116,0.09834
5314.85962,0.08807
5316.78809,0.08520
5318.71656,0.07865
5320.64503,0.06501
5322.57350,0.05054
5324.50197,0.04267
5326.43044,0.04985
5328.35891,0.06321
5330.28737,0.05942
5332.21584,0.04180
5334.14431,0.04102
5336.07278,0.06192
5338.00125,0.06990
5339.92972,0.04864
5341.85819,0.02923
5343.78665,0.02823
5345.71512,0.04136
5347.64359,0.06035
5349.57206,0.07443
5351.50053,0.07614
5353.42900,0.06018
5355.35747,0.04553
5357.28594,0.06058
5359.21440,0.08560
5361.14287,0.08679
5363.07134,0.07641
5364.99981,0.07873
5366.92828,0.07399
5368.85675,0.05262
5370.78522,0.04381
5372.71368,0.06092
5374.64215,0.07902
5376.57062,0.07472
5378.49909,0.06257
5380.42756,0.06092
5382.35603,0.06791
5384.28450,0.07713
5386.21297,0.07126
5388.14143,0.04307
5390.06990,0.02414
5391.99837,0.03441
5393.92684,0.06558
5395.85531,0.08781
5397.78378,0.08749
5399.71225,0.08426
5401.64071,0.07223
5403.56918,0.04401
5405.49765,0.02749
5407.42612,0.03789
5409.35459,0.05412
5411.28306,0.04553
5413.21153,0.02788
5415.13999,0.03396
5417.06846,0.04078
5418.99693,0.03036
5420.92540,0.02098
5422.85387,0.02456
5424.78234,0.03612
5426.71081,0.04853
5428.63928,0.05606
5430.56774,0.07183
5432.49621,0.09208
5434.42468,0.08923
5436.35315,0.06753
5438.28162,0.04726
5440.21009,0.03158
5442.13856,0.03898
5444.06702,0.06801
5445.99549,0.06741
5447.92396,0.03902
5449.85243,0.04402
5451.78090,0.06339
5453.70937,0.07294
5455.63784,0.11433
5457.56631,0.15944
5459.49477,0.14061
5461.42324,0.10509
5463.35171,0.10527
5465.28018,0.11461
5467.20865,0.10999
5469.13712,0.09310
5471.06559,0.05806
5472.99405,0.02247
5474.92252,0.02515
5476.85099,0.05373
5478.77946,0.06504
5480.70793,0.07197
5482.63640,0.09262
5484.56487,0.10008
5486.49334,0.08249
5488.42180,0.07065
5490.35027,0.07254
5492.27874,0.06523
5494.20721,0.04343
5496.13568,0.02576
5498.06415,0.02266
5499.99262,0.02620
5501.92108,0.02073
5503.84955,0.01577
5505.77802,0.03378
5507.70649,0.05578
5509.63496,0.05447
5511.56343,0.04895
5513.49190,0.05509
5515.42037,0.06965
5517.34883,0.08808
5519.27730,0.09577
5521.20577,0.09101
5523.13424,0.08676
5525.06271,0.08776
5526.99118,0.09302
5528.91965,0.09943
5530.84811,0.10443
5532.77658,0.10380
5534.70505,0.08850
5536.63352,0.05467
5538.56199,0.02021
5540.49046,0.01231
5542.41893,0.03711
5544.34740,0.07432
5546.27586,0.08885
5548.20433,0.07726
5550.13280,0.07965
5552.06127,0.09388
5553.98974,0.09523
5555.91821,0.08954
5557.84668,0.07207
5559.77514,0.05419
5561.70361,0.05539
5563.63208,0.06373
5565.56055,0.07777
5567.48902,0.08829
5569.41749,0.07495
5571.34596,0.05134
5573.27443,0.04674
5575.20289,0.06147
5577.13136,0.06897
5579.05983,0.06310
5580.98830,0.05936
5582.91677,0.06935
5584.84524,0.07595
5586.77371,0.06344
5588.70217,0.05224
5590.63064,0.06766
5592.55911,0.10687
5594.48758,0.13992
5596.41605,0.13709
5598.34452,0.10946
5600.27299,0.08863
5602.20145,0.08121
5604.12992,0.08772
5606.05839,0.10862
5607.98686,0.14066
5609.91533,0.17402
5611.84380,0.17433
5613.77227,0.13985
5615.70074,0.11311
5617.62920,0.11163
5619.55767,0.12714
5621.48614,0.13921
5623.41461,0.12499
5625.34308,0.08416
5627.27155,0.04327
5629.20002,0.02348
5631.12848,0.01647
5633.05695,0.01239
5634.98542,0.02661
5636.91389,0.05544
5638.84236,0.06065
5640.77083,0.05131
5642.69930,0.06073
5644.62777,0.06673
5646.55623,0.04789
5648.48470,0.04436
5650.41317,0.07157
5652.34164,0.08761
5654.27011,0.07159
5656.19858,0.03736
5658.12705,0.00787
5660.05551,0.00888
5661.98398,0.04629
5663.91245,0.08291
5665.84092,0.09156
5667.76939,0.08404
5669.69786,0.06568
5671.62633,0.04990
5673.55480,0.06670
5675.48326,0.10064
5677.41173,0.09856
5679.34020,0.07553
5681.26867,0.07765
5683.19714,0.08718
5685.12561,0.09842
5687.05408,0.12256
5688.98254,0.13595
5690.91101,0.12810
5692.83948,0.10861
5694.76795,0.08356
5696.69642,0.06125
5698.62489,0.05989
5700.55336,0.08378
5702.48183,0.09462
5704.41029,0.07633
5706.33876,0.06291
5708.26723,0.06926
5710.19570,0.07495
5712.12417,0.07586
5714.05264,0.08346
5715.98111,0.07789
5717.90957,0.05881
5719.83804,0.06908
5721.76651,0.09198
5723.69498,0.07892
5725.62345,0.06032
5727.55192,0.07705
5729.48039,0.09480
5731.40886,0.08436
5733.33732,0.07221
5735.26579,0.07928
5737.19426,0.09993
5739.12273,0.12440
5741.05120,0.13125
5742.97967,0.10612
5744.90814,0.06788
5746.83660,0.03955
5748.76507,0.02910
5750.69354,0.02221
5752.62201,0.02208
5754.55048,0.05345
5756.47895,0.09616
5758.40742,0.11052
5760.33588,0.09507
5762.26435,0.08157
5764.19282,0.09258
5766.12129,0.12189
5768.04976,0.14258
5769.97823,0.13125
5771.90670,0.10098
5773.83517,0.07442
5775.76363,0.05504
5777.69210,0.05995
5779.62057,0.09207
5781.54904,0.09604
5783.47751,0.05875
5785.40598,0.03483
5787.33445,0.04704
5789.26291,0.08655
5791.19138,0.12903
5793.11985,0.13861
5795.04832,0.11510
5796.97679,0.09595
5798.90526,0.10270
5800.83373,0.12583
5802.76220,0.14342
5804.69066,0.11829
5806.61913,0.06118
5808.54760,0.02552
5810.47607,0.02441
5812.40454,0.03918
5814.33301,0.04549
5816.26148,0.06314
5818.18994,0.11251
5820.11841,0.13369
5822.04688,0.10497
5823.97535,0.08742
5825.90382,0.10012
5827.83229,0.12353
5829.76076,0.12586
5831.68923,0.10572
5833.61769,0.09701
5835.54616,0.10184
5837.47463,0.11335
5839.40310,0.11022
5841.33157,0.07323
5843.26004,0.05445
5845.18851,0.07221
5847.11697,0.07180
5849.04544,0.05410
5850.97391,0.04421
5852.90238,0.01989
5854.83085,-0.01111
5856.75932,-0.00745
5858.68779,0.04361
5860.61626,0.10393
5862.54472,0.12238
5864.47319,0.09348
5866.40166,0.07460
5868.33013,0.10172
5870.25860,0.10871
5872.18707,0.06641
5874.11554,0.03941
5876.04400,0.05824
5877.97247,0.07725
5879.90094,0.05828
5881.82941,0.04206
5883.75788,0.07736
5885.68635,0.11652
5887.61482,0.10244
5889.54329,0.09445
5891.47175,0.12513
5893.40022,0.12310
5895.32869,0.09632
5897.25716,0.10144
5899.18563,0.12007
5901.11410,0.14515
5903.04257,0.18406
5904.97103,0.19220
5906.89950,0.16171
5908.82797,0.13246
5910.75644,0.12359
5912.68491,0.11722
5914.61338,0.10450
5916.54185,0.10422
5918.47032,0.10493
5920.39878,0.09739
5922.32725,0.12308
5924.25572,0.19416
5926.18419,0.24366
5928.11266,0.22826
5930.04113,0.18850
5931.96960,0.15346
5933.89806,0.12351
5935.82653,0.10717
5937.75500,0.10835
5939.68347,0.11448
5941.61194,0.11521
5943.54041,0.10071
5945.46888,0.05958
5947.39734,0.01591
5949.32581,-0.00001
5951.25428,0.01843
5953.18275,0.06661
5955.11122,0.09067
5957.03969,0.04998
5958.96816,0.03007
5960.89663,0.07817
5962.82509,0.09531
5964.75356,0.07013
5966.68203,0.06254
5968.61050,0.07296
5970.53897,0.08775
5972.46744,0.09361
5974.39591,0.08187
5976.32437,0.07498
5978.25284,0.05687
5980.18131,0.02113
5982.10978,0.01453
5984.03825,0.03331
5985.96672,0.06509
5987.89519,0.11368
5989.82366,0.14971
5991.75212,0.16848
5993.68059,0.16606
5995.60906,0.13301
5997.53753,0.09653
5999.46600,0.07470
6001.39447,0.05022
6003.32294,0.01309
6005.25140,-0.00765
6007.17987,0.02141
6009.10834,0.09635
6011.03681,0.14329
6012.96528,0.11522
6014.89375,0.08384
6016.82222,0.08463
6018.75069,0.08928
6020.67915,0.09455
6022.60762,0.07667
6024.53609,0.04703
6026.46456,0.05512
6028.39303,0.08374
6030.32150,0.09214
6032.24997,0.08831
6034.17843,0.08455
6036.10690,0.09389
6038.03537,0.10707
6039.96384,0.06054
6041.89231,-0.01695
6043.82078,-0.01866
6045.74925,0.05121
6047.67772,0.10699
6049.60618,0.12338
6051.53465,0.14072
6053.46312,0.14407
6055.39159,0.10105
6057.32006,0.06624
6059.24853,0.07310
6061.17700,0.06899
6063.10546,0.05045
6065.03393,0.05469
6066.96240,0.04894
6068.89087,0.03468
6070.81934,0.03496
6072.74781,0.01446
6074.67628,-0.01809
6076.60475,-0.01102
6078.53321,0.01958
6080.46168,0.04498
6082.39015,0.09758
6084.31862,0.16754
6086.24709,0.18400
6088.17556,0.14435
6090.10403,0.10767
6092.03249,0.09702
6093.96096,0.10077
6095.88943,0.11031
6097.81790,0.12529
6099.74637,0.12873
6101.67484,0.10869
6103.60331,0.09137
6105.53177,0.07900
6107.46024,0.05981
6109.38871,0.07303
6111.31718,0.11529
6113.24565,0.10914
6115.17412,0.06744
6117.10259,0.07004
6119.03106,0.11148
6120.95952,0.15736
6122.88799,0.19130
6124.81646,0.16959
6126.74493,0.12090
6128.67340,0.10734
6130.60187,0.11028
6132.53034,0.08711
6134.45880,0.05217
6136.38727,0.05848
6138.31574,0.09619
6140.24421,0.10587
6142.17268,0.07978
6144.10115,0.06203
6146.02962,0.08824
6147.95809,0.12010
6149.88655,0.07867
6151.81502,0.00428
6153.74349,0.00619
6155.67196,0.02253
6157.60043,-0.02362
6159.52890,-0.06037
6161.45737,-0.02591
6163.38583,0.04132
6165.31430,0.09006
6167.24277,0.10365
6169.17124,0.08777
6171.09971,0.06430
6173.02818,0.06268
6174.95665,0.09481
6176.88512,0.11103
6178.81358,0.07261
6180.74205,0.05370
6182.67052,0.09751
6184.59899,0.12909
6186.52746,0.10738
6188.45593,0.09903
6190.38440,0.10799
6192.31286,0.06572
6194.24133,0.04482
6196.16980,0.09916
6198.09827,0.12304
6200.02674,0.08702
6201.95521,0.08321
6203.88368,0.12647
6205.81215,0.15586
6207.74061,0.15239
6209.66908,0.14533
6211.59755,0.17822
6213.52602,0.20278
6215.45449,0.16410
6217.38296,0.13500
6219.31143,0.13432
6221.23989,0.08446
6223.16836,0.01254
6225.09683,0.00794
6227.02530,0.04179
6228.95377,0.03999
6230.88224,0.03275
6232.81071,0.08534
6234.73918,0.13365
6236.66764,0.09747
6238.59611,0.05955
6240.52458,0.11224
6242.45305,0.16995
6244.38152,0.14000
6246.30999,0.08131
6248.23846,0.03994
6250.16692,0.01587
6252.09539,0.01506
6254.02386,0.00971
6255.95233,0.01077
6257.88080,0.06764
6259.80927,0.13857
6261.73774,0.14107
6263.66621,0.08721
6265.59467,0.05632
6267.52314,0.05983
6269.45161,0.04099
6271.38008,0.01867
6273.30855,0.04872
6275.23702,0.12005
6277.16549,0.18178
6279.09395,0.20304
6281.02242,0.18767
6282.95089,0.15566
6284.87936,0.11280
6286.80783,0.09301
6288.73630,0.11428
6290.66477,0.13114
6292.59323,0.12275
6294.52170,0.10478
6296.45017,0.08761
6298.37864,0.07750
6300.30711,0.06293
6302.23558,0.04167
6304.16405,0.04614
6306.09252,0.09395
6308.02098,0.12751
6309.94945,0.11987
6311.87792,0.15043
6313.80639,0.21126
6315.73486,0.21575
6317.66333,0.15528
6319.59180,0.08024
6321.52026,0.07033
6323.44873,0.14102
6325.37720,0.17192
6327.30567,0.13075
6329.23414,0.09426
6331.16261,0.06420
6333.09108,0.02774
6335.01955,0.00454
6336.94801,0.02957
6338.87648,0.13270
6340.80495,0.22999
6342.73342,0.22737
6344.66189,0.14285
6346.59036,0.04517
6348.51883,0.00855
6350.44729,0.07191
6352.37576,0.17246
6354.30423,0.20325
6356.23270,0.17859
6358.16117,0.15241
6360.08964,0.12153
6362.01811,0.09996
6363.94658,0.12738
6365.87504,0.13367
6367.80351,0.04205
6369.73198,-0.04936
6371.66045,-0.07451
6373.58892,-0.06098
6375.51739,-0.00941
6377.44586,0.06158
6379.37432,0.11385
6381.30279,0.14460
6383.23126,0.16601
6385.15973,0.14395
6387.08820,0.09502
6389.01667,0.10963
6390.94514,0.15693
6392.87361,0.15161
6394.80207,0.10661
6396.73054,0.07187
6398.65901,0.07836
6400.58748,0.09517
6402.51595,0.06742
6404.44442,0.04919
6406.37289,0.11563
6408.30135,0.15795
6410.22982,0.07868
6412.15829,0.02254
6414.08676,0.05738
6416.01523,0.10313
6417.94370,0.13257
6419.87217,0.12404
6421.80064,0.09410
6423.72910,0.10431
6425.65757,0.12805
6427.58604,0.13380
6429.51451,0.14997
6431.44298,0.12991
6433.37145,0.08942
6435.29992,0.10387
6437.22838,0.11744
6439.15685,0.08061
6441.08532,0.07190
6443.01379,0.12595
6444.94226,0.15215
6446.87073,0.10769
6448.79920,0.06447
6450.72766,0.06174
6452.65613,0.05768
6454.58460,0.04554
6456.51307,0.05570
6458.44154,0.05792
6460.37001,0.02635
6462.29848,0.03138
6464.22695,0.11490
6466.15541,0.19826
6468.08388,0.21993
6470.01235,0.16835
6471.94082,0.06710
6473.86929,-0.02037
6475.79776,-0.04716
6477.72623,0.02281
6479.65469,0.12045
6481.58316,0.16216
6483.51163,0.15099
6485.44010,0.13232
6487.36857,0.16027
6489.29704,0.17966
6491.22551,0.11010
6493.15398,0.04666
6495.08244,0.08106
6497.01091,0.14647
6498.93938,0.16871
6500.86785,0.14252
6502.79632,0.12237
6504.72479,0.12221
6506.65326,0.10764
6508.58172,0.10997
6510.51019,0.15985
6512.43866,0.18187
6514.36713,0.14835
6516.29560,0.11211
6518.22407,0.09668
6520.15254,0.11264
6522.08101,0.14080
6524.00947,0.14649
6525.93794,0.11508
6527.86641,0.06797
6529.79488,0.06341
6531.72335,0.11133
6533.65182,0.12470
6535.58029,0.06320
6537.50875,0.00854
6539.43722,0.01470
6541.36569,0.06826
6543.29416,0.15019
6545.22263,0.21891
6547.15110,0.22876
6549.07957,0.14563
6551.00804,0.04216
6552.93650,0.04344
6554.86497,0.10720
6556.79344,0.14029
6558.72191,0.08875
6560.65038,-0.00864
6562.57885,-0.04465
6564.50732,-0.02082
6566.43578,-0.01052
6568.36425,-0.01193
6570.29272,0.01721
6572.22119,0.06285
6574.14966,0.09667
6576.07813,0.09043
6578.00660,0.01758
6579.93507,-0.06690
6581.86353,-0.09553
6583.79200,-0.07881
6585.72047,-0.07361
6587.64894,-0.05884
6589.57741,0.00038
6591.50588,0.05274
6593.43435,0.06639
6595.36281,0.05428
6597.29128,0.03123
6599.21975,-0.01295
6601.14822,-0.07251
6603.07669,-0.09164
6605.00516,-0.04106
6606.93363,0.06160
6608.86210,0.12591
6610.79056,0.09832
6612.71903,0.04876
6614.64750,0.04316
6616.57597,0.09158
6618.50444,0.15759
6620.43291,0.17236
6622.36138,0.12334
6624.28984,0.05790
6626.21831,0.04069
6628.14678,0.06827
6630.07525,0.08738
6632.00372,0.13803
6633.93219,0.19878
6635.86066,0.18335
6637.78912,0.14969
6639.71759,0.10589
6641.64606,0.02398
6643.57453,-0.03624
6645.50300,-0.07157
6647.43147,-0.09761
6649.35994,-0.08713
6651.28841,-0.03573
6653.21687,0.03750
6655.14534,0.08861
6657.07381,0.07159
6659.00228,0.03472
6660.93075,0.03687
6662.85922,0.03925
6664.78769,0.03363
6666.71615,0.04611
6668.64462,0.07456
6670.57309,0.09968
6672.50156,0.14551
6674.43003,0.20987
6676.35850,0.22992
6678.28697,0.23246
6680.21544,0.22812
6682.14390,0.14528
6684.07237,0.03169
6686.00084,-0.00172
6687.92931,0.01219
6689.85778,-0.01205
6691.78625,-0.04783
6693.71472,-0.01151
6695.64318,0.06812
6697.57165,0.09025
6699.50012,0.10812
6701.42859,0.17453
6703.35706,0.19387
6705.28553,0.17022
6707.21400,0.18282
6709.14247,0.14624
6711.07093,0.02251
6712.99940,-0.04272
6714.92787,-0.00059
6716.85634,0.06161
6718.78481,0.09868
6720.71328,0.12683
6722.64175,0.12060
6724.57021,0.05814
6726.49868,0.00546
6728.42715,0.02109
6730.35562,0.05753
6732.28409,0.01818
6734.21256,-0.05306
6736.14103,-0.06485
6738.06950,-0.05360
6739.99796,-0.02352
6741.92643,0.07269
6743.85490,0.15204
6745.78337,0.15245
6747.71184,0.12278
6749.64031,0.07745
6751.56878,0.03226
6753.49724,0.05222
6755.42571,0.09337
6757.35418,0.06029
6759.28265,-0.02363
6761.21112,-0.02882
6763.13959,0.08637
6765.06806,0.15636
6766.99653,0.12083
6768.92499,0.10450
6770.85346,0.09631
6772.78193,0.04907
6774.71040,0.03233
6776.63887,0.02855
6778.56734,-0.00940
6780.49581,-0.00779
6782.42427,0.08658
6784.35274,0.18791
6786.28121,0.16949
6788.20968,0.07964
6790.13815,0.08245
6792.06662,0.13669
6793.99509,0.07638
6795.92355,-0.00566
6797.85202,0.04688
6799.78049,0.16462
6801.70896,0.19080
6803.63743,0.09925
6805.56590,-0.01115
6807.49437,-0.01623
6809.42284,0.06959
6811.35130,0.09488
6813.27977,0.04102
6815.20824,0.02423
6817.13671,0.04550
6819.06518,0.04634
6820.99365,0.03601
6822.92212,0.06692
6824.85058,0.08873
6826.77905,0.01869
6828.70752,-0.08211
6830.63599,-0.13469
6832.56446,-0.16171
6834.49293,-0.18791
6836.42140,-0.16273
6838.34987,-0.08929
6840.27833,-0.05894
6842.20680,-0.01117
6844.13527,0.09773
6846.06374,0.12016
6847.99221,-0.00663
6849.92068,-0.12027
6851.84915,-0.09550
6853.77761,0.01234
6855.70608,0.12867
6857.63455,0.14508
6859.56302,0.09482
6861.49149,0.09696
6863.41996,0.13787
6865.34843,0.14165
6867.27690,0.10977
6869.20536,0.09837
6871.13383,0.09457
6873.06230,0.07101
6874.99077,0.04944
6876.91924,0.04213
6878.84771,0.07932
6880.77618,0.10772
6882.70464,0.04685
6884.63311,-0.04041
6886.56158,-0.08454
6888.49005,-0.07037
6890.41852,0.01316
6892.34699,0.15063
6894.27546,0.23708
6896.20393,0.21030
6898.13239,0.12442
6900.06086,0.09764
6901.98933,0.13979
6903.91780,0.13314
6905.84627,0.04983
6907.77474,0.04441
6909.70321,0.11213
6911.63167,0.15138
6913.56014,0.20563
6915.48861,0.26847
6917.41708,0.22407
6919.34555,0.12342
6921.27402,0.11495
6923.20249,0.14564
6925.13096,0.14929
6927.05942,0.13373
6928.98789,0.09896
6930.91636,0.08754
6932.84483,0.12897
6934.77330,0.11527
6936.70177,0.03742
6938.63024,0.01318
6940.55870,0.05818
6942.48717,0.05809
6944.41564,-0.04019
6946.34411,-0.14847
6948.27258,-0.11616
6950.20105,-0.01681
6952.12952,0.01654
6954.05799,0.00415
6955.98645,-0.02353
6957.91492,-0.03161
6959.84339,0.02010
6961.77186,0.07199
6963.70033,0.04809
6965.62880,-0.00141
6967.55727,-0.00971
6969.48573,0.03083
6971.41420,0.08281
6973.34267,0.09610
6975.27114,0.04840
6977.19961,0.00278
6979.12808,0.03596
6981.05655,0.13934
6982.98501,0.28051
6984.91348,0.33721
6986.84195,0.21083
6988.77042,0.08289
6990.69889,0.10889
6992.62736,0.13088
6994.55583,0.02931
6996.48430,-0.05800
6998.41276,-0.03865
7000.34123,-0.04249
7002.26970,-0.03443
7004.19817,0.05234
7006.12664,0.13149
7008.05511,0.15159
7009.98358,0.14448
7011.91204,0.13403
7013.84051,0.10569
7015.76898,0.08727
7017.69745,0.15158
7019.62592,0.21111
7021.55439,0.17773
7023.48286,0.15980
7025.41133,0.14444
7027.33979,0.00538
7029.26826,-0.17031
7031.19673,-0.14197
7033.12520,-0.01875
7035.05367,-0.10102
7036.98214,-0.25801
7038.91061,-0.26595
7040.83907,-0.19539
7042.76754,-0.07491
7044.69601,0.07359
7046.62448,0.14759
7048.55295,0.13347
7050.48142,0.11864
7052.40989,0.12191
7054.33836,0.07802
7056.26682,-0.03377
7058.19529,-0.08695
7060.12376,-0.01305
7062.05223,0.00940
7063.98070,-0.07427
7065.90917,-0.04840
7067.83764,0.13966
7069.76610,0.26202
7071.69457,0.17103
7073.62304,0.01953
7075.55151,-0.01843
7077.47998,0.09747
7079.40845,0.22175
7081.33692,0.17317
7083.26539,0.09006
7085.19385,0.11571
7087.12232,0.14944
7089.05079,0.14043
7090.97926,0.13817
7092.90773,0.15337
7094.83620,0.18366
7096.76467,0.15733
7098.69313,0.06064
7100.62160,0.05890
7102.55007,0.11847
7104.47854,0.07628
7106.40701,0.01383
7108.33548,0.07845
7110.26395,0.14602
7112.19242,0.12726
7114.12088,0.14911
7116.04935,0.23690
7117.97782,0.18486
7119.90629,0.04540
7121.83476,-0.00611
7123.76323,-0.10457
7125.69170,-0.18991
7127.62016,-0.05067
7129.54863,0.14148
7131.47710,0.16413
7133.40557,0.08537
7135.33404,-0.03529
7137.26251,-0.19548
7139.19098,-0.23511
7141.11944,-0.07082
7143.04791,0.02611
7144.97638,-0.03351
7146.90485,-0.06610
7148.83332,-0.06445
7150.76179,-0.00390
7152.69026,0.15290
7154.61873,0.32252
7156.54719,0.38311
7158.47566,0.31499
7160.40413,0.21938
7162.33260,0.14653
7164.26107,0.08867
7166.18954,0.08408
7168.11801,0.12788
7170.04647,0.15047
7171.97494,0.12257
7173.90341,0.07699
7175.83188,0.11228
7177.76035,0.29418
7179.68882,0.47801
7181.61729,0.50944
7183.54576,0.29649
7185.47422,0.00022
7187.40269,-0.14997
7189.33116,-0.17344
7191.25963,-0.07534
7193.18810,0.10051
7195.11657,0.18206
7197.04504,0.16833
7198.97350,0.18017
7200.90197,0.22613
7202.83044,0.24718
7204.75891,0.20549
7206.68738,0.11449
7208.61585,0.05159
7210.54432,0.07292
7212.47279,0.11890
7214.40125,0.11208
7216.32972,0.12003
7218.25819,0.19215
7220.18666,0.24900
7222.11513,0.28494
7224.04360,0.29871
7225.97207,0.23089
7227.90053,0.12322
7229.82900,0.07626
7231.75747,0.03477
7233.68594,-0.06182
7235.61441,-0.15510
7237.54288,-0.09543
7239.47135,0.12214
7241.39982,0.25791
7243.32828,0.18260
7245.25675,0.03855
7247.18522,0.03470
7249.11369,0.09060
7251.04216,0.00004
7252.97063,-0.16343
7254.89910,-0.17809
7256.82756,-0.14517
7258.75603,-0.12686
7260.68450,-0.06624
7262.61297,0.01519
7264.54144,0.03734
7266.46991,0.01588
7268.39838,0.00125
7270.32685,0.06875
7272.25531,0.18760
7274.18378,0.18088
7276.11225,0.16007
7278.04072,0.28314
7279.96919,0.45064
7281.89766,0.38780
7283.82613,0.23187
7285.75459,0.17999
7287.68306,0.16572
7289.61153,0.05929
7291.54000,-0.08442
7293.46847,-0.05654
7295.39694,0.04190
7297.32541,0.06965
7299.25387,0.15556
7301.18234,0.24673
7303.11081,0.22438
7305.03928,0.21390
7306.96775,0.23044
7308.89622,0.16655
7310.82469,0.23483
7312.75316,0.43029
7314.68162,0.46125
7316.61009,0.29929
7318.53856,0.23413
7320.46703,0.32579
7322.39550,0.37223
7324.32397,0.25577
7326.25244,0.12844
7328.18090,0.17456
7330.10937,0.32575
7332.03784,0.27984
7333.96631,0.08136
7335.89478,-0.05331
7337.82325,-0.07476
7339.75172,0.09834
7341.68019,0.27344
7343.60865,0.10309
7345.53712,-0.20120
7347.46559,-0.26524
7349.39406,-0.07307
7351.32253,0.05389
7353.25100,-0.01020
7355.17947,-0.11956
7357.10793,-0.12245
7359.03640,-0.06481
7360.96487,-0.04824
7362.89334,-0.00332
7364.82181,0.03564
7366.75028,0.04220
7368.67875,0.05650
7370.60722,0.08956
7372.53568,0.18271
7374.46415,0.32472
7376.39262,0.33351
7378.32109,0.27854
7380.24956,0.28878
7382.17803,0.20321
7384.10650,0.02361
7386.03496,-0.04442
7387.96343,-0.07189
7389.89190,-0.16224
7391.82037,-0.21681
7393.74884,-0.08911
7395.67731,0.16941
7397.60578,0.16916
7399.53425,-0.07561
7401.46271,-0.13699
7403.39118,0.01066
7405.31965,0.09274
7407.24812,0.13131
7409.17659,0.16143
7411.10506,0.15303
7413.03353,0.15295
7414.96199,0.15658
7416.89046,0.16975
7418.81893,0.19018
7420.74740,0.16187
7422.67587,0.04492
7424.60434,-0.04088
7426.53281,0.05951
7428.46128,0.30023
7430.38974,0.41642
7432.31821,0.28244
7434.24668,0.18801
7436.17515,0.21391
7438.10362,0.20787
7440.03209,0.15145
7441.96056,0.01198
7443.88902,-0.15531
7445.81749,-0.15259
7447.74596,0.00380
7449.67443,0.18575
7451.60290,0.19348
7453.53137,0.03880
7455.45984,-0.01203
7457.38831,-0.00120
7459.31677,-0.04037
7461.24524,-0.08899
7463.17371,-0.05031
7465.10218,0.12393
7467.03065,0.27773
7468.95912,0.24052
7470.88759,0.11941
7472.81605,0.07163
7474.74452,0.03015
7476.67299,-0.06937
7478.60146,-0.17225
7480.52993,-0.16136
7482.45840,0.05417
7484.38687,0.19216
7486.31533,0.11791
7488.24380,0.00978
7490.17227,0.02081
7492.10074,0.14694
7494.02921,0.22921
7495.95768,0.21471
7497.88615,0.15625
