399.19301,0.76150
401.12148,0.51117
403.04995,0.17749
404.97842,0.15597
406.90689,0.13085
408.83536,0.12874
410.76382,0.18081
412.69229,0.22107
414.62076,0.22901
416.54923,0.24587
418.47770,0.28011
420.40617,0.26291
422.33464,0.19529
424.26311,0.13394
426.19157,0.07783
428.12004,0.04487
430.04851,0.04268
431.97698,0.03262
433.90545,0.03100
435.83392,0.06096
437.76239,0.06006
439.69085,-0.03276
441.61932,-0.10805
443.54779,-0.02939
445.47626,-0.00001
447.40473,-0.07191
449.33320,-0.03243
451.26167,0.09830
453.19013,0.11670
455.11860,-0.00458
457.04707,-0.05432
458.97554,0.04066
460.90401,0.08058
462.83248,0.01671
464.76095,-0.05544
466.68942,-0.04792
468.61788,0.02227
470.54635,0.11505
472.47482,0.27112
474.40329,0.35062
476.33176,0.21187
478.26023,0.12686
480.18870,0.10405
482.11716,0.07773
484.04563,0.07182
485.97410,0.09607
487.90257,0.13142
489.83104,0.14851
491.75951,0.13618
493.68798,0.13253
495.61645,0.13938
497.54491,0.12035
499.47338,0.09124
501.40185,0.10639
503.33032,0.14106
505.25879,0.13817
507.18726,0.13247
509.11573,0.14016
511.04419,0.13209
512.97266,0.10161
514.90113,0.05833
516.82960,0.05807
518.75807,0.09358
520.68654,0.07270
522.61501,0.02597
524.54348,0.03125
526.47194,0.08312
528.40041,0.12973
530.32888,0.14355
532.25735,0.13254
534.18582,0.12036
536.11429,0.12119
538.04276,0.14462
539.97122,0.18306
541.89969,0.19586
543.82816,0.15606
545.75663,0.11993
547.68510,0.13081
549.61357,0.12377
551.54204,0.04836
553.47051,-0.01505
555.39897,0.01759
557.32744,0.08263
559.25591,0.08371
561.18438,0.05993
563.11285,0.07470
565.04132,0.10461
566.96979,0.11033
568.89825,0.11238
570.82672,0.12961
572.75519,0.13466
574.68366,0.12669
576.61213,0.12712
578.54060,0.11836
580.46907,0.09138
582.39754,0.06641
584.32600,0.05688
586.25447,0.07625
588.18294,0.11563
590.11141,0.14304
592.03988,0.14405
593.96835,0.12321
595.89682,0.09309
597.82528,0.07974
599.75375,0.10496
601.68222,0.13703
603.61069,0.14104
605.53916,0.13692
607.46763,0.13301
609.39610,0.11141
611.32456,0.09304
613.25303,0.10799
615.18150,0.13681
617.10997,0.15460
619.03844,0.15371
620.96691,0.13712
622.89538,0.12712
624.82385,0.13422
626.75231,0.13865
628.68078,0.12739
630.60925,0.12126
632.53772,0.12773
634.46619,0.12520
636.39466,0.11725
638.32313,0.12154
640.25159,0.12770
642.18006,0.13226
644.10853,0.13890
646.03700,0.13550
647.96547,0.12853
649.89394,0.13007
651.82241,0.13189
653.75088,0.12015
655.67934,0.10820
657.60781,0.11553
659.53628,0.12656
661.46475,0.12842
663.39322,0.12276
665.32169,0.10757
667.25016,0.08542
669.17862,0.07649
671.10709,0.08877
673.03556,0.11229
674.96403,0.13688
676.89250,0.14365
678.82097,0.14177
680.74944,0.14406
682.67791,0.13604
684.60637,0.12065
686.53484,0.12279
688.46331,0.14077
690.39178,0.15911
692.32025,0.16200
694.24872,0.14597
696.17719,0.12736
698.10565,0.12356
700.03412,0.13511
701.96259,0.14424
703.89106,0.14006
705.81953,0.12980
707.74800,0.08564
709.67647,-0.11169
711.60494,-0.32196
713.53340,-0.20848
715.46187,0.04886
717.39034,0.13047
719.31881,0.12476
721.24728,0.13702
723.17575,0.14560
725.10422,0.13381
727.03268,0.12516
728.96115,0.13940
730.88962,0.15766
732.81809,0.16486
734.74656,0.15794
736.67503,0.14151
738.60350,0.12365
740.53197,0.11335
742.46043,0.10978
744.38890,0.11314
746.31737,0.12487
748.24584,0.13886
750.17431,0.15287
752.10278,0.15289
754.03125,0.13781
755.95971,0.12990
757.88818,0.12919
759.81665,0.12912
761.74512,0.13620
763.67359,0.14089
765.60206,0.13336
767.53053,0.12563
769.45900,0.12673
771.38746,0.12767
773.31593,0.12166
775.24440,0.12103
777.17287,0.13336
779.10134,0.14634
781.02981,0.14895
782.95828,0.14207
784.88674,0.13380
786.81521,0.12930
788.74368,0.12315
790.67215,0.12054
792.60062,0.13019
794.52909,0.14040
796.45756,0.15143
798.38602,0.16470
800.31449,0.15793
802.24296,0.13742
804.17143,0.12948
806.09990,0.12781
808.02837,0.12343
809.95684,0.12826
811.88531,0.14070
813.81377,0.14133
815.74224,0.13128
817.67071,0.12620
819.59918,0.12491
821.52765,0.12541
823.45612,0.13037
825.38459,0.13349
827.31305,0.13183
829.24152,0.12900
831.16999,0.12386
833.09846,0.11999
835.02693,0.12745
836.95540,0.13772
838.88387,0.13589
840.81234,0.13407
842.74080,0.14415
844.66927,0.15175
846.59774,0.15036
848.52621,0.14740
850.45468,0.14405
852.38315,0.14480
854.31162,0.14988
856.24008,0.15381
858.16855,0.15784
860.09702,0.15906
862.02549,0.15568
863.95396,0.15906
865.88243,0.17541
867.81090,0.19784
869.73937,0.20690
871.66783,0.18810
873.59630,0.16474
875.52477,0.15609
877.45324,0.15176
879.38171,0.14969
881.31018,0.14930
883.23865,0.14677
885.16711,0.14718
887.09558,0.14953
889.02405,0.14837
890.95252,0.14674
892.88099,0.15209
894.80946,0.16267
896.73793,0.16354
898.66640,0.15282
900.59486,0.14796
902.52333,0.15215
904.45180,0.15320
906.38027,0.14915
908.30874,0.14233
910.23721,0.13565
912.16568,0.13710
914.09414,0.14293
916.02261,0.14423
917.95108,0.14453
919.87955,0.14684
921.80802,0.14848
923.73649,0.15128
925.66496,0.15419
927.59343,0.15327
929.52189,0.15356
931.45036,0.15114
933.37883,0.14032
935.30730,0.13597
937.23577,0.14209
939.16424,0.14448
941.09271,0.13789
943.02117,0.12895
944.94964,0.12961
946.87811,0.13941
948.80658,0.14574
950.73505,0.14964
952.66352,0.15588
954.59199,0.15861
956.52045,0.15394
958.44892,0.14593
960.37739,0.14101
962.30586,0.13856
964.23433,0.13583
966.16280,0.13872
968.09127,0.14879
970.01974,0.15443
971.94820,0.14944
973.87667,0.14231
975.80514,0.14295
977.73361,0.14987
979.66208,0.15132
981.59055,0.14462
983.51902,0.13894
985.44748,0.13860
987.37595,0.14329
989.30442,0.15016
991.23289,0.15311
993.16136,0.15126
995.08983,0.15041
997.01830,0.15161
998.94677,0.15011
1000.87523,0.14678
1002.80370,0.14495
1004.73217,0.14265
1006.66064,0.14246
1008.58911,0.14873
1010.51758,0.15643
1012.44605,0.16146
1014.37451,0.16358
1016.30298,0.16297
1018.23145,0.16472
1020.15992,0.16831
1022.08839,0.16393
1024.01686,0.15248
1025.94533,0.14716
1027.87380,0.15293
1029.80226,0.16030
1031.73073,0.15933
1033.65920,0.15591
1035.58767,0.15974
1037.51614,0.16431
1039.44461,0.16104
1041.37308,0.15723
1043.30154,0.15802
1045.23001,0.15725
1047.15848,0.15723
1049.08695,0.16333
1051.01542,0.16367
1052.94389,0.15461
1054.87236,0.15715
1056.80083,0.17104
1058.72929,0.17462
1060.65776,0.16930
1062.58623,0.16619
1064.51470,0.16611
1066.44317,0.16670
1068.37164,0.16818
1070.30011,0.17057
1072.22857,0.16724
1074.15704,0.15918
1076.08551,0.15638
1078.01398,0.15749
1079.94245,0.15489
1081.87092,0.15339
1083.79939,0.16121
1085.72786,0.16886
1087.65632,0.16553
1089.58479,0.15748
1091.51326,0.14960
1093.44173,0.14485
1095.37020,0.14847
1097.29867,0.15333
1099.22714,0.15210
1101.15560,0.15223
1103.08407,0.15858
1105.01254,0.16360
1106.94101,0.16380
1108.86948,0.16746
1110.79795,0.17847
1112.72642,0.18972
1114.65489,0.18880
1116.58335,0.17407
1118.51182,0.16191
1120.44029,0.16063
1122.36876,0.16478
1124.29723,0.16706
1126.22570,0.16106
1128.15417,0.15361
1130.08263,0.15599
1132.01110,0.16099
1133.93957,0.15957
1135.86804,0.15653
1137.79651,0.15295
1139.72498,0.14872
1141.65345,0.15162
1143.58191,0.15853
1145.51038,0.16028
1147.43885,0.16112
1149.36732,0.16428
1151.29579,0.16671
1153.22426,0.17156
1155.15273,0.17742
1157.08120,0.17626
1159.00966,0.16974
1160.93813,0.16461
1162.86660,0.16064
1164.79507,0.15634
1166.72354,0.15542
1168.65201,0.16229
1170.58048,0.17277
1172.50894,0.17521
1174.43741,0.16889
1176.36588,0.16348
1178.29435,0.16107
1180.22282,0.16068
1182.15129,0.16223
1184.07976,0.16404
1186.00823,0.16850
1187.93669,0.17446
1189.86516,0.17538
1191.79363,0.17166
1193.72210,0.16774
1195.65057,0.16640
1197.57904,0.16636
1199.50751,0.16484
1201.43597,0.16265
1203.36444,0.16068
1205.29291,0.16001
1207.22138,0.16094
1209.14985,0.16346
1211.07832,0.16583
1213.00679,0.16439
1214.93526,0.16230
1216.86372,0.16175
1218.79219,0.16183
1220.72066,0.16447
1222.64913,0.16741
1224.57760,0.16842
1226.50607,0.16727
1228.43454,0.16398
1230.36300,0.16398
1232.29147,0.16781
1234.21994,0.17016
1236.14841,0.17043
1238.07688,0.16917
1240.00535,0.16756
1241.93382,0.16617
1243.86229,0.16322
1245.79075,0.16034
1247.71922,0.16109
1249.64769,0.16560
1251.57616,0.16976
1253.50463,0.17172
1255.43310,0.17362
1257.36157,0.17415
1259.29003,0.17065
1261.21850,0.16520
1263.14697,0.16258
1265.07544,0.16526
1267.00391,0.16851
1268.93238,0.16650
1270.86085,0.16204
1272.78932,0.15961
1274.71778,0.15933
1276.64625,0.16195
1278.57472,0.16773
1280.50319,0.17002
1282.43166,0.16629
1284.36013,0.16414
1286.28860,0.16383
1288.21706,0.16271
1290.14553,0.16592
1292.07400,0.17006
1294.00247,0.16668
1295.93094,0.15915
1297.85941,0.15466
1299.78788,0.15154
1301.71634,0.14041
1303.64481,0.12307
1305.57328,0.12185
1307.50175,0.14463
1309.43022,0.16719
1311.35869,0.17456
1313.28716,0.17475
1315.21563,0.17417
1317.14409,0.17491
1319.07256,0.17449
1321.00103,0.17117
1322.92950,0.16955
1324.85797,0.16648
1326.78644,0.16157
1328.71491,0.16303
1330.64337,0.16495
1332.57184,0.16277
1334.50031,0.16452
1336.42878,0.16746
1338.35725,0.16532
1340.28572,0.15159
1342.21419,0.13805
1344.14266,0.14388
1346.07112,0.15264
1347.99959,0.15719
1349.92806,0.16520
1351.85653,0.16615
1353.78500,0.16144
1355.71347,0.15840
1357.64194,0.15932
1359.57040,0.16684
1361.49887,0.17610
1363.42734,0.17931
1365.35581,0.17824
1367.28428,0.18081
1369.21275,0.18407
1371.14122,0.18229
1373.06969,0.17924
1374.99815,0.17944
1376.92662,0.18046
1378.85509,0.18099
1380.78356,0.18240
1382.71203,0.18384
1384.64050,0.18602
1386.56897,0.18760
1388.49743,0.18400
1390.42590,0.17970
1392.35437,0.18098
1394.28284,0.18573
1396.21131,0.18878
1398.13978,0.18807
1400.06825,0.18325
1401.99672,0.17993
1403.92518,0.18266
1405.85365,0.18775
1407.78212,0.18951
1409.71059,0.18781
1411.63906,0.18387
1413.56753,0.18149
1415.49600,0.18497
1417.42446,0.19219
1419.35293,0.19446
1421.28140,0.19157
1423.20987,0.18885
1425.13834,0.18383
1427.06681,0.18129
1428.99528,0.18350
1430.92375,0.18313
1432.85221,0.18050
1434.78068,0.18208
1436.70915,0.18823
1438.63762,0.19121
1440.56609,0.19097
1442.49456,0.18888
1444.42303,0.18497
1446.35149,0.18507
1448.27996,0.19120
1450.20843,0.19783
1452.13690,0.20308
1454.06537,0.20981
1455.99384,0.21794
1457.92231,0.21288
1459.85077,0.19582
1461.77924,0.18725
1463.70771,0.18777
1465.63618,0.18970
1467.56465,0.19005
1469.49312,0.19355
1471.42159,0.20105
1473.35006,0.20861
1475.27852,0.20764
1477.20699,0.20007
1479.13546,0.19474
1481.06393,0.19381
1482.99240,0.19229
1484.92087,0.19196
1486.84934,0.19964
1488.77780,0.21184
1490.70627,0.20911
1492.63474,0.19656
1494.56321,0.19331
1496.49168,0.19774
1498.42015,0.20320
1500.34862,0.22266
1502.27709,0.24999
1504.20555,0.26365
1506.13402,0.25128
1508.06249,0.22182
1509.99096,0.20613
1511.91943,0.19858
1513.84790,0.19946
1515.77637,0.20966
1517.70483,0.21685
1519.63330,0.21556
1521.56177,0.21752
1523.49024,0.21652
1525.41871,0.20864
1527.34718,0.20131
1529.27565,0.19915
1531.20412,0.20101
1533.13258,0.20037
1535.06105,0.19528
1536.98952,0.19827
1538.91799,0.21910
1540.84646,0.24262
1542.77493,0.23187
1544.70340,0.21236
1546.63186,0.20134
1548.56033,0.19899
1550.48880,0.19730
1552.41727,0.19439
1554.34574,0.19901
1556.27421,0.21439
1558.20268,0.23106
1560.13115,0.21684
1562.05961,0.19851
1563.98808,0.19196
1565.91655,0.18863
1567.84502,0.18702
1569.77349,0.18696
1571.70196,0.18508
1573.63043,0.18682
1575.55889,0.19347
1577.48736,0.19244
1579.41583,0.18415
1581.34430,0.17940
1583.27277,0.18027
1585.20124,0.18329
1587.12971,0.18373
1589.05818,0.18204
1590.98664,0.18161
1592.91511,0.18310
1594.84358,0.18397
1596.77205,0.18182
1598.70052,0.18066
1600.62899,0.18388
1602.55746,0.18639
1604.48592,0.18465
1606.41439,0.18309
1608.34286,0.18437
1610.27133,0.18616
1612.19980,0.18697
1614.12827,0.18865
1616.05674,0.19448
1617.98521,0.19644
1619.91367,0.19136
1621.84214,0.19126
1623.77061,0.19751
1625.69908,0.20037
1627.62755,0.19688
1629.55602,0.19118
1631.48449,0.18808
1633.41295,0.18940
1635.34142,0.19636
1637.26989,0.20134
1639.19836,0.20030
1641.12683,0.20006
1643.05530,0.20455
1644.98377,0.21802
1646.91223,0.23237
1648.84070,0.22655
1650.76917,0.22138
1652.69764,0.22934
1654.62611,0.21999
1656.55458,0.20268
1658.48305,0.20120
1660.41152,0.21258
1662.33998,0.21889
1664.26845,0.20908
1666.19692,0.20261
1668.12539,0.20908
1670.05386,0.21680
1671.98233,0.21382
1673.91080,0.21067
1675.83926,0.20815
1677.76773,0.20498
1679.69620,0.20658
1681.62467,0.21527
1683.55314,0.22608
1685.48161,0.22143
1687.41008,0.21247
1689.33855,0.20905
1691.26701,0.20698
1693.19548,0.20695
1695.12395,0.21314
1697.05242,0.22695
1698.98089,0.23809
1700.90936,0.23119
1702.83783,0.21796
1704.76629,0.21240
1706.69476,0.20542
1708.62323,0.19532
1710.55170,0.19128
1712.48017,0.19610
1714.40864,0.20611
1716.33711,0.21430
1718.26558,0.20963
1720.19404,0.19844
1722.12251,0.19212
1724.05098,0.18848
1725.97945,0.18700
1727.90792,0.19146
1729.83639,0.19905
1731.76486,0.20735
1733.69332,0.21294
1735.62179,0.20508
1737.55026,0.19888
1739.47873,0.20013
1741.40720,0.20227
1743.33567,0.20344
1745.26414,0.20457
1747.19261,0.20539
1749.12107,0.20265
1751.04954,0.19447
1752.97801,0.19015
1754.90648,0.19343
1756.83495,0.19793
1758.76342,0.19831
1760.69189,0.19719
1762.62035,0.19540
1764.54882,0.19421
1766.47729,0.19798
1768.40576,0.20512
1770.33423,0.21057
1772.26270,0.21120
1774.19117,0.20602
1776.11964,0.20053
1778.04810,0.19723
1779.97657,0.19484
1781.90504,0.19295
1783.83351,0.19367
1785.76198,0.19602
1787.69045,0.19761
1789.61892,0.19981
1791.54738,0.20183
1793.47585,0.20099
1795.40432,0.19854
1797.33279,0.19600
1799.26126,0.19536
1801.18973,0.19569
1803.11820,0.19408
1805.04666,0.19294
1806.97513,0.19272
1808.90360,0.19049
1810.83207,0.18744
1812.76054,0.18660
1814.68901,0.18885
1816.61748,0.19296
1818.54595,0.19596
1820.47441,0.19701
1822.40288,0.19643
1824.33135,0.19580
1826.25982,0.19775
1828.18829,0.19999
1830.11676,0.19841
1832.04523,0.19500
1833.97369,0.19386
1835.90216,0.19443
1837.83063,0.19529
1839.75910,0.19624
1841.68757,0.19890
1843.61604,0.20216
1845.54451,0.20112
1847.47298,0.19674
1849.40144,0.19151
1851.32991,0.18744
1853.25838,0.18638
1855.18685,0.18813
1857.11532,0.19182
1859.04379,0.19546
1860.97226,0.19656
1862.90072,0.19434
1864.82919,0.19452
1866.75766,0.20193
1868.68613,0.20701
1870.61460,0.19971
1872.54307,0.19067
1874.47154,0.18739
1876.40001,0.18772
1878.32847,0.18909
1880.25694,0.19084
1882.18541,0.19255
1884.11388,0.19309
1886.04235,0.19222
1887.97082,0.19320
1889.89929,0.19668
1891.82775,0.19807
1893.75622,0.19695
1895.68469,0.19409
1897.61316,0.19014
1899.54163,0.18914
1901.47010,0.19188
1903.39857,0.19470
1905.32704,0.19533
1907.25550,0.19528
1909.18397,0.19513
1911.11244,0.19112
1913.04091,0.18614
1914.96938,0.18795
1916.89785,0.19259
1918.82632,0.19095
1920.75478,0.18781
1922.68325,0.18778
1924.61172,0.18695
1926.54019,0.18677
1928.46866,0.19010
1930.39713,0.19349
1932.32560,0.19320
1934.25407,0.19061
1936.18253,0.18812
1938.11100,0.18702
1940.03947,0.18851
1941.96794,0.19142
1943.89641,0.19309
1945.82488,0.19158
1947.75335,0.18804
1949.68181,0.18621
1951.61028,0.18632
1953.53875,0.18723
1955.46722,0.18936
1957.39569,0.19081
1959.32416,0.19053
1961.25263,0.18928
1963.18110,0.18777
1965.10956,0.18823
1967.03803,0.18994
1968.96650,0.18996
1970.89497,0.18971
1972.82344,0.19148
1974.75191,0.19173
1976.68038,0.18718
1978.60884,0.18407
1980.53731,0.18668
1982.46578,0.18908
1984.39425,0.18770
1986.32272,0.18624
1988.25119,0.18809
1990.17966,0.19178
1992.10812,0.19328
1994.03659,0.19153
1995.96506,0.18957
1997.89353,0.18985
1999.82200,0.19154
2001.75047,0.19238
2003.67894,0.19179
2005.60741,0.19050
2007.53587,0.18919
2009.46434,0.18821
2011.39281,0.18792
2013.32128,0.18893
2015.24975,0.19017
2017.17822,0.18975
2019.10669,0.18888
2021.03515,0.18925
2022.96362,0.18920
2024.89209,0.18865
2026.82056,0.18843
2028.74903,0.18815
2030.67750,0.18949
2032.60597,0.19026
2034.53444,0.18676
2036.46290,0.18432
2038.39137,0.18678
2040.31984,0.18925
2042.24831,0.18984
2044.17678,0.19063
2046.10525,0.19147
2048.03372,0.19279
2049.96218,0.19433
2051.89065,0.19415
2053.81912,0.19321
2055.74759,0.19225
2057.67606,0.19004
2059.60453,0.18849
2061.53300,0.18953
2063.46147,0.19148
2065.38993,0.19322
2067.31840,0.19461
2069.24687,0.19509
2071.17534,0.19572
2073.10381,0.19779
2075.03228,0.19810
2076.96075,0.19443
2078.88921,0.19111
2080.81768,0.19109
2082.74615,0.19275
2084.67462,0.19386
2086.60309,0.19380
2088.53156,0.19319
2090.46003,0.19215
2092.38850,0.19031
2094.31696,0.18818
2096.24543,0.18721
2098.17390,0.18745
2100.10237,0.18784
2102.03084,0.18916
2103.95931,0.19176
2105.88778,0.19290
2107.81624,0.19111
2109.74471,0.18932
2111.67318,0.18936
2113.60165,0.19083
2115.53012,0.19299
2117.45859,0.19234
2119.38706,0.18919
2121.31553,0.18920
2123.24399,0.19173
2125.17246,0.19298
2127.10093,0.19277
2129.02940,0.19272
2130.95787,0.19548
2132.88634,0.19846
2134.81481,0.19677
2136.74327,0.19303
2138.67174,0.19133
2140.60021,0.19172
2142.52868,0.19313
2144.45715,0.19320
2146.38562,0.19090
2148.31409,0.18946
2150.24255,0.19054
2152.17102,0.19158
2154.09949,0.19128
2156.02796,0.19056
2157.95643,0.19076
2159.88490,0.19388
2161.81337,0.19871
2163.74184,0.19994
2165.67030,0.19695
2167.59877,0.19453
2169.52724,0.19459
2171.45571,0.19448
2173.38418,0.19250
2175.31265,0.19099
2177.24112,0.19133
2179.16958,0.19150
2181.09805,0.19046
2183.02652,0.19024
2184.95499,0.19146
2186.88346,0.19140
2188.81193,0.18932
2190.74040,0.18809
2192.66887,0.19066
2194.59733,0.19521
2196.52580,0.19579
2198.45427,0.19249
2200.38274,0.19099
2202.31121,0.19189
2204.23968,0.19258
2206.16815,0.19344
2208.09661,0.19452
2210.02508,0.19486
2211.95355,0.19480
2213.88202,0.19408
2215.81049,0.19291
2217.73896,0.19240
2219.66743,0.19237
2221.59590,0.19180
2223.52436,0.19043
2225.45283,0.19006
2227.38130,0.19174
2229.30977,0.19369
2231.23824,0.19376
2233.16671,0.19146
2235.09518,0.19017
2237.02364,0.19331
2238.95211,0.19756
2240.88058,0.19823
2242.80905,0.19774
2244.73752,0.19833
2246.66599,0.19662
2248.59446,0.19305
2250.52293,0.19265
2252.45139,0.19542
2254.37986,0.19642
2256.30833,0.19412
2258.23680,0.19174
2260.16527,0.19116
2262.09374,0.19105
2264.02221,0.19069
2265.95067,0.19255
2267.87914,0.19643
2269.80761,0.19743
2271.73608,0.19401
2273.66455,0.19004
2275.59302,0.18923
2277.52149,0.19027
2279.44996,0.19118
2281.37842,0.19362
2283.30689,0.19639
2285.23536,0.19639
2287.16383,0.19526
2289.09230,0.19381
2291.02077,0.19256
2292.94924,0.19550
2294.87770,0.19628
2296.80617,0.18862
2298.73464,0.18390
2300.66311,0.18671
2302.59158,0.18837
2304.52005,0.18801
2306.44852,0.18823
2308.37699,0.18796
2310.30545,0.18741
2312.23392,0.18672
2314.16239,0.18504
2316.09086,0.18237
2318.01933,0.17922
2319.94780,0.17636
2321.87627,0.17396
2323.80473,0.17409
2325.73320,0.17677
2327.66167,0.17833
2329.59014,0.17644
2331.51861,0.16916
2333.44708,0.16467
2335.37555,0.17353
2337.30401,0.18624
2339.23248,0.18776
2341.16095,0.18297
2343.08942,0.18023
2345.01789,0.17769
2346.94636,0.17726
2348.87483,0.17992
2350.80330,0.18368
2352.73176,0.18389
2354.66023,0.17557
2356.58870,0.17023
2358.51717,0.17814
2360.44564,0.18054
2362.37411,0.16930
2364.30258,0.16699
2366.23104,0.17649
2368.15951,0.17918
2370.08798,0.18206
2372.01645,0.18834
2373.94492,0.18680
2375.87339,0.18325
2377.80186,0.18394
2379.73033,0.18704
2381.65879,0.19019
2383.58726,0.19006
2385.51573,0.18920
2387.44420,0.19194
2389.37267,0.19566
2391.30114,0.19684
2393.22961,0.19601
2395.15807,0.19518
2397.08654,0.19599
2399.01501,0.19657
2400.94348,0.19418
2402.87195,0.19180
2404.80042,0.19161
2406.72889,0.19230
2408.65736,0.19367
2410.58582,0.19532
2412.51429,0.19628
2414.44276,0.19607
2416.37123,0.19603
2418.29970,0.19633
2420.22817,0.19515
2422.15664,0.19306
2424.08510,0.19103
2426.01357,0.19018
2427.94204,0.19173
2429.87051,0.19203
2431.79898,0.18856
2433.72745,0.18659
2435.65592,0.18862
2437.58439,0.19058
2439.51285,0.19011
2441.44132,0.18881
2443.36979,0.19035
2445.29826,0.19470
2447.22673,0.19701
2449.15520,0.19455
2451.08367,0.19063
2453.01213,0.18965
2454.94060,0.19045
2456.86907,0.19016
2458.79754,0.18966
2460.72601,0.18945
2462.65448,0.18913
2464.58295,0.19019
2466.51142,0.19195
2468.43988,0.19279
2470.36835,0.19354
2472.29682,0.19341
2474.22529,0.19140
2476.15376,0.19034
2478.08223,0.19208
2480.01070,0.19322
2481.93916,0.19195
2483.86763,0.19246
2485.79610,0.19474
2487.72457,0.19399
2489.65304,0.19183
2491.58151,0.19114
2493.50998,0.19029
2495.43844,0.18904
2497.36691,0.18953
2499.29538,0.19172
2501.22385,0.19379
2503.15232,0.19583
2505.08079,0.19599
2507.00926,0.19248
2508.93773,0.18992
2510.86619,0.19156
2512.79466,0.19423
2514.72313,0.19599
2516.65160,0.19776
2518.58007,0.19850
2520.50854,0.19780
2522.43701,0.19658
2524.36547,0.19482
2526.29394,0.19295
2528.22241,0.19296
2530.15088,0.19616
2532.07935,0.19913
2534.00782,0.19995
2535.93629,0.20088
2537.86476,0.20025
2539.79322,0.19652
2541.72169,0.19395
2543.65016,0.19451
2545.57863,0.19521
2547.50710,0.19479
2549.43557,0.19372
2551.36404,0.19342
2553.29250,0.19534
2555.22097,0.19674
2557.14944,0.19481
2559.07791,0.19192
2561.00638,0.19333
2562.93485,0.19847
2564.86332,0.19963
2566.79179,0.19669
2568.72025,0.19607
2570.64872,0.19652
2572.57719,0.19575
2574.50566,0.19645
2576.43413,0.19980
2578.36260,0.20339
2580.29107,0.20416
2582.21953,0.20207
2584.14800,0.19926
2586.07647,0.19696
2588.00494,0.19636
2589.93341,0.19793
2591.86188,0.19887
2593.79035,0.19808
2595.71882,0.19756
2597.64728,0.19685
2599.57575,0.19613
2601.50422,0.19639
2603.43269,0.19554
2605.36116,0.19319
2607.28963,0.19273
2609.21810,0.19544
2611.14656,0.19836
2613.07503,0.19823
2615.00350,0.19623
2616.93197,0.19631
2618.86044,0.19945
2620.78891,0.20257
2622.71738,0.20108
2624.64585,0.19644
2626.57431,0.19530
2628.50278,0.19769
2630.43125,0.20024
2632.35972,0.20153
2634.28819,0.19925
2636.21666,0.19538
2638.14513,0.19508
2640.07359,0.19795
2642.00206,0.20046
2643.93053,0.20033
2645.85900,0.19827
2647.78747,0.19789
2649.71594,0.19825
2651.64441,0.19578
2653.57288,0.19187
2655.50134,0.19055
2657.42981,0.19271
2659.35828,0.19566
2661.28675,0.19747
2663.21522,0.19759
2665.14369,0.19753
2667.07216,0.19889
2669.00062,0.19942
2670.92909,0.19813
2672.85756,0.19736
2674.78603,0.19796
2676.71450,0.19799
2678.64297,0.19626
2680.57144,0.19528
2682.49990,0.19630
2684.42837,0.19703
2686.35684,0.19865
2688.28531,0.20252
2690.21378,0.20367
2692.14225,0.20074
2694.07072,0.19896
2695.99919,0.20004
2697.92765,0.20137
2699.85612,0.20029
2701.78459,0.19827
2703.71306,0.19885
2705.64153,0.20052
2707.57000,0.20147
2709.49847,0.20221
2711.42693,0.20195
2713.35540,0.20094
2715.28387,0.20122
2717.21234,0.20336
2719.14081,0.20592
2721.06928,0.20722
2722.99775,0.20540
2724.92622,0.20112
2726.85468,0.19836
2728.78315,0.19925
2730.71162,0.20214
2732.64009,0.20318
2734.56856,0.20122
2736.49703,0.19949
2738.42550,0.20098
2740.35396,0.20561
2742.28243,0.21015
2744.21090,0.21143
2746.13937,0.20905
2748.06784,0.20595
2749.99631,0.20553
2751.92478,0.20580
2753.85325,0.20412
2755.78171,0.20387
2757.71018,0.20638
2759.63865,0.20861
2761.56712,0.20894
2763.49559,0.20710
2765.42406,0.20498
2767.35253,0.20368
2769.28099,0.20209
2771.20946,0.20218
2773.13793,0.20418
2775.06640,0.20443
2776.99487,0.20292
2778.92334,0.20277
2780.85181,0.20465
2782.78028,0.20519
2784.70874,0.20299
2786.63721,0.20202
2788.56568,0.20252
2790.49415,0.20158
2792.42262,0.20187
2794.35109,0.20457
2796.27956,0.20698
2798.20802,0.20816
2800.13649,0.20796
2802.06496,0.20837
2803.99343,0.20944
2805.92190,0.20828
2807.85037,0.20671
2809.77884,0.20715
2811.70731,0.20677
2813.63577,0.20556
2815.56424,0.20584
2817.49271,0.20530
2819.42118,0.20396
2821.34965,0.20463
2823.27812,0.20699
2825.20659,0.20968
2827.13505,0.21178
2829.06352,0.21305
2830.99199,0.21185
2832.92046,0.20855
2834.84893,0.20714
2836.77740,0.20883
2838.70587,0.21227
2840.63433,0.21375
2842.56280,0.21106
2844.49127,0.20779
2846.41974,0.20692
2848.34821,0.20744
2850.27668,0.20671
2852.20515,0.20440
2854.13362,0.20360
2856.06208,0.20598
2857.99055,0.20836
2859.91902,0.20745
2861.84749,0.20559
2863.77596,0.20604
2865.70443,0.20811
2867.63290,0.21073
2869.56136,0.21324
2871.48983,0.21248
2873.41830,0.20778
2875.34677,0.20583
2877.27524,0.20997
2879.20371,0.21463
2881.13218,0.21435
2883.06065,0.20881
2884.98911,0.20330
2886.91758,0.20321
2888.84605,0.20548
2890.77452,0.20534
2892.70299,0.20420
2894.63146,0.20302
2896.55993,0.20199
2898.48839,0.20419
2900.41686,0.20765
2902.34533,0.20535
2904.27380,0.20001
2906.20227,0.20153
2908.13074,0.20780
2910.05921,0.20884
2911.98768,0.20648
2913.91614,0.20648
2915.84461,0.20552
2917.77308,0.20302
2919.70155,0.20298
2921.63002,0.20241
2923.55849,0.19402
2925.48696,0.18126
2927.41542,0.17947
2929.34389,0.18873
2931.27236,0.19577
2933.20083,0.19899
2935.12930,0.19850
2937.05777,0.19471
2938.98624,0.19726
2940.91471,0.20432
2942.84317,0.20602
2944.77164,0.20252
2946.70011,0.19710
2948.62858,0.19724
2950.55705,0.20354
2952.48552,0.20644
2954.41399,0.20349
2956.34245,0.19290
2958.27092,0.18394
2960.19939,0.19044
2962.12786,0.20194
2964.05633,0.20615
2965.98480,0.20227
2967.91327,0.19400
2969.84174,0.19451
2971.77020,0.20552
2973.69867,0.21183
2975.62714,0.20596
2977.55561,0.19651
2979.48408,0.19839
2981.41255,0.20990
2983.34102,0.21687
2985.26948,0.21699
2987.19795,0.21154
2989.12642,0.20581
2991.05489,0.20821
2992.98336,0.21322
2994.91183,0.21377
2996.84030,0.21129
2998.76877,0.21020
3000.69723,0.21108
3002.62570,0.21058
3004.55417,0.20967
3006.48264,0.20626
3008.41111,0.19614
3010.33958,0.18091
3012.26805,0.15844
3014.19651,0.12538
3016.12498,0.10017
3018.05345,0.11667
3019.98192,0.16830
3021.91039,0.20762
3023.83886,0.21751
3025.76733,0.21548
3027.69579,0.21387
3029.62426,0.21525
3031.55273,0.21676
3033.48120,0.21617
3035.40967,0.21372
3037.33814,0.20951
3039.26661,0.20650
3041.19508,0.20635
3043.12354,0.20920
3045.05201,0.21053
3046.98048,0.20485
3048.90895,0.20111
3050.83742,0.20685
3052.76589,0.21118
3054.69436,0.20504
3056.62282,0.19608
3058.55129,0.19651
3060.47976,0.20616
3062.40823,0.21536
3064.33670,0.21473
3066.26517,0.20538
3068.19364,0.20328
3070.12211,0.21166
3072.05057,0.21503
3073.97904,0.20379
3075.90751,0.18708
3077.83598,0.18669
3079.76445,0.20494
3081.69292,0.21871
3083.62139,0.21091
3085.54985,0.19771
3087.47832,0.20168
3089.40679,0.21068
3091.33526,0.20867
3093.26373,0.19830
3095.19220,0.19318
3097.12067,0.20111
3099.04914,0.20919
3100.97760,0.20640
3102.90607,0.19447
3104.83454,0.18984
3106.76301,0.20027
3108.69148,0.20869
3110.61995,0.20537
3112.54842,0.19786
3114.47688,0.19683
3116.40535,0.20295
3118.33382,0.20733
3120.26229,0.20442
3122.19076,0.20023
3124.11923,0.20469
3126.04770,0.21295
3127.97617,0.21285
3129.90463,0.20516
3131.83310,0.20335
3133.76157,0.21137
3135.69004,0.21675
3137.61851,0.21326
3139.54698,0.20972
3141.47545,0.21227
3143.40391,0.21573
3145.33238,0.21763
3147.26085,0.21771
3149.18932,0.21710
3151.11779,0.22230
3153.04626,0.22859
3154.97473,0.22466
3156.90320,0.21498
3158.83166,0.20991
3160.76013,0.21035
3162.68860,0.21443
3164.61707,0.21779
3166.54554,0.21783
3168.47401,0.22134
3170.40248,0.22832
3172.33094,0.23127
3174.25941,0.23007
3176.18788,0.22914
3178.11635,0.22936
3180.04482,0.22669
3181.97329,0.22013
3183.90176,0.21362
3185.83022,0.20982
3187.75869,0.20874
3189.68716,0.20922
3191.61563,0.21281
3193.54410,0.21918
3195.47257,0.22227
3197.40104,0.22021
3199.32951,0.21706
3201.25797,0.21607
3203.18644,0.21853
3205.11491,0.21961
3207.04338,0.21288
3208.97185,0.20426
3210.90032,0.20317
3212.82879,0.20894
3214.75725,0.21648
3216.68572,0.22266
3218.61419,0.22687
3220.54266,0.22670
3222.47113,0.22229
3224.39960,0.21944
3226.32807,0.21980
3228.25654,0.22051
3230.18500,0.22090
3232.11347,0.22406
3234.04194,0.22858
3235.97041,0.22938
3237.89888,0.22873
3239.82735,0.22822
3241.75582,0.22498
3243.68428,0.22038
3245.61275,0.21815
3247.54122,0.21812
3249.46969,0.21914
3251.39816,0.22111
3253.32663,0.22244
3255.25510,0.22367
3257.18357,0.22504
3259.11203,0.22344
3261.04050,0.21936
3262.96897,0.21685
3264.89744,0.21562
3266.82591,0.21368
3268.75438,0.21318
3270.68285,0.21421
3272.61131,0.21546
3274.53978,0.21596
3276.46825,0.21295
3278.39672,0.21014
3280.32519,0.21099
3282.25366,0.21079
3284.18213,0.20915
3286.11060,0.21114
3288.03906,0.21640
3289.96753,0.21785
3291.89600,0.21361
3293.82447,0.21024
3295.75294,0.21057
3297.68141,0.21355
3299.60988,0.21763
3301.53834,0.21953
3303.46681,0.21825
3305.39528,0.21534
3307.32375,0.21353
3309.25222,0.21398
3311.18069,0.21475
3313.10916,0.21427
3315.03763,0.21294
3316.96609,0.21316
3318.89456,0.21646
3320.82303,0.21999
3322.75150,0.21968
3324.67997,0.21652
3326.60844,0.21463
3328.53691,0.21308
3330.46537,0.20799
3332.39384,0.20310
3334.32231,0.20354
3336.25078,0.20412
3338.17925,0.20267
3340.10772,0.20642
3342.03619,0.21436
3343.96466,0.21754
3345.89312,0.21548
3347.82159,0.21430
3349.75006,0.21496
3351.67853,0.21695
3353.60700,0.22196
3355.53547,0.22624
3357.46394,0.22379
3359.39240,0.21806
3361.32087,0.21725
3363.24934,0.22057
3365.17781,0.21958
3367.10628,0.21509
3369.03475,0.21556
3370.96322,0.21878
3372.89168,0.21963
3374.82015,0.22154
3376.74862,0.22434
3378.67709,0.22510
3380.60556,0.22524
3382.53403,0.22300
3384.46250,0.21747
3386.39097,0.21477
3388.31943,0.21670
3390.24790,0.21801
3392.17637,0.21696
3394.10484,0.21418
3396.03331,0.20939
3397.96178,0.20658
3399.89025,0.20923
3401.81871,0.21538
3403.74718,0.22027
3405.67565,0.21886
3407.60412,0.21354
3409.53259,0.21047
3411.46106,0.20962
3413.38953,0.21104
3415.31800,0.21613
3417.24646,0.22011
3419.17493,0.21961
3421.10340,0.21603
3423.03187,0.20873
3424.96034,0.20119
3426.88881,0.20018
3428.81728,0.20625
3430.74574,0.21109
3432.67421,0.20798
3434.60268,0.20396
3436.53115,0.20541
3438.45962,0.20823
3440.38809,0.21129
3442.31656,0.21563
3444.24503,0.21658
3446.17349,0.21286
3448.10196,0.20784
3450.03043,0.20304
3451.95890,0.20092
3453.88737,0.20320
3455.81584,0.20838
3457.74431,0.21118
3459.67277,0.20693
3461.60124,0.19854
3463.52971,0.19291
3465.45818,0.19366
3467.38665,0.19854
3469.31512,0.20394
3471.24359,0.20509
3473.17206,0.19936
3475.10052,0.19312
3477.02899,0.19165
3478.95746,0.19387
3480.88593,0.19539
3482.81440,0.19186
3484.74287,0.18818
3486.67134,0.18835
3488.59980,0.18818
3490.52827,0.18825
3492.45674,0.19114
3494.38521,0.19221
3496.31368,0.18846
3498.24215,0.18494
3500.17062,0.18802
3502.09909,0.19523
3504.02755,0.19633
3505.95602,0.19172
3507.88449,0.18868
3509.81296,0.18640
3511.74143,0.18289
3513.66990,0.17899
3515.59837,0.17689
3517.52683,0.17817
3519.45530,0.18022
3521.38377,0.17928
3523.31224,0.17555
3525.24071,0.17353
3527.16918,0.17421
3529.09765,0.17500
3531.02611,0.17580
3532.95458,0.17533
3534.88305,0.17259
3536.81152,0.16997
3538.73999,0.16784
3540.66846,0.16469
3542.59693,0.16155
3544.52540,0.16163
3546.45386,0.16643
3548.38233,0.17193
3550.31080,0.17548
3552.23927,0.17530
3554.16774,0.17058
3556.09621,0.16693
3558.02468,0.16574
3559.95314,0.16575
3561.88161,0.16959
3563.81008,0.17736
3565.73855,0.18433
3567.66702,0.18087
3569.59549,0.16936
3571.52396,0.16191
3573.45243,0.15817
3575.38089,0.15659
3577.30936,0.15847
3579.23783,0.15808
3581.16630,0.15302
3583.09477,0.15322
3585.02324,0.16391
3586.95171,0.17468
3588.88017,0.16927
3590.80864,0.16037
3592.73711,0.16007
3594.66558,0.16032
3596.59405,0.15641
3598.52252,0.15383
3600.45099,0.15299
3602.37946,0.15181
3604.30792,0.15181
3606.23639,0.15434
3608.16486,0.15741
3610.09333,0.16068
3612.02180,0.16695
3613.95027,0.17116
3615.87874,0.16814
3617.80720,0.16217
3619.73567,0.15630
3621.66414,0.15141
3623.59261,0.14897
3625.52108,0.15265
3627.44955,0.16576
3629.37802,0.17363
3631.30649,0.16217
3633.23495,0.14933
3635.16342,0.14228
3637.09189,0.14241
3639.02036,0.14386
3640.94883,0.14332
3642.87730,0.14492
3644.80577,0.14708
3646.73423,0.14966
3648.66270,0.15661
3650.59117,0.15644
3652.51964,0.14847
3654.44811,0.14396
3656.37658,0.14412
3658.30505,0.14462
3660.23352,0.14296
3662.16198,0.14086
3664.09045,0.13782
3666.01892,0.13451
3667.94739,0.13773
3669.87586,0.15008
3671.80433,0.15817
3673.73280,0.16164
3675.66126,0.15942
3677.58973,0.14516
3679.51820,0.13466
3681.44667,0.13199
3683.37514,0.13346
3685.30361,0.13803
3687.23208,0.14583
3689.16055,0.14888
3691.08901,0.14144
3693.01748,0.13407
3694.94595,0.13036
3696.87442,0.12983
3698.80289,0.13044
3700.73136,0.13098
3702.65983,0.13021
3704.58829,0.12880
3706.51676,0.13350
3708.44523,0.14462
3710.37370,0.15111
3712.30217,0.14336
3714.23064,0.13592
3716.15911,0.13469
3718.08757,0.13209
3720.01604,0.12956
3721.94451,0.13498
3723.87298,0.14208
3725.80145,0.13781
3727.72992,0.12877
3729.65839,0.12801
3731.58686,0.13471
3733.51532,0.14352
3735.44379,0.14795
3737.37226,0.14516
3739.30073,0.14219
3741.22920,0.14144
3743.15767,0.14038
3745.08614,0.13344
3747.01460,0.12730
3748.94307,0.13345
3750.87154,0.14494
3752.80001,0.14471
3754.72848,0.14060
3756.65695,0.13730
3758.58542,0.13037
3760.51389,0.12175
3762.44235,0.12121
3764.37082,0.12890
3766.29929,0.13624
3768.22776,0.13555
3770.15623,0.12977
3772.08470,0.12827
3774.01317,0.13166
3775.94163,0.13725
3777.87010,0.14255
3779.79857,0.14101
3781.72704,0.13541
3783.65551,0.13321
3785.58398,0.13168
3787.51245,0.12656
3789.44092,0.12097
3791.36938,0.11955
3793.29785,0.12381
3795.22632,0.13481
3797.15479,0.14665
3799.08326,0.15086
3801.01173,0.14633
3802.94020,0.13195
3804.86866,0.12056
3806.79713,0.11915
3808.72560,0.12372
3810.65407,0.12613
3812.58254,0.12837
3814.51101,0.13384
3816.43948,0.13673
3818.36795,0.13676
3820.29641,0.14045
3822.22488,0.13908
3824.15335,0.13443
3826.08182,0.13376
3828.01029,0.13190
3829.93876,0.12749
3831.86723,0.12727
3833.79569,0.13209
3835.72416,0.13544
3837.65263,0.13650
3839.58110,0.13442
3841.50957,0.12920
3843.43804,0.12999
3845.36651,0.13570
3847.29498,0.13634
3849.22344,0.13297
3851.15191,0.13163
3853.08038,0.13589
3855.00885,0.14161
3856.93732,0.13785
3858.86579,0.12925
3860.79426,0.12507
3862.72272,0.12697
3864.65119,0.12477
3866.57966,0.11720
3868.50813,0.11229
3870.43660,0.11454
3872.36507,0.12201
3874.29354,0.12799
3876.22200,0.13023
3878.15047,0.13079
3880.07894,0.13184
3882.00741,0.13011
3883.93588,0.12402
3885.86435,0.11844
3887.79282,0.11620
3889.72129,0.11433
3891.64975,0.11417
3893.57822,0.11831
3895.50669,0.12367
3897.43516,0.12814
3899.36363,0.13050
3901.29210,0.13385
3903.22057,0.13774
3905.14903,0.13250
3907.07750,0.12314
3909.00597,0.11994
3910.93444,0.12330
3912.86291,0.12921
3914.79138,0.13181
3916.71985,0.12542
3918.64832,0.11525
3920.57678,0.11349
3922.50525,0.11665
3924.43372,0.11592
3926.36219,0.11392
3928.29066,0.11654
3930.21913,0.11997
3932.14760,0.11731
3934.07606,0.11292
3936.00453,0.11274
3937.93300,0.11296
3939.86147,0.11195
3941.78994,0.11152
3943.71841,0.11116
3945.64688,0.11203
3947.57535,0.11567
3949.50381,0.11720
3951.43228,0.11428
3953.36075,0.11237
3955.28922,0.11422
3957.21769,0.11825
3959.14616,0.11750
3961.07463,0.11042
3963.00309,0.10643
3964.93156,0.10675
3966.86003,0.10794
3968.78850,0.11202
3970.71697,0.11365
3972.64544,0.10902
3974.57391,0.10615
3976.50238,0.10639
3978.43084,0.10511
3980.35931,0.10433
3982.28778,0.10420
3984.21625,0.10423
3986.14472,0.10674
3988.07319,0.10832
3990.00166,0.10793
3991.93012,0.11034
3993.85859,0.11346
3995.78706,0.11327
3997.71553,0.11034
3999.64400,0.10522
4001.57247,0.09986
4003.50094,0.09971
4005.42941,0.10529
4007.35787,0.10740
4009.28634,0.10242
4011.21481,0.09877
4013.14328,0.09989
4015.07175,0.10156
4017.00022,0.10398
4018.92869,0.11013
4020.85715,0.11575
4022.78562,0.11442
4024.71409,0.11060
4026.64256,0.11074
4028.57103,0.11013
4030.49950,0.10557
4032.42797,0.10249
4034.35644,0.10260
4036.28490,0.10121
4038.21337,0.09524
4040.14184,0.08752
4042.07031,0.08356
4043.99878,0.08658
4045.92725,0.09434
4047.85572,0.10042
4049.78418,0.10048
4051.71265,0.09741
4053.64112,0.09630
4055.56959,0.09574
4057.49806,0.09625
4059.42653,0.10119
4061.35500,0.10418
4063.28346,0.10018
4065.21193,0.09532
4067.14040,0.09570
4069.06887,0.09938
4070.99734,0.10008
4072.92581,0.09549
4074.85428,0.08830
4076.78275,0.08374
4078.71121,0.08430
4080.63968,0.08622
4082.56815,0.08602
4084.49662,0.08395
4086.42509,0.08364
4088.35356,0.08841
4090.28203,0.09249
4092.21049,0.09204
4094.13896,0.09314
4096.06743,0.09589
4097.99590,0.09758
4099.92437,0.09913
4101.85284,0.09801
4103.78131,0.09521
4105.70978,0.09405
4107.63824,0.09131
4109.56671,0.08546
4111.49518,0.08119
4113.42365,0.08242
4115.35212,0.08855
4117.28059,0.09358
4119.20906,0.09356
4121.13752,0.09097
4123.06599,0.08603
4124.99446,0.08303
4126.92293,0.08649
4128.85140,0.08591
4130.77987,0.07872
4132.70834,0.07814
4134.63681,0.08479
4136.56527,0.08719
4138.49374,0.08356
4140.42221,0.08266
4142.35068,0.08513
4144.27915,0.08368
4146.20762,0.07987
4148.13609,0.07888
4150.06455,0.08195
4151.99302,0.08686
4153.92149,0.09026
4155.84996,0.09366
4157.77843,0.09678
4159.70690,0.09490
4161.63537,0.08652
4163.56384,0.07887
4165.49230,0.08002
4167.42077,0.08336
4169.34924,0.08208
4171.27771,0.08101
4173.20618,0.07970
4175.13465,0.07525
4177.06312,0.07377
4178.99158,0.07811
4180.92005,0.08208
4182.84852,0.08297
4184.77699,0.08367
4186.70546,0.08365
4188.63393,0.07919
4190.56240,0.07367
4192.49087,0.07431
4194.41933,0.07835
4196.34780,0.07934
4198.27627,0.07797
4200.20474,0.07611
4202.13321,0.07652
4204.06168,0.08048
4205.99015,0.08129
4207.91861,0.08145
4209.84708,0.08442
4211.77555,0.07938
4213.70402,0.06805
4215.63249,0.06368
4217.56096,0.06783
4219.48943,0.07166
4221.41789,0.07295
4223.34636,0.07623
4225.27483,0.07682
4227.20330,0.07137
4229.13177,0.06544
4231.06024,0.06557
4232.98871,0.07353
4234.91718,0.08141
4236.84564,0.08217
4238.77411,0.07730
4240.70258,0.07248
4242.63105,0.06998
4244.55952,0.06832
4246.48799,0.06762
4248.41646,0.06625
4250.34492,0.06254
4252.27339,0.05924
4254.20186,0.05682
4256.13033,0.05490
4258.05880,0.05790
4259.98727,0.06493
4261.91574,0.06951
4263.84421,0.07067
4265.77267,0.06784
4267.70114,0.06136
4269.62961,0.05786
4271.55808,0.06025
4273.48655,0.06355
4275.41502,0.06576
4277.34349,0.07172
4279.27195,0.08136
4281.20042,0.08536
4283.12889,0.07723
4285.05736,0.06448
4286.98583,0.05834
4288.91430,0.05685
4290.84277,0.05660
4292.77124,0.06110
4294.69970,0.06669
4296.62817,0.06597
4298.55664,0.05991
4300.48511,0.05462
4302.41358,0.05254
4304.34205,0.05425
4306.27052,0.05944
4308.19898,0.06239
4310.12745,0.05958
4312.05592,0.05431
4313.98439,0.05067
4315.91286,0.04777
4317.84133,0.04391
4319.76980,0.04582
4321.69827,0.05569
4323.62673,0.05955
4325.55520,0.04929
4327.48367,0.03757
4329.41214,0.03820
4331.34061,0.04935
4333.26908,0.05845
4335.19755,0.05806
4337.12601,0.05312
4339.05448,0.05084
4340.98295,0.05226
4342.91142,0.05333
4344.83989,0.05040
4346.76836,0.04630
4348.69683,0.04795
4350.62530,0.05218
4352.55376,0.04959
4354.48223,0.04378
4356.41070,0.04424
4358.33917,0.04920
4360.26764,0.04971
4362.19611,0.04897
4364.12458,0.05463
4366.05304,0.05816
4367.98151,0.05396
4369.90998,0.04616
4371.83845,0.03905
4373.76692,0.04021
4375.69539,0.04848
4377.62386,0.05637
4379.55232,0.06254
4381.48079,0.06326
4383.40926,0.05831
4385.33773,0.05563
4387.26620,0.05457
4389.19467,0.04856
4391.12314,0.03933
4393.05161,0.03619
4394.98007,0.04046
4396.90854,0.04106
4398.83701,0.03814
4400.76548,0.04241
4402.69395,0.04973
4404.62242,0.04707
4406.55089,0.03603
4408.47935,0.02886
4410.40782,0.02979
4412.33629,0.03411
4414.26476,0.03738
4416.19323,0.03818
4418.12170,0.03457
4420.05017,0.02811
4421.97864,0.02431
4423.90710,0.02486
4425.83557,0.03003
4427.76404,0.03554
4429.69251,0.03585
4431.62098,0.03356
4433.54945,0.03195
4435.47792,0.03239
4437.40638,0.03585
4439.33485,0.03766
4441.26332,0.03388
4443.19179,0.03028
4445.12026,0.03093
4447.04873,0.03032
4448.97720,0.02642
4450.90567,0.02830
4452.83413,0.03667
4454.76260,0.03576
4456.69107,0.02472
4458.61954,0.01941
4460.54801,0.02108
4462.47648,0.01863
4464.40495,0.01417
4466.33341,0.01564
4468.26188,0.02062
4470.19035,0.02474
4472.11882,0.02509
4474.04729,0.02192
4475.97576,0.01775
4477.90423,0.01388
4479.83270,0.01523
4481.76116,0.01705
4483.68963,0.01114
4485.61810,0.00826
4487.54657,0.01629
4489.47504,0.02487
4491.40351,0.02528
4493.33198,0.02247
4495.26044,0.02478
4497.18891,0.02763
4499.11738,0.02565
4501.04585,0.02449
4502.97432,0.02555
4504.90279,0.02852
4506.83126,0.03576
4508.75973,0.04036
4510.68819,0.03443
4512.61666,0.02415
4514.54513,0.01901
4516.47360,0.01655
4518.40207,0.01558
4520.33054,0.02016
4522.25901,0.02488
4524.18747,0.02236
4526.11594,0.01160
4528.04441,0.00247
4529.97288,0.00485
4531.90135,0.00954
4533.82982,0.00932
4535.75829,0.01095
4537.68676,0.02076
4539.61522,0.03235
4541.54369,0.02964
4543.47216,0.01530
4545.40063,0.00690
4547.32910,0.00880
4549.25757,0.01666
4551.18604,0.02693
4553.11450,0.03051
4555.04297,0.02335
4556.97144,0.01676
4558.89991,0.01540
4560.82838,0.01148
4562.75685,0.00760
4564.68532,0.01312
4566.61378,0.02396
4568.54225,0.02877
4570.47072,0.02397
4572.39919,0.01612
4574.32766,0.01229
4576.25613,0.01199
4578.18460,0.01638
4580.11307,0.02329
4582.04153,0.02231
4583.97000,0.01375
4585.89847,0.00914
4587.82694,0.01085
4589.75541,0.01173
4591.68388,0.01224
4593.61235,0.01471
4595.54081,0.01406
4597.46928,0.00877
4599.39775,0.00491
4601.32622,0.00446
4603.25469,0.00181
4605.18316,0.00149
4607.11163,0.01135
4609.04010,0.01906
4610.96856,0.01325
4612.89703,0.00456
4614.82550,0.00535
4616.75397,0.01306
4618.68244,0.01776
4620.61091,0.01778
4622.53938,0.01827
4624.46784,0.01437
4626.39631,0.00546
4628.32478,0.00458
4630.25325,0.01038
4632.18172,0.00871
4634.11019,0.00349
4636.03866,0.01219
4637.96713,0.03001
4639.89559,0.03364
4641.82406,0.01847
4643.75253,0.00616
4645.68100,0.00879
4647.60947,0.01335
4649.53794,0.01443
4651.46641,0.01804
4653.39487,0.01702
4655.32334,0.00950
4657.25181,0.00273
4659.18028,-0.00649
4661.10875,-0.01283
4663.03722,-0.00837
4664.96569,-0.00058
4666.89416,0.00267
4668.82262,-0.00388
4670.75109,-0.01542
4672.67956,-0.01711
4674.60803,-0.00676
4676.53650,0.00254
4678.46497,0.00355
4680.39344,0.00417
4682.32190,0.00876
4684.25037,0.01143
4686.17884,0.00976
4688.10731,0.00927
4690.03578,0.00950
4691.96425,0.00609
4693.89272,0.00442
4695.82119,0.00553
4697.74965,0.00363
4699.67812,0.00338
4701.60659,0.01098
4703.53506,0.02026
4705.46353,0.02432
4707.39200,0.02384
4709.32047,0.02525
4711.24893,0.02739
4713.17740,0.02056
4715.10587,0.00820
4717.03434,-0.00010
4718.96281,0.00327
4720.89128,0.01585
4722.81975,0.01982
4724.74821,0.01778
4726.67668,0.02130
4728.60515,0.01809
4730.53362,0.01015
4732.46209,0.01542
4734.39056,0.02755
4736.31903,0.03281
4738.24750,0.03162
4740.17596,0.02882
4742.10443,0.02491
4744.03290,0.01921
4745.96137,0.01536
4747.88984,0.01578
4749.81831,0.02143
4751.74678,0.02366
4753.67524,0.01026
4755.60371,-0.00420
4757.53218,-0.00281
4759.46065,0.00149
4761.38912,-0.00019
4763.31759,0.00125
4765.24606,0.00645
4767.17453,0.00942
4769.10299,0.00919
4771.03146,0.01144
4772.95993,0.02036
4774.88840,0.02996
4776.81687,0.03376
4778.74534,0.03184
4780.67381,0.02386
4782.60227,0.01085
4784.53074,0.00463
4786.45921,0.01049
4788.38768,0.01630
4790.31615,0.01360
4792.24462,0.00880
4794.17309,0.01003
4796.10156,0.01277
4798.03002,0.00634
4799.95849,-0.00827
4801.88696,-0.01662
4803.81543,-0.01435
4805.74390,-0.00929
4807.67237,-0.00298
4809.60084,0.00033
4811.52930,0.00406
4813.45777,0.01425
4815.38624,0.01720
4817.31471,0.01006
4819.24318,0.00489
4821.17165,0.00607
4823.10012,0.01599
4825.02859,0.02792
4826.95705,0.02809
4828.88552,0.02024
4830.81399,0.01598
4832.74246,0.01495
4834.67093,0.01258
4836.59940,0.00828
4838.52787,0.00609
4840.45633,0.01175
4842.38480,0.01876
4844.31327,0.01322
4846.24174,0.00413
4848.17021,0.00709
4850.09868,0.00886
4852.02715,0.00368
4853.95562,0.00890
4855.88408,0.02135
4857.81255,0.01755
4859.74102,-0.00172
4861.66949,-0.00572
4863.59796,0.01141
4865.52643,0.02503
4867.45490,0.02823
4869.38336,0.02661
4871.31183,0.02135
4873.24030,0.01237
4875.16877,0.00067
4877.09724,-0.00523
4879.02571,-0.00406
4880.95418,-0.00583
4882.88265,-0.00595
4884.81111,0.00691
4886.73958,0.01990
4888.66805,0.01668
4890.59652,0.00416
4892.52499,-0.00419
4894.45346,-0.00173
4896.38193,0.00758
4898.31039,0.01311
4900.23886,0.00659
4902.16733,-0.00764
4904.09580,-0.01067
4906.02427,-0.00188
4907.95274,0.00705
4909.88121,0.01829
4911.80967,0.02264
4913.73814,0.01201
4915.66661,-0.00156
4917.59508,-0.00729
4919.52355,-0.00521
4921.45202,-0.00360
4923.38049,-0.00923
4925.30896,-0.01357
4927.23742,-0.00282
4929.16589,0.01786
4931.09436,0.02988
4933.02283,0.02207
4934.95130,0.00553
4936.87977,0.00162
4938.80824,0.00683
4940.73670,0.00402
4942.66517,-0.00345
4944.59364,-0.00546
4946.52211,0.00033
4948.45058,0.01259
4950.37905,0.02087
4952.30752,0.01245
4954.23599,-0.00235
4956.16445,-0.00258
4958.09292,0.00566
4960.02139,0.01094
4961.94986,0.01773
4963.87833,0.02516
4965.80680,0.02770
4967.73527,0.03008
4969.66373,0.03657
4971.59220,0.03139
4973.52067,0.01232
4975.44914,0.00781
4977.37761,0.02081
4979.30608,0.01635
4981.23455,-0.01510
4983.16302,-0.02737
4985.09148,0.00104
4987.01995,0.02516
4988.94842,0.01757
4990.87689,-0.00032
4992.80536,-0.00715
4994.73383,-0.00089
4996.66230,0.00975
4998.59076,0.01511
5000.51923,0.01456
5002.44770,0.01230
5004.37617,0.00811
5006.30464,0.00485
5008.23311,0.00906
5010.16158,0.01893
5012.09005,0.02372
5014.01851,0.01673
5015.94698,0.01078
5017.87545,0.01337
5019.80392,0.01046
5021.73239,0.00332
5023.66086,0.00457
5025.58933,0.01278
5027.51779,0.02304
5029.44626,0.03599
5031.37473,0.04559
5033.30320,0.03903
5035.23167,0.02480
5037.16014,0.01458
5039.08861,0.00781
5041.01708,0.01491
5042.94554,0.03070
5044.87401,0.03622
5046.80248,0.03121
5048.73095,0.02037
5050.65942,0.01452
5052.58789,0.02159
5054.51636,0.02991
5056.44482,0.03583
5058.37329,0.04312
5060.30176,0.04840
5062.23023,0.04788
5064.15870,0.03511
5066.08717,0.01165
5068.01564,0.00034
5069.94410,0.01441
5071.87257,0.02862
5073.80104,0.02538
5075.72951,0.03027
5077.65798,0.05282
5079.58645,0.06656
5081.51492,0.05930
5083.44339,0.04170
5085.37185,0.02774
5087.30032,0.02585
5089.22879,0.03125
5091.15726,0.03001
5093.08573,0.01674
5095.01420,0.00367
5096.94267,0.01260
5098.87113,0.03954
5100.79960,0.04633
5102.72807,0.02876
5104.65654,0.01949
5106.58501,0.02665
5108.51348,0.03519
5110.44195,0.03486
5112.37042,0.02986
5114.29888,0.02804
5116.22735,0.02852
5118.15582,0.02698
5120.08429,0.02710
5122.01276,0.03032
5123.94123,0.02852
5125.86970,0.02109
5127.79816,0.01425
5129.72663,0.01599
5131.65510,0.02446
5133.58357,0.02916
5135.51204,0.02704
5137.44051,0.02273
5139.36898,0.02592
5141.29745,0.02838
5143.22591,0.02189
5145.15438,0.02599
5147.08285,0.04405
5149.01132,0.05265
5150.93979,0.04740
5152.86826,0.04509
5154.79673,0.04164
5156.72519,0.02915
5158.65366,0.02812
5160.58213,0.03893
5162.51060,0.04099
5164.43907,0.03432
5166.36754,0.02869
5168.29601,0.03186
5170.22448,0.03611
5172.15294,0.02635
5174.08141,0.01588
5176.00988,0.02088
5177.93835,0.03659
5179.86682,0.04411
5181.79529,0.02521
5183.72376,-0.01005
5185.65222,-0.02997
5187.58069,-0.02393
5189.50916,-0.00982
5191.43763,0.00910
5193.36610,0.03278
5195.29457,0.04679
5197.22304,0.05435
5199.15151,0.06446
5201.07997,0.06248
5203.00844,0.04972
5204.93691,0.04455
5206.86538,0.03887
5208.79385,0.03212
5210.72232,0.03864
5212.65079,0.04944
5214.57925,0.05538
5216.50772,0.05427
5218.43619,0.05636
5220.36466,0.06688
5222.29313,0.06476
5224.22160,0.04376
5226.15007,0.02285
5228.07854,0.01649
5230.00700,0.02482
5231.93547,0.04623
5233.86394,0.05836
5235.79241,0.03555
5237.72088,0.00346
5239.64935,0.00056
5241.57782,0.02002
5243.50628,0.04265
5245.43475,0.06101
5247.36322,0.06246
5249.29169,0.04457
5251.22016,0.03034
5253.14863,0.03345
5255.07710,0.05016
5257.00556,0.06707
5258.93403,0.06811
5260.86250,0.04983
5262.79097,0.03120
5264.71944,0.03875
5266.64791,0.05133
5268.57638,0.04397
5270.50485,0.04092
5272.43331,0.04891
5274.36178,0.05024
5276.29025,0.05287
5278.21872,0.05789
5280.14719,0.04182
5282.07566,0.00895
5284.00413,-0.00156
5285.93259,0.02623
5287.86106,0.05278
5289.78953,0.04692
5291.71800,0.03906
5293.64647,0.05416
5295.57494,0.06341
5297.50341,0.05116
5299.43188,0.04044
5301.36034,0.04711
5303.28881,0.05409
5305.21728,0.04946
5307.14575,0.04958
5309.07422,0.06230
5311.00269,0.06992
5312.93116,0.06073
5314.85962,0.03842
5316.78809,0.02481
5318.71656,0.03596
5320.64503,0.05145
5322.57350,0.05461
5324.50197,0.05520
5326.43044,0.05380
5328.35891,0.03882
5330.28737,0.02125
5332.21584,0.01718
5334.14431,0.02280
5336.07278,0.02848
5338.00125,0.02782
5339.92972,0.02643
5341.85819,0.03530
5343.78665,0.04554
5345.71512,0.04344
5347.64359,0.03311
5349.57206,0.03480
5351.50053,0.05072
5353.42900,0.05529
5355.35747,0.05873
5357.28594,0.07610
5359.21440,0.08399
5361.14287,0.08453
5363.07134,0.08901
5364.99981,0.07870
5366.92828,0.06200
5368.85675,0.06895
5370.78522,0.07701
5372.71368,0.06826
5374.64215,0.06776
5376.57062,0.06370
5378.49909,0.03873
5380.42756,0.02692
5382.35603,0.03784
5384.28450,0.04863
5386.21297,0.04854
5388.14143,0.04665
5390.06990,0.05207
5391.99837,0.06503
5393.92684,0.07608
5395.85531,0.08573
5397.78378,0.08821
5399.71225,0.08091
5401.64071,0.07639
5403.56918,0.07652
5405.49765,0.08299
5407.42612,0.07942
5409.35459,0.05524
5411.28306,0.03834
5413.21153,0.04534
5415.13999,0.06796
5417.06846,0.08519
5418.99693,0.08359
5420.92540,0.06557
5422.85387,0.05000
5424.78234,0.06013
5426.71081,0.07111
5428.63928,0.05023
5430.56774,0.03646
5432.49621,0.05608
5434.42468,0.08490
5436.35315,0.09789
5438.28162,0.08732
5440.21009,0.06522
5442.13856,0.04242
5444.06702,0.02057
5445.99549,0.01457
5447.92396,0.03234
5449.85243,0.05196
5451.78090,0.07330
5453.70937,0.10796
5455.63784,0.12415
5457.56631,0.09254
5459.49477,0.06695
5461.42324,0.07821
5463.35171,0.07701
5465.28018,0.05515
5467.20865,0.04263
5469.13712,0.04587
5471.06559,0.06801
5472.99405,0.09114
5474.92252,0.08280
5476.85099,0.05222
5478.77946,0.03311
5480.70793,0.03302
5482.63640,0.04303
5484.56487,0.05390
5486.49334,0.07090
5488.42180,0.08170
5490.35027,0.06705
5492.27874,0.05611
5494.20721,0.06571
5496.13568,0.07284
5498.06415,0.07964
5499.99262,0.08159
5501.92108,0.07271
5503.84955,0.06598
5505.77802,0.05831
5507.70649,0.05190
5509.63496,0.04712
5511.56343,0.04157
5513.49190,0.05490
5515.42037,0.08289
5517.34883,0.09660
5519.27730,0.09066
5521.20577,0.07609
5523.13424,0.05283
5525.06271,0.03277
5526.99118,0.02955
5528.91965,0.02271
5530.84811,0.01965
5532.77658,0.04874
5534.70505,0.07930
5536.63352,0.07740
5538.56199,0.05900
5540.49046,0.05981
5542.41893,0.09535
5544.34740,0.12685
5546.27586,0.11631
5548.20433,0.08456
5550.13280,0.06812
5552.06127,0.07392
5553.98974,0.08957
5555.91821,0.09584
5557.84668,0.07781
5559.77514,0.06510
5561.70361,0.08347
5563.63208,0.09162
5565.56055,0.07280
5567.48902,0.07446
5569.41749,0.09805
5571.34596,0.10009
5573.27443,0.08564
5575.20289,0.08185
5577.13136,0.08233
5579.05983,0.07306
5580.98830,0.05878
5582.91677,0.05645
5584.84524,0.06539
5586.77371,0.06168
5588.70217,0.05140
5590.63064,0.06698
5592.55911,0.08048
5594.48758,0.07128
5596.41605,0.07057
5598.34452,0.06943
5600.27299,0.05906
5602.20145,0.06602
5604.12992,0.09177
5606.05839,0.11049
5607.98686,0.10631
5609.91533,0.09006
5611.84380,0.07246
5613.77227,0.05539
5615.70074,0.05480
5617.62920,0.08543
5619.55767,0.11263
5621.48614,0.09399
5623.41461,0.05332
5625.34308,0.03268
5627.27155,0.05031
5629.20002,0.09513
5631.12848,0.11908
5633.05695,0.10136
5634.98542,0.07836
5636.91389,0.06734
5638.84236,0.04410
5640.77083,0.02829
5642.69930,0.05096
5644.62777,0.06752
5646.55623,0.04838
5648.48470,0.05249
5650.41317,0.09112
5652.34164,0.09815
5654.27011,0.06548
5656.19858,0.04949
5658.12705,0.06335
5660.05551,0.08745
5661.98398,0.11814
5663.91245,0.12102
5665.84092,0.08894
5667.76939,0.07532
5669.69786,0.07581
5671.62633,0.05794
5673.55480,0.04440
5675.48326,0.05588
5677.41173,0.06300
5679.34020,0.04445
5681.26867,0.03988
5683.19714,0.07150
5685.12561,0.10336
5687.05408,0.11194
5688.98254,0.10357
5690.91101,0.08675
5692.83948,0.06390
5694.76795,0.05118
5696.69642,0.05865
5698.62489,0.06879
5700.55336,0.07713
5702.48183,0.08185
5704.41029,0.07616
5706.33876,0.05895
5708.26723,0.04437
5710.19570,0.06296
5712.12417,0.08401
5714.05264,0.05572
5715.98111,0.02274
5717.90957,0.03594
5719.83804,0.06668
5721.76651,0.08112
5723.69498,0.08663
5725.62345,0.09731
5727.55192,0.11277
5729.48039,0.12931
5731.40886,0.13522
5733.33732,0.12022
5735.26579,0.10196
5737.19426,0.08532
5739.12273,0.06494
5741.05120,0.06551
5742.97967,0.07516
5744.90814,0.07471
5746.83660,0.08182
5748.76507,0.09641
5750.69354,0.10529
5752.62201,0.10416
5754.55048,0.08227
5756.47895,0.04203
5758.40742,0.01485
5760.33588,0.01679
5762.26435,0.03181
5764.19282,0.04424
5766.12129,0.05558
5768.04976,0.07378
5769.97823,0.08959
5771.90670,0.07536
5773.83517,0.04537
5775.76363,0.05307
5777.69210,0.09603
5779.62057,0.12379
5781.54904,0.10968
5783.47751,0.07503
5785.40598,0.07603
5787.33445,0.10620
5789.26291,0.11203
5791.19138,0.10946
5793.11985,0.10929
5795.04832,0.07740
5796.97679,0.02262
5798.90526,0.00625
5800.83373,0.05678
5802.76220,0.12675
5804.69066,0.14601
5806.61913,0.11608
5808.54760,0.09089
5810.47607,0.08419
5812.40454,0.08653
5814.33301,0.08215
5816.26148,0.06610
5818.18994,0.08538
5820.11841,0.13297
5822.04688,0.12437
5823.97535,0.07460
5825.90382,0.05199
5827.83229,0.05053
5829.76076,0.04028
5831.68923,0.03854
5833.61769,0.06524
5835.54616,0.07319
5837.47463,0.04214
5839.40310,0.02437
5841.33157,0.04362
5843.26004,0.06714
5845.18851,0.06322
5847.11697,0.04451
5849.04544,0.03843
5850.97391,0.05891
5852.90238,0.09276
5854.83085,0.09528
5856.75932,0.06087
5858.68779,0.04235
5860.61626,0.06370
5862.54472,0.11228
5864.47319,0.15955
5866.40166,0.17232
5868.33013,0.15368
5870.25860,0.11980
5872.18707,0.09300
5874.11554,0.08801
5876.04400,0.07765
5877.97247,0.05288
5879.90094,0.04974
5881.82941,0.07881
5883.75788,0.10159
5885.68635,0.09400
5887.61482,0.07934
5889.54329,0.08417
5891.47175,0.11628
5893.40022,0.14638
5895.32869,0.12833
5897.25716,0.08645
5899.18563,0.07524
5901.11410,0.08541
5903.04257,0.09879
5904.97103,0.10426
5906.89950,0.09533
5908.82797,0.11713
5910.75644,0.18166
5912.68491,0.20914
5914.61338,0.15546
5916.54185,0.08632
5918.47032,0.05888
5920.39878,0.06477
5922.32725,0.08929
5924.25572,0.10612
5926.18419,0.08778
5928.11266,0.05626
5930.04113,0.04187
5931.96960,0.04495
5933.89806,0.06443
5935.82653,0.07596
5937.75500,0.05969
5939.68347,0.04359
5941.61194,0.04788
5943.54041,0.05673
5945.46888,0.04542
5947.39734,0.02665
5949.32581,0.02367
5951.25428,0.03334
5953.18275,0.03437
5955.11122,0.01338
5957.03969,0.00141
5958.96816,0.01364
5960.89663,0.01923
5962.82509,0.01827
5964.75356,0.04410
5966.68203,0.08865
5968.61050,0.10108
5970.53897,0.07837
5972.46744,0.06236
5974.39591,0.06695
5976.32437,0.07100
5978.25284,0.06901
5980.18131,0.07120
5982.10978,0.05368
5984.03825,0.01315
5985.96672,0.00942
5987.89519,0.05324
5989.82366,0.09044
5991.75212,0.10785
5993.68059,0.12477
5995.60906,0.13296
5997.53753,0.09874
5999.46600,0.04739
6001.39447,0.04183
6003.32294,0.07666
6005.25140,0.10509
6007.17987,0.12180
6009.10834,0.13606
6011.03681,0.13226
6012.96528,0.11797
6014.89375,0.11737
6016.82222,0.11780
6018.75069,0.09786
6020.67915,0.07809
6022.60762,0.08524
6024.53609,0.08605
6026.46456,0.06689
6028.39303,0.06597
6030.32150,0.08811
6032.24997,0.12483
6034.17843,0.15170
6036.10690,0.12669
6038.03537,0.06648
6039.96384,0.03221
6041.89231,0.04545
6043.82078,0.05364
6045.74925,0.03319
6047.67772,0.00631
6049.60618,-0.02398
6051.53465,-0.01962
6053.46312,0.04321
6055.39159,0.11803
6057.32006,0.15667
6059.24853,0.15640
6061.17700,0.12658
6063.10546,0.07658
6065.03393,0.02992
6066.96240,-0.00886
6068.89087,-0.03630
6070.81934,-0.04316
6072.74781,-0.03576
6074.67628,0.00215
6076.60475,0.06414
6078.53321,0.09924
6080.46168,0.10736
6082.39015,0.12580
6084.31862,0.13120
6086.24709,0.08799
6088.17556,0.03129
6090.10403,0.00726
6092.03249,0.02222
6093.96096,0.03352
6095.88943,0.01738
6097.81790,0.02884
6099.74637,0.06835
6101.67484,0.07653
6103.60331,0.05817
6105.53177,0.05358
6107.46024,0.07135
6109.38871,0.08847
6111.31718,0.10341
6113.24565,0.13345
6115.17412,0.16363
6117.10259,0.18437
6119.03106,0.19280
6120.95952,0.16710
6122.88799,0.12735
6124.81646,0.11328
6126.74493,0.10446
6128.67340,0.08211
6130.60187,0.08849
6132.53034,0.11599
6134.45880,0.11408
6136.38727,0.07889
6138.31574,0.03479
6140.24421,0.00605
6142.17268,-0.01446
6144.10115,-0.04102
6146.02962,-0.02268
6147.95809,0.05389
6149.88655,0.11587
6151.81502,0.13324
6153.74349,0.14073
6155.67196,0.13777
6157.60043,0.10420
6159.52890,0.03747
6161.45737,-0.01951
6163.38583,-0.00325
6165.31430,0.05479
6167.24277,0.08760
6169.17124,0.10135
6171.09971,0.11410
6173.02818,0.12668
6174.95665,0.13904
6176.88512,0.13770
6178.81358,0.11459
6180.74205,0.09905
6182.67052,0.10227
6184.59899,0.09830
6186.52746,0.06416
6188.45593,0.03431
6190.38440,0.08409
6192.31286,0.12565
6194.24133,0.06537
6196.16980,0.02930
6198.09827,0.06770
6200.02674,0.07024
6201.95521,0.05738
6203.88368,0.07691
6205.81215,0.06650
6207.74061,0.02026
6209.66908,-0.01826
6211.59755,-0.03215
6213.52602,0.00018
6215.45449,0.07530
6217.38296,0.13084
6219.31143,0.10256
6221.23989,0.01556
6223.16836,-0.03975
6225.09683,-0.00964
6227.02530,0.06408
6228.95377,0.11103
6230.88224,0.10236
6232.81071,0.07599
6234.73918,0.07596
6236.66764,0.07024
6238.59611,0.04105
6240.52458,0.03075
6242.45305,0.04682
6244.38152,0.04568
6246.30999,0.02735
6248.23846,0.03054
6250.16692,0.05717
6252.09539,0.07351
6254.02386,0.06155
6255.95233,0.05645
6257.88080,0.08604
6259.80927,0.09641
6261.73774,0.07793
6263.66621,0.09733
6265.59467,0.12054
6267.52314,0.08445
6269.45161,0.05834
6271.38008,0.05946
6273.30855,0.04032
6275.23702,0.02130
6277.16549,0.02401
6279.09395,0.02469
6281.02242,0.01092
6282.95089,-0.01214
6284.87936,-0.01453
6286.80783,0.01651
6288.73630,0.05321
6290.66477,0.05851
6292.59323,0.05226
6294.52170,0.07604
6296.45017,0.10460
6298.37864,0.11467
6300.30711,0.10781
6302.23558,0.09742
6304.16405,0.09894
6306.09252,0.07926
6308.02098,0.07240
6309.94945,0.13010
6311.87792,0.15921
6313.80639,0.12422
6315.73486,0.08658
6317.66333,0.05661
6319.59180,0.06320
6321.52026,0.09434
6323.44873,0.08647
6325.37720,0.08442
6327.30567,0.13679
6329.23414,0.13918
6331.16261,0.04025
6333.09108,-0.01835
6335.01955,0.00207
6336.94801,0.01903
6338.87648,0.02227
6340.80495,0.05072
6342.73342,0.11709
6344.66189,0.16973
6346.59036,0.14515
6348.51883,0.07173
6350.44729,0.03157
6352.37576,0.03243
6354.30423,0.04660
6356.23270,0.08240
6358.16117,0.11363
6360.08964,0.10310
6362.01811,0.09011
6363.94658,0.10901
6365.87504,0.09090
6367.80351,0.02502
6369.73198,0.00764
6371.66045,0.00763
6373.58892,-0.04431
6375.51739,-0.07820
6377.44586,-0.03508
6379.37432,0.02080
6381.30279,0.03774
6383.23126,0.06545
6385.15973,0.12558
6387.08820,0.15914
6389.01667,0.17137
6390.94514,0.18844
6392.87361,0.16120
6394.80207,0.08257
6396.73054,0.06187
6398.65901,0.08975
6400.58748,0.07512
6402.51595,0.03515
6404.44442,0.01742
6406.37289,-0.01318
6408.30135,-0.06617
6410.22982,-0.09440
6412.15829,-0.04638
6414.08676,0.05202
6416.01523,0.09611
6417.94370,0.08135
6419.87217,0.08649
6421.80064,0.08257
6423.72910,0.02091
6425.65757,-0.02856
6427.58604,-0.00437
6429.51451,0.03492
6431.44298,0.03999
6433.37145,0.02081
6435.29992,0.01409
6437.22838,0.04208
6439.15685,0.08001
6441.08532,0.09962
6443.01379,0.09683
6444.94226,0.09083
6446.87073,0.08445
6448.79920,0.08432
6450.72766,0.09832
6452.65613,0.07378
6454.58460,0.03224
6456.51307,0.05215
6458.44154,0.07686
6460.37001,0.04067
6462.29848,-0.00661
6464.22695,-0.01176
6466.15541,0.02013
6468.08388,0.03191
6470.01235,0.00983
6471.94082,0.01398
6473.86929,0.04645
6475.79776,0.07620
6477.72623,0.06313
6479.65469,0.01865
6481.58316,0.04032
6483.51163,0.11302
6485.44010,0.12483
6487.36857,0.08362
6489.29704,0.07217
6491.22551,0.10481
6493.15398,0.12251
6495.08244,0.11114
6497.01091,0.08999
6498.93938,0.04485
6500.86785,0.01079
6502.79632,0.02638
6504.72479,0.01919
6506.65326,-0.01629
6508.58172,-0.00728
6510.51019,0.03127
6512.43866,0.05754
6514.36713,0.08790
6516.29560,0.07225
6518.22407,-0.01034
6520.15254,-0.02129
6522.08101,0.06961
6524.00947,0.12012
6525.93794,0.09451
6527.86641,0.07355
6529.79488,0.06855
6531.72335,0.07161
6533.65182,0.06122
6535.58029,0.01215
6537.50875,-0.04397
6539.43722,-0.05069
6541.36569,-0.03718
6543.29416,-0.07455
6545.22263,-0.09216
6547.15110,-0.01520
6549.07957,0.10758
6551.00804,0.18926
6552.93650,0.19522
6554.86497,0.14939
6556.79344,0.08427
6558.72191,0.05123
6560.65038,0.07758
6562.57885,0.15086
6564.50732,0.25235
6566.43578,0.28792
6568.36425,0.21642
6570.29272,0.14552
6572.22119,0.10331
6574.14966,0.06509
6576.07813,0.04629
6578.00660,0.02751
6579.93507,0.03945
6581.86353,0.11759
6583.79200,0.21551
6585.72047,0.27253
6587.64894,0.20148
6589.57741,0.03771
6591.50588,-0.05635
6593.43435,-0.04210
6595.36281,0.02518
6597.29128,0.06884
6599.21975,0.02899
6601.14822,-0.03897
6603.07669,-0.00838
6605.00516,0.11293
6606.93363,0.18857
6608.86210,0.11727
6610.79056,-0.02038
6612.71903,-0.08051
6614.64750,-0.04659
6616.57597,-0.01890
6618.50444,-0.02535
6620.43291,-0.01414
6622.36138,-0.00459
6624.28984,-0.00908
6626.21831,0.05565
6628.14678,0.17424
6630.07525,0.19723
6632.00372,0.17795
6633.93219,0.20571
6635.86066,0.19042
6637.78912,0.14062
6639.71759,0.10885
6641.64606,0.10146
6643.57453,0.14927
6645.50300,0.18668
6647.43147,0.16266
6649.35994,0.11769
6651.28841,0.06263
6653.21687,0.06404
6655.14534,0.12391
6657.07381,0.10026
6659.00228,0.00825
6660.93075,-0.01702
6662.85922,-0.00471
6664.78769,-0.02619
6666.71615,-0.03513
6668.64462,-0.00091
6670.57309,0.02749
6672.50156,0.07865
6674.43003,0.14885
6676.35850,0.17181
6678.28697,0.16277
6680.21544,0.14337
6682.14390,0.10855
6684.07237,0.07238
6686.00084,0.07409
6687.92931,0.13004
6689.85778,0.15666
6691.78625,0.06553
6693.71472,-0.07943
6695.64318,-0.16871
6697.57165,-0.14577
6699.50012,-0.05556
6701.42859,0.01794
6703.35706,0.05145
6705.28553,0.12577
6707.21400,0.20281
6709.14247,0.15070
6711.07093,0.06834
6712.99940,0.05677
6714.92787,0.08230
6716.85634,0.08670
6718.78481,0.06034
6720.71328,0.08367
6722.64175,0.15843
6724.57021,0.19738
6726.49868,0.18238
6728.42715,0.15952
6730.35562,0.17514
6732.28409,0.18937
6734.21256,0.16352
6736.14103,0.13378
6738.06950,0.11692
6739.99796,0.09027
6741.92643,0.03449
6743.85490,-0.00559
6745.78337,0.04268
6747.71184,0.13782
6749.64031,0.15485
6751.56878,0.09632
6753.49724,0.03255
6755.42571,-0.00287
6757.35418,0.01950
6759.28265,0.08080
6761.21112,0.11136
6763.13959,0.09768
6765.06806,0.10796
6766.99653,0.12011
6768.92499,0.06643
6770.85346,0.01838
6772.78193,0.03716
6774.71040,0.06968
6776.63887,0.07280
6778.56734,0.03045
6780.49581,-0.04025
6782.42427,-0.07666
6784.35274,-0.05637
6786.28121,-0.01187
6788.20968,0.04930
6790.13815,0.10348
6792.06662,0.12722
6793.99509,0.15920
6795.92355,0.18433
6797.85202,0.15734
6799.78049,0.03225
6801.70896,-0.14470
6803.63743,-0.13669
6805.56590,0.03390
6807.49437,0.10963
6809.42284,0.07894
6811.35130,-0.00392
6813.27977,-0.06140
6815.20824,0.02834
6817.13671,0.14224
6819.06518,0.13270
6820.99365,0.13597
6822.92212,0.21183
6824.85058,0.21782
6826.77905,0.14869
6828.70752,0.10163
6830.63599,0.11547
6832.56446,0.12690
6834.49293,0.10697
6836.42140,0.10526
6838.34987,0.10165
6840.27833,0.08613
6842.20680,0.12342
6844.13527,0.19788
6846.06374,0.24007
6847.99221,0.19886
6849.92068,0.10302
6851.84915,0.07952
6853.77761,0.10106
6855.70608,0.07796
6857.63455,0.05713
6859.56302,0.10385
6861.49149,0.17407
6863.41996,0.17365
6865.34843,0.14032
6867.27690,0.15029
6869.20536,0.14234
6871.13383,0.07456
6873.06230,-0.00495
6874.99077,0.01088
6876.91924,0.10420
6878.84771,0.15666
6880.77618,0.14983
6882.70464,0.09938
6884.63311,0.01483
6886.56158,-0.00588
6888.49005,0.07881
6890.41852,0.10162
6892.34699,-0.01594
6894.27546,-0.04999
6896.20393,0.03528
6898.13239,0.07580
6900.06086,0.06919
6901.98933,0.04968
6903.91780,0.02003
6905.84627,-0.01349
6907.77474,-0.07617
6909.70321,-0.10795
6911.63167,-0.02490
6913.56014,0.10389
6915.48861,0.10330
6917.41708,0.01867
6919.34555,0.04863
6921.27402,0.12219
6923.20249,0.07946
6925.13096,-0.00974
6927.05942,-0.11306
6928.98789,-0.22611
6930.91636,-0.26026
6932.84483,-0.21453
6934.77330,-0.13408
6936.70177,-0.01829
6938.63024,0.06163
6940.55870,0.10489
6942.48717,0.16876
6944.41564,0.14793
6946.34411,0.05614
6948.27258,0.03376
6950.20105,0.06276
6952.12952,0.08201
6954.05799,0.13465
6955.98645,0.16121
6957.91492,0.04628
6959.84339,-0.04174
6961.77186,0.00967
6963.70033,0.04317
6965.62880,0.02777
6967.55727,0.07297
6969.48573,0.17073
6971.41420,0.19174
6973.34267,0.12030
6975.27114,0.02159
6977.19961,-0.03994
6979.12808,0.00309
6981.05655,0.06443
6982.98501,0.07000
6984.91348,0.10855
6986.84195,0.21690
6988.77042,0.32630
6990.69889,0.35598
6992.62736,0.28797
6994.55583,0.15178
6996.48430,-0.01588
6998.41276,-0.15027
7000.34123,-0.14092
7002.26970,0.01581
7004.19817,0.12314
7006.12664,0.12509
7008.05511,0.09573
7009.98358,0.03591
7011.91204,-0.04801
7013.84051,-0.08506
7015.76898,0.03252
7017.69745,0.16460
7019.62592,0.12019
7021.55439,0.04437
7023.48286,0.04760
7025.41133,0.03748
7027.33979,0.04121
7029.26826,0.06736
7031.19673,0.05108
7033.12520,0.08734
7035.05367,0.16904
7036.98214,0.17407
7038.91061,0.16733
7040.83907,0.19545
7042.76754,0.19137
7044.69601,0.10788
7046.62448,0.03376
7048.55295,0.04201
7050.48142,0.04207
7052.40989,-0.02610
7054.33836,-0.03554
7056.26682,0.11055
7058.19529,0.23650
7060.12376,0.21389
7062.05223,0.11054
7063.98070,-0.02047
7065.90917,-0.04627
7067.83764,0.06389
7069.76610,0.17202
7071.69457,0.11942
7073.62304,0.02963
7075.55151,0.06776
7077.47998,0.16883
7079.40845,0.22029
7081.33692,0.13932
7083.26539,0.01148
7085.19385,-0.04711
7087.12232,-0.08326
7089.05079,-0.12900
7090.97926,-0.12853
7092.90773,-0.07213
7094.83620,-0.00707
7096.76467,0.06091
7098.69313,0.14992
7100.62160,0.23160
7102.55007,0.27356
7104.47854,0.20493
7106.40701,0.02399
7108.33548,-0.10072
7110.26395,-0.12597
7112.19242,-0.11109
7114.12088,-0.05025
7116.04935,0.04199
7117.97782,0.15938
7119.90629,0.24170
7121.83476,0.17133
7123.76323,0.02439
7125.69170,-0.05384
7127.62016,-0.04077
7129.54863,0.02196
7131.47710,0.03522
7133.40557,-0.02041
7135.33404,-0.04778
7137.26251,-0.03431
7139.19098,0.04028
7141.11944,0.18320
7143.04791,0.30134
7144.97638,0.38378
7146.90485,0.42938
7148.83332,0.33984
7150.76179,0.11155
7152.69026,-0.08738
7154.61873,-0.08222
7156.54719,0.05663
7158.47566,0.16233
7160.40413,0.17510
7162.33260,0.11794
7164.26107,0.00282
7166.18954,-0.16053
7168.11801,-0.28867
7170.04647,-0.33446
7171.97494,-0.30188
7173.90341,-0.20438
7175.83188,-0.08641
7177.76035,-0.03020
7179.68882,0.00275
7181.61729,0.12080
7183.54576,0.28985
7185.47422,0.29366
7187.40269,0.15136
7189.33116,0.13793
7191.25963,0.25997
7193.18810,0.20220
7195.11657,0.04622
7197.04504,-0.01418
7198.97350,-0.08298
7200.90197,-0.20558
7202.83044,-0.22516
7204.75891,-0.01799
7206.68738,0.16459
7208.61585,0.19802
7210.54432,0.25059
7212.47279,0.29145
7214.40125,0.23880
7216.32972,0.16656
7218.25819,0.14473
7220.18666,0.07889
7222.11513,-0.01394
7224.04360,-0.00253
7225.97207,0.08675
7227.90053,0.13818
7229.82900,0.19643
7231.75747,0.19111
7233.68594,0.11967
7235.61441,0.14825
7237.54288,0.19876
7239.47135,0.12770
7241.39982,0.04466
7243.32828,0.07009
7245.25675,0.10084
7247.18522,0.15226
7249.11369,0.16959
7251.04216,-0.02558
7252.97063,-0.20465
7254.89910,-0.01548
7256.82756,0.16108
7258.75603,0.12765
7260.68450,0.11825
7262.61297,0.33082
7264.54144,0.37879
7266.46991,0.09906
7268.39838,-0.09143
7270.32685,-0.01438
7272.25531,0.02940
7274.18378,-0.08035
7276.11225,-0.07731
7278.04072,0.00378
7279.96919,0.02631
7281.89766,-0.02232
7283.82613,-0.04717
7285.75459,-0.07706
7287.68306,-0.16428
7289.61153,-0.25488
7291.54000,-0.17366
7293.46847,0.08101
7295.39694,0.19265
7297.32541,0.04009
7299.25387,-0.09030
7301.18234,0.03135
7303.11081,0.27434
7305.03928,0.33886
7306.96775,0.20532
7308.89622,0.10953
7310.82469,0.10175
7312.75316,0.04886
7314.68162,-0.04802
7316.61009,-0.12897
7318.53856,-0.09742
7320.46703,-0.00865
7322.39550,0.09293
7324.32397,0.21903
7326.25244,0.27641
7328.18090,0.27473
7330.10937,0.17937
7332.03784,-0.05506
7333.96631,-0.17344
7335.89478,-0.06168
7337.82325,0.11555
7339.75172,0.22539
7341.68019,0.25328
7343.60865,0.25571
7345.53712,0.23317
7347.46559,0.12651
7349.39406,-0.09121
7351.32253,-0.23315
7353.25100,-0.13358
7355.17947,0.09975
7357.10793,0.24534
7359.03640,0.18946
7360.96487,0.15795
7362.89334,0.24345
7364.82181,0.28467
7366.75028,0.23352
7368.67875,0.12743
7370.60722,0.07612
7372.53568,0.17144
7374.46415,0.39411
7376.39262,0.49910
7378.32109,0.39377
7380.24956,0.26724
7382.17803,0.08899
7384.10650,-0.12862
7386.03496,-0.19376
7387.96343,-0.14211
7389.89190,-0.13700
7391.82037,-0.15069
7393.74884,-0.13227
7395.67731,-0.10141
7397.60578,-0.08485
7399.53425,-0.06882
7401.46271,-0.04549
7403.39118,-0.00281
7405.31965,0.01549
7407.24812,-0.04963
7409.17659,-0.08395
7411.10506,0.00569
7413.03353,0.10491
7414.96199,0.15649
7416.89046,0.19003
7418.81893,0.27890
7420.74740,0.35708
7422.67587,0.22716
7424.60434,0.04841
7426.53281,-0.03322
7428.46128,-0.02453
7430.38974,0.05562
7432.31821,0.04572
7434.24668,-0.08918
7436.17515,-0.14593
7438.10362,-0.10820
7440.03209,-0.09233
7441.96056,-0.06909
7443.88902,-0.01218
7445.81749,0.00094
7447.74596,0.01572
7449.67443,0.12764
7451.60290,0.20895
7453.53137,0.17226
7455.45984,0.20862
7457.38831,0.28358
7459.31677,0.17634
7461.24524,-0.08767
7463.17371,-0.15746
7465.10218,-0.04821
7467.03065,0.00346
7468.95912,0.01865
7470.88759,0.08413
7472.81605,0.10018
7474.74452,0.04972
7476.67299,-0.05474
7478.60146,-0.23150
7480.52993,-0.19397
7482.45840,0.14879
7484.38687,0.36704
7486.31533,0.36175
7488.24380,0.20081
7490.17227,-0.02728
7492.10074,-0.08677
7494.02921,0.02481
7495.95768,0.06395
7497.88615,-0.04337
