399.19301,7.20068
401.12148,0.27864
403.04995,-0.14596
404.97842,-0.03482
406.90689,0.13387
408.83536,0.12243
410.76382,0.00923
412.69229,0.00388
414.62076,0.07850
416.54923,0.10177
418.47770,0.14214
420.40617,0.32114
422.33464,0.40333
424.26311,0.26495
426.19157,0.12464
428.12004,0.11229
430.04851,0.15757
431.97698,0.18238
433.90545,0.17540
435.83392,0.19683
437.76239,0.20191
439.69085,0.18656
441.61932,0.15025
443.54779,0.03026
445.47626,-0.06784
447.40473,0.00841
449.33320,0.18365
451.26167,0.25090
453.19013,0.16278
455.11860,0.05209
457.04707,0.05169
458.97554,0.08911
460.90401,0.05011
462.83248,0.01250
464.76095,0.03639
466.68942,0.10203
468.61788,0.17060
470.54635,0.16805
472.47482,-0.01064
474.40329,-0.23840
476.33176,-0.14775
478.26023,0.00068
480.18870,0.03362
482.11716,0.01858
484.04563,0.04186
485.97410,0.06592
487.90257,0.05867
489.83104,0.08029
491.75951,0.12414
493.68798,0.15297
495.61645,0.15903
497.54491,0.13837
499.47338,0.14208
501.40185,0.17160
503.33032,0.16934
505.25879,0.14300
507.18726,0.10729
509.11573,0.05541
511.04419,0.03210
512.97266,0.05891
514.90113,0.09100
516.82960,0.09921
518.75807,0.09080
520.68654,0.08309
522.61501,0.09237
524.54348,0.11607
526.47194,0.12718
528.40041,0.14559
530.32888,0.19647
532.25735,0.21216
534.18582,0.17191
536.11429,0.14107
538.04276,0.12420
539.97122,0.11133
541.89969,0.10973
543.82816,0.10839
545.75663,0.12006
547.68510,0.13938
549.61357,0.14154
551.54204,0.10413
553.47051,0.04242
555.39897,0.03196
557.32744,0.06271
559.25591,0.07498
561.18438,0.09129
563.11285,0.11740
565.04132,0.11916
566.96979,0.10797
568.89825,0.11862
570.82672,0.13919
572.75519,0.15063
574.68366,0.16374
576.61213,0.17200
578.54060,0.15528
580.46907,0.12601
582.39754,0.10061
584.32600,0.08081
586.25447,0.07520
588.18294,0.08922
590.11141,0.12006
592.03988,0.13773
593.96835,0.11868
595.89682,0.10460
597.82528,0.12091
599.75375,0.14097
601.68222,0.13561
603.61069,0.10929
605.53916,0.09534
607.46763,0.09481
609.39610,0.09354
611.32456,0.10756
613.25303,0.11997
615.18150,0.10497
617.10997,0.10433
619.03844,0.13990
620.96691,0.16753
622.89538,0.16157
624.82385,0.14351
626.75231,0.13407
628.68078,0.12764
630.60925,0.12063
632.53772,0.11957
634.46619,0.12136
636.39466,0.11990
638.32313,0.12043
640.25159,0.12683
642.18006,0.13345
644.10853,0.14179
646.03700,0.15431
647.96547,0.16479
649.89394,0.16473
651.82241,0.15219
653.75088,0.14522
655.67934,0.14631
657.60781,0.13502
659.53628,0.12229
661.46475,0.12063
663.39322,0.11895
665.32169,0.11497
667.25016,0.10892
669.17862,0.12051
671.10709,0.15338
673.03556,0.16847
674.96403,0.15531
676.89250,0.13215
678.82097,0.12024
680.74944,0.12618
682.67791,0.14279
684.60637,0.15206
686.53484,0.15143
688.46331,0.15103
690.39178,0.14752
692.32025,0.13997
694.24872,0.13790
696.17719,0.14281
698.10565,0.14812
700.03412,0.14831
701.96259,0.14518
703.89106,0.14349
705.81953,0.14411
707.74800,0.14798
709.67647,0.15250
711.60494,0.14716
713.53340,0.12867
715.46187,0.11774
717.39034,0.12947
719.31881,0.15082
721.24728,0.16446
723.17575,0.15899
725.10422,0.14333
727.03268,0.13854
728.96115,0.14164
730.88962,0.13642
732.81809,0.12967
734.74656,0.13904
736.67503,0.14795
738.60350,0.14175
740.53197,0.13450
742.46043,0.12305
744.38890,0.10829
746.31737,0.11172
748.24584,0.12996
750.17431,0.13800
752.10278,0.13035
754.03125,0.12341
755.95971,0.12500
757.88818,0.13092
759.81665,0.13620
761.74512,0.14060
763.67359,0.14671
765.60206,0.14902
767.53053,0.14618
769.45900,0.14663
771.38746,0.14475
773.31593,0.13451
775.24440,0.12757
777.17287,0.12724
779.10134,0.12640
781.02981,0.12352
782.95828,0.12186
784.88674,0.12946
786.81521,0.14245
788.74368,0.13572
790.67215,0.10674
792.60062,0.09416
794.52909,0.11389
796.45756,0.13213
798.38602,0.13527
800.31449,0.13180
802.24296,0.11631
804.17143,0.10393
806.09990,0.11556
808.02837,0.13150
809.95684,0.12991
811.88531,0.12909
813.81377,0.14382
815.74224,0.15359
817.67071,0.14731
819.59918,0.14243
821.52765,0.14492
823.45612,0.14561
825.38459,0.14280
827.31305,0.13395
829.24152,0.12147
831.16999,0.11746
833.09846,0.12446
835.02693,0.14231
836.95540,0.16413
838.88387,0.17404
840.81234,0.17377
842.74080,0.16793
844.66927,0.15607
846.59774,0.14853
848.52621,0.14757
850.45468,0.14694
852.38315,0.14551
854.31162,0.14234
856.24008,0.14287
858.16855,0.15215
860.09702,0.16287
862.02549,0.16541
863.95396,0.15599
865.88243,0.14361
867.81090,0.13503
869.73937,0.12386
871.66783,0.11713
873.59630,0.12318
875.52477,0.13223
877.45324,0.13761
879.38171,0.14121
881.31018,0.14231
883.23865,0.13825
885.16711,0.13229
887.09558,0.12934
889.02405,0.13153
890.95252,0.13640
892.88099,0.13709
894.80946,0.13731
896.73793,0.14460
898.66640,0.15226
900.59486,0.14859
902.52333,0.13670
904.45180,0.13235
906.38027,0.13464
908.30874,0.13162
910.23721,0.13130
912.16568,0.14188
914.09414,0.15144
916.02261,0.15204
917.95108,0.14945
919.87955,0.15316
921.80802,0.16125
923.73649,0.16244
925.66496,0.15851
927.59343,0.15362
929.52189,0.14332
931.45036,0.13265
933.37883,0.13124
935.30730,0.13711
937.23577,0.14336
939.16424,0.14739
941.09271,0.14712
943.02117,0.14363
944.94964,0.14405
946.87811,0.14654
948.80658,0.14207
950.73505,0.13497
952.66352,0.13670
954.59199,0.14698
956.52045,0.15195
958.44892,0.14657
960.37739,0.14071
962.30586,0.13980
964.23433,0.14447
966.16280,0.15284
968.09127,0.15852
970.01974,0.15767
971.94820,0.15142
973.87667,0.14706
975.80514,0.14783
977.73361,0.15013
979.66208,0.15721
981.59055,0.16680
983.51902,0.16620
985.44748,0.15749
987.37595,0.15354
989.30442,0.15658
991.23289,0.15940
993.16136,0.15711
995.08983,0.15093
997.01830,0.14641
998.94677,0.14877
1000.87523,0.15245
1002.80370,0.14889
1004.73217,0.14320
1006.66064,0.14354
1008.58911,0.14696
1010.51758,0.14809
1012.44605,0.14603
1014.37451,0.13801
1016.30298,0.13176
1018.23145,0.14467
1020.15992,0.16734
1022.08839,0.17418
1024.01686,0.16326
1025.94533,0.15357
1027.87380,0.15581
1029.80226,0.16018
1031.73073,0.15767
1033.65920,0.15394
1035.58767,0.15481
1037.51614,0.16071
1039.44461,0.16585
1041.37308,0.16475
1043.30154,0.16270
1045.23001,0.16365
1047.15848,0.16453
1049.08695,0.16418
1051.01542,0.16380
1052.94389,0.16380
1054.87236,0.16104
1056.80083,0.15689
1058.72929,0.15860
1060.65776,0.16339
1062.58623,0.16231
1064.51470,0.15967
1066.44317,0.16521
1068.37164,0.17541
1070.30011,0.18311
1072.22857,0.18600
1074.15704,0.18100
1076.08551,0.16918
1078.01398,0.16166
1079.94245,0.16409
1081.87092,0.16662
1083.79939,0.16640
1085.72786,0.16987
1087.65632,0.17306
1089.58479,0.17087
1091.51326,0.16779
1093.44173,0.16887
1095.37020,0.17318
1097.29867,0.17230
1099.22714,0.16433
1101.15560,0.16162
1103.08407,0.16624
1105.01254,0.16956
1106.94101,0.17235
1108.86948,0.17330
1110.79795,0.16873
1112.72642,0.16706
1114.65489,0.17057
1116.58335,0.17076
1118.51182,0.16542
1120.44029,0.15590
1122.36876,0.14991
1124.29723,0.15626
1126.22570,0.16611
1128.15417,0.16591
1130.08263,0.16046
1132.01110,0.15799
1133.93957,0.15551
1135.86804,0.15331
1137.79651,0.15314
1139.72498,0.15357
1141.65345,0.15680
1143.58191,0.16055
1145.51038,0.16143
1147.43885,0.16285
1149.36732,0.16698
1151.29579,0.17223
1153.22426,0.17732
1155.15273,0.18145
1157.08120,0.18146
1159.00966,0.17702
1160.93813,0.17338
1162.86660,0.17295
1164.79507,0.17257
1166.72354,0.16821
1168.65201,0.16216
1170.58048,0.15826
1172.50894,0.15623
1174.43741,0.15778
1176.36588,0.16306
1178.29435,0.16800
1180.22282,0.16857
1182.15129,0.16738
1184.07976,0.17216
1186.00823,0.18118
1187.93669,0.18191
1189.86516,0.17165
1191.79363,0.16417
1193.72210,0.16350
1195.65057,0.16326
1197.57904,0.16576
1199.50751,0.17040
1201.43597,0.17190
1203.36444,0.16929
1205.29291,0.16505
1207.22138,0.16575
1209.14985,0.17110
1211.07832,0.17193
1213.00679,0.16563
1214.93526,0.15803
1216.86372,0.15521
1218.79219,0.15869
1220.72066,0.16416
1222.64913,0.16723
1224.57760,0.16955
1226.50607,0.17141
1228.43454,0.16750
1230.36300,0.16120
1232.29147,0.16229
1234.21994,0.16783
1236.14841,0.16907
1238.07688,0.16869
1240.00535,0.17050
1241.93382,0.17017
1243.86229,0.16582
1245.79075,0.16073
1247.71922,0.15832
1249.64769,0.15912
1251.57616,0.15906
1253.50463,0.15716
1255.43310,0.15757
1257.36157,0.15861
1259.29003,0.15815
1261.21850,0.15864
1263.14697,0.15795
1265.07544,0.15727
1267.00391,0.15933
1268.93238,0.16000
1270.86085,0.15966
1272.78932,0.16135
1274.71778,0.16388
1276.64625,0.16775
1278.57472,0.17314
1280.50319,0.17305
1282.43166,0.16892
1284.36013,0.16937
1286.28860,0.17009
1288.21706,0.16958
1290.14553,0.17335
1292.07400,0.17476
1294.00247,0.16814
1295.93094,0.16080
1297.85941,0.15694
1299.78788,0.15180
1301.71634,0.14005
1303.64481,0.12577
1305.57328,0.12659
1307.50175,0.14663
1309.43022,0.16420
1311.35869,0.16897
1313.28716,0.17079
1315.21563,0.17261
1317.14409,0.17353
1319.07256,0.17372
1321.00103,0.17145
1322.92950,0.17133
1324.85797,0.17120
1326.78644,0.16612
1328.71491,0.16019
1330.64337,0.15549
1332.57184,0.15722
1334.50031,0.16400
1336.42878,0.16564
1338.35725,0.16356
1340.28572,0.15621
1342.21419,0.14779
1344.14266,0.15417
1346.07112,0.16394
1347.99959,0.16238
1349.92806,0.16123
1351.85653,0.16333
1353.78500,0.16050
1355.71347,0.15727
1357.64194,0.16045
1359.57040,0.16882
1361.49887,0.17567
1363.42734,0.17559
1365.35581,0.17229
1367.28428,0.17151
1369.21275,0.17261
1371.14122,0.17531
1373.06969,0.18081
1374.99815,0.18105
1376.92662,0.17478
1378.85509,0.17361
1380.78356,0.17645
1382.71203,0.17850
1384.64050,0.18304
1386.56897,0.18734
1388.49743,0.18443
1390.42590,0.18176
1392.35437,0.18631
1394.28284,0.19489
1396.21131,0.19868
1398.13978,0.19290
1400.06825,0.18284
1401.99672,0.17788
1403.92518,0.18092
1405.85365,0.18595
1407.78212,0.18593
1409.71059,0.18176
1411.63906,0.17805
1413.56753,0.17891
1415.49600,0.18307
1417.42446,0.18797
1419.35293,0.19129
1421.28140,0.19211
1423.20987,0.19140
1425.13834,0.18759
1427.06681,0.18439
1428.99528,0.18458
1430.92375,0.18714
1432.85221,0.19205
1434.78068,0.19520
1436.70915,0.19109
1438.63762,0.18606
1440.56609,0.18516
1442.49456,0.18530
1444.42303,0.18773
1446.35149,0.19174
1448.27996,0.19217
1450.20843,0.18958
1452.13690,0.19058
1454.06537,0.19874
1455.99384,0.21417
1457.92231,0.21867
1459.85077,0.20363
1461.77924,0.19634
1463.70771,0.19959
1465.63618,0.20086
1467.56465,0.19489
1469.49312,0.19375
1471.42159,0.20270
1473.35006,0.21006
1475.27852,0.20455
1477.20699,0.19686
1479.13546,0.19124
1481.06393,0.18730
1482.99240,0.18688
1484.92087,0.19102
1486.84934,0.19740
1488.77780,0.20132
1490.70627,0.19753
1492.63474,0.19330
1494.56321,0.19637
1496.49168,0.20459
1498.42015,0.20717
1500.34862,0.20233
1502.27709,0.20023
1504.20555,0.20887
1506.13402,0.23136
1508.06249,0.23259
1509.99096,0.21341
1511.91943,0.20430
1513.84790,0.20284
1515.77637,0.20414
1517.70483,0.20551
1519.63330,0.21215
1521.56177,0.22222
1523.49024,0.21978
1525.41871,0.21042
1527.34718,0.20220
1529.27565,0.19747
1531.20412,0.19684
1533.13258,0.19480
1535.06105,0.18941
1536.98952,0.19274
1538.91799,0.21558
1540.84646,0.24336
1542.77493,0.23472
1544.70340,0.21579
1546.63186,0.20213
1548.56033,0.19682
1550.48880,0.19846
1552.41727,0.20420
1554.34574,0.21398
1556.27421,0.22756
1558.20268,0.23859
1560.13115,0.22024
1562.05961,0.20214
1563.98808,0.19537
1565.91655,0.19325
1567.84502,0.19834
1569.77349,0.20535
1571.70196,0.20278
1573.63043,0.20201
1575.55889,0.20778
1577.48736,0.20489
1579.41583,0.19688
1581.34430,0.19345
1583.27277,0.19031
1585.20124,0.18533
1587.12971,0.18137
1589.05818,0.18102
1590.98664,0.18207
1592.91511,0.18182
1594.84358,0.18254
1596.77205,0.18420
1598.70052,0.18517
1600.62899,0.18451
1602.55746,0.18182
1604.48592,0.18213
1606.41439,0.18766
1608.34286,0.19193
1610.27133,0.19156
1612.19980,0.19080
1614.12827,0.19393
1616.05674,0.20113
1617.98521,0.20253
1619.91367,0.19940
1621.84214,0.19979
1623.77061,0.19991
1625.69908,0.19714
1627.62755,0.19352
1629.55602,0.19056
1631.48449,0.19159
1633.41295,0.19771
1635.34142,0.20656
1637.26989,0.20748
1639.19836,0.20208
1641.12683,0.19802
1643.05530,0.19857
1644.98377,0.20877
1646.91223,0.22682
1648.84070,0.23170
1650.76917,0.23063
1652.69764,0.23185
1654.62611,0.21881
1656.55458,0.20616
1658.48305,0.20446
1660.41152,0.20911
1662.33998,0.21060
1664.26845,0.20726
1666.19692,0.20671
1668.12539,0.21252
1670.05386,0.21992
1671.98233,0.21964
1673.91080,0.21733
1675.83926,0.20967
1677.76773,0.20017
1679.69620,0.19922
1681.62467,0.20821
1683.55314,0.22524
1685.48161,0.22704
1687.41008,0.21586
1689.33855,0.20893
1691.26701,0.20543
1693.19548,0.20745
1695.12395,0.21678
1697.05242,0.22385
1698.98089,0.22041
1700.90936,0.20986
1702.83783,0.20131
1704.76629,0.19934
1706.69476,0.19702
1708.62323,0.19089
1710.55170,0.18821
1712.48017,0.19396
1714.40864,0.20793
1716.33711,0.22232
1718.26558,0.21800
1720.19404,0.20270
1722.12251,0.19314
1724.05098,0.18888
1725.97945,0.18773
1727.90792,0.18936
1729.83639,0.19378
1731.76486,0.19953
1733.69332,0.20068
1735.62179,0.19356
1737.55026,0.18978
1739.47873,0.19189
1741.40720,0.19677
1743.33567,0.20138
1745.26414,0.20480
1747.19261,0.20812
1749.12107,0.20926
1751.04954,0.20401
1752.97801,0.19802
1754.90648,0.19567
1756.83495,0.19556
1758.76342,0.19715
1760.69189,0.19995
1762.62035,0.19975
1764.54882,0.19620
1766.47729,0.19477
1768.40576,0.19705
1770.33423,0.20285
1772.26270,0.20795
1774.19117,0.20415
1776.11964,0.19725
1778.04810,0.19398
1779.97657,0.19285
1781.90504,0.19245
1783.83351,0.19517
1785.76198,0.19731
1787.69045,0.19610
1789.61892,0.19667
1791.54738,0.20028
1793.47585,0.20296
1795.40432,0.20260
1797.33279,0.20012
1799.26126,0.19888
1801.18973,0.19949
1803.11820,0.19734
1805.04666,0.19292
1806.97513,0.19112
1808.90360,0.19282
1810.83207,0.19275
1812.76054,0.18933
1814.68901,0.18654
1816.61748,0.18557
1818.54595,0.18717
1820.47441,0.19075
1822.40288,0.19404
1824.33135,0.19594
1826.25982,0.19819
1828.18829,0.20205
1830.11676,0.20031
1832.04523,0.19228
1833.97369,0.18964
1835.90216,0.19340
1837.83063,0.19600
1839.75910,0.19577
1841.68757,0.19789
1843.61604,0.20108
1845.54451,0.19882
1847.47298,0.19440
1849.40144,0.19266
1851.32991,0.19286
1853.25838,0.19262
1855.18685,0.18987
1857.11532,0.18535
1859.04379,0.18239
1860.97226,0.18308
1862.90072,0.18632
1864.82919,0.19100
1866.75766,0.19743
1868.68613,0.20136
1870.61460,0.19782
1872.54307,0.19175
1874.47154,0.18825
1876.40001,0.18881
1878.32847,0.19057
1880.25694,0.19042
1882.18541,0.19043
1884.11388,0.19193
1886.04235,0.19373
1887.97082,0.19616
1889.89929,0.19618
1891.82775,0.19126
1893.75622,0.18733
1895.68469,0.18771
1897.61316,0.18944
1899.54163,0.18968
1901.47010,0.18919
1903.39857,0.18877
1905.32704,0.18768
1907.25550,0.18793
1909.18397,0.18955
1911.11244,0.18945
1913.04091,0.18874
1914.96938,0.18993
1916.89785,0.19212
1918.82632,0.19229
1920.75478,0.19298
1922.68325,0.19643
1924.61172,0.19697
1926.54019,0.19310
1928.46866,0.18897
1930.39713,0.18820
1932.32560,0.19104
1934.25407,0.19306
1936.18253,0.19249
1938.11100,0.19163
1940.03947,0.19154
1941.96794,0.19204
1943.89641,0.19291
1945.82488,0.19266
1947.75335,0.19076
1949.68181,0.19015
1951.61028,0.19175
1953.53875,0.19286
1955.46722,0.19252
1957.39569,0.19222
1959.32416,0.19247
1961.25263,0.19238
1963.18110,0.19231
1965.10956,0.19357
1967.03803,0.19413
1968.96650,0.19127
1970.89497,0.18825
1972.82344,0.18722
1974.75191,0.18622
1976.68038,0.18535
1978.60884,0.18558
1980.53731,0.18732
1982.46578,0.18850
1984.39425,0.18727
1986.32272,0.18766
1988.25119,0.19111
1990.17966,0.19318
1992.10812,0.19217
1994.03659,0.19037
1995.96506,0.19022
1997.89353,0.19097
1999.82200,0.18937
2001.75047,0.18656
2003.67894,0.18613
2005.60741,0.18686
2007.53587,0.18792
2009.46434,0.19058
2011.39281,0.19206
2013.32128,0.19085
2015.24975,0.19022
2017.17822,0.19031
2019.10669,0.18932
2021.03515,0.18898
2022.96362,0.19021
2024.89209,0.19162
2026.82056,0.19205
2028.74903,0.19156
2030.67750,0.19166
2032.60597,0.19354
2034.53444,0.19560
2036.46290,0.19544
2038.39137,0.19367
2040.31984,0.19305
2042.24831,0.19364
2044.17678,0.19274
2046.10525,0.19099
2048.03372,0.19139
2049.96218,0.19256
2051.89065,0.19099
2053.81912,0.18868
2055.74759,0.18959
2057.67606,0.19276
2059.60453,0.19561
2061.53300,0.19617
2063.46147,0.19399
2065.38993,0.19176
2067.31840,0.19115
2069.24687,0.19121
2071.17534,0.19124
2073.10381,0.19184
2075.03228,0.19329
2076.96075,0.19461
2078.88921,0.19507
2080.81768,0.19431
2082.74615,0.19243
2084.67462,0.19158
2086.60309,0.19353
2088.53156,0.19534
2090.46003,0.19433
2092.38850,0.19279
2094.31696,0.19244
2096.24543,0.19268
2098.17390,0.19146
2100.10237,0.18838
2102.03084,0.18770
2103.95931,0.19058
2105.88778,0.19306
2107.81624,0.19358
2109.74471,0.19317
2111.67318,0.19208
2113.60165,0.19141
2115.53012,0.19284
2117.45859,0.19528
2119.38706,0.19593
2121.31553,0.19469
2123.24399,0.19408
2125.17246,0.19476
2127.10093,0.19492
2129.02940,0.19398
2130.95787,0.19378
2132.88634,0.19503
2134.81481,0.19813
2136.74327,0.20223
2138.67174,0.20091
2140.60021,0.19382
2142.52868,0.18952
2144.45715,0.18988
2146.38562,0.19030
2148.31409,0.19032
2150.24255,0.19283
2152.17102,0.19523
2154.09949,0.19368
2156.02796,0.19150
2157.95643,0.19180
2159.88490,0.19300
2161.81337,0.19360
2163.74184,0.19313
2165.67030,0.19199
2167.59877,0.19196
2169.52724,0.19419
2171.45571,0.19705
2173.38418,0.19747
2175.31265,0.19509
2177.24112,0.19299
2179.16958,0.19205
2181.09805,0.19054
2183.02652,0.19020
2184.95499,0.19200
2186.88346,0.19366
2188.81193,0.19554
2190.74040,0.19638
2192.66887,0.19374
2194.59733,0.18941
2196.52580,0.18816
2198.45427,0.19198
2200.38274,0.19563
2202.31121,0.19638
2204.23968,0.19572
2206.16815,0.19306
2208.09661,0.19036
2210.02508,0.18986
2211.95355,0.19117
2213.88202,0.19357
2215.81049,0.19483
2217.73896,0.19339
2219.66743,0.19157
2221.59590,0.19271
2223.52436,0.19558
2225.45283,0.19636
2227.38130,0.19501
2229.30977,0.19303
2231.23824,0.19026
2233.16671,0.18829
2235.09518,0.18972
2237.02364,0.19302
2238.95211,0.19462
2240.88058,0.19309
2242.80905,0.18954
2244.73752,0.18806
2246.66599,0.19056
2248.59446,0.19327
2250.52293,0.19417
2252.45139,0.19426
2254.37986,0.19305
2256.30833,0.19157
2258.23680,0.19234
2260.16527,0.19404
2262.09374,0.19392
2264.02221,0.19218
2265.95067,0.18966
2267.87914,0.18739
2269.80761,0.18797
2271.73608,0.19138
2273.66455,0.19382
2275.59302,0.19352
2277.52149,0.19228
2279.44996,0.19263
2281.37842,0.19363
2283.30689,0.19156
2285.23536,0.18727
2287.16383,0.18433
2289.09230,0.18394
2291.02077,0.18542
2292.94924,0.18724
2294.87770,0.18922
2296.80617,0.18962
2298.73464,0.18845
2300.66311,0.19071
2302.59158,0.19364
2304.52005,0.19033
2306.44852,0.18445
2308.37699,0.18256
2310.30545,0.18406
2312.23392,0.18486
2314.16239,0.18251
2316.09086,0.17999
2318.01933,0.18285
2319.94780,0.18772
2321.87627,0.18594
2323.80473,0.18332
2325.73320,0.18569
2327.66167,0.18213
2329.59014,0.17271
2331.51861,0.16802
2333.44708,0.16596
2335.37555,0.16602
2337.30401,0.17386
2339.23248,0.18165
2341.16095,0.17855
2343.08942,0.17195
2345.01789,0.17041
2346.94636,0.17268
2348.87483,0.17482
2350.80330,0.17475
2352.73176,0.17442
2354.66023,0.17365
2356.58870,0.17047
2358.51717,0.17467
2360.44564,0.18277
2362.37411,0.17846
2364.30258,0.17050
2366.23104,0.17482
2368.15951,0.18423
2370.08798,0.18586
2372.01645,0.18080
2373.94492,0.17751
2375.87339,0.17943
2377.80186,0.18426
2379.73033,0.18965
2381.65879,0.19381
2383.58726,0.19494
2385.51573,0.19309
2387.44420,0.19187
2389.37267,0.19302
2391.30114,0.19367
2393.22961,0.19291
2395.15807,0.19146
2397.08654,0.18907
2399.01501,0.18752
2400.94348,0.18806
2402.87195,0.18938
2404.80042,0.19050
2406.72889,0.19163
2408.65736,0.19301
2410.58582,0.19410
2412.51429,0.19585
2414.44276,0.19891
2416.37123,0.19889
2418.29970,0.19433
2420.22817,0.19110
2422.15664,0.19193
2424.08510,0.19420
2426.01357,0.19502
2427.94204,0.19402
2429.87051,0.19323
2431.79898,0.19408
2433.72745,0.19553
2435.65592,0.19559
2437.58439,0.19362
2439.51285,0.19110
2441.44132,0.19114
2443.36979,0.19346
2445.29826,0.19397
2447.22673,0.19213
2449.15520,0.19137
2451.08367,0.19381
2453.01213,0.19773
2454.94060,0.19858
2456.86907,0.19473
2458.79754,0.19113
2460.72601,0.19060
2462.65448,0.18978
2464.58295,0.18859
2466.51142,0.19002
2468.43988,0.19253
2470.36835,0.19287
2472.29682,0.19232
2474.22529,0.19280
2476.15376,0.19301
2478.08223,0.19311
2480.01070,0.19451
2481.93916,0.19673
2483.86763,0.19813
2485.79610,0.19698
2487.72457,0.19394
2489.65304,0.19073
2491.58151,0.18839
2493.50998,0.18820
2495.43844,0.18981
2497.36691,0.19233
2499.29538,0.19381
2501.22385,0.19274
2503.15232,0.19199
2505.08079,0.19100
2507.00926,0.18807
2508.93773,0.18756
2510.86619,0.19039
2512.79466,0.19342
2514.72313,0.19593
2516.65160,0.19687
2518.58007,0.19572
2520.50854,0.19406
2522.43701,0.19272
2524.36547,0.19218
2526.29394,0.19287
2528.22241,0.19403
2530.15088,0.19404
2532.07935,0.19248
2534.00782,0.19146
2535.93629,0.19245
2537.86476,0.19438
2539.79322,0.19512
2541.72169,0.19421
2543.65016,0.19420
2545.57863,0.19418
2547.50710,0.19093
2549.43557,0.18853
2551.36404,0.19151
2553.29250,0.19748
2555.22097,0.20202
2557.14944,0.20224
2559.07791,0.19899
2561.00638,0.19547
2562.93485,0.19418
2564.86332,0.19465
2566.79179,0.19478
2568.72025,0.19549
2570.64872,0.19708
2572.57719,0.19718
2574.50566,0.19520
2576.43413,0.19383
2578.36260,0.19519
2580.29107,0.19648
2582.21953,0.19448
2584.14800,0.19045
2586.07647,0.18806
2588.00494,0.18907
2589.93341,0.19138
2591.86188,0.19229
2593.79035,0.19154
2595.71882,0.19123
2597.64728,0.19321
2599.57575,0.19727
2601.50422,0.20099
2603.43269,0.20139
2605.36116,0.19980
2607.28963,0.19951
2609.21810,0.20024
2611.14656,0.20138
2613.07503,0.20161
2615.00350,0.19860
2616.93197,0.19515
2618.86044,0.19575
2620.78891,0.19974
2622.71738,0.20272
2624.64585,0.20151
2626.57431,0.19887
2628.50278,0.19914
2630.43125,0.20032
2632.35972,0.19843
2634.28819,0.19417
2636.21666,0.19098
2638.14513,0.19119
2640.07359,0.19407
2642.00206,0.19819
2643.93053,0.20160
2645.85900,0.20122
2647.78747,0.19843
2649.71594,0.19720
2651.64441,0.19763
2653.57288,0.19685
2655.50134,0.19508
2657.42981,0.19572
2659.35828,0.19842
2661.28675,0.19991
2663.21522,0.19958
2665.14369,0.20024
2667.07216,0.20256
2669.00062,0.20296
2670.92909,0.20136
2672.85756,0.20028
2674.78603,0.19881
2676.71450,0.19664
2678.64297,0.19629
2680.57144,0.19908
2682.49990,0.20175
2684.42837,0.20203
2686.35684,0.20386
2688.28531,0.20701
2690.21378,0.20601
2692.14225,0.20142
2694.07072,0.19743
2695.99919,0.19655
2697.92765,0.19819
2699.85612,0.19725
2701.78459,0.19482
2703.71306,0.19799
2705.64153,0.20351
2707.57000,0.20530
2709.49847,0.20473
2711.42693,0.20354
2713.35540,0.20176
2715.28387,0.19938
2717.21234,0.19794
2719.14081,0.19858
2721.06928,0.19977
2722.99775,0.19982
2724.92622,0.19864
2726.85468,0.19755
2728.78315,0.19826
2730.71162,0.20168
2732.64009,0.20413
2734.56856,0.20093
2736.49703,0.19692
2738.42550,0.19868
2740.35396,0.20305
2742.28243,0.20540
2744.21090,0.20558
2746.13937,0.20579
2748.06784,0.20693
2749.99631,0.20690
2751.92478,0.20574
2753.85325,0.20455
2755.78171,0.20369
2757.71018,0.20326
2759.63865,0.20141
2761.56712,0.19942
2763.49559,0.20108
2765.42406,0.20435
2767.35253,0.20579
2769.28099,0.20778
2771.20946,0.21148
2773.13793,0.21319
2775.06640,0.21059
2776.99487,0.20669
2778.92334,0.20552
2780.85181,0.20687
2782.78028,0.20976
2784.70874,0.21131
2786.63721,0.20842
2788.56568,0.20513
2790.49415,0.20579
2792.42262,0.20886
2794.35109,0.21091
2796.27956,0.21097
2798.20802,0.20950
2800.13649,0.20640
2802.06496,0.20393
2803.99343,0.20462
2805.92190,0.20748
2807.85037,0.20884
2809.77884,0.20669
2811.70731,0.20562
2813.63577,0.20803
2815.56424,0.21106
2817.49271,0.21380
2819.42118,0.21395
2821.34965,0.21007
2823.27812,0.20500
2825.20659,0.20192
2827.13505,0.20219
2829.06352,0.20437
2830.99199,0.20666
2832.92046,0.20863
2834.84893,0.20998
2836.77740,0.21086
2838.70587,0.21227
2840.63433,0.21176
2842.56280,0.20716
2844.49127,0.20284
2846.41974,0.20355
2848.34821,0.20818
2850.27668,0.21126
2852.20515,0.21181
2854.13362,0.21241
2856.06208,0.21166
2857.99055,0.20856
2859.91902,0.20581
2861.84749,0.20544
2863.77596,0.20622
2865.70443,0.20610
2867.63290,0.20490
2869.56136,0.20488
2871.48983,0.20659
2873.41830,0.20788
2875.34677,0.20862
2877.27524,0.20890
2879.20371,0.20879
2881.13218,0.20854
2883.06065,0.20607
2884.98911,0.20372
2886.91758,0.20559
2888.84605,0.20910
2890.77452,0.21110
2892.70299,0.20853
2894.63146,0.20199
2896.55993,0.19995
2898.48839,0.20327
2900.41686,0.20579
2902.34533,0.20504
2904.27380,0.20022
2906.20227,0.19607
2908.13074,0.19900
2910.05921,0.20428
2911.98768,0.20444
2913.91614,0.20016
2915.84461,0.19638
2917.77308,0.19654
2919.70155,0.19916
2921.63002,0.20124
2923.55849,0.19710
2925.48696,0.19072
2927.41542,0.20136
2929.34389,0.22376
2931.27236,0.22818
2933.20083,0.21081
2935.12930,0.19239
2937.05777,0.18487
2938.98624,0.18963
2940.91471,0.19964
2942.84317,0.20434
2944.77164,0.20042
2946.70011,0.19235
2948.62858,0.19355
2950.55705,0.20693
2952.48552,0.21607
2954.41399,0.21170
2956.34245,0.19868
2958.27092,0.19114
2960.19939,0.19817
2962.12786,0.20681
2964.05633,0.20433
2965.98480,0.19685
2967.91327,0.19512
2969.84174,0.20231
2971.77020,0.20985
2973.69867,0.21096
2975.62714,0.20698
2977.55561,0.20041
2979.48408,0.19953
2981.41255,0.20692
2983.34102,0.21517
2985.26948,0.21492
2987.19795,0.20294
2989.12642,0.19488
2991.05489,0.19852
2992.98336,0.20366
2994.91183,0.20785
2996.84030,0.20904
2998.76877,0.20611
3000.69723,0.20688
3002.62570,0.21162
3004.55417,0.21291
3006.48264,0.20884
3008.41111,0.20366
3010.33958,0.19570
3012.26805,0.17449
3014.19651,0.13746
3016.12498,0.10665
3018.05345,0.11634
3019.98192,0.16012
3021.91039,0.19545
3023.83886,0.20970
3025.76733,0.21344
3027.69579,0.21236
3029.62426,0.21294
3031.55273,0.21408
3033.48120,0.21138
3035.40967,0.20888
3037.33814,0.20853
3039.26661,0.20994
3041.19508,0.21283
3043.12354,0.21435
3045.05201,0.21091
3046.98048,0.20266
3048.90895,0.20237
3050.83742,0.21409
3052.76589,0.22000
3054.69436,0.20970
3056.62282,0.19422
3058.55129,0.19454
3060.47976,0.20693
3062.40823,0.21039
3064.33670,0.20360
3066.26517,0.19461
3068.19364,0.19294
3070.12211,0.19974
3072.05057,0.20298
3073.97904,0.19757
3075.90751,0.19257
3077.83598,0.19841
3079.76445,0.20669
3081.69292,0.20699
3083.62139,0.19878
3085.54985,0.18763
3087.47832,0.18915
3089.40679,0.20330
3091.33526,0.21140
3093.26373,0.20333
3095.19220,0.19326
3097.12067,0.19807
3099.04914,0.20690
3100.97760,0.20231
3102.90607,0.18893
3104.83454,0.18860
3106.76301,0.20234
3108.69148,0.20779
3110.61995,0.19893
3112.54842,0.19227
3114.47688,0.20113
3116.40535,0.21436
3118.33382,0.21628
3120.26229,0.20834
3122.19076,0.20123
3124.11923,0.20253
3126.04770,0.20771
3127.97617,0.20870
3129.90463,0.20238
3131.83310,0.19789
3133.76157,0.20481
3135.69004,0.21559
3137.61851,0.22085
3139.54698,0.21925
3141.47545,0.21509
3143.40391,0.21467
3145.33238,0.21819
3147.26085,0.21949
3149.18932,0.21687
3151.11779,0.21407
3153.04626,0.21226
3154.97473,0.21414
3156.90320,0.21943
3158.83166,0.22367
3160.76013,0.22543
3162.68860,0.22349
3164.61707,0.21963
3166.54554,0.21780
3168.47401,0.21739
3170.40248,0.21530
3172.33094,0.21197
3174.25941,0.21111
3176.18788,0.21273
3178.11635,0.21365
3180.04482,0.21388
3181.97329,0.21553
3183.90176,0.21675
3185.83022,0.21656
3187.75869,0.21837
3189.68716,0.22048
3191.61563,0.22019
3193.54410,0.21874
3195.47257,0.21730
3197.40104,0.21853
3199.32951,0.22129
3201.25797,0.22172
3203.18644,0.22041
3205.11491,0.21698
3207.04338,0.21197
3208.97185,0.20990
3210.90032,0.21183
3212.82879,0.21664
3214.75725,0.22078
3216.68572,0.22017
3218.61419,0.22030
3220.54266,0.22372
3222.47113,0.22447
3224.39960,0.22238
3226.32807,0.21944
3228.25654,0.21493
3230.18500,0.21067
3232.11347,0.20941
3234.04194,0.21134
3235.97041,0.21381
3237.89888,0.21389
3239.82735,0.21441
3241.75582,0.21835
3243.68428,0.22140
3245.61275,0.22065
3247.54122,0.21980
3249.46969,0.22288
3251.39816,0.22674
3253.32663,0.22429
3255.25510,0.21668
3257.18357,0.21185
3259.11203,0.21169
3261.04050,0.21280
3262.96897,0.21435
3264.89744,0.21439
3266.82591,0.21184
3268.75438,0.20991
3270.68285,0.21086
3272.61131,0.21483
3274.53978,0.21913
3276.46825,0.22136
3278.39672,0.22194
3280.32519,0.22042
3282.25366,0.21530
3284.18213,0.20930
3286.11060,0.20692
3288.03906,0.20638
3289.96753,0.20714
3291.89600,0.21133
3293.82447,0.21571
3295.75294,0.21721
3297.68141,0.21542
3299.60988,0.21204
3301.53834,0.21066
3303.46681,0.20982
3305.39528,0.20673
3307.32375,0.20470
3309.25222,0.20651
3311.18069,0.20825
3313.10916,0.20595
3315.03763,0.20140
3316.96609,0.19999
3318.89456,0.20645
3320.82303,0.21600
3322.75150,0.22049
3324.67997,0.22075
3326.60844,0.21923
3328.53691,0.21657
3330.46537,0.21426
3332.39384,0.21321
3334.32231,0.21121
3336.25078,0.20885
3338.17925,0.21186
3340.10772,0.21637
3342.03619,0.21653
3343.96466,0.21676
3345.89312,0.22048
3347.82159,0.22510
3349.75006,0.22618
3351.67853,0.22360
3353.60700,0.22137
3355.53547,0.21934
3357.46394,0.21385
3359.39240,0.20947
3361.32087,0.21261
3363.24934,0.21626
3365.17781,0.21456
3367.10628,0.21350
3369.03475,0.21731
3370.96322,0.22283
3372.89168,0.22541
3374.82015,0.22615
3376.74862,0.22526
3378.67709,0.21775
3380.60556,0.20753
3382.53403,0.20527
3384.46250,0.21051
3386.39097,0.21482
3388.31943,0.21548
3390.24790,0.21529
3392.17637,0.21595
3394.10484,0.21769
3396.03331,0.22281
3397.96178,0.22692
3399.89025,0.21996
3401.81871,0.20831
3403.74718,0.20496
3405.67565,0.20792
3407.60412,0.21214
3409.53259,0.21565
3411.46106,0.21389
3413.38953,0.20867
3415.31800,0.20465
3417.24646,0.20261
3419.17493,0.20454
3421.10340,0.20770
3423.03187,0.20804
3424.96034,0.20719
3426.88881,0.20613
3428.81728,0.20624
3430.74574,0.20694
3432.67421,0.20577
3434.60268,0.20574
3436.53115,0.20708
3438.45962,0.20415
3440.38809,0.20166
3442.31656,0.20672
3444.24503,0.21352
3446.17349,0.21670
3448.10196,0.21709
3450.03043,0.21776
3451.95890,0.21902
3453.88737,0.21612
3455.81584,0.20922
3457.74431,0.20406
3459.67277,0.20038
3461.60124,0.19546
3463.52971,0.19258
3465.45818,0.19114
3467.38665,0.18909
3469.31512,0.18933
3471.24359,0.19087
3473.17206,0.19292
3475.10052,0.19612
3477.02899,0.19713
3478.95746,0.19411
3480.88593,0.19093
3482.81440,0.19198
3484.74287,0.19471
3486.67134,0.19472
3488.59980,0.19283
3490.52827,0.19102
3492.45674,0.18795
3494.38521,0.18407
3496.31368,0.18219
3498.24215,0.18287
3500.17062,0.18480
3502.09909,0.18776
3504.02755,0.19208
3505.95602,0.19399
3507.88449,0.19165
3509.81296,0.18750
3511.74143,0.18335
3513.66990,0.18095
3515.59837,0.17927
3517.52683,0.17759
3519.45530,0.17916
3521.38377,0.18229
3523.31224,0.18155
3525.24071,0.17773
3527.16918,0.17712
3529.09765,0.18009
3531.02611,0.18008
3532.95458,0.17856
3534.88305,0.17889
3536.81152,0.17858
3538.73999,0.17853
3540.66846,0.17999
3542.59693,0.18102
3544.52540,0.17992
3546.45386,0.17626
3548.38233,0.17446
3550.31080,0.17483
3552.23927,0.17201
3554.16774,0.16874
3556.09621,0.16870
3558.02468,0.16688
3559.95314,0.16267
3561.88161,0.16204
3563.81008,0.16855
3565.73855,0.17729
3567.66702,0.17575
3569.59549,0.16559
3571.52396,0.15574
3573.45243,0.14918
3575.38089,0.14918
3577.30936,0.15179
3579.23783,0.15249
3581.16630,0.15125
3583.09477,0.15039
3585.02324,0.15342
3586.95171,0.15760
3588.88017,0.15639
3590.80864,0.15452
3592.73711,0.15875
3594.66558,0.16626
3596.59405,0.16876
3598.52252,0.16763
3600.45099,0.16388
3602.37946,0.15482
3604.30792,0.14875
3606.23639,0.15270
3608.16486,0.15836
3610.09333,0.15426
3612.02180,0.14769
3613.95027,0.14676
3615.87874,0.15172
3617.80720,0.16034
3619.73567,0.16109
3621.66414,0.15112
3623.59261,0.14642
3625.52108,0.15140
3627.44955,0.16058
3629.37802,0.16166
3631.30649,0.15730
3633.23495,0.15818
3635.16342,0.15766
3637.09189,0.15289
3639.02036,0.14838
3640.94883,0.14611
3642.87730,0.14262
3644.80577,0.13881
3646.73423,0.14655
3648.66270,0.16458
3650.59117,0.15895
3652.51964,0.14552
3654.44811,0.14409
3656.37658,0.14635
3658.30505,0.14235
3660.23352,0.13352
3662.16198,0.12830
3664.09045,0.13283
3666.01892,0.14284
3667.94739,0.15095
3669.87586,0.15170
3671.80433,0.14711
3673.73280,0.14885
3675.66126,0.15210
3677.58973,0.14297
3679.51820,0.13339
3681.44667,0.13187
3683.37514,0.13627
3685.30361,0.14159
3687.23208,0.14633
3689.16055,0.15043
3691.08901,0.14628
3693.01748,0.13826
3694.94595,0.13485
3696.87442,0.13172
3698.80289,0.12757
3700.73136,0.12883
3702.65983,0.13290
3704.58829,0.13249
3706.51676,0.13281
3708.44523,0.13777
3710.37370,0.14195
3712.30217,0.13969
3714.23064,0.13699
3716.15911,0.13724
3718.08757,0.14073
3720.01604,0.14816
3721.94451,0.15177
3723.87298,0.14365
3725.80145,0.13542
3727.72992,0.13544
3729.65839,0.13702
3731.58686,0.14296
3733.51532,0.15771
3735.44379,0.16412
3737.37226,0.15329
3739.30073,0.14228
3741.22920,0.13752
3743.15767,0.13926
3745.08614,0.14094
3747.01460,0.13804
3748.94307,0.14195
3750.87154,0.14958
3752.80001,0.14333
3754.72848,0.13031
3756.65695,0.12129
3758.58542,0.12263
3760.51389,0.12807
3762.44235,0.12814
3764.37082,0.12914
3766.29929,0.13202
3768.22776,0.13244
3770.15623,0.13167
3772.08470,0.13021
3774.01317,0.12850
3775.94163,0.12881
3777.87010,0.13159
3779.79857,0.13339
3781.72704,0.13386
3783.65551,0.13583
3785.58398,0.13563
3787.51245,0.13155
3789.44092,0.12900
3791.36938,0.12944
3793.29785,0.13166
3795.22632,0.13628
3797.15479,0.14109
3799.08326,0.14496
3801.01173,0.14845
3802.94020,0.14627
3804.86866,0.14398
3806.79713,0.14192
3808.72560,0.13097
3810.65407,0.12046
3812.58254,0.12107
3814.51101,0.13034
3816.43948,0.14004
3818.36795,0.14782
3820.29641,0.15163
3822.22488,0.14244
3824.15335,0.13189
3826.08182,0.12605
3828.01029,0.12452
3829.93876,0.13237
3831.86723,0.14277
3833.79569,0.14285
3835.72416,0.13952
3837.65263,0.14393
3839.58110,0.14499
3841.50957,0.13608
3843.43804,0.12817
3845.36651,0.12445
3847.29498,0.12280
3849.22344,0.12272
3851.15191,0.12456
3853.08038,0.13273
3855.00885,0.13474
3856.93732,0.12255
3858.86579,0.11428
3860.79426,0.11612
3862.72272,0.12290
3864.65119,0.12613
3866.57966,0.12556
3868.50813,0.12761
3870.43660,0.13379
3872.36507,0.13677
3874.29354,0.13408
3876.22200,0.13198
3878.15047,0.13368
3880.07894,0.13560
3882.00741,0.13345
3883.93588,0.13135
3885.86435,0.13073
3887.79282,0.12397
3889.72129,0.11373
3891.64975,0.11027
3893.57822,0.11311
3895.50669,0.11518
3897.43516,0.11841
3899.36363,0.12301
3901.29210,0.12741
3903.22057,0.12947
3905.14903,0.12528
3907.07750,0.11767
3909.00597,0.10879
3910.93444,0.10196
3912.86291,0.10360
3914.79138,0.11317
3916.71985,0.12383
3918.64832,0.12803
3920.57678,0.12513
3922.50525,0.11936
3924.43372,0.11686
3926.36219,0.12059
3928.29066,0.12376
3930.21913,0.12359
3932.14760,0.12404
3934.07606,0.12599
3936.00453,0.12511
3937.93300,0.11806
3939.86147,0.10903
3941.78994,0.10701
3943.71841,0.11096
3945.64688,0.11275
3947.57535,0.11239
3949.50381,0.11130
3951.43228,0.11079
3953.36075,0.10961
3955.28922,0.10491
3957.21769,0.10038
3959.14616,0.09904
3961.07463,0.09941
3963.00309,0.10119
3964.93156,0.10456
3966.86003,0.10640
3968.78850,0.10494
3970.71697,0.10598
3972.64544,0.11242
3974.57391,0.11575
3976.50238,0.11273
3978.43084,0.10900
3980.35931,0.10432
3982.28778,0.10189
3984.21625,0.10593
3986.14472,0.10868
3988.07319,0.10729
3990.00166,0.10744
3991.93012,0.10859
3993.85859,0.10726
3995.78706,0.10332
3997.71553,0.09953
3999.64400,0.10002
4001.57247,0.10185
4003.50094,0.10053
4005.42941,0.09895
4007.35787,0.10080
4009.28634,0.10635
4011.21481,0.11071
4013.14328,0.11104
4015.07175,0.11026
4017.00022,0.10973
4018.92869,0.10907
4020.85715,0.10762
4022.78562,0.10592
4024.71409,0.10646
4026.64256,0.10859
4028.57103,0.10747
4030.49950,0.10149
4032.42797,0.09310
4034.35644,0.08915
4036.28490,0.09552
4038.21337,0.10250
4040.14184,0.09916
4042.07031,0.09382
4043.99878,0.09440
4045.92725,0.09443
4047.85572,0.09156
4049.78418,0.09136
4051.71265,0.09331
4053.64112,0.09397
4055.56959,0.09494
4057.49806,0.09678
4059.42653,0.09677
4061.35500,0.09644
4063.28346,0.09722
4065.21193,0.09753
4067.14040,0.09684
4069.06887,0.09400
4070.99734,0.08931
4072.92581,0.08465
4074.85428,0.08203
4076.78275,0.08373
4078.71121,0.08853
4080.63968,0.09282
4082.56815,0.09302
4084.49662,0.08822
4086.42509,0.08480
4088.35356,0.08559
4090.28203,0.08620
4092.21049,0.08670
4094.13896,0.08874
4096.06743,0.09000
4097.99590,0.08933
4099.92437,0.09212
4101.85284,0.09719
4103.78131,0.09690
4105.70978,0.09602
4107.63824,0.09735
4109.56671,0.09637
4111.49518,0.09460
4113.42365,0.09252
4115.35212,0.08977
4117.28059,0.08953
4119.20906,0.09204
4121.13752,0.09362
4123.06599,0.09353
4124.99446,0.09267
4126.92293,0.08949
4128.85140,0.08480
4130.77987,0.08172
4132.70834,0.08202
4134.63681,0.08310
4136.56527,0.08232
4138.49374,0.08527
4140.42221,0.09283
4142.35068,0.09627
4144.27915,0.09381
4146.20762,0.08949
4148.13609,0.08601
4150.06455,0.08363
4151.99302,0.07875
4153.92149,0.07571
4155.84996,0.08212
4157.77843,0.09004
4159.70690,0.09042
4161.63537,0.08512
4163.56384,0.07689
4165.49230,0.06962
4167.42077,0.06841
4169.34924,0.07242
4171.27771,0.07673
4173.20618,0.08220
4175.13465,0.08874
4177.06312,0.09059
4178.99158,0.08755
4180.92005,0.08263
4182.84852,0.07913
4184.77699,0.08183
4186.70546,0.08750
4188.63393,0.08672
4190.56240,0.07985
4192.49087,0.07692
4194.41933,0.07975
4196.34780,0.08106
4198.27627,0.07959
4200.20474,0.08044
4202.13321,0.08403
4204.06168,0.08411
4205.99015,0.08008
4207.91861,0.08008
4209.84708,0.08455
4211.77555,0.08784
4213.70402,0.08859
4215.63249,0.08544
4217.56096,0.07676
4219.48943,0.06653
4221.41789,0.06464
4223.34636,0.06997
4225.27483,0.07146
4227.20330,0.06941
4229.13177,0.06722
4231.06024,0.06538
4232.98871,0.06584
4234.91718,0.06634
4236.84564,0.06609
4238.77411,0.06656
4240.70258,0.06289
4242.63105,0.05536
4244.55952,0.05625
4246.48799,0.06687
4248.41646,0.07307
4250.34492,0.07029
4252.27339,0.06513
4254.20186,0.06244
4256.13033,0.06085
4258.05880,0.05703
4259.98727,0.05710
4261.91574,0.06098
4263.84421,0.05784
4265.77267,0.05172
4267.70114,0.05194
4269.62961,0.05560
4271.55808,0.05950
4273.48655,0.06504
4275.41502,0.06882
4277.34349,0.06655
4279.27195,0.06227
4281.20042,0.06251
4283.12889,0.06695
4285.05736,0.06826
4286.98583,0.06117
4288.91430,0.05180
4290.84277,0.05303
4292.77124,0.05985
4294.69970,0.05555
4296.62817,0.04813
4298.55664,0.05232
4300.48511,0.05952
4302.41358,0.06050
4304.34205,0.06094
4306.27052,0.06166
4308.19898,0.05841
4310.12745,0.05642
4312.05592,0.05653
4313.98439,0.05163
4315.91286,0.04595
4317.84133,0.04649
4319.76980,0.04892
4321.69827,0.05243
4323.62673,0.05938
4325.55520,0.06441
4327.48367,0.06298
4329.41214,0.05869
4331.34061,0.05733
4333.26908,0.05727
4335.19755,0.05511
4337.12601,0.05018
4339.05448,0.04356
4340.98295,0.04044
4342.91142,0.04149
4344.83989,0.04259
4346.76836,0.04336
4348.69683,0.04536
4350.62530,0.04780
4352.55376,0.04583
4354.48223,0.04147
4356.41070,0.04283
4358.33917,0.04728
4360.26764,0.05382
4362.19611,0.06270
4364.12458,0.06444
4366.05304,0.05664
4367.98151,0.04305
4369.90998,0.03014
4371.83845,0.02583
4373.76692,0.02784
4375.69539,0.02975
4377.62386,0.03393
4379.55232,0.04470
4381.48079,0.05116
4383.40926,0.04520
4385.33773,0.03891
4387.26620,0.04126
4389.19467,0.04343
4391.12314,0.03575
4393.05161,0.02633
4394.98007,0.02676
4396.90854,0.03529
4398.83701,0.04403
4400.76548,0.04557
4402.69395,0.03844
4404.62242,0.03072
4406.55089,0.02727
4408.47935,0.02575
4410.40782,0.02733
4412.33629,0.03262
4414.26476,0.03555
4416.19323,0.03362
4418.12170,0.02858
4420.05017,0.02249
4421.97864,0.02222
4423.90710,0.02651
4425.83557,0.03003
4427.76404,0.03508
4429.69251,0.03835
4431.62098,0.03956
4433.54945,0.03978
4435.47792,0.03221
4437.40638,0.02428
4439.33485,0.02649
4441.26332,0.03138
4443.19179,0.03315
4445.12026,0.03234
4447.04873,0.02736
4448.97720,0.02220
4450.90567,0.02257
4452.83413,0.02789
4454.76260,0.03255
4456.69107,0.03280
4458.61954,0.03230
4460.54801,0.03493
4462.47648,0.03575
4464.40495,0.03175
4466.33341,0.03112
4468.26188,0.03603
4470.19035,0.03833
4472.11882,0.03659
4474.04729,0.03361
4475.97576,0.02635
4477.90423,0.01992
4479.83270,0.02329
4481.76116,0.02921
4483.68963,0.02894
4485.61810,0.02346
4487.54657,0.02123
4489.47504,0.02451
4491.40351,0.02134
4493.33198,0.01516
4495.26044,0.01863
4497.18891,0.02571
4499.11738,0.02984
4501.04585,0.03123
4502.97432,0.03000
4504.90279,0.02716
4506.83126,0.02134
4508.75973,0.01762
4510.68819,0.01969
4512.61666,0.02078
4514.54513,0.01956
4516.47360,0.02094
4518.40207,0.02479
4520.33054,0.02126
4522.25901,0.01104
4524.18747,0.00956
4526.11594,0.01701
4528.04441,0.02225
4529.97288,0.02120
4531.90135,0.01608
4533.82982,0.00965
4535.75829,0.00648
4537.68676,0.01278
4539.61522,0.02431
4541.54369,0.02783
4543.47216,0.02244
4545.40063,0.01731
4547.32910,0.01574
4549.25757,0.01992
4551.18604,0.02631
4553.11450,0.02286
4555.04297,0.01161
4556.97144,0.01084
4558.89991,0.02293
4560.82838,0.03015
4562.75685,0.02846
4564.68532,0.02978
4566.61378,0.03666
4568.54225,0.04008
4570.47072,0.03517
4572.39919,0.02447
4574.32766,0.01514
4576.25613,0.01220
4578.18460,0.01110
4580.11307,0.00778
4582.04153,0.00652
4583.97000,0.00818
4585.89847,0.00858
4587.82694,0.01036
4589.75541,0.01390
4591.68388,0.01492
4593.61235,0.01628
4595.54081,0.01792
4597.46928,0.01619
4599.39775,0.01537
4601.32622,0.01632
4603.25469,0.01486
4605.18316,0.01921
4607.11163,0.02961
4609.04010,0.02889
4610.96856,0.02123
4612.89703,0.01762
4614.82550,0.01187
4616.75397,0.00639
4618.68244,0.00475
4620.61091,0.00312
4622.53938,0.00265
4624.46784,0.00079
4626.39631,-0.00078
4628.32478,0.00378
4630.25325,0.01011
4632.18172,0.01039
4634.11019,0.00449
4636.03866,0.00246
4637.96713,0.00666
4639.89559,0.01137
4641.82406,0.01368
4643.75253,0.00656
4645.68100,-0.00630
4647.60947,-0.00447
4649.53794,0.00957
4651.46641,0.00981
4653.39487,-0.00338
4655.32334,-0.00919
4657.25181,0.00010
4659.18028,0.01912
4661.10875,0.03234
4663.03722,0.02667
4664.96569,0.01054
4666.89416,0.00312
4668.82262,0.00745
4670.75109,0.01398
4672.67956,0.02084
4674.60803,0.02489
4676.53650,0.02472
4678.46497,0.02722
4680.39344,0.02404
4682.32190,0.01404
4684.25037,0.01851
4686.17884,0.03244
4688.10731,0.03274
4690.03578,0.02205
4691.96425,0.01418
4693.89272,0.01180
4695.82119,0.00955
4697.74965,0.00336
4699.67812,-0.00378
4701.60659,-0.00685
4703.53506,-0.00400
4705.46353,0.00166
4707.39200,0.00728
4709.32047,0.01282
4711.24893,0.01547
4713.17740,0.01441
4715.10587,0.01299
4717.03434,0.01350
4718.96281,0.01690
4720.89128,0.02393
4722.81975,0.03189
4724.74821,0.03653
4726.67668,0.03164
4728.60515,0.01588
4730.53362,0.00474
4732.46209,0.00622
4734.39056,0.00988
4736.31903,0.00976
4738.24750,0.00658
4740.17596,-0.00019
4742.10443,-0.00256
4744.03290,0.00969
4745.96137,0.02482
4747.88984,0.02798
4749.81831,0.02328
4751.74678,0.02095
4753.67524,0.02342
4755.60371,0.02339
4757.53218,0.01708
4759.46065,0.00959
4761.38912,0.00706
4763.31759,0.00730
4765.24606,0.00295
4767.17453,-0.00231
4769.10299,-0.00359
4771.03146,-0.00288
4772.95993,0.00452
4774.88840,0.01514
4776.81687,0.01667
4778.74534,0.01027
4780.67381,0.00163
4782.60227,-0.00186
4784.53074,0.00248
4786.45921,0.00590
4788.38768,0.00255
4790.31615,-0.00524
4792.24462,-0.00461
4794.17309,0.00268
4796.10156,-0.00329
4798.03002,-0.01736
4799.95849,-0.02072
4801.88696,-0.01358
4803.81543,-0.00819
4805.74390,-0.00674
4807.67237,0.00018
4809.60084,0.00481
4811.52930,-0.00030
4813.45777,-0.00249
4815.38624,-0.00053
4817.31471,-0.00004
4819.24318,0.00077
4821.17165,-0.00069
4823.10012,-0.00161
4825.02859,0.00124
4826.95705,0.00247
4828.88552,-0.00122
4830.81399,-0.00917
4832.74246,-0.01562
4834.67093,-0.00892
4836.59940,0.00304
4838.52787,0.00361
4840.45633,0.00533
4842.38480,0.01752
4844.31327,0.02255
4846.24174,0.01259
4848.17021,-0.00289
4850.09868,-0.01498
4852.02715,-0.01609
4853.95562,-0.00766
4855.88408,0.00135
4857.81255,0.01073
4859.74102,0.01782
4861.66949,0.01453
4863.59796,0.00301
4865.52643,-0.00612
4867.45490,-0.00582
4869.38336,0.00040
4871.31183,0.00360
4873.24030,-0.00077
4875.16877,-0.00709
4877.09724,-0.00818
4879.02571,-0.00537
4880.95418,-0.00821
4882.88265,-0.01576
4884.81111,-0.01595
4886.73958,-0.01169
4888.66805,-0.01027
4890.59652,-0.00763
4892.52499,-0.00287
4894.45346,0.00075
4896.38193,0.00256
4898.31039,0.00407
4900.23886,0.00744
4902.16733,0.01526
4904.09580,0.02832
4906.02427,0.04294
4907.95274,0.05088
4909.88121,0.04542
4911.80967,0.03127
4913.73814,0.01451
4915.66661,-0.00218
4917.59508,-0.00969
4919.52355,-0.00193
4921.45202,0.01207
4923.38049,0.01827
4925.30896,0.01263
4927.23742,0.00205
4929.16589,-0.00235
4931.09436,0.00367
4933.02283,0.00722
4934.95130,-0.00166
4936.87977,-0.00790
4938.80824,-0.00598
4940.73670,-0.00948
4942.66517,-0.01362
4944.59364,-0.00704
4946.52211,0.00236
4948.45058,0.00207
4950.37905,-0.00132
4952.30752,0.00556
4954.23599,0.01365
4956.16445,0.00466
4958.09292,-0.01134
4960.02139,-0.00710
4961.94986,0.00919
4963.87833,0.01094
4965.80680,0.00210
4967.73527,0.00182
4969.66373,0.01629
4971.59220,0.02828
4973.52067,0.02688
4975.44914,0.02750
4977.37761,0.03511
4979.30608,0.03278
4981.23455,0.01121
4983.16302,-0.01320
4985.09148,-0.01737
4987.01995,-0.00138
4988.94842,0.01168
4990.87689,0.01022
4992.80536,0.00857
4994.73383,0.01272
4996.66230,0.01445
4998.59076,0.01637
5000.51923,0.02693
5002.44770,0.04278
5004.37617,0.04718
5006.30464,0.03511
5008.23311,0.02312
5010.16158,0.01658
5012.09005,0.00902
5014.01851,0.00727
5015.94698,0.01788
5017.87545,0.02633
5019.80392,0.01856
5021.73239,0.00905
5023.66086,0.00822
5025.58933,0.00154
5027.51779,-0.00885
5029.44626,-0.00790
5031.37473,0.00072
5033.30320,0.00607
5035.23167,0.00769
5037.16014,0.01339
5039.08861,0.01983
5041.01708,0.02111
5042.94554,0.02870
5044.87401,0.04250
5046.80248,0.04771
5048.73095,0.04943
5050.65942,0.05429
5052.58789,0.05434
5054.51636,0.04647
5056.44482,0.03278
5058.37329,0.02200
5060.30176,0.02475
5062.23023,0.03448
5064.15870,0.03650
5066.08717,0.03198
5068.01564,0.02972
5069.94410,0.02517
5071.87257,0.01412
5073.80104,0.00763
5075.72951,0.01512
5077.65798,0.02680
5079.58645,0.03538
5081.51492,0.04210
5083.44339,0.03494
5085.37185,0.01285
5087.30032,-0.00999
5089.22879,-0.01884
5091.15726,-0.00561
5093.08573,0.01159
5095.01420,0.02055
5096.94267,0.03172
5098.87113,0.04193
5100.79960,0.04488
5102.72807,0.04924
5104.65654,0.04982
5106.58501,0.04268
5108.51348,0.04136
5110.44195,0.04465
5112.37042,0.04238
5114.29888,0.02981
5116.22735,0.02136
5118.15582,0.03219
5120.08429,0.04285
5122.01276,0.03835
5123.94123,0.02967
5125.86970,0.02907
5127.79816,0.03814
5129.72663,0.04775
5131.65510,0.04834
5133.58357,0.04143
5135.51204,0.02999
5137.44051,0.00929
5139.36898,-0.00620
5141.29745,0.00259
5143.22591,0.01582
5145.15438,0.00825
5147.08285,-0.00088
5149.01132,0.00771
5150.93979,0.02038
5152.86826,0.03563
5154.79673,0.05617
5156.72519,0.06206
5158.65366,0.04332
5160.58213,0.02410
5162.51060,0.02140
5164.43907,0.01837
5166.36754,0.01118
5168.29601,0.01558
5170.22448,0.02734
5172.15294,0.03474
5174.08141,0.03998
5176.00988,0.04833
5177.93835,0.05717
5179.86682,0.06459
5181.79529,0.06120
5183.72376,0.03928
5185.65222,0.02225
5187.58069,0.03085
5189.50916,0.04149
5191.43763,0.02720
5193.36610,0.01199
5195.29457,0.02238
5197.22304,0.02912
5199.15151,0.01898
5201.07997,0.01952
5203.00844,0.03409
5204.93691,0.04116
5206.86538,0.01887
5208.79385,-0.01685
5210.72232,-0.01856
5212.65079,0.01179
5214.57925,0.02579
5216.50772,0.01910
5218.43619,0.02831
5220.36466,0.04722
5222.29313,0.05098
5224.22160,0.04892
5226.15007,0.05273
5228.07854,0.04302
5230.00700,0.01965
5231.93547,0.01303
5233.86394,0.02788
5235.79241,0.04929
5237.72088,0.05593
5239.64935,0.04204
5241.57782,0.04362
5243.50628,0.06806
5245.43475,0.08234
5247.36322,0.07872
5249.29169,0.06502
5251.22016,0.05035
5253.14863,0.03820
5255.07710,0.03069
5257.00556,0.03939
5258.93403,0.05333
5260.86250,0.05020
5262.79097,0.02481
5264.71944,0.00792
5266.64791,0.03261
5268.57638,0.06702
5270.50485,0.06700
5272.43331,0.04538
5274.36178,0.04012
5276.29025,0.04945
5278.21872,0.04920
5280.14719,0.04156
5282.07566,0.04043
5284.00413,0.04617
5285.93259,0.05711
5287.86106,0.06220
5289.78953,0.05044
5291.71800,0.03990
5293.64647,0.04558
5295.57494,0.04929
5297.50341,0.03868
5299.43188,0.02396
5301.36034,0.01356
5303.28881,0.01566
5305.21728,0.03992
5307.14575,0.06502
5309.07422,0.06202
5311.00269,0.04458
5312.93116,0.04159
5314.85962,0.04554
5316.78809,0.03015
5318.71656,0.01557
5320.64503,0.02873
5322.57350,0.05229
5324.50197,0.06778
5326.43044,0.06064
5328.35891,0.03014
5330.28737,0.02242
5332.21584,0.05488
5334.14431,0.07148
5336.07278,0.04516
5338.00125,0.02729
5339.92972,0.04499
5341.85819,0.06308
5343.78665,0.06755
5345.71512,0.07340
5347.64359,0.08258
5349.57206,0.08410
5351.50053,0.08211
5353.42900,0.07503
5355.35747,0.06730
5357.28594,0.07632
5359.21440,0.08186
5361.14287,0.06558
5363.07134,0.04870
5364.99981,0.05215
5366.92828,0.06161
5368.85675,0.05322
5370.78522,0.03886
5372.71368,0.04586
5374.64215,0.06875
5376.57062,0.07679
5378.49909,0.06484
5380.42756,0.06103
5382.35603,0.06766
5384.28450,0.05394
5386.21297,0.02910
5388.14143,0.03765
5390.06990,0.06428
5391.99837,0.09209
5393.92684,0.11271
5395.85531,0.10513
5397.78378,0.08982
5399.71225,0.07983
5401.64071,0.06027
5403.56918,0.04598
5405.49765,0.05408
5407.42612,0.06843
5409.35459,0.07304
5411.28306,0.06961
5413.21153,0.07163
5415.13999,0.08911
5417.06846,0.10320
5418.99693,0.09772
5420.92540,0.08230
5422.85387,0.07508
5424.78234,0.08539
5426.71081,0.09424
5428.63928,0.08259
5430.56774,0.08126
5432.49621,0.10248
5434.42468,0.10996
5436.35315,0.08596
5438.28162,0.05648
5440.21009,0.04852
5442.13856,0.06891
5444.06702,0.09167
5445.99549,0.08119
5447.92396,0.03673
5449.85243,-0.00029
5451.78090,0.00793
5453.70937,0.04798
5455.63784,0.08305
5457.56631,0.09491
5459.49477,0.07283
5461.42324,0.02952
5463.35171,0.01313
5465.28018,0.02936
5467.20865,0.04853
5469.13712,0.06303
5471.06559,0.07253
5472.99405,0.07618
5474.92252,0.06358
5476.85099,0.03908
5478.77946,0.04364
5480.70793,0.06895
5482.63640,0.06688
5484.56487,0.04141
5486.49334,0.03242
5488.42180,0.04488
5490.35027,0.05850
5492.27874,0.06259
5494.20721,0.05743
5496.13568,0.04558
5498.06415,0.03714
5499.99262,0.04836
5501.92108,0.06348
5503.84955,0.05601
5505.77802,0.04420
5507.70649,0.05412
5509.63496,0.07776
5511.56343,0.08600
5513.49190,0.06291
5515.42037,0.02681
5517.34883,-0.00680
5519.27730,-0.01409
5521.20577,0.02061
5523.13424,0.04835
5525.06271,0.04568
5526.99118,0.05488
5528.91965,0.08314
5530.84811,0.10382
5532.77658,0.11303
5534.70505,0.10384
5536.63352,0.06782
5538.56199,0.03997
5540.49046,0.04836
5542.41893,0.07985
5544.34740,0.10606
5546.27586,0.10627
5548.20433,0.09119
5550.13280,0.08879
5552.06127,0.10120
5553.98974,0.10259
5555.91821,0.08496
5557.84668,0.06704
5559.77514,0.06466
5561.70361,0.07344
5563.63208,0.07562
5565.56055,0.07294
5567.48902,0.06978
5569.41749,0.05663
5571.34596,0.03727
5573.27443,0.02920
5575.20289,0.04274
5577.13136,0.06274
5579.05983,0.07077
5580.98830,0.07033
5582.91677,0.06820
5584.84524,0.07169
5586.77371,0.09442
5588.70217,0.11810
5590.63064,0.11739
5592.55911,0.08827
5594.48758,0.04232
5596.41605,0.02926
5598.34452,0.06213
5600.27299,0.09260
5602.20145,0.09751
5604.12992,0.08591
5606.05839,0.06888
5607.98686,0.05311
5609.91533,0.04606
5611.84380,0.05209
5613.77227,0.05697
5615.70074,0.05358
5617.62920,0.05979
5619.55767,0.07257
5621.48614,0.08660
5623.41461,0.11611
5625.34308,0.13112
5627.27155,0.10650
5629.20002,0.08489
5631.12848,0.08481
5633.05695,0.08885
5634.98542,0.11301
5636.91389,0.15765
5638.84236,0.17045
5640.77083,0.13806
5642.69930,0.09998
5644.62777,0.08811
5646.55623,0.10011
5648.48470,0.09669
5650.41317,0.06662
5652.34164,0.04468
5654.27011,0.04035
5656.19858,0.04543
5658.12705,0.05962
5660.05551,0.06407
5661.98398,0.06293
5663.91245,0.07995
5665.84092,0.09525
5667.76939,0.09135
5669.69786,0.07155
5671.62633,0.04312
5673.55480,0.02937
5675.48326,0.03270
5677.41173,0.03201
5679.34020,0.02572
5681.26867,0.02502
5683.19714,0.03640
5685.12561,0.05352
5687.05408,0.06465
5688.98254,0.07050
5690.91101,0.08111
5692.83948,0.09899
5694.76795,0.09984
5696.69642,0.07354
5698.62489,0.05987
5700.55336,0.07856
5702.48183,0.09954
5704.41029,0.09354
5706.33876,0.07643
5708.26723,0.09552
5710.19570,0.12877
5712.12417,0.09864
5714.05264,0.03262
5715.98111,0.01628
5717.90957,0.04075
5719.83804,0.07830
5721.76651,0.10754
5723.69498,0.09525
5725.62345,0.06932
5727.55192,0.06453
5729.48039,0.07836
5731.40886,0.10922
5733.33732,0.13509
5735.26579,0.13815
5737.19426,0.13219
5739.12273,0.12649
5741.05120,0.12470
5742.97967,0.12682
5744.90814,0.12602
5746.83660,0.12039
5748.76507,0.12301
5750.69354,0.12856
5752.62201,0.08521
5754.55048,0.00582
5756.47895,-0.01296
5758.40742,0.04177
5760.33588,0.09673
5762.26435,0.12018
5764.19282,0.12617
5766.12129,0.11192
5768.04976,0.07683
5769.97823,0.05057
5771.90670,0.04976
5773.83517,0.05645
5775.76363,0.04974
5777.69210,0.03568
5779.62057,0.04632
5781.54904,0.07046
5783.47751,0.07942
5785.40598,0.07818
5787.33445,0.08453
5789.26291,0.11626
5791.19138,0.13120
5793.11985,0.10651
5795.04832,0.08544
5796.97679,0.07194
5798.90526,0.06272
5800.83373,0.07434
5802.76220,0.09556
5804.69066,0.10270
5806.61913,0.09729
5808.54760,0.08591
5810.47607,0.07846
5812.40454,0.09002
5814.33301,0.10077
5816.26148,0.10033
5818.18994,0.10405
5820.11841,0.10542
5822.04688,0.10707
5823.97535,0.12322
5825.90382,0.13141
5827.83229,0.11439
5829.76076,0.08437
5831.68923,0.06207
5833.61769,0.07783
5835.54616,0.11568
5837.47463,0.11439
5839.40310,0.08331
5841.33157,0.08240
5843.26004,0.10381
5845.18851,0.09912
5847.11697,0.08082
5849.04544,0.08800
5850.97391,0.11465
5852.90238,0.13359
5854.83085,0.13904
5856.75932,0.13219
5858.68779,0.10805
5860.61626,0.06849
5862.54472,0.04170
5864.47319,0.04155
5866.40166,0.04943
5868.33013,0.05162
5870.25860,0.04860
5872.18707,0.05887
5874.11554,0.07768
5876.04400,0.06883
5877.97247,0.03504
5879.90094,0.01416
5881.82941,0.02770
5883.75788,0.05979
5885.68635,0.08381
5887.61482,0.09782
5889.54329,0.10526
5891.47175,0.10158
5893.40022,0.09699
5895.32869,0.10311
5897.25716,0.11102
5899.18563,0.12806
5901.11410,0.16946
5903.04257,0.19102
5904.97103,0.15224
5906.89950,0.10717
5908.82797,0.11029
5910.75644,0.14148
5912.68491,0.15137
5914.61338,0.11555
5916.54185,0.06127
5918.47032,0.02691
5920.39878,0.02434
5922.32725,0.03764
5924.25572,0.04387
5926.18419,0.05415
5928.11266,0.07524
5930.04113,0.06715
5931.96960,0.02520
5933.89806,0.01475
5935.82653,0.05564
5937.75500,0.07491
5939.68347,0.04909
5941.61194,0.02769
5943.54041,0.04664
5945.46888,0.10528
5947.39734,0.15246
5949.32581,0.13054
5951.25428,0.05813
5953.18275,-0.00344
5955.11122,-0.00592
5957.03969,0.02591
5958.96816,0.03661
5960.89663,0.04979
5962.82509,0.07328
5964.75356,0.07230
5966.68203,0.05652
5968.61050,0.05407
5970.53897,0.06983
5972.46744,0.08924
5974.39591,0.08725
5976.32437,0.05805
5978.25284,0.04106
5980.18131,0.05423
5982.10978,0.05450
5984.03825,0.01634
5985.96672,-0.01690
5987.89519,-0.00730
5989.82366,0.03601
5991.75212,0.09082
5993.68059,0.11487
5995.60906,0.09286
5997.53753,0.07556
5999.46600,0.07918
6001.39447,0.07364
6003.32294,0.07403
6005.25140,0.09712
6007.17987,0.10325
6009.10834,0.10258
6011.03681,0.11534
6012.96528,0.09276
6014.89375,0.02359
6016.82222,-0.01914
6018.75069,0.01386
6020.67915,0.06920
6022.60762,0.10647
6024.53609,0.11187
6026.46456,0.07536
6028.39303,0.04652
6030.32150,0.05274
6032.24997,0.05866
6034.17843,0.05969
6036.10690,0.07745
6038.03537,0.09359
6039.96384,0.08925
6041.89231,0.08075
6043.82078,0.07490
6045.74925,0.06425
6047.67772,0.05605
6049.60618,0.06470
6051.53465,0.08164
6053.46312,0.10199
6055.39159,0.13066
6057.32006,0.14302
6059.24853,0.10656
6061.17700,0.05756
6063.10546,0.06873
6065.03393,0.11462
6066.96240,0.13822
6068.89087,0.12679
6070.81934,0.07509
6072.74781,0.02900
6074.67628,0.03827
6076.60475,0.06267
6078.53321,0.06814
6080.46168,0.08600
6082.39015,0.10189
6084.31862,0.09101
6086.24709,0.10219
6088.17556,0.17396
6090.10403,0.23770
6092.03249,0.21072
6093.96096,0.13190
6095.88943,0.09919
6097.81790,0.12425
6099.74637,0.13847
6101.67484,0.11480
6103.60331,0.10588
6105.53177,0.12244
6107.46024,0.12806
6109.38871,0.12653
6111.31718,0.13470
6113.24565,0.12919
6115.17412,0.10124
6117.10259,0.08844
6119.03106,0.09922
6120.95952,0.10048
6122.88799,0.10359
6124.81646,0.11436
6126.74493,0.11984
6128.67340,0.12589
6130.60187,0.11028
6132.53034,0.08690
6134.45880,0.10018
6136.38727,0.11182
6138.31574,0.08273
6140.24421,0.06257
6142.17268,0.07652
6144.10115,0.07126
6146.02962,0.05592
6147.95809,0.07451
6149.88655,0.11227
6151.81502,0.13828
6153.74349,0.12922
6155.67196,0.08565
6157.60043,0.04924
6159.52890,0.05107
6161.45737,0.07462
6163.38583,0.09208
6165.31430,0.08499
6167.24277,0.05816
6169.17124,0.03448
6171.09971,0.02771
6173.02818,0.04903
6174.95665,0.09577
6176.88512,0.15012
6178.81358,0.18149
6180.74205,0.15007
6182.67052,0.07227
6184.59899,0.03243
6186.52746,0.04245
6188.45593,0.05206
6190.38440,0.07518
6192.31286,0.10632
6194.24133,0.12160
6196.16980,0.12961
6198.09827,0.10884
6200.02674,0.06781
6201.95521,0.05583
6203.88368,0.07895
6205.81215,0.10632
6207.74061,0.11445
6209.66908,0.08669
6211.59755,0.05370
6213.52602,0.06475
6215.45449,0.08989
6217.38296,0.09141
6219.31143,0.10588
6221.23989,0.16155
6223.16836,0.18459
6225.09683,0.13065
6227.02530,0.06930
6228.95377,0.03851
6230.88224,0.02545
6232.81071,0.00996
6234.73918,0.00025
6236.66764,0.02371
6238.59611,0.07054
6240.52458,0.11476
6242.45305,0.12557
6244.38152,0.08080
6246.30999,0.01222
6248.23846,-0.02542
6250.16692,0.00252
6252.09539,0.07877
6254.02386,0.11926
6255.95233,0.08507
6257.88080,0.02894
6259.80927,0.00992
6261.73774,0.03174
6263.66621,0.07602
6265.59467,0.11319
6267.52314,0.11815
6269.45161,0.09588
6271.38008,0.05781
6273.30855,0.03254
6275.23702,0.03545
6277.16549,0.05154
6279.09395,0.08852
6281.02242,0.11007
6282.95089,0.08313
6284.87936,0.06255
6286.80783,0.07088
6288.73630,0.07033
6290.66477,0.05610
6292.59323,0.05085
6294.52170,0.05447
6296.45017,0.06774
6298.37864,0.09422
6300.30711,0.10622
6302.23558,0.10193
6304.16405,0.12146
6306.09252,0.13568
6308.02098,0.08751
6309.94945,0.02006
6311.87792,0.02236
6313.80639,0.08365
6315.73486,0.10935
6317.66333,0.08153
6319.59180,0.07229
6321.52026,0.09262
6323.44873,0.11559
6325.37720,0.13636
6327.30567,0.12870
6329.23414,0.10698
6331.16261,0.11758
6333.09108,0.14581
6335.01955,0.14829
6336.94801,0.11226
6338.87648,0.05752
6340.80495,0.01754
6342.73342,0.01784
6344.66189,0.05420
6346.59036,0.09781
6348.51883,0.13109
6350.44729,0.13289
6352.37576,0.06706
6354.30423,-0.01149
6356.23270,-0.02007
6358.16117,0.03560
6360.08964,0.08822
6362.01811,0.11284
6363.94658,0.13346
6365.87504,0.15544
6367.80351,0.16487
6369.73198,0.16022
6371.66045,0.17106
6373.58892,0.18098
6375.51739,0.12843
6377.44586,0.03073
6379.37432,-0.03042
6381.30279,-0.01158
6383.23126,0.04157
6385.15973,0.08994
6387.08820,0.13329
6389.01667,0.13878
6390.94514,0.10954
6392.87361,0.09810
6394.80207,0.13100
6396.73054,0.16532
6398.65901,0.16715
6400.58748,0.13398
6402.51595,0.06409
6404.44442,-0.02871
6406.37289,-0.06741
6408.30135,0.02751
6410.22982,0.14989
6412.15829,0.15716
6414.08676,0.10504
6416.01523,0.05273
6417.94370,-0.02344
6419.87217,-0.06261
6421.80064,-0.04033
6423.72910,-0.01109
6425.65757,0.03982
6427.58604,0.08573
6429.51451,0.05885
6431.44298,0.00280
6433.37145,-0.03845
6435.29992,-0.06573
6437.22838,-0.04862
6439.15685,-0.01082
6441.08532,0.01579
6443.01379,0.04970
6444.94226,0.09713
6446.87073,0.14765
6448.79920,0.16280
6450.72766,0.14036
6452.65613,0.12408
6454.58460,0.10389
6456.51307,0.05730
6458.44154,0.01098
6460.37001,-0.02170
6462.29848,-0.04870
6464.22695,-0.04235
6466.15541,0.00457
6468.08388,0.06508
6470.01235,0.10766
6471.94082,0.12044
6473.86929,0.12735
6475.79776,0.14696
6477.72623,0.19978
6479.65469,0.23506
6481.58316,0.22126
6483.51163,0.19538
6485.44010,0.14716
6487.36857,0.10962
6489.29704,0.11922
6491.22551,0.15616
6493.15398,0.19336
6495.08244,0.18138
6497.01091,0.12957
6498.93938,0.08711
6500.86785,0.07651
6502.79632,0.10671
6504.72479,0.13346
6506.65326,0.09937
6508.58172,0.04353
6510.51019,0.05248
6512.43866,0.10041
6514.36713,0.12866
6516.29560,0.13346
6518.22407,0.10772
6520.15254,0.08968
6522.08101,0.06975
6524.00947,-0.00264
6525.93794,-0.05036
6527.86641,-0.00955
6529.79488,0.06245
6531.72335,0.13742
6533.65182,0.18825
6535.58029,0.15259
6537.50875,0.03526
6539.43722,-0.06489
6541.36569,-0.07550
6543.29416,-0.00498
6545.22263,0.07348
6547.15110,0.07945
6549.07957,0.02045
6551.00804,-0.02457
6552.93650,0.01976
6554.86497,0.12483
6556.79344,0.19907
6558.72191,0.20987
6560.65038,0.15846
6562.57885,0.08205
6564.50732,0.04466
6566.43578,0.04218
6568.36425,0.06017
6570.29272,0.08068
6572.22119,0.05507
6574.14966,0.02906
6576.07813,0.03134
6578.00660,0.02490
6579.93507,0.03018
6581.86353,0.02413
6583.79200,-0.03713
6585.72047,-0.04074
6587.64894,0.05827
6589.57741,0.12869
6591.50588,0.13143
6593.43435,0.13780
6595.36281,0.13153
6597.29128,0.07720
6599.21975,0.04643
6601.14822,0.08739
6603.07669,0.13865
6605.00516,0.17557
6606.93363,0.18885
6608.86210,0.13987
6610.79056,0.07839
6612.71903,0.06376
6614.64750,0.04218
6616.57597,0.02114
6618.50444,0.08737
6620.43291,0.13527
6622.36138,0.09012
6624.28984,0.07322
6626.21831,0.13193
6628.14678,0.17013
6630.07525,0.13620
6632.00372,0.10246
6633.93219,0.10399
6635.86066,0.11323
6637.78912,0.10374
6639.71759,0.05792
6641.64606,0.00107
6643.57453,-0.03266
6645.50300,-0.02888
6647.43147,0.05299
6649.35994,0.17045
6651.28841,0.19309
6653.21687,0.14529
6655.14534,0.11705
6657.07381,0.06360
6659.00228,-0.01179
6660.93075,0.01745
6662.85922,0.15385
6664.78769,0.25979
6666.71615,0.25210
6668.64462,0.18826
6670.57309,0.16278
6672.50156,0.17568
6674.43003,0.18194
6676.35850,0.17153
6678.28697,0.14388
6680.21544,0.12623
6682.14390,0.17043
6684.07237,0.24288
6686.00084,0.22864
6687.92931,0.14585
6689.85778,0.13567
6691.78625,0.16582
6693.71472,0.12503
6695.64318,0.02873
6697.57165,-0.02972
6699.50012,-0.02092
6701.42859,-0.02022
6703.35706,-0.00668
6705.28553,0.07970
6707.21400,0.13184
6709.14247,0.07800
6711.07093,0.02360
6712.99940,0.04285
6714.92787,0.12024
6716.85634,0.19055
6718.78481,0.18514
6720.71328,0.10456
6722.64175,0.03501
6724.57021,0.02518
6726.49868,0.04772
6728.42715,0.08289
6730.35562,0.09339
6732.28409,0.03209
6734.21256,-0.05884
6736.14103,-0.11374
6738.06950,-0.13335
6739.99796,-0.11215
6741.92643,-0.06449
6743.85490,-0.03339
6745.78337,-0.04344
6747.71184,-0.07318
6749.64031,0.00414
6751.56878,0.15937
6753.49724,0.20332
6755.42571,0.12239
6757.35418,0.03840
6759.28265,0.02968
6761.21112,0.05325
6763.13959,0.00809
6765.06806,-0.04606
6766.99653,-0.02754
6768.92499,0.00719
6770.85346,-0.00484
6772.78193,0.01238
6774.71040,0.10487
6776.63887,0.15978
6778.56734,0.13119
6780.49581,0.08922
6782.42427,0.06726
6784.35274,0.04743
6786.28121,0.01160
6788.20968,0.02586
6790.13815,0.09779
6792.06662,0.08977
6793.99509,0.00179
6795.92355,-0.02582
6797.85202,-0.03178
6799.78049,-0.05822
6801.70896,-0.03180
6803.63743,0.00153
6805.56590,-0.02371
6807.49437,-0.05630
6809.42284,-0.05677
6811.35130,0.02124
6813.27977,0.14041
6815.20824,0.21185
6817.13671,0.20912
6819.06518,0.16480
6820.99365,0.19183
6822.92212,0.28382
6824.85058,0.22083
6826.77905,0.01263
6828.70752,-0.14828
6830.63599,-0.15964
6832.56446,-0.06871
6834.49293,0.03165
6836.42140,0.10406
6838.34987,0.10697
6840.27833,0.03307
6842.20680,-0.03394
6844.13527,-0.06888
6846.06374,-0.08034
6847.99221,-0.03076
6849.92068,0.04897
6851.84915,0.09250
6853.77761,0.13946
6855.70608,0.20072
6857.63455,0.19619
6859.56302,0.10743
6861.49149,0.00343
6863.41996,-0.00145
6865.34843,0.05909
6867.27690,0.08335
6869.20536,0.08407
6871.13383,0.05147
6873.06230,0.00441
6874.99077,0.01321
6876.91924,0.06316
6878.84771,0.11722
6880.77618,0.09509
6882.70464,-0.00083
6884.63311,-0.06912
6886.56158,-0.06778
6888.49005,-0.06616
6890.41852,-0.03326
6892.34699,0.07781
6894.27546,0.12380
6896.20393,0.05381
6898.13239,-0.00178
6900.06086,0.02813
6901.98933,0.09922
6903.91780,0.13369
6905.84627,0.05159
6907.77474,-0.04574
6909.70321,-0.04628
6911.63167,-0.04272
6913.56014,-0.06690
6915.48861,-0.03583
6917.41708,0.02639
6919.34555,0.07655
6921.27402,0.12659
6923.20249,0.12420
6925.13096,0.04439
6927.05942,-0.02576
6928.98789,-0.01505
6930.91636,0.09477
6932.84483,0.26419
6934.77330,0.30352
6936.70177,0.16943
6938.63024,0.05214
6940.55870,0.10107
6942.48717,0.15339
6944.41564,0.10831
6946.34411,0.09877
6948.27258,0.12385
6950.20105,0.06465
6952.12952,-0.04363
6954.05799,-0.04210
6955.98645,0.08877
6957.91492,0.12441
6959.84339,0.03534
6961.77186,0.00956
6963.70033,0.04323
6965.62880,-0.01218
6967.55727,-0.10393
6969.48573,-0.09606
6971.41420,-0.05321
6973.34267,-0.06209
6975.27114,-0.09234
6977.19961,-0.07303
6979.12808,0.03013
6981.05655,0.15456
6982.98501,0.18145
6984.91348,0.14752
6986.84195,0.22447
6988.77042,0.31584
6990.69889,0.30996
6992.62736,0.30680
6994.55583,0.26273
6996.48430,0.15888
6998.41276,0.12872
7000.34123,0.11834
7002.26970,0.06569
7004.19817,0.00622
7006.12664,-0.09655
7008.05511,-0.14002
7009.98358,-0.04495
7011.91204,0.00652
7013.84051,-0.08521
7015.76898,-0.13842
7017.69745,-0.08599
7019.62592,-0.03221
7021.55439,0.00086
7023.48286,0.01791
7025.41133,0.03385
7027.33979,0.05904
7029.26826,0.01773
7031.19673,-0.04251
7033.12520,-0.03646
7035.05367,-0.02249
7036.98214,-0.00541
7038.91061,0.05616
7040.83907,0.14688
7042.76754,0.23614
7044.69601,0.27036
7046.62448,0.20247
7048.55295,0.07051
7050.48142,0.00590
7052.40989,0.03450
7054.33836,0.10638
7056.26682,0.19965
7058.19529,0.26298
7060.12376,0.27723
7062.05223,0.22063
7063.98070,0.02562
7065.90917,-0.12523
7067.83764,-0.05815
7069.76610,0.05007
7071.69457,-0.03036
7073.62304,-0.06931
7075.55151,0.05789
7077.47998,0.14354
7079.40845,0.10651
7081.33692,0.05766
7083.26539,0.08449
7085.19385,0.15321
7087.12232,0.19176
7089.05079,0.18966
7090.97926,0.26719
7092.90773,0.30701
7094.83620,0.17834
7096.76467,0.11101
7098.69313,0.15841
7100.62160,0.10679
7102.55007,-0.00796
7104.47854,-0.11643
7106.40701,-0.17142
7108.33548,-0.06580
7110.26395,0.09134
7112.19242,0.12671
7114.12088,0.04868
7116.04935,-0.00640
7117.97782,0.05538
7119.90629,0.11144
7121.83476,0.00867
7123.76323,-0.10707
7125.69170,-0.07054
7127.62016,-0.00686
7129.54863,-0.04144
7131.47710,-0.08979
7133.40557,-0.06349
7135.33404,-0.02373
7137.26251,-0.07084
7139.19098,-0.08413
7141.11944,0.05969
7143.04791,0.20621
7144.97638,0.23782
7146.90485,0.15169
7148.83332,-0.04630
7150.76179,-0.21385
7152.69026,-0.14283
7154.61873,0.05538
7156.54719,0.11063
7158.47566,0.11087
7160.40413,0.15291
7162.33260,0.18344
7164.26107,0.20009
7166.18954,0.25774
7168.11801,0.31007
7170.04647,0.25125
7171.97494,0.07448
7173.90341,-0.10514
7175.83188,-0.19241
7177.76035,-0.12925
7179.68882,0.10588
7181.61729,0.47084
7183.54576,0.66082
7185.47422,0.52508
7187.40269,0.34045
7189.33116,0.11829
7191.25963,-0.10117
7193.18810,-0.10740
7195.11657,-0.05540
7197.04504,-0.10860
7198.97350,-0.15687
7200.90197,-0.10149
7202.83044,0.05201
7204.75891,0.23574
7206.68738,0.29643
7208.61585,0.22493
7210.54432,0.12651
7212.47279,0.10266
7214.40125,0.15969
7216.32972,0.17954
7218.25819,0.13212
7220.18666,0.12589
7222.11513,0.10149
7224.04360,0.03546
7225.97207,0.02879
7227.90053,0.08092
7229.82900,0.02622
7231.75747,-0.11967
7233.68594,-0.13684
7235.61441,-0.02891
7237.54288,0.09337
7239.47135,0.12518
7241.39982,0.10153
7243.32828,0.06107
7245.25675,-0.00821
7247.18522,-0.00921
7249.11369,0.05560
7251.04216,0.14614
7252.97063,0.31326
7254.89910,0.43528
7256.82756,0.42516
7258.75603,0.36840
7260.68450,0.29542
7262.61297,0.22566
7264.54144,0.10976
7266.46991,-0.03466
7268.39838,-0.05345
7270.32685,0.05339
7272.25531,0.09643
7274.18378,0.02672
7276.11225,-0.03761
7278.04072,-0.09946
7279.96919,-0.15001
7281.89766,-0.17200
7283.82613,-0.11269
7285.75459,0.03401
7287.68306,0.17071
7289.61153,0.26170
7291.54000,0.26087
7293.46847,0.17876
7295.39694,0.08961
7297.32541,0.01058
7299.25387,-0.00562
7301.18234,0.03982
7303.11081,0.08111
7305.03928,0.14063
7306.96775,0.26637
7308.89622,0.35422
7310.82469,0.27093
7312.75316,0.16298
7314.68162,0.26173
7316.61009,0.50066
7318.53856,0.52222
7320.46703,0.39192
7322.39550,0.27119
7324.32397,0.14233
7326.25244,0.06095
7328.18090,0.18476
7330.10937,0.32597
7332.03784,0.09268
7333.96631,-0.14836
7335.89478,-0.08009
7337.82325,0.15159
7339.75172,0.28240
7341.68019,0.21202
7343.60865,0.19780
7345.53712,0.10385
7347.46559,-0.15042
7349.39406,-0.28749
7351.32253,-0.20466
7353.25100,-0.05194
7355.17947,0.04420
7357.10793,0.02279
7359.03640,-0.17147
7360.96487,-0.26989
7362.89334,0.03944
7364.82181,0.38706
7366.75028,0.35663
7368.67875,0.17710
7370.60722,0.17065
7372.53568,0.27088
7374.46415,0.33482
7376.39262,0.35228
7378.32109,0.36948
7380.24956,0.32606
7382.17803,0.18785
7384.10650,0.04187
7386.03496,-0.02164
7387.96343,0.00750
7389.89190,0.08538
7391.82037,0.11087
7393.74884,0.04160
7395.67731,0.02095
7397.60578,0.10222
7399.53425,0.14836
7401.46271,0.11139
7403.39118,0.06187
7405.31965,0.04583
7407.24812,0.01285
7409.17659,-0.00978
7411.10506,0.02652
7413.03353,0.06382
7414.96199,0.06200
7416.89046,0.07079
7418.81893,0.12002
7420.74740,0.12615
7422.67587,0.15369
7424.60434,0.21063
7426.53281,0.21139
7428.46128,0.19565
7430.38974,0.13488
7432.31821,0.04916
7434.24668,0.08688
7436.17515,0.13357
7438.10362,0.12218
7440.03209,0.18846
7441.96056,0.27602
7443.88902,0.30320
7445.81749,0.35508
7447.74596,0.41280
7449.67443,0.31309
7451.60290,0.10097
7453.53137,0.07239
7455.45984,0.20672
7457.38831,0.29462
7459.31677,0.19962
7461.24524,0.04436
7463.17371,0.02071
7465.10218,0.01516
7467.03065,-0.01445
7468.95912,-0.02392
7470.88759,0.01668
7472.81605,0.04133
7474.74452,0.01650
7476.67299,0.07017
7478.60146,0.21260
7480.52993,0.34252
7482.45840,0.30378
7484.38687,0.12773
7486.31533,0.02702
7488.24380,0.00385
7490.17227,0.00507
7492.10074,0.01984
7494.02921,0.00423
7495.95768,-0.04603
7497.88615,-0.12897
