399.19301,0.71793
401.12148,0.46424
403.04995,-0.00339
404.97842,-0.11871
406.90689,-0.07799
408.83536,-0.16972
410.76382,-0.29483
412.69229,-0.29536
414.62076,-0.23934
416.54923,-0.18798
418.47770,-0.08233
420.40617,0.10308
422.33464,0.17559
424.26311,0.10872
426.19157,0.02689
428.12004,0.05395
430.04851,0.12632
431.97698,0.08922
433.90545,0.03492
435.83392,0.06300
437.76239,0.11639
439.69085,0.13958
441.61932,0.15812
443.54779,0.19535
445.47626,0.21265
447.40473,0.20590
449.33320,0.15242
451.26167,0.02829
453.19013,-0.08472
455.11860,-0.09963
457.04707,-0.02491
458.97554,0.02525
460.90401,0.01019
462.83248,0.03239
464.76095,0.09767
466.68942,0.13647
468.61788,0.14900
470.54635,0.14793
472.47482,0.13484
474.40329,0.12897
476.33176,0.13305
478.26023,0.10624
480.18870,0.02845
482.11716,-0.05321
484.04563,-0.06348
485.97410,-0.00295
487.90257,0.07752
489.83104,0.10861
491.75951,0.10339
493.68798,0.14262
495.61645,0.19306
497.54491,0.17899
499.47338,0.14137
501.40185,0.13358
503.33032,0.12955
505.25879,0.13688
507.18726,0.17293
509.11573,0.18499
511.04419,0.16619
512.97266,0.15776
514.90113,0.16738
516.82960,0.16842
518.75807,0.16820
520.68654,0.17222
522.61501,0.13840
524.54348,0.08588
526.47194,0.06203
528.40041,0.05846
530.32888,0.08129
532.25735,0.10461
534.18582,0.08929
536.11429,0.09451
538.04276,0.13695
539.97122,0.14681
541.89969,0.13317
543.82816,0.12969
545.75663,0.11889
547.68510,0.08919
549.61357,0.07055
551.54204,0.08531
553.47051,0.10608
555.39897,0.10994
557.32744,0.11260
559.25591,0.13262
561.18438,0.12834
563.11285,0.07015
565.04132,0.03754
566.96979,0.08610
568.89825,0.14972
570.82672,0.15895
572.75519,0.13576
574.68366,0.12045
576.61213,0.09905
578.54060,0.07049
580.46907,0.06342
582.39754,0.09174
584.32600,0.12935
586.25447,0.13621
588.18294,0.11928
590.11141,0.11337
592.03988,0.12698
593.96835,0.14126
595.89682,0.14483
597.82528,0.14175
599.75375,0.14132
601.68222,0.14924
603.61069,0.15804
605.53916,0.15410
607.46763,0.13387
609.39610,0.10949
611.32456,0.08962
613.25303,0.08157
615.18150,0.08398
617.10997,0.07844
619.03844,0.06600
620.96691,0.07259
622.89538,0.09759
624.82385,0.10461
626.75231,0.09390
628.68078,0.10154
630.60925,0.11944
632.53772,0.11781
634.46619,0.10045
636.39466,0.08845
638.32313,0.09990
640.25159,0.13511
642.18006,0.16252
644.10853,0.15768
646.03700,0.14258
647.96547,0.15009
649.89394,0.17410
651.82241,0.18302
653.75088,0.16329
655.67934,0.13836
657.60781,0.13470
659.53628,0.13902
661.46475,0.13038
663.39322,0.11704
665.32169,0.10892
667.25016,0.09767
669.17862,0.08887
671.10709,0.10151
673.03556,0.12170
674.96403,0.13269
676.89250,0.12816
678.82097,0.12091
680.74944,0.12126
682.67791,0.13189
684.60637,0.14098
686.53484,0.14116
688.46331,0.14394
690.39178,0.14849
692.32025,0.14310
694.24872,0.13113
696.17719,0.12759
698.10565,0.13592
700.03412,0.13601
701.96259,0.11992
703.89106,0.11040
705.81953,0.11881
707.74800,0.09808
709.67647,-0.04766
711.60494,-0.21904
713.53340,-0.16542
715.46187,0.02372
717.39034,0.11771
719.31881,0.14407
721.24728,0.15005
723.17575,0.12481
725.10422,0.10247
727.03268,0.10380
728.96115,0.11021
730.88962,0.11061
732.81809,0.11239
734.74656,0.12023
736.67503,0.13557
738.60350,0.14018
740.53197,0.12797
742.46043,0.12302
744.38890,0.13261
746.31737,0.14254
748.24584,0.13812
750.17431,0.12697
752.10278,0.12733
754.03125,0.13436
755.95971,0.13701
757.88818,0.13925
759.81665,0.14389
761.74512,0.14625
763.67359,0.14442
765.60206,0.13652
767.53053,0.12439
769.45900,0.12122
771.38746,0.12608
773.31593,0.12590
775.24440,0.12820
777.17287,0.13818
779.10134,0.14569
781.02981,0.15039
782.95828,0.15751
784.88674,0.16312
786.81521,0.15934
788.74368,0.15312
790.67215,0.15499
792.60062,0.15843
794.52909,0.15356
796.45756,0.14327
798.38602,0.13541
800.31449,0.13225
802.24296,0.13660
804.17143,0.14847
806.09990,0.15428
808.02837,0.14135
809.95684,0.12667
811.88531,0.12987
813.81377,0.13666
815.74224,0.13567
817.67071,0.13907
819.59918,0.15014
821.52765,0.15537
823.45612,0.14514
825.38459,0.12908
827.31305,0.12128
829.24152,0.11880
831.16999,0.11960
833.09846,0.12601
835.02693,0.12791
836.95540,0.12297
838.88387,0.11815
840.81234,0.11498
842.74080,0.12425
844.66927,0.14579
846.59774,0.15302
848.52621,0.13901
850.45468,0.12541
852.38315,0.12881
854.31162,0.14337
856.24008,0.15273
858.16855,0.15769
860.09702,0.16358
862.02549,0.16343
863.95396,0.15670
865.88243,0.15262
867.81090,0.15782
869.73937,0.16595
871.66783,0.16532
873.59630,0.15723
875.52477,0.14835
877.45324,0.14348
879.38171,0.14754
881.31018,0.15439
883.23865,0.15523
885.16711,0.15155
887.09558,0.14222
889.02405,0.12828
890.95252,0.12065
892.88099,0.12560
894.80946,0.13870
896.73793,0.14660
898.66640,0.14222
900.59486,0.13896
902.52333,0.14524
904.45180,0.14992
906.38027,0.14820
908.30874,0.14332
910.23721,0.13673
912.16568,0.13746
914.09414,0.15166
916.02261,0.16552
917.95108,0.16543
919.87955,0.15314
921.80802,0.13598
923.73649,0.12602
925.66496,0.12939
927.59343,0.13800
929.52189,0.14166
931.45036,0.14145
933.37883,0.14427
935.30730,0.14775
937.23577,0.14852
939.16424,0.14552
941.09271,0.13948
943.02117,0.13887
944.94964,0.14513
946.87811,0.14802
948.80658,0.14163
950.73505,0.13828
952.66352,0.14777
954.59199,0.15586
956.52045,0.15492
958.44892,0.15188
960.37739,0.14776
962.30586,0.14700
964.23433,0.15075
966.16280,0.15152
968.09127,0.15041
970.01974,0.15532
971.94820,0.16510
973.87667,0.16813
975.80514,0.16041
977.73361,0.15031
979.66208,0.14517
981.59055,0.14252
983.51902,0.14085
985.44748,0.14635
987.37595,0.15396
989.30442,0.15715
991.23289,0.15952
993.16136,0.15886
995.08983,0.15520
997.01830,0.15279
998.94677,0.15210
1000.87523,0.15310
1002.80370,0.15150
1004.73217,0.14506
1006.66064,0.14230
1008.58911,0.14755
1010.51758,0.15362
1012.44605,0.15395
1014.37451,0.14784
1016.30298,0.14120
1018.23145,0.14152
1020.15992,0.14704
1022.08839,0.14966
1024.01686,0.14967
1025.94533,0.15261
1027.87380,0.15580
1029.80226,0.15426
1031.73073,0.15073
1033.65920,0.15045
1035.58767,0.14607
1037.51614,0.13372
1039.44461,0.12784
1041.37308,0.13461
1043.30154,0.14730
1045.23001,0.15834
1047.15848,0.15834
1049.08695,0.14732
1051.01542,0.14121
1052.94389,0.14413
1054.87236,0.14466
1056.80083,0.14802
1058.72929,0.16156
1060.65776,0.17363
1062.58623,0.17733
1064.51470,0.17527
1066.44317,0.16884
1068.37164,0.16487
1070.30011,0.16687
1072.22857,0.16810
1074.15704,0.16638
1076.08551,0.16660
1078.01398,0.16929
1079.94245,0.16973
1081.87092,0.17044
1083.79939,0.17328
1085.72786,0.16837
1087.65632,0.15523
1089.58479,0.14721
1091.51326,0.15014
1093.44173,0.16008
1095.37020,0.16645
1097.29867,0.16476
1099.22714,0.16482
1101.15560,0.16657
1103.08407,0.16478
1105.01254,0.16285
1106.94101,0.16009
1108.86948,0.15291
1110.79795,0.14573
1112.72642,0.14507
1114.65489,0.14731
1116.58335,0.15486
1118.51182,0.17094
1120.44029,0.17961
1122.36876,0.17282
1124.29723,0.16274
1126.22570,0.16120
1128.15417,0.16613
1130.08263,0.16869
1132.01110,0.16498
1133.93957,0.15448
1135.86804,0.14548
1137.79651,0.14562
1139.72498,0.14893
1141.65345,0.15154
1143.58191,0.15494
1145.51038,0.15699
1147.43885,0.15635
1149.36732,0.15775
1151.29579,0.16240
1153.22426,0.16634
1155.15273,0.17023
1157.08120,0.17057
1159.00966,0.16679
1160.93813,0.16764
1162.86660,0.17124
1164.79507,0.17127
1166.72354,0.16889
1168.65201,0.16745
1170.58048,0.16877
1172.50894,0.17215
1174.43741,0.17527
1176.36588,0.17537
1178.29435,0.17246
1180.22282,0.16987
1182.15129,0.16998
1184.07976,0.17251
1186.00823,0.17495
1187.93669,0.17181
1189.86516,0.16530
1191.79363,0.16450
1193.72210,0.16636
1195.65057,0.16424
1197.57904,0.16213
1199.50751,0.16360
1201.43597,0.16470
1203.36444,0.16467
1205.29291,0.16689
1207.22138,0.16914
1209.14985,0.16804
1211.07832,0.16600
1213.00679,0.16778
1214.93526,0.17162
1216.86372,0.17085
1218.79219,0.16870
1220.72066,0.17238
1222.64913,0.17806
1224.57760,0.17874
1226.50607,0.17347
1228.43454,0.16709
1230.36300,0.16594
1232.29147,0.16701
1234.21994,0.16381
1236.14841,0.16169
1238.07688,0.16604
1240.00535,0.17110
1241.93382,0.17314
1243.86229,0.17198
1245.79075,0.16614
1247.71922,0.16072
1249.64769,0.16029
1251.57616,0.16175
1253.50463,0.16277
1255.43310,0.16391
1257.36157,0.16544
1259.29003,0.16354
1261.21850,0.15824
1263.14697,0.15642
1265.07544,0.15933
1267.00391,0.16475
1268.93238,0.16743
1270.86085,0.16365
1272.78932,0.15857
1274.71778,0.15672
1276.64625,0.16084
1278.57472,0.16855
1280.50319,0.17028
1282.43166,0.16611
1284.36013,0.16236
1286.28860,0.15889
1288.21706,0.15985
1290.14553,0.16663
1292.07400,0.16909
1294.00247,0.16276
1295.93094,0.15351
1297.85941,0.14833
1299.78788,0.14383
1301.71634,0.13181
1303.64481,0.11901
1305.57328,0.12297
1307.50175,0.14362
1309.43022,0.15957
1311.35869,0.16532
1313.28716,0.17264
1315.21563,0.18006
1317.14409,0.17826
1319.07256,0.16945
1321.00103,0.16474
1322.92950,0.16670
1324.85797,0.16629
1326.78644,0.16130
1328.71491,0.15853
1330.64337,0.15532
1332.57184,0.15140
1334.50031,0.15485
1336.42878,0.16448
1338.35725,0.17310
1340.28572,0.17267
1342.21419,0.15572
1344.14266,0.13143
1346.07112,0.13131
1347.99959,0.15539
1349.92806,0.16673
1351.85653,0.16469
1353.78500,0.16247
1355.71347,0.16035
1357.64194,0.16087
1359.57040,0.16256
1361.49887,0.16614
1363.42734,0.17073
1365.35581,0.17269
1367.28428,0.17242
1369.21275,0.17171
1371.14122,0.17586
1373.06969,0.18730
1374.99815,0.19565
1376.92662,0.19120
1378.85509,0.18186
1380.78356,0.17565
1382.71203,0.17616
1384.64050,0.18230
1386.56897,0.18683
1388.49743,0.18298
1390.42590,0.17932
1392.35437,0.18505
1394.28284,0.19460
1396.21131,0.19751
1398.13978,0.19255
1400.06825,0.18215
1401.99672,0.17309
1403.92518,0.17183
1405.85365,0.17684
1407.78212,0.18189
1409.71059,0.18353
1411.63906,0.18379
1413.56753,0.18748
1415.49600,0.19466
1417.42446,0.19985
1419.35293,0.19252
1421.28140,0.18232
1423.20987,0.18330
1425.13834,0.18616
1427.06681,0.18571
1428.99528,0.18630
1430.92375,0.18557
1432.85221,0.18423
1434.78068,0.18878
1436.70915,0.19469
1438.63762,0.19259
1440.56609,0.18838
1442.49456,0.18466
1444.42303,0.18125
1446.35149,0.18207
1448.27996,0.18861
1450.20843,0.19339
1452.13690,0.19386
1454.06537,0.19732
1455.99384,0.20845
1457.92231,0.21331
1459.85077,0.20033
1461.77924,0.18967
1463.70771,0.18834
1465.63618,0.19143
1467.56465,0.19118
1469.49312,0.19267
1471.42159,0.20050
1473.35006,0.20895
1475.27852,0.20711
1477.20699,0.19829
1479.13546,0.19230
1481.06393,0.19389
1482.99240,0.19696
1484.92087,0.19769
1486.84934,0.20224
1488.77780,0.21098
1490.70627,0.20832
1492.63474,0.19834
1494.56321,0.19826
1496.49168,0.20859
1498.42015,0.21163
1500.34862,0.20079
1502.27709,0.19400
1504.20555,0.20553
1506.13402,0.23561
1508.06249,0.23909
1509.99096,0.21858
1511.91943,0.20711
1513.84790,0.20655
1515.77637,0.21561
1517.70483,0.22711
1519.63330,0.23894
1521.56177,0.24325
1523.49024,0.23064
1525.41871,0.21848
1527.34718,0.20634
1529.27565,0.19413
1531.20412,0.19147
1533.13258,0.19844
1535.06105,0.20550
1536.98952,0.21310
1538.91799,0.23083
1540.84646,0.24784
1542.77493,0.23815
1544.70340,0.21841
1546.63186,0.20214
1548.56033,0.19529
1550.48880,0.19536
1552.41727,0.19975
1554.34574,0.20768
1556.27421,0.21799
1558.20268,0.22990
1560.13115,0.21996
1562.05961,0.20444
1563.98808,0.19866
1565.91655,0.19841
1567.84502,0.20316
1569.77349,0.20578
1571.70196,0.20038
1573.63043,0.19900
1575.55889,0.20178
1577.48736,0.19588
1579.41583,0.18639
1581.34430,0.18055
1583.27277,0.17747
1585.20124,0.17688
1587.12971,0.17964
1589.05818,0.18446
1590.98664,0.18766
1592.91511,0.18919
1594.84358,0.18893
1596.77205,0.18483
1598.70052,0.18024
1600.62899,0.17961
1602.55746,0.18140
1604.48592,0.18141
1606.41439,0.18052
1608.34286,0.18172
1610.27133,0.18326
1612.19980,0.18432
1614.12827,0.19026
1616.05674,0.20166
1617.98521,0.20309
1619.91367,0.19841
1621.84214,0.20048
1623.77061,0.20227
1625.69908,0.19949
1627.62755,0.19729
1629.55602,0.19349
1631.48449,0.19190
1633.41295,0.20045
1635.34142,0.21919
1637.26989,0.22120
1639.19836,0.20717
1641.12683,0.19937
1643.05530,0.20229
1644.98377,0.21794
1646.91223,0.23764
1648.84070,0.23727
1650.76917,0.23705
1652.69764,0.24808
1654.62611,0.23645
1656.55458,0.21720
1658.48305,0.20877
1660.41152,0.20793
1662.33998,0.20816
1664.26845,0.20350
1666.19692,0.20337
1668.12539,0.21326
1670.05386,0.22170
1671.98233,0.21940
1673.91080,0.21689
1675.83926,0.21227
1677.76773,0.20540
1679.69620,0.20554
1681.62467,0.21862
1683.55314,0.24038
1685.48161,0.23776
1687.41008,0.22090
1689.33855,0.21045
1691.26701,0.20322
1693.19548,0.20312
1695.12395,0.21609
1697.05242,0.23354
1698.98089,0.23763
1700.90936,0.22765
1702.83783,0.21777
1704.76629,0.21493
1706.69476,0.21142
1708.62323,0.20450
1710.55170,0.20151
1712.48017,0.20515
1714.40864,0.21429
1716.33711,0.22416
1718.26558,0.21886
1720.19404,0.20470
1722.12251,0.19624
1724.05098,0.19159
1725.97945,0.18871
1727.90792,0.18895
1729.83639,0.19224
1731.76486,0.19851
1733.69332,0.20568
1735.62179,0.20401
1737.55026,0.20019
1739.47873,0.20085
1741.40720,0.20422
1743.33567,0.20880
1745.26414,0.21265
1747.19261,0.21195
1749.12107,0.20578
1751.04954,0.19726
1752.97801,0.19161
1754.90648,0.19121
1756.83495,0.19450
1758.76342,0.19845
1760.69189,0.20118
1762.62035,0.19949
1764.54882,0.19692
1766.47729,0.19923
1768.40576,0.20314
1770.33423,0.20674
1772.26270,0.21037
1774.19117,0.20773
1776.11964,0.20234
1778.04810,0.19934
1779.97657,0.19784
1781.90504,0.19678
1783.83351,0.19670
1785.76198,0.19622
1787.69045,0.19487
1789.61892,0.19696
1791.54738,0.20237
1793.47585,0.20165
1795.40432,0.19665
1797.33279,0.19695
1799.26126,0.20195
1801.18973,0.20289
1803.11820,0.19841
1805.04666,0.19458
1806.97513,0.19198
1808.90360,0.19092
1810.83207,0.19100
1812.76054,0.19004
1814.68901,0.18944
1816.61748,0.18894
1818.54595,0.18765
1820.47441,0.18924
1822.40288,0.19479
1824.33135,0.19898
1826.25982,0.19955
1828.18829,0.20069
1830.11676,0.20040
1832.04523,0.19573
1833.97369,0.19257
1835.90216,0.19287
1837.83063,0.19305
1839.75910,0.19193
1841.68757,0.19258
1843.61604,0.19541
1845.54451,0.19606
1847.47298,0.19350
1849.40144,0.18986
1851.32991,0.18635
1853.25838,0.18462
1855.18685,0.18634
1857.11532,0.19051
1859.04379,0.19327
1860.97226,0.19266
1862.90072,0.19048
1864.82919,0.19209
1866.75766,0.19962
1868.68613,0.20479
1870.61460,0.20104
1872.54307,0.19466
1874.47154,0.19016
1876.40001,0.18865
1878.32847,0.18801
1880.25694,0.18685
1882.18541,0.18844
1884.11388,0.19250
1886.04235,0.19484
1887.97082,0.19591
1889.89929,0.19549
1891.82775,0.19192
1893.75622,0.18982
1895.68469,0.19064
1897.61316,0.19036
1899.54163,0.18955
1901.47010,0.18982
1903.39857,0.19000
1905.32704,0.19128
1907.25550,0.19458
1909.18397,0.19539
1911.11244,0.19125
1913.04091,0.18905
1914.96938,0.19272
1916.89785,0.19550
1918.82632,0.19380
1920.75478,0.19513
1922.68325,0.19816
1924.61172,0.19624
1926.54019,0.19356
1928.46866,0.19289
1930.39713,0.19200
1932.32560,0.19049
1934.25407,0.18896
1936.18253,0.18858
1938.11100,0.18988
1940.03947,0.19358
1941.96794,0.19820
1943.89641,0.19915
1945.82488,0.19659
1947.75335,0.19368
1949.68181,0.19194
1951.61028,0.19199
1953.53875,0.19210
1955.46722,0.19153
1957.39569,0.19114
1959.32416,0.19048
1961.25263,0.19130
1963.18110,0.19370
1965.10956,0.19366
1967.03803,0.19076
1968.96650,0.18758
1970.89497,0.18643
1972.82344,0.18798
1974.75191,0.18879
1976.68038,0.18791
1978.60884,0.18894
1980.53731,0.19090
1982.46578,0.19183
1984.39425,0.19163
1986.32272,0.19003
1988.25119,0.19049
1990.17966,0.19248
1992.10812,0.19096
1994.03659,0.18872
1995.96506,0.19023
1997.89353,0.19291
1999.82200,0.19399
2001.75047,0.19354
2003.67894,0.19068
2005.60741,0.18724
2007.53587,0.18823
2009.46434,0.19194
2011.39281,0.19322
2013.32128,0.19332
2015.24975,0.19472
2017.17822,0.19385
2019.10669,0.18860
2021.03515,0.18450
2022.96362,0.18523
2024.89209,0.18771
2026.82056,0.18810
2028.74903,0.18716
2030.67750,0.18796
2032.60597,0.18917
2034.53444,0.18907
2036.46290,0.18977
2038.39137,0.19113
2040.31984,0.19135
2042.24831,0.18978
2044.17678,0.18783
2046.10525,0.18829
2048.03372,0.19033
2049.96218,0.19156
2051.89065,0.19158
2053.81912,0.19111
2055.74759,0.19212
2057.67606,0.19458
2059.60453,0.19552
2061.53300,0.19424
2063.46147,0.19320
2065.38993,0.19401
2067.31840,0.19451
2069.24687,0.19279
2071.17534,0.19074
2073.10381,0.19033
2075.03228,0.19130
2076.96075,0.19278
2078.88921,0.19375
2080.81768,0.19310
2082.74615,0.19193
2084.67462,0.19194
2086.60309,0.19331
2088.53156,0.19555
2090.46003,0.19566
2092.38850,0.19262
2094.31696,0.19074
2096.24543,0.19246
2098.17390,0.19429
2100.10237,0.19282
2102.03084,0.19062
2103.95931,0.19099
2105.88778,0.19310
2107.81624,0.19444
2109.74471,0.19268
2111.67318,0.18822
2113.60165,0.18669
2115.53012,0.19116
2117.45859,0.19506
2119.38706,0.19295
2121.31553,0.18897
2123.24399,0.18870
2125.17246,0.19071
2127.10093,0.19199
2129.02940,0.19292
2130.95787,0.19246
2132.88634,0.19086
2134.81481,0.19153
2136.74327,0.19464
2138.67174,0.19646
2140.60021,0.19567
2142.52868,0.19449
2144.45715,0.19319
2146.38562,0.19135
2148.31409,0.19164
2150.24255,0.19408
2152.17102,0.19362
2154.09949,0.19051
2156.02796,0.19031
2157.95643,0.19263
2159.88490,0.19444
2161.81337,0.19488
2163.74184,0.19292
2165.67030,0.19057
2167.59877,0.19053
2169.52724,0.19200
2171.45571,0.19475
2173.38418,0.19812
2175.31265,0.19934
2177.24112,0.19717
2179.16958,0.19422
2181.09805,0.19297
2183.02652,0.19149
2184.95499,0.18959
2186.88346,0.18963
2188.81193,0.19050
2190.74040,0.19009
2192.66887,0.18877
2194.59733,0.18811
2196.52580,0.18911
2198.45427,0.19264
2200.38274,0.19715
2202.31121,0.19917
2204.23968,0.19866
2206.16815,0.19682
2208.09661,0.19364
2210.02508,0.19022
2211.95355,0.18784
2213.88202,0.18713
2215.81049,0.18874
2217.73896,0.19085
2219.66743,0.18999
2221.59590,0.18843
2223.52436,0.18978
2225.45283,0.19195
2227.38130,0.19316
2229.30977,0.19356
2231.23824,0.19412
2233.16671,0.19572
2235.09518,0.19588
2237.02364,0.19385
2238.95211,0.19194
2240.88058,0.19080
2242.80905,0.19027
2244.73752,0.19054
2246.66599,0.19065
2248.59446,0.18937
2250.52293,0.18859
2252.45139,0.19046
2254.37986,0.19242
2256.30833,0.19252
2258.23680,0.19297
2260.16527,0.19479
2262.09374,0.19635
2264.02221,0.19582
2265.95067,0.19428
2267.87914,0.19462
2269.80761,0.19529
2271.73608,0.19367
2273.66455,0.19080
2275.59302,0.18917
2277.52149,0.19085
2279.44996,0.19359
2281.37842,0.19383
2283.30689,0.19262
2285.23536,0.19151
2287.16383,0.19077
2289.09230,0.19096
2291.02077,0.19080
2292.94924,0.18979
2294.87770,0.19069
2296.80617,0.19283
2298.73464,0.19273
2300.66311,0.19107
2302.59158,0.18961
2304.52005,0.18826
2306.44852,0.18894
2308.37699,0.19187
2310.30545,0.19086
2312.23392,0.18632
2314.16239,0.18760
2316.09086,0.19419
2318.01933,0.19740
2319.94780,0.19439
2321.87627,0.19164
2323.80473,0.19274
2325.73320,0.18944
2327.66167,0.18363
2329.59014,0.18499
2331.51861,0.18797
2333.44708,0.18903
2335.37555,0.19593
2337.30401,0.20365
2339.23248,0.20464
2341.16095,0.20406
2343.08942,0.20010
2345.01789,0.19305
2346.94636,0.19484
2348.87483,0.20050
2350.80330,0.20104
2352.73176,0.20142
2354.66023,0.20709
2356.58870,0.19745
2358.51717,0.17527
2360.44564,0.17148
2362.37411,0.17685
2364.30258,0.17683
2366.23104,0.18218
2368.15951,0.19196
2370.08798,0.19579
2372.01645,0.19706
2373.94492,0.19570
2375.87339,0.19150
2377.80186,0.19118
2379.73033,0.19413
2381.65879,0.19417
2383.58726,0.19144
2385.51573,0.18903
2387.44420,0.18752
2389.37267,0.18688
2391.30114,0.18641
2393.22961,0.18679
2395.15807,0.18992
2397.08654,0.19383
2399.01501,0.19455
2400.94348,0.19172
2402.87195,0.19009
2404.80042,0.19202
2406.72889,0.19429
2408.65736,0.19546
2410.58582,0.19674
2412.51429,0.19600
2414.44276,0.19189
2416.37123,0.18952
2418.29970,0.19070
2420.22817,0.19230
2422.15664,0.19274
2424.08510,0.19139
2426.01357,0.18970
2427.94204,0.18912
2429.87051,0.18918
2431.79898,0.19010
2433.72745,0.19258
2435.65592,0.19507
2437.58439,0.19522
2439.51285,0.19441
2441.44132,0.19485
2443.36979,0.19646
2445.29826,0.19818
2447.22673,0.19731
2449.15520,0.19336
2451.08367,0.19018
2453.01213,0.18923
2454.94060,0.18962
2456.86907,0.19130
2458.79754,0.19309
2460.72601,0.19276
2462.65448,0.18955
2464.58295,0.18659
2466.51142,0.18712
2468.43988,0.18934
2470.36835,0.19035
2472.29682,0.19154
2474.22529,0.19340
2476.15376,0.19310
2478.08223,0.19250
2480.01070,0.19454
2481.93916,0.19639
2483.86763,0.19625
2485.79610,0.19507
2487.72457,0.19337
2489.65304,0.19281
2491.58151,0.19430
2493.50998,0.19613
2495.43844,0.19605
2497.36691,0.19476
2499.29538,0.19438
2501.22385,0.19415
2503.15232,0.19279
2505.08079,0.18994
2507.00926,0.18778
2508.93773,0.18960
2510.86619,0.19288
2512.79466,0.19444
2514.72313,0.19503
2516.65160,0.19578
2518.58007,0.19798
2520.50854,0.20059
2522.43701,0.20087
2524.36547,0.19820
2526.29394,0.19395
2528.22241,0.19151
2530.15088,0.19136
2532.07935,0.19007
2534.00782,0.18856
2535.93629,0.19060
2537.86476,0.19480
2539.79322,0.19692
2541.72169,0.19683
2543.65016,0.19648
2545.57863,0.19606
2547.50710,0.19509
2549.43557,0.19405
2551.36404,0.19396
2553.29250,0.19441
2555.22097,0.19573
2557.14944,0.19794
2559.07791,0.19868
2561.00638,0.19789
2562.93485,0.19738
2564.86332,0.19832
2566.79179,0.20161
2568.72025,0.20380
2570.64872,0.20101
2572.57719,0.19697
2574.50566,0.19615
2576.43413,0.19782
2578.36260,0.19855
2580.29107,0.19655
2582.21953,0.19406
2584.14800,0.19256
2586.07647,0.19111
2588.00494,0.18909
2589.93341,0.18782
2591.86188,0.19009
2593.79035,0.19392
2595.71882,0.19540
2597.64728,0.19551
2599.57575,0.19506
2601.50422,0.19465
2603.43269,0.19451
2605.36116,0.19394
2607.28963,0.19513
2609.21810,0.19695
2611.14656,0.19583
2613.07503,0.19239
2615.00350,0.19004
2616.93197,0.19132
2618.86044,0.19501
2620.78891,0.19873
2622.71738,0.20066
2624.64585,0.19998
2626.57431,0.19807
2628.50278,0.19662
2630.43125,0.19502
2632.35972,0.19332
2634.28819,0.19338
2636.21666,0.19466
2638.14513,0.19588
2640.07359,0.19627
2642.00206,0.19636
2643.93053,0.19795
2645.85900,0.19997
2647.78747,0.20064
2649.71594,0.20115
2651.64441,0.20259
2653.57288,0.20233
2655.50134,0.20024
2657.42981,0.19839
2659.35828,0.19547
2661.28675,0.19480
2663.21522,0.19858
2665.14369,0.19973
2667.07216,0.19686
2669.00062,0.19612
2670.92909,0.19719
2672.85756,0.19618
2674.78603,0.19543
2676.71450,0.19624
2678.64297,0.19631
2680.57144,0.19625
2682.49990,0.19560
2684.42837,0.19429
2686.35684,0.19475
2688.28531,0.19668
2690.21378,0.19877
2692.14225,0.20134
2694.07072,0.20401
2695.99919,0.20389
2697.92765,0.20081
2699.85612,0.19821
2701.78459,0.19738
2703.71306,0.19964
2705.64153,0.20322
2707.57000,0.20228
2709.49847,0.19901
2711.42693,0.19787
2713.35540,0.19584
2715.28387,0.19511
2717.21234,0.20152
2719.14081,0.20992
2721.06928,0.21241
2722.99775,0.20901
2724.92622,0.20338
2726.85468,0.20002
2728.78315,0.20102
2730.71162,0.20300
2732.64009,0.20244
2734.56856,0.20061
2736.49703,0.20088
2738.42550,0.20276
2740.35396,0.20288
2742.28243,0.20245
2744.21090,0.20433
2746.13937,0.20656
2748.06784,0.20723
2749.99631,0.20740
2751.92478,0.20685
2753.85325,0.20432
2755.78171,0.20097
2757.71018,0.20038
2759.63865,0.20406
2761.56712,0.20779
2763.49559,0.20787
2765.42406,0.20724
2767.35253,0.20838
2769.28099,0.20893
2771.20946,0.20915
2773.13793,0.21143
2775.06640,0.21290
2776.99487,0.20941
2778.92334,0.20376
2780.85181,0.20151
2782.78028,0.20326
2784.70874,0.20709
2786.63721,0.21097
2788.56568,0.21245
2790.49415,0.21116
2792.42262,0.21112
2794.35109,0.21376
2796.27956,0.21343
2798.20802,0.20921
2800.13649,0.20686
2802.06496,0.20702
2803.99343,0.20615
2805.92190,0.20435
2807.85037,0.20469
2809.77884,0.20746
2811.70731,0.20899
2813.63577,0.20836
2815.56424,0.20774
2817.49271,0.20733
2819.42118,0.20793
2821.34965,0.20825
2823.27812,0.20598
2825.20659,0.20369
2827.13505,0.20386
2829.06352,0.20731
2830.99199,0.21135
2832.92046,0.21139
2834.84893,0.20869
2836.77740,0.20684
2838.70587,0.20738
2840.63433,0.21044
2842.56280,0.21478
2844.49127,0.21722
2846.41974,0.21468
2848.34821,0.21040
2850.27668,0.20876
2852.20515,0.20763
2854.13362,0.20632
2856.06208,0.20621
2857.99055,0.20463
2859.91902,0.20128
2861.84749,0.20082
2863.77596,0.20452
2865.70443,0.20870
2867.63290,0.21177
2869.56136,0.21436
2871.48983,0.21375
2873.41830,0.20792
2875.34677,0.20212
2877.27524,0.20264
2879.20371,0.20714
2881.13218,0.20680
2883.06065,0.19957
2884.98911,0.19495
2886.91758,0.20033
2888.84605,0.21055
2890.77452,0.21492
2892.70299,0.20983
2894.63146,0.20238
2896.55993,0.20028
2898.48839,0.20146
2900.41686,0.20082
2902.34533,0.20008
2904.27380,0.20062
2906.20227,0.20020
2908.13074,0.19844
2910.05921,0.19770
2911.98768,0.20147
2913.91614,0.20454
2915.84461,0.20037
2917.77308,0.19762
2919.70155,0.20108
2921.63002,0.20298
2923.55849,0.19930
2925.48696,0.19287
2927.41542,0.19332
2929.34389,0.20194
2931.27236,0.20611
2933.20083,0.20313
2935.12930,0.19671
2937.05777,0.18956
2938.98624,0.19141
2940.91471,0.20119
2942.84317,0.20620
2944.77164,0.20171
2946.70011,0.19377
2948.62858,0.19495
2950.55705,0.20503
2952.48552,0.21078
2954.41399,0.20624
2956.34245,0.19179
2958.27092,0.18205
2960.19939,0.19130
2962.12786,0.20508
2964.05633,0.20708
2965.98480,0.19830
2967.91327,0.18925
2969.84174,0.19132
2971.77020,0.20018
2973.69867,0.20693
2975.62714,0.20674
2977.55561,0.19926
2979.48408,0.19774
2981.41255,0.20670
2983.34102,0.21450
2985.26948,0.21348
2987.19795,0.20516
2989.12642,0.20150
2991.05489,0.20786
2992.98336,0.21385
2994.91183,0.21629
2996.84030,0.21691
2998.76877,0.21288
3000.69723,0.20709
3002.62570,0.20451
3004.55417,0.20599
3006.48264,0.20827
3008.41111,0.20580
3010.33958,0.19473
3012.26805,0.17096
3014.19651,0.13424
3016.12498,0.10632
3018.05345,0.12004
3019.98192,0.16446
3021.91039,0.19719
3023.83886,0.21111
3025.76733,0.21777
3027.69579,0.21703
3029.62426,0.21345
3031.55273,0.21328
3033.48120,0.21619
3035.40967,0.21785
3037.33814,0.21479
3039.26661,0.21323
3041.19508,0.21897
3043.12354,0.22596
3045.05201,0.22350
3046.98048,0.21118
3048.90895,0.20490
3050.83742,0.21076
3052.76589,0.21529
3054.69436,0.20887
3056.62282,0.19570
3058.55129,0.19266
3060.47976,0.20425
3062.40823,0.21390
3064.33670,0.21021
3066.26517,0.19857
3068.19364,0.19440
3070.12211,0.20122
3072.05057,0.20963
3073.97904,0.20782
3075.90751,0.19543
3077.83598,0.19411
3079.76445,0.20557
3081.69292,0.20919
3083.62139,0.20012
3085.54985,0.19090
3087.47832,0.19559
3089.40679,0.20801
3091.33526,0.21282
3093.26373,0.20541
3095.19220,0.19690
3097.12067,0.19972
3099.04914,0.20721
3100.97760,0.20801
3102.90607,0.19925
3104.83454,0.19542
3106.76301,0.20615
3108.69148,0.21364
3110.61995,0.20558
3112.54842,0.19409
3114.47688,0.19441
3116.40535,0.20212
3118.33382,0.20356
3120.26229,0.19698
3122.19076,0.19226
3124.11923,0.19799
3126.04770,0.20852
3127.97617,0.21359
3129.90463,0.21219
3131.83310,0.21222
3133.76157,0.21643
3135.69004,0.21659
3137.61851,0.21066
3139.54698,0.20608
3141.47545,0.20631
3143.40391,0.20641
3145.33238,0.20331
3147.26085,0.20315
3149.18932,0.20867
3151.11779,0.21308
3153.04626,0.21435
3154.97473,0.21388
3156.90320,0.21180
3158.83166,0.21145
3160.76013,0.21096
3162.68860,0.20942
3164.61707,0.21106
3166.54554,0.21372
3168.47401,0.21705
3170.40248,0.22160
3172.33094,0.22292
3174.25941,0.22214
3176.18788,0.22072
3178.11635,0.21711
3180.04482,0.21472
3181.97329,0.21390
3183.90176,0.21036
3185.83022,0.20747
3187.75869,0.21059
3189.68716,0.21674
3191.61563,0.22212
3193.54410,0.22760
3195.47257,0.23324
3197.40104,0.23518
3199.32951,0.23101
3201.25797,0.22271
3203.18644,0.21429
3205.11491,0.21290
3207.04338,0.21997
3208.97185,0.22384
3210.90032,0.22012
3212.82879,0.21819
3214.75725,0.21948
3216.68572,0.21950
3218.61419,0.21909
3220.54266,0.21702
3222.47113,0.21204
3224.39960,0.20953
3226.32807,0.21240
3228.25654,0.21457
3230.18500,0.21224
3232.11347,0.21204
3234.04194,0.21641
3235.97041,0.21873
3237.89888,0.21758
3239.82735,0.21418
3241.75582,0.21020
3243.68428,0.21205
3245.61275,0.21737
3247.54122,0.21724
3249.46969,0.21345
3251.39816,0.21113
3253.32663,0.20955
3255.25510,0.20908
3257.18357,0.21198
3259.11203,0.21553
3261.04050,0.21775
3262.96897,0.21958
3264.89744,0.21754
3266.82591,0.21114
3268.75438,0.20821
3270.68285,0.21448
3272.61131,0.22452
3274.53978,0.22793
3276.46825,0.22355
3278.39672,0.21747
3280.32519,0.21412
3282.25366,0.21504
3284.18213,0.21780
3286.11060,0.22026
3288.03906,0.22295
3289.96753,0.22231
3291.89600,0.21576
3293.82447,0.20896
3295.75294,0.20540
3297.68141,0.20398
3299.60988,0.20367
3301.53834,0.20144
3303.46681,0.19753
3305.39528,0.19820
3307.32375,0.20493
3309.25222,0.21012
3311.18069,0.20894
3313.10916,0.20668
3315.03763,0.20671
3316.96609,0.20545
3318.89456,0.20317
3320.82303,0.20324
3322.75150,0.20443
3324.67997,0.20466
3326.60844,0.20469
3328.53691,0.20654
3330.46537,0.20927
3332.39384,0.21079
3334.32231,0.21339
3336.25078,0.21753
3338.17925,0.21852
3340.10772,0.21596
3342.03619,0.21476
3343.96466,0.21643
3345.89312,0.21858
3347.82159,0.22041
3349.75006,0.22176
3351.67853,0.22044
3353.60700,0.21605
3355.53547,0.21084
3357.46394,0.20707
3359.39240,0.20777
3361.32087,0.21184
3363.24934,0.21367
3365.17781,0.21176
3367.10628,0.20929
3369.03475,0.21019
3370.96322,0.21725
3372.89168,0.22542
3374.82015,0.22662
3376.74862,0.22446
3378.67709,0.22208
3380.60556,0.21560
3382.53403,0.21169
3384.46250,0.21665
3386.39097,0.22075
3388.31943,0.21594
3390.24790,0.20823
3392.17637,0.20448
3394.10484,0.20483
3396.03331,0.20793
3397.96178,0.21275
3399.89025,0.21798
3401.81871,0.22100
3403.74718,0.22024
3405.67565,0.21978
3407.60412,0.22263
3409.53259,0.22448
3411.46106,0.22108
3413.38953,0.21660
3415.31800,0.21471
3417.24646,0.21036
3419.17493,0.20538
3421.10340,0.20812
3423.03187,0.21432
3424.96034,0.21553
3426.88881,0.21175
3428.81728,0.20727
3430.74574,0.20705
3432.67421,0.21287
3434.60268,0.21838
3436.53115,0.21690
3438.45962,0.21032
3440.38809,0.20271
3442.31656,0.19912
3444.24503,0.20338
3446.17349,0.20927
3448.10196,0.20987
3450.03043,0.20899
3451.95890,0.20790
3453.88737,0.20345
3455.81584,0.19941
3457.74431,0.19887
3459.67277,0.20004
3461.60124,0.20134
3463.52971,0.20116
3465.45818,0.19928
3467.38665,0.19857
3469.31512,0.20167
3471.24359,0.20664
3473.17206,0.20890
3475.10052,0.20466
3477.02899,0.19755
3478.95746,0.19622
3480.88593,0.19824
3482.81440,0.19557
3484.74287,0.19206
3486.67134,0.19188
3488.59980,0.19086
3490.52827,0.18912
3492.45674,0.18958
3494.38521,0.18900
3496.31368,0.18571
3498.24215,0.18549
3500.17062,0.18819
3502.09909,0.18878
3504.02755,0.18616
3505.95602,0.18220
3507.88449,0.18498
3509.81296,0.19384
3511.74143,0.19451
3513.66990,0.18563
3515.59837,0.17933
3517.52683,0.18109
3519.45530,0.18503
3521.38377,0.18777
3523.31224,0.19032
3525.24071,0.19133
3527.16918,0.18950
3529.09765,0.18371
3531.02611,0.17702
3532.95458,0.17334
3534.88305,0.17138
3536.81152,0.16987
3538.73999,0.16819
3540.66846,0.16676
3542.59693,0.16933
3544.52540,0.17436
3546.45386,0.17742
3548.38233,0.17712
3550.31080,0.17170
3552.23927,0.16572
3554.16774,0.16461
3556.09621,0.16660
3558.02468,0.16892
3559.95314,0.16895
3561.88161,0.16925
3563.81008,0.17600
3565.73855,0.18499
3567.66702,0.17963
3569.59549,0.16433
3571.52396,0.15764
3573.45243,0.15905
3575.38089,0.16168
3577.30936,0.16395
3579.23783,0.16665
3581.16630,0.16754
3583.09477,0.16737
3585.02324,0.16647
3586.95171,0.16353
3588.88017,0.16236
3590.80864,0.16194
3592.73711,0.15968
3594.66558,0.15750
3596.59405,0.15728
3598.52252,0.16016
3600.45099,0.16292
3602.37946,0.16053
3604.30792,0.15740
3606.23639,0.16023
3608.16486,0.16560
3610.09333,0.16473
3612.02180,0.16107
3613.95027,0.15953
3615.87874,0.15900
3617.80720,0.16101
3619.73567,0.16327
3621.66414,0.15969
3623.59261,0.15660
3625.52108,0.16103
3627.44955,0.17174
3629.37802,0.17389
3631.30649,0.16327
3633.23495,0.15385
3635.16342,0.14557
3637.09189,0.14070
3639.02036,0.14252
3640.94883,0.14743
3642.87730,0.15161
3644.80577,0.16062
3646.73423,0.18166
3648.66270,0.20036
3650.59117,0.18410
3652.51964,0.16185
3654.44811,0.15228
3656.37658,0.14637
3658.30505,0.14159
3660.23352,0.14125
3662.16198,0.14151
3664.09045,0.13886
3666.01892,0.13702
3667.94739,0.14018
3669.87586,0.14234
3671.80433,0.13962
3673.73280,0.14954
3675.66126,0.16782
3677.58973,0.16356
3679.51820,0.14992
3681.44667,0.13916
3683.37514,0.13243
3685.30361,0.13255
3687.23208,0.13862
3689.16055,0.14528
3691.08901,0.14427
3693.01748,0.13901
3694.94595,0.13583
3696.87442,0.13594
3698.80289,0.13771
3700.73136,0.13834
3702.65983,0.13757
3704.58829,0.13891
3706.51676,0.14359
3708.44523,0.14926
3710.37370,0.15299
3712.30217,0.14794
3714.23064,0.13718
3716.15911,0.13218
3718.08757,0.13350
3720.01604,0.13730
3721.94451,0.14190
3723.87298,0.14556
3725.80145,0.14539
3727.72992,0.14379
3729.65839,0.14714
3731.58686,0.15681
3733.51532,0.16623
3735.44379,0.16628
3737.37226,0.15712
3739.30073,0.14696
3741.22920,0.13968
3743.15767,0.13709
3745.08614,0.14236
3747.01460,0.14720
3748.94307,0.14816
3750.87154,0.14362
3752.80001,0.12935
3754.72848,0.12302
3756.65695,0.12888
3758.58542,0.13804
3760.51389,0.14146
3762.44235,0.14007
3764.37082,0.13947
3766.29929,0.13857
3768.22776,0.13522
3770.15623,0.13284
3772.08470,0.13174
3774.01317,0.13288
3775.94163,0.14147
3777.87010,0.15478
3779.79857,0.15711
3781.72704,0.14579
3783.65551,0.13762
3785.58398,0.13494
3787.51245,0.12975
3789.44092,0.12336
3791.36938,0.12188
3793.29785,0.12537
3795.22632,0.13082
3797.15479,0.13454
3799.08326,0.13511
3801.01173,0.13645
3802.94020,0.13891
3804.86866,0.14302
3806.79713,0.14924
3808.72560,0.14650
3810.65407,0.13628
3812.58254,0.13027
3814.51101,0.13161
3816.43948,0.13563
3818.36795,0.13928
3820.29641,0.14606
3822.22488,0.14634
3824.15335,0.13769
3826.08182,0.13057
3828.01029,0.12707
3829.93876,0.12468
3831.86723,0.12101
3833.79569,0.12072
3835.72416,0.12386
3837.65263,0.12507
3839.58110,0.12935
3841.50957,0.13712
3843.43804,0.13891
3845.36651,0.13380
3847.29498,0.13121
3849.22344,0.13595
3851.15191,0.14835
3853.08038,0.16299
3855.00885,0.15074
3856.93732,0.13070
3858.86579,0.12363
3860.79426,0.12660
3862.72272,0.13357
3864.65119,0.14057
3866.57966,0.14421
3868.50813,0.14235
3870.43660,0.13790
3872.36507,0.13541
3874.29354,0.13187
3876.22200,0.12644
3878.15047,0.12472
3880.07894,0.12711
3882.00741,0.12782
3883.93588,0.12646
3885.86435,0.12483
3887.79282,0.12494
3889.72129,0.12673
3891.64975,0.12642
3893.57822,0.12528
3895.50669,0.12700
3897.43516,0.13244
3899.36363,0.13750
3901.29210,0.13220
3903.22057,0.12190
3905.14903,0.11780
3907.07750,0.11618
3909.00597,0.11486
3910.93444,0.11531
3912.86291,0.11550
3914.79138,0.11504
3916.71985,0.11493
3918.64832,0.11321
3920.57678,0.11284
3922.50525,0.11813
3924.43372,0.12104
3926.36219,0.11504
3928.29066,0.11121
3930.21913,0.11548
3932.14760,0.12136
3934.07606,0.12430
3936.00453,0.12398
3937.93300,0.12026
3939.86147,0.11579
3941.78994,0.11323
3943.71841,0.11203
3945.64688,0.11318
3947.57535,0.11516
3949.50381,0.11375
3951.43228,0.11234
3953.36075,0.11348
3955.28922,0.11335
3957.21769,0.11124
3959.14616,0.11122
3961.07463,0.11503
3963.00309,0.11694
3964.93156,0.11374
3966.86003,0.11232
3968.78850,0.11626
3970.71697,0.11737
3972.64544,0.11145
3974.57391,0.10630
3976.50238,0.10534
3978.43084,0.10605
3980.35931,0.10552
3982.28778,0.10307
3984.21625,0.10390
3986.14472,0.10620
3988.07319,0.10462
3990.00166,0.10291
3991.93012,0.10478
3993.85859,0.10705
3995.78706,0.10647
3997.71553,0.10517
3999.64400,0.10616
4001.57247,0.10840
4003.50094,0.10690
4005.42941,0.10123
4007.35787,0.09826
4009.28634,0.10085
4011.21481,0.10578
4013.14328,0.10813
4015.07175,0.10461
4017.00022,0.09865
4018.92869,0.09500
4020.85715,0.09346
4022.78562,0.09488
4024.71409,0.09913
4026.64256,0.10069
4028.57103,0.09784
4030.49950,0.09590
4032.42797,0.09916
4034.35644,0.10387
4036.28490,0.10388
4038.21337,0.10120
4040.14184,0.10030
4042.07031,0.10111
4043.99878,0.10107
4045.92725,0.09955
4047.85572,0.10037
4049.78418,0.10154
4051.71265,0.09580
4053.64112,0.08870
4055.56959,0.09086
4057.49806,0.09866
4059.42653,0.10245
4061.35500,0.10130
4063.28346,0.09913
4065.21193,0.09661
4067.14040,0.09585
4069.06887,0.09979
4070.99734,0.10350
4072.92581,0.10068
4074.85428,0.09596
4076.78275,0.09516
4078.71121,0.09517
4080.63968,0.09634
4082.56815,0.09896
4084.49662,0.09710
4086.42509,0.09312
4088.35356,0.09384
4090.28203,0.09818
4092.21049,0.10065
4094.13896,0.09755
4096.06743,0.09447
4097.99590,0.09878
4099.92437,0.10376
4101.85284,0.10322
4103.78131,0.10077
4105.70978,0.09938
4107.63824,0.09989
4109.56671,0.09931
4111.49518,0.09708
4113.42365,0.09505
4115.35212,0.09104
4117.28059,0.08525
4119.20906,0.07935
4121.13752,0.07755
4123.06599,0.08176
4124.99446,0.08442
4126.92293,0.08389
4128.85140,0.08390
4130.77987,0.08363
4132.70834,0.08468
4134.63681,0.08542
4136.56527,0.08272
4138.49374,0.08258
4140.42221,0.08689
4142.35068,0.08981
4144.27915,0.08859
4146.20762,0.08483
4148.13609,0.08380
4150.06455,0.08785
4151.99302,0.09092
4153.92149,0.08884
4155.84996,0.08790
4157.77843,0.09109
4159.70690,0.09006
4161.63537,0.08144
4163.56384,0.07372
4165.49230,0.07333
4167.42077,0.07826
4169.34924,0.08300
4171.27771,0.08426
4173.20618,0.08433
4175.13465,0.08550
4177.06312,0.08908
4178.99158,0.09318
4180.92005,0.09176
4182.84852,0.08436
4184.77699,0.07483
4186.70546,0.06834
4188.63393,0.06575
4190.56240,0.06292
4192.49087,0.06176
4194.41933,0.06489
4196.34780,0.07093
4198.27627,0.07504
4200.20474,0.07251
4202.13321,0.06855
4204.06168,0.06970
4205.99015,0.07634
4207.91861,0.08533
4209.84708,0.08865
4211.77555,0.08446
4213.70402,0.08000
4215.63249,0.07641
4217.56096,0.07346
4219.48943,0.07415
4221.41789,0.07630
4223.34636,0.07532
4225.27483,0.07016
4227.20330,0.06467
4229.13177,0.06171
4231.06024,0.06161
4232.98871,0.06683
4234.91718,0.07347
4236.84564,0.07264
4238.77411,0.06605
4240.70258,0.06197
4242.63105,0.06177
4244.55952,0.06255
4246.48799,0.06382
4248.41646,0.06522
4250.34492,0.06646
4252.27339,0.06730
4254.20186,0.06603
4256.13033,0.06169
4258.05880,0.05459
4259.98727,0.04713
4261.91574,0.04432
4263.84421,0.04837
4265.77267,0.05542
4267.70114,0.06071
4269.62961,0.06017
4271.55808,0.05282
4273.48655,0.04851
4275.41502,0.05473
4277.34349,0.06490
4279.27195,0.07307
4281.20042,0.07614
4283.12889,0.07048
4285.05736,0.06081
4286.98583,0.05437
4288.91430,0.05472
4290.84277,0.06290
4292.77124,0.07108
4294.69970,0.07137
4296.62817,0.06684
4298.55664,0.06259
4300.48511,0.06214
4302.41358,0.06565
4304.34205,0.06585
4306.27052,0.06035
4308.19898,0.05419
4310.12745,0.05151
4312.05592,0.05631
4313.98439,0.06374
4315.91286,0.06498
4317.84133,0.06229
4319.76980,0.06283
4321.69827,0.06889
4323.62673,0.07358
4325.55520,0.06962
4327.48367,0.06163
4329.41214,0.05882
4331.34061,0.06083
4333.26908,0.06097
4335.19755,0.05946
4337.12601,0.05898
4339.05448,0.05768
4340.98295,0.05455
4342.91142,0.04935
4344.83989,0.04594
4346.76836,0.04900
4348.69683,0.05121
4350.62530,0.04771
4352.55376,0.04606
4354.48223,0.04669
4356.41070,0.04292
4358.33917,0.03883
4360.26764,0.04158
4362.19611,0.04762
4364.12458,0.05145
4366.05304,0.05066
4367.98151,0.04263
4369.90998,0.03373
4371.83845,0.03394
4373.76692,0.03979
4375.69539,0.04297
4377.62386,0.04034
4379.55232,0.03521
4381.48079,0.03356
4383.40926,0.03629
4385.33773,0.04210
4387.26620,0.04578
4389.19467,0.04268
4391.12314,0.03686
4393.05161,0.03473
4394.98007,0.03755
4396.90854,0.03861
4398.83701,0.03770
4400.76548,0.04001
4402.69395,0.04171
4404.62242,0.04337
4406.55089,0.04710
4408.47935,0.04789
4410.40782,0.04528
4412.33629,0.03945
4414.26476,0.03131
4416.19323,0.02949
4418.12170,0.03389
4420.05017,0.03457
4421.97864,0.03095
4423.90710,0.02877
4425.83557,0.02894
4427.76404,0.02892
4429.69251,0.02723
4431.62098,0.02561
4433.54945,0.02662
4435.47792,0.02820
4437.40638,0.02545
4439.33485,0.02071
4441.26332,0.02035
4443.19179,0.02182
4445.12026,0.02248
4447.04873,0.02713
4448.97720,0.03406
4450.90567,0.03520
4452.83413,0.02967
4454.76260,0.02347
4456.69107,0.02119
4458.61954,0.02743
4460.54801,0.04117
4462.47648,0.04797
4464.40495,0.03955
4466.33341,0.02706
4468.26188,0.02188
4470.19035,0.02318
4472.11882,0.02645
4474.04729,0.02842
4475.97576,0.02432
4477.90423,0.01412
4479.83270,0.01162
4481.76116,0.02323
4483.68963,0.03433
4485.61810,0.03403
4487.54657,0.02472
4489.47504,0.02119
4491.40351,0.03135
4493.33198,0.03609
4495.26044,0.02437
4497.18891,0.01269
4499.11738,0.01611
4501.04585,0.02286
4502.97432,0.02149
4504.90279,0.02357
4506.83126,0.02711
4508.75973,0.02204
4510.68819,0.01890
4512.61666,0.02641
4514.54513,0.03497
4516.47360,0.03587
4518.40207,0.03591
4520.33054,0.03547
4522.25901,0.02649
4524.18747,0.01876
4526.11594,0.02151
4528.04441,0.02399
4529.97288,0.01779
4531.90135,0.01189
4533.82982,0.01680
4535.75829,0.02343
4537.68676,0.02154
4539.61522,0.01925
4541.54369,0.02121
4543.47216,0.02282
4545.40063,0.02181
4547.32910,0.01755
4549.25757,0.01467
4551.18604,0.01762
4553.11450,0.01993
4555.04297,0.01272
4556.97144,-0.00012
4558.89991,-0.00255
4560.82838,0.01039
4562.75685,0.02440
4564.68532,0.02823
4566.61378,0.02314
4568.54225,0.01386
4570.47072,0.00234
4572.39919,-0.00432
4574.32766,0.00240
4576.25613,0.01243
4578.18460,0.01715
4580.11307,0.01908
4582.04153,0.01281
4583.97000,0.00008
4585.89847,-0.01026
4587.82694,-0.01715
4589.75541,-0.01620
4591.68388,-0.00203
4593.61235,0.01408
4595.54081,0.01461
4597.46928,0.00445
4599.39775,-0.00001
4601.32622,-0.00082
4603.25469,-0.00177
4605.18316,0.00452
4607.11163,0.01195
4609.04010,0.00892
4610.96856,0.00115
4612.89703,-0.00348
4614.82550,-0.00516
4616.75397,-0.00209
4618.68244,0.00343
4620.61091,0.00540
4622.53938,0.00746
4624.46784,0.00878
4626.39631,0.00346
4628.32478,-0.00008
4630.25325,0.00613
4632.18172,0.01262
4634.11019,0.00900
4636.03866,0.00275
4637.96713,0.00365
4639.89559,0.00980
4641.82406,0.01446
4643.75253,0.01346
4645.68100,0.01019
4647.60947,0.00707
4649.53794,0.00585
4651.46641,0.00955
4653.39487,0.01546
4655.32334,0.02114
4657.25181,0.02110
4659.18028,0.00671
4661.10875,-0.01248
4663.03722,-0.01492
4664.96569,-0.00253
4666.89416,0.00707
4668.82262,0.01129
4670.75109,0.01318
4672.67956,0.01394
4674.60803,0.01965
4676.53650,0.02606
4678.46497,0.02561
4680.39344,0.02507
4682.32190,0.02499
4684.25037,0.01862
4686.17884,0.00978
4688.10731,0.00482
4690.03578,0.00223
4691.96425,0.00041
4693.89272,0.00521
4695.82119,0.01491
4697.74965,0.01859
4699.67812,0.01572
4701.60659,0.01452
4703.53506,0.01562
4705.46353,0.01157
4707.39200,0.00344
4709.32047,-0.00230
4711.24893,-0.00399
4713.17740,0.00106
4715.10587,0.00689
4717.03434,0.00371
4718.96281,-0.00208
4720.89128,-0.00570
4722.81975,-0.01139
4724.74821,-0.01121
4726.67668,0.00150
4728.60515,0.01134
4730.53362,0.00746
4732.46209,0.00139
4734.39056,0.00025
4736.31903,-0.00182
4738.24750,0.00144
4740.17596,0.01371
4742.10443,0.01396
4744.03290,-0.00073
4745.96137,-0.00698
4747.88984,0.00132
4749.81831,0.01272
4751.74678,0.01738
4753.67524,0.01581
4755.60371,0.01619
4757.53218,0.02194
4759.46065,0.02710
4761.38912,0.02330
4763.31759,0.00863
4765.24606,-0.00869
4767.17453,-0.01719
4769.10299,-0.01197
4771.03146,-0.00025
4772.95993,0.00177
4774.88840,-0.00303
4776.81687,0.00125
4778.74534,0.00663
4780.67381,0.00718
4782.60227,0.01208
4784.53074,0.01586
4786.45921,0.01908
4788.38768,0.02735
4790.31615,0.02457
4792.24462,0.01048
4794.17309,0.00567
4796.10156,0.01145
4798.03002,0.02026
4799.95849,0.02950
4801.88696,0.03239
4803.81543,0.02438
4805.74390,0.01513
4807.67237,0.01602
4809.60084,0.01861
4811.52930,0.01254
4813.45777,0.00041
4815.38624,-0.01228
4817.31471,-0.01710
4819.24318,-0.01124
4821.17165,-0.00315
4823.10012,0.00366
4825.02859,0.01489
4826.95705,0.02177
4828.88552,0.01300
4830.81399,0.00337
4832.74246,0.00601
4834.67093,0.01379
4836.59940,0.01383
4838.52787,0.00698
4840.45633,0.00693
4842.38480,0.01136
4844.31327,0.00163
4846.24174,-0.01429
4848.17021,-0.00513
4850.09868,0.01832
4852.02715,0.02074
4853.95562,0.00694
4855.88408,-0.00030
4857.81255,0.00354
4859.74102,0.00976
4861.66949,0.01175
4863.59796,0.00659
4865.52643,-0.00820
4867.45490,-0.01834
4869.38336,-0.00477
4871.31183,0.01416
4873.24030,0.01468
4875.16877,0.00922
4877.09724,0.00836
4879.02571,0.00604
4880.95418,0.00280
4882.88265,0.00137
4884.81111,-0.00152
4886.73958,-0.00099
4888.66805,0.00777
4890.59652,0.01469
4892.52499,0.01322
4894.45346,0.00641
4896.38193,0.00087
4898.31039,0.00229
4900.23886,0.00354
4902.16733,-0.00251
4904.09580,-0.00510
4906.02427,-0.00093
4907.95274,-0.00493
4909.88121,-0.01546
4911.80967,-0.01479
4913.73814,-0.00395
4915.66661,0.00130
4917.59508,-0.00253
4919.52355,-0.00905
4921.45202,-0.01215
4923.38049,-0.00573
4925.30896,0.00721
4927.23742,0.01564
4929.16589,0.01852
4931.09436,0.02315
4933.02283,0.02633
4934.95130,0.02175
4936.87977,0.01348
4938.80824,0.01023
4940.73670,0.01287
4942.66517,0.00941
4944.59364,-0.00073
4946.52211,-0.00323
4948.45058,0.00126
4950.37905,0.00154
4952.30752,0.00265
4954.23599,0.01459
4956.16445,0.02893
4958.09292,0.03114
4960.02139,0.02010
4961.94986,0.00998
4963.87833,0.00848
4965.80680,0.00778
4967.73527,0.00667
4969.66373,0.01297
4971.59220,0.02243
4973.52067,0.02056
4975.44914,0.00635
4977.37761,-0.00294
4979.30608,0.00639
4981.23455,0.02278
4983.16302,0.02774
4985.09148,0.02693
4987.01995,0.03402
4988.94842,0.04183
4990.87689,0.03626
4992.80536,0.02056
4994.73383,0.00572
4996.66230,-0.00217
4998.59076,-0.00705
5000.51923,-0.00650
5002.44770,0.01208
5004.37617,0.03051
5006.30464,0.02883
5008.23311,0.03052
5010.16158,0.04898
5012.09005,0.06784
5014.01851,0.07234
5015.94698,0.05423
5017.87545,0.02423
5019.80392,0.00499
5021.73239,0.00488
5023.66086,0.01355
5025.58933,0.02131
5027.51779,0.03294
5029.44626,0.03961
5031.37473,0.03043
5033.30320,0.02092
5035.23167,0.01693
5037.16014,0.01159
5039.08861,0.01643
5041.01708,0.03079
5042.94554,0.03717
5044.87401,0.03876
5046.80248,0.03754
5048.73095,0.02700
5050.65942,0.01242
5052.58789,0.00185
5054.51636,0.00043
5056.44482,0.00658
5058.37329,0.01093
5060.30176,0.01418
5062.23023,0.02605
5064.15870,0.03574
5066.08717,0.02597
5068.01564,0.01156
5069.94410,0.01164
5071.87257,0.01795
5073.80104,0.02431
5075.72951,0.02876
5077.65798,0.02823
5079.58645,0.03334
5081.51492,0.03756
5083.44339,0.03155
5085.37185,0.02522
5087.30032,0.01741
5089.22879,0.00761
5091.15726,0.00260
5093.08573,0.00338
5095.01420,0.00902
5096.94267,0.01167
5098.87113,0.00482
5100.79960,-0.00030
5102.72807,0.00360
5104.65654,0.01282
5106.58501,0.03136
5108.51348,0.04516
5110.44195,0.03222
5112.37042,0.01398
5114.29888,0.01718
5116.22735,0.02305
5118.15582,0.01848
5120.08429,0.01716
5122.01276,0.01621
5123.94123,0.01080
5125.86970,0.01218
5127.79816,0.01671
5129.72663,0.01105
5131.65510,0.00172
5133.58357,-0.00077
5135.51204,0.00200
5137.44051,0.01561
5139.36898,0.04563
5141.29745,0.07588
5143.22591,0.08039
5145.15438,0.05802
5147.08285,0.04148
5149.01132,0.04212
5150.93979,0.04234
5152.86826,0.03966
5154.79673,0.03341
5156.72519,0.01974
5158.65366,0.01520
5160.58213,0.03413
5162.51060,0.05749
5164.43907,0.05816
5166.36754,0.04346
5168.29601,0.03413
5170.22448,0.03153
5172.15294,0.03529
5174.08141,0.04663
5176.00988,0.05223
5177.93835,0.04882
5179.86682,0.04526
5181.79529,0.03682
5183.72376,0.02716
5185.65222,0.03234
5187.58069,0.04454
5189.50916,0.04683
5191.43763,0.04697
5193.36610,0.05227
5195.29457,0.05551
5197.22304,0.05403
5199.15151,0.04304
5201.07997,0.03265
5203.00844,0.04587
5204.93691,0.06640
5206.86538,0.06296
5208.79385,0.05238
5210.72232,0.05558
5212.65079,0.05613
5214.57925,0.04122
5216.50772,0.02391
5218.43619,0.01837
5220.36466,0.02250
5222.29313,0.03039
5224.22160,0.03641
5226.15007,0.04294
5228.07854,0.05791
5230.00700,0.07514
5231.93547,0.08364
5233.86394,0.07861
5235.79241,0.06704
5237.72088,0.06515
5239.64935,0.07564
5241.57782,0.07769
5243.50628,0.05514
5245.43475,0.02589
5247.36322,0.01931
5249.29169,0.03286
5251.22016,0.05187
5253.14863,0.07034
5255.07710,0.07619
5257.00556,0.06856
5258.93403,0.06235
5260.86250,0.06807
5262.79097,0.07410
5264.71944,0.05956
5266.64791,0.04433
5268.57638,0.04388
5270.50485,0.04685
5272.43331,0.04673
5274.36178,0.03789
5276.29025,0.02374
5278.21872,0.02466
5280.14719,0.05139
5282.07566,0.07385
5284.00413,0.07108
5285.93259,0.06307
5287.86106,0.05239
5289.78953,0.03388
5291.71800,0.03488
5293.64647,0.06136
5295.57494,0.07631
5297.50341,0.06379
5299.43188,0.04636
5301.36034,0.04278
5303.28881,0.04612
5305.21728,0.04483
5307.14575,0.04199
5309.07422,0.04729
5311.00269,0.05414
5312.93116,0.04949
5314.85962,0.04576
5316.78809,0.05641
5318.71656,0.06228
5320.64503,0.05355
5322.57350,0.04378
5324.50197,0.03639
5326.43044,0.02963
5328.35891,0.02665
5330.28737,0.01730
5332.21584,0.00539
5334.14431,0.01346
5336.07278,0.03412
5338.00125,0.05087
5339.92972,0.05545
5341.85819,0.04687
5343.78665,0.04044
5345.71512,0.04444
5347.64359,0.05129
5349.57206,0.06333
5351.50053,0.08150
5353.42900,0.08697
5355.35747,0.07404
5357.28594,0.07444
5359.21440,0.08937
5361.14287,0.08379
5363.07134,0.06564
5364.99981,0.06828
5366.92828,0.07539
5368.85675,0.06788
5370.78522,0.05458
5372.71368,0.05636
5374.64215,0.07526
5376.57062,0.06888
5378.49909,0.04563
5380.42756,0.04809
5382.35603,0.05567
5384.28450,0.04848
5386.21297,0.04746
5388.14143,0.05994
5390.06990,0.07403
5391.99837,0.09433
5393.92684,0.10048
5395.85531,0.06981
5397.78378,0.05347
5399.71225,0.08159
5401.64071,0.10341
5403.56918,0.08742
5405.49765,0.06868
5407.42612,0.07523
5409.35459,0.10138
5411.28306,0.12100
5413.21153,0.11380
5415.13999,0.10089
5417.06846,0.08841
5418.99693,0.06776
5420.92540,0.06098
5422.85387,0.07091
5424.78234,0.06793
5426.71081,0.05294
5428.63928,0.05060
5430.56774,0.06012
5432.49621,0.06473
5434.42468,0.07116
5436.35315,0.08271
5438.28162,0.07600
5440.21009,0.04654
5442.13856,0.02497
5444.06702,0.03588
5445.99549,0.05687
5447.92396,0.05809
5449.85243,0.05042
5451.78090,0.05432
5453.70937,0.07850
5455.63784,0.11685
5457.56631,0.13386
5459.49477,0.10441
5461.42324,0.06061
5463.35171,0.04116
5465.28018,0.03774
5467.20865,0.03942
5469.13712,0.05300
5471.06559,0.07338
5472.99405,0.08981
5474.92252,0.08988
5476.85099,0.07198
5478.77946,0.06385
5480.70793,0.07163
5482.63640,0.08063
5484.56487,0.08080
5486.49334,0.06231
5488.42180,0.04720
5490.35027,0.06539
5492.27874,0.09058
5494.20721,0.08220
5496.13568,0.05954
5498.06415,0.06114
5499.99262,0.07109
5501.92108,0.06013
5503.84955,0.04453
5505.77802,0.04650
5507.70649,0.06389
5509.63496,0.07811
5511.56343,0.09617
5513.49190,0.12117
5515.42037,0.12222
5517.34883,0.09806
5519.27730,0.08000
5521.20577,0.08107
5523.13424,0.08350
5525.06271,0.06529
5526.99118,0.03898
5528.91965,0.03074
5530.84811,0.03323
5532.77658,0.03363
5534.70505,0.04253
5536.63352,0.04979
5538.56199,0.04590
5540.49046,0.05505
5542.41893,0.07228
5544.34740,0.07786
5546.27586,0.08131
5548.20433,0.07676
5550.13280,0.06881
5552.06127,0.07655
5553.98974,0.09054
5555.91821,0.09145
5557.84668,0.07275
5559.77514,0.06088
5561.70361,0.06991
5563.63208,0.07160
5565.56055,0.06525
5567.48902,0.07327
5569.41749,0.08492
5571.34596,0.08085
5573.27443,0.05883
5575.20289,0.03920
5577.13136,0.05668
5579.05983,0.09177
5580.98830,0.09511
5582.91677,0.08274
5584.84524,0.07800
5586.77371,0.05775
5588.70217,0.03451
5590.63064,0.04397
5592.55911,0.07525
5594.48758,0.10360
5596.41605,0.11123
5598.34452,0.08627
5600.27299,0.06076
5602.20145,0.07509
5604.12992,0.09624
5606.05839,0.09134
5607.98686,0.09982
5609.91533,0.12775
5611.84380,0.12111
5613.77227,0.07986
5615.70074,0.06969
5617.62920,0.09225
5619.55767,0.08875
5621.48614,0.07018
5623.41461,0.07252
5625.34308,0.08505
5627.27155,0.08789
5629.20002,0.06783
5631.12848,0.04149
5633.05695,0.04187
5634.98542,0.06830
5636.91389,0.08119
5638.84236,0.06407
5640.77083,0.04279
5642.69930,0.03551
5644.62777,0.04584
5646.55623,0.07416
5648.48470,0.08731
5650.41317,0.05162
5652.34164,0.01192
5654.27011,0.02496
5656.19858,0.06871
5658.12705,0.09899
5660.05551,0.09876
5661.98398,0.07423
5663.91245,0.06864
5665.84092,0.09026
5667.76939,0.08914
5669.69786,0.06284
5671.62633,0.04624
5673.55480,0.05073
5675.48326,0.05318
5677.41173,0.03188
5679.34020,0.01653
5681.26867,0.03207
5683.19714,0.06303
5685.12561,0.08281
5687.05408,0.07976
5688.98254,0.06920
5690.91101,0.08093
5692.83948,0.12228
5694.76795,0.15135
5696.69642,0.14146
5698.62489,0.11309
5700.55336,0.07030
5702.48183,0.02841
5704.41029,0.01578
5706.33876,0.02750
5708.26723,0.06189
5710.19570,0.09092
5712.12417,0.07900
5714.05264,0.06108
5715.98111,0.06172
5717.90957,0.06307
5719.83804,0.06941
5721.76651,0.07142
5723.69498,0.04975
5725.62345,0.02009
5727.55192,-0.00452
5729.48039,-0.01624
5731.40886,0.00383
5733.33732,0.04225
5735.26579,0.06395
5737.19426,0.07531
5739.12273,0.10739
5741.05120,0.13719
5742.97967,0.12548
5744.90814,0.08352
5746.83660,0.05041
5748.76507,0.04706
5750.69354,0.06753
5752.62201,0.09750
5754.55048,0.12015
5756.47895,0.13017
5758.40742,0.13183
5760.33588,0.13306
5762.26435,0.13626
5764.19282,0.12413
5766.12129,0.10942
5768.04976,0.11862
5769.97823,0.13602
5771.90670,0.16137
5773.83517,0.19815
5775.76363,0.19709
5777.69210,0.13649
5779.62057,0.07363
5781.54904,0.06300
5783.47751,0.08618
5785.40598,0.09202
5787.33445,0.07000
5789.26291,0.04208
5791.19138,0.02175
5793.11985,0.02848
5795.04832,0.06503
5796.97679,0.08288
5798.90526,0.06744
5800.83373,0.06671
5802.76220,0.07426
5804.69066,0.06515
5806.61913,0.08326
5808.54760,0.12223
5810.47607,0.11448
5812.40454,0.07525
5814.33301,0.07171
5816.26148,0.09504
5818.18994,0.09402
5820.11841,0.08361
5822.04688,0.10768
5823.97535,0.13455
5825.90382,0.12943
5827.83229,0.10221
5829.76076,0.06772
5831.68923,0.03697
5833.61769,0.00563
5835.54616,-0.00660
5837.47463,0.01919
5839.40310,0.04528
5841.33157,0.04561
5843.26004,0.04204
5845.18851,0.04080
5847.11697,0.03082
5849.04544,0.04644
5850.97391,0.10322
5852.90238,0.13561
5854.83085,0.11813
5856.75932,0.08004
5858.68779,0.03722
5860.61626,0.00449
5862.54472,0.00706
5864.47319,0.04085
5866.40166,0.08148
5868.33013,0.09859
5870.25860,0.08297
5872.18707,0.08645
5874.11554,0.11733
5876.04400,0.12241
5877.97247,0.11184
5879.90094,0.10294
5881.82941,0.09213
5883.75788,0.09712
5885.68635,0.08977
5887.61482,0.06836
5889.54329,0.07423
5891.47175,0.08802
5893.40022,0.09675
5895.32869,0.11411
5897.25716,0.12802
5899.18563,0.12572
5901.11410,0.10144
5903.04257,0.06612
5904.97103,0.05559
5906.89950,0.07851
5908.82797,0.10375
5910.75644,0.10766
5912.68491,0.09724
5914.61338,0.08474
5916.54185,0.08386
5918.47032,0.10405
5920.39878,0.10521
5922.32725,0.06245
5924.25572,0.04000
5926.18419,0.05368
5928.11266,0.06139
5930.04113,0.06765
5931.96960,0.07333
5933.89806,0.08579
5935.82653,0.11383
5937.75500,0.10670
5939.68347,0.04709
5941.61194,0.00852
5943.54041,0.03649
5945.46888,0.07422
5947.39734,0.06665
5949.32581,0.03429
5951.25428,0.03162
5953.18275,0.06061
5955.11122,0.09984
5957.03969,0.11548
5958.96816,0.06469
5960.89663,0.00899
5962.82509,0.02286
5964.75356,0.06597
5966.68203,0.08504
5968.61050,0.07423
5970.53897,0.05279
5972.46744,0.03887
5974.39591,0.05117
5976.32437,0.08225
5978.25284,0.10487
5980.18131,0.11282
5982.10978,0.10759
5984.03825,0.10224
5985.96672,0.11027
5987.89519,0.11266
5989.82366,0.09239
5991.75212,0.05711
5993.68059,0.03943
5995.60906,0.06395
5997.53753,0.08394
5999.46600,0.07191
6001.39447,0.07325
6003.32294,0.10483
6005.25140,0.13048
6007.17987,0.12337
6009.10834,0.09989
6011.03681,0.10170
6012.96528,0.13254
6014.89375,0.14569
6016.82222,0.11614
6018.75069,0.06641
6020.67915,0.02859
6022.60762,0.02588
6024.53609,0.06012
6026.46456,0.10294
6028.39303,0.13091
6030.32150,0.15020
6032.24997,0.18145
6034.17843,0.19074
6036.10690,0.14350
6038.03537,0.09604
6039.96384,0.07305
6041.89231,0.04720
6043.82078,0.04089
6045.74925,0.09472
6047.67772,0.16110
6049.60618,0.13754
6051.53465,0.06021
6053.46312,0.02512
6055.39159,0.01498
6057.32006,0.00576
6059.24853,0.03199
6061.17700,0.08193
6063.10546,0.09591
6065.03393,0.07671
6066.96240,0.07820
6068.89087,0.11770
6070.81934,0.13983
6072.74781,0.08863
6074.67628,0.00494
6076.60475,-0.03314
6078.53321,0.00489
6080.46168,0.09379
6082.39015,0.16404
6084.31862,0.15777
6086.24709,0.07895
6088.17556,0.00196
6090.10403,-0.00023
6092.03249,0.05350
6093.96096,0.07444
6095.88943,0.04744
6097.81790,0.02572
6099.74637,0.01591
6101.67484,0.01673
6103.60331,0.04361
6105.53177,0.09471
6107.46024,0.12389
6109.38871,0.08228
6111.31718,0.02054
6113.24565,-0.01570
6115.17412,-0.03609
6117.10259,-0.02634
6119.03106,0.00770
6120.95952,0.05797
6122.88799,0.11933
6124.81646,0.15669
6126.74493,0.14467
6128.67340,0.07849
6130.60187,0.01066
6132.53034,-0.00809
6134.45880,0.00390
6136.38727,0.01138
6138.31574,0.01650
6140.24421,0.05395
6142.17268,0.10314
6144.10115,0.11206
6146.02962,0.08827
6147.95809,0.06876
6149.88655,0.06648
6151.81502,0.07716
6153.74349,0.10817
6155.67196,0.15137
6157.60043,0.17462
6159.52890,0.15118
6161.45737,0.09905
6163.38583,0.07789
6165.31430,0.08909
6167.24277,0.07573
6169.17124,0.04257
6171.09971,0.02771
6173.02818,0.03355
6174.95665,0.05506
6176.88512,0.08547
6178.81358,0.11328
6180.74205,0.12616
6182.67052,0.13753
6184.59899,0.18692
6186.52746,0.25298
6188.45593,0.26647
6190.38440,0.22681
6192.31286,0.17420
6194.24133,0.10741
6196.16980,0.03920
6198.09827,0.01302
6200.02674,0.03529
6201.95521,0.05911
6203.88368,0.07377
6205.81215,0.10585
6207.74061,0.13847
6209.66908,0.15432
6211.59755,0.13463
6213.52602,0.08783
6215.45449,0.06811
6217.38296,0.08874
6219.31143,0.12223
6221.23989,0.14229
6223.16836,0.14638
6225.09683,0.14802
6227.02530,0.11890
6228.95377,0.03785
6230.88224,-0.03187
6232.81071,-0.04194
6234.73918,-0.01262
6236.66764,0.03214
6238.59611,0.07230
6240.52458,0.13258
6242.45305,0.19197
6244.38152,0.15930
6246.30999,0.06395
6248.23846,-0.00073
6250.16692,0.01766
6252.09539,0.09596
6254.02386,0.12971
6255.95233,0.09129
6257.88080,0.04287
6259.80927,0.02943
6261.73774,0.05297
6263.66621,0.08681
6265.59467,0.09718
6267.52314,0.08808
6269.45161,0.07426
6271.38008,0.08340
6273.30855,0.14515
6275.23702,0.18997
6277.16549,0.16400
6279.09395,0.15151
6281.02242,0.17168
6282.95089,0.17036
6284.87936,0.13837
6286.80783,0.09518
6288.73630,0.05585
6290.66477,0.02453
6292.59323,0.02277
6294.52170,0.06276
6296.45017,0.09861
6298.37864,0.10044
6300.30711,0.07329
6302.23558,0.01305
6304.16405,-0.03159
6306.09252,0.01164
6308.02098,0.10647
6309.94945,0.15034
6311.87792,0.13074
6313.80639,0.11901
6315.73486,0.12662
6317.66333,0.10144
6319.59180,0.05730
6321.52026,0.05287
6323.44873,0.07705
6325.37720,0.09385
6327.30567,0.11318
6329.23414,0.12675
6331.16261,0.10533
6333.09108,0.05939
6335.01955,0.04783
6336.94801,0.08996
6338.87648,0.09187
6340.80495,0.03549
6342.73342,0.03361
6344.66189,0.09436
6346.59036,0.13980
6348.51883,0.14921
6350.44729,0.13403
6352.37576,0.09990
6354.30423,0.06692
6356.23270,0.05784
6358.16117,0.07038
6360.08964,0.06014
6362.01811,0.03424
6363.94658,0.07327
6365.87504,0.16371
6367.80351,0.18522
6369.73198,0.12808
6371.66045,0.08793
6373.58892,0.07604
6375.51739,0.05224
6377.44586,0.05201
6379.37432,0.08955
6381.30279,0.12506
6383.23126,0.14189
6385.15973,0.12130
6387.08820,0.06056
6389.01667,0.01281
6390.94514,0.01714
6392.87361,0.04935
6394.80207,0.06539
6396.73054,0.06755
6398.65901,0.08409
6400.58748,0.10981
6402.51595,0.08618
6404.44442,0.02682
6406.37289,0.03778
6408.30135,0.08294
6410.22982,0.05055
6412.15829,0.01378
6414.08676,0.02887
6416.01523,0.02922
6417.94370,0.03761
6419.87217,0.09699
6421.80064,0.12784
6423.72910,0.11376
6425.65757,0.10428
6427.58604,0.10462
6429.51451,0.10581
6431.44298,0.06676
6433.37145,-0.01168
6435.29992,-0.01127
6437.22838,0.08540
6439.15685,0.10772
6441.08532,0.03598
6443.01379,0.00165
6444.94226,0.00518
6446.87073,0.01906
6448.79920,0.04605
6450.72766,0.05919
6452.65613,0.07031
6454.58460,0.05436
6456.51307,0.00597
6458.44154,0.02308
6460.37001,0.08561
6462.29848,0.08407
6464.22695,0.04500
6466.15541,0.03169
6468.08388,0.06173
6470.01235,0.12186
6471.94082,0.13845
6473.86929,0.10517
6475.79776,0.04815
6477.72623,0.00999
6479.65469,0.03805
6481.58316,0.04504
6483.51163,-0.00908
6485.44010,-0.02941
6487.36857,-0.00861
6489.29704,-0.01909
6491.22551,-0.05000
6493.15398,-0.03452
6495.08244,0.03914
6497.01091,0.12339
6498.93938,0.17939
6500.86785,0.20788
6502.79632,0.18843
6504.72479,0.15792
6506.65326,0.15244
6508.58172,0.10677
6510.51019,0.02945
6512.43866,0.01264
6514.36713,0.05265
6516.29560,0.06953
6518.22407,0.05750
6520.15254,0.06015
6522.08101,0.08324
6524.00947,0.12439
6525.93794,0.14665
6527.86641,0.13154
6529.79488,0.10239
6531.72335,0.06306
6533.65182,0.03917
6535.58029,0.03056
6537.50875,0.04220
6539.43722,0.10462
6541.36569,0.16712
6543.29416,0.17880
6545.22263,0.17546
6547.15110,0.18225
6549.07957,0.14448
6551.00804,0.03905
6552.93650,-0.04381
6554.86497,-0.04404
6556.79344,-0.00766
6558.72191,-0.00655
6560.65038,-0.02923
6562.57885,-0.02258
6564.50732,0.00109
6566.43578,-0.01818
6568.36425,-0.04719
6570.29272,-0.00335
6572.22119,0.05064
6574.14966,0.04849
6576.07813,0.05298
6578.00660,0.08696
6579.93507,0.11294
6581.86353,0.10438
6583.79200,0.05004
6585.72047,0.00548
6587.64894,0.02892
6589.57741,0.05704
6591.50588,0.03037
6593.43435,0.00960
6595.36281,0.03543
6597.29128,0.08822
6599.21975,0.17477
6601.14822,0.24640
6603.07669,0.23142
6605.00516,0.14938
6606.93363,0.04739
6608.86210,-0.01407
6610.79056,-0.02284
6612.71903,-0.00683
6614.64750,0.03956
6616.57597,0.09213
6618.50444,0.10285
6620.43291,0.09076
6622.36138,0.06010
6624.28984,0.00389
6626.21831,-0.00945
6628.14678,-0.00013
6630.07525,-0.05662
6632.00372,-0.04992
6633.93219,0.09493
6635.86066,0.23327
6637.78912,0.26635
6639.71759,0.23032
6641.64606,0.18514
6643.57453,0.13559
6645.50300,0.06701
6647.43147,0.05250
6649.35994,0.10381
6651.28841,0.12661
6653.21687,0.08479
6655.14534,0.04069
6657.07381,0.10639
6659.00228,0.21766
6660.93075,0.20553
6662.85922,0.13543
6664.78769,0.10816
6666.71615,0.13565
6668.64462,0.21346
6670.57309,0.24788
6672.50156,0.18645
6674.43003,0.12989
6676.35850,0.15582
6678.28697,0.22421
6680.21544,0.22666
6682.14390,0.14941
6684.07237,0.08378
6686.00084,0.03036
6687.92931,-0.06425
6689.85778,-0.10218
6691.78625,-0.00826
6693.71472,0.09540
6695.64318,0.10722
6697.57165,0.05814
6699.50012,-0.00589
6701.42859,-0.06832
6703.35706,-0.04466
6705.28553,0.00604
6707.21400,-0.00308
6709.14247,-0.00042
6711.07093,-0.00893
6712.99940,-0.05520
6714.92787,-0.07034
6716.85634,-0.06017
6718.78481,-0.07390
6720.71328,-0.07595
6722.64175,-0.02462
6724.57021,0.07131
6726.49868,0.14867
6728.42715,0.13367
6730.35562,0.06671
6732.28409,0.04938
6734.21256,0.06787
6736.14103,0.07176
6738.06950,0.10439
6739.99796,0.16709
6741.92643,0.16262
6743.85490,0.13094
6745.78337,0.15339
6747.71184,0.14371
6749.64031,0.04945
6751.56878,-0.05467
6753.49724,-0.09282
6755.42571,-0.00057
6757.35418,0.17346
6759.28265,0.27515
6761.21112,0.21358
6763.13959,0.07804
6765.06806,-0.02407
6766.99653,-0.04139
6768.92499,-0.00859
6770.85346,-0.00300
6772.78193,0.00070
6774.71040,0.03194
6776.63887,0.02384
6778.56734,-0.03427
6780.49581,-0.05029
6782.42427,0.00001
6784.35274,0.02004
6786.28121,-0.00027
6788.20968,0.03396
6790.13815,0.11733
6792.06662,0.18407
6793.99509,0.19508
6795.92355,0.11872
6797.85202,0.02786
6799.78049,-0.00852
6801.70896,-0.06047
6803.63743,-0.14726
6805.56590,-0.20930
6807.49437,-0.22844
6809.42284,-0.16487
6811.35130,-0.05689
6813.27977,-0.01987
6815.20824,0.00946
6817.13671,0.08844
6819.06518,0.12228
6820.99365,0.11207
6822.92212,0.12128
6824.85058,0.13127
6826.77905,0.09124
6828.70752,0.01845
6830.63599,-0.03994
6832.56446,-0.05563
6834.49293,-0.01915
6836.42140,0.04356
6838.34987,0.07502
6840.27833,0.02863
6842.20680,-0.04637
6844.13527,-0.03873
6846.06374,0.04096
6847.99221,0.14000
6849.92068,0.21106
6851.84915,0.21980
6853.77761,0.18177
6855.70608,0.08703
6857.63455,0.01661
6859.56302,0.04263
6861.49149,0.10491
6863.41996,0.10586
6865.34843,0.04992
6867.27690,-0.00305
6869.20536,-0.04568
6871.13383,-0.03549
6873.06230,0.07309
6874.99077,0.14345
6876.91924,0.08628
6878.84771,0.01318
6880.77618,0.01785
6882.70464,0.03609
6884.63311,0.00402
6886.56158,-0.04800
6888.49005,-0.04595
6890.41852,-0.01108
6892.34699,-0.02208
6894.27546,-0.03859
6896.20393,0.01292
6898.13239,0.02869
6900.06086,-0.07709
6901.98933,-0.13062
6903.91780,-0.05478
6905.84627,0.02586
6907.77474,0.01310
6909.70321,-0.03130
6911.63167,0.00444
6913.56014,0.06563
6915.48861,0.04571
6917.41708,-0.00583
6919.34555,0.00590
6921.27402,0.14240
6923.20249,0.27855
6925.13096,0.24572
6927.05942,0.11160
6928.98789,0.05404
6930.91636,0.09605
6932.84483,0.12041
6934.77330,0.10566
6936.70177,0.10238
6938.63024,0.13394
6940.55870,0.19718
6942.48717,0.20049
6944.41564,0.10233
6946.34411,-0.00343
6948.27258,-0.06442
6950.20105,-0.10715
6952.12952,-0.10327
6954.05799,-0.03204
6955.98645,0.04944
6957.91492,0.06470
6959.84339,0.11364
6961.77186,0.26207
6963.70033,0.29278
6965.62880,0.12813
6967.55727,-0.04062
6969.48573,-0.03858
6971.41420,0.07873
6973.34267,0.13445
6975.27114,0.06446
6977.19961,-0.05858
6979.12808,-0.15601
6981.05655,-0.14530
6982.98501,0.03394
6984.91348,0.20989
6986.84195,0.18545
6988.77042,0.08109
6990.69889,0.09796
6992.62736,0.20967
6994.55583,0.28275
6996.48430,0.25592
6998.41276,0.13589
7000.34123,0.01797
7002.26970,-0.03411
7004.19817,-0.02389
7006.12664,0.12263
7008.05511,0.30375
7009.98358,0.33886
7011.91204,0.26468
7013.84051,0.10019
7015.76898,-0.05245
7017.69745,-0.09067
7019.62592,-0.04454
7021.55439,-0.02253
7023.48286,-0.05435
7025.41133,0.00483
7027.33979,0.11251
7029.26826,0.12726
7031.19673,0.15797
7033.12520,0.21094
7035.05367,0.14767
7036.98214,0.04264
7038.91061,0.02209
7040.83907,0.05460
7042.76754,0.06208
7044.69601,-0.01588
7046.62448,-0.04358
7048.55295,0.08718
7050.48142,0.17495
7052.40989,0.14960
7054.33836,0.16481
7056.26682,0.21793
7058.19529,0.14202
7060.12376,0.02400
7062.05223,0.01437
7063.98070,0.02600
7065.90917,0.01009
7067.83764,0.06457
7069.76610,0.17106
7071.69457,0.16850
7073.62304,0.12512
7075.55151,0.12596
7077.47998,0.09098
7079.40845,0.02420
7081.33692,0.00241
7083.26539,-0.00835
7085.19385,-0.06915
7087.12232,-0.09810
7089.05079,-0.06093
7090.97926,-0.03054
7092.90773,0.04289
7094.83620,0.12094
7096.76467,0.06834
7098.69313,-0.02808
7100.62160,-0.02344
7102.55007,0.01770
7104.47854,0.05378
7106.40701,0.11384
7108.33548,0.14565
7110.26395,0.11994
7112.19242,0.14485
7114.12088,0.20042
7116.04935,0.14696
7117.97782,0.07197
7119.90629,0.10437
7121.83476,0.12551
7123.76323,0.11858
7125.69170,0.12338
7127.62016,0.09231
7129.54863,-0.01644
7131.47710,-0.12457
7133.40557,-0.11526
7135.33404,0.01988
7137.26251,0.19329
7139.19098,0.23747
7141.11944,0.12615
7143.04791,0.13686
7144.97638,0.30485
7146.90485,0.34434
7148.83332,0.23122
7150.76179,0.11049
7152.69026,0.04309
7154.61873,0.07026
7156.54719,0.13527
7158.47566,0.09678
7160.40413,-0.00572
7162.33260,0.02371
7164.26107,0.19460
7166.18954,0.30261
7168.11801,0.23746
7170.04647,0.10241
7171.97494,-0.00207
7173.90341,-0.02342
7175.83188,0.05826
7177.76035,0.14784
7179.68882,0.19935
7181.61729,0.23998
7183.54576,0.22835
7185.47422,0.17410
7187.40269,0.15284
7189.33116,0.17180
7191.25963,0.11568
7193.18810,-0.03020
7195.11657,-0.10066
7197.04504,-0.04433
7198.97350,0.07772
7200.90197,0.14599
7202.83044,0.08869
7204.75891,-0.08136
7206.68738,-0.22415
7208.61585,-0.23055
7210.54432,-0.12918
7212.47279,-0.04408
7214.40125,-0.08203
7216.32972,-0.12242
7218.25819,0.03266
7220.18666,0.14190
7222.11513,0.05527
7224.04360,-0.05785
7225.97207,-0.01271
7227.90053,0.19363
7229.82900,0.25524
7231.75747,0.01957
7233.68594,-0.07707
7235.61441,0.03837
7237.54288,0.19788
7239.47135,0.32666
7241.39982,0.33018
7243.32828,0.25332
7245.25675,0.13832
7247.18522,-0.04114
7249.11369,-0.19071
7251.04216,-0.21971
7252.97063,-0.14353
7254.89910,-0.05371
7256.82756,0.00772
7258.75603,0.02636
7260.68450,0.01223
7262.61297,0.05094
7264.54144,0.07722
7266.46991,-0.05424
7268.39838,-0.14262
7270.32685,0.02146
7272.25531,0.28888
7274.18378,0.32845
7276.11225,0.26496
7278.04072,0.27271
7279.96919,0.29923
7281.89766,0.23688
7283.82613,0.19441
7285.75459,0.21317
7287.68306,0.19247
7289.61153,0.17758
7291.54000,0.21117
7293.46847,0.11026
7295.39694,-0.08932
7297.32541,-0.17505
7299.25387,-0.16784
7301.18234,-0.18908
7303.11081,-0.20599
7305.03928,-0.09141
7306.96775,0.08022
7308.89622,0.12732
7310.82469,0.07151
7312.75316,0.01508
7314.68162,0.00917
7316.61009,0.06057
7318.53856,0.16300
7320.46703,0.27110
7322.39550,0.23048
7324.32397,0.08683
7326.25244,-0.02874
7328.18090,-0.12809
7330.10937,-0.01018
7332.03784,0.27469
7333.96631,0.37995
7335.89478,0.28482
7337.82325,0.13750
7339.75172,-0.04719
7341.68019,-0.25880
7343.60865,-0.26053
7345.53712,0.01236
7347.46559,0.32202
7349.39406,0.42341
7351.32253,0.36421
7353.25100,0.28523
7355.17947,0.24816
7357.10793,0.32354
7359.03640,0.51037
7360.96487,0.52831
7362.89334,0.22787
7364.82181,-0.07176
7366.75028,-0.06628
7368.67875,0.01776
7370.60722,0.04607
7372.53568,0.17321
7374.46415,0.34033
7376.39262,0.27700
7378.32109,0.09506
7380.24956,0.03062
7382.17803,0.01284
7384.10650,-0.01756
7386.03496,0.07412
7387.96343,0.20396
7389.89190,0.20938
7391.82037,0.15935
7393.74884,0.11677
7395.67731,0.06789
7397.60578,0.04053
7399.53425,0.04505
7401.46271,0.02977
7403.39118,-0.01140
7405.31965,-0.02211
7407.24812,0.02490
7409.17659,-0.01474
7411.10506,-0.15337
7413.03353,-0.17757
7414.96199,-0.02271
7416.89046,0.14152
7418.81893,0.11236
7420.74740,0.06019
7422.67587,0.14469
7424.60434,0.15494
7426.53281,0.04244
7428.46128,-0.15499
7430.38974,-0.34712
7432.31821,-0.29059
7434.24668,-0.07754
7436.17515,0.07134
7438.10362,0.13290
7440.03209,0.15403
7441.96056,0.18508
7443.88902,0.21488
7445.81749,0.19120
7447.74596,0.13659
7449.67443,0.07684
7451.60290,0.07483
7453.53137,0.15282
7455.45984,0.19734
7457.38831,0.28153
7459.31677,0.41283
7461.24524,0.27968
7463.17371,0.02754
7465.10218,-0.11759
7467.03065,-0.14003
7468.95912,-0.00473
7470.88759,0.06567
7472.81605,0.00084
7474.74452,0.00958
7476.67299,0.03462
7478.60146,0.08552
7480.52993,0.24215
7482.45840,0.20330
7484.38687,-0.05401
7486.31533,-0.20312
7488.24380,-0.17892
7490.17227,-0.12087
7492.10074,-0.17374
7494.02921,-0.27471
7495.95768,-0.25704
7497.88615,-0.07233
