399.19301,0.35225
401.12148,0.34474
403.04995,0.32595
404.97842,0.26188
406.90689,0.17122
408.83536,0.05075
410.76382,0.05763
412.69229,0.19036
414.62076,0.19597
416.54923,0.05857
418.47770,-0.00986
420.40617,0.06775
422.33464,0.08964
424.26311,0.04628
426.19157,-0.00695
428.12004,-0.04334
430.04851,-0.08765
431.97698,-0.09599
433.90545,-0.01773
435.83392,0.04800
437.76239,0.03240
439.69085,-0.01076
441.61932,0.00866
443.54779,0.11102
445.47626,0.19313
447.40473,0.16552
449.33320,0.13254
451.26167,0.16834
453.19013,0.17506
455.11860,0.12336
457.04707,0.08955
458.97554,0.12119
460.90401,0.16186
462.83248,0.15789
464.76095,0.12605
466.68942,0.11766
468.61788,0.13897
470.54635,0.18923
472.47482,0.23277
474.40329,0.20653
476.33176,0.20292
478.26023,0.19235
480.18870,0.12714
482.11716,0.03634
484.04563,-0.01971
485.97410,-0.00866
487.90257,0.02245
489.83104,0.03557
491.75951,0.03061
493.68798,0.04222
495.61645,0.09497
497.54491,0.13391
499.47338,0.13295
501.40185,0.12863
503.33032,0.12757
505.25879,0.11457
507.18726,0.08261
509.11573,0.05171
511.04419,0.03512
512.97266,0.03587
514.90113,0.06430
516.82960,0.11523
518.75807,0.14435
520.68654,0.12668
522.61501,0.10956
524.54348,0.11022
526.47194,0.11673
528.40041,0.11173
530.32888,0.07072
532.25735,0.04812
534.18582,0.09146
536.11429,0.14304
538.04276,0.15771
539.97122,0.15079
541.89969,0.12687
543.82816,0.10209
545.75663,0.09813
547.68510,0.11188
549.61357,0.19629
551.54204,0.45021
553.47051,0.67293
555.39897,0.54625
557.32744,0.27249
559.25591,0.17599
561.18438,0.16363
563.11285,0.13134
565.04132,0.11471
566.96979,0.12309
568.89825,0.12640
570.82672,0.12165
572.75519,0.11407
574.68366,0.10374
576.61213,0.10567
578.54060,0.11248
580.46907,0.12412
582.39754,0.13907
584.32600,0.14084
586.25447,0.13471
588.18294,0.13147
590.11141,0.13137
592.03988,0.13205
593.96835,0.13151
595.89682,0.12856
597.82528,0.12246
599.75375,0.12615
601.68222,0.15060
603.61069,0.17313
605.53916,0.17436
607.46763,0.14974
609.39610,0.10674
611.32456,0.07778
613.25303,0.07685
615.18150,0.08009
617.10997,0.07524
619.03844,0.08395
620.96691,0.11253
622.89538,0.13789
624.82385,0.14557
626.75231,0.13858
628.68078,0.11844
630.60925,0.09838
632.53772,0.10290
634.46619,0.11946
636.39466,0.13136
638.32313,0.14775
640.25159,0.15815
642.18006,0.16011
644.10853,0.17024
646.03700,0.17403
647.96547,0.16392
649.89394,0.15037
651.82241,0.12092
653.75088,0.09659
655.67934,0.10966
657.60781,0.13798
659.53628,0.14996
661.46475,0.14104
663.39322,0.12892
665.32169,0.11787
667.25016,0.10277
669.17862,0.11475
671.10709,0.14032
673.03556,0.14607
674.96403,0.14612
676.89250,0.14543
678.82097,0.14046
680.74944,0.13418
682.67791,0.12796
684.60637,0.12979
686.53484,0.14017
688.46331,0.14095
690.39178,0.13559
692.32025,0.13854
694.24872,0.14122
696.17719,0.14233
698.10565,0.14096
700.03412,0.13152
701.96259,0.12185
703.89106,0.11767
705.81953,0.12492
707.74800,0.16021
709.67647,0.27077
711.60494,0.38675
713.53340,0.33722
715.46187,0.19783
717.39034,0.13931
719.31881,0.14280
721.24728,0.15216
723.17575,0.14915
725.10422,0.13729
727.03268,0.13365
728.96115,0.13597
730.88962,0.13037
732.81809,0.12024
734.74656,0.12186
736.67503,0.12840
738.60350,0.12248
740.53197,0.11173
742.46043,0.11252
744.38890,0.12370
746.31737,0.13679
748.24584,0.14172
750.17431,0.13542
752.10278,0.12972
754.03125,0.13673
755.95971,0.14805
757.88818,0.14684
759.81665,0.14403
761.74512,0.15140
763.67359,0.14906
765.60206,0.12787
767.53053,0.11383
769.45900,0.11349
771.38746,0.10998
773.31593,0.10906
775.24440,0.12000
777.17287,0.13267
779.10134,0.13373
781.02981,0.12435
782.95828,0.11480
784.88674,0.11346
786.81521,0.12117
788.74368,0.12351
790.67215,0.11400
792.60062,0.10898
794.52909,0.11735
796.45756,0.12840
798.38602,0.13626
800.31449,0.14674
802.24296,0.15902
804.17143,0.16325
806.09990,0.15879
808.02837,0.14579
809.95684,0.12499
811.88531,0.11711
813.81377,0.13133
815.74224,0.14200
817.67071,0.13402
819.59918,0.12555
821.52765,0.13173
823.45612,0.14790
825.38459,0.15780
827.31305,0.15100
829.24152,0.13981
831.16999,0.13745
833.09846,0.14448
835.02693,0.15436
836.95540,0.15042
838.88387,0.13137
840.81234,0.12283
842.74080,0.12995
844.66927,0.13842
846.59774,0.14616
848.52621,0.14875
850.45468,0.14596
852.38315,0.15068
854.31162,0.16248
856.24008,0.16365
858.16855,0.15302
860.09702,0.14886
862.02549,0.15591
863.95396,0.16561
865.88243,0.17151
867.81090,0.17830
869.73937,0.18770
871.66783,0.18197
873.59630,0.15822
875.52477,0.14166
877.45324,0.14161
879.38171,0.14081
881.31018,0.13774
883.23865,0.14462
885.16711,0.15603
887.09558,0.15982
889.02405,0.15653
890.95252,0.15411
892.88099,0.15065
894.80946,0.14337
896.73793,0.13618
898.66640,0.12783
900.59486,0.12274
902.52333,0.12739
904.45180,0.13611
906.38027,0.14023
908.30874,0.13698
910.23721,0.13362
912.16568,0.13785
914.09414,0.14400
916.02261,0.14713
917.95108,0.15111
919.87955,0.15067
921.80802,0.14031
923.73649,0.12954
925.66496,0.12889
927.59343,0.13468
929.52189,0.13811
931.45036,0.14547
933.37883,0.15844
935.30730,0.16301
937.23577,0.15697
939.16424,0.15061
941.09271,0.14693
943.02117,0.13992
944.94964,0.13401
946.87811,0.13613
948.80658,0.13576
950.73505,0.12908
952.66352,0.12907
954.59199,0.14234
956.52045,0.15476
958.44892,0.15054
960.37739,0.13979
962.30586,0.13983
964.23433,0.14768
966.16280,0.15189
968.09127,0.15064
970.01974,0.15121
971.94820,0.15702
973.87667,0.16014
975.80514,0.15687
977.73361,0.15181
979.66208,0.14618
981.59055,0.14636
983.51902,0.15609
985.44748,0.16367
987.37595,0.16574
989.30442,0.16821
991.23289,0.16748
993.16136,0.16216
995.08983,0.15677
997.01830,0.15181
998.94677,0.14985
1000.87523,0.15033
1002.80370,0.14625
1004.73217,0.14111
1006.66064,0.14314
1008.58911,0.14961
1010.51758,0.15935
1012.44605,0.17038
1014.37451,0.17258
1016.30298,0.16866
1018.23145,0.16556
1020.15992,0.16318
1022.08839,0.16150
1024.01686,0.15643
1025.94533,0.14941
1027.87380,0.14954
1029.80226,0.15883
1031.73073,0.16726
1033.65920,0.16817
1035.58767,0.16462
1037.51614,0.15750
1039.44461,0.14824
1041.37308,0.14215
1043.30154,0.14291
1045.23001,0.14693
1047.15848,0.14681
1049.08695,0.14518
1051.01542,0.15208
1052.94389,0.16159
1054.87236,0.16172
1056.80083,0.15949
1058.72929,0.16350
1060.65776,0.16918
1062.58623,0.16843
1064.51470,0.16090
1066.44317,0.15357
1068.37164,0.15041
1070.30011,0.15089
1072.22857,0.15691
1074.15704,0.16909
1076.08551,0.17508
1078.01398,0.17159
1079.94245,0.16866
1081.87092,0.16326
1083.79939,0.15550
1085.72786,0.15459
1087.65632,0.15720
1089.58479,0.15598
1091.51326,0.15326
1093.44173,0.15170
1095.37020,0.14731
1097.29867,0.14406
1099.22714,0.15474
1101.15560,0.17599
1103.08407,0.18792
1105.01254,0.18136
1106.94101,0.16957
1108.86948,0.16419
1110.79795,0.15814
1112.72642,0.14985
1114.65489,0.14973
1116.58335,0.15845
1118.51182,0.16731
1120.44029,0.17010
1122.36876,0.16952
1124.29723,0.16799
1126.22570,0.16187
1128.15417,0.15511
1130.08263,0.15205
1132.01110,0.14982
1133.93957,0.14978
1135.86804,0.15555
1137.79651,0.16233
1139.72498,0.16216
1141.65345,0.15864
1143.58191,0.15676
1145.51038,0.15609
1147.43885,0.15832
1149.36732,0.16234
1151.29579,0.16429
1153.22426,0.16514
1155.15273,0.16852
1157.08120,0.17032
1159.00966,0.16898
1160.93813,0.16968
1162.86660,0.16997
1164.79507,0.16913
1166.72354,0.16864
1168.65201,0.16757
1170.58048,0.16793
1172.50894,0.16741
1174.43741,0.16388
1176.36588,0.16007
1178.29435,0.15612
1180.22282,0.15387
1182.15129,0.15771
1184.07976,0.16483
1186.00823,0.16721
1187.93669,0.16478
1189.86516,0.16401
1191.79363,0.16414
1193.72210,0.16283
1195.65057,0.16072
1197.57904,0.15820
1199.50751,0.15886
1201.43597,0.16109
1203.36444,0.16181
1205.29291,0.16473
1207.22138,0.16749
1209.14985,0.16525
1211.07832,0.16197
1213.00679,0.16117
1214.93526,0.16150
1216.86372,0.16250
1218.79219,0.16378
1220.72066,0.16670
1222.64913,0.17146
1224.57760,0.17207
1226.50607,0.16825
1228.43454,0.16699
1230.36300,0.16855
1232.29147,0.16849
1234.21994,0.16772
1236.14841,0.16944
1238.07688,0.17049
1240.00535,0.16714
1241.93382,0.16212
1243.86229,0.15737
1245.79075,0.15379
1247.71922,0.15447
1249.64769,0.15727
1251.57616,0.15746
1253.50463,0.15720
1255.43310,0.15856
1257.36157,0.15825
1259.29003,0.15721
1261.21850,0.15793
1263.14697,0.15911
1265.07544,0.16056
1267.00391,0.15965
1268.93238,0.15694
1270.86085,0.15775
1272.78932,0.15906
1274.71778,0.15788
1276.64625,0.15784
1278.57472,0.15960
1280.50319,0.16139
1282.43166,0.16488
1284.36013,0.17005
1286.28860,0.17119
1288.21706,0.16855
1290.14553,0.16748
1292.07400,0.16599
1294.00247,0.16299
1295.93094,0.16168
1297.85941,0.15879
1299.78788,0.14877
1301.71634,0.13113
1303.64481,0.11455
1305.57328,0.11746
1307.50175,0.14000
1309.43022,0.15805
1311.35869,0.16458
1313.28716,0.16963
1315.21563,0.17356
1317.14409,0.17517
1319.07256,0.17503
1321.00103,0.17202
1322.92950,0.16909
1324.85797,0.16484
1326.78644,0.15780
1328.71491,0.15383
1330.64337,0.15302
1332.57184,0.15602
1334.50031,0.16355
1336.42878,0.16895
1338.35725,0.17018
1340.28572,0.17058
1342.21419,0.17937
1344.14266,0.19294
1346.07112,0.19114
1347.99959,0.17416
1349.92806,0.16205
1351.85653,0.16153
1353.78500,0.16433
1355.71347,0.16475
1357.64194,0.16446
1359.57040,0.16518
1361.49887,0.16748
1363.42734,0.17071
1365.35581,0.17233
1367.28428,0.17256
1369.21275,0.17364
1371.14122,0.17685
1373.06969,0.18203
1374.99815,0.18739
1376.92662,0.18881
1378.85509,0.18515
1380.78356,0.17920
1382.71203,0.17552
1384.64050,0.17620
1386.56897,0.17962
1388.49743,0.18328
1390.42590,0.18464
1392.35437,0.18384
1394.28284,0.18395
1396.21131,0.18729
1398.13978,0.18997
1400.06825,0.18645
1401.99672,0.18050
1403.92518,0.17709
1405.85365,0.17571
1407.78212,0.17838
1409.71059,0.18436
1411.63906,0.18775
1413.56753,0.18530
1415.49600,0.18062
1417.42446,0.18194
1419.35293,0.18772
1421.28140,0.18672
1423.20987,0.18338
1425.13834,0.17960
1427.06681,0.17712
1428.99528,0.18029
1430.92375,0.18207
1432.85221,0.18033
1434.78068,0.18275
1436.70915,0.18294
1438.63762,0.17680
1440.56609,0.17550
1442.49456,0.17868
1444.42303,0.18199
1446.35149,0.18577
1448.27996,0.19082
1450.20843,0.19309
1452.13690,0.19327
1454.06537,0.19757
1455.99384,0.20656
1457.92231,0.20742
1459.85077,0.19817
1461.77924,0.19312
1463.70771,0.19426
1465.63618,0.19581
1467.56465,0.19472
1469.49312,0.19893
1471.42159,0.21063
1473.35006,0.21688
1475.27852,0.20770
1477.20699,0.19707
1479.13546,0.19222
1481.06393,0.18937
1482.99240,0.18560
1484.92087,0.18641
1486.84934,0.19667
1488.77780,0.21246
1490.70627,0.21477
1492.63474,0.20345
1494.56321,0.19851
1496.49168,0.20343
1498.42015,0.20433
1500.34862,0.19191
1502.27709,0.17949
1504.20555,0.18743
1506.13402,0.22727
1508.06249,0.24289
1509.99096,0.21847
1511.91943,0.20294
1513.84790,0.20100
1515.77637,0.21053
1517.70483,0.21732
1519.63330,0.21438
1521.56177,0.21156
1523.49024,0.21213
1525.41871,0.21356
1527.34718,0.20916
1529.27565,0.20081
1531.20412,0.19784
1533.13258,0.19927
1535.06105,0.20094
1536.98952,0.20873
1538.91799,0.22809
1540.84646,0.24428
1542.77493,0.23599
1544.70340,0.21683
1546.63186,0.20022
1548.56033,0.19684
1550.48880,0.20068
1552.41727,0.20283
1554.34574,0.20514
1556.27421,0.20949
1558.20268,0.20965
1560.13115,0.19374
1562.05961,0.18793
1563.98808,0.19142
1565.91655,0.19450
1567.84502,0.19608
1569.77349,0.19507
1571.70196,0.18974
1573.63043,0.18848
1575.55889,0.19266
1577.48736,0.19196
1579.41583,0.18587
1581.34430,0.18221
1583.27277,0.18180
1585.20124,0.18231
1587.12971,0.18245
1589.05818,0.18323
1590.98664,0.18452
1592.91511,0.18455
1594.84358,0.18248
1596.77205,0.17934
1598.70052,0.17743
1600.62899,0.17805
1602.55746,0.18190
1604.48592,0.18725
1606.41439,0.18970
1608.34286,0.18874
1610.27133,0.18755
1612.19980,0.18794
1614.12827,0.19142
1616.05674,0.19722
1617.98521,0.19605
1619.91367,0.19384
1621.84214,0.20044
1623.77061,0.20752
1625.69908,0.20609
1627.62755,0.20142
1629.55602,0.19564
1631.48449,0.19277
1633.41295,0.19754
1635.34142,0.20902
1637.26989,0.20999
1639.19836,0.20040
1641.12683,0.19479
1643.05530,0.19876
1644.98377,0.21247
1646.91223,0.22434
1648.84070,0.22002
1650.76917,0.21744
1652.69764,0.22589
1654.62611,0.22133
1656.55458,0.20748
1658.48305,0.20339
1660.41152,0.20924
1662.33998,0.21596
1664.26845,0.21119
1666.19692,0.20561
1668.12539,0.21005
1670.05386,0.21563
1671.98233,0.21329
1673.91080,0.21200
1675.83926,0.21030
1677.76773,0.20528
1679.69620,0.20278
1681.62467,0.20873
1683.55314,0.22648
1685.48161,0.23221
1687.41008,0.21868
1689.33855,0.20474
1691.26701,0.19635
1693.19548,0.19867
1695.12395,0.20794
1697.05242,0.21332
1698.98089,0.21454
1700.90936,0.21092
1702.83783,0.20626
1704.76629,0.20709
1706.69476,0.20544
1708.62323,0.19850
1710.55170,0.19513
1712.48017,0.19934
1714.40864,0.20953
1716.33711,0.22028
1718.26558,0.21684
1720.19404,0.20317
1722.12251,0.19361
1724.05098,0.18936
1725.97945,0.18972
1727.90792,0.19421
1729.83639,0.20205
1731.76486,0.21175
1733.69332,0.21379
1735.62179,0.19829
1737.55026,0.18681
1739.47873,0.18703
1741.40720,0.19175
1743.33567,0.19358
1745.26414,0.19580
1747.19261,0.20425
1749.12107,0.21276
1751.04954,0.20607
1752.97801,0.19270
1754.90648,0.18835
1756.83495,0.18992
1758.76342,0.19040
1760.69189,0.19167
1762.62035,0.19452
1764.54882,0.19511
1766.47729,0.19543
1768.40576,0.19956
1770.33423,0.20757
1772.26270,0.21073
1774.19117,0.20419
1776.11964,0.19875
1778.04810,0.19806
1779.97657,0.19810
1781.90504,0.19512
1783.83351,0.19260
1785.76198,0.19219
1787.69045,0.19255
1789.61892,0.19661
1791.54738,0.20263
1793.47585,0.20159
1795.40432,0.19653
1797.33279,0.19555
1799.26126,0.19973
1801.18973,0.20300
1803.11820,0.19916
1805.04666,0.19340
1806.97513,0.19297
1808.90360,0.19667
1810.83207,0.19729
1812.76054,0.19293
1814.68901,0.18652
1816.61748,0.17944
1818.54595,0.17651
1820.47441,0.18118
1822.40288,0.19031
1824.33135,0.19724
1826.25982,0.19690
1828.18829,0.19582
1830.11676,0.19573
1832.04523,0.19003
1833.97369,0.18491
1835.90216,0.18693
1837.83063,0.19209
1839.75910,0.19438
1841.68757,0.19613
1843.61604,0.19875
1845.54451,0.19777
1847.47298,0.19528
1849.40144,0.19381
1851.32991,0.19144
1853.25838,0.18903
1855.18685,0.18901
1857.11532,0.19091
1859.04379,0.19195
1860.97226,0.19162
1862.90072,0.19172
1864.82919,0.19332
1866.75766,0.19684
1868.68613,0.19781
1870.61460,0.19175
1872.54307,0.18656
1874.47154,0.18645
1876.40001,0.18748
1878.32847,0.18680
1880.25694,0.18534
1882.18541,0.18485
1884.11388,0.18644
1886.04235,0.18967
1887.97082,0.19368
1889.89929,0.19485
1891.82775,0.19135
1893.75622,0.18919
1895.68469,0.19023
1897.61316,0.19142
1899.54163,0.19158
1901.47010,0.19044
1903.39857,0.18876
1905.32704,0.18854
1907.25550,0.19061
1909.18397,0.19218
1911.11244,0.19158
1913.04091,0.19104
1914.96938,0.19151
1916.89785,0.19206
1918.82632,0.19248
1920.75478,0.19490
1922.68325,0.19736
1924.61172,0.19558
1926.54019,0.19289
1928.46866,0.19259
1930.39713,0.19241
1932.32560,0.19183
1934.25407,0.19239
1936.18253,0.19265
1938.11100,0.19252
1940.03947,0.19491
1941.96794,0.19759
1943.89641,0.19520
1945.82488,0.19037
1947.75335,0.18794
1949.68181,0.18802
1951.61028,0.18986
1953.53875,0.19217
1955.46722,0.19254
1957.39569,0.19097
1959.32416,0.18890
1961.25263,0.18784
1963.18110,0.18995
1965.10956,0.19442
1967.03803,0.19737
1968.96650,0.19701
1970.89497,0.19498
1972.82344,0.19130
1974.75191,0.18575
1976.68038,0.18206
1978.60884,0.18405
1980.53731,0.18923
1982.46578,0.19010
1984.39425,0.18632
1986.32272,0.18542
1988.25119,0.18847
1990.17966,0.18997
1992.10812,0.18833
1994.03659,0.18746
1995.96506,0.18931
1997.89353,0.19185
1999.82200,0.19207
2001.75047,0.18876
2003.67894,0.18503
2005.60741,0.18433
2007.53587,0.18605
2009.46434,0.18790
2011.39281,0.18918
2013.32128,0.18998
2015.24975,0.19075
2017.17822,0.19182
2019.10669,0.19163
2021.03515,0.19092
2022.96362,0.19275
2024.89209,0.19510
2026.82056,0.19353
2028.74903,0.18987
2030.67750,0.18783
2032.60597,0.18610
2034.53444,0.18428
2036.46290,0.18587
2038.39137,0.19075
2040.31984,0.19466
2042.24831,0.19568
2044.17678,0.19416
2046.10525,0.19164
2048.03372,0.19068
2049.96218,0.19008
2051.89065,0.18842
2053.81912,0.18869
2055.74759,0.19073
2057.67606,0.19131
2059.60453,0.19148
2061.53300,0.19207
2063.46147,0.19105
2065.38993,0.18974
2067.31840,0.18999
2069.24687,0.19003
2071.17534,0.18855
2073.10381,0.18686
2075.03228,0.18704
2076.96075,0.18800
2078.88921,0.18764
2080.81768,0.18832
2082.74615,0.19141
2084.67462,0.19301
2086.60309,0.19165
2088.53156,0.19084
2090.46003,0.19188
2092.38850,0.19230
2094.31696,0.19158
2096.24543,0.19131
2098.17390,0.19191
2100.10237,0.19353
2102.03084,0.19577
2103.95931,0.19629
2105.88778,0.19570
2107.81624,0.19597
2109.74471,0.19451
2111.67318,0.19127
2113.60165,0.19030
2115.53012,0.19198
2117.45859,0.19249
2119.38706,0.19104
2121.31553,0.19099
2123.24399,0.19178
2125.17246,0.19201
2127.10093,0.19257
2129.02940,0.19240
2130.95787,0.19098
2132.88634,0.19010
2134.81481,0.19127
2136.74327,0.19240
2138.67174,0.19225
2140.60021,0.19280
2142.52868,0.19307
2144.45715,0.19124
2146.38562,0.18899
2148.31409,0.19035
2150.24255,0.19450
2152.17102,0.19529
2154.09949,0.19243
2156.02796,0.18980
2157.95643,0.18848
2159.88490,0.18852
2161.81337,0.18971
2163.74184,0.19173
2165.67030,0.19361
2167.59877,0.19370
2169.52724,0.19235
2171.45571,0.19143
2173.38418,0.19263
2175.31265,0.19504
2177.24112,0.19607
2179.16958,0.19581
2181.09805,0.19468
2183.02652,0.19279
2184.95499,0.19056
2186.88346,0.18838
2188.81193,0.18792
2190.74040,0.18935
2192.66887,0.19137
2194.59733,0.19288
2196.52580,0.19340
2198.45427,0.19353
2200.38274,0.19191
2202.31121,0.18822
2204.23968,0.18647
2206.16815,0.18903
2208.09661,0.19259
2210.02508,0.19296
2211.95355,0.19165
2213.88202,0.19110
2215.81049,0.19076
2217.73896,0.19080
2219.66743,0.19084
2221.59590,0.19066
2223.52436,0.19069
2225.45283,0.19026
2227.38130,0.18870
2229.30977,0.18710
2231.23824,0.18799
2233.16671,0.19049
2235.09518,0.19278
2237.02364,0.19501
2238.95211,0.19559
2240.88058,0.19461
2242.80905,0.19430
2244.73752,0.19381
2246.66599,0.19148
2248.59446,0.18858
2250.52293,0.18708
2252.45139,0.18714
2254.37986,0.18740
2256.30833,0.18724
2258.23680,0.18786
2260.16527,0.18826
2262.09374,0.18669
2264.02221,0.18528
2265.95067,0.18573
2267.87914,0.18613
2269.80761,0.18591
2271.73608,0.18701
2273.66455,0.18968
2275.59302,0.19169
2277.52149,0.19213
2279.44996,0.19233
2281.37842,0.19248
2283.30689,0.19191
2285.23536,0.19157
2287.16383,0.19241
2289.09230,0.19437
2291.02077,0.19439
2292.94924,0.18897
2294.87770,0.18566
2296.80617,0.19052
2298.73464,0.19280
2300.66311,0.18828
2302.59158,0.18544
2304.52005,0.18545
2306.44852,0.18452
2308.37699,0.18317
2310.30545,0.18288
2312.23392,0.18282
2314.16239,0.18367
2316.09086,0.18507
2318.01933,0.18305
2319.94780,0.18010
2321.87627,0.18414
2323.80473,0.19049
2325.73320,0.18634
2327.66167,0.17620
2329.59014,0.17829
2331.51861,0.19462
2333.44708,0.20117
2335.37555,0.18841
2337.30401,0.17062
2339.23248,0.15881
2341.16095,0.16234
2343.08942,0.17868
2345.01789,0.18604
2346.94636,0.17969
2348.87483,0.17111
2350.80330,0.16301
2352.73176,0.15663
2354.66023,0.15440
2356.58870,0.15016
2358.51717,0.14951
2360.44564,0.16545
2362.37411,0.18261
2364.30258,0.18608
2366.23104,0.19276
2368.15951,0.20882
2370.08798,0.20939
2372.01645,0.19805
2373.94492,0.19172
2375.87339,0.18973
2377.80186,0.19006
2379.73033,0.19051
2381.65879,0.19056
2383.58726,0.19113
2385.51573,0.18976
2387.44420,0.18781
2389.37267,0.18914
2391.30114,0.19171
2393.22961,0.19292
2395.15807,0.19282
2397.08654,0.19180
2399.01501,0.19246
2400.94348,0.19390
2402.87195,0.19236
2404.80042,0.18989
2406.72889,0.18980
2408.65736,0.19211
2410.58582,0.19430
2412.51429,0.19384
2414.44276,0.19186
2416.37123,0.19054
2418.29970,0.19042
2420.22817,0.19119
2422.15664,0.19175
2424.08510,0.19266
2426.01357,0.19540
2427.94204,0.19739
2429.87051,0.19648
2431.79898,0.19452
2433.72745,0.19255
2435.65592,0.19102
2437.58439,0.19063
2439.51285,0.19085
2441.44132,0.19061
2443.36979,0.18951
2445.29826,0.18976
2447.22673,0.19275
2449.15520,0.19352
2451.08367,0.18928
2453.01213,0.18501
2454.94060,0.18500
2456.86907,0.18762
2458.79754,0.18853
2460.72601,0.18797
2462.65448,0.18862
2464.58295,0.19071
2466.51142,0.19424
2468.43988,0.19797
2470.36835,0.20042
2472.29682,0.20092
2474.22529,0.19900
2476.15376,0.19687
2478.08223,0.19708
2480.01070,0.19830
2481.93916,0.19803
2483.86763,0.19659
2485.79610,0.19591
2487.72457,0.19555
2489.65304,0.19328
2491.58151,0.19032
2493.50998,0.18927
2495.43844,0.19053
2497.36691,0.19359
2499.29538,0.19508
2501.22385,0.19325
2503.15232,0.19183
2505.08079,0.19304
2507.00926,0.19447
2508.93773,0.19402
2510.86619,0.19292
2512.79466,0.19293
2514.72313,0.19354
2516.65160,0.19354
2518.58007,0.19288
2520.50854,0.19265
2522.43701,0.19389
2524.36547,0.19429
2526.29394,0.19112
2528.22241,0.18752
2530.15088,0.18860
2532.07935,0.19304
2534.00782,0.19393
2535.93629,0.19130
2537.86476,0.19131
2539.79322,0.19408
2541.72169,0.19485
2543.65016,0.19191
2545.57863,0.18950
2547.50710,0.19066
2549.43557,0.19209
2551.36404,0.19206
2553.29250,0.19324
2555.22097,0.19566
2557.14944,0.19603
2559.07791,0.19376
2561.00638,0.19214
2562.93485,0.19396
2564.86332,0.19698
2566.79179,0.19743
2568.72025,0.19591
2570.64872,0.19579
2572.57719,0.19841
2574.50566,0.20020
2576.43413,0.19873
2578.36260,0.19600
2580.29107,0.19325
2582.21953,0.19088
2584.14800,0.19073
2586.07647,0.19280
2588.00494,0.19400
2589.93341,0.19415
2591.86188,0.19433
2593.79035,0.19253
2595.71882,0.19089
2597.64728,0.19325
2599.57575,0.19560
2601.50422,0.19541
2603.43269,0.19630
2605.36116,0.19783
2607.28963,0.19965
2609.21810,0.20328
2611.14656,0.20435
2613.07503,0.20123
2615.00350,0.19899
2616.93197,0.19962
2618.86044,0.20110
2620.78891,0.20064
2622.71738,0.19755
2624.64585,0.19526
2626.57431,0.19632
2628.50278,0.19783
2630.43125,0.19655
2632.35972,0.19480
2634.28819,0.19620
2636.21666,0.19844
2638.14513,0.19726
2640.07359,0.19483
2642.00206,0.19392
2643.93053,0.19346
2645.85900,0.19427
2647.78747,0.19638
2649.71594,0.19704
2651.64441,0.19657
2653.57288,0.19856
2655.50134,0.20232
2657.42981,0.20310
2659.35828,0.20167
2661.28675,0.20105
2663.21522,0.20052
2665.14369,0.20015
2667.07216,0.20141
2669.00062,0.20270
2670.92909,0.20028
2672.85756,0.19483
2674.78603,0.19165
2676.71450,0.19283
2678.64297,0.19500
2680.57144,0.19638
2682.49990,0.19880
2684.42837,0.20090
2686.35684,0.19958
2688.28531,0.19769
2690.21378,0.19905
2692.14225,0.20017
2694.07072,0.19721
2695.99919,0.19488
2697.92765,0.19689
2699.85612,0.19768
2701.78459,0.19496
2703.71306,0.19443
2705.64153,0.19818
2707.57000,0.20223
2709.49847,0.20265
2711.42693,0.20076
2713.35540,0.20063
2715.28387,0.20275
2717.21234,0.20559
2719.14081,0.20685
2721.06928,0.20419
2722.99775,0.20065
2724.92622,0.19940
2726.85468,0.19841
2728.78315,0.19883
2730.71162,0.20196
2732.64009,0.20448
2734.56856,0.20499
2736.49703,0.20263
2738.42550,0.19897
2740.35396,0.19865
2742.28243,0.20016
2744.21090,0.19974
2746.13937,0.19938
2748.06784,0.20191
2749.99631,0.20503
2751.92478,0.20583
2753.85325,0.20606
2755.78171,0.20657
2757.71018,0.20608
2759.63865,0.20627
2761.56712,0.20751
2763.49559,0.20725
2765.42406,0.20626
2767.35253,0.20703
2769.28099,0.20909
2771.20946,0.21072
2773.13793,0.21231
2775.06640,0.21249
2776.99487,0.20745
2778.92334,0.20158
2780.85181,0.20319
2782.78028,0.20878
2784.70874,0.20968
2786.63721,0.20603
2788.56568,0.20403
2790.49415,0.20437
2792.42262,0.20308
2794.35109,0.20288
2796.27956,0.20595
2798.20802,0.20791
2800.13649,0.20757
2802.06496,0.20797
2803.99343,0.21116
2805.92190,0.21332
2807.85037,0.21071
2809.77884,0.20802
2811.70731,0.20812
2813.63577,0.20758
2815.56424,0.20561
2817.49271,0.20290
2819.42118,0.19955
2821.34965,0.19758
2823.27812,0.19663
2825.20659,0.19765
2827.13505,0.20334
2829.06352,0.20899
2830.99199,0.21054
2832.92046,0.21083
2834.84893,0.21042
2836.77740,0.20788
2838.70587,0.20603
2840.63433,0.20598
2842.56280,0.20581
2844.49127,0.20617
2846.41974,0.20770
2848.34821,0.21035
2850.27668,0.21410
2852.20515,0.21589
2854.13362,0.21263
2856.06208,0.20761
2857.99055,0.20601
2859.91902,0.20764
2861.84749,0.20873
2863.77596,0.20777
2865.70443,0.20802
2867.63290,0.20973
2869.56136,0.21063
2871.48983,0.21190
2873.41830,0.21291
2875.34677,0.21231
2877.27524,0.21056
2879.20371,0.20854
2881.13218,0.20835
2883.06065,0.20864
2884.98911,0.20710
2886.91758,0.20671
2888.84605,0.20722
2890.77452,0.20557
2892.70299,0.20470
2894.63146,0.20490
2896.55993,0.20356
2898.48839,0.20381
2900.41686,0.20614
2902.34533,0.20570
2904.27380,0.19928
2906.20227,0.19177
2908.13074,0.19425
2910.05921,0.20307
2911.98768,0.20329
2913.91614,0.19439
2915.84461,0.18609
2917.77308,0.18444
2919.70155,0.18794
2921.63002,0.19371
2923.55849,0.20162
2925.48696,0.20615
2927.41542,0.20638
2929.34389,0.20679
2931.27236,0.20553
2933.20083,0.20357
2935.12930,0.19919
2937.05777,0.19056
2938.98624,0.18878
2940.91471,0.19682
2942.84317,0.20429
2944.77164,0.20176
2946.70011,0.19055
2948.62858,0.18670
2950.55705,0.19305
2952.48552,0.19708
2954.41399,0.19519
2956.34245,0.18676
2958.27092,0.18188
2960.19939,0.19317
2962.12786,0.20863
2964.05633,0.21334
2965.98480,0.20788
2967.91327,0.19963
2969.84174,0.19841
2971.77020,0.20508
2973.69867,0.21137
2975.62714,0.21008
2977.55561,0.20186
2979.48408,0.19818
2981.41255,0.20250
2983.34102,0.20552
2985.26948,0.20370
2987.19795,0.20030
2989.12642,0.20190
2991.05489,0.21002
2992.98336,0.21660
2994.91183,0.21817
2996.84030,0.21549
2998.76877,0.21083
3000.69723,0.20952
3002.62570,0.21031
3004.55417,0.20737
3006.48264,0.20017
3008.41111,0.19291
3010.33958,0.18416
3012.26805,0.16373
3014.19651,0.12742
3016.12498,0.09821
3018.05345,0.11192
3019.98192,0.15852
3021.91039,0.19285
3023.83886,0.20351
3025.76733,0.20390
3027.69579,0.20153
3029.62426,0.20350
3031.55273,0.20924
3033.48120,0.21065
3035.40967,0.20824
3037.33814,0.20622
3039.26661,0.20754
3041.19508,0.21177
3043.12354,0.21347
3045.05201,0.21026
3046.98048,0.20463
3048.90895,0.20278
3050.83742,0.20584
3052.76589,0.20821
3054.69436,0.20639
3056.62282,0.20147
3058.55129,0.20086
3060.47976,0.20458
3062.40823,0.20592
3064.33670,0.20338
3066.26517,0.19755
3068.19364,0.19722
3070.12211,0.20659
3072.05057,0.21143
3073.97904,0.20143
3075.90751,0.18919
3077.83598,0.19212
3079.76445,0.20283
3081.69292,0.20474
3083.62139,0.19585
3085.54985,0.18846
3087.47832,0.19350
3089.40679,0.20019
3091.33526,0.19846
3093.26373,0.19043
3095.19220,0.18540
3097.12067,0.19641
3099.04914,0.21254
3100.97760,0.21226
3102.90607,0.19739
3104.83454,0.19276
3106.76301,0.20621
3108.69148,0.21683
3110.61995,0.21413
3112.54842,0.20734
3114.47688,0.20899
3116.40535,0.21611
3118.33382,0.21820
3120.26229,0.21296
3122.19076,0.20512
3124.11923,0.20589
3126.04770,0.21171
3127.97617,0.20895
3129.90463,0.19905
3131.83310,0.19489
3133.76157,0.20365
3135.69004,0.21668
3137.61851,0.21852
3139.54698,0.21065
3141.47545,0.20885
3143.40391,0.21187
3145.33238,0.21221
3147.26085,0.21128
3149.18932,0.21135
3151.11779,0.21537
3153.04626,0.21906
3154.97473,0.21603
3156.90320,0.21086
3158.83166,0.21342
3160.76013,0.22229
3162.68860,0.22654
3164.61707,0.22468
3166.54554,0.22246
3168.47401,0.22134
3170.40248,0.22052
3172.33094,0.21888
3174.25941,0.21680
3176.18788,0.21686
3178.11635,0.21828
3180.04482,0.21849
3181.97329,0.21627
3183.90176,0.21507
3185.83022,0.21835
3187.75869,0.22061
3189.68716,0.21905
3191.61563,0.21924
3193.54410,0.22120
3195.47257,0.21843
3197.40104,0.21423
3199.32951,0.21546
3201.25797,0.21837
3203.18644,0.21792
3205.11491,0.21448
3207.04338,0.21025
3208.97185,0.20583
3210.90032,0.20508
3212.82879,0.21227
3214.75725,0.22125
3216.68572,0.22363
3218.61419,0.22183
3220.54266,0.21913
3222.47113,0.21484
3224.39960,0.21238
3226.32807,0.21361
3228.25654,0.21563
3230.18500,0.21726
3232.11347,0.21962
3234.04194,0.21960
3235.97041,0.21560
3237.89888,0.21284
3239.82735,0.21080
3241.75582,0.21089
3243.68428,0.21692
3245.61275,0.22080
3247.54122,0.21968
3249.46969,0.21855
3251.39816,0.21412
3253.32663,0.20783
3255.25510,0.20666
3257.18357,0.20789
3259.11203,0.20690
3261.04050,0.20405
3262.96897,0.20277
3264.89744,0.20601
3266.82591,0.21083
3268.75438,0.21325
3270.68285,0.21459
3272.61131,0.21654
3274.53978,0.21567
3276.46825,0.21111
3278.39672,0.20808
3280.32519,0.20973
3282.25366,0.21434
3284.18213,0.21953
3286.11060,0.22310
3288.03906,0.22251
3289.96753,0.21970
3291.89600,0.21901
3293.82447,0.22120
3295.75294,0.22427
3297.68141,0.22539
3299.60988,0.22322
3301.53834,0.21910
3303.46681,0.21549
3305.39528,0.21135
3307.32375,0.20437
3309.25222,0.19938
3311.18069,0.20061
3313.10916,0.20493
3315.03763,0.21040
3316.96609,0.21643
3318.89456,0.22282
3320.82303,0.22723
3322.75150,0.22476
3324.67997,0.21936
3326.60844,0.21508
3328.53691,0.21252
3330.46537,0.21666
3332.39384,0.22335
3334.32231,0.22432
3336.25078,0.22075
3338.17925,0.21703
3340.10772,0.21674
3342.03619,0.21883
3343.96466,0.22026
3345.89312,0.21979
3347.82159,0.21569
3349.75006,0.20979
3351.67853,0.20636
3353.60700,0.20741
3355.53547,0.21229
3357.46394,0.21680
3359.39240,0.21709
3361.32087,0.21510
3363.24934,0.21393
3365.17781,0.21324
3367.10628,0.21459
3369.03475,0.21862
3370.96322,0.22021
3372.89168,0.21771
3374.82015,0.21482
3376.74862,0.21449
3378.67709,0.21919
3380.60556,0.22351
3382.53403,0.21687
3384.46250,0.20766
3386.39097,0.20985
3388.31943,0.21473
3390.24790,0.21524
3392.17637,0.21847
3394.10484,0.22363
3396.03331,0.22191
3397.96178,0.21464
3399.89025,0.21249
3401.81871,0.21415
3403.74718,0.21431
3405.67565,0.21674
3407.60412,0.21886
3409.53259,0.21678
3411.46106,0.21393
3413.38953,0.21113
3415.31800,0.20702
3417.24646,0.20553
3419.17493,0.21002
3421.10340,0.21250
3423.03187,0.20839
3424.96034,0.20536
3426.88881,0.20635
3428.81728,0.20723
3430.74574,0.20571
3432.67421,0.20428
3434.60268,0.20358
3436.53115,0.20025
3438.45962,0.19724
3440.38809,0.20191
3442.31656,0.20941
3444.24503,0.20978
3446.17349,0.20761
3448.10196,0.20814
3450.03043,0.20770
3451.95890,0.20578
3453.88737,0.20376
3455.81584,0.20111
3457.74431,0.19789
3459.67277,0.19677
3461.60124,0.19738
3463.52971,0.19592
3465.45818,0.19234
3467.38665,0.18910
3469.31512,0.18786
3471.24359,0.18953
3473.17206,0.19545
3475.10052,0.20177
3477.02899,0.20179
3478.95746,0.19755
3480.88593,0.19506
3482.81440,0.19573
3484.74287,0.19678
3486.67134,0.19767
3488.59980,0.19829
3490.52827,0.19639
3492.45674,0.19204
3494.38521,0.18646
3496.31368,0.18340
3498.24215,0.18558
3500.17062,0.18838
3502.09909,0.18755
3504.02755,0.18497
3505.95602,0.18653
3507.88449,0.19275
3509.81296,0.19544
3511.74143,0.19108
3513.66990,0.18552
3515.59837,0.18271
3517.52683,0.18221
3519.45530,0.18024
3521.38377,0.17471
3523.31224,0.16813
3525.24071,0.16675
3527.16918,0.17229
3529.09765,0.17637
3531.02611,0.17835
3532.95458,0.18332
3534.88305,0.18471
3536.81152,0.17899
3538.73999,0.17515
3540.66846,0.17629
3542.59693,0.17745
3544.52540,0.17870
3546.45386,0.18164
3548.38233,0.18039
3550.31080,0.17301
3552.23927,0.16814
3554.16774,0.17057
3556.09621,0.17273
3558.02468,0.16898
3559.95314,0.16211
3561.88161,0.16044
3563.81008,0.16685
3565.73855,0.17171
3567.66702,0.16837
3569.59549,0.16346
3571.52396,0.15812
3573.45243,0.15365
3575.38089,0.15429
3577.30936,0.15732
3579.23783,0.15688
3581.16630,0.15258
3583.09477,0.15134
3585.02324,0.15754
3586.95171,0.16321
3588.88017,0.15706
3590.80864,0.15051
3592.73711,0.15444
3594.66558,0.16135
3596.59405,0.16025
3598.52252,0.15478
3600.45099,0.15103
3602.37946,0.14851
3604.30792,0.14656
3606.23639,0.14870
3608.16486,0.15455
3610.09333,0.15703
3612.02180,0.15455
3613.95027,0.14949
3615.87874,0.14922
3617.80720,0.15594
3619.73567,0.15829
3621.66414,0.15215
3623.59261,0.14799
3625.52108,0.15125
3627.44955,0.16191
3629.37802,0.16690
3631.30649,0.15917
3633.23495,0.15398
3635.16342,0.15068
3637.09189,0.14569
3639.02036,0.14063
3640.94883,0.13724
3642.87730,0.13948
3644.80577,0.15122
3646.73423,0.16995
3648.66270,0.18385
3650.59117,0.17383
3652.51964,0.15473
3654.44811,0.14489
3656.37658,0.14362
3658.30505,0.14126
3660.23352,0.13447
3662.16198,0.12841
3664.09045,0.12606
3666.01892,0.12841
3667.94739,0.13675
3669.87586,0.14533
3671.80433,0.14631
3673.73280,0.14805
3675.66126,0.15107
3677.58973,0.14492
3679.51820,0.13489
3681.44667,0.13101
3683.37514,0.13493
3685.30361,0.14368
3687.23208,0.15638
3689.16055,0.16318
3691.08901,0.15271
3693.01748,0.14136
3694.94595,0.13648
3696.87442,0.13383
3698.80289,0.13093
3700.73136,0.12804
3702.65983,0.12896
3704.58829,0.13395
3706.51676,0.13862
3708.44523,0.14430
3710.37370,0.15196
3712.30217,0.15185
3714.23064,0.14395
3716.15911,0.13706
3718.08757,0.13099
3720.01604,0.12819
3721.94451,0.13364
3723.87298,0.14210
3725.80145,0.14311
3727.72992,0.13971
3729.65839,0.14285
3731.58686,0.15232
3733.51532,0.15811
3735.44379,0.15584
3737.37226,0.15087
3739.30073,0.14516
3741.22920,0.14134
3743.15767,0.14075
3745.08614,0.14188
3747.01460,0.14353
3748.94307,0.14895
3750.87154,0.15571
3752.80001,0.14767
3754.72848,0.13648
3756.65695,0.13652
3758.58542,0.14368
3760.51389,0.14249
3762.44235,0.13194
3764.37082,0.12348
3766.29929,0.12168
3768.22776,0.12369
3770.15623,0.12412
3772.08470,0.12246
3774.01317,0.12154
3775.94163,0.12145
3777.87010,0.12110
3779.79857,0.12011
3781.72704,0.12107
3783.65551,0.12580
3785.58398,0.13066
3787.51245,0.12801
3789.44092,0.12041
3791.36938,0.11750
3793.29785,0.11905
3795.22632,0.11871
3797.15479,0.11814
3799.08326,0.12553
3801.01173,0.14017
3802.94020,0.14458
3804.86866,0.13885
3806.79713,0.13717
3808.72560,0.13779
3810.65407,0.13708
3812.58254,0.13926
3814.51101,0.14398
3816.43948,0.14441
3818.36795,0.14220
3820.29641,0.14246
3822.22488,0.13987
3824.15335,0.13954
3826.08182,0.14221
3828.01029,0.14071
3829.93876,0.13745
3831.86723,0.13488
3833.79569,0.13306
3835.72416,0.13482
3837.65263,0.13971
3839.58110,0.14248
3841.50957,0.14004
3843.43804,0.13622
3845.36651,0.13192
3847.29498,0.12787
3849.22344,0.12923
3851.15191,0.13928
3853.08038,0.14652
3855.00885,0.13302
3856.93732,0.12386
3858.86579,0.12467
3860.79426,0.12864
3862.72272,0.12966
3864.65119,0.12953
3866.57966,0.13370
3868.50813,0.13305
3870.43660,0.12215
3872.36507,0.11472
3874.29354,0.11292
3876.22200,0.11364
3878.15047,0.12143
3880.07894,0.13173
3882.00741,0.13361
3883.93588,0.13399
3885.86435,0.13863
3887.79282,0.13941
3889.72129,0.13559
3891.64975,0.13003
3893.57822,0.12682
3895.50669,0.12661
3897.43516,0.12738
3899.36363,0.13121
3901.29210,0.13557
3903.22057,0.13454
3905.14903,0.12776
3907.07750,0.12068
3909.00597,0.11640
3910.93444,0.11384
3912.86291,0.11456
3914.79138,0.11676
3916.71985,0.11775
3918.64832,0.11909
3920.57678,0.11989
3922.50525,0.12175
3924.43372,0.12458
3926.36219,0.12382
3928.29066,0.12183
3930.21913,0.11967
3932.14760,0.11503
3934.07606,0.11291
3936.00453,0.11429
3937.93300,0.11403
3939.86147,0.11142
3941.78994,0.10971
3943.71841,0.11161
3945.64688,0.11421
3947.57535,0.11451
3949.50381,0.11186
3951.43228,0.10710
3953.36075,0.10397
3955.28922,0.10526
3957.21769,0.11115
3959.14616,0.11517
3961.07463,0.11221
3963.00309,0.10926
3964.93156,0.11098
3966.86003,0.11174
3968.78850,0.10776
3970.71697,0.10412
3972.64544,0.10505
3974.57391,0.10400
3976.50238,0.09952
3978.43084,0.09875
3980.35931,0.10154
3982.28778,0.10354
3984.21625,0.10472
3986.14472,0.10750
3988.07319,0.10935
3990.00166,0.10869
3991.93012,0.10919
3993.85859,0.10885
3995.78706,0.10305
3997.71553,0.09756
3999.64400,0.10118
4001.57247,0.10736
4003.50094,0.10774
4005.42941,0.10836
4007.35787,0.11078
4009.28634,0.10854
4011.21481,0.10227
4013.14328,0.09743
4015.07175,0.09758
4017.00022,0.10110
4018.92869,0.10307
4020.85715,0.10595
4022.78562,0.11161
4024.71409,0.11401
4026.64256,0.11174
4028.57103,0.10902
4030.49950,0.10896
4032.42797,0.10936
4034.35644,0.10425
4036.28490,0.09580
4038.21337,0.09283
4040.14184,0.09435
4042.07031,0.09500
4043.99878,0.09715
4045.92725,0.10068
4047.85572,0.10154
4049.78418,0.10038
4051.71265,0.10009
4053.64112,0.10014
4055.56959,0.09874
4057.49806,0.09737
4059.42653,0.09818
4061.35500,0.10169
4063.28346,0.10596
4065.21193,0.10853
4067.14040,0.10854
4069.06887,0.10524
4070.99734,0.10061
4072.92581,0.09702
4074.85428,0.09152
4076.78275,0.08557
4078.71121,0.08388
4080.63968,0.08267
4082.56815,0.08354
4084.49662,0.09026
4086.42509,0.09334
4088.35356,0.08806
4090.28203,0.08296
4092.21049,0.08518
4094.13896,0.09164
4096.06743,0.09447
4097.99590,0.09428
4099.92437,0.09639
4101.85284,0.09771
4103.78131,0.09419
4105.70978,0.09185
4107.63824,0.09279
4109.56671,0.09186
4111.49518,0.09256
4113.42365,0.09537
4115.35212,0.09298
4117.28059,0.08783
4119.20906,0.08699
4121.13752,0.09029
4123.06599,0.09237
4124.99446,0.09077
4126.92293,0.08791
4128.85140,0.08584
4130.77987,0.08414
4132.70834,0.08119
4134.63681,0.07785
4136.56527,0.07666
4138.49374,0.07908
4140.42221,0.08504
4142.35068,0.08982
4144.27915,0.08861
4146.20762,0.08297
4148.13609,0.07763
4150.06455,0.07711
4151.99302,0.08235
4153.92149,0.08528
4155.84996,0.07908
4157.77843,0.07249
4159.70690,0.07404
4161.63537,0.07915
4163.56384,0.08231
4165.49230,0.08200
4167.42077,0.08099
4169.34924,0.08211
4171.27771,0.08366
4173.20618,0.08285
4175.13465,0.07794
4177.06312,0.07101
4178.99158,0.06543
4180.92005,0.06490
4182.84852,0.07049
4184.77699,0.07444
4186.70546,0.07365
4188.63393,0.07751
4190.56240,0.08629
4192.49087,0.08865
4194.41933,0.08699
4196.34780,0.08440
4198.27627,0.07781
4200.20474,0.07747
4202.13321,0.08305
4204.06168,0.08164
4205.99015,0.07585
4207.91861,0.07061
4209.84708,0.06796
4211.77555,0.07108
4213.70402,0.07340
4215.63249,0.07085
4217.56096,0.06845
4219.48943,0.06619
4221.41789,0.06436
4223.34636,0.06653
4225.27483,0.06750
4227.20330,0.06552
4229.13177,0.06877
4231.06024,0.07308
4232.98871,0.07072
4234.91718,0.06756
4236.84564,0.06831
4238.77411,0.06978
4240.70258,0.06942
4242.63105,0.06991
4244.55952,0.07106
4246.48799,0.06814
4248.41646,0.06527
4250.34492,0.06743
4252.27339,0.06700
4254.20186,0.06181
4256.13033,0.05971
4258.05880,0.06114
4259.98727,0.06243
4261.91574,0.06302
4263.84421,0.06360
4265.77267,0.06453
4267.70114,0.06654
4269.62961,0.06862
4271.55808,0.06546
4273.48655,0.05814
4275.41502,0.05471
4277.34349,0.05578
4279.27195,0.05670
4281.20042,0.05760
4283.12889,0.05812
4285.05736,0.05646
4286.98583,0.05382
4288.91430,0.05051
4290.84277,0.04920
4292.77124,0.05520
4294.69970,0.06462
4296.62817,0.06807
4298.55664,0.06637
4300.48511,0.06534
4302.41358,0.06310
4304.34205,0.05817
4306.27052,0.05700
4308.19898,0.06085
4310.12745,0.06060
4312.05592,0.05348
4313.98439,0.04953
4315.91286,0.05655
4317.84133,0.06323
4319.76980,0.05731
4321.69827,0.04850
4323.62673,0.04741
4325.55520,0.05049
4327.48367,0.05434
4329.41214,0.06029
4331.34061,0.06227
4333.26908,0.05759
4335.19755,0.05633
4337.12601,0.06136
4339.05448,0.06646
4340.98295,0.06735
4342.91142,0.06244
4344.83989,0.05449
4346.76836,0.04915
4348.69683,0.04358
4350.62530,0.03389
4352.55376,0.02914
4354.48223,0.03431
4356.41070,0.04177
4358.33917,0.04505
4360.26764,0.04474
4362.19611,0.04349
4364.12458,0.04139
4366.05304,0.03870
4367.98151,0.03877
4369.90998,0.04174
4371.83845,0.04295
4373.76692,0.04266
4375.69539,0.04170
4377.62386,0.04081
4379.55232,0.04422
4381.48079,0.04829
4383.40926,0.04739
4385.33773,0.04554
4387.26620,0.04774
4389.19467,0.04977
4391.12314,0.04597
4393.05161,0.04154
4394.98007,0.04116
4396.90854,0.04130
4398.83701,0.04038
4400.76548,0.03861
4402.69395,0.03808
4404.62242,0.03939
4406.55089,0.03661
4408.47935,0.03189
4410.40782,0.03307
4412.33629,0.03920
4414.26476,0.04358
4416.19323,0.04154
4418.12170,0.03731
4420.05017,0.03940
4421.97864,0.04564
4423.90710,0.04408
4425.83557,0.03432
4427.76404,0.02829
4429.69251,0.02892
4431.62098,0.03021
4433.54945,0.02792
4435.47792,0.02428
4437.40638,0.02654
4439.33485,0.03506
4441.26332,0.03854
4443.19179,0.03403
4445.12026,0.03361
4447.04873,0.03720
4448.97720,0.03582
4450.90567,0.03185
4452.83413,0.02891
4454.76260,0.02587
4456.69107,0.02132
4458.61954,0.01704
4460.54801,0.01825
4462.47648,0.02401
4464.40495,0.02727
4466.33341,0.02855
4468.26188,0.03086
4470.19035,0.03070
4472.11882,0.02948
4474.04729,0.03192
4475.97576,0.03594
4477.90423,0.03862
4479.83270,0.03837
4481.76116,0.03535
4483.68963,0.03193
4485.61810,0.02708
4487.54657,0.02251
4489.47504,0.02314
4491.40351,0.02642
4493.33198,0.02730
4495.26044,0.02852
4497.18891,0.03312
4499.11738,0.03451
4501.04585,0.03158
4502.97432,0.02983
4504.90279,0.02662
4506.83126,0.02411
4508.75973,0.02699
4510.68819,0.03003
4512.61666,0.03083
4514.54513,0.03010
4516.47360,0.02653
4518.40207,0.02430
4520.33054,0.02481
4522.25901,0.02151
4524.18747,0.01591
4526.11594,0.01445
4528.04441,0.01468
4529.97288,0.01330
4531.90135,0.01548
4533.82982,0.02322
4535.75829,0.02853
4537.68676,0.02945
4539.61522,0.02717
4541.54369,0.01753
4543.47216,0.00624
4545.40063,0.00277
4547.32910,0.00606
4549.25757,0.01039
4551.18604,0.01341
4553.11450,0.01688
4555.04297,0.02205
4556.97144,0.02673
4558.89991,0.02573
4560.82838,0.01939
4562.75685,0.01149
4564.68532,0.00582
4566.61378,0.00738
4568.54225,0.00821
4570.47072,0.00121
4572.39919,-0.00381
4574.32766,-0.00208
4576.25613,-0.00290
4578.18460,-0.00640
4580.11307,-0.00106
4582.04153,0.00827
4583.97000,0.00796
4585.89847,0.00151
4587.82694,-0.00037
4589.75541,0.00319
4591.68388,0.00520
4593.61235,-0.00108
4595.54081,-0.00260
4597.46928,0.01664
4599.39775,0.03319
4601.32622,0.02907
4603.25469,0.02150
4605.18316,0.02045
4607.11163,0.02056
4609.04010,0.01493
4610.96856,0.00432
4612.89703,-0.00051
4614.82550,0.00383
4616.75397,0.00727
4618.68244,0.00885
4620.61091,0.01588
4622.53938,0.02588
4624.46784,0.03139
4626.39631,0.02759
4628.32478,0.02080
4630.25325,0.01995
4632.18172,0.02269
4634.11019,0.02372
4636.03866,0.02265
4637.96713,0.01944
4639.89559,0.01677
4641.82406,0.01726
4643.75253,0.01531
4645.68100,0.01383
4647.60947,0.01767
4649.53794,0.01672
4651.46641,0.01309
4653.39487,0.01667
4655.32334,0.01703
4657.25181,0.00882
4659.18028,0.00705
4661.10875,0.01476
4663.03722,0.02065
4664.96569,0.02407
4666.89416,0.02850
4668.82262,0.02756
4670.75109,0.01565
4672.67956,0.00211
4674.60803,-0.00001
4676.53650,0.00816
4678.46497,0.01845
4680.39344,0.02428
4682.32190,0.02356
4684.25037,0.01780
4686.17884,0.01193
4688.10731,0.01529
4690.03578,0.01981
4691.96425,0.01312
4693.89272,0.00558
4695.82119,0.00345
4697.74965,-0.00242
4699.67812,-0.01368
4701.60659,-0.01819
4703.53506,-0.00634
4705.46353,0.01503
4707.39200,0.02377
4709.32047,0.01553
4711.24893,0.00862
4713.17740,0.00888
4715.10587,0.01403
4717.03434,0.01871
4718.96281,0.01377
4720.89128,0.00269
4722.81975,-0.00250
4724.74821,0.00422
4726.67668,0.01350
4728.60515,0.01228
4730.53362,0.00483
4732.46209,0.00385
4734.39056,0.00816
4736.31903,0.00946
4738.24750,0.00827
4740.17596,0.00573
4742.10443,-0.00088
4744.03290,-0.00768
4745.96137,-0.00745
4747.88984,-0.00103
4749.81831,0.00477
4751.74678,0.00442
4753.67524,0.00188
4755.60371,0.00710
4757.53218,0.01523
4759.46065,0.01202
4761.38912,0.00368
4763.31759,0.00181
4765.24606,0.00331
4767.17453,0.00486
4769.10299,0.00272
4771.03146,0.00168
4772.95993,0.00579
4774.88840,0.00669
4776.81687,0.01015
4778.74534,0.01947
4780.67381,0.02443
4782.60227,0.02359
4784.53074,0.01809
4786.45921,0.01130
4788.38768,0.01089
4790.31615,0.01359
4792.24462,0.01279
4794.17309,0.01227
4796.10156,0.01348
4798.03002,0.01164
4799.95849,0.00897
4801.88696,0.00187
4803.81543,-0.01461
4805.74390,-0.02118
4807.67237,-0.00961
4809.60084,0.00200
4811.52930,0.01454
4813.45777,0.03282
4815.38624,0.03950
4817.31471,0.02516
4819.24318,0.00858
4821.17165,0.00792
4823.10012,0.00950
4825.02859,0.00021
4826.95705,-0.00201
4828.88552,0.01178
4830.81399,0.02265
4832.74246,0.01107
4834.67093,-0.01127
4836.59940,-0.01327
4838.52787,0.00180
4840.45633,0.00854
4842.38480,0.00690
4844.31327,0.00783
4846.24174,0.01107
4848.17021,0.02116
4850.09868,0.02940
4852.02715,0.01846
4853.95562,0.00617
4855.88408,0.00933
4857.81255,0.01984
4859.74102,0.02705
4861.66949,0.02682
4863.59796,0.02396
4865.52643,0.01563
4867.45490,0.00387
4869.38336,0.00601
4871.31183,0.01909
4873.24030,0.02231
4875.16877,0.02039
4877.09724,0.02359
4879.02571,0.01848
4880.95418,0.00738
4882.88265,0.00708
4884.81111,0.01032
4886.73958,0.00754
4888.66805,0.01063
4890.59652,0.02106
4892.52499,0.02289
4894.45346,0.02161
4896.38193,0.02240
4898.31039,0.01108
4900.23886,-0.00658
4902.16733,-0.00983
4904.09580,0.00203
4906.02427,0.01486
4907.95274,0.02300
4909.88121,0.02347
4911.80967,0.01346
4913.73814,0.00758
4915.66661,0.01199
4917.59508,0.01128
4919.52355,0.00604
4921.45202,0.00854
4923.38049,0.01091
4925.30896,0.00345
4927.23742,0.00231
4929.16589,0.01615
4931.09436,0.01960
4933.02283,0.00374
4934.95130,-0.00662
4936.87977,-0.00368
4938.80824,0.00001
4940.73670,0.00173
4942.66517,0.00841
4944.59364,0.01830
4946.52211,0.01971
4948.45058,0.01286
4950.37905,0.01087
4952.30752,0.01305
4954.23599,0.01283
4956.16445,0.01692
4958.09292,0.02333
4960.02139,0.02527
4961.94986,0.02772
4963.87833,0.02449
4965.80680,0.01254
4967.73527,0.00742
4969.66373,0.00719
4971.59220,0.00547
4973.52067,0.01064
4975.44914,0.01727
4977.37761,0.01321
4979.30608,0.00571
4981.23455,0.00867
4983.16302,0.02012
4985.09148,0.02679
4987.01995,0.02708
4988.94842,0.02881
4990.87689,0.02862
4992.80536,0.02316
4994.73383,0.01468
4996.66230,0.00396
4998.59076,0.00191
5000.51923,0.00767
5002.44770,0.00725
5004.37617,0.00597
5006.30464,0.01651
5008.23311,0.03429
5010.16158,0.03415
5012.09005,0.00744
5014.01851,-0.00989
5015.94698,0.00385
5017.87545,0.02479
5019.80392,0.02884
5021.73239,0.01483
5023.66086,-0.00277
5025.58933,-0.01013
5027.51779,-0.00438
5029.44626,0.01369
5031.37473,0.03251
5033.30320,0.03808
5035.23167,0.03856
5037.16014,0.04102
5039.08861,0.03735
5041.01708,0.02814
5042.94554,0.02072
5044.87401,0.01774
5046.80248,0.02004
5048.73095,0.02182
5050.65942,0.01922
5052.58789,0.01951
5054.51636,0.02439
5056.44482,0.02623
5058.37329,0.01750
5060.30176,0.00223
5062.23023,-0.00083
5064.15870,0.00709
5066.08717,0.01143
5068.01564,0.02067
5069.94410,0.03692
5071.87257,0.03715
5073.80104,0.01501
5075.72951,-0.00051
5077.65798,0.00356
5079.58645,0.00679
5081.51492,0.00631
5083.44339,0.01001
5085.37185,0.00896
5087.30032,0.00178
5089.22879,0.00133
5091.15726,0.00952
5093.08573,0.01479
5095.01420,0.01245
5096.94267,0.01483
5098.87113,0.02845
5100.79960,0.04198
5102.72807,0.05256
5104.65654,0.05602
5106.58501,0.04305
5108.51348,0.03507
5110.44195,0.05040
5112.37042,0.06036
5114.29888,0.05021
5116.22735,0.04844
5118.15582,0.05470
5120.08429,0.04745
5122.01276,0.03727
5123.94123,0.03399
5125.86970,0.02719
5127.79816,0.02157
5129.72663,0.02623
5131.65510,0.03326
5133.58357,0.03901
5135.51204,0.04396
5137.44051,0.05121
5139.36898,0.05947
5141.29745,0.04945
5143.22591,0.01643
5145.15438,-0.00896
5147.08285,-0.00605
5149.01132,0.00258
5150.93979,0.00599
5152.86826,0.01918
5154.79673,0.03426
5156.72519,0.03672
5158.65366,0.02970
5160.58213,0.02787
5162.51060,0.04577
5164.43907,0.06981
5166.36754,0.07243
5168.29601,0.06349
5170.22448,0.06630
5172.15294,0.06780
5174.08141,0.05340
5176.00988,0.04040
5177.93835,0.04109
5179.86682,0.04863
5181.79529,0.05737
5183.72376,0.06642
5185.65222,0.06735
5187.58069,0.05569
5189.50916,0.04731
5191.43763,0.05058
5193.36610,0.05120
5195.29457,0.04525
5197.22304,0.04396
5199.15151,0.03984
5201.07997,0.03008
5203.00844,0.03247
5204.93691,0.03823
5206.86538,0.02405
5208.79385,0.00319
5210.72232,-0.00335
5212.65079,0.00512
5214.57925,0.02282
5216.50772,0.04198
5218.43619,0.05787
5220.36466,0.06324
5222.29313,0.05924
5224.22160,0.06019
5226.15007,0.06438
5228.07854,0.05906
5230.00700,0.04921
5231.93547,0.04214
5233.86394,0.03686
5235.79241,0.03038
5237.72088,0.02613
5239.64935,0.03199
5241.57782,0.04249
5243.50628,0.04473
5245.43475,0.04242
5247.36322,0.05419
5249.29169,0.07195
5251.22016,0.06354
5253.14863,0.04329
5255.07710,0.04025
5257.00556,0.04627
5258.93403,0.05584
5260.86250,0.06831
5262.79097,0.07424
5264.71944,0.08012
5266.64791,0.08387
5268.57638,0.06731
5270.50485,0.04437
5272.43331,0.04185
5274.36178,0.04726
5276.29025,0.04575
5278.21872,0.04287
5280.14719,0.03883
5282.07566,0.03550
5284.00413,0.03419
5285.93259,0.03597
5287.86106,0.05251
5289.78953,0.07434
5291.71800,0.07635
5293.64647,0.07099
5295.57494,0.07606
5297.50341,0.07225
5299.43188,0.04976
5301.36034,0.03716
5303.28881,0.04281
5305.21728,0.04398
5307.14575,0.03995
5309.07422,0.03851
5311.00269,0.03547
5312.93116,0.03390
5314.85962,0.04073
5316.78809,0.05195
5318.71656,0.06129
5320.64503,0.06710
5322.57350,0.06811
5324.50197,0.07496
5326.43044,0.09398
5328.35891,0.10009
5330.28737,0.07632
5332.21584,0.04181
5334.14431,0.02301
5336.07278,0.02988
5338.00125,0.04816
5339.92972,0.05149
5341.85819,0.04472
5343.78665,0.04885
5345.71512,0.06529
5347.64359,0.07147
5349.57206,0.05171
5351.50053,0.03442
5353.42900,0.05060
5355.35747,0.07092
5357.28594,0.07929
5359.21440,0.09114
5361.14287,0.09561
5363.07134,0.08278
5364.99981,0.06014
5366.92828,0.04301
5368.85675,0.05088
5370.78522,0.07015
5372.71368,0.07496
5374.64215,0.08033
5376.57062,0.08234
5378.49909,0.06023
5380.42756,0.04831
5382.35603,0.05596
5384.28450,0.06159
5386.21297,0.07343
5388.14143,0.09414
5390.06990,0.09686
5391.99837,0.08209
5393.92684,0.06139
5395.85531,0.04515
5397.78378,0.05202
5399.71225,0.07699
5401.64071,0.09443
5403.56918,0.08129
5405.49765,0.05173
5407.42612,0.04595
5409.35459,0.06061
5411.28306,0.06507
5413.21153,0.05593
5415.13999,0.05874
5417.06846,0.07490
5418.99693,0.08033
5420.92540,0.08096
5422.85387,0.09510
5424.78234,0.10617
5426.71081,0.10411
5428.63928,0.10677
5430.56774,0.11313
5432.49621,0.11457
5434.42468,0.10853
5436.35315,0.08098
5438.28162,0.04407
5440.21009,0.02775
5442.13856,0.02933
5444.06702,0.02396
5445.99549,0.02233
5447.92396,0.03499
5449.85243,0.04146
5451.78090,0.04610
5453.70937,0.07135
5455.63784,0.09970
5457.56631,0.09693
5459.49477,0.09796
5461.42324,0.12884
5463.35171,0.14483
5465.28018,0.12806
5467.20865,0.09559
5469.13712,0.06230
5471.06559,0.04617
5472.99405,0.04871
5474.92252,0.05911
5476.85099,0.07611
5478.77946,0.09076
5480.70793,0.08914
5482.63640,0.07704
5484.56487,0.07012
5486.49334,0.07438
5488.42180,0.07967
5490.35027,0.08079
5492.27874,0.08356
5494.20721,0.08525
5496.13568,0.08781
5498.06415,0.09448
5499.99262,0.09744
5501.92108,0.09574
5503.84955,0.10295
5505.77802,0.10626
5507.70649,0.08106
5509.63496,0.05162
5511.56343,0.04330
5513.49190,0.04956
5515.42037,0.06314
5517.34883,0.07878
5519.27730,0.08967
5521.20577,0.09426
5523.13424,0.10279
5525.06271,0.11951
5526.99118,0.13588
5528.91965,0.13615
5530.84811,0.10324
5532.77658,0.06609
5534.70505,0.06294
5536.63352,0.07536
5538.56199,0.07644
5540.49046,0.06619
5542.41893,0.04675
5544.34740,0.03262
5546.27586,0.03810
5548.20433,0.04560
5550.13280,0.05300
5552.06127,0.07622
5553.98974,0.09498
5555.91821,0.08712
5557.84668,0.06792
5559.77514,0.06740
5561.70361,0.08015
5563.63208,0.07245
5565.56055,0.04217
5567.48902,0.02056
5569.41749,0.02591
5571.34596,0.04563
5573.27443,0.06811
5575.20289,0.09111
5577.13136,0.10201
5579.05983,0.07835
5580.98830,0.02540
5582.91677,0.00543
5584.84524,0.03332
5586.77371,0.04868
5588.70217,0.03465
5590.63064,0.03080
5592.55911,0.05415
5594.48758,0.07659
5596.41605,0.07583
5598.34452,0.07083
5600.27299,0.06657
5602.20145,0.04873
5604.12992,0.03953
5606.05839,0.05049
5607.98686,0.05843
5609.91533,0.05611
5611.84380,0.05669
5613.77227,0.06024
5615.70074,0.06002
5617.62920,0.06087
5619.55767,0.05954
5621.48614,0.05942
5623.41461,0.07031
5625.34308,0.06562
5627.27155,0.03125
5629.20002,0.01863
5631.12848,0.04917
5633.05695,0.06985
5634.98542,0.04824
5636.91389,0.03053
5638.84236,0.05407
5640.77083,0.06934
5642.69930,0.04246
5644.62777,0.02489
5646.55623,0.05102
5648.48470,0.06987
5650.41317,0.05519
5652.34164,0.04641
5654.27011,0.05941
5656.19858,0.07775
5658.12705,0.08794
5660.05551,0.09641
5661.98398,0.10523
5663.91245,0.09927
5665.84092,0.09173
5667.76939,0.09147
5669.69786,0.08160
5671.62633,0.07205
5673.55480,0.07870
5675.48326,0.08915
5677.41173,0.09081
5679.34020,0.07988
5681.26867,0.06064
5683.19714,0.05534
5685.12561,0.06672
5687.05408,0.06552
5688.98254,0.05626
5690.91101,0.06692
5692.83948,0.07470
5694.76795,0.05477
5696.69642,0.02190
5698.62489,0.00188
5700.55336,0.01014
5702.48183,0.04207
5704.41029,0.09364
5706.33876,0.15171
5708.26723,0.17602
5710.19570,0.14828
5712.12417,0.11273
5714.05264,0.10323
5715.98111,0.10103
5717.90957,0.09382
5719.83804,0.07259
5721.76651,0.04296
5723.69498,0.03045
5725.62345,0.04616
5727.55192,0.07944
5729.48039,0.09181
5731.40886,0.07791
5733.33732,0.07706
5735.26579,0.09786
5737.19426,0.11216
5739.12273,0.12587
5741.05120,0.15407
5742.97967,0.15831
5744.90814,0.13165
5746.83660,0.11178
5748.76507,0.10131
5750.69354,0.08630
5752.62201,0.08444
5754.55048,0.10445
5756.47895,0.11617
5758.40742,0.10203
5760.33588,0.08591
5762.26435,0.09192
5764.19282,0.10191
5766.12129,0.10193
5768.04976,0.09925
5769.97823,0.07907
5771.90670,0.05812
5773.83517,0.05923
5775.76363,0.03654
5777.69210,-0.00060
5779.62057,0.01656
5781.54904,0.05506
5783.47751,0.05087
5785.40598,0.01649
5787.33445,-0.00747
5789.26291,0.00119
5791.19138,0.02371
5793.11985,0.03248
5795.04832,0.04394
5796.97679,0.06365
5798.90526,0.06425
5800.83373,0.06302
5802.76220,0.07856
5804.69066,0.09000
5806.61913,0.09362
5808.54760,0.09685
5810.47607,0.09271
5812.40454,0.08180
5814.33301,0.08240
5816.26148,0.07883
5818.18994,0.05290
5820.11841,0.05067
5822.04688,0.09082
5823.97535,0.11585
5825.90382,0.08830
5827.83229,0.05205
5829.76076,0.04783
5831.68923,0.04272
5833.61769,0.04428
5835.54616,0.08387
5837.47463,0.12198
5839.40310,0.12167
5841.33157,0.09358
5843.26004,0.06131
5845.18851,0.04075
5847.11697,0.05482
5849.04544,0.10344
5850.97391,0.12678
5852.90238,0.09916
5854.83085,0.06843
5856.75932,0.08158
5858.68779,0.12601
5860.61626,0.14603
5862.54472,0.12260
5864.47319,0.07892
5866.40166,0.04107
5868.33013,0.03891
5870.25860,0.08549
5872.18707,0.15433
5874.11554,0.18738
5876.04400,0.15168
5877.97247,0.11151
5879.90094,0.12307
5881.82941,0.12589
5883.75788,0.08641
5885.68635,0.07385
5887.61482,0.09846
5889.54329,0.09687
5891.47175,0.07366
5893.40022,0.06060
5895.32869,0.05072
5897.25716,0.04486
5899.18563,0.05234
5901.11410,0.06315
5903.04257,0.07071
5904.97103,0.08613
5906.89950,0.10882
5908.82797,0.11915
5910.75644,0.10078
5912.68491,0.06707
5914.61338,0.05889
5916.54185,0.07965
5918.47032,0.09239
5920.39878,0.08440
5922.32725,0.04662
5924.25572,-0.01492
5926.18419,-0.02765
5928.11266,0.03496
5930.04113,0.08409
5931.96960,0.07999
5933.89806,0.06472
5935.82653,0.04812
5937.75500,0.02610
5939.68347,0.01577
5941.61194,0.02579
5943.54041,0.06044
5945.46888,0.09312
5947.39734,0.09066
5949.32581,0.10394
5951.25428,0.16040
5953.18275,0.17760
5955.11122,0.15006
5957.03969,0.14031
5958.96816,0.15268
5960.89663,0.15716
5962.82509,0.12084
5964.75356,0.04426
5966.68203,-0.00810
5968.61050,0.02884
5970.53897,0.11643
5972.46744,0.16272
5974.39591,0.13884
5976.32437,0.09187
5978.25284,0.06121
5980.18131,0.04786
5982.10978,0.05951
5984.03825,0.10147
5985.96672,0.13868
5987.89519,0.12932
5989.82366,0.08773
5991.75212,0.04973
5993.68059,0.02758
5995.60906,0.04048
5997.53753,0.07065
5999.46600,0.06018
6001.39447,0.02811
6003.32294,0.04312
6005.25140,0.08978
6007.17987,0.09671
6009.10834,0.07637
6011.03681,0.07072
6012.96528,0.07062
6014.89375,0.07044
6016.82222,0.07200
6018.75069,0.06356
6020.67915,0.06146
6022.60762,0.07264
6024.53609,0.06482
6026.46456,0.04618
6028.39303,0.05684
6030.32150,0.08236
6032.24997,0.09206
6034.17843,0.09562
6036.10690,0.09654
6038.03537,0.09189
6039.96384,0.08037
6041.89231,0.06841
6043.82078,0.07574
6045.74925,0.09724
6047.67772,0.10644
6049.60618,0.09216
6051.53465,0.06659
6053.46312,0.02616
6055.39159,-0.01094
6057.32006,0.00712
6059.24853,0.07274
6061.17700,0.13294
6063.10546,0.12666
6065.03393,0.07697
6066.96240,0.06295
6068.89087,0.07646
6070.81934,0.08957
6072.74781,0.07854
6074.67628,0.02576
6076.60475,-0.01689
6078.53321,0.00126
6080.46168,0.05067
6082.39015,0.06612
6084.31862,0.06882
6086.24709,0.10469
6088.17556,0.12155
6090.10403,0.10097
6092.03249,0.06293
6093.96096,0.03867
6095.88943,0.09581
6097.81790,0.16393
6099.74637,0.13049
6101.67484,0.04844
6103.60331,0.00275
6105.53177,-0.00734
6107.46024,0.00863
6109.38871,0.05271
6111.31718,0.10073
6113.24565,0.13498
6115.17412,0.15341
6117.10259,0.13907
6119.03106,0.09545
6120.95952,0.06290
6122.88799,0.05069
6124.81646,0.03952
6126.74493,0.04308
6128.67340,0.08120
6130.60187,0.10768
6132.53034,0.09127
6134.45880,0.07412
6136.38727,0.07177
6138.31574,0.05978
6140.24421,0.05199
6142.17268,0.08294
6144.10115,0.13254
6146.02962,0.15865
6147.95809,0.16329
6149.88655,0.15543
6151.81502,0.13837
6153.74349,0.14112
6155.67196,0.15469
6157.60043,0.13957
6159.52890,0.12260
6161.45737,0.12954
6163.38583,0.12404
6165.31430,0.09535
6167.24277,0.05260
6169.17124,0.02103
6171.09971,0.03194
6173.02818,0.03402
6174.95665,0.00134
6176.88512,-0.00914
6178.81358,0.02703
6180.74205,0.08531
6182.67052,0.11148
6184.59899,0.09368
6186.52746,0.07890
6188.45593,0.06886
6190.38440,0.04442
6192.31286,0.06488
6194.24133,0.11419
6196.16980,0.08439
6198.09827,0.02942
6200.02674,0.05037
6201.95521,0.09597
6203.88368,0.10257
6205.81215,0.08391
6207.74061,0.09198
6209.66908,0.14290
6211.59755,0.17175
6213.52602,0.12637
6215.45449,0.05498
6217.38296,0.01900
6219.31143,0.01666
6221.23989,0.02732
6223.16836,0.07099
6225.09683,0.12431
6227.02530,0.13296
6228.95377,0.13499
6230.88224,0.13933
6232.81071,0.08961
6234.73918,0.02821
6236.66764,0.04694
6238.59611,0.10781
6240.52458,0.11580
6242.45305,0.11039
6244.38152,0.13588
6246.30999,0.12644
6248.23846,0.08066
6250.16692,0.05229
6252.09539,0.05094
6254.02386,0.05522
6255.95233,0.03917
6257.88080,-0.00618
6259.80927,-0.03046
6261.73774,0.01345
6263.66621,0.07984
6265.59467,0.09639
6267.52314,0.08476
6269.45161,0.11047
6271.38008,0.15796
6273.30855,0.16007
6275.23702,0.10963
6277.16549,0.04622
6279.09395,-0.03050
6281.02242,-0.08577
6282.95089,-0.07364
6284.87936,-0.00754
6286.80783,0.07051
6288.73630,0.10713
6290.66477,0.09504
6292.59323,0.09042
6294.52170,0.08658
6296.45017,0.05886
6298.37864,0.05604
6300.30711,0.10126
6302.23558,0.14070
6304.16405,0.12635
6306.09252,0.06353
6308.02098,0.00537
6309.94945,-0.01229
6311.87792,-0.02027
6313.80639,0.00921
6315.73486,0.08788
6317.66333,0.13743
6319.59180,0.12816
6321.52026,0.06562
6323.44873,-0.00951
6325.37720,-0.02758
6327.30567,0.01074
6329.23414,0.06522
6331.16261,0.08504
6333.09108,0.07154
6335.01955,0.08214
6336.94801,0.11310
6338.87648,0.12704
6340.80495,0.11471
6342.73342,0.06422
6344.66189,-0.01353
6346.59036,-0.07014
6348.51883,-0.06569
6350.44729,-0.00627
6352.37576,0.03696
6354.30423,0.03216
6356.23270,0.03476
6358.16117,0.07606
6360.08964,0.15107
6362.01811,0.22677
6363.94658,0.23060
6365.87504,0.15090
6367.80351,0.08283
6369.73198,0.06250
6371.66045,0.04420
6373.58892,0.02632
6375.51739,0.04620
6377.44586,0.09518
6379.37432,0.12949
6381.30279,0.13976
6383.23126,0.13623
6385.15973,0.10637
6387.08820,0.05443
6389.01667,0.02474
6390.94514,0.03499
6392.87361,0.03685
6394.80207,0.00044
6396.73054,-0.01058
6398.65901,0.01677
6400.58748,0.01100
6402.51595,0.00064
6404.44442,0.07580
6406.37289,0.16720
6408.30135,0.17778
6410.22982,0.16046
6412.15829,0.15040
6414.08676,0.11750
6416.01523,0.10693
6417.94370,0.16671
6419.87217,0.21353
6421.80064,0.16794
6423.72910,0.11424
6425.65757,0.11901
6427.58604,0.09898
6429.51451,0.05250
6431.44298,0.07507
6433.37145,0.11075
6435.29992,0.07662
6437.22838,0.04136
6439.15685,0.09242
6441.08532,0.16119
6443.01379,0.16648
6444.94226,0.12267
6446.87073,0.06529
6448.79920,-0.01333
6450.72766,-0.09302
6452.65613,-0.07475
6454.58460,0.02872
6456.51307,0.09068
6458.44154,0.06830
6460.37001,0.01435
6462.29848,-0.00174
6464.22695,0.05125
6466.15541,0.11028
6468.08388,0.09181
6470.01235,0.00857
6471.94082,-0.04866
6473.86929,-0.06518
6475.79776,-0.02807
6477.72623,0.09795
6479.65469,0.18316
6481.58316,0.12088
6483.51163,0.00708
6485.44010,-0.05183
6487.36857,-0.05108
6489.29704,-0.03732
6491.22551,-0.02233
6493.15398,0.04685
6495.08244,0.12696
6497.01091,0.15107
6498.93938,0.14000
6500.86785,0.09975
6502.79632,0.06511
6504.72479,0.10131
6506.65326,0.17213
6508.58172,0.18516
6510.51019,0.14525
6512.43866,0.13273
6514.36713,0.16506
6516.29560,0.19614
6518.22407,0.14098
6520.15254,0.01995
6522.08101,-0.03925
6524.00947,0.00425
6525.93794,0.04852
6527.86641,0.01687
6529.79488,-0.00468
6531.72335,0.03036
6533.65182,0.05296
6535.58029,0.04284
6537.50875,0.00760
6539.43722,-0.02917
6541.36569,-0.00203
6543.29416,0.08242
6545.22263,0.13455
6547.15110,0.12902
6549.07957,0.11750
6551.00804,0.10655
6552.93650,0.10414
6554.86497,0.13620
6556.79344,0.11808
6558.72191,0.05855
6560.65038,0.05927
6562.57885,0.05322
6564.50732,0.02512
6566.43578,0.08833
6568.36425,0.15247
6570.29272,0.06602
6572.22119,-0.05083
6574.14966,-0.00752
6576.07813,0.12287
6578.00660,0.17684
6579.93507,0.15552
6581.86353,0.10934
6583.79200,0.04681
6585.72047,0.04799
6587.64894,0.10339
6589.57741,0.09635
6591.50588,0.02780
6593.43435,-0.01619
6595.36281,-0.00288
6597.29128,0.01984
6599.21975,0.03652
6601.14822,0.06668
6603.07669,0.07554
6605.00516,0.07049
6606.93363,0.11221
6608.86210,0.16890
6610.79056,0.17766
6612.71903,0.13922
6614.64750,0.09424
6616.57597,0.09138
6618.50444,0.12199
6620.43291,0.16616
6622.36138,0.19822
6624.28984,0.15741
6626.21831,0.09269
6628.14678,0.09183
6630.07525,0.12575
6632.00372,0.16109
6633.93219,0.21823
6635.86066,0.23122
6637.78912,0.18074
6639.71759,0.15377
6641.64606,0.09809
6643.57453,-0.01595
6645.50300,-0.06916
6647.43147,-0.06068
6649.35994,-0.08639
6651.28841,-0.09249
6653.21687,0.00405
6655.14534,0.14849
6657.07381,0.21456
6659.00228,0.17009
6660.93075,0.07396
6662.85922,-0.02613
6664.78769,-0.10938
6666.71615,-0.13293
6668.64462,-0.03237
6670.57309,0.14678
6672.50156,0.24391
6674.43003,0.18631
6676.35850,0.11210
6678.28697,0.07846
6680.21544,0.03921
6682.14390,0.04795
6684.07237,0.12212
6686.00084,0.15579
6687.92931,0.08843
6689.85778,-0.01001
6691.78625,-0.04216
6693.71472,-0.00728
6695.64318,0.04820
6697.57165,0.06667
6699.50012,0.06510
6701.42859,0.08860
6703.35706,0.12375
6705.28553,0.12838
6707.21400,0.09634
6709.14247,0.08436
6711.07093,0.09293
6712.99940,0.09792
6714.92787,0.08417
6716.85634,0.02255
6718.78481,-0.04870
6720.71328,-0.06524
6722.64175,-0.03303
6724.57021,-0.00431
6726.49868,0.01380
6728.42715,0.05399
6730.35562,0.09594
6732.28409,0.08743
6734.21256,0.05300
6736.14103,0.06223
6738.06950,0.10608
6739.99796,0.12962
6741.92643,0.11230
6743.85490,0.09381
6745.78337,0.13590
6747.71184,0.18097
6749.64031,0.16335
6751.56878,0.14087
6753.49724,0.12236
6755.42571,0.10701
6757.35418,0.09622
6759.28265,0.05422
6761.21112,0.00173
6763.13959,-0.02819
6765.06806,-0.01019
6766.99653,0.09842
6768.92499,0.23338
6770.85346,0.26982
6772.78193,0.24682
6774.71040,0.25663
6776.63887,0.23229
6778.56734,0.13155
6780.49581,0.05783
6782.42427,0.08142
6784.35274,0.13151
6786.28121,0.13516
6788.20968,0.10829
6790.13815,0.11766
6792.06662,0.20523
6793.99509,0.24848
6795.92355,0.18184
6797.85202,0.12789
6799.78049,0.12067
6801.70896,0.07555
6803.63743,0.04427
6805.56590,0.07068
6807.49437,0.07707
6809.42284,0.09580
6811.35130,0.12117
6813.27977,0.10930
6815.20824,0.09880
6817.13671,0.07694
6819.06518,0.03814
6820.99365,0.01084
6822.92212,0.03218
6824.85058,0.14424
6826.77905,0.25971
6828.70752,0.28626
6830.63599,0.27131
6832.56446,0.21777
6834.49293,0.10624
6836.42140,0.02899
6838.34987,-0.00922
6840.27833,-0.01629
6842.20680,0.01017
6844.13527,-0.01497
6846.06374,-0.00053
6847.99221,0.15214
6849.92068,0.24814
6851.84915,0.21069
6853.77761,0.18030
6855.70608,0.17365
6857.63455,0.13930
6859.56302,0.10273
6861.49149,0.09511
6863.41996,0.05853
6865.34843,0.02274
6867.27690,0.03942
6869.20536,0.04856
6871.13383,0.05736
6873.06230,0.10035
6874.99077,0.10273
6876.91924,0.00929
6878.84771,-0.12047
6880.77618,-0.18087
6882.70464,-0.13923
6884.63311,-0.03982
6886.56158,0.06468
6888.49005,0.15990
6890.41852,0.22127
6892.34699,0.19840
6894.27546,0.08781
6896.20393,-0.03324
6898.13239,-0.05114
6900.06086,-0.00211
6901.98933,0.00991
6903.91780,-0.00230
6905.84627,-0.08845
6907.77474,-0.17129
6909.70321,-0.08584
6911.63167,0.05113
6913.56014,0.15035
6915.48861,0.21016
6917.41708,0.14878
6919.34555,0.04598
6921.27402,0.00846
6923.20249,-0.02584
6925.13096,-0.05788
6927.05942,-0.02954
6928.98789,0.02098
6930.91636,-0.02033
6932.84483,-0.13361
6934.77330,-0.13263
6936.70177,-0.00410
6938.63024,0.11363
6940.55870,0.13047
6942.48717,0.04319
6944.41564,-0.09961
6946.34411,-0.14863
6948.27258,-0.05439
6950.20105,-0.00504
6952.12952,-0.01634
6954.05799,0.05677
6955.98645,0.16179
6957.91492,0.18497
6959.84339,0.18387
6961.77186,0.15148
6963.70033,0.04409
6965.62880,-0.05210
6967.55727,-0.04822
6969.48573,0.06346
6971.41420,0.23283
6973.34267,0.32249
6975.27114,0.29352
6977.19961,0.26254
6979.12808,0.26917
6981.05655,0.33819
6982.98501,0.40601
6984.91348,0.31685
6986.84195,0.12162
6988.77042,-0.00402
6990.69889,-0.02584
6992.62736,-0.02796
6994.55583,-0.04214
6996.48430,-0.03928
6998.41276,-0.01397
7000.34123,-0.02274
7002.26970,-0.08333
7004.19817,-0.13165
7006.12664,-0.08934
7008.05511,0.05103
7009.98358,0.16808
7011.91204,0.20696
7013.84051,0.18122
7015.76898,0.12136
7017.69745,0.09562
7019.62592,0.10051
7021.55439,0.06197
7023.48286,0.01297
7025.41133,0.01797
7027.33979,0.03589
7029.26826,0.07164
7031.19673,0.12500
7033.12520,0.12089
7035.05367,0.08105
7036.98214,0.12180
7038.91061,0.21139
7040.83907,0.22802
7042.76754,0.18115
7044.69601,0.17895
7046.62448,0.21892
7048.55295,0.25531
7050.48142,0.26369
7052.40989,0.28530
7054.33836,0.32517
7056.26682,0.25729
7058.19529,0.07918
7060.12376,0.01424
7062.05223,0.05864
7063.98070,0.04367
7065.90917,-0.00576
7067.83764,0.03435
7069.76610,0.13010
7071.69457,0.12881
7073.62304,0.07681
7075.55151,0.07339
7077.47998,0.03367
7079.40845,-0.05781
7081.33692,-0.13910
7083.26539,-0.19100
7085.19385,-0.13797
7087.12232,0.00575
7089.05079,0.03559
7090.97926,-0.03749
7092.90773,-0.00876
7094.83620,0.14398
7096.76467,0.27373
7098.69313,0.24209
7100.62160,0.12085
7102.55007,0.03868
7104.47854,-0.00527
7106.40701,-0.00510
7108.33548,0.01833
7110.26395,0.01656
7112.19242,0.00814
7114.12088,0.05173
7116.04935,0.06194
7117.97782,-0.12642
7119.90629,-0.29286
7121.83476,-0.22923
7123.76323,-0.08927
7125.69170,0.03213
7127.62016,0.12352
7129.54863,0.13217
7131.47710,0.05422
7133.40557,-0.05170
7135.33404,-0.12445
7137.26251,-0.07694
7139.19098,0.10098
7141.11944,0.18893
7143.04791,0.07003
7144.97638,-0.03278
7146.90485,0.07263
7148.83332,0.15608
7150.76179,0.09781
7152.69026,0.07934
7154.61873,0.12874
7156.54719,0.15244
7158.47566,0.14231
7160.40413,0.05478
7162.33260,-0.04340
7164.26107,-0.05514
7166.18954,-0.04801
7168.11801,-0.12144
7170.04647,-0.16985
7171.97494,-0.09159
7173.90341,-0.01022
7175.83188,0.11982
7177.76035,0.28267
7179.68882,0.26830
7181.61729,0.17348
7183.54576,0.17403
7185.47422,0.15805
7187.40269,0.10519
7189.33116,0.12311
7191.25963,0.17632
7193.18810,0.17602
7195.11657,0.13693
7197.04504,0.04510
7198.97350,-0.07621
7200.90197,-0.13547
7202.83044,-0.10264
7204.75891,-0.03100
7206.68738,0.02495
7208.61585,0.05114
7210.54432,0.06620
7212.47279,0.15651
7214.40125,0.33306
7216.32972,0.43225
7218.25819,0.30355
7220.18666,0.16736
7222.11513,0.13160
7224.04360,0.06711
7225.97207,-0.05199
7227.90053,-0.13735
7229.82900,-0.10933
7231.75747,0.05918
7233.68594,0.21278
7235.61441,0.18859
7237.54288,-0.00300
7239.47135,-0.14159
7241.39982,-0.09927
7243.32828,-0.02479
7245.25675,0.00331
7247.18522,0.10781
7249.11369,0.27271
7251.04216,0.38084
7252.97063,0.35055
7254.89910,0.25840
7256.82756,0.25404
7258.75603,0.28294
7260.68450,0.21193
7262.61297,0.05368
7264.54144,-0.00893
7266.46991,0.02791
7268.39838,0.05606
7270.32685,0.12110
7272.25531,0.24391
7274.18378,0.26325
7276.11225,0.15830
7278.04072,0.06156
7279.96919,0.06686
7281.89766,0.03498
7283.82613,-0.02802
7285.75459,0.08410
7287.68306,0.27405
7289.61153,0.31695
7291.54000,0.26607
7293.46847,0.17335
7295.39694,-0.03416
7297.32541,-0.08536
7299.25387,0.11496
7301.18234,0.28244
7303.11081,0.25902
7305.03928,0.21477
7306.96775,0.31733
7308.89622,0.38344
7310.82469,0.29536
7312.75316,0.23504
7314.68162,0.22281
7316.61009,0.21256
7318.53856,0.29675
7320.46703,0.33473
7322.39550,0.10274
7324.32397,-0.11365
7326.25244,-0.03208
7328.18090,0.12388
7330.10937,0.13278
7332.03784,0.08584
7333.96631,0.07896
7335.89478,0.14778
7337.82325,0.30918
7339.75172,0.31219
7341.68019,0.02776
7343.60865,-0.05186
7345.53712,0.10177
7347.46559,0.27219
7349.39406,0.30199
7351.32253,0.14065
7353.25100,-0.09209
7355.17947,-0.32085
7357.10793,-0.43481
7359.03640,-0.23085
7360.96487,0.11283
7362.89334,0.14484
7364.82181,-0.11809
7366.75028,-0.23636
7368.67875,-0.12947
7370.60722,-0.04931
7372.53568,-0.08678
7374.46415,-0.18476
7376.39262,-0.17367
7378.32109,-0.00583
7380.24956,0.15611
7382.17803,0.18577
7384.10650,0.03201
7386.03496,-0.14744
7387.96343,0.00858
7389.89190,0.41121
7391.82037,0.56507
7393.74884,0.37039
7395.67731,0.19123
7397.60578,0.13977
7399.53425,0.02070
7401.46271,-0.08335
7403.39118,-0.00596
7405.31965,0.07842
7407.24812,0.01012
7409.17659,-0.01572
7411.10506,0.00958
7413.03353,0.02661
7414.96199,0.11854
7416.89046,0.32742
7418.81893,0.54027
7420.74740,0.47649
7422.67587,0.29726
7424.60434,0.21995
7426.53281,0.14987
7428.46128,0.02095
7430.38974,0.00672
7432.31821,0.19026
7434.24668,0.30824
7436.17515,0.29151
7438.10362,0.25036
7440.03209,0.22761
7441.96056,0.22557
7443.88902,0.18122
7445.81749,0.03016
7447.74596,-0.10626
7449.67443,-0.06438
7451.60290,0.05170
7453.53137,0.06441
7455.45984,0.04616
7457.38831,0.01726
7459.31677,0.03152
7461.24524,0.19177
7463.17371,0.32156
7465.10218,0.34388
7467.03065,0.35654
7468.95912,0.37745
7470.88759,0.31680
7472.81605,0.09990
7474.74452,-0.22155
7476.67299,-0.47829
7478.60146,-0.31706
7480.52993,0.13574
7482.45840,0.32528
7484.38687,0.16351
7486.31533,-0.12460
7488.24380,-0.23201
7490.17227,-0.07835
7492.10074,0.04360
7494.02921,-0.01383
7495.95768,-0.07937
7497.88615,0.05246
