399.19301,0.02037
401.12148,-0.41647
403.04995,-0.25069
404.97842,-0.07287
406.90689,0.05001
408.83536,0.08448
410.76382,0.06681
412.69229,0.05592
414.62076,0.05195
416.54923,0.01691
418.47770,-0.06802
420.40617,-0.14331
422.33464,-0.15329
424.26311,-0.11236
426.19157,-0.03710
428.12004,0.01105
430.04851,0.01903
431.97698,0.02446
433.90545,-0.01154
435.83392,-0.12420
437.76239,-0.19726
439.69085,-0.13705
441.61932,0.04707
443.54779,0.15220
445.47626,0.04762
447.40473,-0.06652
449.33320,-0.05613
451.26167,-0.01094
453.19013,-0.01624
455.11860,-0.00205
457.04707,0.04887
458.97554,0.03793
460.90401,-0.00653
462.83248,0.01990
464.76095,0.09345
466.68942,0.09891
468.61788,0.05473
470.54635,0.15205
472.47482,0.88449
474.40329,1.74393
476.33176,1.10843
478.26023,0.33578
480.18870,0.09176
482.11716,0.05547
484.04563,0.03339
485.97410,0.02746
487.90257,0.04353
489.83104,0.07219
491.75951,0.07237
493.68798,0.04697
495.61645,0.03712
497.54491,0.04521
499.47338,0.05205
501.40185,0.09995
503.33032,0.19511
505.25879,0.25386
507.18726,0.24957
509.11573,0.21528
511.04419,0.17411
512.97266,0.12720
514.90113,0.10787
516.82960,0.13309
518.75807,0.15356
520.68654,0.15131
522.61501,0.14355
524.54348,0.11245
526.47194,0.06318
528.40041,0.03961
530.32888,0.05488
532.25735,0.09787
534.18582,0.13757
536.11429,0.14431
538.04276,0.11878
539.97122,0.10226
541.89969,0.12079
543.82816,0.15288
545.75663,0.18676
547.68510,0.19723
549.61357,0.09360
551.54204,-0.23643
553.47051,-0.54953
555.39897,-0.41324
557.32744,-0.04303
559.25591,0.08604
561.18438,0.05680
563.11285,0.08187
565.04132,0.13725
566.96979,0.15866
568.89825,0.15538
570.82672,0.15845
572.75519,0.18367
574.68366,0.21092
576.61213,0.20337
578.54060,0.17834
580.46907,0.15335
582.39754,0.13932
584.32600,0.14230
586.25447,0.13162
588.18294,0.09773
590.11141,0.07440
592.03988,0.08609
593.96835,0.11169
595.89682,0.12265
597.82528,0.11901
599.75375,0.11183
601.68222,0.11436
603.61069,0.11982
605.53916,0.10612
607.46763,0.09316
609.39610,0.11194
611.32456,0.14617
613.25303,0.16007
615.18150,0.14080
617.10997,0.10690
619.03844,0.07979
620.96691,0.06706
622.89538,0.07031
624.82385,0.08266
626.75231,0.10195
628.68078,0.12656
630.60925,0.13113
632.53772,0.10403
634.46619,0.08292
636.39466,0.09310
638.32313,0.11491
640.25159,0.13172
642.18006,0.13913
644.10853,0.13346
646.03700,0.12538
647.96547,0.13016
649.89394,0.13919
651.82241,0.13582
653.75088,0.12920
655.67934,0.13524
657.60781,0.14874
659.53628,0.14843
661.46475,0.13342
663.39322,0.13076
665.32169,0.14150
667.25016,0.14889
669.17862,0.14456
671.10709,0.13371
673.03556,0.12820
674.96403,0.12823
676.89250,0.13471
678.82097,0.14828
680.74944,0.15101
682.67791,0.13148
684.60637,0.11185
686.53484,0.11380
688.46331,0.12368
690.39178,0.12940
692.32025,0.13938
694.24872,0.15405
696.17719,0.16560
698.10565,0.17170
700.03412,0.17207
701.96259,0.15950
703.89106,0.13615
705.81953,0.12237
707.74800,0.12232
709.67647,0.10384
711.60494,0.06763
713.53340,0.06884
715.46187,0.10910
717.39034,0.13917
719.31881,0.14819
721.24728,0.14829
723.17575,0.15248
725.10422,0.16328
727.03268,0.16433
728.96115,0.15494
730.88962,0.14578
732.81809,0.13235
734.74656,0.11884
736.67503,0.11903
738.60350,0.12713
740.53197,0.13222
742.46043,0.13442
744.38890,0.13539
746.31737,0.14068
748.24584,0.15255
750.17431,0.15765
752.10278,0.14816
754.03125,0.13528
755.95971,0.12762
757.88818,0.12573
759.81665,0.12854
761.74512,0.12630
763.67359,0.11656
765.60206,0.11308
767.53053,0.12204
769.45900,0.13553
771.38746,0.14091
773.31593,0.13857
775.24440,0.14031
777.17287,0.14371
779.10134,0.14101
781.02981,0.13779
782.95828,0.14253
784.88674,0.15439
786.81521,0.16153
788.74368,0.15859
790.67215,0.15750
792.60062,0.15925
794.52909,0.15265
796.45756,0.14209
798.38602,0.13658
800.31449,0.13680
802.24296,0.14151
804.17143,0.14256
806.09990,0.13174
808.02837,0.11944
809.95684,0.11795
811.88531,0.12235
813.81377,0.13124
815.74224,0.14307
817.67071,0.14871
819.59918,0.14723
821.52765,0.14274
823.45612,0.14141
825.38459,0.14112
827.31305,0.13402
829.24152,0.13003
831.16999,0.13354
833.09846,0.13176
835.02693,0.12091
836.95540,0.11373
838.88387,0.12678
840.81234,0.15066
842.74080,0.15763
844.66927,0.14329
846.59774,0.12589
848.52621,0.12371
850.45468,0.13909
852.38315,0.15335
854.31162,0.15655
856.24008,0.15685
858.16855,0.15268
860.09702,0.14033
862.02549,0.13184
863.95396,0.13172
865.88243,0.13759
867.81090,0.15772
869.73937,0.18090
871.66783,0.18157
873.59630,0.16653
875.52477,0.15392
877.45324,0.14477
879.38171,0.13912
881.31018,0.13796
883.23865,0.13823
885.16711,0.13777
887.09558,0.13477
889.02405,0.12846
890.95252,0.12340
892.88099,0.12667
894.80946,0.13337
896.73793,0.13179
898.66640,0.13114
900.59486,0.14009
902.52333,0.14748
904.45180,0.15054
906.38027,0.15207
908.30874,0.15003
910.23721,0.14720
912.16568,0.14585
914.09414,0.13990
916.02261,0.13209
917.95108,0.13578
919.87955,0.14504
921.80802,0.14753
923.73649,0.14670
925.66496,0.14867
927.59343,0.15279
929.52189,0.15245
931.45036,0.14749
933.37883,0.14659
935.30730,0.14770
937.23577,0.14308
939.16424,0.13918
941.09271,0.14185
943.02117,0.14676
944.94964,0.15045
946.87811,0.14866
948.80658,0.14264
950.73505,0.14348
952.66352,0.15102
954.59199,0.15091
956.52045,0.14360
958.44892,0.14073
960.37739,0.14092
962.30586,0.14064
964.23433,0.14147
966.16280,0.14140
968.09127,0.13904
970.01974,0.13820
971.94820,0.13862
973.87667,0.13514
975.80514,0.13075
977.73361,0.13637
979.66208,0.15289
981.59055,0.16528
983.51902,0.16479
985.44748,0.15883
987.37595,0.15444
989.30442,0.15028
991.23289,0.14678
993.16136,0.14719
995.08983,0.14403
997.01830,0.13662
998.94677,0.13819
1000.87523,0.14535
1002.80370,0.14633
1004.73217,0.14293
1006.66064,0.14185
1008.58911,0.14459
1010.51758,0.14933
1012.44605,0.15416
1014.37451,0.15490
1016.30298,0.15294
1018.23145,0.15523
1020.15992,0.15968
1022.08839,0.16051
1024.01686,0.15585
1025.94533,0.14467
1027.87380,0.13536
1029.80226,0.14265
1031.73073,0.15816
1033.65920,0.16167
1035.58767,0.15460
1037.51614,0.14385
1039.44461,0.13319
1041.37308,0.13160
1043.30154,0.14146
1045.23001,0.15703
1047.15848,0.16805
1049.08695,0.16815
1051.01542,0.16101
1052.94389,0.15353
1054.87236,0.15479
1056.80083,0.16373
1058.72929,0.16798
1060.65776,0.16388
1062.58623,0.16122
1064.51470,0.16281
1066.44317,0.16065
1068.37164,0.15979
1070.30011,0.16391
1072.22857,0.16401
1074.15704,0.16111
1076.08551,0.16313
1078.01398,0.16899
1079.94245,0.17075
1081.87092,0.16644
1083.79939,0.15991
1085.72786,0.15548
1087.65632,0.15218
1089.58479,0.14892
1091.51326,0.15136
1093.44173,0.15234
1095.37020,0.14637
1097.29867,0.14665
1099.22714,0.15823
1101.15560,0.16895
1103.08407,0.16737
1105.01254,0.16678
1106.94101,0.18105
1108.86948,0.18847
1110.79795,0.17326
1112.72642,0.15811
1114.65489,0.16211
1116.58335,0.17299
1118.51182,0.17210
1120.44029,0.16167
1122.36876,0.15708
1124.29723,0.15777
1126.22570,0.15659
1128.15417,0.16083
1130.08263,0.16790
1132.01110,0.16800
1133.93957,0.16474
1135.86804,0.16213
1137.79651,0.16119
1139.72498,0.16374
1141.65345,0.16860
1143.58191,0.17185
1145.51038,0.17117
1147.43885,0.16932
1149.36732,0.16793
1151.29579,0.16364
1153.22426,0.15828
1155.15273,0.15981
1157.08120,0.16708
1159.00966,0.17058
1160.93813,0.16819
1162.86660,0.16438
1164.79507,0.16378
1166.72354,0.16828
1168.65201,0.17130
1170.58048,0.16840
1172.50894,0.16665
1174.43741,0.17026
1176.36588,0.17493
1178.29435,0.17557
1180.22282,0.17005
1182.15129,0.16358
1184.07976,0.16476
1186.00823,0.17140
1187.93669,0.17443
1189.86516,0.17312
1191.79363,0.17025
1193.72210,0.16815
1195.65057,0.16811
1197.57904,0.16544
1199.50751,0.16000
1201.43597,0.15804
1203.36444,0.16056
1205.29291,0.16438
1207.22138,0.16537
1209.14985,0.16208
1211.07832,0.15959
1213.00679,0.16207
1214.93526,0.16583
1216.86372,0.16656
1218.79219,0.16519
1220.72066,0.16346
1222.64913,0.16180
1224.57760,0.16171
1226.50607,0.16416
1228.43454,0.16726
1230.36300,0.16936
1232.29147,0.17027
1234.21994,0.16986
1236.14841,0.16898
1238.07688,0.16895
1240.00535,0.16823
1241.93382,0.16520
1243.86229,0.16120
1245.79075,0.15891
1247.71922,0.16242
1249.64769,0.16917
1251.57616,0.17015
1253.50463,0.16668
1255.43310,0.16484
1257.36157,0.16224
1259.29003,0.15855
1261.21850,0.15929
1263.14697,0.16362
1265.07544,0.16493
1267.00391,0.16322
1268.93238,0.16541
1270.86085,0.17244
1272.78932,0.17520
1274.71778,0.16899
1276.64625,0.16441
1278.57472,0.16721
1280.50319,0.16662
1282.43166,0.16163
1284.36013,0.16110
1286.28860,0.16301
1288.21706,0.16640
1290.14553,0.17125
1292.07400,0.16955
1294.00247,0.16189
1295.93094,0.15594
1297.85941,0.15192
1299.78788,0.14608
1301.71634,0.13437
1303.64481,0.11803
1305.57328,0.11575
1307.50175,0.13789
1309.43022,0.15950
1311.35869,0.16492
1313.28716,0.16692
1315.21563,0.17217
1317.14409,0.17800
1319.07256,0.18020
1321.00103,0.17697
1322.92950,0.17152
1324.85797,0.16428
1326.78644,0.15800
1328.71491,0.15683
1330.64337,0.15559
1332.57184,0.15537
1334.50031,0.16109
1336.42878,0.16613
1338.35725,0.16581
1340.28572,0.15986
1342.21419,0.16257
1344.14266,0.17814
1346.07112,0.18650
1347.99959,0.18055
1349.92806,0.16672
1351.85653,0.15788
1353.78500,0.16068
1355.71347,0.16431
1357.64194,0.16633
1359.57040,0.17153
1361.49887,0.17901
1363.42734,0.18299
1365.35581,0.18090
1367.28428,0.17679
1369.21275,0.17302
1371.14122,0.17239
1373.06969,0.17673
1374.99815,0.18161
1376.92662,0.18155
1378.85509,0.18006
1380.78356,0.17968
1382.71203,0.18138
1384.64050,0.18612
1386.56897,0.18975
1388.49743,0.18729
1390.42590,0.18260
1392.35437,0.18175
1394.28284,0.18453
1396.21131,0.18623
1398.13978,0.18636
1400.06825,0.18658
1401.99672,0.18534
1403.92518,0.18316
1405.85365,0.18117
1407.78212,0.18028
1409.71059,0.17998
1411.63906,0.17679
1413.56753,0.17294
1415.49600,0.17496
1417.42446,0.18202
1419.35293,0.18618
1421.28140,0.18710
1423.20987,0.18804
1425.13834,0.18664
1427.06681,0.18691
1428.99528,0.19010
1430.92375,0.18987
1432.85221,0.18704
1434.78068,0.18785
1436.70915,0.19202
1438.63762,0.19172
1440.56609,0.18665
1442.49456,0.18284
1444.42303,0.18520
1446.35149,0.19143
1448.27996,0.19303
1450.20843,0.18937
1452.13690,0.18850
1454.06537,0.19357
1455.99384,0.20465
1457.92231,0.20934
1459.85077,0.19929
1461.77924,0.19445
1463.70771,0.19700
1465.63618,0.19544
1467.56465,0.18814
1469.49312,0.18667
1471.42159,0.19289
1473.35006,0.20128
1475.27852,0.20488
1477.20699,0.20248
1479.13546,0.19685
1481.06393,0.19259
1482.99240,0.19267
1484.92087,0.19705
1486.84934,0.20388
1488.77780,0.20894
1490.70627,0.20544
1492.63474,0.19994
1494.56321,0.20151
1496.49168,0.20650
1498.42015,0.20478
1500.34862,0.19581
1502.27709,0.18331
1504.20555,0.17388
1506.13402,0.18273
1508.06249,0.20559
1509.99096,0.20519
1511.91943,0.19698
1513.84790,0.19440
1515.77637,0.20257
1517.70483,0.21468
1519.63330,0.22359
1521.56177,0.22844
1523.49024,0.21716
1525.41871,0.20114
1527.34718,0.19380
1529.27565,0.19416
1531.20412,0.19988
1533.13258,0.20854
1535.06105,0.21262
1536.98952,0.21540
1538.91799,0.22484
1540.84646,0.23474
1542.77493,0.22778
1544.70340,0.21415
1546.63186,0.20396
1548.56033,0.20003
1550.48880,0.19952
1552.41727,0.20025
1554.34574,0.20439
1556.27421,0.21650
1558.20268,0.23447
1560.13115,0.22603
1562.05961,0.20956
1563.98808,0.20132
1565.91655,0.19591
1567.84502,0.19448
1569.77349,0.19644
1571.70196,0.19779
1573.63043,0.20231
1575.55889,0.21027
1577.48736,0.20536
1579.41583,0.19056
1581.34430,0.18094
1583.27277,0.17745
1585.20124,0.17638
1587.12971,0.17692
1589.05818,0.18028
1590.98664,0.18486
1592.91511,0.18803
1594.84358,0.18720
1596.77205,0.18190
1598.70052,0.17845
1600.62899,0.18223
1602.55746,0.18664
1604.48592,0.18462
1606.41439,0.18285
1608.34286,0.18697
1610.27133,0.19089
1612.19980,0.19005
1614.12827,0.19055
1616.05674,0.19674
1617.98521,0.19956
1619.91367,0.19686
1621.84214,0.19684
1623.77061,0.19992
1625.69908,0.20242
1627.62755,0.20170
1629.55602,0.19505
1631.48449,0.18974
1633.41295,0.19694
1635.34142,0.21509
1637.26989,0.21663
1639.19836,0.20510
1641.12683,0.19715
1643.05530,0.19549
1644.98377,0.20725
1646.91223,0.22702
1648.84070,0.22446
1650.76917,0.21838
1652.69764,0.22514
1654.62611,0.21570
1656.55458,0.20109
1658.48305,0.19817
1660.41152,0.19683
1662.33998,0.19269
1664.26845,0.19536
1666.19692,0.20300
1668.12539,0.21032
1670.05386,0.21429
1671.98233,0.21167
1673.91080,0.20934
1675.83926,0.20624
1677.76773,0.20246
1679.69620,0.20556
1681.62467,0.21778
1683.55314,0.22896
1685.48161,0.21906
1687.41008,0.20947
1689.33855,0.20504
1691.26701,0.19784
1693.19548,0.19695
1695.12395,0.21003
1697.05242,0.22465
1698.98089,0.22287
1700.90936,0.21080
1702.83783,0.20483
1704.76629,0.20656
1706.69476,0.20869
1708.62323,0.20550
1710.55170,0.20007
1712.48017,0.19816
1714.40864,0.20455
1716.33711,0.21476
1718.26558,0.20677
1720.19404,0.19011
1722.12251,0.18348
1724.05098,0.18395
1725.97945,0.18776
1727.90792,0.19365
1729.83639,0.19960
1731.76486,0.20427
1733.69332,0.20527
1735.62179,0.20157
1737.55026,0.20254
1739.47873,0.20551
1741.40720,0.20238
1743.33567,0.19782
1745.26414,0.19835
1747.19261,0.20212
1749.12107,0.20548
1751.04954,0.20222
1752.97801,0.19454
1754.90648,0.19176
1756.83495,0.19404
1758.76342,0.19577
1760.69189,0.19553
1762.62035,0.19382
1764.54882,0.19134
1766.47729,0.19266
1768.40576,0.19911
1770.33423,0.20711
1772.26270,0.21302
1774.19117,0.21132
1776.11964,0.20523
1778.04810,0.20051
1779.97657,0.19773
1781.90504,0.19642
1783.83351,0.19710
1785.76198,0.19786
1787.69045,0.19713
1789.61892,0.19770
1791.54738,0.19896
1793.47585,0.19766
1795.40432,0.19713
1797.33279,0.19597
1799.26126,0.19290
1801.18973,0.19285
1803.11820,0.19370
1805.04666,0.19294
1806.97513,0.19458
1808.90360,0.19773
1810.83207,0.19628
1812.76054,0.19119
1814.68901,0.18883
1816.61748,0.19381
1818.54595,0.20964
1820.47441,0.22413
1822.40288,0.22063
1824.33135,0.20496
1826.25982,0.19664
1828.18829,0.20002
1830.11676,0.20376
1832.04523,0.20038
1833.97369,0.19388
1835.90216,0.18976
1837.83063,0.18918
1839.75910,0.18983
1841.68757,0.19145
1843.61604,0.19344
1845.54451,0.19329
1847.47298,0.19071
1849.40144,0.18836
1851.32991,0.18966
1853.25838,0.19399
1855.18685,0.19552
1857.11532,0.19106
1859.04379,0.18592
1860.97226,0.18487
1862.90072,0.18636
1864.82919,0.19080
1866.75766,0.19824
1868.68613,0.20075
1870.61460,0.19495
1872.54307,0.19024
1874.47154,0.19042
1876.40001,0.19147
1878.32847,0.18973
1880.25694,0.18822
1882.18541,0.18961
1884.11388,0.19171
1886.04235,0.19313
1887.97082,0.19429
1889.89929,0.19339
1891.82775,0.19151
1893.75622,0.19317
1895.68469,0.19530
1897.61316,0.19300
1899.54163,0.19025
1901.47010,0.19026
1903.39857,0.19065
1905.32704,0.19123
1907.25550,0.19282
1909.18397,0.19275
1911.11244,0.19144
1913.04091,0.19239
1914.96938,0.19329
1916.89785,0.19129
1918.82632,0.19032
1920.75478,0.19265
1922.68325,0.19450
1924.61172,0.19309
1926.54019,0.19103
1928.46866,0.19119
1930.39713,0.19114
1932.32560,0.18929
1934.25407,0.18699
1936.18253,0.18434
1938.11100,0.18302
1940.03947,0.18570
1941.96794,0.19096
1943.89641,0.19573
1945.82488,0.19726
1947.75335,0.19430
1949.68181,0.19085
1951.61028,0.18941
1953.53875,0.18853
1955.46722,0.18880
1957.39569,0.19073
1959.32416,0.19355
1961.25263,0.19604
1963.18110,0.19678
1965.10956,0.19577
1967.03803,0.19282
1968.96650,0.18956
1970.89497,0.18888
1972.82344,0.18844
1974.75191,0.18716
1976.68038,0.18836
1978.60884,0.19165
1980.53731,0.19239
1982.46578,0.18884
1984.39425,0.18737
1986.32272,0.18980
1988.25119,0.19000
1990.17966,0.18862
1992.10812,0.18901
1994.03659,0.19008
1995.96506,0.19096
1997.89353,0.19255
1999.82200,0.19568
2001.75047,0.19833
2003.67894,0.19612
2005.60741,0.19037
2007.53587,0.18838
2009.46434,0.19015
2011.39281,0.19075
2013.32128,0.19099
2015.24975,0.19262
2017.17822,0.19408
2019.10669,0.19296
2021.03515,0.18964
2022.96362,0.18795
2024.89209,0.18887
2026.82056,0.19010
2028.74903,0.19214
2030.67750,0.19472
2032.60597,0.19488
2034.53444,0.19267
2036.46290,0.19067
2038.39137,0.18970
2040.31984,0.18863
2042.24831,0.18885
2044.17678,0.19174
2046.10525,0.19267
2048.03372,0.19010
2049.96218,0.18858
2051.89065,0.18825
2053.81912,0.18756
2055.74759,0.18674
2057.67606,0.18433
2059.60453,0.18133
2061.53300,0.18282
2063.46147,0.18941
2065.38993,0.19498
2067.31840,0.19633
2069.24687,0.19599
2071.17534,0.19541
2073.10381,0.19450
2075.03228,0.19402
2076.96075,0.19365
2078.88921,0.19229
2080.81768,0.19152
2082.74615,0.19391
2084.67462,0.19764
2086.60309,0.19829
2088.53156,0.19615
2090.46003,0.19447
2092.38850,0.19470
2094.31696,0.19516
2096.24543,0.19373
2098.17390,0.19194
2100.10237,0.19132
2102.03084,0.19176
2103.95931,0.19274
2105.88778,0.19264
2107.81624,0.19093
2109.74471,0.18940
2111.67318,0.18953
2113.60165,0.19057
2115.53012,0.19154
2117.45859,0.19275
2119.38706,0.19436
2121.31553,0.19450
2123.24399,0.19221
2125.17246,0.19070
2127.10093,0.19169
2129.02940,0.19151
2130.95787,0.18925
2132.88634,0.18905
2134.81481,0.19403
2136.74327,0.20088
2138.67174,0.20014
2140.60021,0.19359
2142.52868,0.19250
2144.45715,0.19556
2146.38562,0.19630
2148.31409,0.19523
2150.24255,0.19455
2152.17102,0.19420
2154.09949,0.19271
2156.02796,0.19040
2157.95643,0.18937
2159.88490,0.19074
2161.81337,0.19225
2163.74184,0.19050
2165.67030,0.18803
2167.59877,0.19010
2169.52724,0.19386
2171.45571,0.19377
2173.38418,0.19223
2175.31265,0.19304
2177.24112,0.19411
2179.16958,0.19389
2181.09805,0.19406
2183.02652,0.19413
2184.95499,0.19342
2186.88346,0.19339
2188.81193,0.19340
2190.74040,0.19090
2192.66887,0.18733
2194.59733,0.18671
2196.52580,0.18973
2198.45427,0.19351
2200.38274,0.19448
2202.31121,0.19266
2204.23968,0.19113
2206.16815,0.19172
2208.09661,0.19438
2210.02508,0.19666
2211.95355,0.19837
2213.88202,0.20191
2215.81049,0.20345
2217.73896,0.19848
2219.66743,0.19154
2221.59590,0.18899
2223.52436,0.19020
2225.45283,0.19197
2227.38130,0.19367
2229.30977,0.19480
2231.23824,0.19615
2233.16671,0.19725
2235.09518,0.19453
2237.02364,0.19107
2238.95211,0.19181
2240.88058,0.19297
2242.80905,0.19025
2244.73752,0.18709
2246.66599,0.18825
2248.59446,0.19190
2250.52293,0.19399
2252.45139,0.19374
2254.37986,0.19272
2256.30833,0.19232
2258.23680,0.19171
2260.16527,0.19024
2262.09374,0.18872
2264.02221,0.18892
2265.95067,0.19077
2267.87914,0.19093
2269.80761,0.18930
2271.73608,0.18867
2273.66455,0.18955
2275.59302,0.19189
2277.52149,0.19480
2279.44996,0.19539
2281.37842,0.19401
2283.30689,0.19426
2285.23536,0.19530
2287.16383,0.19433
2289.09230,0.19330
2291.02077,0.19408
2292.94924,0.19470
2294.87770,0.19418
2296.80617,0.19200
2298.73464,0.18800
2300.66311,0.18558
2302.59158,0.18495
2304.52005,0.18458
2306.44852,0.18647
2308.37699,0.18890
2310.30545,0.18957
2312.23392,0.18953
2314.16239,0.18797
2316.09086,0.18514
2318.01933,0.18123
2319.94780,0.17546
2321.87627,0.17232
2323.80473,0.17638
2325.73320,0.18311
2327.66167,0.18701
2329.59014,0.18882
2331.51861,0.18768
2333.44708,0.18736
2335.37555,0.19589
2337.30401,0.20694
2339.23248,0.20860
2341.16095,0.20197
2343.08942,0.19507
2345.01789,0.18635
2346.94636,0.18002
2348.87483,0.18253
2350.80330,0.18823
2352.73176,0.18870
2354.66023,0.18001
2356.58870,0.16853
2358.51717,0.16713
2360.44564,0.17423
2362.37411,0.17237
2364.30258,0.16766
2366.23104,0.17482
2368.15951,0.18408
2370.08798,0.18655
2372.01645,0.18670
2373.94492,0.18704
2375.87339,0.18374
2377.80186,0.17996
2379.73033,0.18272
2381.65879,0.18839
2383.58726,0.19167
2385.51573,0.19356
2387.44420,0.19427
2389.37267,0.19355
2391.30114,0.19393
2393.22961,0.19509
2395.15807,0.19359
2397.08654,0.19104
2399.01501,0.19110
2400.94348,0.19177
2402.87195,0.19154
2404.80042,0.19194
2406.72889,0.19178
2408.65736,0.19023
2410.58582,0.18825
2412.51429,0.18764
2414.44276,0.19054
2416.37123,0.19438
2418.29970,0.19487
2420.22817,0.19132
2422.15664,0.18588
2424.08510,0.18296
2426.01357,0.18487
2427.94204,0.18913
2429.87051,0.19292
2431.79898,0.19464
2433.72745,0.19440
2435.65592,0.19417
2437.58439,0.19377
2439.51285,0.19231
2441.44132,0.19179
2443.36979,0.19316
2445.29826,0.19377
2447.22673,0.19277
2449.15520,0.19153
2451.08367,0.18884
2453.01213,0.18544
2454.94060,0.18557
2456.86907,0.18833
2458.79754,0.19051
2460.72601,0.19236
2462.65448,0.19313
2464.58295,0.19312
2466.51142,0.19406
2468.43988,0.19344
2470.36835,0.19037
2472.29682,0.18907
2474.22529,0.19024
2476.15376,0.19110
2478.08223,0.19172
2480.01070,0.19240
2481.93916,0.19322
2483.86763,0.19575
2485.79610,0.19865
2487.72457,0.19899
2489.65304,0.19726
2491.58151,0.19477
2493.50998,0.19235
2495.43844,0.19130
2497.36691,0.19202
2499.29538,0.19341
2501.22385,0.19424
2503.15232,0.19643
2505.08079,0.20042
2507.00926,0.20138
2508.93773,0.19830
2510.86619,0.19522
2512.79466,0.19398
2514.72313,0.19436
2516.65160,0.19539
2518.58007,0.19528
2520.50854,0.19494
2522.43701,0.19605
2524.36547,0.19690
2526.29394,0.19656
2528.22241,0.19652
2530.15088,0.19737
2532.07935,0.19783
2534.00782,0.19693
2535.93629,0.19513
2537.86476,0.19288
2539.79322,0.19055
2541.72169,0.18828
2543.65016,0.18698
2545.57863,0.18879
2547.50710,0.19376
2549.43557,0.19819
2551.36404,0.19849
2553.29250,0.19633
2555.22097,0.19530
2557.14944,0.19511
2559.07791,0.19367
2561.00638,0.19199
2562.93485,0.19238
2564.86332,0.19320
2566.79179,0.19183
2568.72025,0.19033
2570.64872,0.19152
2572.57719,0.19343
2574.50566,0.19373
2576.43413,0.19398
2578.36260,0.19497
2580.29107,0.19593
2582.21953,0.19647
2584.14800,0.19567
2586.07647,0.19466
2588.00494,0.19559
2589.93341,0.19770
2591.86188,0.19858
2593.79035,0.19767
2595.71882,0.19635
2597.64728,0.19584
2599.57575,0.19663
2601.50422,0.19835
2603.43269,0.19993
2605.36116,0.19989
2607.28963,0.19936
2609.21810,0.19946
2611.14656,0.19814
2613.07503,0.19769
2615.00350,0.19969
2616.93197,0.19978
2618.86044,0.19737
2620.78891,0.19539
2622.71738,0.19510
2624.64585,0.19515
2626.57431,0.19362
2628.50278,0.19404
2630.43125,0.19972
2632.35972,0.20517
2634.28819,0.20560
2636.21666,0.20285
2638.14513,0.20081
2640.07359,0.20153
2642.00206,0.20221
2643.93053,0.20019
2645.85900,0.19769
2647.78747,0.19715
2649.71594,0.19765
2651.64441,0.19883
2653.57288,0.20217
2655.50134,0.20577
2657.42981,0.20673
2659.35828,0.20522
2661.28675,0.20164
2663.21522,0.19735
2665.14369,0.19585
2667.07216,0.19791
2669.00062,0.20032
2670.92909,0.20017
2672.85756,0.19783
2674.78603,0.19618
2676.71450,0.19689
2678.64297,0.19891
2680.57144,0.20053
2682.49990,0.20004
2684.42837,0.19756
2686.35684,0.19569
2688.28531,0.19598
2690.21378,0.19863
2692.14225,0.20203
2694.07072,0.20476
2695.99919,0.20701
2697.92765,0.20651
2699.85612,0.20332
2701.78459,0.20150
2703.71306,0.20228
2705.64153,0.20294
2707.57000,0.20297
2709.49847,0.20421
2711.42693,0.20497
2713.35540,0.20457
2715.28387,0.20439
2717.21234,0.20404
2719.14081,0.20392
2721.06928,0.20447
2722.99775,0.20314
2724.92622,0.19993
2726.85468,0.20091
2728.78315,0.20584
2730.71162,0.20681
2732.64009,0.20303
2734.56856,0.20157
2736.49703,0.20431
2738.42550,0.20578
2740.35396,0.20442
2742.28243,0.20344
2744.21090,0.20250
2746.13937,0.19966
2748.06784,0.19805
2749.99631,0.19877
2751.92478,0.19870
2753.85325,0.19999
2755.78171,0.20382
2757.71018,0.20503
2759.63865,0.20196
2761.56712,0.20041
2763.49559,0.20263
2765.42406,0.20372
2767.35253,0.20378
2769.28099,0.20659
2771.20946,0.20924
2773.13793,0.20846
2775.06640,0.20812
2776.99487,0.20938
2778.92334,0.20827
2780.85181,0.20700
2782.78028,0.20817
2784.70874,0.20832
2786.63721,0.20744
2788.56568,0.20780
2790.49415,0.20839
2792.42262,0.20812
2794.35109,0.20647
2796.27956,0.20483
2798.20802,0.20653
2800.13649,0.21036
2802.06496,0.21234
2803.99343,0.21288
2805.92190,0.21417
2807.85037,0.21466
2809.77884,0.21262
2811.70731,0.21019
2813.63577,0.21045
2815.56424,0.21280
2817.49271,0.21362
2819.42118,0.21403
2821.34965,0.21636
2823.27812,0.21545
2825.20659,0.20930
2827.13505,0.20522
2829.06352,0.20611
2830.99199,0.20819
2832.92046,0.21073
2834.84893,0.21199
2836.77740,0.20932
2838.70587,0.20662
2840.63433,0.20777
2842.56280,0.21052
2844.49127,0.21221
2846.41974,0.21211
2848.34821,0.20927
2850.27668,0.20496
2852.20515,0.20167
2854.13362,0.20062
2856.06208,0.20195
2857.99055,0.20501
2859.91902,0.20854
2861.84749,0.20906
2863.77596,0.20602
2865.70443,0.20376
2867.63290,0.20393
2869.56136,0.20429
2871.48983,0.20483
2873.41830,0.20751
2875.34677,0.20916
2877.27524,0.20755
2879.20371,0.20552
2881.13218,0.20260
2883.06065,0.19927
2884.98911,0.20104
2886.91758,0.20882
2888.84605,0.21481
2890.77452,0.21455
2892.70299,0.21287
2894.63146,0.21028
2896.55993,0.20580
2898.48839,0.20414
2900.41686,0.20573
2902.34533,0.20644
2904.27380,0.20424
2906.20227,0.20335
2908.13074,0.20649
2910.05921,0.20944
2911.98768,0.21071
2913.91614,0.20763
2915.84461,0.19993
2917.77308,0.19687
2919.70155,0.19941
2921.63002,0.19997
2923.55849,0.19679
2925.48696,0.18948
2927.41542,0.18532
2929.34389,0.19524
2931.27236,0.20667
2933.20083,0.20575
2935.12930,0.19840
2937.05777,0.19095
2938.98624,0.19311
2940.91471,0.20449
2942.84317,0.20904
2944.77164,0.20083
2946.70011,0.18776
2948.62858,0.18715
2950.55705,0.20072
2952.48552,0.21039
2954.41399,0.20982
2956.34245,0.19931
2958.27092,0.18777
2960.19939,0.19126
2962.12786,0.20251
2964.05633,0.20502
2965.98480,0.19838
2967.91327,0.19121
2969.84174,0.19309
2971.77020,0.20398
2973.69867,0.21355
2975.62714,0.21111
2977.55561,0.19838
2979.48408,0.19348
2981.41255,0.20056
2983.34102,0.20750
2985.26948,0.20849
2987.19795,0.20198
2989.12642,0.19815
2991.05489,0.20711
2992.98336,0.21910
2994.91183,0.22356
2996.84030,0.22158
2998.76877,0.21909
3000.69723,0.21747
3002.62570,0.21641
3004.55417,0.21675
3006.48264,0.21098
3008.41111,0.19850
3010.33958,0.18560
3012.26805,0.16409
3014.19651,0.12804
3016.12498,0.09838
3018.05345,0.11119
3019.98192,0.16218
3021.91039,0.20320
3023.83886,0.21584
3025.76733,0.21371
3027.69579,0.20528
3029.62426,0.20054
3031.55273,0.20655
3033.48120,0.21637
3035.40967,0.21898
3037.33814,0.21269
3039.26661,0.20724
3041.19508,0.20594
3043.12354,0.20487
3045.05201,0.20346
3046.98048,0.19968
3048.90895,0.19781
3050.83742,0.20201
3052.76589,0.20563
3054.69436,0.20289
3056.62282,0.19768
3058.55129,0.20134
3060.47976,0.21175
3062.40823,0.21770
3064.33670,0.21353
3066.26517,0.20079
3068.19364,0.19684
3070.12211,0.20636
3072.05057,0.21149
3073.97904,0.20440
3075.90751,0.19455
3077.83598,0.19582
3079.76445,0.20652
3081.69292,0.21194
3083.62139,0.20302
3085.54985,0.19252
3087.47832,0.19987
3089.40679,0.21273
3091.33526,0.21188
3093.26373,0.19982
3095.19220,0.19148
3097.12067,0.19637
3099.04914,0.20254
3100.97760,0.19934
3102.90607,0.19094
3104.83454,0.18972
3106.76301,0.19820
3108.69148,0.20296
3110.61995,0.19890
3112.54842,0.19453
3114.47688,0.20078
3116.40535,0.21312
3118.33382,0.21764
3120.26229,0.21192
3122.19076,0.20486
3124.11923,0.20666
3126.04770,0.21275
3127.97617,0.21221
3129.90463,0.20575
3131.83310,0.20317
3133.76157,0.20837
3135.69004,0.21517
3137.61851,0.21575
3139.54698,0.20978
3141.47545,0.20809
3143.40391,0.21354
3145.33238,0.21699
3147.26085,0.21409
3149.18932,0.21062
3151.11779,0.21286
3153.04626,0.21383
3154.97473,0.20804
3156.90320,0.20535
3158.83166,0.21046
3160.76013,0.21446
3162.68860,0.21280
3164.61707,0.21142
3166.54554,0.21470
3168.47401,0.21917
3170.40248,0.22107
3172.33094,0.22039
3174.25941,0.21940
3176.18788,0.22001
3178.11635,0.22027
3180.04482,0.21918
3181.97329,0.21927
3183.90176,0.22293
3185.83022,0.22789
3187.75869,0.22767
3189.68716,0.22129
3191.61563,0.21541
3193.54410,0.21460
3195.47257,0.21607
3197.40104,0.21863
3199.32951,0.22369
3201.25797,0.22598
3203.18644,0.22111
3205.11491,0.21480
3207.04338,0.21289
3208.97185,0.21521
3210.90032,0.22069
3212.82879,0.22673
3214.75725,0.23052
3216.68572,0.23063
3218.61419,0.22603
3220.54266,0.21951
3222.47113,0.21610
3224.39960,0.21474
3226.32807,0.21103
3228.25654,0.20713
3230.18500,0.21007
3232.11347,0.21930
3234.04194,0.22478
3235.97041,0.22228
3237.89888,0.21592
3239.82735,0.21157
3241.75582,0.21253
3243.68428,0.21654
3245.61275,0.22239
3247.54122,0.22819
3249.46969,0.22965
3251.39816,0.22657
3253.32663,0.22063
3255.25510,0.21324
3257.18357,0.20853
3259.11203,0.20876
3261.04050,0.20957
3262.96897,0.20926
3264.89744,0.20954
3266.82591,0.21021
3268.75438,0.21261
3270.68285,0.21445
3272.61131,0.21122
3274.53978,0.20788
3276.46825,0.20903
3278.39672,0.20991
3280.32519,0.21076
3282.25366,0.21561
3284.18213,0.22083
3286.11060,0.22218
3288.03906,0.22088
3289.96753,0.21876
3291.89600,0.21685
3293.82447,0.21707
3295.75294,0.22002
3297.68141,0.22309
3299.60988,0.22153
3301.53834,0.21541
3303.46681,0.20975
3305.39528,0.20714
3307.32375,0.20741
3309.25222,0.20941
3311.18069,0.21187
3313.10916,0.21220
3315.03763,0.20868
3316.96609,0.20515
3318.89456,0.20725
3320.82303,0.21410
3322.75150,0.21823
3324.67997,0.21713
3326.60844,0.21467
3328.53691,0.21301
3330.46537,0.21289
3332.39384,0.21597
3334.32231,0.22023
3336.25078,0.22136
3338.17925,0.22022
3340.10772,0.21925
3342.03619,0.21914
3343.96466,0.22044
3345.89312,0.22234
3347.82159,0.22227
3349.75006,0.21908
3351.67853,0.21719
3353.60700,0.21928
3355.53547,0.22148
3357.46394,0.22269
3359.39240,0.22264
3361.32087,0.21833
3363.24934,0.21485
3365.17781,0.21979
3367.10628,0.22718
3369.03475,0.22547
3370.96322,0.21666
3372.89168,0.21356
3374.82015,0.21890
3376.74862,0.22451
3378.67709,0.22416
3380.60556,0.21731
3382.53403,0.21100
3384.46250,0.21222
3386.39097,0.21739
3388.31943,0.22125
3390.24790,0.22462
3392.17637,0.22533
3394.10484,0.21996
3396.03331,0.21248
3397.96178,0.20688
3399.89025,0.20210
3401.81871,0.19906
3403.74718,0.19961
3405.67565,0.20489
3407.60412,0.21233
3409.53259,0.21146
3411.46106,0.20479
3413.38953,0.20475
3415.31800,0.20899
3417.24646,0.21227
3419.17493,0.21407
3421.10340,0.21277
3423.03187,0.20850
3424.96034,0.20436
3426.88881,0.20391
3428.81728,0.20536
3430.74574,0.20531
3432.67421,0.20620
3434.60268,0.20906
3436.53115,0.21010
3438.45962,0.20896
3440.38809,0.20914
3442.31656,0.21276
3444.24503,0.21514
3446.17349,0.20840
3448.10196,0.19728
3450.03043,0.19286
3451.95890,0.19328
3453.88737,0.19230
3455.81584,0.18983
3457.74431,0.18898
3459.67277,0.19102
3461.60124,0.19451
3463.52971,0.19855
3465.45818,0.20200
3467.38665,0.20323
3469.31512,0.20205
3471.24359,0.19745
3473.17206,0.19112
3475.10052,0.18705
3477.02899,0.18713
3478.95746,0.19170
3480.88593,0.19567
3482.81440,0.19494
3484.74287,0.19126
3486.67134,0.18585
3488.59980,0.18198
3490.52827,0.18157
3492.45674,0.18212
3494.38521,0.18263
3496.31368,0.18448
3498.24215,0.18758
3500.17062,0.18956
3502.09909,0.19036
3504.02755,0.19128
3505.95602,0.19353
3507.88449,0.19418
3509.81296,0.18934
3511.74143,0.18555
3513.66990,0.18667
3515.59837,0.18617
3517.52683,0.18196
3519.45530,0.17898
3521.38377,0.18112
3523.31224,0.18636
3525.24071,0.19053
3527.16918,0.19171
3529.09765,0.18918
3531.02611,0.18384
3532.95458,0.17673
3534.88305,0.17065
3536.81152,0.17037
3538.73999,0.17316
3540.66846,0.17123
3542.59693,0.16474
3544.52540,0.16131
3546.45386,0.16399
3548.38233,0.16557
3550.31080,0.16215
3552.23927,0.15821
3554.16774,0.15794
3556.09621,0.15797
3558.02468,0.15705
3559.95314,0.16013
3561.88161,0.16503
3563.81008,0.16485
3565.73855,0.16242
3567.66702,0.16418
3569.59549,0.16568
3571.52396,0.16336
3573.45243,0.16002
3575.38089,0.16003
3577.30936,0.16371
3579.23783,0.16394
3581.16630,0.16049
3583.09477,0.15937
3585.02324,0.15946
3586.95171,0.15845
3588.88017,0.15802
3590.80864,0.15719
3592.73711,0.15572
3594.66558,0.15619
3596.59405,0.15659
3598.52252,0.15431
3600.45099,0.15273
3602.37946,0.15258
3604.30792,0.15055
3606.23639,0.14856
3608.16486,0.15347
3610.09333,0.16162
3612.02180,0.16326
3613.95027,0.16063
3615.87874,0.16042
3617.80720,0.16439
3619.73567,0.16589
3621.66414,0.16011
3623.59261,0.15489
3625.52108,0.15589
3627.44955,0.16353
3629.37802,0.16597
3631.30649,0.15478
3633.23495,0.14388
3635.16342,0.13942
3637.09189,0.14121
3639.02036,0.14494
3640.94883,0.14899
3642.87730,0.15205
3644.80577,0.15335
3646.73423,0.15390
3648.66270,0.15085
3650.59117,0.14664
3652.51964,0.14666
3654.44811,0.14693
3656.37658,0.14379
3658.30505,0.13846
3660.23352,0.13588
3662.16198,0.13655
3664.09045,0.13913
3666.01892,0.14132
3667.94739,0.14259
3669.87586,0.14227
3671.80433,0.14183
3673.73280,0.14454
3675.66126,0.14396
3677.58973,0.13842
3679.51820,0.13717
3681.44667,0.14062
3683.37514,0.14380
3685.30361,0.14325
3687.23208,0.14280
3689.16055,0.14264
3691.08901,0.13795
3693.01748,0.13469
3694.94595,0.13307
3696.87442,0.13053
3698.80289,0.13044
3700.73136,0.13543
3702.65983,0.13985
3704.58829,0.13877
3706.51676,0.13753
3708.44523,0.14171
3710.37370,0.15002
3712.30217,0.14742
3714.23064,0.13480
3716.15911,0.12921
3718.08757,0.13107
3720.01604,0.13230
3721.94451,0.13189
3723.87298,0.13659
3725.80145,0.14098
3727.72992,0.13714
3729.65839,0.13348
3731.58686,0.13748
3733.51532,0.14575
3735.44379,0.14732
3737.37226,0.14312
3739.30073,0.14289
3741.22920,0.14526
3743.15767,0.14545
3745.08614,0.14057
3747.01460,0.13971
3748.94307,0.14856
3750.87154,0.15591
3752.80001,0.14835
3754.72848,0.14275
3756.65695,0.14614
3758.58542,0.15102
3760.51389,0.14688
3762.44235,0.13676
3764.37082,0.12700
3766.29929,0.12099
3768.22776,0.12548
3770.15623,0.13373
3772.08470,0.13076
3774.01317,0.12457
3775.94163,0.12616
3777.87010,0.13208
3779.79857,0.13195
3781.72704,0.12788
3783.65551,0.12780
3785.58398,0.12708
3787.51245,0.12155
3789.44092,0.11632
3791.36938,0.11566
3793.29785,0.11925
3795.22632,0.12539
3797.15479,0.12910
3799.08326,0.12722
3801.01173,0.12279
3802.94020,0.11911
3804.86866,0.12133
3806.79713,0.12638
3808.72560,0.12702
3810.65407,0.12589
3812.58254,0.12790
3814.51101,0.13444
3816.43948,0.13995
3818.36795,0.14217
3820.29641,0.14836
3822.22488,0.14815
3824.15335,0.14167
3826.08182,0.13542
3828.01029,0.12446
3829.93876,0.11725
3831.86723,0.12085
3833.79569,0.12895
3835.72416,0.13806
3837.65263,0.14711
3839.58110,0.14838
3841.50957,0.14254
3843.43804,0.13472
3845.36651,0.12649
3847.29498,0.12334
3849.22344,0.12868
3851.15191,0.13867
3853.08038,0.14241
3855.00885,0.12902
3856.93732,0.11799
3858.86579,0.11624
3860.79426,0.12070
3862.72272,0.12669
3864.65119,0.12954
3866.57966,0.13070
3868.50813,0.13350
3870.43660,0.13419
3872.36507,0.12940
3874.29354,0.12554
3876.22200,0.12448
3878.15047,0.12335
3880.07894,0.12180
3882.00741,0.12060
3883.93588,0.11880
3885.86435,0.11525
3887.79282,0.11565
3889.72129,0.12076
3891.64975,0.12072
3893.57822,0.11517
3895.50669,0.11456
3897.43516,0.11884
3899.36363,0.12555
3901.29210,0.13166
3903.22057,0.13120
3905.14903,0.12312
3907.07750,0.11741
3909.00597,0.11746
3910.93444,0.11534
3912.86291,0.10970
3914.79138,0.10968
3916.71985,0.11544
3918.64832,0.11905
3920.57678,0.12065
3922.50525,0.11997
3924.43372,0.11503
3926.36219,0.11176
3928.29066,0.11137
3930.21913,0.10855
3932.14760,0.10734
3934.07606,0.11134
3936.00453,0.11380
3937.93300,0.11143
3939.86147,0.10880
3941.78994,0.11085
3943.71841,0.11370
3945.64688,0.11438
3947.57535,0.11636
3949.50381,0.11821
3951.43228,0.11791
3953.36075,0.11784
3955.28922,0.12012
3957.21769,0.12359
3959.14616,0.12346
3961.07463,0.11789
3963.00309,0.11226
3964.93156,0.11142
3966.86003,0.11382
3968.78850,0.11671
3970.71697,0.11781
3972.64544,0.11547
3974.57391,0.11086
3976.50238,0.10709
3978.43084,0.10453
3980.35931,0.10124
3982.28778,0.10036
3984.21625,0.10475
3986.14472,0.10943
3988.07319,0.10945
3990.00166,0.10563
3991.93012,0.10207
3993.85859,0.10181
3995.78706,0.10281
3997.71553,0.10196
3999.64400,0.09913
4001.57247,0.09614
4003.50094,0.09612
4005.42941,0.10006
4007.35787,0.10677
4009.28634,0.10963
4011.21481,0.10537
4013.14328,0.10556
4015.07175,0.11214
4017.00022,0.11299
4018.92869,0.10550
4020.85715,0.09623
4022.78562,0.09192
4024.71409,0.09542
4026.64256,0.10144
4028.57103,0.10166
4030.49950,0.09705
4032.42797,0.09196
4034.35644,0.08777
4036.28490,0.08706
4038.21337,0.09179
4040.14184,0.10224
4042.07031,0.11121
4043.99878,0.10901
4045.92725,0.10087
4047.85572,0.09693
4049.78418,0.09554
4051.71265,0.09334
4053.64112,0.09131
4055.56959,0.09059
4057.49806,0.09270
4059.42653,0.09605
4061.35500,0.09648
4063.28346,0.09531
4065.21193,0.09617
4067.14040,0.09846
4069.06887,0.09951
4070.99734,0.09718
4072.92581,0.09336
4074.85428,0.09281
4076.78275,0.09470
4078.71121,0.09713
4080.63968,0.10020
4082.56815,0.10068
4084.49662,0.10137
4086.42509,0.10500
4088.35356,0.10604
4090.28203,0.10514
4092.21049,0.10296
4094.13896,0.09882
4096.06743,0.09635
4097.99590,0.09317
4099.92437,0.08960
4101.85284,0.08960
4103.78131,0.09048
4105.70978,0.09112
4107.63824,0.09161
4109.56671,0.09087
4111.49518,0.09321
4113.42365,0.09816
4115.35212,0.09928
4117.28059,0.09885
4119.20906,0.10071
4121.13752,0.09967
4123.06599,0.09346
4124.99446,0.08949
4126.92293,0.08952
4128.85140,0.08751
4130.77987,0.08346
4132.70834,0.08315
4134.63681,0.08799
4136.56527,0.09121
4138.49374,0.08962
4140.42221,0.08778
4142.35068,0.08789
4144.27915,0.08851
4146.20762,0.08743
4148.13609,0.08525
4150.06455,0.08716
4151.99302,0.09206
4153.92149,0.09172
4155.84996,0.08763
4157.77843,0.08517
4159.70690,0.08127
4161.63537,0.07722
4163.56384,0.07694
4165.49230,0.07944
4167.42077,0.08473
4169.34924,0.08864
4171.27771,0.08557
4173.20618,0.07813
4175.13465,0.07110
4177.06312,0.06630
4178.99158,0.06688
4180.92005,0.07549
4182.84852,0.08208
4184.77699,0.07942
4186.70546,0.07705
4188.63393,0.08051
4190.56240,0.08447
4192.49087,0.08341
4194.41933,0.08012
4196.34780,0.07936
4198.27627,0.07999
4200.20474,0.08198
4202.13321,0.08465
4204.06168,0.08287
4205.99015,0.07821
4207.91861,0.07790
4209.84708,0.07870
4211.77555,0.07460
4213.70402,0.06983
4215.63249,0.06928
4217.56096,0.07124
4219.48943,0.07379
4221.41789,0.07441
4223.34636,0.06872
4225.27483,0.06230
4227.20330,0.05873
4229.13177,0.05661
4231.06024,0.06155
4232.98871,0.06922
4234.91718,0.07080
4236.84564,0.06726
4238.77411,0.06453
4240.70258,0.06483
4242.63105,0.06469
4244.55952,0.06549
4246.48799,0.06853
4248.41646,0.07105
4250.34492,0.07079
4252.27339,0.06758
4254.20186,0.06528
4256.13033,0.06390
4258.05880,0.06072
4259.98727,0.06134
4261.91574,0.06894
4263.84421,0.07351
4265.77267,0.06947
4267.70114,0.06253
4269.62961,0.05950
4271.55808,0.06146
4273.48655,0.06165
4275.41502,0.05722
4277.34349,0.05442
4279.27195,0.05472
4281.20042,0.05366
4283.12889,0.05325
4285.05736,0.05533
4286.98583,0.05762
4288.91430,0.06258
4290.84277,0.06755
4292.77124,0.06610
4294.69970,0.06301
4296.62817,0.06322
4298.55664,0.06223
4300.48511,0.05857
4302.41358,0.05688
4304.34205,0.05843
4306.27052,0.06055
4308.19898,0.06096
4310.12745,0.06291
4312.05592,0.07000
4313.98439,0.07519
4315.91286,0.07218
4317.84133,0.06628
4319.76980,0.06328
4321.69827,0.06200
4323.62673,0.05922
4325.55520,0.05738
4327.48367,0.05961
4329.41214,0.05920
4331.34061,0.05611
4333.26908,0.05866
4335.19755,0.05892
4337.12601,0.05116
4339.05448,0.04604
4340.98295,0.04445
4342.91142,0.04231
4344.83989,0.04401
4346.76836,0.04812
4348.69683,0.04834
4350.62530,0.04782
4352.55376,0.05300
4354.48223,0.06127
4356.41070,0.06423
4358.33917,0.05873
4360.26764,0.05306
4362.19611,0.05282
4364.12458,0.05157
4366.05304,0.04920
4367.98151,0.05106
4369.90998,0.05228
4371.83845,0.04851
4373.76692,0.04688
4375.69539,0.05169
4377.62386,0.05379
4379.55232,0.05032
4381.48079,0.05081
4383.40926,0.05556
4385.33773,0.05533
4387.26620,0.04950
4389.19467,0.04745
4391.12314,0.05087
4393.05161,0.04976
4394.98007,0.04234
4396.90854,0.03837
4398.83701,0.04359
4400.76548,0.05146
4402.69395,0.05234
4404.62242,0.04965
4406.55089,0.04670
4408.47935,0.03690
4410.40782,0.02202
4412.33629,0.01398
4414.26476,0.01982
4416.19323,0.03395
4418.12170,0.04311
4420.05017,0.03779
4421.97864,0.02610
4423.90710,0.02328
4425.83557,0.02710
4427.76404,0.03381
4429.69251,0.04386
4431.62098,0.04658
4433.54945,0.03787
4435.47792,0.03047
4437.40638,0.03263
4439.33485,0.03916
4441.26332,0.04482
4443.19179,0.04745
4445.12026,0.04685
4447.04873,0.04832
4448.97720,0.04986
4450.90567,0.04557
4452.83413,0.04063
4454.76260,0.03826
4456.69107,0.03560
4458.61954,0.03562
4460.54801,0.03938
4462.47648,0.03960
4464.40495,0.03473
4466.33341,0.03110
4468.26188,0.02826
4470.19035,0.02280
4472.11882,0.01914
4474.04729,0.02109
4475.97576,0.02469
4477.90423,0.02517
4479.83270,0.02508
4481.76116,0.02934
4483.68963,0.03285
4485.61810,0.02576
4487.54657,0.01333
4489.47504,0.01022
4491.40351,0.01281
4493.33198,0.01235
4495.26044,0.01830
4497.18891,0.02940
4499.11738,0.03129
4501.04585,0.02638
4502.97432,0.02555
4504.90279,0.02898
4506.83126,0.02672
4508.75973,0.01688
4510.68819,0.01256
4512.61666,0.01936
4514.54513,0.02724
4516.47360,0.03366
4518.40207,0.03926
4520.33054,0.03575
4522.25901,0.03261
4524.18747,0.04127
4526.11594,0.04567
4528.04441,0.03533
4529.97288,0.02348
4531.90135,0.02397
4533.82982,0.03339
4535.75829,0.04025
4537.68676,0.03836
4539.61522,0.02729
4541.54369,0.01373
4543.47216,0.00532
4545.40063,0.00415
4547.32910,0.00771
4549.25757,0.01182
4551.18604,0.01725
4553.11450,0.02210
4555.04297,0.01894
4556.97144,0.00867
4558.89991,-0.00181
4560.82838,-0.00732
4562.75685,-0.00113
4564.68532,0.01443
4566.61378,0.02511
4568.54225,0.02641
4570.47072,0.02335
4572.39919,0.02300
4574.32766,0.02700
4576.25613,0.02453
4578.18460,0.01711
4580.11307,0.01510
4582.04153,0.01359
4583.97000,0.00967
4585.89847,0.01023
4587.82694,0.01185
4589.75541,0.00652
4591.68388,0.00162
4593.61235,0.00504
4595.54081,0.01063
4597.46928,0.01013
4599.39775,0.00278
4601.32622,-0.00004
4603.25469,0.00758
4605.18316,0.01458
4607.11163,0.01406
4609.04010,0.00622
4610.96856,-0.00544
4612.89703,-0.01066
4614.82550,-0.00556
4616.75397,0.00513
4618.68244,0.01394
4620.61091,0.01483
4622.53938,0.01152
4624.46784,0.01287
4626.39631,0.01934
4628.32478,0.02057
4630.25325,0.01308
4632.18172,0.00638
4634.11019,0.00580
4636.03866,0.00938
4637.96713,0.01364
4639.89559,0.01771
4641.82406,0.02244
4643.75253,0.01972
4645.68100,0.00950
4647.60947,0.00700
4649.53794,0.01573
4651.46641,0.02432
4653.39487,0.02543
4655.32334,0.02501
4657.25181,0.03044
4659.18028,0.03306
4661.10875,0.02356
4663.03722,0.01081
4664.96569,0.00417
4666.89416,0.00621
4668.82262,0.01884
4670.75109,0.03267
4672.67956,0.03402
4674.60803,0.02695
4676.53650,0.02598
4678.46497,0.02709
4680.39344,0.01771
4682.32190,0.00411
4684.25037,-0.00479
4686.17884,-0.01299
4688.10731,-0.01739
4690.03578,-0.01007
4691.96425,-0.00213
4693.89272,-0.00193
4695.82119,-0.00169
4697.74965,0.00009
4699.67812,-0.00125
4701.60659,-0.00134
4703.53506,0.00396
4705.46353,0.01181
4707.39200,0.02240
4709.32047,0.02539
4711.24893,0.01237
4713.17740,-0.00081
4715.10587,-0.00124
4717.03434,0.00471
4718.96281,0.00385
4720.89128,-0.00313
4722.81975,-0.00590
4724.74821,-0.00672
4726.67668,-0.01014
4728.60515,-0.01073
4730.53362,-0.00584
4732.46209,0.00056
4734.39056,0.00734
4736.31903,0.01614
4738.24750,0.02061
4740.17596,0.01363
4742.10443,0.00422
4744.03290,0.00510
4745.96137,0.01380
4747.88984,0.01964
4749.81831,0.02215
4751.74678,0.02343
4753.67524,0.02061
4755.60371,0.01803
4757.53218,0.01852
4759.46065,0.02078
4761.38912,0.02272
4763.31759,0.01816
4765.24606,0.00859
4767.17453,0.00675
4769.10299,0.01123
4771.03146,0.00921
4772.95993,0.00484
4774.88840,0.00404
4776.81687,0.00933
4778.74534,0.01759
4780.67381,0.01619
4782.60227,0.00683
4784.53074,0.00186
4786.45921,0.01091
4788.38768,0.02574
4790.31615,0.02587
4792.24462,0.01119
4794.17309,0.00141
4796.10156,0.00866
4798.03002,0.01889
4799.95849,0.01494
4801.88696,0.00349
4803.81543,-0.00100
4805.74390,0.00363
4807.67237,0.01036
4809.60084,0.01045
4811.52930,0.00828
4813.45777,0.00960
4815.38624,0.01163
4817.31471,0.01881
4819.24318,0.02211
4821.17165,0.01432
4823.10012,0.00967
4825.02859,0.01228
4826.95705,0.01734
4828.88552,0.01613
4830.81399,0.00414
4832.74246,0.00045
4834.67093,0.01481
4836.59940,0.02577
4838.52787,0.01941
4840.45633,0.00267
4842.38480,-0.00994
4844.31327,-0.00817
4846.24174,-0.00176
4848.17021,-0.00082
4850.09868,0.00441
4852.02715,0.01811
4853.95562,0.02329
4855.88408,0.01181
4857.81255,0.00081
4859.74102,0.00384
4861.66949,0.01003
4863.59796,0.00818
4865.52643,0.00660
4867.45490,0.01118
4869.38336,0.01648
4871.31183,0.02034
4873.24030,0.02582
4875.16877,0.03521
4877.09724,0.04155
4879.02571,0.04120
4880.95418,0.04260
4882.88265,0.03901
4884.81111,0.02462
4886.73958,0.01562
4888.66805,0.00923
4890.59652,-0.00820
4892.52499,-0.02221
4894.45346,-0.01830
4896.38193,-0.00271
4898.31039,0.01281
4900.23886,0.01470
4902.16733,-0.00052
4904.09580,-0.01644
4906.02427,-0.01753
4907.95274,-0.00728
4909.88121,0.00716
4911.80967,0.01547
4913.73814,0.01157
4915.66661,0.01570
4917.59508,0.02833
4919.52355,0.02016
4921.45202,-0.00195
4923.38049,-0.01200
4925.30896,-0.00815
4927.23742,0.00142
4929.16589,0.00316
4931.09436,-0.00504
4933.02283,-0.00126
4934.95130,0.01597
4936.87977,0.02577
4938.80824,0.02613
4940.73670,0.02319
4942.66517,0.01616
4944.59364,0.00603
4946.52211,0.00293
4948.45058,0.01133
4950.37905,0.02052
4952.30752,0.02557
4954.23599,0.02647
4956.16445,0.02211
4958.09292,0.02176
4960.02139,0.02740
4961.94986,0.02243
4963.87833,0.00793
4965.80680,0.00303
4967.73527,0.01071
4969.66373,0.01833
4971.59220,0.01480
4973.52067,0.00380
4975.44914,-0.00916
4977.37761,-0.01827
4979.30608,-0.01473
4981.23455,-0.00553
4983.16302,0.00558
4985.09148,0.02049
4987.01995,0.03338
4988.94842,0.04488
4990.87689,0.05337
4992.80536,0.05099
4994.73383,0.03905
4996.66230,0.02373
4998.59076,0.00908
5000.51923,0.00001
5002.44770,-0.00445
5004.37617,-0.00411
5006.30464,0.01057
5008.23311,0.03152
5010.16158,0.03311
5012.09005,0.01242
5014.01851,-0.00516
5015.94698,-0.00499
5017.87545,-0.00361
5019.80392,-0.00825
5021.73239,0.00717
5023.66086,0.04361
5025.58933,0.05910
5027.51779,0.04602
5029.44626,0.03468
5031.37473,0.03239
5033.30320,0.03467
5035.23167,0.03453
5037.16014,0.02470
5039.08861,0.01284
5041.01708,0.00824
5042.94554,0.01282
5044.87401,0.01843
5046.80248,0.01744
5048.73095,0.01628
5050.65942,0.01794
5052.58789,0.01808
5054.51636,0.02051
5056.44482,0.02404
5058.37329,0.01839
5060.30176,0.01415
5062.23023,0.02625
5064.15870,0.04406
5066.08717,0.05196
5068.01564,0.04101
5069.94410,0.01709
5071.87257,0.00269
5073.80104,0.00871
5075.72951,0.02180
5077.65798,0.02600
5079.58645,0.01954
5081.51492,0.00890
5083.44339,0.00090
5085.37185,0.00454
5087.30032,0.01836
5089.22879,0.02855
5091.15726,0.03129
5093.08573,0.02314
5095.01420,0.00417
5096.94267,-0.00771
5098.87113,-0.00300
5100.79960,0.01202
5102.72807,0.02282
5104.65654,0.01834
5106.58501,0.01128
5108.51348,0.01047
5110.44195,0.01231
5112.37042,0.02278
5114.29888,0.02790
5116.22735,0.01892
5118.15582,0.01507
5120.08429,0.00990
5122.01276,-0.00013
5123.94123,0.00245
5125.86970,0.01562
5127.79816,0.02907
5129.72663,0.03829
5131.65510,0.04138
5133.58357,0.03715
5135.51204,0.02986
5137.44051,0.03008
5139.36898,0.03954
5141.29745,0.05069
5143.22591,0.05796
5145.15438,0.05387
5147.08285,0.03525
5149.01132,0.01404
5150.93979,0.00467
5152.86826,0.01428
5154.79673,0.03200
5156.72519,0.03336
5158.65366,0.01995
5160.58213,0.01690
5162.51060,0.02786
5164.43907,0.03703
5166.36754,0.03754
5168.29601,0.03849
5170.22448,0.04910
5172.15294,0.06038
5174.08141,0.05532
5176.00988,0.03957
5177.93835,0.03223
5179.86682,0.03186
5181.79529,0.03408
5183.72376,0.04477
5185.65222,0.05020
5187.58069,0.03300
5189.50916,0.00841
5191.43763,0.00729
5193.36610,0.02637
5195.29457,0.03203
5197.22304,0.02255
5199.15151,0.02159
5201.07997,0.03308
5203.00844,0.04757
5204.93691,0.05415
5206.86538,0.04162
5208.79385,0.02863
5210.72232,0.02841
5212.65079,0.02086
5214.57925,0.01834
5216.50772,0.04742
5218.43619,0.07990
5220.36466,0.07556
5222.29313,0.05780
5224.22160,0.05751
5226.15007,0.05722
5228.07854,0.03826
5230.00700,0.01946
5231.93547,0.01986
5233.86394,0.03005
5235.79241,0.03102
5237.72088,0.02010
5239.64935,0.01521
5241.57782,0.03192
5243.50628,0.04910
5245.43475,0.04322
5247.36322,0.03057
5249.29169,0.02666
5251.22016,0.02929
5253.14863,0.03672
5255.07710,0.04545
5257.00556,0.04869
5258.93403,0.04520
5260.86250,0.04614
5262.79097,0.05865
5264.71944,0.06627
5266.64791,0.05632
5268.57638,0.04298
5270.50485,0.04389
5272.43331,0.05570
5274.36178,0.05835
5276.29025,0.04792
5278.21872,0.03861
5280.14719,0.03424
5282.07566,0.03502
5284.00413,0.04245
5285.93259,0.04516
5287.86106,0.04407
5289.78953,0.04792
5291.71800,0.05487
5293.64647,0.06377
5295.57494,0.06007
5297.50341,0.03452
5299.43188,0.01562
5301.36034,0.03569
5303.28881,0.07517
5305.21728,0.08674
5307.14575,0.06766
5309.07422,0.04780
5311.00269,0.03423
5312.93116,0.01799
5314.85962,0.00782
5316.78809,0.01360
5318.71656,0.02074
5320.64503,0.01814
5322.57350,0.02013
5324.50197,0.03952
5326.43044,0.06351
5328.35891,0.07300
5330.28737,0.06667
5332.21584,0.05664
5334.14431,0.05892
5336.07278,0.07025
5338.00125,0.08886
5339.92972,0.11725
5341.85819,0.12187
5343.78665,0.08532
5345.71512,0.04494
5347.64359,0.03827
5349.57206,0.05122
5351.50053,0.06578
5353.42900,0.07578
5355.35747,0.07618
5357.28594,0.07111
5359.21440,0.06585
5361.14287,0.05625
5363.07134,0.04370
5364.99981,0.04145
5366.92828,0.05097
5368.85675,0.05807
5370.78522,0.06423
5372.71368,0.07555
5374.64215,0.07734
5376.57062,0.05644
5378.49909,0.03397
5380.42756,0.03678
5382.35603,0.05649
5384.28450,0.06276
5386.21297,0.05120
5388.14143,0.04831
5390.06990,0.05403
5391.99837,0.06261
5393.92684,0.07721
5395.85531,0.07959
5397.78378,0.05784
5399.71225,0.03287
5401.64071,0.02877
5403.56918,0.04420
5405.49765,0.05295
5407.42612,0.05204
5409.35459,0.05934
5411.28306,0.06460
5413.21153,0.05251
5415.13999,0.03484
5417.06846,0.02848
5418.99693,0.03962
5420.92540,0.05897
5422.85387,0.06721
5424.78234,0.06217
5426.71081,0.05814
5428.63928,0.05464
5430.56774,0.05119
5432.49621,0.05606
5434.42468,0.05969
5436.35315,0.06915
5438.28162,0.09133
5440.21009,0.09178
5442.13856,0.06409
5444.06702,0.04860
5445.99549,0.05551
5447.92396,0.07704
5449.85243,0.08865
5451.78090,0.07624
5453.70937,0.06876
5455.63784,0.06711
5457.56631,0.06007
5459.49477,0.05242
5461.42324,0.04172
5463.35171,0.03951
5465.28018,0.04745
5467.20865,0.05712
5469.13712,0.08001
5471.06559,0.12266
5472.99405,0.14436
5474.92252,0.10164
5476.85099,0.03876
5478.77946,0.02582
5480.70793,0.05100
5482.63640,0.06508
5484.56487,0.06449
5486.49334,0.08232
5488.42180,0.09826
5490.35027,0.09796
5492.27874,0.09984
5494.20721,0.09408
5496.13568,0.08852
5498.06415,0.09344
5499.99262,0.08935
5501.92108,0.07260
5503.84955,0.06687
5505.77802,0.07910
5507.70649,0.08547
5509.63496,0.07057
5511.56343,0.04724
5513.49190,0.04027
5515.42037,0.05932
5517.34883,0.08092
5519.27730,0.07717
5521.20577,0.05012
5523.13424,0.03040
5525.06271,0.02148
5526.99118,0.01068
5528.91965,0.02155
5530.84811,0.05097
5532.77658,0.06651
5534.70505,0.07287
5536.63352,0.08288
5538.56199,0.08619
5540.49046,0.07445
5542.41893,0.06383
5544.34740,0.06667
5546.27586,0.06485
5548.20433,0.05552
5550.13280,0.06428
5552.06127,0.08290
5553.98974,0.09243
5555.91821,0.10660
5557.84668,0.12622
5559.77514,0.12936
5561.70361,0.11022
5563.63208,0.07911
5565.56055,0.04569
5567.48902,0.02978
5569.41749,0.04546
5571.34596,0.06894
5573.27443,0.08585
5575.20289,0.10203
5577.13136,0.10744
5579.05983,0.09660
5580.98830,0.08020
5582.91677,0.06215
5584.84524,0.03757
5586.77371,0.02318
5588.70217,0.04370
5590.63064,0.07782
5592.55911,0.08841
5594.48758,0.08863
5596.41605,0.10428
5598.34452,0.11648
5600.27299,0.09935
5602.20145,0.07384
5604.12992,0.06973
5606.05839,0.07615
5607.98686,0.06888
5609.91533,0.05585
5611.84380,0.05590
5613.77227,0.05955
5615.70074,0.06315
5617.62920,0.08540
5619.55767,0.11143
5621.48614,0.11208
5623.41461,0.10313
5625.34308,0.10970
5627.27155,0.12285
5629.20002,0.11406
5631.12848,0.08695
5633.05695,0.07715
5634.98542,0.08536
5636.91389,0.07699
5638.84236,0.05588
5640.77083,0.05761
5642.69930,0.07781
5644.62777,0.09307
5646.55623,0.10556
5648.48470,0.10475
5650.41317,0.07134
5652.34164,0.03308
5654.27011,0.03016
5656.19858,0.04988
5658.12705,0.07215
5660.05551,0.10523
5661.98398,0.11583
5663.91245,0.08571
5665.84092,0.07230
5667.76939,0.07737
5669.69786,0.07306
5671.62633,0.09856
5673.55480,0.15701
5675.48326,0.18396
5677.41173,0.15822
5679.34020,0.11587
5681.26867,0.10018
5683.19714,0.12115
5685.12561,0.13193
5687.05408,0.11227
5688.98254,0.09327
5690.91101,0.07866
5692.83948,0.05137
5694.76795,0.03720
5696.69642,0.06440
5698.62489,0.09812
5700.55336,0.11168
5702.48183,0.10417
5704.41029,0.06949
5706.33876,0.03454
5708.26723,0.01278
5710.19570,0.01232
5712.12417,0.05327
5714.05264,0.10702
5715.98111,0.15069
5717.90957,0.18262
5719.83804,0.17287
5721.76651,0.13102
5723.69498,0.10365
5725.62345,0.09159
5727.55192,0.07409
5729.48039,0.07595
5731.40886,0.10412
5733.33732,0.11630
5735.26579,0.10624
5737.19426,0.09529
5739.12273,0.08331
5741.05120,0.07157
5742.97967,0.06797
5744.90814,0.07158
5746.83660,0.07199
5748.76507,0.05717
5750.69354,0.03795
5752.62201,0.03789
5754.55048,0.04893
5756.47895,0.06630
5758.40742,0.09266
5760.33588,0.10740
5762.26435,0.11007
5764.19282,0.11168
5766.12129,0.10002
5768.04976,0.08361
5769.97823,0.07486
5771.90670,0.07281
5773.83517,0.10082
5775.76363,0.14890
5777.69210,0.14822
5779.62057,0.08703
5781.54904,0.03926
5783.47751,0.03557
5785.40598,0.04880
5787.33445,0.06775
5789.26291,0.07642
5791.19138,0.06799
5793.11985,0.05862
5795.04832,0.06514
5796.97679,0.09820
5798.90526,0.11675
5800.83373,0.09155
5802.76220,0.05781
5804.69066,0.04160
5806.61913,0.03250
5808.54760,0.03629
5810.47607,0.05266
5812.40454,0.05307
5814.33301,0.04973
5816.26148,0.06504
5818.18994,0.08601
5820.11841,0.09498
5822.04688,0.08651
5823.97535,0.08327
5825.90382,0.09557
5827.83229,0.10025
5829.76076,0.08023
5831.68923,0.05317
5833.61769,0.04763
5835.54616,0.06450
5837.47463,0.07945
5839.40310,0.07323
5841.33157,0.05597
5843.26004,0.05952
5845.18851,0.08328
5847.11697,0.09522
5849.04544,0.08328
5850.97391,0.05354
5852.90238,0.04201
5854.83085,0.06368
5856.75932,0.05210
5858.68779,-0.00024
5860.61626,-0.01365
5862.54472,0.02004
5864.47319,0.06315
5866.40166,0.09122
5868.33013,0.07871
5870.25860,0.05463
5872.18707,0.07535
5874.11554,0.12087
5876.04400,0.13322
5877.97247,0.11769
5879.90094,0.09649
5881.82941,0.05889
5883.75788,0.02403
5885.68635,0.02359
5887.61482,0.04689
5889.54329,0.06171
5891.47175,0.06318
5893.40022,0.07420
5895.32869,0.08843
5897.25716,0.07293
5899.18563,0.05005
5901.11410,0.06344
5903.04257,0.08656
5904.97103,0.08652
5906.89950,0.08396
5908.82797,0.09706
5910.75644,0.12048
5912.68491,0.13830
5914.61338,0.12426
5916.54185,0.08505
5918.47032,0.07689
5920.39878,0.09878
5922.32725,0.09350
5924.25572,0.07156
5926.18419,0.06979
5928.11266,0.08468
5930.04113,0.09543
5931.96960,0.07414
5933.89806,0.03895
5935.82653,0.05220
5937.75500,0.08949
5939.68347,0.09500
5941.61194,0.09382
5943.54041,0.12169
5945.46888,0.15983
5947.39734,0.15963
5949.32581,0.11816
5951.25428,0.09554
5953.18275,0.09355
5955.11122,0.09155
5957.03969,0.10419
5958.96816,0.10107
5960.89663,0.07745
5962.82509,0.07238
5964.75356,0.06651
5966.68203,0.04188
5968.61050,0.03062
5970.53897,0.03210
5972.46744,0.00010
5974.39591,-0.03040
5976.32437,-0.00400
5978.25284,0.04206
5980.18131,0.08921
5982.10978,0.13732
5984.03825,0.14416
5985.96672,0.11556
5987.89519,0.10888
5989.82366,0.11207
5991.75212,0.08726
5993.68059,0.05551
5995.60906,0.04243
5997.53753,0.04299
5999.46600,0.05474
6001.39447,0.07558
6003.32294,0.08164
6005.25140,0.08225
6007.17987,0.10669
6009.10834,0.11075
6011.03681,0.08158
6012.96528,0.07477
6014.89375,0.07997
6016.82222,0.06453
6018.75069,0.06619
6020.67915,0.10955
6022.60762,0.12919
6024.53609,0.09469
6026.46456,0.07402
6028.39303,0.09944
6030.32150,0.11652
6032.24997,0.10184
6034.17843,0.09595
6036.10690,0.10846
6038.03537,0.08947
6039.96384,0.04305
6041.89231,0.01975
6043.82078,0.02402
6045.74925,0.03546
6047.67772,0.05068
6049.60618,0.07676
6051.53465,0.11082
6053.46312,0.12864
6055.39159,0.12685
6057.32006,0.14697
6059.24853,0.17333
6061.17700,0.13560
6063.10546,0.05546
6065.03393,0.02674
6066.96240,0.06815
6068.89087,0.13046
6070.81934,0.16932
6072.74781,0.17366
6074.67628,0.13877
6076.60475,0.06930
6078.53321,0.01620
6080.46168,0.01284
6082.39015,0.04107
6084.31862,0.07890
6086.24709,0.09564
6088.17556,0.09588
6090.10403,0.10434
6092.03249,0.10345
6093.96096,0.10711
6095.88943,0.12980
6097.81790,0.13259
6099.74637,0.10458
6101.67484,0.07324
6103.60331,0.07045
6105.53177,0.10725
6107.46024,0.15163
6109.38871,0.16291
6111.31718,0.13994
6113.24565,0.10615
6115.17412,0.06793
6117.10259,0.03926
6119.03106,0.04428
6120.95952,0.07134
6122.88799,0.09461
6124.81646,0.09840
6126.74493,0.08137
6128.67340,0.03950
6130.60187,0.00303
6132.53034,0.03583
6134.45880,0.09973
6136.38727,0.11195
6138.31574,0.07120
6140.24421,0.04575
6142.17268,0.08129
6144.10115,0.13422
6146.02962,0.14643
6147.95809,0.13067
6149.88655,0.12698
6151.81502,0.14348
6153.74349,0.16849
6155.67196,0.17891
6157.60043,0.14213
6159.52890,0.08704
6161.45737,0.08223
6163.38583,0.10457
6165.31430,0.09822
6167.24277,0.07455
6169.17124,0.03898
6171.09971,0.02181
6173.02818,0.07098
6174.95665,0.12403
6176.88512,0.10851
6178.81358,0.06208
6180.74205,0.05058
6182.67052,0.08134
6184.59899,0.11214
6186.52746,0.10199
6188.45593,0.07657
6190.38440,0.09343
6192.31286,0.11988
6194.24133,0.11878
6196.16980,0.10983
6198.09827,0.09758
6200.02674,0.08544
6201.95521,0.07879
6203.88368,0.07033
6205.81215,0.06643
6207.74061,0.05217
6209.66908,0.03958
6211.59755,0.09282
6213.52602,0.16213
6215.45449,0.15979
6217.38296,0.11429
6219.31143,0.08894
6221.23989,0.09050
6223.16836,0.09383
6225.09683,0.07607
6227.02530,0.06238
6228.95377,0.08350
6230.88224,0.11948
6232.81071,0.14487
6234.73918,0.15197
6236.66764,0.13678
6238.59611,0.10453
6240.52458,0.07691
6242.45305,0.06942
6244.38152,0.08528
6246.30999,0.12177
6248.23846,0.15512
6250.16692,0.15005
6252.09539,0.10192
6254.02386,0.08091
6255.95233,0.10943
6257.88080,0.10792
6259.80927,0.07611
6261.73774,0.07986
6263.66621,0.07817
6265.59467,0.00877
6267.52314,-0.05113
6269.45161,-0.03812
6271.38008,-0.02186
6273.30855,-0.04190
6275.23702,-0.03724
6277.16549,0.00125
6279.09395,-0.01087
6281.02242,-0.04985
6282.95089,-0.03756
6284.87936,0.01811
6286.80783,0.07088
6288.73630,0.10999
6290.66477,0.15922
6292.59323,0.19400
6294.52170,0.16230
6296.45017,0.11318
6298.37864,0.11353
6300.30711,0.12175
6302.23558,0.08661
6304.16405,0.06811
6306.09252,0.10172
6308.02098,0.10831
6309.94945,0.06908
6311.87792,0.08260
6313.80639,0.13964
6315.73486,0.13890
6317.66333,0.08520
6319.59180,0.04378
6321.52026,0.04349
6323.44873,0.05556
6325.37720,0.04483
6327.30567,0.02525
6329.23414,0.00287
6331.16261,-0.01252
6333.09108,0.02316
6335.01955,0.09189
6336.94801,0.13287
6338.87648,0.14008
6340.80495,0.13244
6342.73342,0.12568
6344.66189,0.13384
6346.59036,0.13358
6348.51883,0.08289
6350.44729,0.00335
6352.37576,-0.02858
6354.30423,0.02378
6356.23270,0.10097
6358.16117,0.12969
6360.08964,0.12461
6362.01811,0.11476
6363.94658,0.10678
6365.87504,0.11053
6367.80351,0.09791
6369.73198,0.08296
6371.66045,0.05960
6373.58892,-0.00691
6375.51739,-0.02736
6377.44586,0.04265
6379.37432,0.10177
6381.30279,0.07436
6383.23126,0.00787
6385.15973,0.00049
6387.08820,0.03248
6389.01667,0.04371
6390.94514,0.05024
6392.87361,0.06785
6394.80207,0.06587
6396.73054,0.04578
6398.65901,0.02198
6400.58748,-0.00603
6402.51595,-0.02850
6404.44442,-0.02895
6406.37289,0.00359
6408.30135,0.06902
6410.22982,0.13950
6412.15829,0.16660
6414.08676,0.16223
6416.01523,0.15032
6417.94370,0.08211
6419.87217,-0.01185
6421.80064,-0.00371
6423.72910,0.07901
6425.65757,0.09343
6427.58604,0.04775
6429.51451,0.06076
6431.44298,0.13230
6433.37145,0.17114
6435.29992,0.11035
6437.22838,0.00072
6439.15685,-0.04348
6441.08532,-0.05367
6443.01379,-0.04966
6444.94226,0.02044
6446.87073,0.08330
6448.79920,0.07878
6450.72766,0.06774
6452.65613,0.07579
6454.58460,0.05387
6456.51307,0.03155
6458.44154,0.05526
6460.37001,0.06461
6462.29848,0.02963
6464.22695,-0.00878
6466.15541,-0.01765
6468.08388,0.00710
6470.01235,0.04075
6471.94082,0.08551
6473.86929,0.11901
6475.79776,0.06709
6477.72623,-0.00233
6479.65469,0.04023
6481.58316,0.09874
6483.51163,0.06009
6485.44010,0.04085
6487.36857,0.12066
6489.29704,0.20722
6491.22551,0.20317
6493.15398,0.09243
6495.08244,-0.00831
6497.01091,0.03633
6498.93938,0.16398
6500.86785,0.24824
6502.79632,0.26863
6504.72479,0.24439
6506.65326,0.17248
6508.58172,0.10303
6510.51019,0.09039
6512.43866,0.07885
6514.36713,0.02480
6516.29560,-0.04659
6518.22407,-0.07711
6520.15254,-0.03877
6522.08101,0.00510
6524.00947,0.01257
6525.93794,0.00567
6527.86641,0.02763
6529.79488,0.09507
6531.72335,0.17576
6533.65182,0.22684
6535.58029,0.20740
6537.50875,0.14321
6539.43722,0.09245
6541.36569,0.03279
6543.29416,-0.01540
6545.22263,0.00419
6547.15110,0.03814
6549.07957,0.04399
6551.00804,0.04490
6552.93650,0.05948
6554.86497,0.07115
6556.79344,0.07721
6558.72191,0.06480
6560.65038,0.04955
6562.57885,0.10395
6564.50732,0.16703
6566.43578,0.13941
6568.36425,0.08454
6570.29272,0.05434
6572.22119,0.03853
6574.14966,0.03186
6576.07813,0.07092
6578.00660,0.15276
6579.93507,0.15028
6581.86353,0.01809
6583.79200,-0.11065
6585.72047,-0.13339
6587.64894,-0.06494
6589.57741,0.05704
6591.50588,0.14368
6593.43435,0.09994
6595.36281,-0.03622
6597.29128,-0.09989
6599.21975,-0.03411
6601.14822,0.02411
6603.07669,0.00297
6605.00516,0.03053
6606.93363,0.08935
6608.86210,0.08162
6610.79056,0.06701
6612.71903,0.08858
6614.64750,0.08741
6616.57597,0.07432
6618.50444,0.04126
6620.43291,-0.01149
6622.36138,-0.00906
6624.28984,0.02481
6626.21831,0.04880
6628.14678,0.06758
6630.07525,0.06621
6632.00372,0.08384
6633.93219,0.14248
6635.86066,0.20961
6637.78912,0.22968
6639.71759,0.20854
6641.64606,0.21401
6643.57453,0.20341
6645.50300,0.09107
6647.43147,0.00443
6649.35994,0.04058
6651.28841,0.05922
6653.21687,0.01171
6655.14534,-0.01127
6657.07381,0.01291
6659.00228,0.03050
6660.93075,0.04949
6662.85922,0.10265
6664.78769,0.18220
6666.71615,0.21815
6668.64462,0.13892
6670.57309,-0.00057
6672.50156,-0.08965
6674.43003,-0.06459
6676.35850,0.02316
6678.28697,0.05485
6680.21544,0.02647
6682.14390,0.03534
6684.07237,0.09354
6686.00084,0.13109
6687.92931,0.13404
6689.85778,0.12117
6691.78625,0.07083
6693.71472,-0.01541
6695.64318,-0.07650
6697.57165,-0.05262
6699.50012,0.00740
6701.42859,0.02877
6703.35706,0.03924
6705.28553,0.06402
6707.21400,0.06467
6709.14247,0.05689
6711.07093,0.07011
6712.99940,0.07809
6714.92787,0.07268
6716.85634,0.07568
6718.78481,0.08979
6720.71328,0.12601
6722.64175,0.18634
6724.57021,0.21436
6726.49868,0.19360
6728.42715,0.14631
6730.35562,0.09309
6732.28409,0.06766
6734.21256,0.07146
6736.14103,0.11788
6738.06950,0.17953
6739.99796,0.14330
6741.92643,0.02334
6743.85490,-0.03931
6745.78337,-0.03219
6747.71184,0.02882
6749.64031,0.08576
6751.56878,0.06037
6753.49724,0.04097
6755.42571,0.07536
6757.35418,0.07179
6759.28265,0.04156
6761.21112,0.05672
6763.13959,0.08067
6765.06806,0.08246
6766.99653,0.10492
6768.92499,0.15284
6770.85346,0.13354
6772.78193,0.05079
6774.71040,0.02434
6776.63887,0.05103
6778.56734,0.07953
6780.49581,0.13152
6782.42427,0.13019
6784.35274,0.03328
6786.28121,0.02504
6788.20968,0.14672
6790.13815,0.20911
6792.06662,0.17499
6793.99509,0.11368
6795.92355,0.03923
6797.85202,-0.00466
6799.78049,-0.05667
6801.70896,-0.12641
6803.63743,-0.13300
6805.56590,-0.12450
6807.49437,-0.10866
6809.42284,-0.00581
6811.35130,0.10485
6813.27977,0.12713
6815.20824,0.12543
6817.13671,0.11718
6819.06518,0.13040
6820.99365,0.19069
6822.92212,0.21057
6824.85058,0.15633
6826.77905,0.07017
6828.70752,-0.00324
6830.63599,-0.00636
6832.56446,0.01326
6834.49293,0.06014
6836.42140,0.13125
6838.34987,0.09554
6840.27833,0.01665
6842.20680,0.03533
6844.13527,0.09182
6846.06374,0.12862
6847.99221,0.21220
6849.92068,0.28924
6851.84915,0.24821
6853.77761,0.14845
6855.70608,0.07482
6857.63455,0.06217
6859.56302,0.03056
6861.49149,-0.02090
6863.41996,0.02802
6865.34843,0.10845
6867.27690,0.15835
6869.20536,0.23134
6871.13383,0.24755
6873.06230,0.17637
6874.99077,0.14101
6876.91924,0.17120
6878.84771,0.20306
6880.77618,0.15207
6882.70464,0.05146
6884.63311,0.02900
6886.56158,0.10211
6888.49005,0.16932
6890.41852,0.16843
6892.34699,0.11551
6894.27546,0.05260
6896.20393,0.03975
6898.13239,0.10273
6900.06086,0.17348
6901.98933,0.19743
6903.91780,0.19872
6905.84627,0.19881
6907.77474,0.16456
6909.70321,0.09263
6911.63167,0.00333
6913.56014,-0.05591
6915.48861,0.00563
6917.41708,0.11603
6919.34555,0.07551
6921.27402,-0.07498
6923.20249,-0.10665
6925.13096,-0.02429
6927.05942,0.06007
6928.98789,0.15211
6930.91636,0.22335
6932.84483,0.15620
6934.77330,0.05881
6936.70177,0.05016
6938.63024,0.07244
6940.55870,0.07529
6942.48717,0.08678
6944.41564,0.09117
6946.34411,0.05626
6948.27258,0.05254
6950.20105,0.12815
6952.12952,0.22368
6954.05799,0.25734
6955.98645,0.16259
6957.91492,0.02701
6959.84339,-0.02663
6961.77186,-0.00417
6963.70033,0.08855
6965.62880,0.20967
6967.55727,0.22158
6969.48573,0.12544
6971.41420,0.05660
6973.34267,0.01607
6975.27114,0.05225
6977.19961,0.15155
6979.12808,0.12864
6981.05655,0.06270
6982.98501,0.05891
6984.91348,-0.01768
6986.84195,-0.12159
6988.77042,-0.09481
6990.69889,0.00859
6992.62736,0.09716
6994.55583,0.11329
6996.48430,0.04025
6998.41276,-0.02070
7000.34123,-0.01386
7002.26970,-0.00113
7004.19817,-0.02426
7006.12664,-0.08028
7008.05511,-0.05268
7009.98358,0.10915
7011.91204,0.24797
7013.84051,0.20336
7015.76898,0.08193
7017.69745,0.08739
7019.62592,0.14268
7021.55439,0.11155
7023.48286,0.05794
7025.41133,0.02008
7027.33979,-0.02602
7029.26826,0.04141
7031.19673,0.18465
7033.12520,0.20422
7035.05367,0.07755
7036.98214,-0.03213
7038.91061,0.00357
7040.83907,0.11744
7042.76754,0.16354
7044.69601,0.12666
7046.62448,0.10758
7048.55295,0.11917
7050.48142,0.11815
7052.40989,0.11107
7054.33836,0.10311
7056.26682,0.08250
7058.19529,0.08136
7060.12376,0.07199
7062.05223,-0.00602
7063.98070,-0.03820
7065.90917,0.08834
7067.83764,0.15600
7069.76610,-0.00791
7071.69457,-0.12063
7073.62304,-0.02058
7075.55151,0.05855
7077.47998,0.08867
7079.40845,0.15164
7081.33692,0.20312
7083.26539,0.16318
7085.19385,0.13092
7087.12232,0.19319
7089.05079,0.26808
7090.97926,0.23937
7092.90773,0.12613
7094.83620,0.02821
7096.76467,0.01138
7098.69313,0.04161
7100.62160,0.07436
7102.55007,0.09851
7104.47854,0.09490
7106.40701,0.07967
7108.33548,0.05395
7110.26395,0.00648
7112.19242,-0.02769
7114.12088,0.01309
7116.04935,0.13263
7117.97782,0.19078
7119.90629,0.14397
7121.83476,0.11584
7123.76323,0.07956
7125.69170,-0.00004
7127.62016,-0.07039
7129.54863,-0.09213
7131.47710,-0.07498
7133.40557,-0.05248
7135.33404,-0.09723
7137.26251,-0.11407
7139.19098,0.05786
7141.11944,0.23434
7143.04791,0.25092
7144.97638,0.19455
7146.90485,0.12176
7148.83332,0.06468
7150.76179,-0.06529
7152.69026,-0.23119
7154.61873,-0.20176
7156.54719,-0.05969
7158.47566,0.05208
7160.40413,0.10530
7162.33260,0.04143
7164.26107,-0.02347
7166.18954,0.04417
7168.11801,0.15586
7170.04647,0.11231
7171.97494,-0.06173
7173.90341,-0.11851
7175.83188,-0.03394
7177.76035,0.03228
7179.68882,-0.02257
7181.61729,-0.08733
7183.54576,-0.03905
7185.47422,-0.00552
7187.40269,-0.01027
7189.33116,0.02666
7191.25963,0.01842
7193.18810,-0.01208
7195.11657,0.07243
7197.04504,0.12682
7198.97350,0.10265
7200.90197,0.12482
7202.83044,0.16484
7204.75891,0.16470
7206.68738,0.14325
7208.61585,0.14675
7210.54432,0.16383
7212.47279,0.18913
7214.40125,0.29565
7216.32972,0.49028
7218.25819,0.57375
7220.18666,0.38106
7222.11513,0.13846
7224.04360,0.06690
7225.97207,0.13427
7227.90053,0.07292
7229.82900,-0.08131
7231.75747,-0.05275
7233.68594,-0.02731
7235.61441,-0.15354
7237.54288,-0.18755
7239.47135,-0.06423
7241.39982,0.07031
7243.32828,0.16557
7245.25675,0.17330
7247.18522,0.06207
7249.11369,-0.08870
7251.04216,-0.12086
7252.97063,-0.00839
7254.89910,0.06606
7256.82756,0.05429
7258.75603,0.03403
7260.68450,0.10856
7262.61297,0.22744
7264.54144,0.12734
7266.46991,-0.07270
7268.39838,-0.08681
7270.32685,0.06980
7272.25531,0.19800
7274.18378,0.14249
7276.11225,0.01229
7278.04072,-0.07757
7279.96919,-0.08369
7281.89766,-0.02992
7283.82613,0.01517
7285.75459,-0.00456
7287.68306,-0.00896
7289.61153,0.06376
7291.54000,0.07633
7293.46847,0.08653
7295.39694,0.19259
7297.32541,0.26337
7299.25387,0.30329
7301.18234,0.35407
7303.11081,0.34779
7305.03928,0.29722
7306.96775,0.26811
7308.89622,0.23511
7310.82469,0.16935
7312.75316,0.07276
7314.68162,-0.00282
7316.61009,0.05429
7318.53856,0.19510
7320.46703,0.21122
7322.39550,0.02920
7324.32397,-0.19623
7326.25244,-0.22309
7328.18090,-0.01602
7330.10937,0.15515
7332.03784,0.11979
7333.96631,0.12055
7335.89478,0.16121
7337.82325,0.12736
7339.75172,0.06138
7341.68019,0.15617
7343.60865,0.26917
7345.53712,0.19196
7347.46559,0.01788
7349.39406,-0.04209
7351.32253,-0.05265
7353.25100,-0.08397
7355.17947,-0.08614
7357.10793,-0.04806
7359.03640,0.03075
7360.96487,0.06089
7362.89334,0.05722
7364.82181,0.10444
7366.75028,0.10179
7368.67875,0.04579
7370.60722,0.05079
7372.53568,0.13755
7374.46415,0.30115
7376.39262,0.39383
7378.32109,0.23931
7380.24956,-0.02634
7382.17803,-0.14651
7384.10650,-0.06718
7386.03496,0.04291
7387.96343,0.10070
7389.89190,0.08806
7391.82037,0.05032
7393.74884,0.06412
7395.67731,0.13894
7397.60578,0.15719
7399.53425,0.06108
7401.46271,-0.05599
7403.39118,-0.14871
7405.31965,-0.19846
7407.24812,-0.10873
7409.17659,0.07738
7411.10506,0.18153
7413.03353,0.13040
7414.96199,-0.00297
7416.89046,-0.10853
7418.81893,-0.08703
7420.74740,0.02158
7422.67587,0.03671
7424.60434,-0.03600
7426.53281,-0.00411
7428.46128,0.18704
7430.38974,0.29432
7432.31821,0.13862
7434.24668,-0.01198
7436.17515,-0.02175
7438.10362,0.03468
7440.03209,0.11046
7441.96056,0.12614
7443.88902,0.03174
7445.81749,-0.10855
7447.74596,-0.25049
7449.67443,-0.32824
7451.60290,-0.30367
7453.53137,-0.19755
7455.45984,-0.09033
7457.38831,0.02372
7459.31677,0.19265
7461.24524,0.27952
7463.17371,0.20002
7465.10218,0.11869
7467.03065,0.12747
7468.95912,0.09374
7470.88759,-0.05715
7472.81605,-0.20807
7474.74452,-0.15446
7476.67299,0.08190
7478.60146,0.28073
7480.52993,0.33793
7482.45840,0.24234
7484.38687,0.09924
7486.31533,0.15682
7488.24380,0.31559
7490.17227,0.36200
7492.10074,0.27269
7494.02921,0.09266
7495.95768,-0.05809
7497.88615,-0.06931
