399.19301,0.56593
401.12148,0.71826
403.04995,0.36333
404.97842,0.20148
406.90689,0.21524
408.83536,0.31134
410.76382,0.27996
412.69229,0.11218
414.62076,0.08575
416.54923,0.21364
418.47770,0.25486
420.40617,0.10366
422.33464,0.09198
424.26311,0.28806
426.19157,0.41569
428.12004,0.34452
430.04851,0.25025
431.97698,0.29225
433.90545,0.37825
435.83392,0.36422
437.76239,0.26623
439.69085,0.11247
441.61932,-0.08839
443.54779,-0.19688
445.47626,-0.13171
447.40473,-0.00667
449.33320,0.08774
451.26167,0.08220
453.19013,0.00214
455.11860,-0.01772
457.04707,0.05061
458.97554,0.09879
460.90401,0.12271
462.83248,0.16686
464.76095,0.19130
466.68942,0.17114
468.61788,0.11151
470.54635,0.04933
472.47482,0.05365
474.40329,0.14243
476.33176,0.20407
478.26023,0.20534
480.18870,0.18483
482.11716,0.18878
484.04563,0.20021
485.97410,0.16706
487.90257,0.15431
489.83104,0.19615
491.75951,0.20512
493.68798,0.13839
495.61645,0.05210
497.54491,0.01958
499.47338,0.04600
501.40185,0.10638
503.33032,0.14101
505.25879,0.09952
507.18726,0.03683
509.11573,0.00340
511.04419,0.00420
512.97266,0.04790
514.90113,0.09125
516.82960,0.09220
518.75807,0.11750
520.68654,0.18492
522.61501,0.21190
524.54348,0.17564
526.47194,0.12303
528.40041,0.09343
530.32888,0.09464
532.25735,0.11802
534.18582,0.13922
536.11429,0.14998
538.04276,0.13084
539.97122,0.07059
541.89969,0.02969
543.82816,0.04936
545.75663,0.08929
547.68510,0.12305
549.61357,0.09106
551.54204,-0.18489
553.47051,-0.53052
555.39897,-0.47486
557.32744,-0.12425
559.25591,0.07201
561.18438,0.10139
563.11285,0.12068
565.04132,0.15380
566.96979,0.15877
568.89825,0.13436
570.82672,0.13455
572.75519,0.15493
574.68366,0.15477
576.61213,0.12812
578.54060,0.09660
580.46907,0.09271
582.39754,0.11417
584.32600,0.11680
586.25447,0.10541
588.18294,0.11248
590.11141,0.12692
592.03988,0.13585
593.96835,0.15163
595.89682,0.16148
597.82528,0.15331
599.75375,0.15393
601.68222,0.17030
603.61069,0.16921
605.53916,0.14408
607.46763,0.12801
609.39610,0.12702
611.32456,0.12050
613.25303,0.10816
615.18150,0.10081
617.10997,0.10219
619.03844,0.11366
620.96691,0.12850
622.89538,0.13527
624.82385,0.13057
626.75231,0.12132
628.68078,0.12243
630.60925,0.13472
632.53772,0.14118
634.46619,0.12730
636.39466,0.11454
638.32313,0.13600
640.25159,0.16967
642.18006,0.18336
644.10853,0.17940
646.03700,0.16055
647.96547,0.14136
649.89394,0.13488
651.82241,0.12334
653.75088,0.10583
655.67934,0.10182
657.60781,0.10291
659.53628,0.10143
661.46475,0.10731
663.39322,0.11799
665.32169,0.11844
667.25016,0.09987
669.17862,0.10210
671.10709,0.13505
673.03556,0.14423
674.96403,0.12931
676.89250,0.11601
678.82097,0.11442
680.74944,0.11627
682.67791,0.11840
684.60637,0.12652
686.53484,0.13990
688.46331,0.13955
690.39178,0.12088
692.32025,0.11017
694.24872,0.11899
696.17719,0.12841
698.10565,0.12818
700.03412,0.12623
701.96259,0.12585
703.89106,0.12871
705.81953,0.13311
707.74800,0.12485
709.67647,0.10836
711.60494,0.10892
713.53340,0.13004
715.46187,0.15354
717.39034,0.16305
719.31881,0.15619
721.24728,0.14151
723.17575,0.12741
725.10422,0.12107
727.03268,0.12173
728.96115,0.12561
730.88962,0.13556
732.81809,0.14663
734.74656,0.14890
736.67503,0.14510
738.60350,0.14005
740.53197,0.13794
742.46043,0.13996
744.38890,0.13842
746.31737,0.13653
748.24584,0.13670
750.17431,0.12951
752.10278,0.12303
754.03125,0.13112
755.95971,0.13813
757.88818,0.12816
759.81665,0.11958
761.74512,0.12505
763.67359,0.13438
765.60206,0.14367
767.53053,0.15039
769.45900,0.14698
771.38746,0.14193
773.31593,0.14655
775.24440,0.15282
777.17287,0.15174
779.10134,0.14525
781.02981,0.13711
782.95828,0.12970
784.88674,0.12921
786.81521,0.13382
788.74368,0.13191
790.67215,0.12780
792.60062,0.12943
794.52909,0.13521
796.45756,0.14488
798.38602,0.14755
800.31449,0.13604
802.24296,0.12913
804.17143,0.13169
806.09990,0.13477
808.02837,0.14382
809.95684,0.14717
811.88531,0.13395
813.81377,0.12546
815.74224,0.13624
817.67071,0.15142
819.59918,0.14894
821.52765,0.13304
823.45612,0.12752
825.38459,0.13143
827.31305,0.12775
829.24152,0.11975
831.16999,0.11987
833.09846,0.12725
835.02693,0.13264
836.95540,0.13480
838.88387,0.13816
840.81234,0.14348
842.74080,0.14353
844.66927,0.13220
846.59774,0.12130
848.52621,0.12294
850.45468,0.13448
852.38315,0.14381
854.31162,0.13641
856.24008,0.11853
858.16855,0.11346
860.09702,0.12550
862.02549,0.14040
863.95396,0.14800
865.88243,0.14941
867.81090,0.15273
869.73937,0.15360
871.66783,0.14360
873.59630,0.13321
875.52477,0.13354
877.45324,0.13780
879.38171,0.13864
881.31018,0.14100
883.23865,0.14301
885.16711,0.13980
887.09558,0.13773
889.02405,0.13931
890.95252,0.14135
892.88099,0.14705
894.80946,0.15888
896.73793,0.16400
898.66640,0.15689
900.59486,0.15055
902.52333,0.14673
904.45180,0.13839
906.38027,0.12979
908.30874,0.12926
910.23721,0.13479
912.16568,0.13979
914.09414,0.14512
916.02261,0.15137
917.95108,0.14996
919.87955,0.14197
921.80802,0.14169
923.73649,0.14610
925.66496,0.14541
927.59343,0.14387
929.52189,0.14248
931.45036,0.13870
933.37883,0.13566
935.30730,0.13441
937.23577,0.13267
939.16424,0.13106
941.09271,0.12706
943.02117,0.12252
944.94964,0.13104
946.87811,0.14771
948.80658,0.15349
950.73505,0.15333
952.66352,0.15781
954.59199,0.15992
956.52045,0.15347
958.44892,0.14463
960.37739,0.13981
962.30586,0.13994
964.23433,0.14453
966.16280,0.15008
968.09127,0.15223
970.01974,0.14981
971.94820,0.14367
973.87667,0.13479
975.80514,0.12959
977.73361,0.13835
979.66208,0.15128
981.59055,0.15180
983.51902,0.14679
985.44748,0.14665
987.37595,0.14906
989.30442,0.14944
991.23289,0.14830
993.16136,0.14501
995.08983,0.13927
997.01830,0.13865
998.94677,0.14166
1000.87523,0.13990
1002.80370,0.14081
1004.73217,0.15087
1006.66064,0.16037
1008.58911,0.16402
1010.51758,0.16006
1012.44605,0.14708
1014.37451,0.13494
1016.30298,0.13350
1018.23145,0.14259
1020.15992,0.15334
1022.08839,0.15567
1024.01686,0.15634
1025.94533,0.17372
1027.87380,0.20000
1029.80226,0.20438
1031.73073,0.18606
1033.65920,0.17175
1035.58767,0.16931
1037.51614,0.17005
1039.44461,0.17022
1041.37308,0.16792
1043.30154,0.15882
1045.23001,0.14818
1047.15848,0.14795
1049.08695,0.15804
1051.01542,0.16839
1052.94389,0.17097
1054.87236,0.16911
1056.80083,0.17351
1058.72929,0.17977
1060.65776,0.17750
1062.58623,0.17200
1064.51470,0.16871
1066.44317,0.16217
1068.37164,0.15281
1070.30011,0.15245
1072.22857,0.16514
1074.15704,0.17747
1076.08551,0.18012
1078.01398,0.17496
1079.94245,0.16517
1081.87092,0.16054
1083.79939,0.16659
1085.72786,0.17323
1087.65632,0.16942
1089.58479,0.15619
1091.51326,0.14520
1093.44173,0.14472
1095.37020,0.15208
1097.29867,0.15955
1099.22714,0.16396
1101.15560,0.16723
1103.08407,0.16715
1105.01254,0.16411
1106.94101,0.16733
1108.86948,0.17119
1110.79795,0.15770
1112.72642,0.14005
1114.65489,0.14083
1116.58335,0.15218
1118.51182,0.15745
1120.44029,0.15260
1122.36876,0.15018
1124.29723,0.15633
1126.22570,0.15878
1128.15417,0.15514
1130.08263,0.15264
1132.01110,0.15065
1133.93957,0.14994
1135.86804,0.15444
1137.79651,0.15742
1139.72498,0.15522
1141.65345,0.15576
1143.58191,0.15945
1145.51038,0.16344
1147.43885,0.16676
1149.36732,0.16557
1151.29579,0.16451
1153.22426,0.16919
1155.15273,0.16991
1157.08120,0.16324
1159.00966,0.16119
1160.93813,0.16384
1162.86660,0.16431
1164.79507,0.16324
1166.72354,0.15980
1168.65201,0.15396
1170.58048,0.15023
1172.50894,0.15121
1174.43741,0.15510
1176.36588,0.15965
1178.29435,0.16337
1180.22282,0.16386
1182.15129,0.16207
1184.07976,0.16230
1186.00823,0.16606
1187.93669,0.17039
1189.86516,0.17008
1191.79363,0.16531
1193.72210,0.16277
1195.65057,0.16232
1197.57904,0.15985
1199.50751,0.15765
1201.43597,0.15608
1203.36444,0.15419
1205.29291,0.15708
1207.22138,0.16599
1209.14985,0.17243
1211.07832,0.17080
1213.00679,0.16588
1214.93526,0.16199
1216.86372,0.16183
1218.79219,0.16893
1220.72066,0.17586
1222.64913,0.17529
1224.57760,0.17176
1226.50607,0.16928
1228.43454,0.16832
1230.36300,0.16921
1232.29147,0.17119
1234.21994,0.17070
1236.14841,0.16877
1238.07688,0.17087
1240.00535,0.17182
1241.93382,0.16563
1243.86229,0.16002
1245.79075,0.16198
1247.71922,0.16692
1249.64769,0.16895
1251.57616,0.16762
1253.50463,0.16473
1255.43310,0.16238
1257.36157,0.16132
1259.29003,0.16072
1261.21850,0.16064
1263.14697,0.16235
1265.07544,0.16305
1267.00391,0.15889
1268.93238,0.15524
1270.86085,0.15947
1272.78932,0.16756
1274.71778,0.17117
1276.64625,0.17282
1278.57472,0.17650
1280.50319,0.17667
1282.43166,0.17338
1284.36013,0.17199
1286.28860,0.16915
1288.21706,0.16617
1290.14553,0.16833
1292.07400,0.16841
1294.00247,0.16188
1295.93094,0.15445
1297.85941,0.14936
1299.78788,0.14543
1301.71634,0.13749
1303.64481,0.12474
1305.57328,0.12470
1307.50175,0.14483
1309.43022,0.16294
1311.35869,0.17087
1313.28716,0.17702
1315.21563,0.17752
1317.14409,0.17384
1319.07256,0.17242
1321.00103,0.17065
1322.92950,0.16845
1324.85797,0.16466
1326.78644,0.16058
1328.71491,0.16262
1330.64337,0.16301
1332.57184,0.15995
1334.50031,0.16143
1336.42878,0.16514
1338.35725,0.16990
1340.28572,0.16814
1342.21419,0.15805
1344.14266,0.15073
1346.07112,0.14783
1347.99959,0.14964
1349.92806,0.15232
1351.85653,0.15176
1353.78500,0.15252
1355.71347,0.15723
1357.64194,0.16497
1359.57040,0.17368
1361.49887,0.17973
1363.42734,0.18004
1365.35581,0.17678
1367.28428,0.17317
1369.21275,0.17107
1371.14122,0.17510
1373.06969,0.18554
1374.99815,0.19071
1376.92662,0.18452
1378.85509,0.17709
1380.78356,0.17264
1382.71203,0.17087
1384.64050,0.17478
1386.56897,0.18238
1388.49743,0.18507
1390.42590,0.18438
1392.35437,0.18663
1394.28284,0.19166
1396.21131,0.19497
1398.13978,0.19086
1400.06825,0.18138
1401.99672,0.17685
1403.92518,0.17962
1405.85365,0.18437
1407.78212,0.18756
1409.71059,0.18821
1411.63906,0.18726
1413.56753,0.18718
1415.49600,0.18665
1417.42446,0.18521
1419.35293,0.18615
1421.28140,0.18828
1423.20987,0.18728
1425.13834,0.18342
1427.06681,0.18211
1428.99528,0.18442
1430.92375,0.18521
1432.85221,0.18548
1434.78068,0.18948
1436.70915,0.19227
1438.63762,0.18476
1440.56609,0.17398
1442.49456,0.17044
1444.42303,0.17553
1446.35149,0.18305
1448.27996,0.18936
1450.20843,0.19115
1452.13690,0.18946
1454.06537,0.19034
1455.99384,0.20031
1457.92231,0.21205
1459.85077,0.20511
1461.77924,0.19599
1463.70771,0.19213
1465.63618,0.19029
1467.56465,0.19037
1469.49312,0.19624
1471.42159,0.20910
1473.35006,0.21677
1475.27852,0.20902
1477.20699,0.19812
1479.13546,0.19129
1481.06393,0.19038
1482.99240,0.19379
1484.92087,0.19996
1486.84934,0.20860
1488.77780,0.21620
1490.70627,0.21164
1492.63474,0.20048
1494.56321,0.19686
1496.49168,0.20248
1498.42015,0.20767
1500.34862,0.20028
1502.27709,0.18699
1504.20555,0.18471
1506.13402,0.21217
1508.06249,0.23538
1509.99096,0.21763
1511.91943,0.20394
1513.84790,0.20374
1515.77637,0.21355
1517.70483,0.22859
1519.63330,0.24673
1521.56177,0.25373
1523.49024,0.23489
1525.41871,0.21824
1527.34718,0.20904
1529.27565,0.20399
1531.20412,0.20935
1533.13258,0.22005
1535.06105,0.22068
1536.98952,0.22044
1538.91799,0.23381
1540.84646,0.24534
1542.77493,0.23361
1544.70340,0.22119
1546.63186,0.21179
1548.56033,0.20626
1550.48880,0.20348
1552.41727,0.20364
1554.34574,0.21115
1556.27421,0.22878
1558.20268,0.25183
1560.13115,0.23320
1562.05961,0.20502
1563.98808,0.19583
1565.91655,0.19614
1567.84502,0.20228
1569.77349,0.20790
1571.70196,0.20335
1573.63043,0.19954
1575.55889,0.20311
1577.48736,0.20272
1579.41583,0.19370
1581.34430,0.18480
1583.27277,0.18020
1585.20124,0.18025
1587.12971,0.18229
1589.05818,0.18342
1590.98664,0.18267
1592.91511,0.18349
1594.84358,0.18636
1596.77205,0.18568
1598.70052,0.18185
1600.62899,0.17960
1602.55746,0.18016
1604.48592,0.18228
1606.41439,0.18516
1608.34286,0.18775
1610.27133,0.18822
1612.19980,0.18872
1614.12827,0.19416
1616.05674,0.20386
1617.98521,0.20423
1619.91367,0.19936
1621.84214,0.20088
1623.77061,0.20027
1625.69908,0.19387
1627.62755,0.19165
1629.55602,0.19031
1631.48449,0.18872
1633.41295,0.19486
1635.34142,0.20680
1637.26989,0.20567
1639.19836,0.20045
1641.12683,0.20107
1643.05530,0.20608
1644.98377,0.21935
1646.91223,0.23239
1648.84070,0.22448
1650.76917,0.22256
1652.69764,0.23995
1654.62611,0.23032
1656.55458,0.20454
1658.48305,0.19332
1660.41152,0.19514
1662.33998,0.20249
1664.26845,0.20358
1666.19692,0.20383
1668.12539,0.21354
1670.05386,0.22413
1671.98233,0.22185
1673.91080,0.21626
1675.83926,0.20913
1677.76773,0.20501
1679.69620,0.21062
1681.62467,0.22469
1683.55314,0.23865
1685.48161,0.23082
1687.41008,0.21726
1689.33855,0.20801
1691.26701,0.19809
1693.19548,0.19566
1695.12395,0.20725
1697.05242,0.22487
1698.98089,0.23414
1700.90936,0.22824
1702.83783,0.21891
1704.76629,0.21556
1706.69476,0.20765
1708.62323,0.19674
1710.55170,0.19369
1712.48017,0.20013
1714.40864,0.21309
1716.33711,0.22180
1718.26558,0.21181
1720.19404,0.20015
1722.12251,0.19751
1724.05098,0.19774
1725.97945,0.19666
1727.90792,0.19595
1729.83639,0.19725
1731.76486,0.20168
1733.69332,0.20811
1735.62179,0.20731
1737.55026,0.20505
1739.47873,0.20626
1741.40720,0.20486
1743.33567,0.20059
1745.26414,0.20084
1747.19261,0.20750
1749.12107,0.21442
1751.04954,0.21075
1752.97801,0.19838
1754.90648,0.19040
1756.83495,0.18952
1758.76342,0.19108
1760.69189,0.19269
1762.62035,0.19158
1764.54882,0.18852
1766.47729,0.19035
1768.40576,0.19886
1770.33423,0.20858
1772.26270,0.21045
1774.19117,0.20379
1776.11964,0.19797
1778.04810,0.19495
1779.97657,0.19317
1781.90504,0.19059
1783.83351,0.18815
1785.76198,0.18651
1787.69045,0.18630
1789.61892,0.19196
1791.54738,0.20179
1793.47585,0.20376
1795.40432,0.19770
1797.33279,0.19216
1799.26126,0.19020
1801.18973,0.18995
1803.11820,0.19011
1805.04666,0.19222
1806.97513,0.19463
1808.90360,0.19530
1810.83207,0.19381
1812.76054,0.19051
1814.68901,0.18675
1816.61748,0.18491
1818.54595,0.18843
1820.47441,0.19578
1822.40288,0.20067
1824.33135,0.20051
1826.25982,0.19924
1828.18829,0.19922
1830.11676,0.19614
1832.04523,0.19161
1833.97369,0.19111
1835.90216,0.19189
1837.83063,0.18975
1839.75910,0.18791
1841.68757,0.19222
1843.61604,0.19958
1845.54451,0.19879
1847.47298,0.19393
1849.40144,0.19293
1851.32991,0.19251
1853.25838,0.19050
1855.18685,0.18893
1857.11532,0.18898
1859.04379,0.19157
1860.97226,0.19542
1862.90072,0.19595
1864.82919,0.19426
1866.75766,0.19737
1868.68613,0.20354
1870.61460,0.20128
1872.54307,0.19393
1874.47154,0.18879
1876.40001,0.18595
1878.32847,0.18594
1880.25694,0.18778
1882.18541,0.18852
1884.11388,0.18882
1886.04235,0.19110
1887.97082,0.19512
1889.89929,0.19657
1891.82775,0.19435
1893.75622,0.19115
1895.68469,0.18649
1897.61316,0.18387
1899.54163,0.18714
1901.47010,0.19212
1903.39857,0.19413
1905.32704,0.19332
1907.25550,0.19259
1909.18397,0.19358
1911.11244,0.19435
1913.04091,0.19415
1914.96938,0.19425
1916.89785,0.19426
1918.82632,0.19351
1920.75478,0.19296
1922.68325,0.19291
1924.61172,0.19241
1926.54019,0.19110
1928.46866,0.18969
1930.39713,0.18926
1932.32560,0.18932
1934.25407,0.18922
1936.18253,0.18953
1938.11100,0.19142
1940.03947,0.19568
1941.96794,0.19809
1943.89641,0.19468
1945.82488,0.19063
1947.75335,0.18869
1949.68181,0.18620
1951.61028,0.18362
1953.53875,0.18356
1955.46722,0.18611
1957.39569,0.18927
1959.32416,0.19184
1961.25263,0.19316
1963.18110,0.19281
1965.10956,0.19177
1967.03803,0.19003
1968.96650,0.18812
1970.89497,0.18863
1972.82344,0.19120
1974.75191,0.19119
1976.68038,0.18553
1978.60884,0.17997
1980.53731,0.18283
1982.46578,0.19131
1984.39425,0.19661
1986.32272,0.19676
1988.25119,0.19538
1990.17966,0.19695
1992.10812,0.19959
1994.03659,0.19591
1995.96506,0.18907
1997.89353,0.18714
1999.82200,0.18838
2001.75047,0.18890
2003.67894,0.19029
2005.60741,0.19199
2007.53587,0.19202
2009.46434,0.19169
2011.39281,0.19123
2013.32128,0.18970
2015.24975,0.18779
2017.17822,0.18621
2019.10669,0.18502
2021.03515,0.18458
2022.96362,0.18388
2024.89209,0.18255
2026.82056,0.18318
2028.74903,0.18576
2030.67750,0.18739
2032.60597,0.18717
2034.53444,0.18706
2036.46290,0.18759
2038.39137,0.18731
2040.31984,0.18748
2042.24831,0.18915
2044.17678,0.19110
2046.10525,0.19218
2048.03372,0.19217
2049.96218,0.19249
2051.89065,0.19301
2053.81912,0.19205
2055.74759,0.19106
2057.67606,0.19186
2059.60453,0.19272
2061.53300,0.19190
2063.46147,0.18968
2065.38993,0.18738
2067.31840,0.18734
2069.24687,0.18876
2071.17534,0.18924
2073.10381,0.19033
2075.03228,0.19335
2076.96075,0.19573
2078.88921,0.19497
2080.81768,0.19288
2082.74615,0.19284
2084.67462,0.19511
2086.60309,0.19761
2088.53156,0.19750
2090.46003,0.19447
2092.38850,0.19161
2094.31696,0.19027
2096.24543,0.18940
2098.17390,0.18834
2100.10237,0.18870
2102.03084,0.19101
2103.95931,0.19232
2105.88778,0.19136
2107.81624,0.19035
2109.74471,0.19080
2111.67318,0.19100
2113.60165,0.19143
2115.53012,0.19321
2117.45859,0.19214
2119.38706,0.18898
2121.31553,0.18945
2123.24399,0.19219
2125.17246,0.19326
2127.10093,0.19322
2129.02940,0.19404
2130.95787,0.19467
2132.88634,0.19454
2134.81481,0.19848
2136.74327,0.20382
2138.67174,0.19984
2140.60021,0.19140
2142.52868,0.18890
2144.45715,0.18920
2146.38562,0.19011
2148.31409,0.19315
2150.24255,0.19511
2152.17102,0.19378
2154.09949,0.19253
2156.02796,0.19379
2157.95643,0.19476
2159.88490,0.19335
2161.81337,0.19057
2163.74184,0.18963
2165.67030,0.19192
2167.59877,0.19313
2169.52724,0.19172
2171.45571,0.19213
2173.38418,0.19529
2175.31265,0.19754
2177.24112,0.19798
2179.16958,0.19801
2181.09805,0.19641
2183.02652,0.19184
2184.95499,0.18834
2186.88346,0.18993
2188.81193,0.19191
2190.74040,0.18944
2192.66887,0.18691
2194.59733,0.18808
2196.52580,0.18999
2198.45427,0.19074
2200.38274,0.19116
2202.31121,0.19167
2204.23968,0.19214
2206.16815,0.19150
2208.09661,0.19114
2210.02508,0.19248
2211.95355,0.19228
2213.88202,0.18913
2215.81049,0.18555
2217.73896,0.18359
2219.66743,0.18293
2221.59590,0.18330
2223.52436,0.18669
2225.45283,0.19245
2227.38130,0.19557
2229.30977,0.19580
2231.23824,0.19585
2233.16671,0.19410
2235.09518,0.19173
2237.02364,0.19194
2238.95211,0.19236
2240.88058,0.19085
2242.80905,0.19080
2244.73752,0.19313
2246.66599,0.19371
2248.59446,0.19243
2250.52293,0.19251
2252.45139,0.19353
2254.37986,0.19337
2256.30833,0.19311
2258.23680,0.19360
2260.16527,0.19345
2262.09374,0.19274
2264.02221,0.19096
2265.95067,0.18878
2267.87914,0.18910
2269.80761,0.19130
2271.73608,0.19261
2273.66455,0.19301
2275.59302,0.19322
2277.52149,0.19313
2279.44996,0.19346
2281.37842,0.19307
2283.30689,0.19086
2285.23536,0.18894
2287.16383,0.18972
2289.09230,0.19248
2291.02077,0.19270
2292.94924,0.19016
2294.87770,0.18893
2296.80617,0.18865
2298.73464,0.18905
2300.66311,0.19046
2302.59158,0.19146
2304.52005,0.19298
2306.44852,0.19303
2308.37699,0.18907
2310.30545,0.18606
2312.23392,0.18768
2314.16239,0.19025
2316.09086,0.19245
2318.01933,0.19533
2319.94780,0.19242
2321.87627,0.18433
2323.80473,0.18220
2325.73320,0.18495
2327.66167,0.18769
2329.59014,0.18671
2331.51861,0.18195
2333.44708,0.18117
2335.37555,0.18649
2337.30401,0.19247
2339.23248,0.19093
2341.16095,0.18694
2343.08942,0.19174
2345.01789,0.19625
2346.94636,0.19006
2348.87483,0.18141
2350.80330,0.17543
2352.73176,0.17357
2354.66023,0.17971
2356.58870,0.18784
2358.51717,0.18879
2360.44564,0.18354
2362.37411,0.17627
2364.30258,0.17924
2366.23104,0.19115
2368.15951,0.20074
2370.08798,0.20344
2372.01645,0.19785
2373.94492,0.19139
2375.87339,0.18832
2377.80186,0.18613
2379.73033,0.18715
2381.65879,0.19054
2383.58726,0.19088
2385.51573,0.18794
2387.44420,0.18559
2389.37267,0.18631
2391.30114,0.18824
2393.22961,0.18910
2395.15807,0.19051
2397.08654,0.19380
2399.01501,0.19688
2400.94348,0.19731
2402.87195,0.19634
2404.80042,0.19508
2406.72889,0.19242
2408.65736,0.18999
2410.58582,0.18991
2412.51429,0.19127
2414.44276,0.19269
2416.37123,0.19331
2418.29970,0.19180
2420.22817,0.18898
2422.15664,0.18777
2424.08510,0.18924
2426.01357,0.19229
2427.94204,0.19419
2429.87051,0.19432
2431.79898,0.19324
2433.72745,0.19026
2435.65592,0.18814
2437.58439,0.18927
2439.51285,0.19128
2441.44132,0.19076
2443.36979,0.18910
2445.29826,0.19039
2447.22673,0.19328
2449.15520,0.19396
2451.08367,0.19094
2453.01213,0.18607
2454.94060,0.18482
2456.86907,0.19013
2458.79754,0.19648
2460.72601,0.19780
2462.65448,0.19566
2464.58295,0.19291
2466.51142,0.19112
2468.43988,0.19152
2470.36835,0.19246
2472.29682,0.19237
2474.22529,0.19288
2476.15376,0.19383
2478.08223,0.19302
2480.01070,0.19324
2481.93916,0.19621
2483.86763,0.19766
2485.79610,0.19618
2487.72457,0.19495
2489.65304,0.19536
2491.58151,0.19560
2493.50998,0.19392
2495.43844,0.19096
2497.36691,0.18939
2499.29538,0.19052
2501.22385,0.19228
2503.15232,0.19417
2505.08079,0.19763
2507.00926,0.19968
2508.93773,0.19780
2510.86619,0.19537
2512.79466,0.19639
2514.72313,0.19926
2516.65160,0.19811
2518.58007,0.19376
2520.50854,0.19199
2522.43701,0.19227
2524.36547,0.19129
2526.29394,0.19074
2528.22241,0.19197
2530.15088,0.19120
2532.07935,0.18876
2534.00782,0.18902
2535.93629,0.19119
2537.86476,0.19199
2539.79322,0.19140
2541.72169,0.19192
2543.65016,0.19204
2545.57863,0.18940
2547.50710,0.18868
2549.43557,0.19139
2551.36404,0.19335
2553.29250,0.19513
2555.22097,0.19630
2557.14944,0.19308
2559.07791,0.18744
2561.00638,0.18614
2562.93485,0.19021
2564.86332,0.19372
2566.79179,0.19412
2568.72025,0.19350
2570.64872,0.19338
2572.57719,0.19395
2574.50566,0.19470
2576.43413,0.19508
2578.36260,0.19450
2580.29107,0.19364
2582.21953,0.19344
2584.14800,0.19403
2586.07647,0.19520
2588.00494,0.19515
2589.93341,0.19339
2591.86188,0.19275
2593.79035,0.19431
2595.71882,0.19662
2597.64728,0.19728
2599.57575,0.19511
2601.50422,0.19353
2603.43269,0.19474
2605.36116,0.19599
2607.28963,0.19401
2609.21810,0.18967
2611.14656,0.18795
2613.07503,0.18986
2615.00350,0.19333
2616.93197,0.19651
2618.86044,0.19494
2620.78891,0.19011
2622.71738,0.18964
2624.64585,0.19455
2626.57431,0.19947
2628.50278,0.20017
2630.43125,0.19803
2632.35972,0.19646
2634.28819,0.19504
2636.21666,0.19315
2638.14513,0.19345
2640.07359,0.19666
2642.00206,0.20005
2643.93053,0.20223
2645.85900,0.20139
2647.78747,0.19746
2649.71594,0.19624
2651.64441,0.19855
2653.57288,0.19931
2655.50134,0.19870
2657.42981,0.19931
2659.35828,0.20085
2661.28675,0.20168
2663.21522,0.19954
2665.14369,0.19624
2667.07216,0.19697
2669.00062,0.19990
2670.92909,0.19911
2672.85756,0.19655
2674.78603,0.19698
2676.71450,0.19903
2678.64297,0.20040
2680.57144,0.20105
2682.49990,0.19985
2684.42837,0.19748
2686.35684,0.19767
2688.28531,0.19935
2690.21378,0.19843
2692.14225,0.19691
2694.07072,0.19881
2695.99919,0.20237
2697.92765,0.20341
2699.85612,0.20207
2701.78459,0.20044
2703.71306,0.19823
2705.64153,0.19713
2707.57000,0.19941
2709.49847,0.20226
2711.42693,0.20281
2713.35540,0.20257
2715.28387,0.20296
2717.21234,0.20271
2719.14081,0.20085
2721.06928,0.19887
2722.99775,0.19893
2724.92622,0.20125
2726.85468,0.20378
2728.78315,0.20451
2730.71162,0.20388
2732.64009,0.20334
2734.56856,0.20157
2736.49703,0.19796
2738.42550,0.19699
2740.35396,0.19925
2742.28243,0.19995
2744.21090,0.19976
2746.13937,0.20259
2748.06784,0.20783
2749.99631,0.21046
2751.92478,0.20729
2753.85325,0.20150
2755.78171,0.19836
2757.71018,0.19957
2759.63865,0.20312
2761.56712,0.20573
2763.49559,0.20677
2765.42406,0.20689
2767.35253,0.20607
2769.28099,0.20612
2771.20946,0.20758
2773.13793,0.20868
2775.06640,0.20793
2776.99487,0.20580
2778.92334,0.20534
2780.85181,0.20691
2782.78028,0.20815
2784.70874,0.21004
2786.63721,0.21408
2788.56568,0.21547
2790.49415,0.21174
2792.42262,0.20897
2794.35109,0.20907
2796.27956,0.20821
2798.20802,0.20551
2800.13649,0.20420
2802.06496,0.20564
2803.99343,0.20602
2805.92190,0.20500
2807.85037,0.20608
2809.77884,0.20743
2811.70731,0.20769
2813.63577,0.21010
2815.56424,0.21314
2817.49271,0.21355
2819.42118,0.21216
2821.34965,0.20993
2823.27812,0.20915
2825.20659,0.21051
2827.13505,0.20878
2829.06352,0.20380
2830.99199,0.20307
2832.92046,0.20757
2834.84893,0.21132
2836.77740,0.21043
2838.70587,0.20622
2840.63433,0.20338
2842.56280,0.20395
2844.49127,0.20658
2846.41974,0.20764
2848.34821,0.20553
2850.27668,0.20432
2852.20515,0.20565
2854.13362,0.20600
2856.06208,0.20378
2857.99055,0.20314
2859.91902,0.20659
2861.84749,0.20830
2863.77596,0.20632
2865.70443,0.20781
2867.63290,0.21256
2869.56136,0.21348
2871.48983,0.21169
2873.41830,0.21032
2875.34677,0.20684
2877.27524,0.20364
2879.20371,0.20560
2881.13218,0.20702
2883.06065,0.20277
2884.98911,0.20021
2886.91758,0.20372
2888.84605,0.20630
2890.77452,0.20413
2892.70299,0.20091
2894.63146,0.19922
2896.55993,0.20013
2898.48839,0.20374
2900.41686,0.20692
2902.34533,0.20642
2904.27380,0.20367
2906.20227,0.20277
2908.13074,0.20628
2910.05921,0.21096
2911.98768,0.21058
2913.91614,0.20646
2915.84461,0.20314
2917.77308,0.20240
2919.70155,0.20235
2921.63002,0.20079
2923.55849,0.19801
2925.48696,0.19292
2927.41542,0.19275
2929.34389,0.20247
2931.27236,0.21086
2933.20083,0.21196
2935.12930,0.20615
2937.05777,0.19575
2938.98624,0.19528
2940.91471,0.20670
2942.84317,0.21328
2944.77164,0.20862
2946.70011,0.19845
2948.62858,0.19534
2950.55705,0.20129
2952.48552,0.20358
2954.41399,0.19878
2956.34245,0.18826
2958.27092,0.18166
2960.19939,0.19044
2962.12786,0.20441
2964.05633,0.20962
2965.98480,0.20301
2967.91327,0.19191
2969.84174,0.19200
2971.77020,0.20412
2973.69867,0.21292
2975.62714,0.20925
2977.55561,0.19778
2979.48408,0.19340
2981.41255,0.19946
2983.34102,0.20448
2985.26948,0.20362
2987.19795,0.19920
2989.12642,0.19942
2991.05489,0.20948
2992.98336,0.21921
2994.91183,0.21918
2996.84030,0.21236
2998.76877,0.20681
3000.69723,0.20739
3002.62570,0.21332
3004.55417,0.21953
3006.48264,0.21703
3008.41111,0.20246
3010.33958,0.18244
3012.26805,0.15936
3014.19651,0.12837
3016.12498,0.10370
3018.05345,0.11880
3019.98192,0.16663
3021.91039,0.20183
3023.83886,0.21251
3025.76733,0.21203
3027.69579,0.20627
3029.62426,0.20185
3031.55273,0.20107
3033.48120,0.20114
3035.40967,0.20137
3037.33814,0.20269
3039.26661,0.20972
3041.19508,0.21849
3043.12354,0.21764
3045.05201,0.20726
3046.98048,0.19534
3048.90895,0.19200
3050.83742,0.20028
3052.76589,0.20958
3054.69436,0.20780
3056.62282,0.19579
3058.55129,0.19053
3060.47976,0.19838
3062.40823,0.20820
3064.33670,0.20913
3066.26517,0.20090
3068.19364,0.20052
3070.12211,0.21170
3072.05057,0.21710
3073.97904,0.20928
3075.90751,0.19750
3077.83598,0.19658
3079.76445,0.20397
3081.69292,0.20756
3083.62139,0.20321
3085.54985,0.19545
3087.47832,0.19666
3089.40679,0.20395
3091.33526,0.20276
3093.26373,0.19144
3095.19220,0.18734
3097.12067,0.20031
3099.04914,0.21202
3100.97760,0.20904
3102.90607,0.19568
3104.83454,0.18836
3106.76301,0.19648
3108.69148,0.20593
3110.61995,0.20580
3112.54842,0.20065
3114.47688,0.20040
3116.40535,0.20656
3118.33382,0.20900
3120.26229,0.19997
3122.19076,0.19078
3124.11923,0.19681
3126.04770,0.20729
3127.97617,0.20953
3129.90463,0.20708
3131.83310,0.20471
3133.76157,0.20585
3135.69004,0.20874
3137.61851,0.20673
3139.54698,0.20360
3141.47545,0.20940
3143.40391,0.21686
3145.33238,0.21398
3147.26085,0.20736
3149.18932,0.20832
3151.11779,0.21668
3153.04626,0.22496
3154.97473,0.22600
3156.90320,0.21993
3158.83166,0.21298
3160.76013,0.20935
3162.68860,0.21050
3164.61707,0.21451
3166.54554,0.21771
3168.47401,0.21979
3170.40248,0.22197
3172.33094,0.22157
3174.25941,0.21852
3176.18788,0.21808
3178.11635,0.21943
3180.04482,0.21883
3181.97329,0.21760
3183.90176,0.21956
3185.83022,0.22393
3187.75869,0.22627
3189.68716,0.22550
3191.61563,0.22210
3193.54410,0.21879
3195.47257,0.21790
3197.40104,0.21638
3199.32951,0.21439
3201.25797,0.21473
3203.18644,0.21432
3205.11491,0.21396
3207.04338,0.21852
3208.97185,0.22395
3210.90032,0.22472
3212.82879,0.22469
3214.75725,0.22686
3216.68572,0.22616
3218.61419,0.22195
3220.54266,0.21818
3222.47113,0.21810
3224.39960,0.22261
3226.32807,0.22386
3228.25654,0.21748
3230.18500,0.21241
3232.11347,0.21507
3234.04194,0.22023
3235.97041,0.22241
3237.89888,0.22017
3239.82735,0.21579
3241.75582,0.21519
3243.68428,0.21929
3245.61275,0.22411
3247.54122,0.22487
3249.46969,0.22071
3251.39816,0.21637
3253.32663,0.21430
3255.25510,0.21439
3257.18357,0.21725
3259.11203,0.22022
3261.04050,0.21970
3262.96897,0.21610
3264.89744,0.21152
3266.82591,0.21175
3268.75438,0.21660
3270.68285,0.21562
3272.61131,0.20894
3274.53978,0.20568
3276.46825,0.20794
3278.39672,0.21267
3280.32519,0.21450
3282.25366,0.21271
3284.18213,0.21478
3286.11060,0.22005
3288.03906,0.22174
3289.96753,0.22063
3291.89600,0.21754
3293.82447,0.21180
3295.75294,0.20735
3297.68141,0.21003
3299.60988,0.21797
3301.53834,0.22225
3303.46681,0.22018
3305.39528,0.21594
3307.32375,0.21417
3309.25222,0.21448
3311.18069,0.21375
3313.10916,0.21549
3315.03763,0.22115
3316.96609,0.22263
3318.89456,0.21884
3320.82303,0.21499
3322.75150,0.20888
3324.67997,0.20232
3326.60844,0.20200
3328.53691,0.20707
3330.46537,0.21182
3332.39384,0.21301
3334.32231,0.21345
3336.25078,0.21479
3338.17925,0.21549
3340.10772,0.21545
3342.03619,0.21300
3343.96466,0.21040
3345.89312,0.21235
3347.82159,0.21944
3349.75006,0.22813
3351.67853,0.22763
3353.60700,0.21638
3355.53547,0.20838
3357.46394,0.20959
3359.39240,0.21460
3361.32087,0.21952
3363.24934,0.22148
3365.17781,0.21944
3367.10628,0.21820
3369.03475,0.21890
3370.96322,0.21868
3372.89168,0.21854
3374.82015,0.21793
3376.74862,0.21584
3378.67709,0.21549
3380.60556,0.21717
3382.53403,0.21858
3384.46250,0.22096
3386.39097,0.22239
3388.31943,0.22045
3390.24790,0.21902
3392.17637,0.21954
3394.10484,0.21955
3396.03331,0.21662
3397.96178,0.21200
3399.89025,0.20953
3401.81871,0.20813
3403.74718,0.20845
3405.67565,0.21360
3407.60412,0.21625
3409.53259,0.20886
3411.46106,0.20123
3413.38953,0.20459
3415.31800,0.21324
3417.24646,0.21663
3419.17493,0.21312
3421.10340,0.20742
3423.03187,0.20462
3424.96034,0.20705
3426.88881,0.21044
3428.81728,0.20952
3430.74574,0.20740
3432.67421,0.20461
3434.60268,0.19725
3436.53115,0.19212
3438.45962,0.19564
3440.38809,0.19814
3442.31656,0.19313
3444.24503,0.19222
3446.17349,0.19955
3448.10196,0.20439
3450.03043,0.20463
3451.95890,0.20502
3453.88737,0.20464
3455.81584,0.20100
3457.74431,0.19675
3459.67277,0.19596
3461.60124,0.19751
3463.52971,0.19795
3465.45818,0.19424
3467.38665,0.18910
3469.31512,0.19098
3471.24359,0.19791
3473.17206,0.20081
3475.10052,0.19943
3477.02899,0.19796
3478.95746,0.19937
3480.88593,0.20297
3482.81440,0.20441
3484.74287,0.20017
3486.67134,0.19173
3488.59980,0.18972
3490.52827,0.19676
3492.45674,0.19953
3494.38521,0.19399
3496.31368,0.18715
3498.24215,0.18369
3500.17062,0.18569
3502.09909,0.19055
3504.02755,0.19063
3505.95602,0.18706
3507.88449,0.18820
3509.81296,0.19193
3511.74143,0.19075
3513.66990,0.18493
3515.59837,0.17816
3517.52683,0.17494
3519.45530,0.17566
3521.38377,0.17642
3523.31224,0.17894
3525.24071,0.18379
3527.16918,0.18558
3529.09765,0.18093
3531.02611,0.17173
3532.95458,0.16727
3534.88305,0.17151
3536.81152,0.17446
3538.73999,0.17255
3540.66846,0.17431
3542.59693,0.17913
3544.52540,0.17922
3546.45386,0.17415
3548.38233,0.17061
3550.31080,0.16998
3552.23927,0.16928
3554.16774,0.16909
3556.09621,0.16998
3558.02468,0.16819
3559.95314,0.16347
3561.88161,0.16470
3563.81008,0.17740
3565.73855,0.19064
3567.66702,0.18568
3569.59549,0.17234
3571.52396,0.16835
3573.45243,0.16900
3575.38089,0.16826
3577.30936,0.16673
3579.23783,0.16557
3581.16630,0.16301
3583.09477,0.15984
3585.02324,0.16313
3586.95171,0.17289
3588.88017,0.17386
3590.80864,0.16879
3592.73711,0.16911
3594.66558,0.17032
3596.59405,0.16748
3598.52252,0.16589
3600.45099,0.16485
3602.37946,0.16068
3604.30792,0.15777
3606.23639,0.15965
3608.16486,0.16267
3610.09333,0.16180
3612.02180,0.16087
3613.95027,0.16208
3615.87874,0.16532
3617.80720,0.17129
3619.73567,0.16956
3621.66414,0.15916
3623.59261,0.15368
3625.52108,0.15374
3627.44955,0.15533
3629.37802,0.15208
3631.30649,0.14752
3633.23495,0.14995
3635.16342,0.15266
3637.09189,0.14890
3639.02036,0.14396
3640.94883,0.14304
3642.87730,0.14449
3644.80577,0.14869
3646.73423,0.15524
3648.66270,0.16044
3650.59117,0.15788
3652.51964,0.14758
3654.44811,0.14196
3656.37658,0.14536
3658.30505,0.14813
3660.23352,0.14551
3662.16198,0.14314
3664.09045,0.14276
3666.01892,0.14401
3667.94739,0.15021
3669.87586,0.15525
3671.80433,0.14993
3673.73280,0.15044
3675.66126,0.15605
3677.58973,0.14866
3679.51820,0.13816
3681.44667,0.13406
3683.37514,0.13624
3685.30361,0.14100
3687.23208,0.14702
3689.16055,0.15281
3691.08901,0.14993
3693.01748,0.14264
3694.94595,0.13790
3696.87442,0.13405
3698.80289,0.13208
3700.73136,0.13433
3702.65983,0.13636
3704.58829,0.13667
3706.51676,0.13902
3708.44523,0.14224
3710.37370,0.14203
3712.30217,0.13722
3714.23064,0.13460
3716.15911,0.13407
3718.08757,0.13284
3720.01604,0.13476
3721.94451,0.14328
3723.87298,0.14917
3725.80145,0.14473
3727.72992,0.13900
3729.65839,0.13677
3731.58686,0.13508
3733.51532,0.13847
3735.44379,0.14883
3737.37226,0.15062
3739.30073,0.14322
3741.22920,0.13823
3743.15767,0.13813
3745.08614,0.14071
3747.01460,0.14618
3748.94307,0.15770
3750.87154,0.16944
3752.80001,0.16195
3754.72848,0.14980
3756.65695,0.14603
3758.58542,0.14512
3760.51389,0.13878
3762.44235,0.13285
3764.37082,0.13430
3766.29929,0.13916
3768.22776,0.14153
3770.15623,0.13787
3772.08470,0.12820
3774.01317,0.12172
3775.94163,0.12492
3777.87010,0.13441
3779.79857,0.13732
3781.72704,0.13208
3783.65551,0.12780
3785.58398,0.12495
3787.51245,0.12244
3789.44092,0.12063
3791.36938,0.12108
3793.29785,0.12609
3795.22632,0.13622
3797.15479,0.14659
3799.08326,0.15370
3801.01173,0.15707
3802.94020,0.14761
3804.86866,0.13767
3806.79713,0.13396
3808.72560,0.12624
3810.65407,0.11847
3812.58254,0.12029
3814.51101,0.12907
3816.43948,0.13294
3818.36795,0.13418
3820.29641,0.14128
3822.22488,0.14479
3824.15335,0.14287
3826.08182,0.14011
3828.01029,0.13506
3829.93876,0.12914
3831.86723,0.12343
3833.79569,0.11966
3835.72416,0.12090
3837.65263,0.13237
3839.58110,0.14622
3841.50957,0.14349
3843.43804,0.13076
3845.36651,0.12195
3847.29498,0.12271
3849.22344,0.13094
3851.15191,0.13887
3853.08038,0.13934
3855.00885,0.13134
3856.93732,0.12502
3858.86579,0.12531
3860.79426,0.12968
3862.72272,0.13431
3864.65119,0.13586
3866.57966,0.13282
3868.50813,0.13259
3870.43660,0.13835
3872.36507,0.13996
3874.29354,0.13618
3876.22200,0.13311
3878.15047,0.13256
3880.07894,0.13257
3882.00741,0.12869
3883.93588,0.12285
3885.86435,0.12080
3887.79282,0.12260
3889.72129,0.12338
3891.64975,0.12512
3893.57822,0.12707
3895.50669,0.12348
3897.43516,0.12038
3899.36363,0.12347
3901.29210,0.12775
3903.22057,0.13063
3905.14903,0.13024
3907.07750,0.12511
3909.00597,0.12137
3910.93444,0.11975
3912.86291,0.11835
3914.79138,0.11890
3916.71985,0.11635
3918.64832,0.10878
3920.57678,0.10879
3922.50525,0.11540
3924.43372,0.11767
3926.36219,0.11620
3928.29066,0.11862
3930.21913,0.12325
3932.14760,0.12212
3934.07606,0.11475
3936.00453,0.10792
3937.93300,0.10773
3939.86147,0.11623
3941.78994,0.12485
3943.71841,0.12319
3945.64688,0.11586
3947.57535,0.11185
3949.50381,0.11354
3951.43228,0.11595
3953.36075,0.11360
3955.28922,0.10927
3957.21769,0.10703
3959.14616,0.10785
3961.07463,0.11177
3963.00309,0.11534
3964.93156,0.11430
3966.86003,0.11202
3968.78850,0.11270
3970.71697,0.11347
3972.64544,0.11098
3974.57391,0.10672
3976.50238,0.10704
3978.43084,0.11239
3980.35931,0.11262
3982.28778,0.10662
3984.21625,0.10484
3986.14472,0.10837
3988.07319,0.10977
3990.00166,0.10863
3991.93012,0.11041
3993.85859,0.11228
3995.78706,0.10798
3997.71553,0.10366
3999.64400,0.10450
4001.57247,0.10532
4003.50094,0.10425
4005.42941,0.10216
4007.35787,0.09844
4009.28634,0.09623
4011.21481,0.10141
4013.14328,0.11151
4015.07175,0.11276
4017.00022,0.10103
4018.92869,0.09223
4020.85715,0.09641
4022.78562,0.10516
4024.71409,0.11082
4026.64256,0.11101
4028.57103,0.10544
4030.49950,0.10025
4032.42797,0.09928
4034.35644,0.09789
4036.28490,0.09493
4038.21337,0.09468
4040.14184,0.09677
4042.07031,0.09620
4043.99878,0.09115
4045.92725,0.08948
4047.85572,0.09672
4049.78418,0.10487
4051.71265,0.10849
4053.64112,0.10689
4055.56959,0.10089
4057.49806,0.09915
4059.42653,0.10432
4061.35500,0.10692
4063.28346,0.10152
4065.21193,0.09440
4067.14040,0.09293
4069.06887,0.09372
4070.99734,0.09034
4072.92581,0.08462
4074.85428,0.08381
4076.78275,0.09081
4078.71121,0.09765
4080.63968,0.09830
4082.56815,0.09597
4084.49662,0.09326
4086.42509,0.09270
4088.35356,0.09607
4090.28203,0.09802
4092.21049,0.09368
4094.13896,0.08981
4096.06743,0.09367
4097.99590,0.10050
4099.92437,0.10071
4101.85284,0.09339
4103.78131,0.08875
4105.70978,0.08984
4107.63824,0.09081
4109.56671,0.09109
4111.49518,0.09066
4113.42365,0.08907
4115.35212,0.08875
4117.28059,0.08977
4119.20906,0.08745
4121.13752,0.07966
4123.06599,0.07221
4124.99446,0.07230
4126.92293,0.07767
4128.85140,0.08327
4130.77987,0.09237
4132.70834,0.09957
4134.63681,0.09495
4136.56527,0.08702
4138.49374,0.08371
4140.42221,0.08087
4142.35068,0.07798
4144.27915,0.07662
4146.20762,0.07623
4148.13609,0.07607
4150.06455,0.07636
4151.99302,0.07931
4153.92149,0.08281
4155.84996,0.08317
4157.77843,0.08196
4159.70690,0.08218
4161.63537,0.08386
4163.56384,0.08428
4165.49230,0.08508
4167.42077,0.08748
4169.34924,0.08578
4171.27771,0.08120
4173.20618,0.08046
4175.13465,0.08115
4177.06312,0.08069
4178.99158,0.08411
4180.92005,0.09030
4182.84852,0.09120
4184.77699,0.08755
4186.70546,0.08520
4188.63393,0.08370
4190.56240,0.08311
4192.49087,0.08326
4194.41933,0.07985
4196.34780,0.07609
4198.27627,0.07775
4200.20474,0.08087
4202.13321,0.08049
4204.06168,0.07837
4205.99015,0.07599
4207.91861,0.07334
4209.84708,0.07148
4211.77555,0.07048
4213.70402,0.07306
4215.63249,0.08071
4217.56096,0.08470
4219.48943,0.08009
4221.41789,0.07481
4223.34636,0.07419
4225.27483,0.07711
4227.20330,0.07974
4229.13177,0.07682
4231.06024,0.07273
4232.98871,0.07469
4234.91718,0.07729
4236.84564,0.07420
4238.77411,0.06993
4240.70258,0.06800
4242.63105,0.06620
4244.55952,0.06596
4246.48799,0.06513
4248.41646,0.05993
4250.34492,0.05946
4252.27339,0.06808
4254.20186,0.07472
4256.13033,0.07323
4258.05880,0.06928
4259.98727,0.06780
4261.91574,0.06789
4263.84421,0.06594
4265.77267,0.05911
4267.70114,0.05230
4269.62961,0.05215
4271.55808,0.05430
4273.48655,0.05413
4275.41502,0.05436
4277.34349,0.05403
4279.27195,0.05150
4281.20042,0.05174
4283.12889,0.05696
4285.05736,0.06363
4286.98583,0.06653
4288.91430,0.06470
4290.84277,0.06226
4292.77124,0.05965
4294.69970,0.05802
4296.62817,0.05786
4298.55664,0.05833
4300.48511,0.06147
4302.41358,0.06278
4304.34205,0.05955
4306.27052,0.05616
4308.19898,0.05313
4310.12745,0.05148
4312.05592,0.05335
4313.98439,0.05452
4315.91286,0.05380
4317.84133,0.05659
4319.76980,0.05989
4321.69827,0.05595
4323.62673,0.04826
4325.55520,0.04651
4327.48367,0.04945
4329.41214,0.05005
4331.34061,0.04866
4333.26908,0.04739
4335.19755,0.04921
4337.12601,0.05374
4339.05448,0.05445
4340.98295,0.05142
4342.91142,0.04904
4344.83989,0.04737
4346.76836,0.04971
4348.69683,0.05700
4350.62530,0.05891
4352.55376,0.05371
4354.48223,0.04962
4356.41070,0.05051
4358.33917,0.05358
4360.26764,0.04882
4362.19611,0.03784
4364.12458,0.03523
4366.05304,0.03991
4367.98151,0.04025
4369.90998,0.03755
4371.83845,0.03935
4373.76692,0.04672
4375.69539,0.05482
4377.62386,0.05780
4379.55232,0.05563
4381.48079,0.05084
4383.40926,0.04466
4385.33773,0.04027
4387.26620,0.04108
4389.19467,0.04615
4391.12314,0.04776
4393.05161,0.04627
4394.98007,0.05376
4396.90854,0.06665
4398.83701,0.06938
4400.76548,0.05855
4402.69395,0.04326
4404.62242,0.03601
4406.55089,0.03822
4408.47935,0.04095
4410.40782,0.04043
4412.33629,0.04034
4414.26476,0.04235
4416.19323,0.04347
4418.12170,0.04203
4420.05017,0.03788
4421.97864,0.03305
4423.90710,0.03509
4425.83557,0.04377
4427.76404,0.04392
4429.69251,0.03294
4431.62098,0.02863
4433.54945,0.03710
4435.47792,0.04712
4437.40638,0.05359
4439.33485,0.05680
4441.26332,0.04952
4443.19179,0.03258
4445.12026,0.02247
4447.04873,0.02686
4448.97720,0.03344
4450.90567,0.03165
4452.83413,0.03000
4454.76260,0.03597
4456.69107,0.04424
4458.61954,0.05121
4460.54801,0.05423
4462.47648,0.04954
4464.40495,0.03820
4466.33341,0.02693
4468.26188,0.01987
4470.19035,0.01460
4472.11882,0.01276
4474.04729,0.01719
4475.97576,0.02323
4477.90423,0.02486
4479.83270,0.02518
4481.76116,0.03030
4483.68963,0.03262
4485.61810,0.02724
4487.54657,0.02320
4489.47504,0.02550
4491.40351,0.03058
4493.33198,0.03048
4495.26044,0.02580
4497.18891,0.02135
4499.11738,0.01818
4501.04585,0.01951
4502.97432,0.01935
4504.90279,0.00995
4506.83126,0.00386
4508.75973,0.01656
4510.68819,0.03543
4512.61666,0.04238
4514.54513,0.04286
4516.47360,0.04442
4518.40207,0.04288
4520.33054,0.03488
4522.25901,0.02457
4524.18747,0.01459
4526.11594,0.00352
4528.04441,-0.00382
4529.97288,-0.00344
4531.90135,0.00078
4533.82982,0.00578
4535.75829,0.01143
4537.68676,0.01597
4539.61522,0.01598
4541.54369,0.01291
4543.47216,0.01281
4545.40063,0.01207
4547.32910,0.00779
4549.25757,0.00923
4551.18604,0.01656
4553.11450,0.02119
4555.04297,0.01623
4556.97144,0.00096
4558.89991,-0.01114
4560.82838,-0.01001
4562.75685,-0.00003
4564.68532,0.00889
4566.61378,0.01218
4568.54225,0.01683
4570.47072,0.02078
4572.39919,0.01357
4574.32766,0.00155
4576.25613,-0.00495
4578.18460,-0.00261
4580.11307,0.00705
4582.04153,0.01128
4583.97000,0.00740
4585.89847,0.00822
4587.82694,0.01232
4589.75541,0.01147
4591.68388,0.00883
4593.61235,0.00548
4595.54081,0.00359
4597.46928,0.01177
4599.39775,0.02150
4601.32622,0.01976
4603.25469,0.01662
4605.18316,0.01691
4607.11163,0.01006
4609.04010,0.00010
4610.96856,0.00036
4612.89703,0.00861
4614.82550,0.00945
4616.75397,0.00547
4618.68244,0.01209
4620.61091,0.02316
4622.53938,0.02345
4624.46784,0.01013
4626.39631,-0.00665
4628.32478,-0.00995
4630.25325,0.00196
4632.18172,0.01103
4634.11019,0.00920
4636.03866,0.00733
4637.96713,0.01324
4639.89559,0.02501
4641.82406,0.02962
4643.75253,0.02153
4645.68100,0.01531
4647.60947,0.01632
4649.53794,0.01568
4651.46641,0.01232
4653.39487,0.01552
4655.32334,0.02296
4657.25181,0.01697
4659.18028,0.00023
4661.10875,-0.00457
4663.03722,0.00988
4664.96569,0.02858
4666.89416,0.03453
4668.82262,0.02832
4670.75109,0.01983
4672.67956,0.01233
4674.60803,0.00515
4676.53650,0.00539
4678.46497,0.01867
4680.39344,0.03135
4682.32190,0.02687
4684.25037,0.01278
4686.17884,0.01176
4688.10731,0.01971
4690.03578,0.01620
4691.96425,0.00566
4693.89272,0.00101
4695.82119,0.00403
4697.74965,0.00687
4699.67812,0.00625
4701.60659,0.00980
4703.53506,0.01455
4705.46353,0.01457
4707.39200,0.01663
4709.32047,0.01781
4711.24893,0.00880
4713.17740,0.00180
4715.10587,0.00821
4717.03434,0.01561
4718.96281,0.01172
4720.89128,0.00547
4722.81975,0.00661
4724.74821,0.00697
4726.67668,0.00477
4728.60515,0.00698
4730.53362,0.00966
4732.46209,0.00426
4734.39056,-0.00501
4736.31903,-0.00331
4738.24750,0.00633
4740.17596,0.01175
4742.10443,0.01012
4744.03290,-0.00093
4745.96137,-0.01127
4747.88984,-0.00582
4749.81831,0.00623
4751.74678,0.00831
4753.67524,0.00435
4755.60371,0.00633
4757.53218,0.01425
4759.46065,0.02179
4761.38912,0.02626
4763.31759,0.02335
4765.24606,0.01366
4767.17453,0.00785
4769.10299,0.01192
4771.03146,0.02121
4772.95993,0.02370
4774.88840,0.01393
4776.81687,0.00461
4778.74534,0.00052
4780.67381,-0.00283
4782.60227,0.00419
4784.53074,0.01789
4786.45921,0.01837
4788.38768,0.00430
4790.31615,-0.00662
4792.24462,-0.00223
4794.17309,0.00801
4796.10156,0.01382
4798.03002,0.01513
4799.95849,0.01114
4801.88696,0.01085
4803.81543,0.02518
4805.74390,0.03599
4807.67237,0.02225
4809.60084,0.00237
4811.52930,-0.00488
4813.45777,-0.00372
4815.38624,-0.00007
4817.31471,-0.00006
4819.24318,-0.00233
4821.17165,-0.00303
4823.10012,-0.00019
4825.02859,0.00697
4826.95705,0.01266
4828.88552,0.01451
4830.81399,0.01032
4832.74246,0.00502
4834.67093,0.00765
4836.59940,0.01354
4838.52787,0.01572
4840.45633,0.01745
4842.38480,0.02880
4844.31327,0.04107
4846.24174,0.03767
4848.17021,0.02404
4850.09868,0.01557
4852.02715,0.01489
4853.95562,0.00659
4855.88408,-0.00339
4857.81255,0.00197
4859.74102,0.00874
4861.66949,0.00429
4863.59796,0.00045
4865.52643,0.00519
4867.45490,0.01410
4869.38336,0.02266
4871.31183,0.02378
4873.24030,0.00823
4875.16877,-0.01786
4877.09724,-0.02878
4879.02571,-0.00969
4880.95418,0.01795
4882.88265,0.02620
4884.81111,0.01722
4886.73958,0.00853
4888.66805,0.00820
4890.59652,0.01179
4892.52499,0.00744
4894.45346,-0.00290
4896.38193,0.00128
4898.31039,0.01521
4900.23886,0.01311
4902.16733,0.00184
4904.09580,0.00206
4906.02427,0.00758
4907.95274,0.00610
4909.88121,0.00285
4911.80967,0.00722
4913.73814,0.01603
4915.66661,0.01434
4917.59508,0.00656
4919.52355,0.01326
4921.45202,0.02590
4923.38049,0.02086
4925.30896,0.00120
4927.23742,-0.00860
4929.16589,0.00024
4931.09436,0.00432
4933.02283,-0.00509
4934.95130,-0.00532
4936.87977,0.00004
4938.80824,-0.01021
4940.73670,-0.02086
4942.66517,-0.00817
4944.59364,0.01102
4946.52211,0.01392
4948.45058,0.01554
4950.37905,0.03110
4952.30752,0.04513
4954.23599,0.04223
4956.16445,0.02928
4958.09292,0.01934
4960.02139,0.01493
4961.94986,0.01400
4963.87833,0.01944
4965.80680,0.02584
4967.73527,0.02679
4969.66373,0.02417
4971.59220,0.01597
4973.52067,0.01278
4975.44914,0.02436
4977.37761,0.03726
4979.30608,0.03980
4981.23455,0.03217
4983.16302,0.02047
4985.09148,0.01270
4987.01995,0.01878
4988.94842,0.03089
4990.87689,0.02432
4992.80536,0.00929
4994.73383,0.00917
4996.66230,0.00775
4998.59076,-0.00380
5000.51923,-0.00329
5002.44770,0.00845
5004.37617,0.01251
5006.30464,0.00946
5008.23311,0.00737
5010.16158,0.00240
5012.09005,-0.00844
5014.01851,-0.00883
5015.94698,0.00306
5017.87545,0.00003
5019.80392,-0.01366
5021.73239,-0.01346
5023.66086,-0.00524
5025.58933,0.00491
5027.51779,0.02319
5029.44626,0.04067
5031.37473,0.03837
5033.30320,0.02081
5035.23167,0.01535
5037.16014,0.01880
5039.08861,0.01850
5041.01708,0.02722
5042.94554,0.03595
5044.87401,0.02709
5046.80248,0.01874
5048.73095,0.03035
5050.65942,0.05016
5052.58789,0.05573
5054.51636,0.04315
5056.44482,0.03129
5058.37329,0.03267
5060.30176,0.04420
5062.23023,0.05479
5064.15870,0.04992
5066.08717,0.03909
5068.01564,0.03596
5069.94410,0.03160
5071.87257,0.02294
5073.80104,0.01052
5075.72951,-0.00460
5077.65798,-0.00807
5079.58645,0.00474
5081.51492,0.01436
5083.44339,0.01515
5085.37185,0.01845
5087.30032,0.01919
5089.22879,0.01155
5091.15726,0.00597
5093.08573,0.00846
5095.01420,0.00599
5096.94267,-0.00304
5098.87113,-0.00183
5100.79960,0.00801
5102.72807,0.01671
5104.65654,0.02190
5106.58501,0.02276
5108.51348,0.02208
5110.44195,0.02638
5112.37042,0.03703
5114.29888,0.03986
5116.22735,0.03019
5118.15582,0.02202
5120.08429,0.02762
5122.01276,0.04744
5123.94123,0.05982
5125.86970,0.04716
5127.79816,0.02688
5129.72663,0.02133
5131.65510,0.02667
5133.58357,0.03295
5135.51204,0.03884
5137.44051,0.04090
5139.36898,0.03454
5141.29745,0.01831
5143.22591,0.00093
5145.15438,-0.00339
5147.08285,-0.00271
5149.01132,-0.00370
5150.93979,0.00455
5152.86826,0.01217
5154.79673,0.01279
5156.72519,0.02755
5158.65366,0.04560
5160.58213,0.03903
5162.51060,0.02542
5164.43907,0.02831
5166.36754,0.04392
5168.29601,0.05887
5170.22448,0.05795
5172.15294,0.04452
5174.08141,0.03593
5176.00988,0.02542
5177.93835,0.00007
5179.86682,-0.01911
5181.79529,-0.00476
5183.72376,0.03284
5185.65222,0.06449
5187.58069,0.07972
5189.50916,0.07925
5191.43763,0.05978
5193.36610,0.04119
5195.29457,0.04564
5197.22304,0.06245
5199.15151,0.06542
5201.07997,0.05148
5203.00844,0.04436
5204.93691,0.04925
5206.86538,0.05003
5208.79385,0.04107
5210.72232,0.03400
5212.65079,0.03364
5214.57925,0.03153
5216.50772,0.03653
5218.43619,0.05875
5220.36466,0.07570
5222.29313,0.07703
5224.22160,0.07010
5226.15007,0.05098
5228.07854,0.02968
5230.00700,0.02050
5231.93547,0.02202
5233.86394,0.03118
5235.79241,0.04645
5237.72088,0.05850
5239.64935,0.06245
5241.57782,0.06764
5243.50628,0.06115
5245.43475,0.03058
5247.36322,0.01873
5249.29169,0.05759
5251.22016,0.09770
5253.14863,0.09758
5255.07710,0.07706
5257.00556,0.05121
5258.93403,0.03340
5260.86250,0.04308
5262.79097,0.06492
5264.71944,0.06955
5266.64791,0.05028
5268.57638,0.02775
5270.50485,0.01658
5272.43331,0.00835
5274.36178,0.00792
5276.29025,0.02890
5278.21872,0.06004
5280.14719,0.07520
5282.07566,0.06645
5284.00413,0.05457
5285.93259,0.05806
5287.86106,0.06594
5289.78953,0.06667
5291.71800,0.07476
5293.64647,0.09240
5295.57494,0.10351
5297.50341,0.10494
5299.43188,0.08238
5301.36034,0.04061
5303.28881,0.02871
5305.21728,0.04705
5307.14575,0.06057
5309.07422,0.06322
5311.00269,0.05266
5312.93116,0.03154
5314.85962,0.01824
5316.78809,0.02036
5318.71656,0.02865
5320.64503,0.04460
5322.57350,0.06385
5324.50197,0.07011
5326.43044,0.07258
5328.35891,0.08703
5330.28737,0.09504
5332.21584,0.07852
5334.14431,0.05220
5336.07278,0.02919
5338.00125,0.02201
5339.92972,0.04693
5341.85819,0.07374
5343.78665,0.07818
5345.71512,0.07644
5347.64359,0.07782
5349.57206,0.06542
5351.50053,0.05342
5353.42900,0.06809
5355.35747,0.08404
5357.28594,0.08680
5359.21440,0.10394
5361.14287,0.12350
5363.07134,0.10595
5364.99981,0.07366
5366.92828,0.06261
5368.85675,0.05924
5370.78522,0.07095
5372.71368,0.10818
5374.64215,0.12868
5376.57062,0.09836
5378.49909,0.06601
5380.42756,0.05920
5382.35603,0.05035
5384.28450,0.04286
5386.21297,0.05300
5388.14143,0.05932
5390.06990,0.05588
5391.99837,0.05568
5393.92684,0.05937
5395.85531,0.07897
5397.78378,0.09942
5399.71225,0.07903
5401.64071,0.03985
5403.56918,0.03287
5405.49765,0.04769
5407.42612,0.04623
5409.35459,0.03980
5411.28306,0.05602
5413.21153,0.08294
5415.13999,0.08811
5417.06846,0.06617
5418.99693,0.05054
5420.92540,0.06080
5422.85387,0.07826
5424.78234,0.08871
5426.71081,0.09954
5428.63928,0.11352
5430.56774,0.10799
5432.49621,0.08630
5434.42468,0.05999
5436.35315,0.02802
5438.28162,0.01877
5440.21009,0.03945
5442.13856,0.06957
5444.06702,0.10130
5445.99549,0.12187
5447.92396,0.11487
5449.85243,0.09095
5451.78090,0.06720
5453.70937,0.05772
5455.63784,0.08472
5457.56631,0.13240
5459.49477,0.13402
5461.42324,0.08187
5463.35171,0.04001
5465.28018,0.03770
5467.20865,0.04806
5469.13712,0.05326
5471.06559,0.04515
5472.99405,0.02975
5474.92252,0.04454
5476.85099,0.08972
5478.77946,0.10948
5480.70793,0.08250
5482.63640,0.03602
5484.56487,0.02330
5486.49334,0.05387
5488.42180,0.09071
5490.35027,0.11716
5492.27874,0.12177
5494.20721,0.10969
5496.13568,0.12071
5498.06415,0.12733
5499.99262,0.08519
5501.92108,0.04489
5503.84955,0.04814
5505.77802,0.06209
5507.70649,0.05920
5509.63496,0.04797
5511.56343,0.04750
5513.49190,0.06250
5515.42037,0.08560
5517.34883,0.10540
5519.27730,0.10750
5521.20577,0.07878
5523.13424,0.03609
5525.06271,0.02934
5526.99118,0.05605
5528.91965,0.07356
5530.84811,0.07972
5532.77658,0.07989
5534.70505,0.06883
5536.63352,0.05369
5538.56199,0.04408
5540.49046,0.04969
5542.41893,0.06754
5544.34740,0.08515
5546.27586,0.09662
5548.20433,0.10222
5550.13280,0.11219
5552.06127,0.12436
5553.98974,0.13400
5555.91821,0.13001
5557.84668,0.09149
5559.77514,0.05263
5561.70361,0.05388
5563.63208,0.06807
5565.56055,0.06327
5567.48902,0.06210
5569.41749,0.07725
5571.34596,0.08081
5573.27443,0.08048
5575.20289,0.09701
5577.13136,0.10337
5579.05983,0.08393
5580.98830,0.06027
5582.91677,0.04821
5584.84524,0.04907
5586.77371,0.06229
5588.70217,0.07111
5590.63064,0.06544
5592.55911,0.05876
5594.48758,0.05848
5596.41605,0.06761
5598.34452,0.08682
5600.27299,0.10435
5602.20145,0.11026
5604.12992,0.11159
5606.05839,0.11259
5607.98686,0.10770
5609.91533,0.10422
5611.84380,0.09911
5613.77227,0.07230
5615.70074,0.04545
5617.62920,0.04791
5619.55767,0.05979
5621.48614,0.06758
5623.41461,0.08021
5625.34308,0.08457
5627.27155,0.06920
5629.20002,0.04888
5631.12848,0.04763
5633.05695,0.07613
5634.98542,0.10712
5636.91389,0.10819
5638.84236,0.09108
5640.77083,0.06946
5642.69930,0.04730
5644.62777,0.03949
5646.55623,0.04631
5648.48470,0.06227
5650.41317,0.08601
5652.34164,0.09454
5654.27011,0.07935
5656.19858,0.05900
5658.12705,0.04342
5660.05551,0.04278
5661.98398,0.05327
5663.91245,0.06746
5665.84092,0.09781
5667.76939,0.12256
5669.69786,0.11300
5671.62633,0.09072
5673.55480,0.08602
5675.48326,0.08915
5677.41173,0.08196
5679.34020,0.07698
5681.26867,0.08427
5683.19714,0.10217
5685.12561,0.12082
5687.05408,0.12726
5688.98254,0.12282
5690.91101,0.10988
5692.83948,0.08898
5694.76795,0.06033
5696.69642,0.03799
5698.62489,0.04836
5700.55336,0.08256
5702.48183,0.11332
5704.41029,0.12959
5706.33876,0.11952
5708.26723,0.08763
5710.19570,0.05855
5712.12417,0.04632
5714.05264,0.06398
5715.98111,0.09491
5717.90957,0.09257
5719.83804,0.06141
5721.76651,0.04909
5723.69498,0.06618
5725.62345,0.08098
5727.55192,0.08783
5729.48039,0.10546
5731.40886,0.11764
5733.33732,0.11268
5735.26579,0.11149
5737.19426,0.11442
5739.12273,0.10772
5741.05120,0.09597
5742.97967,0.07942
5744.90814,0.07165
5746.83660,0.08461
5748.76507,0.08441
5750.69354,0.05553
5752.62201,0.04392
5754.55048,0.05490
5756.47895,0.05641
5758.40742,0.05617
5760.33588,0.07649
5762.26435,0.11663
5764.19282,0.12404
5766.12129,0.07796
5768.04976,0.04178
5769.97823,0.03822
5771.90670,0.05277
5773.83517,0.08271
5775.76363,0.11685
5777.69210,0.13898
5779.62057,0.12744
5781.54904,0.09205
5783.47751,0.07285
5785.40598,0.08063
5787.33445,0.08783
5789.26291,0.05861
5791.19138,0.01926
5793.11985,0.03231
5795.04832,0.08886
5796.97679,0.14536
5798.90526,0.18101
5800.83373,0.16984
5802.76220,0.09491
5804.69066,0.01030
5806.61913,-0.00784
5808.54760,0.03333
5810.47607,0.08848
5812.40454,0.11726
5814.33301,0.09473
5816.26148,0.06802
5818.18994,0.09861
5820.11841,0.15283
5822.04688,0.15765
5823.97535,0.12080
5825.90382,0.08731
5827.83229,0.08381
5829.76076,0.11216
5831.68923,0.11993
5833.61769,0.07487
5835.54616,0.04346
5837.47463,0.05788
5839.40310,0.06882
5841.33157,0.08094
5843.26004,0.09875
5845.18851,0.08666
5847.11697,0.06497
5849.04544,0.06172
5850.97391,0.07588
5852.90238,0.11362
5854.83085,0.15291
5856.75932,0.15120
5858.68779,0.12367
5860.61626,0.10459
5862.54472,0.10200
5864.47319,0.11484
5866.40166,0.11937
5868.33013,0.11706
5870.25860,0.12175
5872.18707,0.11592
5874.11554,0.09173
5876.04400,0.04781
5877.97247,0.00910
5879.90094,0.02476
5881.82941,0.07623
5883.75788,0.09379
5885.68635,0.07960
5887.61482,0.08162
5889.54329,0.09802
5891.47175,0.11227
5893.40022,0.11928
5895.32869,0.10226
5897.25716,0.06388
5899.18563,0.04262
5901.11410,0.04409
5903.04257,0.04730
5904.97103,0.06191
5906.89950,0.08553
5908.82797,0.09874
5910.75644,0.08442
5912.68491,0.05960
5914.61338,0.07165
5916.54185,0.11511
5918.47032,0.14340
5920.39878,0.13517
5922.32725,0.12558
5924.25572,0.12722
5926.18419,0.10733
5928.11266,0.08106
5930.04113,0.07499
5931.96960,0.07234
5933.89806,0.06052
5935.82653,0.05381
5937.75500,0.04978
5939.68347,0.06081
5941.61194,0.10420
5943.54041,0.11501
5945.46888,0.06374
5947.39734,0.02394
5949.32581,0.04600
5951.25428,0.10012
5953.18275,0.13100
5955.11122,0.12800
5957.03969,0.11155
5958.96816,0.10672
5960.89663,0.11891
5962.82509,0.11637
5964.75356,0.09548
5966.68203,0.10195
5968.61050,0.13873
5970.53897,0.15307
5972.46744,0.15102
5974.39591,0.16123
5976.32437,0.15045
5978.25284,0.10983
5980.18131,0.06676
5982.10978,0.04429
5984.03825,0.06468
5985.96672,0.09334
5987.89519,0.08859
5989.82366,0.07713
5991.75212,0.08945
5993.68059,0.12676
5995.60906,0.17524
5997.53753,0.20332
5999.46600,0.17443
6001.39447,0.11272
6003.32294,0.07064
6005.25140,0.05224
6007.17987,0.03334
6009.10834,0.00683
6011.03681,0.01473
6012.96528,0.05479
6014.89375,0.07866
6016.82222,0.09860
6018.75069,0.12438
6020.67915,0.13234
6022.60762,0.11290
6024.53609,0.08024
6026.46456,0.06186
6028.39303,0.07358
6030.32150,0.10805
6032.24997,0.12662
6034.17843,0.11847
6036.10690,0.08817
6038.03537,0.03448
6039.96384,0.01851
6041.89231,0.05788
6043.82078,0.07743
6045.74925,0.05056
6047.67772,0.02665
6049.60618,0.02851
6051.53465,0.04648
6053.46312,0.10685
6055.39159,0.17575
6057.32006,0.17315
6059.24853,0.15429
6061.17700,0.14630
6063.10546,0.11288
6065.03393,0.10389
6066.96240,0.10381
6068.89087,0.06824
6070.81934,0.05445
6072.74781,0.08231
6074.67628,0.09465
6076.60475,0.06933
6078.53321,0.04317
6080.46168,0.05986
6082.39015,0.09193
6084.31862,0.08153
6086.24709,0.04456
6088.17556,0.02247
6090.10403,0.01847
6092.03249,0.03064
6093.96096,0.06165
6095.88943,0.10381
6097.81790,0.12814
6099.74637,0.11407
6101.67484,0.08497
6103.60331,0.07805
6105.53177,0.08797
6107.46024,0.09876
6109.38871,0.10956
6111.31718,0.09861
6113.24565,0.08514
6115.17412,0.11340
6117.10259,0.14856
6119.03106,0.13846
6120.95952,0.08915
6122.88799,0.05023
6124.81646,0.06190
6126.74493,0.08476
6128.67340,0.07700
6130.60187,0.08583
6132.53034,0.10915
6134.45880,0.09000
6136.38727,0.05805
6138.31574,0.08230
6140.24421,0.10976
6142.17268,0.06182
6144.10115,0.02698
6146.02962,0.06090
6147.95809,0.08603
6149.88655,0.08769
6151.81502,0.09544
6153.74349,0.09664
6155.67196,0.10856
6157.60043,0.12371
6159.52890,0.07583
6161.45737,0.02411
6163.38583,0.05779
6165.31430,0.11415
6167.24277,0.12468
6169.17124,0.08915
6171.09971,0.05747
6173.02818,0.07842
6174.95665,0.10825
6176.88512,0.12418
6178.81358,0.14479
6180.74205,0.12649
6182.67052,0.07789
6184.59899,0.08425
6186.52746,0.11785
6188.45593,0.09078
6190.38440,0.05290
6192.31286,0.03685
6194.24133,-0.01677
6196.16980,-0.05953
6198.09827,-0.03876
6200.02674,-0.02489
6201.95521,-0.02911
6203.88368,0.01320
6205.81215,0.09530
6207.74061,0.15740
6209.66908,0.14021
6211.59755,0.07436
6213.52602,0.08845
6215.45449,0.13059
6217.38296,0.09485
6219.31143,0.04306
6221.23989,0.04308
6223.16836,0.11010
6225.09683,0.19077
6227.02530,0.16106
6228.95377,0.06066
6230.88224,0.03713
6232.81071,0.07218
6234.73918,0.06449
6236.66764,0.03440
6238.59611,0.02612
6240.52458,0.04589
6242.45305,0.06204
6244.38152,0.04053
6246.30999,0.02646
6248.23846,0.04399
6250.16692,0.06128
6252.09539,0.08390
6254.02386,0.09545
6255.95233,0.06808
6257.88080,0.03540
6259.80927,0.02263
6261.73774,0.01592
6263.66621,0.00369
6265.59467,0.02388
6267.52314,0.10109
6269.45161,0.11484
6271.38008,0.01581
6273.30855,-0.04672
6275.23702,0.04173
6277.16549,0.13556
6279.09395,0.09882
6281.02242,0.02760
6282.95089,-0.00210
6284.87936,-0.01005
6286.80783,0.01260
6288.73630,0.06151
6290.66477,0.11238
6292.59323,0.14743
6294.52170,0.14320
6296.45017,0.11091
6298.37864,0.07327
6300.30711,0.03703
6302.23558,0.04630
6304.16405,0.11521
6306.09252,0.18198
6308.02098,0.19434
6309.94945,0.13178
6311.87792,0.05646
6313.80639,0.05292
6315.73486,0.07260
6317.66333,0.04333
6319.59180,0.00884
6321.52026,0.04317
6323.44873,0.11756
6325.37720,0.15640
6327.30567,0.16078
6329.23414,0.14205
6331.16261,0.09172
6333.09108,0.02502
6335.01955,-0.01393
6336.94801,0.03449
6338.87648,0.14072
6340.80495,0.19056
6342.73342,0.14538
6344.66189,0.08645
6346.59036,0.10407
6348.51883,0.16745
6350.44729,0.20235
6352.37576,0.18168
6354.30423,0.11361
6356.23270,0.05305
6358.16117,0.06070
6360.08964,0.10297
6362.01811,0.07099
6363.94658,-0.00295
6365.87504,0.02321
6367.80351,0.09977
6369.73198,0.09364
6371.66045,0.07643
6373.58892,0.10368
6375.51739,0.09239
6377.44586,0.04719
6379.37432,0.02911
6381.30279,0.04340
6383.23126,0.07473
6385.15973,0.09238
6387.08820,0.10576
6389.01667,0.15700
6390.94514,0.21716
6392.87361,0.21894
6394.80207,0.15305
6396.73054,0.08942
6398.65901,0.09065
6400.58748,0.14595
6402.51595,0.18235
6404.44442,0.16377
6406.37289,0.14530
6408.30135,0.16880
6410.22982,0.16215
6412.15829,0.11736
6414.08676,0.12423
6416.01523,0.15651
6417.94370,0.14820
6419.87217,0.11819
6421.80064,0.07923
6423.72910,0.03045
6425.65757,0.02344
6427.58604,0.07516
6429.51451,0.14154
6431.44298,0.16123
6433.37145,0.09981
6435.29992,0.03361
6437.22838,0.01618
6439.15685,0.02269
6441.08532,0.03402
6443.01379,0.03111
6444.94226,0.05038
6446.87073,0.09552
6448.79920,0.10181
6450.72766,0.12826
6452.65613,0.19075
6454.58460,0.17744
6456.51307,0.09848
6458.44154,0.04944
6460.37001,0.02606
6462.29848,-0.00678
6464.22695,-0.00356
6466.15541,0.04858
6468.08388,0.06352
6470.01235,0.01820
6471.94082,0.00560
6473.86929,0.02425
6475.79776,0.02783
6477.72623,0.02721
6479.65469,0.00800
6481.58316,0.00627
6483.51163,0.03225
6485.44010,0.01973
6487.36857,-0.00524
6489.29704,0.01290
6491.22551,0.05237
6493.15398,0.07072
6495.08244,0.06859
6497.01091,0.05656
6498.93938,0.06144
6500.86785,0.08914
6502.79632,0.08243
6504.72479,0.07426
6506.65326,0.12351
6508.58172,0.18127
6510.51019,0.19646
6512.43866,0.17800
6514.36713,0.16474
6516.29560,0.18058
6518.22407,0.17733
6520.15254,0.11925
6522.08101,0.07225
6524.00947,0.04130
6525.93794,-0.03847
6527.86641,-0.08327
6529.79488,-0.03812
6531.72335,0.01635
6533.65182,0.03661
6535.58029,0.03263
6537.50875,0.05565
6539.43722,0.11990
6541.36569,0.11979
6543.29416,0.03933
6545.22263,0.00807
6547.15110,0.05758
6549.07957,0.12018
6551.00804,0.13594
6552.93650,0.11997
6554.86497,0.11047
6556.79344,0.09092
6558.72191,0.07742
6560.65038,0.09195
6562.57885,0.09734
6564.50732,0.05255
6566.43578,-0.00402
6568.36425,-0.01671
6570.29272,-0.01949
6572.22119,-0.01636
6574.14966,-0.01311
6576.07813,-0.04200
6578.00660,-0.05626
6579.93507,-0.01741
6581.86353,0.05583
6583.79200,0.11254
6585.72047,0.10069
6587.64894,0.04207
6589.57741,-0.01740
6591.50588,-0.01536
6593.43435,0.07842
6595.36281,0.13428
6597.29128,0.07712
6599.21975,-0.00590
6601.14822,-0.07831
6603.07669,-0.10941
6605.00516,-0.09110
6606.93363,-0.06419
6608.86210,-0.01769
6610.79056,0.06156
6612.71903,0.13208
6614.64750,0.14937
6616.57597,0.13954
6618.50444,0.16969
6620.43291,0.24066
6622.36138,0.28206
6624.28984,0.22156
6626.21831,0.07676
6628.14678,-0.06956
6630.07525,-0.12564
6632.00372,-0.07540
6633.93219,0.01343
6635.86066,0.05409
6637.78912,0.03390
6639.71759,0.06405
6641.64606,0.13952
6643.57453,0.14628
6645.50300,0.07677
6647.43147,0.03736
6649.35994,0.00365
6651.28841,-0.07903
6653.21687,-0.09669
6655.14534,-0.01810
6657.07381,0.01340
6659.00228,-0.01879
6660.93075,0.02304
6662.85922,0.15628
6664.78769,0.27576
6666.71615,0.28935
6668.64462,0.22573
6670.57309,0.19875
6672.50156,0.20608
6674.43003,0.18233
6676.35850,0.13029
6678.28697,0.09036
6680.21544,0.06335
6682.14390,-0.01722
6684.07237,-0.11202
6686.00084,-0.11526
6687.92931,-0.05102
6689.85778,0.00414
6691.78625,0.02836
6693.71472,0.01212
6695.64318,-0.03264
6697.57165,-0.00367
6699.50012,0.08831
6701.42859,0.05895
6703.35706,-0.03447
6705.28553,0.01423
6707.21400,0.12563
6709.14247,0.14968
6711.07093,0.09632
6712.99940,0.03125
6714.92787,0.01692
6716.85634,0.00892
6718.78481,-0.05500
6720.71328,-0.09664
6722.64175,-0.05456
6724.57021,0.04068
6726.49868,0.15264
6728.42715,0.21726
6730.35562,0.20268
6732.28409,0.16030
6734.21256,0.10928
6736.14103,0.07898
6738.06950,0.08734
6739.99796,0.09072
6741.92643,0.11574
6743.85490,0.14781
6745.78337,0.08896
6747.71184,-0.02825
6749.64031,-0.04805
6751.56878,0.04202
6753.49724,0.13270
6755.42571,0.22795
6757.35418,0.31572
6759.28265,0.30138
6761.21112,0.18081
6763.13959,0.05491
6765.06806,0.01062
6766.99653,0.07095
6768.92499,0.14477
6770.85346,0.16517
6772.78193,0.13939
6774.71040,0.09884
6776.63887,0.06081
6778.56734,-0.01805
6780.49581,-0.09806
6782.42427,-0.05698
6784.35274,0.08138
6786.28121,0.15550
6788.20968,0.11598
6790.13815,0.05958
6792.06662,0.03183
6793.99509,0.01821
6795.92355,0.01312
6797.85202,0.02094
6799.78049,0.08381
6801.70896,0.17660
6803.63743,0.19707
6805.56590,0.13850
6807.49437,0.08561
6809.42284,0.07562
6811.35130,0.09948
6813.27977,0.14040
6815.20824,0.12540
6817.13671,0.02502
6819.06518,-0.04570
6820.99365,-0.01599
6822.92212,0.08586
6824.85058,0.12535
6826.77905,0.06445
6828.70752,0.01601
6830.63599,0.04779
6832.56446,0.12039
6834.49293,0.15990
6836.42140,0.10376
6838.34987,-0.00579
6840.27833,-0.07953
6842.20680,-0.07608
6844.13527,-0.04853
6846.06374,-0.04028
6847.99221,0.01571
6849.92068,0.09888
6851.84915,0.12235
6853.77761,0.09851
6855.70608,0.03745
6857.63455,-0.03368
6859.56302,-0.07341
6861.49149,-0.10677
6863.41996,-0.18120
6865.34843,-0.20780
6867.27690,-0.09562
6869.20536,0.02678
6871.13383,0.06805
6873.06230,0.08450
6874.99077,0.07626
6876.91924,0.03685
6878.84771,0.02323
6880.77618,0.05530
6882.70464,0.10288
6884.63311,0.09182
6886.56158,0.00200
6888.49005,-0.05363
6890.41852,-0.01228
6892.34699,0.05389
6894.27546,0.04499
6896.20393,-0.01200
6898.13239,-0.04235
6900.06086,-0.07017
6901.98933,-0.08880
6903.91780,-0.03264
6905.84627,0.07816
6907.77474,0.13784
6909.70321,0.15880
6911.63167,0.21697
6913.56014,0.23829
6915.48861,0.15113
6917.41708,0.02859
6919.34555,-0.04006
6921.27402,0.01064
6923.20249,0.10499
6925.13096,0.13763
6927.05942,0.14632
6928.98789,0.18943
6930.91636,0.19924
6932.84483,0.12370
6934.77330,0.10709
6936.70177,0.17133
6938.63024,0.18623
6940.55870,0.16042
6942.48717,0.16803
6944.41564,0.11907
6946.34411,0.00809
6948.27258,-0.07407
6950.20105,-0.10825
6952.12952,-0.13215
6954.05799,-0.15337
6955.98645,-0.08305
6957.91492,0.05922
6959.84339,0.14484
6961.77186,0.13459
6963.70033,0.07430
6965.62880,0.08021
6967.55727,0.16563
6969.48573,0.17837
6971.41420,0.09243
6973.34267,0.04117
6975.27114,0.03177
6977.19961,-0.01187
6979.12808,-0.04505
6981.05655,-0.01019
6982.98501,0.04570
6984.91348,0.03623
6986.84195,-0.02864
6988.77042,-0.01990
6990.69889,0.07839
6992.62736,0.12265
6994.55583,0.08678
6996.48430,0.03871
6998.41276,0.04107
7000.34123,0.13041
7002.26970,0.24216
7004.19817,0.27352
7006.12664,0.26722
7008.05511,0.32181
7009.98358,0.35259
7011.91204,0.33016
7013.84051,0.33853
7015.76898,0.32418
7017.69745,0.21900
7019.62592,0.09571
7021.55439,-0.01713
7023.48286,-0.15656
7025.41133,-0.16764
7027.33979,0.01584
7029.26826,0.13192
7031.19673,0.05070
7033.12520,-0.02236
7035.05367,0.03918
7036.98214,0.07569
7038.91061,-0.00517
7040.83907,-0.06048
7042.76754,-0.03665
7044.69601,0.00553
7046.62448,0.08490
7048.55295,0.10307
7050.48142,0.00214
7052.40989,-0.06441
7054.33836,-0.07455
7056.26682,-0.08840
7058.19529,-0.02425
7060.12376,0.09149
7062.05223,0.13726
7063.98070,0.09016
7065.90917,0.03253
7067.83764,0.02399
7069.76610,-0.04614
7071.69457,-0.18779
7073.62304,-0.18424
7075.55151,-0.08492
7077.47998,0.00755
7079.40845,0.10333
7081.33692,0.12300
7083.26539,0.10666
7085.19385,0.18287
7087.12232,0.26943
7089.05079,0.27128
7090.97926,0.21188
7092.90773,0.15932
7094.83620,0.15161
7096.76467,0.13617
7098.69313,0.11995
7100.62160,0.13183
7102.55007,0.17900
7104.47854,0.30166
7106.40701,0.35591
7108.33548,0.22076
7110.26395,0.08357
7112.19242,0.05341
7114.12088,0.08079
7116.04935,0.13640
7117.97782,0.20643
7119.90629,0.25501
7121.83476,0.25063
7123.76323,0.17308
7125.69170,0.08973
7127.62016,0.03198
7129.54863,-0.02866
7131.47710,-0.06535
7133.40557,-0.04876
7135.33404,-0.02734
7137.26251,-0.07631
7139.19098,-0.13819
7141.11944,-0.05160
7143.04791,0.16636
7144.97638,0.27129
7146.90485,0.12903
7148.83332,0.00061
7150.76179,0.06346
7152.69026,0.21755
7154.61873,0.24966
7156.54719,0.14354
7158.47566,0.08702
7160.40413,0.09622
7162.33260,0.06937
7164.26107,0.05988
7166.18954,0.07563
7168.11801,-0.00307
7170.04647,-0.05222
7171.97494,0.04666
7173.90341,0.08859
7175.83188,-0.00547
7177.76035,-0.02564
7179.68882,0.11194
7181.61729,0.25627
7183.54576,0.26697
7185.47422,0.20635
7187.40269,0.20591
7189.33116,0.22056
7191.25963,0.21859
7193.18810,0.19886
7195.11657,0.09686
7197.04504,-0.01373
7198.97350,-0.00092
7200.90197,0.09406
7202.83044,0.14329
7204.75891,0.09010
7206.68738,0.06407
7208.61585,0.11515
7210.54432,0.17498
7212.47279,0.23157
7214.40125,0.25801
7216.32972,0.20307
7218.25819,0.08025
7220.18666,0.00562
7222.11513,0.01371
7224.04360,0.01506
7225.97207,0.00053
7227.90053,0.10088
7229.82900,0.24611
7231.75747,0.15539
7233.68594,-0.06377
7235.61441,-0.09970
7237.54288,-0.04557
7239.47135,-0.03009
7241.39982,0.05790
7243.32828,0.12482
7245.25675,0.02764
7247.18522,0.02325
7249.11369,0.18671
7251.04216,0.36027
7252.97063,0.41973
7254.89910,0.34242
7256.82756,0.28971
7258.75603,0.33033
7260.68450,0.28915
7262.61297,0.07646
7264.54144,-0.03479
7266.46991,0.03868
7268.39838,0.11496
7270.32685,0.15079
7272.25531,0.24210
7274.18378,0.17543
7276.11225,-0.06712
7278.04072,-0.19428
7279.96919,-0.15920
7281.89766,-0.09154
7283.82613,0.00244
7285.75459,0.10935
7287.68306,0.13159
7289.61153,0.09672
7291.54000,0.12302
7293.46847,0.21094
7295.39694,0.33989
7297.32541,0.40781
7299.25387,0.30690
7301.18234,0.17362
7303.11081,0.12199
7305.03928,0.07888
7306.96775,-0.03088
7308.89622,-0.16626
7310.82469,-0.19189
7312.75316,-0.11643
7314.68162,-0.02538
7316.61009,0.06484
7318.53856,0.12840
7320.46703,0.15762
7322.39550,0.13465
7324.32397,0.02421
7326.25244,-0.05115
7328.18090,0.09298
7330.10937,0.28771
7332.03784,0.21277
7333.96631,0.11205
7335.89478,0.14292
7337.82325,0.17705
7339.75172,0.12754
7341.68019,0.06007
7343.60865,0.05410
7345.53712,0.08735
7347.46559,0.12519
7349.39406,0.16465
7351.32253,0.19756
7353.25100,0.21624
7355.17947,0.18622
7357.10793,0.08900
7359.03640,0.09857
7360.96487,0.20013
7362.89334,0.18772
7364.82181,0.12719
7366.75028,0.08550
7368.67875,0.06346
7370.60722,0.07440
7372.53568,0.10676
7374.46415,0.15147
7376.39262,0.18514
7378.32109,0.24109
7380.24956,0.32300
7382.17803,0.34347
7384.10650,0.29621
7386.03496,0.18512
7387.96343,0.08882
7389.89190,0.20252
7391.82037,0.44567
7393.74884,0.52648
7395.67731,0.32280
7397.60578,0.14055
7399.53425,0.15055
7401.46271,0.18306
7403.39118,0.18729
7405.31965,0.17786
7407.24812,0.11755
7409.17659,0.08370
7411.10506,0.08108
7413.03353,0.10239
7414.96199,0.10611
7416.89046,-0.00185
7418.81893,-0.11787
7420.74740,-0.03346
7422.67587,0.06005
7424.60434,0.01257
7426.53281,-0.03352
7428.46128,0.07674
7430.38974,0.26386
7432.31821,0.27689
7434.24668,0.15286
7436.17515,0.02589
7438.10362,-0.06497
7440.03209,-0.12491
7441.96056,-0.17054
7443.88902,-0.23635
7445.81749,-0.16106
7447.74596,0.02921
7449.67443,0.18931
7451.60290,0.33984
7453.53137,0.40119
7455.45984,0.34649
7457.38831,0.25489
7459.31677,0.06299
7461.24524,-0.04579
7463.17371,0.14584
7465.10218,0.36773
7467.03065,0.38548
7468.95912,0.26844
7470.88759,0.15875
7472.81605,0.17075
7474.74452,0.30916
7476.67299,0.47579
7478.60146,0.46620
7480.52993,0.27388
7482.45840,0.12761
7484.38687,0.01632
7486.31533,-0.07462
7488.24380,-0.07141
7490.17227,-0.02104
7492.10074,-0.03033
7494.02921,-0.07780
7495.95768,-0.03032
7497.88615,0.19407
