399.19301,0.45335
401.12148,0.86275
403.04995,0.45604
404.97842,0.09628
406.90689,-0.02497
408.83536,-0.02469
410.76382,-0.01167
412.69229,-0.01617
414.62076,-0.05206
416.54923,-0.11309
418.47770,-0.09897
420.40617,0.08699
422.33464,0.24672
424.26311,0.27666
426.19157,0.22615
428.12004,0.19878
430.04851,0.19659
431.97698,0.11594
433.90545,-0.01790
435.83392,-0.06107
437.76239,-0.04883
439.69085,-0.05305
441.61932,-0.00870
443.54779,0.08468
445.47626,0.08779
447.40473,0.06624
449.33320,0.14076
451.26167,0.22341
453.19013,0.23394
455.11860,0.21244
457.04707,0.18506
458.97554,0.11538
460.90401,0.02794
462.83248,-0.00312
464.76095,0.02917
466.68942,0.04718
468.61788,0.02959
470.54635,0.02631
472.47482,0.05586
474.40329,0.13016
476.33176,0.16420
478.26023,0.12479
480.18870,0.08893
482.11716,0.09096
484.04563,0.08673
485.97410,0.06699
487.90257,0.07770
489.83104,0.09212
491.75951,0.09124
493.68798,0.10092
495.61645,0.10948
497.54491,0.09547
499.47338,0.06979
501.40185,0.05746
503.33032,0.07393
505.25879,0.11000
507.18726,0.12464
509.11573,0.11062
511.04419,0.11714
512.97266,0.12729
514.90113,0.11890
516.82960,0.12455
518.75807,0.13377
520.68654,0.12804
522.61501,0.11870
524.54348,0.08754
526.47194,0.04675
528.40041,0.05390
530.32888,0.08951
532.25735,0.09708
534.18582,0.09592
536.11429,0.11893
538.04276,0.11884
539.97122,0.07745
541.89969,0.06156
543.82816,0.09179
545.75663,0.12503
547.68510,0.15133
549.61357,0.18237
551.54204,0.23421
553.47051,0.25735
555.39897,0.19022
557.32744,0.11532
559.25591,0.10757
561.18438,0.12148
563.11285,0.12750
565.04132,0.12540
566.96979,0.12048
568.89825,0.13007
570.82672,0.13969
572.75519,0.11945
574.68366,0.08758
576.61213,0.07994
578.54060,0.08907
580.46907,0.10728
582.39754,0.13029
584.32600,0.13347
586.25447,0.11401
588.18294,0.10584
590.11141,0.12185
592.03988,0.11301
593.96835,0.07237
595.89682,0.07280
597.82528,0.11711
599.75375,0.14440
601.68222,0.13439
603.61069,0.11363
605.53916,0.10962
607.46763,0.11403
609.39610,0.10103
611.32456,0.07991
613.25303,0.08654
615.18150,0.11591
617.10997,0.13196
619.03844,0.13649
620.96691,0.14142
622.89538,0.13303
624.82385,0.11843
626.75231,0.11150
628.68078,0.10236
630.60925,0.09532
632.53772,0.09764
634.46619,0.09842
636.39466,0.10048
638.32313,0.10731
640.25159,0.10927
642.18006,0.10454
644.10853,0.10694
646.03700,0.12079
647.96547,0.12318
649.89394,0.11256
651.82241,0.11777
653.75088,0.13410
655.67934,0.14132
657.60781,0.13679
659.53628,0.12736
661.46475,0.13005
663.39322,0.15428
665.32169,0.17947
667.25016,0.17469
669.17862,0.14726
671.10709,0.14285
673.03556,0.13469
674.96403,0.11400
676.89250,0.10965
678.82097,0.13085
680.74944,0.14904
682.67791,0.15349
684.60637,0.15902
686.53484,0.16252
688.46331,0.15696
690.39178,0.14703
692.32025,0.13475
694.24872,0.13044
696.17719,0.13982
698.10565,0.15274
700.03412,0.15758
701.96259,0.15265
703.89106,0.15146
705.81953,0.15224
707.74800,0.14289
709.67647,0.13374
711.60494,0.13096
713.53340,0.12683
715.46187,0.12478
717.39034,0.13797
719.31881,0.15640
721.24728,0.15606
723.17575,0.14366
725.10422,0.13411
727.03268,0.12816
728.96115,0.12943
730.88962,0.13458
732.81809,0.13709
734.74656,0.13912
736.67503,0.13591
738.60350,0.12541
740.53197,0.12305
742.46043,0.13809
744.38890,0.15420
746.31737,0.14976
748.24584,0.13288
750.17431,0.12284
752.10278,0.12014
754.03125,0.12446
755.95971,0.13054
757.88818,0.12952
759.81665,0.12991
761.74512,0.13245
763.67359,0.13354
765.60206,0.13699
767.53053,0.13847
769.45900,0.13777
771.38746,0.13679
773.31593,0.13406
775.24440,0.13308
777.17287,0.13140
779.10134,0.12720
781.02981,0.12979
782.95828,0.13747
784.88674,0.13977
786.81521,0.13854
788.74368,0.13496
790.67215,0.12592
792.60062,0.12092
794.52909,0.12921
796.45756,0.13945
798.38602,0.14125
800.31449,0.13782
802.24296,0.13820
804.17143,0.14906
806.09990,0.15753
808.02837,0.15252
809.95684,0.14364
811.88531,0.13846
813.81377,0.13363
815.74224,0.12815
817.67071,0.12670
819.59918,0.13244
821.52765,0.14571
823.45612,0.15862
825.38459,0.16160
827.31305,0.15155
829.24152,0.13002
831.16999,0.11511
833.09846,0.12274
835.02693,0.13762
836.95540,0.14557
838.88387,0.15405
840.81234,0.16118
842.74080,0.15990
844.66927,0.15842
846.59774,0.16024
848.52621,0.15826
850.45468,0.15331
852.38315,0.14296
854.31162,0.13316
856.24008,0.13719
858.16855,0.14490
860.09702,0.14462
862.02549,0.14066
863.95396,0.13463
865.88243,0.12938
867.81090,0.14988
869.73937,0.18591
871.66783,0.18653
873.59630,0.16101
875.52477,0.14335
877.45324,0.13532
879.38171,0.13434
881.31018,0.13464
883.23865,0.13637
885.16711,0.14645
887.09558,0.15709
889.02405,0.15320
890.95252,0.13846
892.88099,0.13123
894.80946,0.13701
896.73793,0.14348
898.66640,0.14158
900.59486,0.13560
902.52333,0.13437
904.45180,0.13848
906.38027,0.14403
908.30874,0.15439
910.23721,0.16316
912.16568,0.15949
914.09414,0.15017
916.02261,0.14131
917.95108,0.13375
919.87955,0.13510
921.80802,0.14511
923.73649,0.15176
925.66496,0.15202
927.59343,0.15185
929.52189,0.15116
931.45036,0.14854
933.37883,0.14795
935.30730,0.14745
937.23577,0.14368
939.16424,0.14132
941.09271,0.14140
943.02117,0.13985
944.94964,0.13612
946.87811,0.13609
948.80658,0.14045
950.73505,0.14181
952.66352,0.14252
954.59199,0.14946
956.52045,0.15748
958.44892,0.15915
960.37739,0.15597
962.30586,0.15121
964.23433,0.14837
966.16280,0.15202
968.09127,0.15774
970.01974,0.15308
971.94820,0.14132
973.87667,0.13644
975.80514,0.13692
977.73361,0.13873
979.66208,0.14190
981.59055,0.14488
983.51902,0.14683
985.44748,0.14503
987.37595,0.14216
989.30442,0.14453
991.23289,0.15202
993.16136,0.15614
995.08983,0.15069
997.01830,0.14410
998.94677,0.14677
1000.87523,0.15475
1002.80370,0.15867
1004.73217,0.16069
1006.66064,0.16586
1008.58911,0.16604
1010.51758,0.15705
1012.44605,0.14891
1014.37451,0.14668
1016.30298,0.14703
1018.23145,0.14784
1020.15992,0.14828
1022.08839,0.14841
1024.01686,0.15484
1025.94533,0.16870
1027.87380,0.18010
1029.80226,0.18053
1031.73073,0.16451
1033.65920,0.14646
1035.58767,0.14300
1037.51614,0.14581
1039.44461,0.14786
1041.37308,0.15014
1043.30154,0.15540
1045.23001,0.16058
1047.15848,0.15758
1049.08695,0.15113
1051.01542,0.15154
1052.94389,0.16288
1054.87236,0.17330
1056.80083,0.16825
1058.72929,0.15784
1060.65776,0.15653
1062.58623,0.15750
1064.51470,0.15385
1066.44317,0.15247
1068.37164,0.16027
1070.30011,0.17321
1072.22857,0.17704
1074.15704,0.16913
1076.08551,0.16243
1078.01398,0.16253
1079.94245,0.16387
1081.87092,0.16560
1083.79939,0.16881
1085.72786,0.16638
1087.65632,0.16125
1089.58479,0.16163
1091.51326,0.16290
1093.44173,0.16235
1095.37020,0.15986
1097.29867,0.15716
1099.22714,0.16116
1101.15560,0.16435
1103.08407,0.15946
1105.01254,0.15960
1106.94101,0.16572
1108.86948,0.16788
1110.79795,0.16767
1112.72642,0.16422
1114.65489,0.15965
1116.58335,0.16168
1118.51182,0.16678
1120.44029,0.16803
1122.36876,0.16648
1124.29723,0.16719
1126.22570,0.16760
1128.15417,0.16452
1130.08263,0.16255
1132.01110,0.15859
1133.93957,0.15042
1135.86804,0.14585
1137.79651,0.14783
1139.72498,0.15378
1141.65345,0.15814
1143.58191,0.15775
1145.51038,0.15760
1147.43885,0.15979
1149.36732,0.16323
1151.29579,0.16796
1153.22426,0.17065
1155.15273,0.17024
1157.08120,0.16937
1159.00966,0.16956
1160.93813,0.17095
1162.86660,0.17103
1164.79507,0.16779
1166.72354,0.16388
1168.65201,0.16230
1170.58048,0.16294
1172.50894,0.16542
1174.43741,0.16756
1176.36588,0.16762
1178.29435,0.16719
1180.22282,0.16579
1182.15129,0.16480
1184.07976,0.16657
1186.00823,0.16787
1187.93669,0.16774
1189.86516,0.16793
1191.79363,0.16699
1193.72210,0.16642
1195.65057,0.16847
1197.57904,0.16777
1199.50751,0.16244
1201.43597,0.16100
1203.36444,0.16681
1205.29291,0.17272
1207.22138,0.17350
1209.14985,0.17089
1211.07832,0.16777
1213.00679,0.16607
1214.93526,0.16579
1216.86372,0.16337
1218.79219,0.15956
1220.72066,0.16240
1222.64913,0.17041
1224.57760,0.17209
1226.50607,0.16808
1228.43454,0.16635
1230.36300,0.16618
1232.29147,0.16569
1234.21994,0.16590
1236.14841,0.16631
1238.07688,0.16660
1240.00535,0.16631
1241.93382,0.16526
1243.86229,0.16530
1245.79075,0.16476
1247.71922,0.16324
1249.64769,0.16573
1251.57616,0.16907
1253.50463,0.16731
1255.43310,0.16484
1257.36157,0.16477
1259.29003,0.16302
1261.21850,0.15885
1263.14697,0.15739
1265.07544,0.16018
1267.00391,0.16140
1268.93238,0.15823
1270.86085,0.15712
1272.78932,0.16205
1274.71778,0.16736
1276.64625,0.16838
1278.57472,0.16651
1280.50319,0.16365
1282.43166,0.16339
1284.36013,0.16624
1286.28860,0.16600
1288.21706,0.16351
1290.14553,0.16326
1292.07400,0.16335
1294.00247,0.16300
1295.93094,0.16242
1297.85941,0.15896
1299.78788,0.14916
1301.71634,0.13183
1303.64481,0.11519
1305.57328,0.11802
1307.50175,0.14182
1309.43022,0.16203
1311.35869,0.17020
1313.28716,0.17445
1315.21563,0.17449
1317.14409,0.17210
1319.07256,0.16938
1321.00103,0.16677
1322.92950,0.16651
1324.85797,0.16269
1326.78644,0.15769
1328.71491,0.16170
1330.64337,0.16455
1332.57184,0.16172
1334.50031,0.16328
1336.42878,0.16579
1338.35725,0.16491
1340.28572,0.16066
1342.21419,0.15752
1344.14266,0.16018
1346.07112,0.16195
1347.99959,0.16065
1349.92806,0.15960
1351.85653,0.16045
1353.78500,0.16503
1355.71347,0.16983
1357.64194,0.17183
1359.57040,0.17382
1361.49887,0.17874
1363.42734,0.18181
1365.35581,0.17662
1367.28428,0.17036
1369.21275,0.16992
1371.14122,0.17300
1373.06969,0.17686
1374.99815,0.17991
1376.92662,0.18093
1378.85509,0.18140
1380.78356,0.18078
1382.71203,0.17778
1384.64050,0.17508
1386.56897,0.18070
1388.49743,0.19160
1390.42590,0.19350
1392.35437,0.19223
1394.28284,0.19707
1396.21131,0.20112
1398.13978,0.19483
1400.06825,0.18282
1401.99672,0.17821
1403.92518,0.18445
1405.85365,0.19064
1407.78212,0.18999
1409.71059,0.18806
1411.63906,0.18427
1413.56753,0.17873
1415.49600,0.17861
1417.42446,0.18530
1419.35293,0.19013
1421.28140,0.18914
1423.20987,0.18614
1425.13834,0.18082
1427.06681,0.18009
1428.99528,0.18647
1430.92375,0.19136
1432.85221,0.19366
1434.78068,0.19708
1436.70915,0.19499
1438.63762,0.18726
1440.56609,0.18506
1442.49456,0.18694
1444.42303,0.19070
1446.35149,0.19705
1448.27996,0.19997
1450.20843,0.19354
1452.13690,0.18576
1454.06537,0.18858
1455.99384,0.20645
1457.92231,0.21781
1459.85077,0.20515
1461.77924,0.19516
1463.70771,0.19309
1465.63618,0.19202
1467.56465,0.19003
1469.49312,0.19440
1471.42159,0.20730
1473.35006,0.21514
1475.27852,0.20648
1477.20699,0.19516
1479.13546,0.18766
1481.06393,0.18486
1482.99240,0.18829
1484.92087,0.19783
1486.84934,0.20910
1488.77780,0.21350
1490.70627,0.20601
1492.63474,0.19849
1494.56321,0.19976
1496.49168,0.20689
1498.42015,0.21043
1500.34862,0.21491
1502.27709,0.22481
1504.20555,0.23612
1506.13402,0.24839
1508.06249,0.24123
1509.99096,0.21689
1511.91943,0.19967
1513.84790,0.19591
1515.77637,0.20475
1517.70483,0.21421
1519.63330,0.22228
1521.56177,0.23518
1523.49024,0.23446
1525.41871,0.22091
1527.34718,0.20681
1529.27565,0.19878
1531.20412,0.20109
1533.13258,0.20960
1535.06105,0.21299
1536.98952,0.21771
1538.91799,0.23527
1540.84646,0.25202
1542.77493,0.24316
1544.70340,0.22167
1546.63186,0.20189
1548.56033,0.19653
1550.48880,0.20222
1552.41727,0.20805
1554.34574,0.21332
1556.27421,0.22534
1558.20268,0.24385
1560.13115,0.22833
1562.05961,0.20653
1563.98808,0.19971
1565.91655,0.19881
1567.84502,0.20282
1569.77349,0.20498
1571.70196,0.19786
1573.63043,0.19585
1575.55889,0.20185
1577.48736,0.19998
1579.41583,0.19164
1581.34430,0.18644
1583.27277,0.18384
1585.20124,0.18080
1587.12971,0.17713
1589.05818,0.17726
1590.98664,0.17990
1592.91511,0.18065
1594.84358,0.18048
1596.77205,0.18145
1598.70052,0.18426
1600.62899,0.18760
1602.55746,0.18674
1604.48592,0.18160
1606.41439,0.18066
1608.34286,0.18495
1610.27133,0.18683
1612.19980,0.18672
1614.12827,0.19060
1616.05674,0.19951
1617.98521,0.20167
1619.91367,0.19791
1621.84214,0.19985
1623.77061,0.20229
1625.69908,0.19918
1627.62755,0.19727
1629.55602,0.19708
1631.48449,0.19875
1633.41295,0.20807
1635.34142,0.22568
1637.26989,0.22689
1639.19836,0.21254
1641.12683,0.20339
1643.05530,0.20531
1644.98377,0.21815
1646.91223,0.23036
1648.84070,0.22760
1650.76917,0.22948
1652.69764,0.24440
1654.62611,0.23454
1656.55458,0.21363
1658.48305,0.21343
1660.41152,0.22913
1662.33998,0.23326
1664.26845,0.21396
1666.19692,0.20261
1668.12539,0.20810
1670.05386,0.21450
1671.98233,0.21096
1673.91080,0.20783
1675.83926,0.20534
1677.76773,0.20247
1679.69620,0.20522
1681.62467,0.21648
1683.55314,0.23163
1685.48161,0.22697
1687.41008,0.21335
1689.33855,0.20718
1691.26701,0.20406
1693.19548,0.20627
1695.12395,0.21944
1697.05242,0.23539
1698.98089,0.24328
1700.90936,0.24053
1702.83783,0.22879
1704.76629,0.21616
1706.69476,0.20445
1708.62323,0.19849
1710.55170,0.19705
1712.48017,0.19865
1714.40864,0.20541
1716.33711,0.21408
1718.26558,0.21068
1720.19404,0.19907
1722.12251,0.19148
1724.05098,0.18927
1725.97945,0.19207
1727.90792,0.19707
1729.83639,0.20075
1731.76486,0.20638
1733.69332,0.21476
1735.62179,0.21160
1737.55026,0.20551
1739.47873,0.20405
1741.40720,0.20291
1743.33567,0.20393
1745.26414,0.20860
1747.19261,0.21314
1749.12107,0.21498
1751.04954,0.21029
1752.97801,0.20205
1754.90648,0.19854
1756.83495,0.19806
1758.76342,0.19609
1760.69189,0.19598
1762.62035,0.19676
1764.54882,0.19488
1766.47729,0.19579
1768.40576,0.20247
1770.33423,0.21113
1772.26270,0.21374
1774.19117,0.20553
1776.11964,0.19649
1778.04810,0.19364
1779.97657,0.19612
1781.90504,0.19753
1783.83351,0.19453
1785.76198,0.18919
1787.69045,0.18659
1789.61892,0.19088
1791.54738,0.19827
1793.47585,0.19993
1795.40432,0.19832
1797.33279,0.19946
1799.26126,0.20246
1801.18973,0.20045
1803.11820,0.19146
1805.04666,0.18559
1806.97513,0.18897
1808.90360,0.19709
1810.83207,0.20140
1812.76054,0.19921
1814.68901,0.19637
1816.61748,0.19837
1818.54595,0.20305
1820.47441,0.20318
1822.40288,0.19949
1824.33135,0.19763
1826.25982,0.19754
1828.18829,0.19931
1830.11676,0.20119
1832.04523,0.19829
1833.97369,0.19474
1835.90216,0.19330
1837.83063,0.19232
1839.75910,0.19229
1841.68757,0.19597
1843.61604,0.20143
1845.54451,0.19901
1847.47298,0.19190
1849.40144,0.18861
1851.32991,0.18897
1853.25838,0.19188
1855.18685,0.19406
1857.11532,0.19177
1859.04379,0.18844
1860.97226,0.18688
1862.90072,0.18532
1864.82919,0.18658
1866.75766,0.19291
1868.68613,0.19792
1870.61460,0.19623
1872.54307,0.19081
1874.47154,0.18603
1876.40001,0.18650
1878.32847,0.19002
1880.25694,0.19002
1882.18541,0.18725
1884.11388,0.18516
1886.04235,0.18446
1887.97082,0.18528
1889.89929,0.18551
1891.82775,0.18457
1893.75622,0.18723
1895.68469,0.19292
1897.61316,0.19451
1899.54163,0.19120
1901.47010,0.18740
1903.39857,0.18601
1905.32704,0.18709
1907.25550,0.18881
1909.18397,0.19032
1911.11244,0.19074
1913.04091,0.19044
1914.96938,0.19153
1916.89785,0.19449
1918.82632,0.19645
1920.75478,0.19572
1922.68325,0.19308
1924.61172,0.18813
1926.54019,0.18542
1928.46866,0.18785
1930.39713,0.19073
1932.32560,0.19168
1934.25407,0.19271
1936.18253,0.19302
1938.11100,0.19010
1940.03947,0.18737
1941.96794,0.18813
1943.89641,0.18942
1945.82488,0.19075
1947.75335,0.19190
1949.68181,0.19126
1951.61028,0.19188
1953.53875,0.19359
1955.46722,0.19232
1957.39569,0.19031
1959.32416,0.18952
1961.25263,0.18777
1963.18110,0.18681
1965.10956,0.18881
1967.03803,0.19113
1968.96650,0.19147
1970.89497,0.19137
1972.82344,0.19185
1974.75191,0.19340
1976.68038,0.19595
1978.60884,0.19599
1980.53731,0.19242
1982.46578,0.18937
1984.39425,0.18879
1986.32272,0.18987
1988.25119,0.19231
1990.17966,0.19513
1992.10812,0.19671
1994.03659,0.19567
1995.96506,0.19323
1997.89353,0.19184
1999.82200,0.18939
2001.75047,0.18416
2003.67894,0.18094
2005.60741,0.18279
2007.53587,0.18664
2009.46434,0.19027
2011.39281,0.19229
2013.32128,0.19181
2015.24975,0.19272
2017.17822,0.19544
2019.10669,0.19473
2021.03515,0.19164
2022.96362,0.19049
2024.89209,0.19064
2026.82056,0.18932
2028.74903,0.18783
2030.67750,0.18849
2032.60597,0.19004
2034.53444,0.19100
2036.46290,0.19037
2038.39137,0.18815
2040.31984,0.18692
2042.24831,0.18786
2044.17678,0.18911
2046.10525,0.18916
2048.03372,0.18859
2049.96218,0.18824
2051.89065,0.18783
2053.81912,0.18776
2055.74759,0.18850
2057.67606,0.18951
2059.60453,0.19054
2061.53300,0.19108
2063.46147,0.19025
2065.38993,0.18887
2067.31840,0.18863
2069.24687,0.18868
2071.17534,0.18810
2073.10381,0.18867
2075.03228,0.19013
2076.96075,0.19058
2078.88921,0.19034
2080.81768,0.18966
2082.74615,0.18860
2084.67462,0.18831
2086.60309,0.18840
2088.53156,0.18876
2090.46003,0.19048
2092.38850,0.19170
2094.31696,0.19124
2096.24543,0.19063
2098.17390,0.19009
2100.10237,0.18968
2102.03084,0.18942
2103.95931,0.18944
2105.88778,0.19067
2107.81624,0.19186
2109.74471,0.19108
2111.67318,0.18882
2113.60165,0.18628
2115.53012,0.18543
2117.45859,0.18727
2119.38706,0.18916
2121.31553,0.18950
2123.24399,0.18901
2125.17246,0.18753
2127.10093,0.18723
2129.02940,0.19028
2130.95787,0.19198
2132.88634,0.18834
2134.81481,0.18535
2136.74327,0.18785
2138.67174,0.19094
2140.60021,0.19046
2142.52868,0.18894
2144.45715,0.19029
2146.38562,0.19216
2148.31409,0.19043
2150.24255,0.18797
2152.17102,0.18774
2154.09949,0.18891
2156.02796,0.19014
2157.95643,0.19163
2159.88490,0.19314
2161.81337,0.19245
2163.74184,0.19202
2165.67030,0.19353
2167.59877,0.19399
2169.52724,0.19473
2171.45571,0.19680
2173.38418,0.19645
2175.31265,0.19333
2177.24112,0.19058
2179.16958,0.18824
2181.09805,0.18615
2183.02652,0.18619
2184.95499,0.18801
2186.88346,0.19018
2188.81193,0.19219
2190.74040,0.19288
2192.66887,0.19137
2194.59733,0.18951
2196.52580,0.18977
2198.45427,0.19120
2200.38274,0.19222
2202.31121,0.19386
2204.23968,0.19675
2206.16815,0.19883
2208.09661,0.19698
2210.02508,0.19207
2211.95355,0.18979
2213.88202,0.19157
2215.81049,0.19203
2217.73896,0.18983
2219.66743,0.18928
2221.59590,0.19136
2223.52436,0.19304
2225.45283,0.19312
2227.38130,0.19287
2229.30977,0.19195
2231.23824,0.18948
2233.16671,0.18780
2235.09518,0.18863
2237.02364,0.19044
2238.95211,0.19150
2240.88058,0.19113
2242.80905,0.19036
2244.73752,0.19221
2246.66599,0.19623
2248.59446,0.19796
2250.52293,0.19679
2252.45139,0.19525
2254.37986,0.19567
2256.30833,0.19769
2258.23680,0.19746
2260.16527,0.19490
2262.09374,0.19303
2264.02221,0.19259
2265.95067,0.19286
2267.87914,0.19270
2269.80761,0.19191
2271.73608,0.19115
2273.66455,0.19140
2275.59302,0.19345
2277.52149,0.19542
2279.44996,0.19480
2281.37842,0.19343
2283.30689,0.19420
2285.23536,0.19517
2287.16383,0.19232
2289.09230,0.18751
2291.02077,0.18708
2292.94924,0.19100
2294.87770,0.19315
2296.80617,0.19178
2298.73464,0.18977
2300.66311,0.18858
2302.59158,0.18879
2304.52005,0.18897
2306.44852,0.18783
2308.37699,0.18769
2310.30545,0.18630
2312.23392,0.18238
2314.16239,0.18163
2316.09086,0.18453
2318.01933,0.18907
2319.94780,0.19713
2321.87627,0.20520
2323.80473,0.20320
2325.73320,0.19407
2327.66167,0.19170
2329.59014,0.19597
2331.51861,0.19650
2333.44708,0.19185
2335.37555,0.18522
2337.30401,0.18172
2339.23248,0.18427
2341.16095,0.18284
2343.08942,0.17357
2345.01789,0.16983
2346.94636,0.17447
2348.87483,0.17726
2350.80330,0.17885
2352.73176,0.18721
2354.66023,0.20031
2356.58870,0.20154
2358.51717,0.18474
2360.44564,0.16722
2362.37411,0.16527
2364.30258,0.18158
2366.23104,0.19933
2368.15951,0.19885
2370.08798,0.19333
2372.01645,0.19081
2373.94492,0.18431
2375.87339,0.17999
2377.80186,0.18296
2379.73033,0.18676
2381.65879,0.18871
2383.58726,0.19129
2385.51573,0.19484
2387.44420,0.19728
2389.37267,0.19657
2391.30114,0.19473
2393.22961,0.19415
2395.15807,0.19324
2397.08654,0.19144
2399.01501,0.19016
2400.94348,0.18958
2402.87195,0.18965
2404.80042,0.19130
2406.72889,0.19257
2408.65736,0.19061
2410.58582,0.18772
2412.51429,0.18648
2414.44276,0.18660
2416.37123,0.18790
2418.29970,0.18857
2420.22817,0.18805
2422.15664,0.19036
2424.08510,0.19580
2426.01357,0.19790
2427.94204,0.19417
2429.87051,0.19047
2431.79898,0.19066
2433.72745,0.19195
2435.65592,0.19315
2437.58439,0.19461
2439.51285,0.19438
2441.44132,0.19204
2443.36979,0.19012
2445.29826,0.19070
2447.22673,0.19449
2449.15520,0.19934
2451.08367,0.20147
2453.01213,0.20130
2454.94060,0.19990
2456.86907,0.19760
2458.79754,0.19687
2460.72601,0.19645
2462.65448,0.19449
2464.58295,0.19270
2466.51142,0.19206
2468.43988,0.19249
2470.36835,0.19337
2472.29682,0.19437
2474.22529,0.19440
2476.15376,0.19292
2478.08223,0.19142
2480.01070,0.19055
2481.93916,0.19162
2483.86763,0.19472
2485.79610,0.19676
2487.72457,0.19698
2489.65304,0.19590
2491.58151,0.19185
2493.50998,0.18816
2495.43844,0.19144
2497.36691,0.19670
2499.29538,0.19552
2501.22385,0.19219
2503.15232,0.19203
2505.08079,0.19321
2507.00926,0.19511
2508.93773,0.19669
2510.86619,0.19517
2512.79466,0.19235
2514.72313,0.19135
2516.65160,0.19242
2518.58007,0.19511
2520.50854,0.19813
2522.43701,0.19955
2524.36547,0.19869
2526.29394,0.19665
2528.22241,0.19580
2530.15088,0.19724
2532.07935,0.19807
2534.00782,0.19637
2535.93629,0.19477
2537.86476,0.19398
2539.79322,0.19164
2541.72169,0.18824
2543.65016,0.18792
2545.57863,0.19160
2547.50710,0.19327
2549.43557,0.19127
2551.36404,0.19178
2553.29250,0.19408
2555.22097,0.19398
2557.14944,0.19388
2559.07791,0.19414
2561.00638,0.19318
2562.93485,0.19221
2564.86332,0.19167
2566.79179,0.19199
2568.72025,0.19367
2570.64872,0.19566
2572.57719,0.19745
2574.50566,0.19901
2576.43413,0.19995
2578.36260,0.19989
2580.29107,0.19813
2582.21953,0.19564
2584.14800,0.19386
2586.07647,0.19272
2588.00494,0.19315
2589.93341,0.19591
2591.86188,0.19856
2593.79035,0.19807
2595.71882,0.19534
2597.64728,0.19222
2599.57575,0.19012
2601.50422,0.19100
2603.43269,0.19271
2605.36116,0.19121
2607.28963,0.18713
2609.21810,0.18549
2611.14656,0.18815
2613.07503,0.19141
2615.00350,0.19226
2616.93197,0.19125
2618.86044,0.19078
2620.78891,0.19288
2622.71738,0.19711
2624.64585,0.19835
2626.57431,0.19541
2628.50278,0.19550
2630.43125,0.19894
2632.35972,0.19989
2634.28819,0.19833
2636.21666,0.19648
2638.14513,0.19560
2640.07359,0.19662
2642.00206,0.19872
2643.93053,0.19908
2645.85900,0.19679
2647.78747,0.19429
2649.71594,0.19275
2651.64441,0.19189
2653.57288,0.19169
2655.50134,0.19359
2657.42981,0.19720
2659.35828,0.19876
2661.28675,0.19841
2663.21522,0.19857
2665.14369,0.20119
2667.07216,0.20501
2669.00062,0.20368
2670.92909,0.19816
2672.85756,0.19614
2674.78603,0.19904
2676.71450,0.20188
2678.64297,0.20089
2680.57144,0.19880
2682.49990,0.19806
2684.42837,0.19778
2686.35684,0.19940
2688.28531,0.20136
2690.21378,0.19991
2692.14225,0.19769
2694.07072,0.19859
2695.99919,0.20143
2697.92765,0.20140
2699.85612,0.19724
2701.78459,0.19386
2703.71306,0.19494
2705.64153,0.19823
2707.57000,0.20084
2709.49847,0.20344
2711.42693,0.20368
2713.35540,0.19894
2715.28387,0.19493
2717.21234,0.19627
2719.14081,0.20088
2721.06928,0.20567
2722.99775,0.20710
2724.92622,0.20392
2726.85468,0.19896
2728.78315,0.19572
2730.71162,0.19628
2732.64009,0.19929
2734.56856,0.20267
2736.49703,0.20601
2738.42550,0.20832
2740.35396,0.20798
2742.28243,0.20396
2744.21090,0.19971
2746.13937,0.20056
2748.06784,0.20441
2749.99631,0.20580
2751.92478,0.20379
2753.85325,0.20170
2755.78171,0.20317
2757.71018,0.20571
2759.63865,0.20560
2761.56712,0.20620
2763.49559,0.21003
2765.42406,0.21219
2767.35253,0.20880
2769.28099,0.20357
2771.20946,0.20228
2773.13793,0.20551
2775.06640,0.20843
2776.99487,0.20703
2778.92334,0.20257
2780.85181,0.19938
2782.78028,0.20071
2784.70874,0.20568
2786.63721,0.20909
2788.56568,0.20734
2790.49415,0.20484
2792.42262,0.20470
2794.35109,0.20387
2796.27956,0.20376
2798.20802,0.20476
2800.13649,0.20352
2802.06496,0.20332
2803.99343,0.20690
2805.92190,0.20959
2807.85037,0.21009
2809.77884,0.21199
2811.70731,0.21349
2813.63577,0.21062
2815.56424,0.20560
2817.49271,0.20210
2819.42118,0.20051
2821.34965,0.20175
2823.27812,0.20608
2825.20659,0.20951
2827.13505,0.20901
2829.06352,0.20747
2830.99199,0.20878
2832.92046,0.21161
2834.84893,0.21303
2836.77740,0.21295
2838.70587,0.21254
2840.63433,0.21342
2842.56280,0.21540
2844.49127,0.21539
2846.41974,0.21326
2848.34821,0.21033
2850.27668,0.20468
2852.20515,0.19982
2854.13362,0.20278
2856.06208,0.20932
2857.99055,0.20972
2859.91902,0.20605
2861.84749,0.20558
2863.77596,0.20613
2865.70443,0.20482
2867.63290,0.20472
2869.56136,0.20653
2871.48983,0.20752
2873.41830,0.20652
2875.34677,0.20573
2877.27524,0.20760
2879.20371,0.21102
2881.13218,0.21121
2883.06065,0.20646
2884.98911,0.20259
2886.91758,0.20229
2888.84605,0.20267
2890.77452,0.20320
2892.70299,0.20103
2894.63146,0.19503
2896.55993,0.19212
2898.48839,0.19408
2900.41686,0.19709
2902.34533,0.20019
2904.27380,0.20149
2906.20227,0.20134
2908.13074,0.20238
2910.05921,0.20367
2911.98768,0.20615
2913.91614,0.20747
2915.84461,0.20205
2917.77308,0.19807
2919.70155,0.20265
2921.63002,0.20762
2923.55849,0.20313
2925.48696,0.18810
2927.41542,0.17714
2929.34389,0.18165
2931.27236,0.19346
2933.20083,0.20009
2935.12930,0.19565
2937.05777,0.18866
2938.98624,0.19366
2940.91471,0.20612
2942.84317,0.21226
2944.77164,0.20684
2946.70011,0.19399
2948.62858,0.18996
2950.55705,0.19839
2952.48552,0.20397
2954.41399,0.19947
2956.34245,0.18403
2958.27092,0.17312
2960.19939,0.18382
2962.12786,0.19956
2964.05633,0.20307
2965.98480,0.19839
2967.91327,0.19480
2969.84174,0.19988
2971.77020,0.21047
2973.69867,0.21833
2975.62714,0.21669
2977.55561,0.20556
2979.48408,0.20044
2981.41255,0.20820
2983.34102,0.21541
2985.26948,0.21379
2987.19795,0.20654
2989.12642,0.20280
2991.05489,0.20860
2992.98336,0.21539
2994.91183,0.21549
2996.84030,0.21173
2998.76877,0.20839
3000.69723,0.20777
3002.62570,0.20939
3004.55417,0.21197
3006.48264,0.21237
3008.41111,0.20565
3010.33958,0.18931
3012.26805,0.16139
3014.19651,0.12170
3016.12498,0.09262
3018.05345,0.11052
3019.98192,0.16175
3021.91039,0.19625
3023.83886,0.20574
3025.76733,0.20691
3027.69579,0.20374
3029.62426,0.20255
3031.55273,0.20816
3033.48120,0.21266
3035.40967,0.20942
3037.33814,0.20235
3039.26661,0.20056
3041.19508,0.20449
3043.12354,0.20739
3045.05201,0.20875
3046.98048,0.20737
3048.90895,0.20478
3050.83742,0.20825
3052.76589,0.21227
3054.69436,0.20441
3056.62282,0.19033
3058.55129,0.19048
3060.47976,0.20398
3062.40823,0.20973
3064.33670,0.20094
3066.26517,0.19090
3068.19364,0.19324
3070.12211,0.20027
3072.05057,0.19904
3073.97904,0.18969
3075.90751,0.18277
3077.83598,0.19340
3079.76445,0.21257
3081.69292,0.21444
3083.62139,0.19625
3085.54985,0.18466
3087.47832,0.19754
3089.40679,0.21412
3091.33526,0.21479
3093.26373,0.20310
3095.19220,0.19325
3097.12067,0.19908
3099.04914,0.21285
3100.97760,0.21746
3102.90607,0.20922
3104.83454,0.20228
3106.76301,0.20590
3108.69148,0.21149
3110.61995,0.20901
3112.54842,0.20020
3114.47688,0.20130
3116.40535,0.21178
3118.33382,0.21316
3120.26229,0.20416
3122.19076,0.19898
3124.11923,0.20641
3126.04770,0.21587
3127.97617,0.21645
3129.90463,0.21258
3131.83310,0.21024
3133.76157,0.21137
3135.69004,0.21522
3137.61851,0.21531
3139.54698,0.21010
3141.47545,0.20853
3143.40391,0.21324
3145.33238,0.21851
3147.26085,0.21814
3149.18932,0.21649
3151.11779,0.22332
3153.04626,0.23073
3154.97473,0.22827
3156.90320,0.21985
3158.83166,0.21355
3160.76013,0.21254
3162.68860,0.21321
3164.61707,0.21505
3166.54554,0.22080
3168.47401,0.22466
3170.40248,0.22194
3172.33094,0.21959
3174.25941,0.22116
3176.18788,0.22196
3178.11635,0.22007
3180.04482,0.21927
3181.97329,0.22088
3183.90176,0.21961
3185.83022,0.21486
3187.75869,0.21162
3189.68716,0.20950
3191.61563,0.20649
3193.54410,0.20418
3195.47257,0.20407
3197.40104,0.20561
3199.32951,0.20844
3201.25797,0.21276
3203.18644,0.21673
3205.11491,0.22031
3207.04338,0.22346
3208.97185,0.22266
3210.90032,0.21879
3212.82879,0.21686
3214.75725,0.21991
3216.68572,0.22447
3218.61419,0.22255
3220.54266,0.21612
3222.47113,0.21559
3224.39960,0.21955
3226.32807,0.21953
3228.25654,0.21690
3230.18500,0.21268
3232.11347,0.20672
3234.04194,0.20498
3235.97041,0.20919
3237.89888,0.21585
3239.82735,0.21938
3241.75582,0.21755
3243.68428,0.21543
3245.61275,0.21442
3247.54122,0.21191
3249.46969,0.20907
3251.39816,0.20831
3253.32663,0.21008
3255.25510,0.21382
3257.18357,0.21913
3259.11203,0.22218
3261.04050,0.21848
3262.96897,0.21205
3264.89744,0.20832
3266.82591,0.20759
3268.75438,0.21035
3270.68285,0.21430
3272.61131,0.21388
3274.53978,0.21003
3276.46825,0.20743
3278.39672,0.20565
3280.32519,0.20528
3282.25366,0.21008
3284.18213,0.21423
3286.11060,0.21029
3288.03906,0.20514
3289.96753,0.20517
3291.89600,0.20792
3293.82447,0.21149
3295.75294,0.21520
3297.68141,0.21855
3299.60988,0.22014
3301.53834,0.21826
3303.46681,0.21447
3305.39528,0.21275
3307.32375,0.21417
3309.25222,0.21612
3311.18069,0.21807
3313.10916,0.22068
3315.03763,0.22257
3316.96609,0.22419
3318.89456,0.22596
3320.82303,0.22519
3322.75150,0.22316
3324.67997,0.21963
3326.60844,0.21194
3328.53691,0.20756
3330.46537,0.20922
3332.39384,0.21058
3334.32231,0.21496
3336.25078,0.22662
3338.17925,0.23816
3340.10772,0.23711
3342.03619,0.22165
3343.96466,0.20702
3345.89312,0.20390
3347.82159,0.20728
3349.75006,0.21080
3351.67853,0.21444
3353.60700,0.21743
3355.53547,0.21545
3357.46394,0.21110
3359.39240,0.20990
3361.32087,0.21361
3363.24934,0.22296
3365.17781,0.23293
3367.10628,0.23767
3369.03475,0.23477
3370.96322,0.22707
3372.89168,0.22239
3374.82015,0.22181
3376.74862,0.22121
3378.67709,0.22108
3380.60556,0.22249
3382.53403,0.22306
3384.46250,0.22187
3386.39097,0.22007
3388.31943,0.21961
3390.24790,0.22034
3392.17637,0.21923
3394.10484,0.21684
3396.03331,0.21620
3397.96178,0.21824
3399.89025,0.21833
3401.81871,0.21349
3403.74718,0.21144
3405.67565,0.21521
3407.60412,0.21712
3409.53259,0.21228
3411.46106,0.20355
3413.38953,0.19878
3415.31800,0.20018
3417.24646,0.20298
3419.17493,0.20386
3421.10340,0.20313
3423.03187,0.20598
3424.96034,0.21073
3426.88881,0.20819
3428.81728,0.20199
3430.74574,0.20253
3432.67421,0.20718
3434.60268,0.20799
3436.53115,0.20559
3438.45962,0.20169
3440.38809,0.19602
3442.31656,0.19397
3444.24503,0.20033
3446.17349,0.20780
3448.10196,0.20632
3450.03043,0.20017
3451.95890,0.19687
3453.88737,0.19732
3455.81584,0.20035
3457.74431,0.20158
3459.67277,0.19865
3461.60124,0.19573
3463.52971,0.19815
3465.45818,0.20224
3467.38665,0.20080
3469.31512,0.19817
3471.24359,0.19908
3473.17206,0.19907
3475.10052,0.19562
3477.02899,0.19122
3478.95746,0.19041
3480.88593,0.19195
3482.81440,0.18952
3484.74287,0.18615
3486.67134,0.18755
3488.59980,0.19028
3490.52827,0.18974
3492.45674,0.18776
3494.38521,0.18519
3496.31368,0.18295
3498.24215,0.18772
3500.17062,0.19679
3502.09909,0.20072
3504.02755,0.19638
3505.95602,0.18871
3507.88449,0.18664
3509.81296,0.18644
3511.74143,0.18147
3513.66990,0.17810
3515.59837,0.17794
3517.52683,0.17846
3519.45530,0.17842
3521.38377,0.17441
3523.31224,0.16983
3525.24071,0.17223
3527.16918,0.17906
3529.09765,0.18121
3531.02611,0.17767
3532.95458,0.17704
3534.88305,0.17970
3536.81152,0.17731
3538.73999,0.17277
3540.66846,0.17287
3542.59693,0.17485
3544.52540,0.17739
3546.45386,0.18029
3548.38233,0.18178
3550.31080,0.18401
3552.23927,0.18719
3554.16774,0.18734
3556.09621,0.18357
3558.02468,0.17783
3559.95314,0.17252
3561.88161,0.17176
3563.81008,0.17920
3565.73855,0.19333
3567.66702,0.19980
3569.59549,0.19054
3571.52396,0.17949
3573.45243,0.17241
3575.38089,0.16731
3577.30936,0.16113
3579.23783,0.15455
3581.16630,0.15286
3583.09477,0.15778
3585.02324,0.16583
3586.95171,0.16869
3588.88017,0.16245
3590.80864,0.16209
3592.73711,0.16952
3594.66558,0.17421
3596.59405,0.16993
3598.52252,0.16040
3600.45099,0.15172
3602.37946,0.14791
3604.30792,0.15151
3606.23639,0.15917
3608.16486,0.16379
3610.09333,0.16606
3612.02180,0.16865
3613.95027,0.16816
3615.87874,0.16580
3617.80720,0.16402
3619.73567,0.15817
3621.66414,0.14956
3623.59261,0.14253
3625.52108,0.13898
3627.44955,0.14436
3629.37802,0.15327
3631.30649,0.15138
3633.23495,0.14561
3635.16342,0.14103
3637.09189,0.13974
3639.02036,0.14285
3640.94883,0.14786
3642.87730,0.14976
3644.80577,0.15272
3646.73423,0.16392
3648.66270,0.17376
3650.59117,0.16387
3652.51964,0.15224
3654.44811,0.14820
3656.37658,0.14490
3658.30505,0.14026
3660.23352,0.13743
3662.16198,0.13597
3664.09045,0.13665
3666.01892,0.14035
3667.94739,0.14777
3669.87586,0.15705
3671.80433,0.16080
3673.73280,0.16627
3675.66126,0.17278
3677.58973,0.16171
3679.51820,0.14495
3681.44667,0.13644
3683.37514,0.13696
3685.30361,0.13899
3687.23208,0.13727
3689.16055,0.13363
3691.08901,0.13112
3693.01748,0.13138
3694.94595,0.13450
3696.87442,0.13746
3698.80289,0.13937
3700.73136,0.14222
3702.65983,0.14375
3704.58829,0.14422
3706.51676,0.14976
3708.44523,0.16003
3710.37370,0.16470
3712.30217,0.15282
3714.23064,0.14060
3716.15911,0.13854
3718.08757,0.14040
3720.01604,0.14383
3721.94451,0.14944
3723.87298,0.15129
3725.80145,0.14515
3727.72992,0.13894
3729.65839,0.13966
3731.58686,0.14520
3733.51532,0.14917
3735.44379,0.14356
3737.37226,0.13590
3739.30073,0.13556
3741.22920,0.13745
3743.15767,0.13965
3745.08614,0.14428
3747.01460,0.14760
3748.94307,0.15260
3750.87154,0.15918
3752.80001,0.15002
3754.72848,0.13734
3756.65695,0.13399
3758.58542,0.13578
3760.51389,0.13597
3762.44235,0.13228
3764.37082,0.12811
3766.29929,0.12906
3768.22776,0.13390
3770.15623,0.13534
3772.08470,0.13076
3774.01317,0.12694
3775.94163,0.13100
3777.87010,0.14031
3779.79857,0.14161
3781.72704,0.13358
3783.65551,0.12896
3785.58398,0.13029
3787.51245,0.13242
3789.44092,0.13240
3791.36938,0.13128
3793.29785,0.13186
3795.22632,0.13508
3797.15479,0.13671
3799.08326,0.13567
3801.01173,0.13801
3802.94020,0.14033
3804.86866,0.13739
3806.79713,0.13268
3808.72560,0.12536
3810.65407,0.11983
3812.58254,0.12326
3814.51101,0.13239
3816.43948,0.13493
3818.36795,0.13300
3820.29641,0.13620
3822.22488,0.13594
3824.15335,0.13059
3826.08182,0.12782
3828.01029,0.12738
3829.93876,0.12708
3831.86723,0.12885
3833.79569,0.13449
3835.72416,0.14113
3837.65263,0.14812
3839.58110,0.14863
3841.50957,0.13698
3843.43804,0.12299
3845.36651,0.11698
3847.29498,0.12168
3849.22344,0.13139
3851.15191,0.14173
3853.08038,0.14754
3855.00885,0.13897
3856.93732,0.13337
3858.86579,0.13239
3860.79426,0.13268
3862.72272,0.13612
3864.65119,0.13732
3866.57966,0.13566
3868.50813,0.13952
3870.43660,0.14482
3872.36507,0.14179
3874.29354,0.13344
3876.22200,0.12465
3878.15047,0.12127
3880.07894,0.12586
3882.00741,0.12681
3883.93588,0.11583
3885.86435,0.10551
3887.79282,0.11110
3889.72129,0.12681
3891.64975,0.13581
3893.57822,0.12917
3895.50669,0.12309
3897.43516,0.12541
3899.36363,0.13196
3901.29210,0.13759
3903.22057,0.14059
3905.14903,0.13666
3907.07750,0.12336
3909.00597,0.10972
3910.93444,0.10588
3912.86291,0.11259
3914.79138,0.11947
3916.71985,0.11748
3918.64832,0.11229
3920.57678,0.11550
3922.50525,0.12268
3924.43372,0.12313
3926.36219,0.11831
3928.29066,0.11797
3930.21913,0.12279
3932.14760,0.12538
3934.07606,0.12273
3936.00453,0.12002
3937.93300,0.11865
3939.86147,0.11606
3941.78994,0.11290
3943.71841,0.11197
3945.64688,0.11410
3947.57535,0.11667
3949.50381,0.11563
3951.43228,0.11212
3953.36075,0.11123
3955.28922,0.11209
3957.21769,0.11017
3959.14616,0.10845
3961.07463,0.11159
3963.00309,0.11362
3964.93156,0.11278
3966.86003,0.11590
3968.78850,0.11872
3970.71697,0.11562
3972.64544,0.11378
3974.57391,0.11465
3976.50238,0.11067
3978.43084,0.10234
3980.35931,0.09728
3982.28778,0.09870
3984.21625,0.10206
3986.14472,0.10312
3988.07319,0.10260
3990.00166,0.10311
3991.93012,0.10516
3993.85859,0.10788
3995.78706,0.11242
3997.71553,0.11468
3999.64400,0.11090
4001.57247,0.10660
4003.50094,0.10280
4005.42941,0.09960
4007.35787,0.10345
4009.28634,0.10935
4011.21481,0.10644
4013.14328,0.09896
4015.07175,0.09831
4017.00022,0.10444
4018.92869,0.10881
4020.85715,0.10788
4022.78562,0.10358
4024.71409,0.09861
4026.64256,0.09435
4028.57103,0.09281
4030.49950,0.09544
4032.42797,0.10005
4034.35644,0.10302
4036.28490,0.10337
4038.21337,0.10363
4040.14184,0.10084
4042.07031,0.09602
4043.99878,0.09737
4045.92725,0.10053
4047.85572,0.10044
4049.78418,0.09906
4051.71265,0.09666
4053.64112,0.09703
4055.56959,0.09935
4057.49806,0.09718
4059.42653,0.09145
4061.35500,0.08711
4063.28346,0.08756
4065.21193,0.09221
4067.14040,0.09498
4069.06887,0.09218
4070.99734,0.08738
4072.92581,0.08597
4074.85428,0.09057
4076.78275,0.09911
4078.71121,0.10269
4080.63968,0.09719
4082.56815,0.09207
4084.49662,0.09366
4086.42509,0.09541
4088.35356,0.09249
4090.28203,0.08934
4092.21049,0.08844
4094.13896,0.09022
4096.06743,0.09404
4097.99590,0.09548
4099.92437,0.09470
4101.85284,0.09262
4103.78131,0.08960
4105.70978,0.08942
4107.63824,0.09257
4109.56671,0.09596
4111.49518,0.09731
4113.42365,0.09545
4115.35212,0.09289
4117.28059,0.09244
4119.20906,0.09100
4121.13752,0.08917
4123.06599,0.09013
4124.99446,0.09152
4126.92293,0.09090
4128.85140,0.08768
4130.77987,0.08532
4132.70834,0.08703
4134.63681,0.08987
4136.56527,0.09155
4138.49374,0.09461
4140.42221,0.09804
4142.35068,0.09841
4144.27915,0.09935
4146.20762,0.10071
4148.13609,0.09435
4150.06455,0.08182
4151.99302,0.07625
4153.92149,0.08215
4155.84996,0.08948
4157.77843,0.09256
4159.70690,0.09165
4161.63537,0.08656
4163.56384,0.08084
4165.49230,0.07858
4167.42077,0.08159
4169.34924,0.08600
4171.27771,0.08536
4173.20618,0.07965
4175.13465,0.07277
4177.06312,0.07110
4178.99158,0.07535
4180.92005,0.07705
4182.84852,0.07234
4184.77699,0.06673
4186.70546,0.06577
4188.63393,0.06797
4190.56240,0.07437
4192.49087,0.08427
4194.41933,0.08376
4196.34780,0.07152
4198.27627,0.06606
4200.20474,0.07052
4202.13321,0.07101
4204.06168,0.06845
4205.99015,0.07130
4207.91861,0.07408
4209.84708,0.07077
4211.77555,0.06910
4213.70402,0.07334
4215.63249,0.07511
4217.56096,0.07089
4219.48943,0.06680
4221.41789,0.06843
4223.34636,0.07426
4225.27483,0.07526
4227.20330,0.07126
4229.13177,0.07412
4231.06024,0.08126
4232.98871,0.08011
4234.91718,0.07426
4236.84564,0.07355
4238.77411,0.07840
4240.70258,0.08025
4242.63105,0.07485
4244.55952,0.07263
4246.48799,0.07558
4248.41646,0.07007
4250.34492,0.05632
4252.27339,0.05000
4254.20186,0.05590
4256.13033,0.06164
4258.05880,0.05918
4259.98727,0.05683
4261.91574,0.06206
4263.84421,0.07094
4265.77267,0.07312
4267.70114,0.06691
4269.62961,0.06249
4271.55808,0.06032
4273.48655,0.05545
4275.41502,0.05285
4277.34349,0.05650
4279.27195,0.05964
4281.20042,0.05880
4283.12889,0.06003
4285.05736,0.06303
4286.98583,0.06296
4288.91430,0.05990
4290.84277,0.05640
4292.77124,0.05630
4294.69970,0.06098
4296.62817,0.06561
4298.55664,0.06475
4300.48511,0.06014
4302.41358,0.05866
4304.34205,0.06258
4306.27052,0.06415
4308.19898,0.05611
4310.12745,0.04667
4312.05592,0.04720
4313.98439,0.05182
4315.91286,0.05403
4317.84133,0.05709
4319.76980,0.05945
4321.69827,0.05985
4323.62673,0.06086
4325.55520,0.06326
4327.48367,0.06531
4329.41214,0.06536
4331.34061,0.06181
4333.26908,0.05400
4335.19755,0.04717
4337.12601,0.04344
4339.05448,0.04267
4340.98295,0.04611
4342.91142,0.04912
4344.83989,0.04705
4346.76836,0.04389
4348.69683,0.04440
4350.62530,0.04486
4352.55376,0.04729
4354.48223,0.05457
4356.41070,0.05531
4358.33917,0.04861
4360.26764,0.04746
4362.19611,0.04853
4364.12458,0.04134
4366.05304,0.03313
4367.98151,0.03313
4369.90998,0.03834
4371.83845,0.04258
4373.76692,0.04342
4375.69539,0.04540
4377.62386,0.04924
4379.55232,0.04859
4381.48079,0.04611
4383.40926,0.04879
4385.33773,0.05274
4387.26620,0.05354
4389.19467,0.05387
4391.12314,0.05465
4393.05161,0.05328
4394.98007,0.04634
4396.90854,0.03581
4398.83701,0.02866
4400.76548,0.02740
4402.69395,0.02979
4404.62242,0.03375
4406.55089,0.03884
4408.47935,0.04132
4410.40782,0.04109
4412.33629,0.04303
4414.26476,0.04289
4416.19323,0.04085
4418.12170,0.04318
4420.05017,0.04725
4421.97864,0.05004
4423.90710,0.04794
4425.83557,0.03799
4427.76404,0.02465
4429.69251,0.01899
4431.62098,0.02710
4433.54945,0.03729
4435.47792,0.03898
4437.40638,0.03380
4439.33485,0.02856
4441.26332,0.03222
4443.19179,0.03824
4445.12026,0.03497
4447.04873,0.03081
4448.97720,0.02987
4450.90567,0.02446
4452.83413,0.02096
4454.76260,0.02830
4456.69107,0.03736
4458.61954,0.03630
4460.54801,0.03306
4462.47648,0.03919
4464.40495,0.04438
4466.33341,0.03476
4468.26188,0.01634
4470.19035,0.00725
4472.11882,0.01201
4474.04729,0.01924
4475.97576,0.02347
4477.90423,0.02396
4479.83270,0.01919
4481.76116,0.01880
4483.68963,0.02990
4485.61810,0.03394
4487.54657,0.02168
4489.47504,0.01294
4491.40351,0.01703
4493.33198,0.02919
4495.26044,0.04182
4497.18891,0.04504
4499.11738,0.04086
4501.04585,0.03528
4502.97432,0.02938
4504.90279,0.02740
4506.83126,0.03147
4508.75973,0.03610
4510.68819,0.03137
4512.61666,0.01907
4514.54513,0.01291
4516.47360,0.01342
4518.40207,0.01397
4520.33054,0.01861
4522.25901,0.02843
4524.18747,0.03314
4526.11594,0.02904
4528.04441,0.02496
4529.97288,0.02521
4531.90135,0.02387
4533.82982,0.01684
4535.75829,0.01163
4537.68676,0.01742
4539.61522,0.02590
4541.54369,0.02416
4543.47216,0.01915
4545.40063,0.02079
4547.32910,0.02223
4549.25757,0.01801
4551.18604,0.01236
4553.11450,0.00772
4555.04297,0.00607
4556.97144,0.01033
4558.89991,0.01764
4560.82838,0.02087
4562.75685,0.01909
4564.68532,0.01530
4566.61378,0.00866
4568.54225,-0.00101
4570.47072,-0.00456
4572.39919,0.00809
4574.32766,0.02355
4576.25613,0.02095
4578.18460,0.00787
4580.11307,0.00260
4582.04153,0.00637
4583.97000,0.01397
4585.89847,0.02354
4587.82694,0.02822
4589.75541,0.02487
4591.68388,0.01922
4593.61235,0.01237
4595.54081,0.00340
4597.46928,0.00142
4599.39775,0.01423
4601.32622,0.02942
4603.25469,0.03124
4605.18316,0.02086
4607.11163,0.01263
4609.04010,0.01674
4610.96856,0.02417
4612.89703,0.02065
4614.82550,0.01018
4616.75397,0.00483
4618.68244,0.00683
4620.61091,0.01513
4622.53938,0.01942
4624.46784,0.00637
4626.39631,-0.00490
4628.32478,0.00747
4630.25325,0.02508
4632.18172,0.02792
4634.11019,0.02215
4636.03866,0.01263
4637.96713,-0.00236
4639.89559,-0.01239
4641.82406,-0.00922
4643.75253,0.00088
4645.68100,0.01167
4647.60947,0.01878
4649.53794,0.01890
4651.46641,0.01480
4653.39487,0.01035
4655.32334,0.00767
4657.25181,0.00582
4659.18028,0.00130
4661.10875,-0.00679
4663.03722,-0.01689
4664.96569,-0.02231
4666.89416,-0.01619
4668.82262,-0.00469
4670.75109,0.00230
4672.67956,0.00399
4674.60803,0.00607
4676.53650,0.01365
4678.46497,0.02117
4680.39344,0.01765
4682.32190,0.00497
4684.25037,-0.00242
4686.17884,0.00007
4688.10731,0.00507
4690.03578,0.00951
4691.96425,0.01153
4693.89272,0.01535
4695.82119,0.02447
4697.74965,0.02663
4699.67812,0.01647
4701.60659,0.00811
4703.53506,0.01531
4705.46353,0.02711
4707.39200,0.02107
4709.32047,0.00312
4711.24893,-0.00397
4713.17740,0.00359
4715.10587,0.01149
4717.03434,0.01110
4718.96281,0.00580
4720.89128,-0.00123
4722.81975,-0.00603
4724.74821,-0.00365
4726.67668,0.00400
4728.60515,0.01156
4730.53362,0.01712
4732.46209,0.02161
4734.39056,0.02188
4736.31903,0.01764
4738.24750,0.01685
4740.17596,0.01903
4742.10443,0.01573
4744.03290,0.00451
4745.96137,-0.00871
4747.88984,-0.01529
4749.81831,-0.00980
4751.74678,0.00400
4753.67524,0.01201
4755.60371,0.01253
4757.53218,0.01854
4759.46065,0.02799
4761.38912,0.02690
4763.31759,0.01801
4765.24606,0.01487
4767.17453,0.01488
4769.10299,0.01156
4771.03146,0.00618
4772.95993,-0.00072
4774.88840,-0.00348
4776.81687,-0.00134
4778.74534,-0.00304
4780.67381,-0.00833
4782.60227,-0.01127
4784.53074,-0.01301
4786.45921,-0.01119
4788.38768,0.00337
4790.31615,0.02126
4792.24462,0.02217
4794.17309,0.00999
4796.10156,-0.00249
4798.03002,-0.01204
4799.95849,-0.01063
4801.88696,-0.00133
4803.81543,0.00047
4805.74390,-0.00391
4807.67237,-0.00546
4809.60084,-0.00426
4811.52930,-0.00136
4813.45777,0.00119
4815.38624,0.00032
4817.31471,0.00338
4819.24318,0.01296
4821.17165,0.01816
4823.10012,0.01662
4825.02859,0.01525
4826.95705,0.01551
4828.88552,0.01723
4830.81399,0.02470
4832.74246,0.03036
4834.67093,0.02410
4836.59940,0.01393
4838.52787,0.00187
4840.45633,-0.01152
4842.38480,-0.01309
4844.31327,-0.00710
4846.24174,-0.00472
4848.17021,0.00047
4850.09868,0.01060
4852.02715,0.01390
4853.95562,0.00324
4855.88408,-0.00905
4857.81255,-0.00555
4859.74102,0.01258
4861.66949,0.03036
4863.59796,0.03375
4865.52643,0.01580
4867.45490,-0.00814
4869.38336,-0.00534
4871.31183,0.01910
4873.24030,0.03150
4875.16877,0.02852
4877.09724,0.02151
4879.02571,0.01588
4880.95418,0.01572
4882.88265,0.01905
4884.81111,0.01760
4886.73958,0.00701
4888.66805,-0.00038
4890.59652,-0.00267
4892.52499,-0.01200
4894.45346,-0.01580
4896.38193,0.00197
4898.31039,0.02622
4900.23886,0.03415
4902.16733,0.02287
4904.09580,0.00618
4906.02427,0.00132
4907.95274,0.00685
4909.88121,0.00894
4911.80967,0.00559
4913.73814,0.00399
4915.66661,0.00708
4917.59508,0.00950
4919.52355,0.00561
4921.45202,0.00058
4923.38049,0.00304
4925.30896,0.00798
4927.23742,0.00787
4929.16589,0.00666
4931.09436,0.00174
4933.02283,-0.00314
4934.95130,0.00637
4936.87977,0.02073
4938.80824,0.03054
4940.73670,0.03631
4942.66517,0.03080
4944.59364,0.02201
4946.52211,0.01884
4948.45058,0.01307
4950.37905,0.00456
4952.30752,0.00515
4954.23599,0.01695
4956.16445,0.02563
4958.09292,0.02287
4960.02139,0.01963
4961.94986,0.02592
4963.87833,0.03139
4965.80680,0.02884
4967.73527,0.02728
4969.66373,0.02755
4971.59220,0.02545
4973.52067,0.02077
4975.44914,0.01443
4977.37761,0.01657
4979.30608,0.02387
4981.23455,0.01648
4983.16302,0.00492
4985.09148,0.00496
4987.01995,0.00937
4988.94842,0.01230
4990.87689,0.01109
4992.80536,0.00488
4994.73383,-0.00208
4996.66230,0.00183
4998.59076,0.01182
5000.51923,0.01533
5002.44770,0.01949
5004.37617,0.01884
5006.30464,0.00801
5008.23311,0.00309
5010.16158,0.01171
5012.09005,0.02129
5014.01851,0.02385
5015.94698,0.03065
5017.87545,0.03334
5019.80392,0.01845
5021.73239,0.00506
5023.66086,0.00323
5025.58933,0.00649
5027.51779,0.01194
5029.44626,0.01331
5031.37473,0.01440
5033.30320,0.01990
5035.23167,0.01715
5037.16014,0.00201
5039.08861,-0.01364
5041.01708,-0.02343
5042.94554,-0.02089
5044.87401,-0.00168
5046.80248,0.01714
5048.73095,0.02411
5050.65942,0.02959
5052.58789,0.03821
5054.51636,0.03922
5056.44482,0.02464
5058.37329,0.01566
5060.30176,0.02839
5062.23023,0.03946
5064.15870,0.03382
5066.08717,0.02102
5068.01564,0.01308
5069.94410,0.01450
5071.87257,0.01813
5073.80104,0.01895
5075.72951,0.02273
5077.65798,0.02609
5079.58645,0.01792
5081.51492,0.01311
5083.44339,0.02186
5085.37185,0.02508
5087.30032,0.02440
5089.22879,0.02947
5091.15726,0.03240
5093.08573,0.03627
5095.01420,0.04064
5096.94267,0.03272
5098.87113,0.01527
5100.79960,0.00416
5102.72807,0.00518
5104.65654,0.01240
5106.58501,0.01950
5108.51348,0.02316
5110.44195,0.02246
5112.37042,0.01194
5114.29888,0.00159
5116.22735,0.01041
5118.15582,0.02557
5120.08429,0.02493
5122.01276,0.00543
5123.94123,-0.01160
5125.86970,-0.01095
5127.79816,-0.00897
5129.72663,-0.00771
5131.65510,-0.00047
5133.58357,0.00152
5135.51204,-0.00086
5137.44051,0.00329
5139.36898,0.00829
5141.29745,0.00804
5143.22591,0.01241
5145.15438,0.02510
5147.08285,0.03580
5149.01132,0.03001
5150.93979,0.01240
5152.86826,0.00937
5154.79673,0.02405
5156.72519,0.04172
5158.65366,0.05465
5160.58213,0.05799
5162.51060,0.05238
5164.43907,0.04054
5166.36754,0.03268
5168.29601,0.04018
5170.22448,0.05203
5172.15294,0.05214
5174.08141,0.05223
5176.00988,0.06573
5177.93835,0.07869
5179.86682,0.08063
5181.79529,0.07557
5183.72376,0.06823
5185.65222,0.06299
5187.58069,0.05735
5189.50916,0.05026
5191.43763,0.04268
5193.36610,0.03936
5195.29457,0.04055
5197.22304,0.03461
5199.15151,0.02903
5201.07997,0.03338
5203.00844,0.03598
5204.93691,0.03084
5206.86538,0.02530
5208.79385,0.02447
5210.72232,0.02609
5212.65079,0.03148
5214.57925,0.03603
5216.50772,0.03152
5218.43619,0.02591
5220.36466,0.02879
5222.29313,0.02700
5224.22160,0.01756
5226.15007,0.02159
5228.07854,0.03981
5230.00700,0.05377
5231.93547,0.05635
5233.86394,0.04689
5235.79241,0.03618
5237.72088,0.03770
5239.64935,0.04755
5241.57782,0.06137
5243.50628,0.07266
5245.43475,0.06017
5247.36322,0.03374
5249.29169,0.02578
5251.22016,0.03040
5253.14863,0.02568
5255.07710,0.01918
5257.00556,0.02207
5258.93403,0.02433
5260.86250,0.02963
5262.79097,0.05060
5264.71944,0.05949
5266.64791,0.03983
5268.57638,0.02449
5270.50485,0.02911
5272.43331,0.04932
5274.36178,0.06335
5276.29025,0.04874
5278.21872,0.02672
5280.14719,0.02586
5282.07566,0.03511
5284.00413,0.03816
5285.93259,0.04303
5287.86106,0.04939
5289.78953,0.04624
5291.71800,0.03943
5293.64647,0.03801
5295.57494,0.04121
5297.50341,0.04203
5299.43188,0.04451
5301.36034,0.06033
5303.28881,0.07496
5305.21728,0.07021
5307.14575,0.06234
5309.07422,0.06331
5311.00269,0.05307
5312.93116,0.03955
5314.85962,0.05208
5316.78809,0.07915
5318.71656,0.08746
5320.64503,0.07617
5322.57350,0.07019
5324.50197,0.07936
5326.43044,0.08097
5328.35891,0.06391
5330.28737,0.05633
5332.21584,0.06268
5334.14431,0.06162
5336.07278,0.05651
5338.00125,0.06055
5339.92972,0.06525
5341.85819,0.05428
5343.78665,0.03708
5345.71512,0.04250
5347.64359,0.06422
5349.57206,0.07821
5351.50053,0.08769
5353.42900,0.09175
5355.35747,0.07089
5357.28594,0.04254
5359.21440,0.04035
5361.14287,0.05073
5363.07134,0.04922
5364.99981,0.04503
5366.92828,0.03647
5368.85675,0.02761
5370.78522,0.03129
5372.71368,0.03501
5374.64215,0.04074
5376.57062,0.06027
5378.49909,0.07367
5380.42756,0.06367
5382.35603,0.04821
5384.28450,0.05449
5386.21297,0.07609
5388.14143,0.08388
5390.06990,0.07065
5391.99837,0.05627
5393.92684,0.05533
5395.85531,0.05110
5397.78378,0.04312
5399.71225,0.04437
5401.64071,0.05626
5403.56918,0.07592
5405.49765,0.09001
5407.42612,0.09092
5409.35459,0.09517
5411.28306,0.11225
5413.21153,0.10787
5415.13999,0.07495
5417.06846,0.05165
5418.99693,0.04605
5420.92540,0.05535
5422.85387,0.06722
5424.78234,0.06081
5426.71081,0.04099
5428.63928,0.03560
5430.56774,0.05494
5432.49621,0.07760
5434.42468,0.07663
5436.35315,0.05921
5438.28162,0.06826
5440.21009,0.09220
5442.13856,0.09732
5444.06702,0.09933
5445.99549,0.11549
5447.92396,0.12868
5449.85243,0.10904
5451.78090,0.07311
5453.70937,0.06895
5455.63784,0.08833
5457.56631,0.08281
5459.49477,0.06361
5461.42324,0.06020
5463.35171,0.05123
5465.28018,0.04206
5467.20865,0.06169
5469.13712,0.09613
5471.06559,0.10713
5472.99405,0.08979
5474.92252,0.06479
5476.85099,0.05695
5478.77946,0.06893
5480.70793,0.07274
5482.63640,0.05868
5484.56487,0.04421
5486.49334,0.05236
5488.42180,0.08110
5490.35027,0.08297
5492.27874,0.05505
5494.20721,0.04620
5496.13568,0.04359
5498.06415,0.03065
5499.99262,0.04047
5501.92108,0.06607
5503.84955,0.06866
5505.77802,0.05465
5507.70649,0.04312
5509.63496,0.04720
5511.56343,0.06511
5513.49190,0.07642
5515.42037,0.07163
5517.34883,0.05251
5519.27730,0.03625
5521.20577,0.03581
5523.13424,0.04810
5525.06271,0.06973
5526.99118,0.08023
5528.91965,0.07661
5530.84811,0.08443
5532.77658,0.09126
5534.70505,0.07022
5536.63352,0.04313
5538.56199,0.04718
5540.49046,0.07284
5542.41893,0.09077
5544.34740,0.10410
5546.27586,0.10986
5548.20433,0.07773
5550.13280,0.02515
5552.06127,0.00496
5553.98974,0.02582
5555.91821,0.04914
5557.84668,0.06068
5559.77514,0.08534
5561.70361,0.10639
5563.63208,0.10768
5565.56055,0.12821
5567.48902,0.14595
5569.41749,0.11917
5571.34596,0.08727
5573.27443,0.08097
5575.20289,0.09030
5577.13136,0.10549
5579.05983,0.12473
5580.98830,0.13063
5582.91677,0.10409
5584.84524,0.06911
5586.77371,0.04345
5588.70217,0.02287
5590.63064,0.01803
5592.55911,0.02907
5594.48758,0.04105
5596.41605,0.05823
5598.34452,0.08983
5600.27299,0.11791
5602.20145,0.11541
5604.12992,0.07442
5606.05839,0.02758
5607.98686,0.02082
5609.91533,0.04707
5611.84380,0.07922
5613.77227,0.09270
5615.70074,0.07603
5617.62920,0.06648
5619.55767,0.07980
5621.48614,0.09341
5623.41461,0.10583
5625.34308,0.11760
5627.27155,0.10380
5629.20002,0.06854
5631.12848,0.05036
5633.05695,0.05452
5634.98542,0.07089
5636.91389,0.08221
5638.84236,0.07798
5640.77083,0.07523
5642.69930,0.07696
5644.62777,0.07918
5646.55623,0.08757
5648.48470,0.09839
5650.41317,0.10084
5652.34164,0.09973
5654.27011,0.10450
5656.19858,0.10606
5658.12705,0.10322
5660.05551,0.10920
5661.98398,0.11202
5663.91245,0.09975
5665.84092,0.09866
5667.76939,0.11145
5669.69786,0.11767
5671.62633,0.11996
5673.55480,0.12354
5675.48326,0.11276
5677.41173,0.07716
5679.34020,0.04876
5681.26867,0.04091
5683.19714,0.03158
5685.12561,0.01984
5687.05408,0.01332
5688.98254,0.02212
5690.91101,0.05886
5692.83948,0.09950
5694.76795,0.10566
5696.69642,0.08755
5698.62489,0.07045
5700.55336,0.04953
5702.48183,0.03850
5704.41029,0.05624
5706.33876,0.06918
5708.26723,0.05204
5710.19570,0.03921
5712.12417,0.06401
5714.05264,0.10688
5715.98111,0.11909
5717.90957,0.10262
5719.83804,0.10479
5721.76651,0.12722
5723.69498,0.12898
5725.62345,0.10725
5727.55192,0.09499
5729.48039,0.09231
5731.40886,0.07974
5733.33732,0.04935
5735.26579,0.01465
5737.19426,0.00962
5739.12273,0.01881
5741.05120,0.02708
5742.97967,0.06080
5744.90814,0.10132
5746.83660,0.11094
5748.76507,0.10003
5750.69354,0.09685
5752.62201,0.10987
5754.55048,0.13399
5756.47895,0.15247
5758.40742,0.15357
5760.33588,0.13838
5762.26435,0.11795
5764.19282,0.11089
5766.12129,0.10969
5768.04976,0.11037
5769.97823,0.13256
5771.90670,0.15428
5773.83517,0.14648
5775.76363,0.12744
5777.69210,0.10970
5779.62057,0.09902
5781.54904,0.11695
5783.47751,0.15238
5785.40598,0.15652
5787.33445,0.12767
5789.26291,0.10403
5791.19138,0.08797
5793.11985,0.07683
5795.04832,0.07632
5796.97679,0.07147
5798.90526,0.05347
5800.83373,0.05113
5802.76220,0.07776
5804.69066,0.10274
5806.61913,0.10261
5808.54760,0.08119
5810.47607,0.05803
5812.40454,0.03915
5814.33301,0.02446
5816.26148,0.02598
5818.18994,0.04617
5820.11841,0.07173
5822.04688,0.06988
5823.97535,0.04400
5825.90382,0.03248
5827.83229,0.04346
5829.76076,0.05830
5831.68923,0.04753
5833.61769,0.01020
5835.54616,-0.01224
5837.47463,0.01303
5839.40310,0.05838
5841.33157,0.08169
5843.26004,0.09483
5845.18851,0.11895
5847.11697,0.14546
5849.04544,0.15214
5850.97391,0.14487
5852.90238,0.13884
5854.83085,0.10772
5856.75932,0.05733
5858.68779,0.04001
5860.61626,0.05852
5862.54472,0.08396
5864.47319,0.11252
5866.40166,0.13021
5868.33013,0.12638
5870.25860,0.11564
5872.18707,0.10562
5874.11554,0.09298
5876.04400,0.08774
5877.97247,0.09969
5879.90094,0.09109
5881.82941,0.06068
5883.75788,0.05534
5885.68635,0.07180
5887.61482,0.09469
5889.54329,0.09507
5891.47175,0.05971
5893.40022,0.03652
5895.32869,0.03836
5897.25716,0.05150
5899.18563,0.08280
5901.11410,0.10638
5903.04257,0.09129
5904.97103,0.07212
5906.89950,0.08323
5908.82797,0.09994
5910.75644,0.09950
5912.68491,0.10087
5914.61338,0.11433
5916.54185,0.11307
5918.47032,0.08762
5920.39878,0.07919
5922.32725,0.09933
5924.25572,0.10298
5926.18419,0.09285
5928.11266,0.10320
5930.04113,0.10848
5931.96960,0.09114
5933.89806,0.07438
5935.82653,0.07954
5937.75500,0.10504
5939.68347,0.12663
5941.61194,0.14959
5943.54041,0.16348
5945.46888,0.12018
5947.39734,0.04914
5949.32581,0.01319
5951.25428,0.01033
5953.18275,0.01668
5955.11122,0.02393
5957.03969,0.03703
5958.96816,0.07108
5960.89663,0.09771
5962.82509,0.08127
5964.75356,0.05436
5966.68203,0.05079
5968.61050,0.06395
5970.53897,0.08210
5972.46744,0.07946
5974.39591,0.05176
5976.32437,0.05373
5978.25284,0.09394
5980.18131,0.11669
5982.10978,0.09289
5984.03825,0.05980
5985.96672,0.06159
5987.89519,0.08908
5989.82366,0.11869
5991.75212,0.14902
5993.68059,0.18928
5995.60906,0.20970
5997.53753,0.18382
5999.46600,0.14753
6001.39447,0.11754
6003.32294,0.09124
6005.25140,0.07668
6007.17987,0.09217
6009.10834,0.13729
6011.03681,0.15657
6012.96528,0.12012
6014.89375,0.07791
6016.82222,0.08352
6018.75069,0.10250
6020.67915,0.06232
6022.60762,0.00704
6024.53609,0.00190
6026.46456,0.01855
6028.39303,0.04104
6030.32150,0.07861
6032.24997,0.09092
6034.17843,0.07784
6036.10690,0.10301
6038.03537,0.14034
6039.96384,0.12532
6041.89231,0.10033
6043.82078,0.13601
6045.74925,0.20441
6047.67772,0.20785
6049.60618,0.11839
6051.53465,0.03154
6053.46312,0.00563
6055.39159,0.00029
6057.32006,-0.00760
6059.24853,-0.00147
6061.17700,0.01683
6063.10546,0.05335
6065.03393,0.11488
6066.96240,0.16695
6068.89087,0.14334
6070.81934,0.06315
6072.74781,0.02375
6074.67628,0.03644
6076.60475,0.07298
6078.53321,0.10775
6080.46168,0.10771
6082.39015,0.09634
6084.31862,0.08765
6086.24709,0.05894
6088.17556,0.02610
6090.10403,0.00889
6092.03249,0.01066
6093.96096,0.05603
6095.88943,0.13115
6097.81790,0.16298
6099.74637,0.12483
6101.67484,0.07644
6103.60331,0.06420
6105.53177,0.07206
6107.46024,0.09283
6109.38871,0.12443
6111.31718,0.13616
6113.24565,0.12532
6115.17412,0.10319
6117.10259,0.09294
6119.03106,0.13677
6120.95952,0.17378
6122.88799,0.14770
6124.81646,0.12180
6126.74493,0.12970
6128.67340,0.14721
6130.60187,0.16335
6132.53034,0.15067
6134.45880,0.09726
6136.38727,0.07663
6138.31574,0.11011
6140.24421,0.11290
6142.17268,0.08300
6144.10115,0.08467
6146.02962,0.08736
6147.95809,0.06837
6149.88655,0.07889
6151.81502,0.11939
6153.74349,0.13831
6155.67196,0.13055
6157.60043,0.09493
6159.52890,0.03072
6161.45737,0.01102
6163.38583,0.07229
6165.31430,0.11388
6167.24277,0.08859
6169.17124,0.06225
6171.09971,0.07156
6173.02818,0.09236
6174.95665,0.09043
6176.88512,0.06337
6178.81358,0.04570
6180.74205,0.06866
6182.67052,0.07897
6184.59899,0.04364
6186.52746,0.04254
6188.45593,0.08058
6190.38440,0.07827
6192.31286,0.06739
6194.24133,0.08389
6196.16980,0.10122
6198.09827,0.11415
6200.02674,0.12511
6201.95521,0.10924
6203.88368,0.07928
6205.81215,0.09149
6207.74061,0.12622
6209.66908,0.12905
6211.59755,0.08456
6213.52602,0.02613
6215.45449,0.01834
6217.38296,0.06845
6219.31143,0.11232
6221.23989,0.12002
6223.16836,0.11791
6225.09683,0.13663
6227.02530,0.17647
6228.95377,0.21472
6230.88224,0.20578
6232.81071,0.14607
6234.73918,0.09252
6236.66764,0.05135
6238.59611,0.01571
6240.52458,-0.00480
6242.45305,-0.00725
6244.38152,0.03846
6246.30999,0.12513
6248.23846,0.17870
6250.16692,0.17197
6252.09539,0.11781
6254.02386,0.03137
6255.95233,-0.03406
6257.88080,-0.03933
6259.80927,-0.00838
6261.73774,0.02383
6263.66621,0.03000
6265.59467,0.01765
6267.52314,0.01924
6269.45161,0.02806
6271.38008,0.03950
6273.30855,0.04035
6275.23702,0.02013
6277.16549,0.04313
6279.09395,0.10088
6281.02242,0.09332
6282.95089,0.05146
6284.87936,0.08676
6286.80783,0.15441
6288.73630,0.16781
6290.66477,0.14381
6292.59323,0.11238
6294.52170,0.10342
6296.45017,0.11396
6298.37864,0.08919
6300.30711,0.04951
6302.23558,0.03490
6304.16405,0.00970
6306.09252,-0.00359
6308.02098,0.05215
6309.94945,0.12442
6311.87792,0.15230
6313.80639,0.15166
6315.73486,0.13563
6317.66333,0.12577
6319.59180,0.15377
6321.52026,0.16068
6323.44873,0.07800
6325.37720,-0.04393
6327.30567,-0.12318
6329.23414,-0.10884
6331.16261,-0.06456
6333.09108,-0.04103
6335.01955,0.04304
6336.94801,0.15449
6338.87648,0.17641
6340.80495,0.13215
6342.73342,0.11647
6344.66189,0.12677
6346.59036,0.12884
6348.51883,0.15024
6350.44729,0.18597
6352.37576,0.17023
6354.30423,0.12147
6356.23270,0.10548
6358.16117,0.11643
6360.08964,0.15811
6362.01811,0.22660
6363.94658,0.23167
6365.87504,0.15051
6367.80351,0.07034
6369.73198,0.03885
6371.66045,0.04660
6373.58892,0.07214
6375.51739,0.08513
6377.44586,0.07807
6379.37432,0.07520
6381.30279,0.11160
6383.23126,0.13805
6385.15973,0.07610
6387.08820,0.01301
6389.01667,0.00633
6390.94514,0.01864
6392.87361,0.03370
6394.80207,0.05093
6396.73054,0.05045
6398.65901,0.02677
6400.58748,0.01642
6402.51595,0.06186
6404.44442,0.13817
6406.37289,0.15309
6408.30135,0.08671
6410.22982,0.02420
6412.15829,0.02607
6414.08676,0.08657
6416.01523,0.12723
6417.94370,0.08818
6419.87217,0.00589
6421.80064,-0.03568
6423.72910,0.00452
6425.65757,0.06895
6427.58604,0.07910
6429.51451,0.10247
6431.44298,0.19597
6433.37145,0.25424
6435.29992,0.21911
6437.22838,0.14358
6439.15685,0.09692
6441.08532,0.08706
6443.01379,0.07882
6444.94226,0.08056
6446.87073,0.10382
6448.79920,0.11029
6450.72766,0.07918
6452.65613,0.03358
6454.58460,0.01265
6456.51307,0.04062
6458.44154,0.08529
6460.37001,0.12507
6462.29848,0.16915
6464.22695,0.18401
6466.15541,0.15045
6468.08388,0.08689
6470.01235,0.00469
6471.94082,-0.05142
6473.86929,-0.06635
6475.79776,-0.06323
6477.72623,0.00935
6479.65469,0.09381
6481.58316,0.06145
6483.51163,-0.00829
6485.44010,-0.01645
6487.36857,-0.00528
6489.29704,-0.01464
6491.22551,-0.04133
6493.15398,-0.04471
6495.08244,-0.00732
6497.01091,0.01462
6498.93938,0.03234
6500.86785,0.08168
6502.79632,0.10241
6504.72479,0.08602
6506.65326,0.10755
6508.58172,0.17526
6510.51019,0.21219
6512.43866,0.18111
6514.36713,0.12925
6516.29560,0.11038
6518.22407,0.11978
6520.15254,0.09994
6522.08101,0.06767
6524.00947,0.09286
6525.93794,0.14479
6527.86641,0.13518
6529.79488,0.09554
6531.72335,0.09396
6533.65182,0.09815
6535.58029,0.06252
6537.50875,0.03258
6539.43722,0.02079
6541.36569,0.01375
6543.29416,0.06305
6545.22263,0.12241
6547.15110,0.13618
6549.07957,0.15542
6551.00804,0.19190
6552.93650,0.20127
6554.86497,0.16802
6556.79344,0.12808
6558.72191,0.12198
6560.65038,0.16156
6562.57885,0.17212
6564.50732,0.10290
6566.43578,0.05272
6568.36425,0.06040
6570.29272,0.06455
6572.22119,0.05605
6574.14966,0.04037
6576.07813,0.01399
6578.00660,0.01099
6579.93507,0.04918
6581.86353,0.08726
6583.79200,0.07808
6585.72047,0.04812
6587.64894,0.04092
6589.57741,0.01102
6591.50588,-0.03967
6593.43435,-0.02915
6595.36281,0.01380
6597.29128,-0.00804
6599.21975,-0.02678
6601.14822,0.03148
6603.07669,0.06642
6605.00516,0.04643
6606.93363,0.03312
6608.86210,0.03814
6610.79056,0.02774
6612.71903,0.00156
6614.64750,0.02312
6616.57597,0.08539
6618.50444,0.13494
6620.43291,0.18051
6622.36138,0.20290
6624.28984,0.14373
6626.21831,0.06543
6628.14678,0.06931
6630.07525,0.09428
6632.00372,0.02910
6633.93219,-0.06929
6635.86066,-0.12040
6637.78912,-0.12540
6639.71759,-0.06598
6641.64606,0.04233
6643.57453,0.08035
6645.50300,0.02066
6647.43147,0.00270
6649.35994,0.04815
6651.28841,0.07313
6653.21687,0.09601
6655.14534,0.11912
6657.07381,0.09896
6659.00228,0.07967
6660.93075,0.11851
6662.85922,0.14637
6664.78769,0.11709
6666.71615,0.11041
6668.64462,0.14241
6670.57309,0.15169
6672.50156,0.12318
6674.43003,0.10772
6676.35850,0.15622
6678.28697,0.19367
6680.21544,0.14245
6682.14390,0.06568
6684.07237,0.04728
6686.00084,0.08822
6687.92931,0.14113
6689.85778,0.17364
6691.78625,0.21597
6693.71472,0.27698
6695.64318,0.30273
6697.57165,0.24554
6699.50012,0.14660
6701.42859,0.07443
6703.35706,0.01014
6705.28553,-0.02006
6707.21400,0.06671
6709.14247,0.14644
6711.07093,0.09337
6712.99940,0.01189
6714.92787,0.00989
6716.85634,0.06358
6718.78481,0.10309
6720.71328,0.14008
6722.64175,0.18820
6724.57021,0.19003
6726.49868,0.11688
6728.42715,0.00381
6730.35562,-0.05500
6732.28409,-0.02553
6734.21256,0.01048
6736.14103,0.06091
6738.06950,0.16342
6739.99796,0.23244
6741.92643,0.17717
6743.85490,0.07039
6745.78337,0.04166
6747.71184,0.10942
6749.64031,0.14804
6751.56878,0.08937
6753.49724,0.07232
6755.42571,0.11819
6757.35418,0.11562
6759.28265,0.06908
6761.21112,0.00565
6763.13959,-0.03786
6765.06806,0.00515
6766.99653,0.11366
6768.92499,0.16792
6770.85346,0.12116
6772.78193,0.06455
6774.71040,0.04032
6776.63887,0.01203
6778.56734,0.01096
6780.49581,0.05544
6782.42427,0.12083
6784.35274,0.18576
6786.28121,0.20198
6788.20968,0.17286
6790.13815,0.11272
6792.06662,0.00987
6793.99509,-0.04915
6795.92355,-0.00148
6797.85202,0.09587
6799.78049,0.13677
6801.70896,0.12261
6803.63743,0.17755
6805.56590,0.20884
6807.49437,0.10831
6809.42284,0.03490
6811.35130,0.04518
6813.27977,0.03798
6815.20824,0.03627
6817.13671,0.06971
6819.06518,0.06859
6820.99365,0.04703
6822.92212,0.02639
6824.85058,-0.01104
6826.77905,-0.01214
6828.70752,0.01459
6830.63599,-0.00209
6832.56446,-0.04270
6834.49293,-0.08462
6836.42140,-0.12491
6838.34987,-0.15203
6840.27833,-0.16817
6842.20680,-0.16161
6844.13527,-0.12642
6846.06374,-0.08111
6847.99221,-0.05386
6849.92068,-0.04140
6851.84915,0.00608
6853.77761,0.07872
6855.70608,0.08121
6857.63455,0.03493
6859.56302,0.05303
6861.49149,0.09844
6863.41996,0.12123
6865.34843,0.14032
6867.27690,0.14578
6869.20536,0.13663
6871.13383,0.09013
6873.06230,0.01356
6874.99077,0.04549
6876.91924,0.15784
6878.84771,0.18837
6880.77618,0.08344
6882.70464,-0.01874
6884.63311,0.03887
6886.56158,0.18884
6888.49005,0.26671
6890.41852,0.23012
6892.34699,0.09473
6894.27546,-0.00681
6896.20393,0.03526
6898.13239,0.11869
6900.06086,0.09159
6901.98933,0.02288
6903.91780,0.04502
6905.84627,0.09305
6907.77474,0.06765
6909.70321,0.06514
6911.63167,0.13199
6913.56014,0.17802
6915.48861,0.13484
6917.41708,0.08013
6919.34555,0.09693
6921.27402,0.10617
6923.20249,0.07071
6925.13096,0.10345
6927.05942,0.18698
6928.98789,0.18181
6930.91636,0.11458
6932.84483,0.10971
6934.77330,0.09933
6936.70177,0.02936
6938.63024,-0.02489
6940.55870,0.04546
6942.48717,0.19853
6944.41564,0.25815
6946.34411,0.16964
6948.27258,0.03525
6950.20105,-0.02105
6952.12952,0.00234
6954.05799,0.06025
6955.98645,0.14581
6957.91492,0.19312
6959.84339,0.11161
6961.77186,-0.02694
6963.70033,-0.08982
6965.62880,-0.07741
6967.55727,-0.03635
6969.48573,-0.00277
6971.41420,-0.00395
6973.34267,-0.07731
6975.27114,-0.17777
6977.19961,-0.17345
6979.12808,-0.11765
6981.05655,-0.09715
6982.98501,-0.08083
6984.91348,-0.01915
6986.84195,0.09452
6988.77042,0.18344
6990.69889,0.17655
6992.62736,0.13391
6994.55583,0.10372
6996.48430,0.07327
6998.41276,0.02959
7000.34123,0.00653
7002.26970,0.05466
7004.19817,0.17555
7006.12664,0.29844
7008.05511,0.26542
7009.98358,0.09541
7011.91204,-0.03095
7013.84051,-0.03168
7015.76898,0.00790
7017.69745,0.01274
7019.62592,-0.00693
7021.55439,-0.05114
7023.48286,-0.05812
7025.41133,0.01171
7027.33979,0.05570
7029.26826,0.01661
7031.19673,0.00855
7033.12520,0.08942
7035.05367,0.16009
7036.98214,0.14001
7038.91061,0.11528
7040.83907,0.18569
7042.76754,0.25916
7044.69601,0.16673
7046.62448,-0.00687
7048.55295,-0.14719
7050.48142,-0.17699
7052.40989,-0.05780
7054.33836,0.12132
7056.26682,0.21625
7058.19529,0.17808
7060.12376,0.12003
7062.05223,0.10769
7063.98070,0.05137
7065.90917,-0.03002
7067.83764,-0.00466
7069.76610,0.07322
7071.69457,0.01491
7073.62304,-0.11607
7075.55151,-0.12418
7077.47998,-0.00295
7079.40845,0.12318
7081.33692,0.15932
7083.26539,0.16219
7085.19385,0.15649
7087.12232,0.15031
7089.05079,0.21520
7090.97926,0.27740
7092.90773,0.23473
7094.83620,0.11241
7096.76467,-0.01237
7098.69313,-0.07068
7100.62160,-0.08000
7102.55007,-0.10183
7104.47854,-0.13243
7106.40701,-0.11411
7108.33548,-0.04815
7110.26395,-0.04181
7112.19242,-0.07814
7114.12088,0.01292
7116.04935,0.22918
7117.97782,0.25933
7119.90629,0.05838
7121.83476,-0.04321
7123.76323,-0.08896
7125.69170,-0.17469
7127.62016,-0.19909
7129.54863,-0.12617
7131.47710,-0.03753
7133.40557,-0.01218
7135.33404,0.01498
7137.26251,0.15088
7139.19098,0.26257
7141.11944,0.17255
7143.04791,-0.02436
7144.97638,-0.12932
7146.90485,0.00654
7148.83332,0.22286
7150.76179,0.24518
7152.69026,0.12042
7154.61873,0.09990
7156.54719,0.14596
7158.47566,0.16417
7160.40413,0.20295
7162.33260,0.16337
7164.26107,0.03488
7166.18954,0.05609
7168.11801,0.19692
7170.04647,0.22983
7171.97494,0.12299
7173.90341,0.00462
7175.83188,0.06716
7177.76035,0.27466
7179.68882,0.33271
7181.61729,0.19772
7183.54576,0.04406
7185.47422,-0.02709
7187.40269,-0.03942
7189.33116,0.01151
7191.25963,0.09000
7193.18810,0.07803
7195.11657,-0.02069
7197.04504,-0.04831
7198.97350,0.03765
7200.90197,0.12320
7202.83044,0.14940
7204.75891,0.12552
7206.68738,0.15585
7208.61585,0.24780
7210.54432,0.30696
7212.47279,0.25956
7214.40125,0.13675
7216.32972,0.06641
7218.25819,0.03090
7220.18666,-0.03422
7222.11513,-0.00921
7224.04360,0.10557
7225.97207,0.21332
7227.90053,0.18289
7229.82900,0.11971
7231.75747,0.15758
7233.68594,0.10131
7235.61441,-0.04622
7237.54288,-0.03387
7239.47135,0.11507
7241.39982,0.15503
7243.32828,0.06205
7245.25675,0.02126
7247.18522,-0.00300
7249.11369,-0.02344
7251.04216,0.07322
7252.97063,0.11578
7254.89910,-0.00239
7256.82756,-0.04722
7258.75603,-0.05904
7260.68450,-0.02084
7262.61297,0.16277
7264.54144,0.32908
7266.46991,0.34036
7268.39838,0.20881
7270.32685,0.01642
7272.25531,-0.13286
7274.18378,-0.12563
7276.11225,0.04113
7278.04072,0.21688
7279.96919,0.25717
7281.89766,0.17936
7283.82613,0.07624
7285.75459,-0.04702
7287.68306,-0.09574
7289.61153,0.07799
7291.54000,0.35309
7293.46847,0.41775
7295.39694,0.32137
7297.32541,0.21227
7299.25387,0.07390
7301.18234,-0.03398
7303.11081,-0.03549
7305.03928,-0.00188
7306.96775,0.01302
7308.89622,0.05993
7310.82469,0.21511
7312.75316,0.32182
7314.68162,0.22647
7316.61009,0.08574
7318.53856,0.10734
7320.46703,0.13531
7322.39550,0.04901
7324.32397,-0.04078
7326.25244,-0.08022
7328.18090,-0.16777
7330.10937,-0.19251
7332.03784,-0.08354
7333.96631,0.01686
7335.89478,0.06284
7337.82325,0.07030
7339.75172,0.10093
7341.68019,0.07075
7343.60865,0.00625
7345.53712,0.09797
7347.46559,0.20544
7349.39406,0.12596
7351.32253,-0.04868
7353.25100,-0.12412
7355.17947,0.01551
7357.10793,0.28796
7359.03640,0.38152
7360.96487,0.16744
7362.89334,-0.09444
7364.82181,-0.22689
7366.75028,-0.19368
7368.67875,-0.05149
7370.60722,0.09883
7372.53568,0.26400
7374.46415,0.48739
7376.39262,0.59945
7378.32109,0.43016
7380.24956,0.08856
7382.17803,-0.12667
7384.10650,-0.03073
7386.03496,0.13715
7387.96343,0.19749
7389.89190,0.19514
7391.82037,0.15358
7393.74884,0.13390
7395.67731,0.10903
7397.60578,-0.04707
7399.53425,-0.15400
7401.46271,-0.07827
7403.39118,0.05363
7405.31965,0.07139
7407.24812,0.02026
7409.17659,0.04855
7411.10506,0.10196
7413.03353,0.12594
7414.96199,0.12165
7416.89046,0.04386
7418.81893,-0.07932
7420.74740,-0.10068
7422.67587,0.01692
7424.60434,0.08608
7426.53281,0.04813
7428.46128,0.04333
7430.38974,0.11731
7432.31821,0.12743
7434.24668,0.03527
7436.17515,-0.00580
7438.10362,0.08569
7440.03209,0.14979
7441.96056,0.10648
7443.88902,0.03637
7445.81749,-0.04400
7447.74596,-0.10733
7449.67443,-0.04264
7451.60290,0.13943
7453.53137,0.22683
7455.45984,0.20613
7457.38831,0.20361
7459.31677,0.32825
7461.24524,0.48624
7463.17371,0.44753
7465.10218,0.29401
7467.03065,0.18371
7468.95912,0.20833
7470.88759,0.30661
7472.81605,0.34516
7474.74452,0.30799
7476.67299,0.22675
7478.60146,0.04303
7480.52993,-0.16775
7482.45840,-0.15808
7484.38687,-0.07050
7486.31533,-0.13782
7488.24380,-0.25371
7490.17227,-0.21487
7492.10074,0.03613
7494.02921,0.25071
7495.95768,0.24716
7497.88615,0.09678
