399.19301,4.40592
401.12148,0.69410
403.04995,0.39972
404.97842,0.30439
406.90689,0.24400
408.83536,0.20557
410.76382,0.10909
412.69229,-0.01345
414.62076,-0.06092
416.54923,-0.08455
418.47770,-0.08541
420.40617,-0.00422
422.33464,0.09837
424.26311,0.14185
426.19157,0.07636
428.12004,-0.01263
430.04851,-0.06439
431.97698,-0.07018
433.90545,-0.05188
435.83392,-0.03202
437.76239,0.00616
439.69085,0.07482
441.61932,0.12379
443.54779,0.08275
445.47626,0.00864
447.40473,-0.04875
449.33320,-0.10347
451.26167,-0.10577
453.19013,-0.02251
455.11860,0.08720
457.04707,0.15623
458.97554,0.18031
460.90401,0.16666
462.83248,0.11555
464.76095,0.07346
466.68942,0.07456
468.61788,0.08106
470.54635,0.06278
472.47482,0.04040
474.40329,0.06830
476.33176,0.05455
478.26023,-0.00635
480.18870,-0.00915
482.11716,0.03032
484.04563,0.02918
485.97410,0.03245
487.90257,0.09206
489.83104,0.13860
491.75951,0.11469
493.68798,0.05861
495.61645,0.06409
497.54491,0.14561
499.47338,0.21341
501.40185,0.23707
503.33032,0.21834
505.25879,0.16492
507.18726,0.14899
509.11573,0.20208
511.04419,0.24987
512.97266,0.23207
514.90113,0.15972
516.82960,0.11875
518.75807,0.14308
520.68654,0.15042
522.61501,0.12357
524.54348,0.12337
526.47194,0.15594
528.40041,0.15284
530.32888,0.11880
532.25735,0.13119
534.18582,0.18342
536.11429,0.19990
538.04276,0.18478
539.97122,0.18198
541.89969,0.19107
543.82816,0.19483
545.75663,0.18321
547.68510,0.15667
549.61357,0.13349
551.54204,0.14662
553.47051,0.18396
555.39897,0.19633
557.32744,0.17068
559.25591,0.14168
561.18438,0.12530
563.11285,0.10773
565.04132,0.09545
566.96979,0.08494
568.89825,0.06828
570.82672,0.07589
572.75519,0.10800
574.68366,0.12330
576.61213,0.10081
578.54060,0.06601
580.46907,0.06442
582.39754,0.10004
584.32600,0.12859
586.25447,0.12852
588.18294,0.10338
590.11141,0.07855
592.03988,0.09100
593.96835,0.12473
595.89682,0.14356
597.82528,0.15124
599.75375,0.15167
601.68222,0.13399
603.61069,0.11947
605.53916,0.14498
607.46763,0.18894
609.39610,0.19779
611.32456,0.15739
613.25303,0.10829
615.18150,0.08809
617.10997,0.08635
619.03844,0.09785
620.96691,0.13085
622.89538,0.16025
624.82385,0.16139
626.75231,0.14290
628.68078,0.12817
630.60925,0.13408
632.53772,0.15344
634.46619,0.17264
636.39466,0.18501
638.32313,0.17360
640.25159,0.14390
642.18006,0.12789
644.10853,0.12738
646.03700,0.13252
647.96547,0.14162
649.89394,0.14263
651.82241,0.13905
653.75088,0.14445
655.67934,0.14680
657.60781,0.13890
659.53628,0.13025
661.46475,0.13138
663.39322,0.14669
665.32169,0.15491
667.25016,0.13149
669.17862,0.09957
671.10709,0.10689
673.03556,0.12146
674.96403,0.12125
676.89250,0.11440
678.82097,0.11830
680.74944,0.12541
682.67791,0.11756
684.60637,0.09571
686.53484,0.07948
688.46331,0.08928
690.39178,0.11886
692.32025,0.14182
694.24872,0.14690
696.17719,0.14231
698.10565,0.14071
700.03412,0.14553
701.96259,0.15049
703.89106,0.14675
705.81953,0.13149
707.74800,0.11644
709.67647,0.10678
711.60494,0.10000
713.53340,0.10498
715.46187,0.11876
717.39034,0.12538
719.31881,0.12619
721.24728,0.12738
723.17575,0.12855
725.10422,0.13162
727.03268,0.13529
728.96115,0.13701
730.88962,0.13574
732.81809,0.13539
734.74656,0.14530
736.67503,0.16322
738.60350,0.17140
740.53197,0.15765
742.46043,0.13652
744.38890,0.13065
746.31737,0.13891
748.24584,0.14447
750.17431,0.14421
752.10278,0.14541
754.03125,0.14702
755.95971,0.14269
757.88818,0.13423
759.81665,0.13479
761.74512,0.14667
763.67359,0.14895
765.60206,0.13346
767.53053,0.12452
769.45900,0.13399
771.38746,0.14660
773.31593,0.15554
775.24440,0.16184
777.17287,0.16159
779.10134,0.15260
781.02981,0.13874
782.95828,0.13182
784.88674,0.14177
786.81521,0.15907
788.74368,0.16370
790.67215,0.15571
792.60062,0.14823
794.52909,0.14071
796.45756,0.12855
798.38602,0.12185
800.31449,0.13088
802.24296,0.14311
804.17143,0.13537
806.09990,0.11320
808.02837,0.10878
809.95684,0.13032
811.88531,0.15308
813.81377,0.16504
815.74224,0.16831
817.67071,0.16214
819.59918,0.15969
821.52765,0.16522
823.45612,0.16186
825.38459,0.15074
827.31305,0.14423
829.24152,0.14710
831.16999,0.15496
833.09846,0.15711
835.02693,0.15151
836.95540,0.14179
838.88387,0.14024
840.81234,0.15070
842.74080,0.15232
844.66927,0.14801
846.59774,0.15526
848.52621,0.15881
850.45468,0.14961
852.38315,0.14109
854.31162,0.13628
856.24008,0.13188
858.16855,0.12901
860.09702,0.13047
862.02549,0.13512
863.95396,0.13838
865.88243,0.14324
867.81090,0.15142
869.73937,0.15719
871.66783,0.15804
873.59630,0.15264
875.52477,0.14323
877.45324,0.13822
879.38171,0.13696
881.31018,0.13563
883.23865,0.13840
885.16711,0.13960
887.09558,0.13593
889.02405,0.14085
890.95252,0.15034
892.88099,0.15011
894.80946,0.14092
896.73793,0.12866
898.66640,0.12320
900.59486,0.12998
902.52333,0.14111
904.45180,0.14624
906.38027,0.14368
908.30874,0.14531
910.23721,0.15357
912.16568,0.15563
914.09414,0.15057
916.02261,0.14418
917.95108,0.14134
919.87955,0.14575
921.80802,0.15116
923.73649,0.15132
925.66496,0.14823
927.59343,0.14617
929.52189,0.14270
931.45036,0.13541
933.37883,0.13754
935.30730,0.15114
937.23577,0.15456
939.16424,0.14721
941.09271,0.14627
943.02117,0.15153
944.94964,0.15477
946.87811,0.15410
948.80658,0.15253
950.73505,0.15192
952.66352,0.15188
954.59199,0.15521
956.52045,0.15774
958.44892,0.14864
960.37739,0.13275
962.30586,0.12505
964.23433,0.13081
966.16280,0.14340
968.09127,0.15226
970.01974,0.15324
971.94820,0.14688
973.87667,0.13766
975.80514,0.13258
977.73361,0.13492
979.66208,0.14414
981.59055,0.14880
983.51902,0.13954
985.44748,0.12799
987.37595,0.13004
989.30442,0.14466
991.23289,0.15823
993.16136,0.16402
995.08983,0.16188
997.01830,0.15630
998.94677,0.15551
1000.87523,0.15772
1002.80370,0.15946
1004.73217,0.16066
1006.66064,0.15939
1008.58911,0.15606
1010.51758,0.15260
1012.44605,0.15134
1014.37451,0.14980
1016.30298,0.14741
1018.23145,0.15160
1020.15992,0.15929
1022.08839,0.16282
1024.01686,0.16284
1025.94533,0.15730
1027.87380,0.14861
1029.80226,0.14660
1031.73073,0.15128
1033.65920,0.15604
1035.58767,0.15469
1037.51614,0.14466
1039.44461,0.13471
1041.37308,0.13249
1043.30154,0.13697
1045.23001,0.14510
1047.15848,0.15192
1049.08695,0.15557
1051.01542,0.15809
1052.94389,0.15901
1054.87236,0.15570
1056.80083,0.14786
1058.72929,0.14585
1060.65776,0.15423
1062.58623,0.15846
1064.51470,0.15944
1066.44317,0.16842
1068.37164,0.17489
1070.30011,0.17461
1072.22857,0.17550
1074.15704,0.17510
1076.08551,0.17325
1078.01398,0.17396
1079.94245,0.17284
1081.87092,0.16976
1083.79939,0.17473
1085.72786,0.17976
1087.65632,0.16830
1089.58479,0.15410
1091.51326,0.15473
1093.44173,0.16193
1095.37020,0.16308
1097.29867,0.15645
1099.22714,0.14882
1101.15560,0.15346
1103.08407,0.17165
1105.01254,0.18442
1106.94101,0.18183
1108.86948,0.17201
1110.79795,0.16673
1112.72642,0.16791
1114.65489,0.16931
1116.58335,0.17054
1118.51182,0.17215
1120.44029,0.17305
1122.36876,0.17317
1124.29723,0.16726
1126.22570,0.15464
1128.15417,0.14730
1130.08263,0.15171
1132.01110,0.15857
1133.93957,0.15785
1135.86804,0.15643
1137.79651,0.16440
1139.72498,0.17041
1141.65345,0.16548
1143.58191,0.16224
1145.51038,0.16870
1147.43885,0.17376
1149.36732,0.17052
1151.29579,0.16794
1153.22426,0.17248
1155.15273,0.18113
1157.08120,0.18418
1159.00966,0.17430
1160.93813,0.16241
1162.86660,0.16535
1164.79507,0.17591
1166.72354,0.17743
1168.65201,0.17157
1170.58048,0.16547
1172.50894,0.16454
1174.43741,0.17161
1176.36588,0.17908
1178.29435,0.17954
1180.22282,0.17337
1182.15129,0.16373
1184.07976,0.15803
1186.00823,0.16198
1187.93669,0.16840
1189.86516,0.17009
1191.79363,0.16729
1193.72210,0.16222
1195.65057,0.16092
1197.57904,0.16379
1199.50751,0.16316
1201.43597,0.16073
1203.36444,0.16357
1205.29291,0.16728
1207.22138,0.16755
1209.14985,0.16796
1211.07832,0.16865
1213.00679,0.16920
1214.93526,0.17144
1216.86372,0.17100
1218.79219,0.16460
1220.72066,0.16069
1222.64913,0.16364
1224.57760,0.16607
1226.50607,0.16475
1228.43454,0.16488
1230.36300,0.16924
1232.29147,0.17349
1234.21994,0.17351
1236.14841,0.16933
1238.07688,0.16315
1240.00535,0.15974
1241.93382,0.16000
1243.86229,0.15897
1245.79075,0.15759
1247.71922,0.16111
1249.64769,0.16489
1251.57616,0.16159
1253.50463,0.15820
1255.43310,0.16210
1257.36157,0.16714
1259.29003,0.16660
1261.21850,0.16158
1263.14697,0.15919
1265.07544,0.16198
1267.00391,0.16543
1268.93238,0.16752
1270.86085,0.16768
1272.78932,0.16560
1274.71778,0.16280
1276.64625,0.16388
1278.57472,0.16868
1280.50319,0.16704
1282.43166,0.16101
1284.36013,0.16172
1286.28860,0.16405
1288.21706,0.16374
1290.14553,0.16649
1292.07400,0.16990
1294.00247,0.16860
1295.93094,0.16242
1297.85941,0.15490
1299.78788,0.14676
1301.71634,0.13343
1303.64481,0.11856
1305.57328,0.11801
1307.50175,0.13671
1309.43022,0.15709
1311.35869,0.16841
1313.28716,0.17516
1315.21563,0.17725
1317.14409,0.17388
1319.07256,0.16861
1321.00103,0.16521
1322.92950,0.16515
1324.85797,0.16380
1326.78644,0.15997
1328.71491,0.15876
1330.64337,0.15665
1332.57184,0.15452
1334.50031,0.15852
1336.42878,0.16439
1338.35725,0.16877
1340.28572,0.16542
1342.21419,0.15130
1344.14266,0.13063
1346.07112,0.11706
1347.99959,0.13055
1349.92806,0.15312
1351.85653,0.16049
1353.78500,0.16108
1355.71347,0.16163
1357.64194,0.16311
1359.57040,0.16676
1361.49887,0.17112
1363.42734,0.17189
1365.35581,0.17050
1367.28428,0.17323
1369.21275,0.17649
1371.14122,0.17797
1373.06969,0.18230
1374.99815,0.18520
1376.92662,0.18068
1378.85509,0.17691
1380.78356,0.17665
1382.71203,0.17551
1384.64050,0.17716
1386.56897,0.18258
1388.49743,0.18184
1390.42590,0.17638
1392.35437,0.17502
1394.28284,0.17856
1396.21131,0.18666
1398.13978,0.19289
1400.06825,0.18888
1401.99672,0.18342
1403.92518,0.18254
1405.85365,0.18076
1407.78212,0.17731
1409.71059,0.17502
1411.63906,0.17558
1413.56753,0.18013
1415.49600,0.18776
1417.42446,0.19506
1419.35293,0.19294
1421.28140,0.18488
1423.20987,0.18125
1425.13834,0.17954
1427.06681,0.17932
1428.99528,0.18170
1430.92375,0.18193
1432.85221,0.17902
1434.78068,0.18016
1436.70915,0.18678
1438.63762,0.18824
1440.56609,0.18541
1442.49456,0.18436
1444.42303,0.18508
1446.35149,0.18639
1448.27996,0.18666
1450.20843,0.18783
1452.13690,0.19380
1454.06537,0.20391
1455.99384,0.21918
1457.92231,0.22439
1459.85077,0.20783
1461.77924,0.19933
1463.70771,0.20042
1465.63618,0.19561
1467.56465,0.18862
1469.49312,0.19376
1471.42159,0.20786
1473.35006,0.21275
1475.27852,0.20431
1477.20699,0.19775
1479.13546,0.19423
1481.06393,0.19161
1482.99240,0.19073
1484.92087,0.19535
1486.84934,0.20644
1488.77780,0.21497
1490.70627,0.20818
1492.63474,0.19845
1494.56321,0.19765
1496.49168,0.20186
1498.42015,0.20137
1500.34862,0.19557
1502.27709,0.19377
1504.20555,0.20338
1506.13402,0.22613
1508.06249,0.23205
1509.99096,0.21471
1511.91943,0.20272
1513.84790,0.20568
1515.77637,0.22173
1517.70483,0.23612
1519.63330,0.24733
1521.56177,0.25539
1523.49024,0.24266
1525.41871,0.22520
1527.34718,0.21433
1529.27565,0.20649
1531.20412,0.20354
1533.13258,0.20774
1535.06105,0.21329
1536.98952,0.21915
1538.91799,0.23215
1540.84646,0.24483
1542.77493,0.23722
1544.70340,0.21844
1546.63186,0.20236
1548.56033,0.19871
1550.48880,0.20399
1552.41727,0.20999
1554.34574,0.21624
1556.27421,0.22729
1558.20268,0.24037
1560.13115,0.22054
1562.05961,0.20045
1563.98808,0.19736
1565.91655,0.20062
1567.84502,0.20232
1569.77349,0.19627
1571.70196,0.18912
1573.63043,0.19164
1575.55889,0.20073
1577.48736,0.20200
1579.41583,0.19516
1581.34430,0.18849
1583.27277,0.18201
1585.20124,0.17849
1587.12971,0.18013
1589.05818,0.18424
1590.98664,0.18654
1592.91511,0.18688
1594.84358,0.18683
1596.77205,0.18426
1598.70052,0.18110
1600.62899,0.18242
1602.55746,0.18644
1604.48592,0.18737
1606.41439,0.18590
1608.34286,0.18521
1610.27133,0.18417
1612.19980,0.18465
1614.12827,0.19115
1616.05674,0.20176
1617.98521,0.20460
1619.91367,0.20300
1621.84214,0.20521
1623.77061,0.20485
1625.69908,0.19936
1627.62755,0.19580
1629.55602,0.19479
1631.48449,0.19639
1633.41295,0.20522
1635.34142,0.21991
1637.26989,0.21744
1639.19836,0.20433
1641.12683,0.19756
1643.05530,0.19918
1644.98377,0.21119
1646.91223,0.22841
1648.84070,0.23026
1650.76917,0.22876
1652.69764,0.23453
1654.62611,0.22414
1656.55458,0.20753
1658.48305,0.20090
1660.41152,0.20397
1662.33998,0.21311
1664.26845,0.21937
1666.19692,0.22159
1668.12539,0.22510
1670.05386,0.22472
1671.98233,0.21779
1673.91080,0.21369
1675.83926,0.20769
1677.76773,0.20159
1679.69620,0.20439
1681.62467,0.21608
1683.55314,0.23359
1685.48161,0.23491
1687.41008,0.22310
1689.33855,0.21485
1691.26701,0.20817
1693.19548,0.20743
1695.12395,0.21979
1697.05242,0.23803
1698.98089,0.24503
1700.90936,0.23543
1702.83783,0.22369
1704.76629,0.22022
1706.69476,0.21386
1708.62323,0.20169
1710.55170,0.19684
1712.48017,0.20498
1714.40864,0.22026
1716.33711,0.22917
1718.26558,0.21537
1720.19404,0.19710
1722.12251,0.19194
1724.05098,0.19379
1725.97945,0.19478
1727.90792,0.19653
1729.83639,0.20064
1731.76486,0.20548
1733.69332,0.20939
1735.62179,0.20605
1737.55026,0.20236
1739.47873,0.20287
1741.40720,0.20443
1743.33567,0.20472
1745.26414,0.20462
1747.19261,0.20691
1749.12107,0.20864
1751.04954,0.20189
1752.97801,0.19405
1754.90648,0.19378
1756.83495,0.19651
1758.76342,0.19633
1760.69189,0.19713
1762.62035,0.19892
1764.54882,0.19595
1766.47729,0.19247
1768.40576,0.19367
1770.33423,0.19974
1772.26270,0.20640
1774.19117,0.20498
1776.11964,0.19900
1778.04810,0.19577
1779.97657,0.19458
1781.90504,0.19342
1783.83351,0.19335
1785.76198,0.19265
1787.69045,0.19212
1789.61892,0.19681
1791.54738,0.20369
1793.47585,0.20284
1795.40432,0.19889
1797.33279,0.19803
1799.26126,0.19789
1801.18973,0.19516
1803.11820,0.19076
1805.04666,0.18939
1806.97513,0.19092
1808.90360,0.19215
1810.83207,0.19256
1812.76054,0.19178
1814.68901,0.19015
1816.61748,0.18927
1818.54595,0.18918
1820.47441,0.19055
1822.40288,0.19458
1824.33135,0.19892
1826.25982,0.20102
1828.18829,0.20377
1830.11676,0.20453
1832.04523,0.19875
1833.97369,0.19462
1835.90216,0.19534
1837.83063,0.19567
1839.75910,0.19524
1841.68757,0.19829
1843.61604,0.20268
1845.54451,0.20131
1847.47298,0.19667
1849.40144,0.19367
1851.32991,0.19266
1853.25838,0.19229
1855.18685,0.19041
1857.11532,0.18723
1859.04379,0.18568
1860.97226,0.18668
1862.90072,0.18870
1864.82919,0.19235
1866.75766,0.19892
1868.68613,0.20464
1870.61460,0.20239
1872.54307,0.19489
1874.47154,0.18814
1876.40001,0.18503
1878.32847,0.18567
1880.25694,0.18715
1882.18541,0.18808
1884.11388,0.18877
1886.04235,0.18963
1887.97082,0.19142
1889.89929,0.19238
1891.82775,0.19217
1893.75622,0.19289
1895.68469,0.19187
1897.61316,0.18854
1899.54163,0.18846
1901.47010,0.19147
1903.39857,0.19251
1905.32704,0.19054
1907.25550,0.18909
1909.18397,0.19044
1911.11244,0.19161
1913.04091,0.19234
1914.96938,0.19425
1916.89785,0.19446
1918.82632,0.19362
1920.75478,0.19565
1922.68325,0.19657
1924.61172,0.19336
1926.54019,0.19115
1928.46866,0.19010
1930.39713,0.18737
1932.32560,0.18549
1934.25407,0.18523
1936.18253,0.18396
1938.11100,0.18401
1940.03947,0.19056
1941.96794,0.19934
1943.89641,0.19953
1945.82488,0.19200
1947.75335,0.18551
1949.68181,0.18479
1951.61028,0.18848
1953.53875,0.19153
1955.46722,0.19155
1957.39569,0.18988
1959.32416,0.18848
1961.25263,0.18837
1963.18110,0.18945
1965.10956,0.19139
1967.03803,0.19314
1968.96650,0.19341
1970.89497,0.19271
1972.82344,0.19170
1974.75191,0.19064
1976.68038,0.19105
1978.60884,0.19341
1980.53731,0.19409
1982.46578,0.19068
1984.39425,0.18689
1986.32272,0.18677
1988.25119,0.18966
1990.17966,0.19315
1992.10812,0.19548
1994.03659,0.19453
1995.96506,0.19209
1997.89353,0.19130
1999.82200,0.19130
2001.75047,0.19142
2003.67894,0.19185
2005.60741,0.19215
2007.53587,0.19185
2009.46434,0.19049
2011.39281,0.18906
2013.32128,0.18949
2015.24975,0.19131
2017.17822,0.19141
2019.10669,0.19090
2021.03515,0.19291
2022.96362,0.19464
2024.89209,0.19293
2026.82056,0.18877
2028.74903,0.18607
2030.67750,0.18799
2032.60597,0.19100
2034.53444,0.19103
2036.46290,0.19083
2038.39137,0.19254
2040.31984,0.19426
2042.24831,0.19505
2044.17678,0.19476
2046.10525,0.19251
2048.03372,0.19009
2049.96218,0.18906
2051.89065,0.18833
2053.81912,0.18902
2055.74759,0.19175
2057.67606,0.19377
2059.60453,0.19296
2061.53300,0.19065
2063.46147,0.18995
2065.38993,0.19027
2067.31840,0.18954
2069.24687,0.18929
2071.17534,0.19164
2073.10381,0.19476
2075.03228,0.19424
2076.96075,0.19049
2078.88921,0.18866
2080.81768,0.18980
2082.74615,0.19066
2084.67462,0.19112
2086.60309,0.19180
2088.53156,0.19046
2090.46003,0.18772
2092.38850,0.18734
2094.31696,0.18966
2096.24543,0.19168
2098.17390,0.19239
2100.10237,0.19224
2102.03084,0.19166
2103.95931,0.19160
2105.88778,0.19188
2107.81624,0.19138
2109.74471,0.19084
2111.67318,0.19252
2113.60165,0.19541
2115.53012,0.19646
2117.45859,0.19638
2119.38706,0.19843
2121.31553,0.20115
2123.24399,0.20020
2125.17246,0.19819
2127.10093,0.19810
2129.02940,0.19606
2130.95787,0.19272
2132.88634,0.19237
2134.81481,0.19157
2136.74327,0.18796
2138.67174,0.18721
2140.60021,0.19026
2142.52868,0.19240
2144.45715,0.19334
2146.38562,0.19334
2148.31409,0.19155
2150.24255,0.19008
2152.17102,0.19054
2154.09949,0.19250
2156.02796,0.19367
2157.95643,0.19246
2159.88490,0.19213
2161.81337,0.19491
2163.74184,0.19725
2165.67030,0.19658
2167.59877,0.19574
2169.52724,0.19616
2171.45571,0.19525
2173.38418,0.19280
2175.31265,0.19105
2177.24112,0.19051
2179.16958,0.18995
2181.09805,0.18861
2183.02652,0.18674
2184.95499,0.18507
2186.88346,0.18635
2188.81193,0.19161
2190.74040,0.19541
2192.66887,0.19374
2194.59733,0.19139
2196.52580,0.19302
2198.45427,0.19564
2200.38274,0.19561
2202.31121,0.19378
2204.23968,0.19267
2206.16815,0.19301
2208.09661,0.19336
2210.02508,0.19240
2211.95355,0.19128
2213.88202,0.19249
2215.81049,0.19514
2217.73896,0.19673
2219.66743,0.19559
2221.59590,0.19207
2223.52436,0.18893
2225.45283,0.18694
2227.38130,0.18705
2229.30977,0.19089
2231.23824,0.19582
2233.16671,0.19661
2235.09518,0.19209
2237.02364,0.18735
2238.95211,0.18594
2240.88058,0.18748
2242.80905,0.19024
2244.73752,0.19084
2246.66599,0.18987
2248.59446,0.19062
2250.52293,0.19169
2252.45139,0.19142
2254.37986,0.19120
2256.30833,0.19130
2258.23680,0.19080
2260.16527,0.18924
2262.09374,0.18743
2264.02221,0.18698
2265.95067,0.18815
2267.87914,0.19005
2269.80761,0.19357
2271.73608,0.19803
2273.66455,0.19838
2275.59302,0.19503
2277.52149,0.19277
2279.44996,0.19202
2281.37842,0.19093
2283.30689,0.18834
2285.23536,0.18675
2287.16383,0.18955
2289.09230,0.19375
2291.02077,0.19507
2292.94924,0.19499
2294.87770,0.19553
2296.80617,0.19528
2298.73464,0.19310
2300.66311,0.19099
2302.59158,0.19030
2304.52005,0.18807
2306.44852,0.18464
2308.37699,0.18430
2310.30545,0.18750
2312.23392,0.19231
2314.16239,0.19417
2316.09086,0.18959
2318.01933,0.18451
2319.94780,0.18653
2321.87627,0.19127
2323.80473,0.18952
2325.73320,0.18436
2327.66167,0.18293
2329.59014,0.18727
2331.51861,0.19440
2333.44708,0.20120
2335.37555,0.21477
2337.30401,0.22883
2339.23248,0.22061
2341.16095,0.20094
2343.08942,0.19413
2345.01789,0.19400
2346.94636,0.19308
2348.87483,0.19099
2350.80330,0.18747
2352.73176,0.18613
2354.66023,0.19280
2356.58870,0.20778
2358.51717,0.21251
2360.44564,0.19139
2362.37411,0.17046
2364.30258,0.18356
2366.23104,0.21560
2368.15951,0.22553
2370.08798,0.21438
2372.01645,0.20233
2373.94492,0.19066
2375.87339,0.18269
2377.80186,0.18622
2379.73033,0.19269
2381.65879,0.19116
2383.58726,0.18709
2385.51573,0.18756
2387.44420,0.19008
2389.37267,0.18983
2391.30114,0.18781
2393.22961,0.18824
2395.15807,0.19120
2397.08654,0.19369
2399.01501,0.19303
2400.94348,0.19105
2402.87195,0.19119
2404.80042,0.19131
2406.72889,0.19019
2408.65736,0.19044
2410.58582,0.19130
2412.51429,0.19127
2414.44276,0.19225
2416.37123,0.19380
2418.29970,0.19354
2420.22817,0.19129
2422.15664,0.18830
2424.08510,0.18777
2426.01357,0.19078
2427.94204,0.19368
2429.87051,0.19451
2431.79898,0.19473
2433.72745,0.19484
2435.65592,0.19407
2437.58439,0.19233
2439.51285,0.19090
2441.44132,0.19065
2443.36979,0.19025
2445.29826,0.18866
2447.22673,0.18796
2449.15520,0.18982
2451.08367,0.19088
2453.01213,0.18974
2454.94060,0.18918
2456.86907,0.18851
2458.79754,0.18779
2460.72601,0.18869
2462.65448,0.18969
2464.58295,0.18971
2466.51142,0.18991
2468.43988,0.19086
2470.36835,0.19080
2472.29682,0.18944
2474.22529,0.18863
2476.15376,0.18849
2478.08223,0.18957
2480.01070,0.19255
2481.93916,0.19538
2483.86763,0.19582
2485.79610,0.19383
2487.72457,0.19212
2489.65304,0.19205
2491.58151,0.19159
2493.50998,0.19080
2495.43844,0.19243
2497.36691,0.19556
2499.29538,0.19596
2501.22385,0.19348
2503.15232,0.19194
2505.08079,0.19335
2507.00926,0.19512
2508.93773,0.19436
2510.86619,0.19322
2512.79466,0.19350
2514.72313,0.19436
2516.65160,0.19619
2518.58007,0.19841
2520.50854,0.19925
2522.43701,0.19956
2524.36547,0.20040
2526.29394,0.19969
2528.22241,0.19726
2530.15088,0.19466
2532.07935,0.19196
2534.00782,0.19060
2535.93629,0.19172
2537.86476,0.19460
2539.79322,0.19750
2541.72169,0.19788
2543.65016,0.19696
2545.57863,0.19725
2547.50710,0.19671
2549.43557,0.19435
2551.36404,0.19339
2553.29250,0.19481
2555.22097,0.19623
2557.14944,0.19690
2559.07791,0.19790
2561.00638,0.19915
2562.93485,0.19930
2564.86332,0.19789
2566.79179,0.19570
2568.72025,0.19238
2570.64872,0.19024
2572.57719,0.19221
2574.50566,0.19553
2576.43413,0.19902
2578.36260,0.20388
2580.29107,0.20638
2582.21953,0.20341
2584.14800,0.19809
2586.07647,0.19528
2588.00494,0.19619
2589.93341,0.19757
2591.86188,0.19697
2593.79035,0.19697
2595.71882,0.19931
2597.64728,0.20033
2599.57575,0.19799
2601.50422,0.19631
2603.43269,0.19758
2605.36116,0.19804
2607.28963,0.19605
2609.21810,0.19511
2611.14656,0.19657
2613.07503,0.19750
2615.00350,0.19578
2616.93197,0.19344
2618.86044,0.19306
2620.78891,0.19271
2622.71738,0.19178
2624.64585,0.19287
2626.57431,0.19370
2628.50278,0.19226
2630.43125,0.19285
2632.35972,0.19607
2634.28819,0.19797
2636.21666,0.19785
2638.14513,0.19726
2640.07359,0.19713
2642.00206,0.19606
2643.93053,0.19336
2645.85900,0.19271
2647.78747,0.19567
2649.71594,0.19861
2651.64441,0.20033
2653.57288,0.20162
2655.50134,0.20092
2657.42981,0.19898
2659.35828,0.19866
2661.28675,0.20020
2663.21522,0.20141
2665.14369,0.20002
2667.07216,0.19702
2669.00062,0.19544
2670.92909,0.19533
2672.85756,0.19437
2674.78603,0.19254
2676.71450,0.19267
2678.64297,0.19496
2680.57144,0.19631
2682.49990,0.19811
2684.42837,0.20174
2686.35684,0.20357
2688.28531,0.20299
2690.21378,0.20147
2692.14225,0.19934
2694.07072,0.19796
2695.99919,0.19920
2697.92765,0.20196
2699.85612,0.20273
2701.78459,0.20245
2703.71306,0.20376
2705.64153,0.20482
2707.57000,0.20389
2709.49847,0.20267
2711.42693,0.20167
2713.35540,0.20078
2715.28387,0.20120
2717.21234,0.20210
2719.14081,0.20226
2721.06928,0.20145
2722.99775,0.20039
2724.92622,0.20133
2726.85468,0.20412
2728.78315,0.20653
2730.71162,0.20734
2732.64009,0.20489
2734.56856,0.19957
2736.49703,0.19661
2738.42550,0.19885
2740.35396,0.20267
2742.28243,0.20376
2744.21090,0.20145
2746.13937,0.19869
2748.06784,0.19870
2749.99631,0.20086
2751.92478,0.20149
2753.85325,0.20055
2755.78171,0.20053
2757.71018,0.20137
2759.63865,0.20235
2761.56712,0.20225
2763.49559,0.20124
2765.42406,0.20139
2767.35253,0.20114
2769.28099,0.19948
2771.20946,0.19965
2773.13793,0.20254
2775.06640,0.20478
2776.99487,0.20451
2778.92334,0.20375
2780.85181,0.20373
2782.78028,0.20344
2784.70874,0.20457
2786.63721,0.20747
2788.56568,0.20766
2790.49415,0.20472
2792.42262,0.20233
2794.35109,0.20278
2796.27956,0.20539
2798.20802,0.20529
2800.13649,0.20295
2802.06496,0.20368
2803.99343,0.20568
2805.92190,0.20676
2807.85037,0.20854
2809.77884,0.20930
2811.70731,0.20834
2813.63577,0.20805
2815.56424,0.20892
2817.49271,0.21034
2819.42118,0.21054
2821.34965,0.20795
2823.27812,0.20483
2825.20659,0.20519
2827.13505,0.20856
2829.06352,0.21084
2830.99199,0.21218
2832.92046,0.21424
2834.84893,0.21569
2836.77740,0.21558
2838.70587,0.21240
2840.63433,0.20587
2842.56280,0.20087
2844.49127,0.20113
2846.41974,0.20425
2848.34821,0.20548
2850.27668,0.20359
2852.20515,0.20183
2854.13362,0.20228
2856.06208,0.20475
2857.99055,0.20735
2859.91902,0.20780
2861.84749,0.20832
2863.77596,0.21142
2865.70443,0.21450
2867.63290,0.21409
2869.56136,0.21116
2871.48983,0.20823
2873.41830,0.20601
2875.34677,0.20657
2877.27524,0.20997
2879.20371,0.21211
2881.13218,0.21107
2883.06065,0.20610
2884.98911,0.19887
2886.91758,0.19614
2888.84605,0.19999
2890.77452,0.20463
2892.70299,0.20594
2894.63146,0.20567
2896.55993,0.20672
2898.48839,0.20679
2900.41686,0.20460
2902.34533,0.20426
2904.27380,0.20411
2906.20227,0.20073
2908.13074,0.19857
2910.05921,0.20109
2911.98768,0.20543
2913.91614,0.20529
2915.84461,0.20010
2917.77308,0.19854
2919.70155,0.20154
2921.63002,0.20323
2923.55849,0.20166
2925.48696,0.19366
2927.41542,0.18329
2929.34389,0.18186
2931.27236,0.19109
2933.20083,0.20172
2935.12930,0.19965
2937.05777,0.18762
2938.98624,0.18729
2940.91471,0.19748
2942.84317,0.20104
2944.77164,0.19495
2946.70011,0.18290
2948.62858,0.17729
2950.55705,0.18751
2952.48552,0.20411
2954.41399,0.21134
2956.34245,0.20083
2958.27092,0.18885
2960.19939,0.19284
2962.12786,0.20144
2964.05633,0.20384
2965.98480,0.19995
2967.91327,0.19287
2969.84174,0.19401
2971.77020,0.20297
2973.69867,0.20858
2975.62714,0.20444
2977.55561,0.19335
2979.48408,0.19151
2981.41255,0.20157
2983.34102,0.20850
2985.26948,0.20671
2987.19795,0.20026
2989.12642,0.19856
2991.05489,0.20505
2992.98336,0.21216
2994.91183,0.21535
2996.84030,0.21237
2998.76877,0.20611
3000.69723,0.20482
3002.62570,0.20649
3004.55417,0.20467
3006.48264,0.19922
3008.41111,0.19154
3010.33958,0.18115
3012.26805,0.16260
3014.19651,0.13053
3016.12498,0.10195
3018.05345,0.11258
3019.98192,0.16050
3021.91039,0.20304
3023.83886,0.22183
3025.76733,0.22152
3027.69579,0.21009
3029.62426,0.20371
3031.55273,0.20616
3033.48120,0.21127
3035.40967,0.21471
3037.33814,0.21150
3039.26661,0.20819
3041.19508,0.21138
3043.12354,0.21586
3045.05201,0.21405
3046.98048,0.20310
3048.90895,0.19463
3050.83742,0.19724
3052.76589,0.20150
3054.69436,0.19939
3056.62282,0.19478
3058.55129,0.19788
3060.47976,0.20736
3062.40823,0.21144
3064.33670,0.20542
3066.26517,0.19674
3068.19364,0.19868
3070.12211,0.20937
3072.05057,0.21561
3073.97904,0.20968
3075.90751,0.19811
3077.83598,0.19989
3079.76445,0.21406
3081.69292,0.22136
3083.62139,0.21224
3085.54985,0.19852
3087.47832,0.20065
3089.40679,0.21198
3091.33526,0.21112
3093.26373,0.19559
3095.19220,0.18488
3097.12067,0.19258
3099.04914,0.20565
3100.97760,0.20955
3102.90607,0.20341
3104.83454,0.19916
3106.76301,0.20309
3108.69148,0.20605
3110.61995,0.20036
3112.54842,0.19003
3114.47688,0.19106
3116.40535,0.20421
3118.33382,0.21244
3120.26229,0.20837
3122.19076,0.20015
3124.11923,0.20042
3126.04770,0.20810
3127.97617,0.21200
3129.90463,0.20712
3131.83310,0.20291
3133.76157,0.20764
3135.69004,0.21258
3137.61851,0.21023
3139.54698,0.20835
3141.47545,0.21443
3143.40391,0.22042
3145.33238,0.21945
3147.26085,0.21555
3149.18932,0.21496
3151.11779,0.21951
3153.04626,0.22441
3154.97473,0.22627
3156.90320,0.22372
3158.83166,0.21767
3160.76013,0.21341
3162.68860,0.21307
3164.61707,0.21515
3166.54554,0.22138
3168.47401,0.22713
3170.40248,0.22138
3172.33094,0.21201
3174.25941,0.21237
3176.18788,0.21677
3178.11635,0.21845
3180.04482,0.21848
3181.97329,0.21774
3183.90176,0.21849
3185.83022,0.22154
3187.75869,0.22255
3189.68716,0.22159
3191.61563,0.22170
3193.54410,0.22085
3195.47257,0.21874
3197.40104,0.21796
3199.32951,0.21774
3201.25797,0.21713
3203.18644,0.21654
3205.11491,0.21558
3207.04338,0.21429
3208.97185,0.21456
3210.90032,0.21808
3212.82879,0.22070
3214.75725,0.21833
3216.68572,0.21759
3218.61419,0.22247
3220.54266,0.22535
3222.47113,0.22249
3224.39960,0.21898
3226.32807,0.21820
3228.25654,0.21855
3230.18500,0.21811
3232.11347,0.21675
3234.04194,0.21351
3235.97041,0.20697
3237.89888,0.20264
3239.82735,0.20597
3241.75582,0.21214
3243.68428,0.21525
3245.61275,0.21257
3247.54122,0.20880
3249.46969,0.21165
3251.39816,0.21477
3253.32663,0.21128
3255.25510,0.20820
3257.18357,0.21011
3259.11203,0.21319
3261.04050,0.21630
3262.96897,0.22008
3264.89744,0.22040
3266.82591,0.21294
3268.75438,0.20255
3270.68285,0.20036
3272.61131,0.20635
3274.53978,0.21177
3276.46825,0.21248
3278.39672,0.20920
3280.32519,0.20870
3282.25366,0.21357
3284.18213,0.21572
3286.11060,0.20974
3288.03906,0.20409
3289.96753,0.20874
3291.89600,0.21558
3293.82447,0.21495
3295.75294,0.21206
3297.68141,0.21127
3299.60988,0.20961
3301.53834,0.20611
3303.46681,0.20647
3305.39528,0.21111
3307.32375,0.21131
3309.25222,0.20796
3311.18069,0.20894
3313.10916,0.21254
3315.03763,0.21437
3316.96609,0.21314
3318.89456,0.21070
3320.82303,0.21135
3322.75150,0.21296
3324.67997,0.21299
3326.60844,0.21550
3328.53691,0.22082
3330.46537,0.22313
3332.39384,0.21922
3334.32231,0.21248
3336.25078,0.20788
3338.17925,0.20760
3340.10772,0.21205
3342.03619,0.21920
3343.96466,0.22333
3345.89312,0.22043
3347.82159,0.21531
3349.75006,0.21254
3351.67853,0.21054
3353.60700,0.21319
3355.53547,0.22222
3357.46394,0.22588
3359.39240,0.22063
3361.32087,0.21645
3363.24934,0.21579
3365.17781,0.21641
3367.10628,0.21996
3369.03475,0.22464
3370.96322,0.22667
3372.89168,0.22563
3374.82015,0.22422
3376.74862,0.22493
3378.67709,0.22610
3380.60556,0.22615
3382.53403,0.22353
3384.46250,0.21637
3386.39097,0.20737
3388.31943,0.20081
3390.24790,0.19893
3392.17637,0.20169
3394.10484,0.20784
3396.03331,0.21524
3397.96178,0.21941
3399.89025,0.21830
3401.81871,0.21424
3403.74718,0.21267
3405.67565,0.21590
3407.60412,0.21843
3409.53259,0.21576
3411.46106,0.20900
3413.38953,0.20320
3415.31800,0.20105
3417.24646,0.20247
3419.17493,0.20876
3421.10340,0.21485
3423.03187,0.21594
3424.96034,0.21432
3426.88881,0.21145
3428.81728,0.20942
3430.74574,0.20887
3432.67421,0.20872
3434.60268,0.20785
3436.53115,0.20290
3438.45962,0.19598
3440.38809,0.19482
3442.31656,0.20027
3444.24503,0.20781
3446.17349,0.21395
3448.10196,0.21224
3450.03043,0.20495
3451.95890,0.20227
3453.88737,0.20111
3455.81584,0.19739
3457.74431,0.19727
3459.67277,0.19969
3461.60124,0.19826
3463.52971,0.19577
3465.45818,0.19500
3467.38665,0.19447
3469.31512,0.19529
3471.24359,0.19600
3473.17206,0.19681
3475.10052,0.19950
3477.02899,0.19703
3478.95746,0.18892
3480.88593,0.18765
3482.81440,0.19393
3484.74287,0.19663
3486.67134,0.19562
3488.59980,0.19265
3490.52827,0.18781
3492.45674,0.18645
3494.38521,0.18621
3496.31368,0.18222
3498.24215,0.18094
3500.17062,0.18596
3502.09909,0.18904
3504.02755,0.18679
3505.95602,0.18500
3507.88449,0.18396
3509.81296,0.18349
3511.74143,0.18474
3513.66990,0.18299
3515.59837,0.17791
3517.52683,0.17520
3519.45530,0.17752
3521.38377,0.18420
3523.31224,0.19200
3525.24071,0.19749
3527.16918,0.19870
3529.09765,0.19148
3531.02611,0.17998
3532.95458,0.17318
3534.88305,0.16981
3536.81152,0.16854
3538.73999,0.17101
3540.66846,0.17326
3542.59693,0.17358
3544.52540,0.17301
3546.45386,0.17078
3548.38233,0.16975
3550.31080,0.17163
3552.23927,0.17112
3554.16774,0.16571
3556.09621,0.16207
3558.02468,0.16416
3559.95314,0.16925
3561.88161,0.17559
3563.81008,0.18500
3565.73855,0.19452
3567.66702,0.19246
3569.59549,0.18018
3571.52396,0.16824
3573.45243,0.16009
3575.38089,0.15973
3577.30936,0.16276
3579.23783,0.16109
3581.16630,0.15680
3583.09477,0.15538
3585.02324,0.16185
3586.95171,0.17460
3588.88017,0.17553
3590.80864,0.16729
3592.73711,0.16117
3594.66558,0.15278
3596.59405,0.14496
3598.52252,0.14231
3600.45099,0.13948
3602.37946,0.13890
3604.30792,0.14705
3606.23639,0.15923
3608.16486,0.16382
3610.09333,0.16020
3612.02180,0.16036
3613.95027,0.16165
3615.87874,0.15759
3617.80720,0.15551
3619.73567,0.15555
3621.66414,0.15100
3623.59261,0.14737
3625.52108,0.14608
3627.44955,0.14731
3629.37802,0.15560
3631.30649,0.16017
3633.23495,0.15647
3635.16342,0.15048
3637.09189,0.14681
3639.02036,0.14664
3640.94883,0.14727
3642.87730,0.14855
3644.80577,0.15476
3646.73423,0.16946
3648.66270,0.18446
3650.59117,0.17347
3652.51964,0.15348
3654.44811,0.14388
3656.37658,0.14057
3658.30505,0.13831
3660.23352,0.13711
3662.16198,0.13611
3664.09045,0.13453
3666.01892,0.13561
3667.94739,0.14122
3669.87586,0.15031
3671.80433,0.15861
3673.73280,0.16418
3675.66126,0.16401
3677.58973,0.15688
3679.51820,0.14870
3681.44667,0.13968
3683.37514,0.13205
3685.30361,0.12822
3687.23208,0.13027
3689.16055,0.13819
3691.08901,0.14212
3693.01748,0.14136
3694.94595,0.13991
3696.87442,0.13539
3698.80289,0.13116
3700.73136,0.13082
3702.65983,0.12995
3704.58829,0.12826
3706.51676,0.12925
3708.44523,0.13449
3710.37370,0.14187
3712.30217,0.14136
3714.23064,0.13635
3716.15911,0.13410
3718.08757,0.13256
3720.01604,0.13140
3721.94451,0.13282
3723.87298,0.13697
3725.80145,0.13886
3727.72992,0.13657
3729.65839,0.13598
3731.58686,0.14145
3733.51532,0.15439
3735.44379,0.16064
3737.37226,0.14722
3739.30073,0.13786
3741.22920,0.14002
3743.15767,0.14433
3745.08614,0.14561
3747.01460,0.14776
3748.94307,0.15280
3750.87154,0.15151
3752.80001,0.14018
3754.72848,0.13619
3756.65695,0.14247
3758.58542,0.14866
3760.51389,0.14177
3762.44235,0.13189
3764.37082,0.13057
3766.29929,0.13262
3768.22776,0.13152
3770.15623,0.12778
3772.08470,0.12372
3774.01317,0.12188
3775.94163,0.12384
3777.87010,0.12967
3779.79857,0.13373
3781.72704,0.13118
3783.65551,0.12649
3785.58398,0.12412
3787.51245,0.12534
3789.44092,0.12443
3791.36938,0.11945
3793.29785,0.11888
3795.22632,0.12646
3797.15479,0.13607
3799.08326,0.14274
3801.01173,0.14528
3802.94020,0.13903
3804.86866,0.13443
3806.79713,0.13619
3808.72560,0.13334
3810.65407,0.12830
3812.58254,0.12870
3814.51101,0.12992
3816.43948,0.12850
3818.36795,0.13246
3820.29641,0.13971
3822.22488,0.13705
3824.15335,0.13168
3826.08182,0.13134
3828.01029,0.13197
3829.93876,0.13392
3831.86723,0.13846
3833.79569,0.14198
3835.72416,0.14229
3837.65263,0.13777
3839.58110,0.12763
3841.50957,0.12076
3843.43804,0.12335
3845.36651,0.13252
3847.29498,0.14097
3849.22344,0.14694
3851.15191,0.15306
3853.08038,0.15264
3855.00885,0.13917
3856.93732,0.13002
3858.86579,0.12679
3860.79426,0.13019
3862.72272,0.13637
3864.65119,0.13339
3866.57966,0.12515
3868.50813,0.12565
3870.43660,0.13281
3872.36507,0.13435
3874.29354,0.13286
3876.22200,0.13130
3878.15047,0.12885
3880.07894,0.12589
3882.00741,0.11927
3883.93588,0.11287
3885.86435,0.11550
3887.79282,0.12176
3889.72129,0.12405
3891.64975,0.12440
3893.57822,0.12436
3895.50669,0.12576
3897.43516,0.12727
3899.36363,0.12613
3901.29210,0.12329
3903.22057,0.11884
3905.14903,0.11335
3907.07750,0.11202
3909.00597,0.11251
3910.93444,0.11091
3912.86291,0.11304
3914.79138,0.11992
3916.71985,0.12261
3918.64832,0.12123
3920.57678,0.11931
3922.50525,0.11720
3924.43372,0.11756
3926.36219,0.11889
3928.29066,0.11937
3930.21913,0.11808
3932.14760,0.11341
3934.07606,0.10886
3936.00453,0.10840
3937.93300,0.11025
3939.86147,0.11261
3941.78994,0.11619
3943.71841,0.11544
3945.64688,0.10932
3947.57535,0.10676
3949.50381,0.10807
3951.43228,0.10889
3953.36075,0.11096
3955.28922,0.11425
3957.21769,0.11285
3959.14616,0.10814
3961.07463,0.10762
3963.00309,0.10939
3964.93156,0.10979
3966.86003,0.10947
3968.78850,0.10969
3970.71697,0.10978
3972.64544,0.10705
3974.57391,0.10272
3976.50238,0.10166
3978.43084,0.10526
3980.35931,0.10795
3982.28778,0.10693
3984.21625,0.10693
3986.14472,0.10869
3988.07319,0.10950
3990.00166,0.11029
3991.93012,0.11128
3993.85859,0.11027
3995.78706,0.10857
3997.71553,0.10883
3999.64400,0.10807
4001.57247,0.10469
4003.50094,0.10165
4005.42941,0.09963
4007.35787,0.10056
4009.28634,0.10440
4011.21481,0.10499
4013.14328,0.10148
4015.07175,0.10011
4017.00022,0.10343
4018.92869,0.10799
4020.85715,0.11040
4022.78562,0.10666
4024.71409,0.09865
4026.64256,0.09571
4028.57103,0.09918
4030.49950,0.10283
4032.42797,0.10168
4034.35644,0.09770
4036.28490,0.09837
4038.21337,0.10238
4040.14184,0.10094
4042.07031,0.09565
4043.99878,0.09455
4045.92725,0.09646
4047.85572,0.09955
4049.78418,0.10361
4051.71265,0.10267
4053.64112,0.09906
4055.56959,0.10187
4057.49806,0.10573
4059.42653,0.10338
4061.35500,0.10245
4063.28346,0.10627
4065.21193,0.10937
4067.14040,0.10857
4069.06887,0.10397
4070.99734,0.10033
4072.92581,0.10220
4074.85428,0.10593
4076.78275,0.10473
4078.71121,0.10052
4080.63968,0.09590
4082.56815,0.09059
4084.49662,0.08958
4086.42509,0.09238
4088.35356,0.09464
4090.28203,0.09697
4092.21049,0.09698
4094.13896,0.09146
4096.06743,0.08525
4097.99590,0.08575
4099.92437,0.08964
4101.85284,0.08984
4103.78131,0.09086
4105.70978,0.09723
4107.63824,0.10073
4109.56671,0.09713
4111.49518,0.09395
4113.42365,0.09354
4115.35212,0.09191
4117.28059,0.08821
4119.20906,0.08219
4121.13752,0.07756
4123.06599,0.07948
4124.99446,0.08278
4126.92293,0.08123
4128.85140,0.07760
4130.77987,0.07621
4132.70834,0.07874
4134.63681,0.08350
4136.56527,0.08588
4138.49374,0.08617
4140.42221,0.08891
4142.35068,0.09409
4144.27915,0.09496
4146.20762,0.08846
4148.13609,0.08844
4150.06455,0.10208
4151.99302,0.10977
4153.92149,0.10122
4155.84996,0.09229
4157.77843,0.09098
4159.70690,0.08887
4161.63537,0.08195
4163.56384,0.07665
4165.49230,0.07576
4167.42077,0.07348
4169.34924,0.07235
4171.27771,0.07773
4173.20618,0.08120
4175.13465,0.07930
4177.06312,0.07746
4178.99158,0.07388
4180.92005,0.06735
4182.84852,0.06474
4184.77699,0.06738
4186.70546,0.06876
4188.63393,0.07067
4190.56240,0.07601
4192.49087,0.07819
4194.41933,0.07526
4196.34780,0.07278
4198.27627,0.07465
4200.20474,0.07745
4202.13321,0.07753
4204.06168,0.07824
4205.99015,0.08099
4207.91861,0.08155
4209.84708,0.07907
4211.77555,0.07909
4213.70402,0.08110
4215.63249,0.07828
4217.56096,0.07210
4219.48943,0.06941
4221.41789,0.07095
4223.34636,0.07147
4225.27483,0.06952
4227.20330,0.07046
4229.13177,0.07469
4231.06024,0.07689
4232.98871,0.07712
4234.91718,0.07480
4236.84564,0.06580
4238.77411,0.05847
4240.70258,0.06323
4242.63105,0.07384
4244.55952,0.08151
4246.48799,0.08426
4248.41646,0.08258
4250.34492,0.08001
4252.27339,0.07753
4254.20186,0.07369
4256.13033,0.07122
4258.05880,0.07228
4259.98727,0.07452
4261.91574,0.07502
4263.84421,0.07216
4265.77267,0.06730
4267.70114,0.06438
4269.62961,0.06586
4271.55808,0.06885
4273.48655,0.06656
4275.41502,0.06414
4277.34349,0.07241
4279.27195,0.07859
4281.20042,0.06925
4283.12889,0.05810
4285.05736,0.05804
4286.98583,0.06325
4288.91430,0.06505
4290.84277,0.06410
4292.77124,0.06245
4294.69970,0.05939
4296.62817,0.05728
4298.55664,0.05768
4300.48511,0.05754
4302.41358,0.05354
4304.34205,0.04760
4306.27052,0.04587
4308.19898,0.05245
4310.12745,0.06171
4312.05592,0.06254
4313.98439,0.05577
4315.91286,0.05150
4317.84133,0.05347
4319.76980,0.05349
4321.69827,0.04686
4323.62673,0.04322
4325.55520,0.04602
4327.48367,0.04801
4329.41214,0.04843
4331.34061,0.05283
4333.26908,0.05723
4335.19755,0.05578
4337.12601,0.05705
4339.05448,0.06293
4340.98295,0.06298
4342.91142,0.05447
4344.83989,0.04406
4346.76836,0.04075
4348.69683,0.04033
4350.62530,0.03400
4352.55376,0.03206
4354.48223,0.03978
4356.41070,0.04665
4358.33917,0.05038
4360.26764,0.04880
4362.19611,0.04196
4364.12458,0.04135
4366.05304,0.04465
4367.98151,0.04380
4369.90998,0.04368
4371.83845,0.04196
4373.76692,0.03897
4375.69539,0.04479
4377.62386,0.05000
4379.55232,0.04558
4381.48079,0.04094
4383.40926,0.03857
4385.33773,0.03727
4387.26620,0.03517
4389.19467,0.03192
4391.12314,0.03538
4393.05161,0.04243
4394.98007,0.04067
4396.90854,0.03113
4398.83701,0.02743
4400.76548,0.03443
4402.69395,0.04222
4404.62242,0.04515
4406.55089,0.04854
4408.47935,0.05394
4410.40782,0.05285
4412.33629,0.04313
4414.26476,0.03598
4416.19323,0.03409
4418.12170,0.02998
4420.05017,0.02496
4421.97864,0.02402
4423.90710,0.02697
4425.83557,0.02875
4427.76404,0.02654
4429.69251,0.02756
4431.62098,0.03287
4433.54945,0.03171
4435.47792,0.02569
4437.40638,0.02703
4439.33485,0.02955
4441.26332,0.02139
4443.19179,0.01258
4445.12026,0.01501
4447.04873,0.02577
4448.97720,0.03485
4450.90567,0.03537
4452.83413,0.03055
4454.76260,0.02989
4456.69107,0.03789
4458.61954,0.04588
4460.54801,0.04631
4462.47648,0.04106
4464.40495,0.03329
4466.33341,0.02938
4468.26188,0.02926
4470.19035,0.02810
4472.11882,0.03138
4474.04729,0.03869
4475.97576,0.03908
4477.90423,0.03576
4479.83270,0.03624
4481.76116,0.03356
4483.68963,0.02586
4485.61810,0.02230
4487.54657,0.02207
4489.47504,0.01868
4491.40351,0.01656
4493.33198,0.02101
4495.26044,0.02384
4497.18891,0.01636
4499.11738,0.00805
4501.04585,0.01059
4502.97432,0.01854
4504.90279,0.02333
4506.83126,0.02244
4508.75973,0.02070
4510.68819,0.02665
4512.61666,0.03585
4514.54513,0.03659
4516.47360,0.03104
4518.40207,0.02659
4520.33054,0.02106
4522.25901,0.01379
4524.18747,0.01348
4526.11594,0.02301
4528.04441,0.03291
4529.97288,0.03472
4531.90135,0.02532
4533.82982,0.01207
4535.75829,0.00872
4537.68676,0.01490
4539.61522,0.02002
4541.54369,0.01948
4543.47216,0.01767
4545.40063,0.01579
4547.32910,0.01104
4549.25757,0.00585
4551.18604,0.00449
4553.11450,0.01004
4555.04297,0.01794
4556.97144,0.02066
4558.89991,0.02032
4560.82838,0.02270
4562.75685,0.02645
4564.68532,0.02516
4566.61378,0.02071
4568.54225,0.02123
4570.47072,0.02486
4572.39919,0.02480
4574.32766,0.01978
4576.25613,0.01178
4578.18460,0.00621
4580.11307,0.00494
4582.04153,0.00436
4583.97000,0.00418
4585.89847,0.00561
4587.82694,0.01347
4589.75541,0.02747
4591.68388,0.03588
4593.61235,0.03494
4595.54081,0.02875
4597.46928,0.01990
4599.39775,0.01019
4601.32622,-0.00165
4603.25469,-0.01161
4605.18316,-0.01305
4607.11163,-0.00687
4609.04010,0.00446
4610.96856,0.01562
4612.89703,0.01967
4614.82550,0.01701
4616.75397,0.01412
4618.68244,0.01235
4620.61091,0.00940
4622.53938,0.00916
4624.46784,0.01116
4626.39631,0.01271
4628.32478,0.01540
4630.25325,0.01547
4632.18172,0.01189
4634.11019,0.00982
4636.03866,0.00580
4637.96713,0.00020
4639.89559,0.00551
4641.82406,0.01542
4643.75253,0.01563
4645.68100,0.01208
4647.60947,0.00761
4649.53794,-0.00148
4651.46641,-0.00614
4653.39487,0.00134
4655.32334,0.01489
4657.25181,0.02379
4659.18028,0.02308
4661.10875,0.01885
4663.03722,0.01226
4664.96569,0.00193
4666.89416,-0.00046
4668.82262,0.00456
4670.75109,0.00267
4672.67956,-0.00430
4674.60803,-0.00439
4676.53650,-0.00143
4678.46497,-0.00520
4680.39344,-0.00778
4682.32190,-0.00157
4684.25037,0.01005
4686.17884,0.02473
4688.10731,0.03447
4690.03578,0.03028
4691.96425,0.01843
4693.89272,0.00878
4695.82119,0.00302
4697.74965,0.00048
4699.67812,0.00251
4701.60659,0.00634
4703.53506,0.00593
4705.46353,0.00339
4707.39200,0.00070
4709.32047,0.00060
4711.24893,0.00475
4713.17740,0.00470
4715.10587,0.00393
4717.03434,0.01235
4718.96281,0.02066
4720.89128,0.01773
4722.81975,0.01567
4724.74821,0.02147
4726.67668,0.01890
4728.60515,0.01163
4730.53362,0.01656
4732.46209,0.02498
4734.39056,0.02045
4736.31903,0.00795
4738.24750,0.00132
4740.17596,0.00053
4742.10443,-0.00041
4744.03290,0.00360
4745.96137,0.01578
4747.88984,0.02399
4749.81831,0.02042
4751.74678,0.00966
4753.67524,-0.00543
4755.60371,-0.01610
4757.53218,-0.01290
4759.46065,-0.00630
4761.38912,-0.00138
4763.31759,0.00968
4765.24606,0.01780
4767.17453,0.01819
4769.10299,0.01915
4771.03146,0.01938
4772.95993,0.02084
4774.88840,0.02660
4776.81687,0.02596
4778.74534,0.01922
4780.67381,0.01727
4782.60227,0.01199
4784.53074,0.00004
4786.45921,-0.00804
4788.38768,-0.00665
4790.31615,0.00517
4792.24462,0.01188
4794.17309,0.00445
4796.10156,-0.00210
4798.03002,0.00025
4799.95849,0.00272
4801.88696,0.00195
4803.81543,0.00871
4805.74390,0.02421
4807.67237,0.02920
4809.60084,0.01633
4811.52930,0.00605
4813.45777,0.01046
4815.38624,0.02010
4817.31471,0.02236
4819.24318,0.01377
4821.17165,0.00515
4823.10012,0.00465
4825.02859,0.01117
4826.95705,0.01912
4828.88552,0.02100
4830.81399,0.01470
4832.74246,0.00279
4834.67093,-0.00736
4836.59940,-0.00907
4838.52787,-0.00248
4840.45633,0.00977
4842.38480,0.02351
4844.31327,0.02958
4846.24174,0.02715
4848.17021,0.02586
4850.09868,0.02273
4852.02715,0.01553
4853.95562,0.01191
4855.88408,0.01548
4857.81255,0.02023
4859.74102,0.01223
4861.66949,-0.00438
4863.59796,-0.00608
4865.52643,0.01026
4867.45490,0.02500
4869.38336,0.02461
4871.31183,0.01552
4873.24030,0.01179
4875.16877,0.01514
4877.09724,0.01913
4879.02571,0.01959
4880.95418,0.01371
4882.88265,0.00702
4884.81111,0.00489
4886.73958,0.00343
4888.66805,0.00345
4890.59652,0.00567
4892.52499,0.00268
4894.45346,-0.00036
4896.38193,0.00474
4898.31039,0.01069
4900.23886,0.01268
4902.16733,0.00973
4904.09580,0.00482
4906.02427,0.00850
4907.95274,0.01707
4909.88121,0.02158
4911.80967,0.02507
4913.73814,0.02530
4915.66661,0.01924
4917.59508,0.01243
4919.52355,0.00136
4921.45202,-0.01524
4923.38049,-0.02114
4925.30896,-0.00825
4927.23742,0.00742
4929.16589,0.01067
4931.09436,0.00868
4933.02283,0.00788
4934.95130,0.00003
4936.87977,-0.01234
4938.80824,-0.01490
4940.73670,-0.00123
4942.66517,0.02262
4944.59364,0.03972
4946.52211,0.03803
4948.45058,0.02723
4950.37905,0.02038
4952.30752,0.01378
4954.23599,0.00083
4956.16445,-0.00916
4958.09292,-0.00892
4960.02139,-0.00332
4961.94986,0.01177
4963.87833,0.03035
4965.80680,0.03472
4967.73527,0.03256
4969.66373,0.03300
4971.59220,0.02819
4973.52067,0.01759
4975.44914,0.01029
4977.37761,0.01084
4979.30608,0.01460
4981.23455,0.01295
4983.16302,0.00540
4985.09148,0.00776
4987.01995,0.02681
4988.94842,0.04166
4990.87689,0.03684
4992.80536,0.02047
4994.73383,0.00040
4996.66230,-0.01907
4998.59076,-0.03275
5000.51923,-0.03276
5002.44770,-0.01023
5004.37617,0.01471
5006.30464,0.01713
5008.23311,0.01574
5010.16158,0.02705
5012.09005,0.03240
5014.01851,0.02839
5015.94698,0.02941
5017.87545,0.02890
5019.80392,0.02481
5021.73239,0.02857
5023.66086,0.03418
5025.58933,0.03009
5027.51779,0.01970
5029.44626,0.01281
5031.37473,0.01040
5033.30320,-0.00004
5035.23167,-0.01624
5037.16014,-0.02151
5039.08861,-0.02339
5041.01708,-0.02763
5042.94554,-0.01905
5044.87401,0.00677
5046.80248,0.03109
5048.73095,0.03241
5050.65942,0.02603
5052.58789,0.02743
5054.51636,0.02172
5056.44482,0.01612
5058.37329,0.02375
5060.30176,0.03087
5062.23023,0.02796
5064.15870,0.01954
5066.08717,0.01395
5068.01564,0.01218
5069.94410,0.01319
5071.87257,0.02356
5073.80104,0.03531
5075.72951,0.03406
5077.65798,0.02161
5079.58645,0.01320
5081.51492,0.02244
5083.44339,0.03841
5085.37185,0.04271
5087.30032,0.04111
5089.22879,0.04556
5091.15726,0.04258
5093.08573,0.02605
5095.01420,0.01583
5096.94267,0.01610
5098.87113,0.01957
5100.79960,0.02650
5102.72807,0.03012
5104.65654,0.02842
5106.58501,0.03500
5108.51348,0.04459
5110.44195,0.03298
5112.37042,0.01318
5114.29888,0.01750
5116.22735,0.03418
5118.15582,0.03858
5120.08429,0.02763
5122.01276,0.01474
5123.94123,0.02212
5125.86970,0.03887
5127.79816,0.03892
5129.72663,0.03077
5131.65510,0.02040
5133.58357,0.00192
5135.51204,-0.00699
5137.44051,0.00950
5139.36898,0.02724
5141.29745,0.02661
5143.22591,0.03284
5145.15438,0.05213
5147.08285,0.05268
5149.01132,0.02802
5150.93979,0.00168
5152.86826,0.00019
5154.79673,0.02424
5156.72519,0.04022
5158.65366,0.03192
5160.58213,0.02252
5162.51060,0.03080
5164.43907,0.04190
5166.36754,0.02968
5168.29601,0.00454
5170.22448,-0.00504
5172.15294,0.00289
5174.08141,0.01229
5176.00988,0.01889
5177.93835,0.01771
5179.86682,0.00947
5181.79529,0.01732
5183.72376,0.04387
5185.65222,0.05701
5187.58069,0.04372
5189.50916,0.03080
5191.43763,0.03147
5193.36610,0.03645
5195.29457,0.04451
5197.22304,0.04841
5199.15151,0.04846
5201.07997,0.05801
5203.00844,0.06561
5204.93691,0.06341
5206.86538,0.06421
5208.79385,0.06580
5210.72232,0.05872
5212.65079,0.05531
5214.57925,0.06313
5216.50772,0.06817
5218.43619,0.06666
5220.36466,0.06631
5222.29313,0.06702
5224.22160,0.06484
5226.15007,0.04768
5228.07854,0.02628
5230.00700,0.02638
5231.93547,0.03309
5233.86394,0.03270
5235.79241,0.02945
5237.72088,0.01534
5239.64935,0.00716
5241.57782,0.02271
5243.50628,0.04075
5245.43475,0.04074
5247.36322,0.03226
5249.29169,0.04009
5251.22016,0.05696
5253.14863,0.05150
5255.07710,0.02972
5257.00556,0.02305
5258.93403,0.03207
5260.86250,0.04379
5262.79097,0.06314
5264.71944,0.07421
5266.64791,0.06210
5268.57638,0.05552
5270.50485,0.05269
5272.43331,0.03228
5274.36178,0.01546
5276.29025,0.02783
5278.21872,0.05490
5280.14719,0.06711
5282.07566,0.06639
5284.00413,0.06074
5285.93259,0.04638
5287.86106,0.03521
5289.78953,0.02945
5291.71800,0.01783
5293.64647,0.00872
5295.57494,0.01792
5297.50341,0.04190
5299.43188,0.05775
5301.36034,0.05429
5303.28881,0.05291
5305.21728,0.06930
5307.14575,0.07716
5309.07422,0.05459
5311.00269,0.02432
5312.93116,0.00953
5314.85962,0.01148
5316.78809,0.01970
5318.71656,0.02387
5320.64503,0.02444
5322.57350,0.02337
5324.50197,0.02047
5326.43044,0.02547
5328.35891,0.03886
5330.28737,0.04888
5332.21584,0.05285
5334.14431,0.04855
5336.07278,0.04906
5338.00125,0.06679
5339.92972,0.07718
5341.85819,0.06874
5343.78665,0.06910
5345.71512,0.08040
5347.64359,0.07949
5349.57206,0.08322
5351.50053,0.09879
5353.42900,0.10279
5355.35747,0.08451
5357.28594,0.06077
5359.21440,0.05167
5361.14287,0.05302
5363.07134,0.05568
5364.99981,0.06396
5366.92828,0.06440
5368.85675,0.04989
5370.78522,0.03893
5372.71368,0.04723
5374.64215,0.06688
5376.57062,0.06114
5378.49909,0.03849
5380.42756,0.05103
5382.35603,0.07944
5384.28450,0.07462
5386.21297,0.05908
5388.14143,0.06781
5390.06990,0.07344
5391.99837,0.07473
5393.92684,0.08248
5395.85531,0.07555
5397.78378,0.05736
5399.71225,0.05605
5401.64071,0.07314
5403.56918,0.07985
5405.49765,0.06857
5407.42612,0.06890
5409.35459,0.08097
5411.28306,0.07774
5413.21153,0.06097
5415.13999,0.04737
5417.06846,0.04749
5418.99693,0.07094
5420.92540,0.10299
5422.85387,0.11351
5424.78234,0.10606
5426.71081,0.09518
5428.63928,0.07275
5430.56774,0.04763
5432.49621,0.05088
5434.42468,0.09226
5436.35315,0.12578
5438.28162,0.10833
5440.21009,0.07352
5442.13856,0.06839
5444.06702,0.08750
5445.99549,0.09954
5447.92396,0.08664
5449.85243,0.05648
5451.78090,0.04321
5453.70937,0.06544
5455.63784,0.09439
5457.56631,0.09445
5459.49477,0.07748
5461.42324,0.05770
5463.35171,0.04087
5465.28018,0.05293
5467.20865,0.08001
5469.13712,0.07892
5471.06559,0.05545
5472.99405,0.03919
5474.92252,0.03545
5476.85099,0.04104
5478.77946,0.05851
5480.70793,0.08152
5482.63640,0.08636
5484.56487,0.06978
5486.49334,0.05814
5488.42180,0.06095
5490.35027,0.06675
5492.27874,0.07076
5494.20721,0.07012
5496.13568,0.07570
5498.06415,0.09084
5499.99262,0.10313
5501.92108,0.11630
5503.84955,0.10664
5505.77802,0.05814
5507.70649,0.02610
5509.63496,0.03923
5511.56343,0.06679
5513.49190,0.09326
5515.42037,0.11013
5517.34883,0.09545
5519.27730,0.06409
5521.20577,0.06567
5523.13424,0.08975
5525.06271,0.09252
5526.99118,0.08546
5528.91965,0.09387
5530.84811,0.10488
5532.77658,0.10645
5534.70505,0.11145
5536.63352,0.10864
5538.56199,0.08144
5540.49046,0.06963
5542.41893,0.09629
5544.34740,0.11476
5546.27586,0.10548
5548.20433,0.09182
5550.13280,0.09039
5552.06127,0.10533
5553.98974,0.10995
5555.91821,0.09679
5557.84668,0.09214
5559.77514,0.09277
5561.70361,0.09182
5563.63208,0.09109
5565.56055,0.09340
5567.48902,0.10046
5569.41749,0.10072
5571.34596,0.09635
5573.27443,0.08820
5575.20289,0.06715
5577.13136,0.04816
5579.05983,0.04186
5580.98830,0.04299
5582.91677,0.07007
5584.84524,0.11254
5586.77371,0.11860
5588.70217,0.09683
5590.63064,0.09531
5592.55911,0.10442
5594.48758,0.08841
5596.41605,0.05931
5598.34452,0.05380
5600.27299,0.07364
5602.20145,0.09161
5604.12992,0.09591
5606.05839,0.09848
5607.98686,0.09705
5609.91533,0.09296
5611.84380,0.09760
5613.77227,0.08661
5615.70074,0.06327
5617.62920,0.06934
5619.55767,0.08944
5621.48614,0.09771
5623.41461,0.12679
5625.34308,0.17753
5627.27155,0.18362
5629.20002,0.13564
5631.12848,0.09203
5633.05695,0.07457
5634.98542,0.07356
5636.91389,0.06513
5638.84236,0.04661
5640.77083,0.04424
5642.69930,0.05542
5644.62777,0.06809
5646.55623,0.07865
5648.48470,0.08701
5650.41317,0.08950
5652.34164,0.07601
5654.27011,0.05661
5656.19858,0.04538
5658.12705,0.05952
5660.05551,0.09600
5661.98398,0.11551
5663.91245,0.10922
5665.84092,0.09580
5667.76939,0.07823
5669.69786,0.05668
5671.62633,0.04093
5673.55480,0.03916
5675.48326,0.04226
5677.41173,0.03866
5679.34020,0.04486
5681.26867,0.06674
5683.19714,0.07759
5685.12561,0.07658
5687.05408,0.07571
5688.98254,0.06930
5690.91101,0.08304
5692.83948,0.12348
5694.76795,0.12690
5696.69642,0.09640
5698.62489,0.10092
5700.55336,0.11727
5702.48183,0.10305
5704.41029,0.09777
5706.33876,0.11574
5708.26723,0.11472
5710.19570,0.09664
5712.12417,0.07979
5714.05264,0.06199
5715.98111,0.06607
5717.90957,0.08227
5719.83804,0.08929
5721.76651,0.10594
5723.69498,0.11303
5725.62345,0.09878
5727.55192,0.09474
5729.48039,0.09015
5731.40886,0.08056
5733.33732,0.10075
5735.26579,0.13530
5737.19426,0.14497
5739.12273,0.13853
5741.05120,0.12924
5742.97967,0.12890
5744.90814,0.13722
5746.83660,0.13239
5748.76507,0.12812
5750.69354,0.11528
5752.62201,0.06874
5754.55048,0.03792
5756.47895,0.04344
5758.40742,0.05557
5760.33588,0.06106
5762.26435,0.06285
5764.19282,0.06278
5766.12129,0.05910
5768.04976,0.06850
5769.97823,0.07053
5771.90670,0.03723
5773.83517,0.02345
5775.76363,0.04648
5777.69210,0.05302
5779.62057,0.05224
5781.54904,0.07240
5783.47751,0.08264
5785.40598,0.08099
5787.33445,0.10640
5789.26291,0.12896
5791.19138,0.10660
5793.11985,0.07513
5795.04832,0.06391
5796.97679,0.07290
5798.90526,0.08834
5800.83373,0.07979
5802.76220,0.04921
5804.69066,0.03855
5806.61913,0.06779
5808.54760,0.09972
5810.47607,0.10629
5812.40454,0.09255
5814.33301,0.06340
5816.26148,0.03933
5818.18994,0.04584
5820.11841,0.07484
5822.04688,0.09596
5823.97535,0.08252
5825.90382,0.04997
5827.83229,0.04791
5829.76076,0.07526
5831.68923,0.08851
5833.61769,0.08266
5835.54616,0.08235
5837.47463,0.10131
5839.40310,0.12941
5841.33157,0.13417
5843.26004,0.09697
5845.18851,0.07232
5847.11697,0.09248
5849.04544,0.09848
5850.97391,0.07450
5852.90238,0.07027
5854.83085,0.08564
5856.75932,0.07729
5858.68779,0.05275
5860.61626,0.06519
5862.54472,0.10709
5864.47319,0.13332
5866.40166,0.12180
5868.33013,0.07446
5870.25860,0.03177
5872.18707,0.03583
5874.11554,0.06812
5876.04400,0.09369
5877.97247,0.10601
5879.90094,0.09334
5881.82941,0.05432
5883.75788,0.03005
5885.68635,0.05469
5887.61482,0.07785
5889.54329,0.04708
5891.47175,0.02794
5893.40022,0.07634
5895.32869,0.14864
5897.25716,0.18646
5899.18563,0.17997
5901.11410,0.14778
5903.04257,0.11390
5904.97103,0.10207
5906.89950,0.10293
5908.82797,0.10201
5910.75644,0.09916
5912.68491,0.08482
5914.61338,0.06007
5916.54185,0.05523
5918.47032,0.08397
5920.39878,0.11260
5922.32725,0.12145
5924.25572,0.11953
5926.18419,0.09530
5928.11266,0.06010
5930.04113,0.04927
5931.96960,0.05114
5933.89806,0.05703
5935.82653,0.07447
5937.75500,0.07729
5939.68347,0.05557
5941.61194,0.03196
5943.54041,0.01789
5945.46888,0.00239
5947.39734,-0.01602
5949.32581,-0.02120
5951.25428,-0.00252
5953.18275,0.03058
5955.11122,0.05220
5957.03969,0.06038
5958.96816,0.08042
5960.89663,0.09477
5962.82509,0.07615
5964.75356,0.06736
5966.68203,0.09073
5968.61050,0.10204
5970.53897,0.07554
5972.46744,0.02641
5974.39591,-0.00724
5976.32437,0.01037
5978.25284,0.06260
5980.18131,0.09280
5982.10978,0.08833
5984.03825,0.08148
5985.96672,0.05871
5987.89519,0.01949
5989.82366,0.02428
5991.75212,0.07005
5993.68059,0.08295
5995.60906,0.03199
5997.53753,-0.00592
5999.46600,0.02384
6001.39447,0.05337
6003.32294,0.05469
6005.25140,0.08776
6007.17987,0.12945
6009.10834,0.12440
6011.03681,0.11364
6012.96528,0.13740
6014.89375,0.15388
6016.82222,0.13107
6018.75069,0.11242
6020.67915,0.11212
6022.60762,0.09790
6024.53609,0.08142
6026.46456,0.07115
6028.39303,0.05809
6030.32150,0.05611
6032.24997,0.06898
6034.17843,0.07517
6036.10690,0.07555
6038.03537,0.08608
6039.96384,0.09097
6041.89231,0.08939
6043.82078,0.09761
6045.74925,0.10083
6047.67772,0.08680
6049.60618,0.05645
6051.53465,0.02484
6053.46312,0.02130
6055.39159,0.05590
6057.32006,0.09723
6059.24853,0.10511
6061.17700,0.09708
6063.10546,0.09686
6065.03393,0.08246
6066.96240,0.06538
6068.89087,0.06663
6070.81934,0.06724
6072.74781,0.06542
6074.67628,0.08934
6076.60475,0.13239
6078.53321,0.12430
6080.46168,0.05332
6082.39015,0.03205
6084.31862,0.09262
6086.24709,0.13592
6088.17556,0.11297
6090.10403,0.07495
6092.03249,0.06865
6093.96096,0.07258
6095.88943,0.05577
6097.81790,0.03893
6099.74637,0.04627
6101.67484,0.05690
6103.60331,0.03625
6105.53177,0.02497
6107.46024,0.07420
6109.38871,0.13204
6111.31718,0.12837
6113.24565,0.08069
6115.17412,0.04711
6117.10259,0.04832
6119.03106,0.07135
6120.95952,0.10328
6122.88799,0.11490
6124.81646,0.09705
6126.74493,0.08119
6128.67340,0.07851
6130.60187,0.06829
6132.53034,0.04870
6134.45880,0.03085
6136.38727,0.02051
6138.31574,0.03896
6140.24421,0.07784
6142.17268,0.10543
6144.10115,0.12282
6146.02962,0.11263
6147.95809,0.09457
6149.88655,0.12698
6151.81502,0.17465
6153.74349,0.15867
6155.67196,0.11295
6157.60043,0.11974
6159.52890,0.17276
6161.45737,0.21540
6163.38583,0.22801
6165.31430,0.19065
6167.24277,0.12226
6169.17124,0.08230
6171.09971,0.08363
6173.02818,0.11507
6174.95665,0.12934
6176.88512,0.08999
6178.81358,0.06018
6180.74205,0.07269
6182.67052,0.08384
6184.59899,0.08055
6186.52746,0.07513
6188.45593,0.06679
6190.38440,0.05743
6192.31286,0.04866
6194.24133,0.04927
6196.16980,0.08218
6198.09827,0.12255
6200.02674,0.12895
6201.95521,0.11607
6203.88368,0.12119
6205.81215,0.13783
6207.74061,0.13580
6209.66908,0.11004
6211.59755,0.05965
6213.52602,0.03678
6215.45449,0.07890
6217.38296,0.12463
6219.31143,0.12682
6221.23989,0.09727
6223.16836,0.04701
6225.09683,0.00216
6227.02530,-0.01425
6228.95377,0.00446
6230.88224,0.03702
6232.81071,0.04851
6234.73918,0.07908
6236.66764,0.12483
6238.59611,0.10741
6240.52458,0.03817
6242.45305,-0.00921
6244.38152,0.01297
6246.30999,0.09808
6248.23846,0.16925
6250.16692,0.15983
6252.09539,0.10561
6254.02386,0.10007
6255.95233,0.14952
6257.88080,0.16663
6259.80927,0.11986
6261.73774,0.07245
6263.66621,0.05329
6265.59467,0.03938
6267.52314,0.03598
6269.45161,0.06081
6271.38008,0.11201
6273.30855,0.17192
6275.23702,0.16846
6277.16549,0.08755
6279.09395,0.04682
6281.02242,0.12951
6282.95089,0.28235
6284.87936,0.35074
6286.80783,0.27079
6288.73630,0.11774
6290.66477,0.00380
6292.59323,-0.01672
6294.52170,0.00284
6296.45017,0.00895
6298.37864,0.01877
6300.30711,0.06338
6302.23558,0.11942
6304.16405,0.15014
6306.09252,0.15982
6308.02098,0.16399
6309.94945,0.16649
6311.87792,0.15357
6313.80639,0.14128
6315.73486,0.15332
6317.66333,0.14149
6319.59180,0.05827
6321.52026,-0.02408
6323.44873,-0.01300
6325.37720,0.04348
6327.30567,0.05576
6329.23414,0.03098
6331.16261,0.02495
6333.09108,0.05002
6335.01955,0.08654
6336.94801,0.11310
6338.87648,0.15264
6340.80495,0.20414
6342.73342,0.22557
6344.66189,0.21377
6346.59036,0.13886
6348.51883,0.00812
6350.44729,-0.07054
6352.37576,-0.06866
6354.30423,-0.04095
6356.23270,0.00797
6358.16117,0.04891
6360.08964,0.06420
6362.01811,0.08931
6363.94658,0.11665
6365.87504,0.11975
6367.80351,0.08747
6369.73198,0.04843
6371.66045,0.05075
6373.58892,0.08736
6375.51739,0.11673
6377.44586,0.11590
6379.37432,0.07633
6381.30279,0.00047
6383.23126,-0.06538
6385.15973,-0.05275
6387.08820,0.00451
6389.01667,0.05431
6390.94514,0.10729
6392.87361,0.14044
6394.80207,0.10069
6396.73054,0.04375
6398.65901,0.03028
6400.58748,0.01712
6402.51595,-0.04127
6404.44442,-0.07606
6406.37289,-0.01927
6408.30135,0.07934
6410.22982,0.14252
6412.15829,0.13740
6414.08676,0.06801
6416.01523,0.01097
6417.94370,0.04458
6419.87217,0.12870
6421.80064,0.17708
6423.72910,0.17699
6425.65757,0.14137
6427.58604,0.07812
6429.51451,0.02416
6431.44298,0.03492
6433.37145,0.09487
6435.29992,0.18419
6437.22838,0.26571
6439.15685,0.25429
6441.08532,0.16454
6443.01379,0.03057
6444.94226,-0.08129
6446.87073,-0.07732
6448.79920,0.03241
6450.72766,0.14216
6452.65613,0.14075
6454.58460,0.06301
6456.51307,0.01119
6458.44154,0.03138
6460.37001,0.08185
6462.29848,0.07772
6464.22695,0.02134
6466.15541,-0.01880
6468.08388,-0.01645
6470.01235,0.04130
6471.94082,0.12392
6473.86929,0.18403
6475.79776,0.18532
6477.72623,0.09186
6479.65469,-0.00542
6481.58316,-0.02215
6483.51163,-0.03061
6485.44010,-0.04095
6487.36857,0.02434
6489.29704,0.10132
6491.22551,0.08178
6493.15398,0.00316
6495.08244,-0.04914
6497.01091,-0.04255
6498.93938,-0.01203
6500.86785,-0.00193
6502.79632,0.01232
6504.72479,0.05232
6506.65326,0.08267
6508.58172,0.07753
6510.51019,0.06793
6512.43866,0.04204
6514.36713,-0.00915
6516.29560,-0.02624
6518.22407,-0.01575
6520.15254,-0.01704
6522.08101,-0.02198
6524.00947,-0.00255
6525.93794,0.03721
6527.86641,0.06593
6529.79488,0.06758
6531.72335,0.02479
6533.65182,-0.02717
6535.58029,-0.01799
6537.50875,0.02903
6539.43722,0.05129
6541.36569,0.08082
6543.29416,0.13671
6545.22263,0.15311
6547.15110,0.11975
6549.07957,0.08152
6551.00804,0.06512
6552.93650,0.07866
6554.86497,0.11635
6556.79344,0.14067
6558.72191,0.14534
6560.65038,0.13558
6562.57885,0.12267
6564.50732,0.16268
6566.43578,0.20881
6568.36425,0.15465
6570.29272,0.04601
6572.22119,0.00214
6574.14966,0.03993
6576.07813,0.08744
6578.00660,0.08753
6579.93507,0.04241
6581.86353,0.02314
6583.79200,0.05582
6585.72047,0.07599
6587.64894,0.08264
6589.57741,0.12486
6591.50588,0.13753
6593.43435,0.04170
6595.36281,-0.04664
6597.29128,-0.02967
6599.21975,0.01750
6601.14822,0.04762
6603.07669,0.05998
6605.00516,0.05539
6606.93363,0.04751
6608.86210,0.06138
6610.79056,0.10404
6612.71903,0.14925
6614.64750,0.18189
6616.57597,0.16123
6618.50444,0.05628
6620.43291,-0.03836
6622.36138,-0.04230
6624.28984,-0.00349
6626.21831,-0.01122
6628.14678,-0.02695
6630.07525,0.00080
6632.00372,0.02578
6633.93219,0.06347
6635.86066,0.09453
6637.78912,0.03435
6639.71759,-0.01481
6641.64606,0.03578
6643.57453,0.09495
6645.50300,0.12619
6647.43147,0.15944
6649.35994,0.16202
6651.28841,0.12697
6653.21687,0.07058
6655.14534,0.01404
6657.07381,-0.02395
6659.00228,-0.02140
6660.93075,0.02449
6662.85922,0.09083
6664.78769,0.13498
6666.71615,0.08867
6668.64462,-0.02356
6670.57309,-0.06081
6672.50156,0.00980
6674.43003,0.06262
6676.35850,0.10909
6678.28697,0.20525
6680.21544,0.22153
6682.14390,0.10473
6684.07237,0.01590
6686.00084,0.04440
6687.92931,0.08822
6689.85778,0.09124
6691.78625,0.07632
6693.71472,0.04091
6695.64318,-0.02578
6697.57165,-0.06480
6699.50012,-0.00537
6701.42859,0.06970
6703.35706,0.06643
6705.28553,-0.01720
6707.21400,-0.11314
6709.14247,-0.12628
6711.07093,-0.11308
6712.99940,-0.13930
6714.92787,-0.12105
6716.85634,-0.00517
6718.78481,0.10719
6720.71328,0.13158
6722.64175,0.08783
6724.57021,0.00481
6726.49868,-0.07354
6728.42715,-0.06894
6730.35562,0.02402
6732.28409,0.10724
6734.21256,0.14910
6736.14103,0.14901
6738.06950,0.06660
6739.99796,-0.03695
6741.92643,0.00031
6743.85490,0.13089
6745.78337,0.15426
6747.71184,0.07491
6749.64031,-0.00240
6751.56878,0.03080
6753.49724,0.21829
6755.42571,0.32710
6757.35418,0.17451
6759.28265,-0.07437
6761.21112,-0.18226
6763.13959,-0.14774
6765.06806,-0.04529
6766.99653,0.08011
6768.92499,0.13963
6770.85346,0.11274
6772.78193,0.05466
6774.71040,0.05994
6776.63887,0.13157
6778.56734,0.12400
6780.49581,0.03450
6782.42427,0.00695
6784.35274,0.05752
6786.28121,0.04978
6788.20968,0.00570
6790.13815,0.05125
6792.06662,0.12481
6793.99509,0.11529
6795.92355,0.06506
6797.85202,0.07895
6799.78049,0.18256
6801.70896,0.23883
6803.63743,0.11404
6805.56590,-0.06208
6807.49437,-0.07137
6809.42284,0.06419
6811.35130,0.20163
6813.27977,0.28132
6815.20824,0.30858
6817.13671,0.28650
6819.06518,0.25916
6820.99365,0.20298
6822.92212,0.08967
6824.85058,0.03227
6826.77905,0.02665
6828.70752,0.02172
6830.63599,0.06711
6832.56446,0.10322
6834.49293,0.08535
6836.42140,0.10101
6838.34987,0.15936
6840.27833,0.17188
6842.20680,0.11389
6844.13527,0.00391
6846.06374,-0.08484
6847.99221,-0.02911
6849.92068,0.11610
6851.84915,0.16947
6853.77761,0.17094
6855.70608,0.18024
6857.63455,0.16616
6859.56302,0.14775
6861.49149,0.17724
6863.41996,0.19775
6865.34843,0.15493
6867.27690,0.12344
6869.20536,0.13809
6871.13383,0.14224
6873.06230,0.10280
6874.99077,0.03351
6876.91924,-0.02014
6878.84771,-0.01083
6880.77618,0.01418
6882.70464,-0.00690
6884.63311,-0.01517
6886.56158,-0.00157
6888.49005,-0.00726
6890.41852,-0.00011
6892.34699,0.05679
6894.27546,0.12722
6896.20393,0.17802
6898.13239,0.17127
6900.06086,0.12258
6901.98933,0.10990
6903.91780,0.14981
6905.84627,0.19505
6907.77474,0.13833
6909.70321,-0.03179
6911.63167,-0.14623
6913.56014,-0.08948
6915.48861,-0.02627
6917.41708,-0.08098
6919.34555,-0.08022
6921.27402,0.01787
6923.20249,0.03106
6925.13096,-0.01175
6927.05942,-0.02662
6928.98789,-0.02259
6930.91636,-0.00108
6932.84483,0.07436
6934.77330,0.13917
6936.70177,0.11253
6938.63024,0.04551
6940.55870,0.01873
6942.48717,0.03957
6944.41564,0.08682
6946.34411,0.10322
6948.27258,0.12311
6950.20105,0.20337
6952.12952,0.21944
6954.05799,0.16840
6955.98645,0.14098
6957.91492,0.11035
6959.84339,0.11051
6961.77186,0.13712
6963.70033,0.13629
6965.62880,0.13208
6967.55727,0.11988
6969.48573,0.08603
6971.41420,0.06465
6973.34267,0.04137
6975.27114,-0.00168
6977.19961,-0.03445
6979.12808,-0.07917
6981.05655,-0.10812
6982.98501,-0.02945
6984.91348,0.07411
6986.84195,0.06733
6988.77042,0.06055
6990.69889,0.12482
6992.62736,0.18192
6994.55583,0.20775
6996.48430,0.19012
6998.41276,0.13062
7000.34123,0.12650
7002.26970,0.16543
7004.19817,0.10931
7006.12664,0.01363
7008.05511,0.02336
7009.98358,0.07806
7011.91204,0.07130
7013.84051,0.00771
7015.76898,-0.06572
7017.69745,-0.13587
7019.62592,-0.11049
7021.55439,-0.00046
7023.48286,0.02721
7025.41133,0.00819
7027.33979,0.08826
7029.26826,0.21655
7031.19673,0.25959
7033.12520,0.25932
7035.05367,0.21031
7036.98214,0.05988
7038.91061,-0.04285
7040.83907,0.03451
7042.76754,0.20064
7044.69601,0.24034
7046.62448,0.22213
7048.55295,0.28526
7050.48142,0.32756
7052.40989,0.28249
7054.33836,0.19715
7056.26682,0.11588
7058.19529,0.10204
7060.12376,0.14536
7062.05223,0.17179
7063.98070,0.14015
7065.90917,0.03093
7067.83764,-0.09546
7069.76610,-0.14575
7071.69457,-0.08438
7073.62304,-0.02703
7075.55151,-0.03193
7077.47998,0.01124
7079.40845,0.09214
7081.33692,0.06109
7083.26539,0.05433
7085.19385,0.14507
7087.12232,0.11463
7089.05079,-0.04406
7090.97926,-0.14519
7092.90773,-0.14861
7094.83620,-0.08061
7096.76467,0.02297
7098.69313,0.12805
7100.62160,0.21467
7102.55007,0.30776
7104.47854,0.37254
7106.40701,0.26256
7108.33548,0.03966
7110.26395,-0.06492
7112.19242,-0.08528
7114.12088,-0.11716
7116.04935,-0.07325
7117.97782,0.06381
7119.90629,0.10029
7121.83476,0.05455
7123.76323,0.05825
7125.69170,0.06614
7127.62016,0.03916
7129.54863,0.06628
7131.47710,0.12278
7133.40557,0.13259
7135.33404,0.13424
7137.26251,0.14966
7139.19098,0.09270
7141.11944,-0.03172
7143.04791,-0.06340
7144.97638,0.03939
7146.90485,0.08462
7148.83332,0.02166
7150.76179,-0.00338
7152.69026,0.03015
7154.61873,0.08809
7156.54719,0.17997
7158.47566,0.27416
7160.40413,0.27419
7162.33260,0.09714
7164.26107,-0.11871
7166.18954,-0.14563
7168.11801,-0.02331
7170.04647,0.07330
7171.97494,0.03657
7173.90341,-0.08060
7175.83188,-0.17020
7177.76035,-0.19039
7179.68882,-0.12856
7181.61729,-0.09057
7183.54576,-0.13164
7185.47422,-0.06930
7187.40269,0.05633
7189.33116,0.09315
7191.25963,0.06014
7193.18810,0.00869
7195.11657,-0.01821
7197.04504,0.05573
7198.97350,0.13662
7200.90197,0.12787
7202.83044,0.06679
7204.75891,-0.02971
7206.68738,-0.14360
7208.61585,-0.21269
7210.54432,-0.14914
7212.47279,0.03523
7214.40125,0.24901
7216.32972,0.44380
7218.25819,0.47006
7220.18666,0.31486
7222.11513,0.14814
7224.04360,0.03841
7225.97207,-0.00376
7227.90053,-0.08233
7229.82900,-0.17934
7231.75747,-0.20724
7233.68594,-0.21046
7235.61441,-0.15671
7237.54288,-0.07421
7239.47135,-0.09359
7241.39982,-0.11331
7243.32828,-0.01727
7245.25675,0.05520
7247.18522,0.06976
7249.11369,0.04349
7251.04216,-0.05798
7252.97063,-0.13086
7254.89910,-0.03127
7256.82756,0.07761
7258.75603,0.13047
7260.68450,0.22433
7262.61297,0.34553
7264.54144,0.33354
7266.46991,0.22429
7268.39838,0.11639
7270.32685,0.00877
7272.25531,-0.00693
7274.18378,0.14002
7276.11225,0.27022
7278.04072,0.26615
7279.96919,0.13308
7281.89766,0.02592
7283.82613,-0.01495
7285.75459,0.00505
7287.68306,0.07230
7289.61153,0.12050
7291.54000,0.14436
7293.46847,0.08449
7295.39694,-0.03212
7297.32541,0.02003
7299.25387,0.23052
7301.18234,0.37073
7303.11081,0.34323
7305.03928,0.24398
7306.96775,0.24726
7308.89622,0.35997
7310.82469,0.26940
7312.75316,0.04334
7314.68162,-0.02359
7316.61009,0.12376
7318.53856,0.28304
7320.46703,0.34361
7322.39550,0.37653
7324.32397,0.32487
7326.25244,0.15487
7328.18090,0.04406
7330.10937,0.05263
7332.03784,0.00143
7333.96631,-0.06384
7335.89478,-0.06251
7337.82325,-0.03123
7339.75172,0.07077
7341.68019,0.26574
7343.60865,0.31694
7345.53712,0.15498
7347.46559,0.00243
7349.39406,0.05493
7351.32253,0.17853
7353.25100,0.18155
7355.17947,0.19466
7357.10793,0.32051
7359.03640,0.19308
7360.96487,-0.11723
7362.89334,-0.08922
7364.82181,0.09236
7366.75028,0.12169
7368.67875,0.09400
7370.60722,0.14534
7372.53568,0.27498
7374.46415,0.37524
7376.39262,0.18824
7378.32109,-0.01369
7380.24956,0.02817
7382.17803,0.15228
7384.10650,0.23233
7386.03496,0.33985
7387.96343,0.39515
7389.89190,0.28675
7391.82037,0.12270
7393.74884,0.11222
7395.67731,0.27027
7397.60578,0.34430
7399.53425,0.27849
7401.46271,0.13001
7403.39118,-0.07937
7405.31965,-0.17227
7407.24812,-0.14609
7409.17659,-0.21296
7411.10506,-0.28045
7413.03353,-0.11972
7414.96199,0.17047
7416.89046,0.32788
7418.81893,0.29006
7420.74740,0.28018
7422.67587,0.25448
7424.60434,0.12767
7426.53281,0.07568
7428.46128,0.14042
7430.38974,0.16567
7432.31821,0.15270
7434.24668,0.14151
7436.17515,0.14612
7438.10362,0.20318
7440.03209,0.10507
7441.96056,-0.12688
7443.88902,-0.20807
7445.81749,-0.11849
7447.74596,0.01831
7449.67443,0.08192
7451.60290,0.07127
7453.53137,0.03872
7455.45984,-0.06051
7457.38831,-0.14405
7459.31677,-0.14666
7461.24524,-0.12286
7463.17371,0.01343
7465.10218,0.26866
7467.03065,0.36946
7468.95912,0.37359
7470.88759,0.39551
7472.81605,0.20016
7474.74452,-0.05793
7476.67299,-0.07647
7478.60146,0.03909
7480.52993,0.14181
7482.45840,0.21890
7484.38687,0.17901
7486.31533,0.09212
7488.24380,0.09517
7490.17227,0.10712
7492.10074,0.02428
7494.02921,-0.06557
7495.95768,-0.14100
7497.88615,-0.26283
