399.19301,6.90234
401.12148,0.54641
403.04995,-0.12120
404.97842,-0.15186
406.90689,-0.09429
408.83536,-0.04589
410.76382,-0.04928
412.69229,-0.08291
414.62076,-0.06224
416.54923,-0.01571
418.47770,0.05134
420.40617,0.13491
422.33464,0.13446
424.26311,0.02883
426.19157,-0.01343
428.12004,0.09984
430.04851,0.25714
431.97698,0.28830
433.90545,0.18850
435.83392,0.07828
437.76239,0.03648
439.69085,0.10290
441.61932,0.19233
443.54779,0.19807
445.47626,0.20807
447.40473,0.24880
449.33320,0.18258
451.26167,0.07765
453.19013,0.07923
455.11860,0.09540
457.04707,0.05334
458.97554,0.06025
460.90401,0.10060
462.83248,0.10269
464.76095,0.09569
466.68942,0.06232
468.61788,0.02134
470.54635,0.05758
472.47482,0.14543
474.40329,0.15810
476.33176,0.10866
478.26023,0.08638
480.18870,0.12455
482.11716,0.19125
484.04563,0.17923
485.97410,0.12129
487.90257,0.11900
489.83104,0.14543
491.75951,0.14699
493.68798,0.13805
495.61645,0.12596
497.54491,0.07925
499.47338,0.06279
501.40185,0.15445
503.33032,0.24037
505.25879,0.21788
507.18726,0.17080
509.11573,0.13827
511.04419,0.10283
512.97266,0.08856
514.90113,0.09938
516.82960,0.10416
518.75807,0.11478
520.68654,0.15112
522.61501,0.14521
524.54348,0.08655
526.47194,0.10016
528.40041,0.16769
530.32888,0.14160
532.25735,0.05551
534.18582,0.03267
536.11429,0.06604
538.04276,0.11494
539.97122,0.18203
541.89969,0.22638
543.82816,0.20461
545.75663,0.15979
547.68510,0.12608
549.61357,0.10226
551.54204,0.09058
553.47051,0.07410
555.39897,0.07574
557.32744,0.10549
559.25591,0.11330
561.18438,0.10306
563.11285,0.11657
565.04132,0.14340
566.96979,0.15197
568.89825,0.15180
570.82672,0.14781
572.75519,0.12464
574.68366,0.10558
576.61213,0.11076
578.54060,0.11747
580.46907,0.11599
582.39754,0.10696
584.32600,0.09598
586.25447,0.10000
588.18294,0.10913
590.11141,0.10539
592.03988,0.09924
593.96835,0.10689
595.89682,0.11131
597.82528,0.10074
599.75375,0.10195
601.68222,0.11413
603.61069,0.10601
605.53916,0.08141
607.46763,0.08187
609.39610,0.11132
611.32456,0.12620
613.25303,0.12224
615.18150,0.11725
617.10997,0.11444
619.03844,0.12745
620.96691,0.14381
622.89538,0.14092
624.82385,0.13396
626.75231,0.13316
628.68078,0.13723
630.60925,0.14788
632.53772,0.14732
634.46619,0.13126
636.39466,0.11792
638.32313,0.11326
640.25159,0.10760
642.18006,0.09567
644.10853,0.10139
646.03700,0.12111
647.96547,0.11909
649.89394,0.10375
651.82241,0.10724
653.75088,0.12610
655.67934,0.13729
657.60781,0.12367
659.53628,0.09940
661.46475,0.10073
663.39322,0.11676
665.32169,0.12315
667.25016,0.12934
669.17862,0.12821
671.10709,0.11805
673.03556,0.11996
674.96403,0.11556
676.89250,0.09588
678.82097,0.09727
680.74944,0.12284
682.67791,0.12358
684.60637,0.09917
686.53484,0.08999
688.46331,0.09857
690.39178,0.11487
692.32025,0.13722
694.24872,0.14756
696.17719,0.14137
698.10565,0.13202
700.03412,0.12493
701.96259,0.11807
703.89106,0.11282
705.81953,0.11829
707.74800,0.13136
709.67647,0.13836
711.60494,0.14389
713.53340,0.15833
715.46187,0.16934
717.39034,0.16730
719.31881,0.16026
721.24728,0.15006
723.17575,0.14634
725.10422,0.15601
727.03268,0.15473
728.96115,0.12925
730.88962,0.10693
732.81809,0.10846
734.74656,0.11983
736.67503,0.13106
738.60350,0.14342
740.53197,0.14774
742.46043,0.14129
744.38890,0.13145
746.31737,0.12214
748.24584,0.11640
750.17431,0.11393
752.10278,0.11505
754.03125,0.12672
755.95971,0.14269
757.88818,0.14837
759.81665,0.14673
761.74512,0.14705
763.67359,0.15032
765.60206,0.15241
767.53053,0.14863
769.45900,0.13885
771.38746,0.13114
773.31593,0.13520
775.24440,0.14775
777.17287,0.15176
779.10134,0.14334
781.02981,0.13458
782.95828,0.12773
784.88674,0.11921
786.81521,0.10821
788.74368,0.10094
790.67215,0.10538
792.60062,0.11586
794.52909,0.12334
796.45756,0.12571
798.38602,0.13114
800.31449,0.14347
802.24296,0.14366
804.17143,0.12898
806.09990,0.12847
808.02837,0.14396
809.95684,0.15251
811.88531,0.15740
813.81377,0.16379
815.74224,0.16326
817.67071,0.16284
819.59918,0.16322
821.52765,0.15283
823.45612,0.14286
825.38459,0.14210
827.31305,0.13562
829.24152,0.12827
831.16999,0.13606
833.09846,0.14540
835.02693,0.14124
836.95540,0.13604
838.88387,0.14320
840.81234,0.16043
842.74080,0.17158
844.66927,0.16077
846.59774,0.13943
848.52621,0.13097
850.45468,0.14041
852.38315,0.15051
854.31162,0.14668
856.24008,0.14129
858.16855,0.15146
860.09702,0.17045
862.02549,0.17988
863.95396,0.17522
865.88243,0.16450
867.81090,0.15637
869.73937,0.15367
871.66783,0.15186
873.59630,0.14772
875.52477,0.14422
877.45324,0.14274
879.38171,0.13932
881.31018,0.13697
883.23865,0.14162
885.16711,0.15129
887.09558,0.15986
889.02405,0.15814
890.95252,0.15153
892.88099,0.15247
894.80946,0.15418
896.73793,0.15005
898.66640,0.14477
900.59486,0.14223
902.52333,0.14357
904.45180,0.15013
906.38027,0.16176
908.30874,0.16686
910.23721,0.15969
912.16568,0.14868
914.09414,0.13832
916.02261,0.13425
917.95108,0.13821
919.87955,0.14324
921.80802,0.14548
923.73649,0.14550
925.66496,0.14821
927.59343,0.15305
929.52189,0.15414
931.45036,0.15258
933.37883,0.15020
935.30730,0.14856
937.23577,0.14945
939.16424,0.14585
941.09271,0.13812
943.02117,0.13892
944.94964,0.14487
946.87811,0.14642
948.80658,0.14778
950.73505,0.14979
952.66352,0.14769
954.59199,0.14525
956.52045,0.14854
958.44892,0.15350
960.37739,0.15428
962.30586,0.15124
964.23433,0.14739
966.16280,0.14725
968.09127,0.15325
970.01974,0.16043
971.94820,0.16309
973.87667,0.16373
975.80514,0.16222
977.73361,0.15651
979.66208,0.15284
981.59055,0.15187
983.51902,0.14855
985.44748,0.14789
987.37595,0.15530
989.30442,0.16297
991.23289,0.16170
993.16136,0.15798
995.08983,0.15957
997.01830,0.15912
998.94677,0.15249
1000.87523,0.14705
1002.80370,0.14941
1004.73217,0.15920
1006.66064,0.16856
1008.58911,0.17038
1010.51758,0.16661
1012.44605,0.16635
1014.37451,0.17213
1016.30298,0.17546
1018.23145,0.17246
1020.15992,0.16667
1022.08839,0.16136
1024.01686,0.16120
1025.94533,0.16490
1027.87380,0.16294
1029.80226,0.15581
1031.73073,0.15132
1033.65920,0.14812
1035.58767,0.14388
1037.51614,0.14085
1039.44461,0.14271
1041.37308,0.14935
1043.30154,0.15122
1045.23001,0.14840
1047.15848,0.15185
1049.08695,0.15373
1051.01542,0.14741
1052.94389,0.14685
1054.87236,0.15530
1056.80083,0.16095
1058.72929,0.15941
1060.65776,0.15666
1062.58623,0.15744
1064.51470,0.16518
1066.44317,0.17458
1068.37164,0.16952
1070.30011,0.15385
1072.22857,0.14498
1074.15704,0.14698
1076.08551,0.15152
1078.01398,0.14797
1079.94245,0.14032
1081.87092,0.14019
1083.79939,0.14648
1085.72786,0.15529
1087.65632,0.16558
1089.58479,0.17102
1091.51326,0.16911
1093.44173,0.16807
1095.37020,0.17409
1097.29867,0.18056
1099.22714,0.18154
1101.15560,0.17887
1103.08407,0.17405
1105.01254,0.17358
1106.94101,0.17601
1108.86948,0.17093
1110.79795,0.16254
1112.72642,0.16218
1114.65489,0.16722
1116.58335,0.17032
1118.51182,0.17451
1120.44029,0.17650
1122.36876,0.17085
1124.29723,0.16393
1126.22570,0.15952
1128.15417,0.15470
1130.08263,0.14857
1132.01110,0.14951
1133.93957,0.16060
1135.86804,0.16748
1137.79651,0.16249
1139.72498,0.15663
1141.65345,0.15741
1143.58191,0.16040
1145.51038,0.16376
1147.43885,0.16935
1149.36732,0.17373
1151.29579,0.17421
1153.22426,0.17288
1155.15273,0.17252
1157.08120,0.17551
1159.00966,0.17849
1160.93813,0.17831
1162.86660,0.17787
1164.79507,0.17898
1166.72354,0.18331
1168.65201,0.18641
1170.58048,0.18219
1172.50894,0.17592
1174.43741,0.17190
1176.36588,0.16915
1178.29435,0.16945
1180.22282,0.16870
1182.15129,0.15933
1184.07976,0.14648
1186.00823,0.13803
1187.93669,0.13920
1189.86516,0.15110
1191.79363,0.16014
1193.72210,0.15795
1195.65057,0.15361
1197.57904,0.15600
1199.50751,0.16072
1201.43597,0.16122
1203.36444,0.16266
1205.29291,0.16383
1207.22138,0.15956
1209.14985,0.15717
1211.07832,0.15970
1213.00679,0.16302
1214.93526,0.16476
1216.86372,0.16159
1218.79219,0.15740
1220.72066,0.16012
1222.64913,0.16668
1224.57760,0.16980
1226.50607,0.16688
1228.43454,0.16159
1230.36300,0.16152
1232.29147,0.16442
1234.21994,0.16176
1236.14841,0.15723
1238.07688,0.15890
1240.00535,0.16460
1241.93382,0.16818
1243.86229,0.16837
1245.79075,0.16839
1247.71922,0.16900
1249.64769,0.16752
1251.57616,0.16352
1253.50463,0.16002
1255.43310,0.15900
1257.36157,0.15787
1259.29003,0.15640
1261.21850,0.15882
1263.14697,0.16440
1265.07544,0.16784
1267.00391,0.16723
1268.93238,0.16650
1270.86085,0.16826
1272.78932,0.16859
1274.71778,0.16462
1276.64625,0.16079
1278.57472,0.16285
1280.50319,0.16680
1282.43166,0.16595
1284.36013,0.16447
1286.28860,0.16745
1288.21706,0.17227
1290.14553,0.17317
1292.07400,0.16760
1294.00247,0.16080
1295.93094,0.15875
1297.85941,0.15796
1299.78788,0.15148
1301.71634,0.13832
1303.64481,0.12455
1305.57328,0.12677
1307.50175,0.14948
1309.43022,0.16910
1311.35869,0.17374
1313.28716,0.17437
1315.21563,0.17675
1317.14409,0.17857
1319.07256,0.17659
1321.00103,0.17144
1322.92950,0.16739
1324.85797,0.16237
1326.78644,0.15857
1328.71491,0.16027
1330.64337,0.15633
1332.57184,0.15040
1334.50031,0.15677
1336.42878,0.16625
1338.35725,0.17064
1340.28572,0.16810
1342.21419,0.15949
1344.14266,0.15381
1346.07112,0.15104
1347.99959,0.15046
1349.92806,0.15297
1351.85653,0.15609
1353.78500,0.16187
1355.71347,0.16831
1357.64194,0.16989
1359.57040,0.17008
1361.49887,0.17223
1363.42734,0.17141
1365.35581,0.16742
1367.28428,0.16487
1369.21275,0.16521
1371.14122,0.17202
1373.06969,0.18401
1374.99815,0.18974
1376.92662,0.18474
1378.85509,0.17697
1380.78356,0.17238
1382.71203,0.17408
1384.64050,0.18034
1386.56897,0.18640
1388.49743,0.18939
1390.42590,0.18760
1392.35437,0.18328
1394.28284,0.18331
1396.21131,0.18873
1398.13978,0.19035
1400.06825,0.18518
1401.99672,0.18287
1403.92518,0.18630
1405.85365,0.18676
1407.78212,0.18545
1409.71059,0.18682
1411.63906,0.18536
1413.56753,0.18315
1415.49600,0.18793
1417.42446,0.19724
1419.35293,0.19986
1421.28140,0.19578
1423.20987,0.19126
1425.13834,0.18308
1427.06681,0.17645
1428.99528,0.17785
1430.92375,0.18213
1432.85221,0.18483
1434.78068,0.18903
1436.70915,0.19500
1438.63762,0.19640
1440.56609,0.19328
1442.49456,0.18969
1444.42303,0.18623
1446.35149,0.18419
1448.27996,0.18551
1450.20843,0.18675
1452.13690,0.18864
1454.06537,0.19882
1455.99384,0.22019
1457.92231,0.22523
1459.85077,0.20319
1461.77924,0.18884
1463.70771,0.18528
1465.63618,0.18957
1467.56465,0.19777
1469.49312,0.20732
1471.42159,0.21668
1473.35006,0.21472
1475.27852,0.20090
1477.20699,0.19121
1479.13546,0.18841
1481.06393,0.18819
1482.99240,0.18769
1484.92087,0.18992
1486.84934,0.19766
1488.77780,0.20617
1490.70627,0.20474
1492.63474,0.19649
1494.56321,0.19387
1496.49168,0.20173
1498.42015,0.20790
1500.34862,0.20153
1502.27709,0.19551
1504.20555,0.20145
1506.13402,0.22246
1508.06249,0.23019
1509.99096,0.21828
1511.91943,0.21354
1513.84790,0.21854
1515.77637,0.22659
1517.70483,0.22895
1519.63330,0.23186
1521.56177,0.23719
1523.49024,0.22705
1525.41871,0.21081
1527.34718,0.20114
1529.27565,0.19660
1531.20412,0.19878
1533.13258,0.20927
1535.06105,0.21613
1536.98952,0.22333
1538.91799,0.24648
1540.84646,0.25892
1542.77493,0.23052
1544.70340,0.20457
1546.63186,0.19426
1548.56033,0.19757
1550.48880,0.20131
1552.41727,0.20040
1554.34574,0.20522
1556.27421,0.21864
1558.20268,0.23569
1560.13115,0.22549
1562.05961,0.20650
1563.98808,0.19862
1565.91655,0.19763
1567.84502,0.20158
1569.77349,0.20392
1571.70196,0.19946
1573.63043,0.19581
1575.55889,0.19415
1577.48736,0.18829
1579.41583,0.18096
1581.34430,0.17678
1583.27277,0.17654
1585.20124,0.17818
1587.12971,0.17926
1589.05818,0.18019
1590.98664,0.17938
1592.91511,0.17622
1594.84358,0.17459
1596.77205,0.17664
1598.70052,0.17965
1600.62899,0.18148
1602.55746,0.18277
1604.48592,0.18233
1606.41439,0.18155
1608.34286,0.18413
1610.27133,0.18604
1612.19980,0.18386
1614.12827,0.18335
1616.05674,0.18993
1617.98521,0.19647
1619.91367,0.19798
1621.84214,0.20199
1623.77061,0.20526
1625.69908,0.20258
1627.62755,0.19966
1629.55602,0.19848
1631.48449,0.19962
1633.41295,0.20690
1635.34142,0.21907
1637.26989,0.21556
1639.19836,0.20365
1641.12683,0.19971
1643.05530,0.20607
1644.98377,0.22132
1646.91223,0.22831
1648.84070,0.21701
1650.76917,0.21716
1652.69764,0.23357
1654.62611,0.22909
1656.55458,0.21263
1658.48305,0.20086
1660.41152,0.18657
1662.33998,0.17407
1664.26845,0.17779
1666.19692,0.19412
1668.12539,0.21284
1670.05386,0.22330
1671.98233,0.21909
1673.91080,0.20967
1675.83926,0.20082
1677.76773,0.19707
1679.69620,0.19968
1681.62467,0.21233
1683.55314,0.23320
1685.48161,0.23104
1687.41008,0.21532
1689.33855,0.20681
1691.26701,0.20162
1693.19548,0.20275
1695.12395,0.21432
1697.05242,0.22918
1698.98089,0.23644
1700.90936,0.22981
1702.83783,0.21993
1704.76629,0.21701
1706.69476,0.21062
1708.62323,0.19966
1710.55170,0.19477
1712.48017,0.19782
1714.40864,0.20841
1716.33711,0.22269
1718.26558,0.21791
1720.19404,0.20038
1722.12251,0.19109
1724.05098,0.18796
1725.97945,0.18666
1727.90792,0.18905
1729.83639,0.19625
1731.76486,0.20501
1733.69332,0.21033
1735.62179,0.20534
1737.55026,0.19966
1739.47873,0.19825
1741.40720,0.19835
1743.33567,0.19961
1745.26414,0.20295
1747.19261,0.20820
1749.12107,0.21405
1751.04954,0.21329
1752.97801,0.20470
1754.90648,0.19815
1756.83495,0.19660
1758.76342,0.19706
1760.69189,0.19848
1762.62035,0.19823
1764.54882,0.19470
1766.47729,0.19449
1768.40576,0.20280
1770.33423,0.21496
1772.26270,0.21477
1774.19117,0.20034
1776.11964,0.19267
1778.04810,0.19341
1779.97657,0.19426
1781.90504,0.19193
1783.83351,0.19005
1785.76198,0.19025
1787.69045,0.19224
1789.61892,0.19791
1791.54738,0.20381
1793.47585,0.20118
1795.40432,0.19511
1797.33279,0.19337
1799.26126,0.19553
1801.18973,0.19740
1803.11820,0.19647
1805.04666,0.19414
1806.97513,0.19302
1808.90360,0.19657
1810.83207,0.20229
1812.76054,0.20216
1814.68901,0.19742
1816.61748,0.19436
1818.54595,0.19536
1820.47441,0.19940
1822.40288,0.20213
1824.33135,0.20048
1826.25982,0.19837
1828.18829,0.19991
1830.11676,0.20150
1832.04523,0.19853
1833.97369,0.19421
1835.90216,0.19162
1837.83063,0.18946
1839.75910,0.18782
1841.68757,0.18965
1843.61604,0.19427
1845.54451,0.19544
1847.47298,0.19263
1849.40144,0.18911
1851.32991,0.18511
1853.25838,0.18226
1855.18685,0.18252
1857.11532,0.18474
1859.04379,0.18597
1860.97226,0.18655
1862.90072,0.18889
1864.82919,0.19261
1866.75766,0.19738
1868.68613,0.19905
1870.61460,0.19348
1872.54307,0.18958
1874.47154,0.19111
1876.40001,0.19225
1878.32847,0.18957
1880.25694,0.18636
1882.18541,0.18698
1884.11388,0.19034
1886.04235,0.19205
1887.97082,0.19098
1889.89929,0.18773
1891.82775,0.18661
1893.75622,0.19065
1895.68469,0.19457
1897.61316,0.19511
1899.54163,0.19363
1901.47010,0.18971
1903.39857,0.18573
1905.32704,0.18600
1907.25550,0.19060
1909.18397,0.19474
1911.11244,0.19458
1913.04091,0.19260
1914.96938,0.19146
1916.89785,0.19127
1918.82632,0.19220
1920.75478,0.19334
1922.68325,0.19300
1924.61172,0.19185
1926.54019,0.19187
1928.46866,0.19216
1930.39713,0.19190
1932.32560,0.19238
1934.25407,0.19258
1936.18253,0.19120
1938.11100,0.19068
1940.03947,0.19186
1941.96794,0.19228
1943.89641,0.19167
1945.82488,0.19179
1947.75335,0.19249
1949.68181,0.19224
1951.61028,0.19081
1953.53875,0.19008
1955.46722,0.19046
1957.39569,0.19131
1959.32416,0.19278
1961.25263,0.19349
1963.18110,0.19228
1965.10956,0.19172
1967.03803,0.19356
1968.96650,0.19446
1970.89497,0.19266
1972.82344,0.19016
1974.75191,0.18832
1976.68038,0.18861
1978.60884,0.19109
1980.53731,0.19132
1982.46578,0.18785
1984.39425,0.18557
1986.32272,0.18709
1988.25119,0.19151
1990.17966,0.19581
1992.10812,0.19490
1994.03659,0.19070
1995.96506,0.18976
1997.89353,0.19043
1999.82200,0.19009
2001.75047,0.19247
2003.67894,0.19611
2005.60741,0.19490
2007.53587,0.19216
2009.46434,0.19350
2011.39281,0.19540
2013.32128,0.19576
2015.24975,0.19611
2017.17822,0.19498
2019.10669,0.19286
2021.03515,0.19106
2022.96362,0.18994
2024.89209,0.19020
2026.82056,0.19010
2028.74903,0.18881
2030.67750,0.18809
2032.60597,0.18935
2034.53444,0.19085
2036.46290,0.19079
2038.39137,0.19105
2040.31984,0.19091
2042.24831,0.18739
2044.17678,0.18473
2046.10525,0.18797
2048.03372,0.19229
2049.96218,0.19341
2051.89065,0.19238
2053.81912,0.18916
2055.74759,0.18647
2057.67606,0.18720
2059.60453,0.18906
2061.53300,0.18997
2063.46147,0.19008
2065.38993,0.18979
2067.31840,0.19003
2069.24687,0.19046
2071.17534,0.19013
2073.10381,0.18953
2075.03228,0.18945
2076.96075,0.19092
2078.88921,0.19303
2080.81768,0.19329
2082.74615,0.19146
2084.67462,0.18826
2086.60309,0.18545
2088.53156,0.18523
2090.46003,0.18707
2092.38850,0.18884
2094.31696,0.18967
2096.24543,0.19019
2098.17390,0.19120
2100.10237,0.19128
2102.03084,0.18997
2103.95931,0.19024
2105.88778,0.19197
2107.81624,0.19257
2109.74471,0.19275
2111.67318,0.19415
2113.60165,0.19569
2115.53012,0.19563
2117.45859,0.19368
2119.38706,0.19146
2121.31553,0.19155
2123.24399,0.19293
2125.17246,0.19364
2127.10093,0.19363
2129.02940,0.19294
2130.95787,0.19287
2132.88634,0.19423
2134.81481,0.19488
2136.74327,0.19273
2138.67174,0.19062
2140.60021,0.19106
2142.52868,0.19190
2144.45715,0.19323
2146.38562,0.19572
2148.31409,0.19599
2150.24255,0.19308
2152.17102,0.19087
2154.09949,0.19069
2156.02796,0.19073
2157.95643,0.19006
2159.88490,0.18901
2161.81337,0.18913
2163.74184,0.19012
2165.67030,0.19060
2167.59877,0.19188
2169.52724,0.19400
2171.45571,0.19359
2173.38418,0.19043
2175.31265,0.18825
2177.24112,0.18891
2179.16958,0.19087
2181.09805,0.19196
2183.02652,0.19146
2184.95499,0.18922
2186.88346,0.18665
2188.81193,0.18566
2190.74040,0.18593
2192.66887,0.18687
2194.59733,0.18858
2196.52580,0.19054
2198.45427,0.19101
2200.38274,0.18967
2202.31121,0.18947
2204.23968,0.19107
2206.16815,0.19197
2208.09661,0.19227
2210.02508,0.19254
2211.95355,0.19151
2213.88202,0.18908
2215.81049,0.18736
2217.73896,0.18893
2219.66743,0.19171
2221.59590,0.19144
2223.52436,0.18891
2225.45283,0.18826
2227.38130,0.19102
2229.30977,0.19439
2231.23824,0.19538
2233.16671,0.19440
2235.09518,0.19405
2237.02364,0.19474
2238.95211,0.19362
2240.88058,0.19072
2242.80905,0.18986
2244.73752,0.19042
2246.66599,0.19039
2248.59446,0.19192
2250.52293,0.19407
2252.45139,0.19428
2254.37986,0.19491
2256.30833,0.19795
2258.23680,0.19915
2260.16527,0.19617
2262.09374,0.19384
2264.02221,0.19336
2265.95067,0.19247
2267.87914,0.19253
2269.80761,0.19353
2271.73608,0.19308
2273.66455,0.19114
2275.59302,0.18951
2277.52149,0.18982
2279.44996,0.19074
2281.37842,0.18997
2283.30689,0.18987
2285.23536,0.19234
2287.16383,0.19502
2289.09230,0.19512
2291.02077,0.19368
2292.94924,0.19425
2294.87770,0.19624
2296.80617,0.19593
2298.73464,0.19206
2300.66311,0.18775
2302.59158,0.18657
2304.52005,0.18818
2306.44852,0.19062
2308.37699,0.19187
2310.30545,0.19121
2312.23392,0.19181
2314.16239,0.19315
2316.09086,0.19095
2318.01933,0.18797
2319.94780,0.18907
2321.87627,0.19203
2323.80473,0.19197
2325.73320,0.19303
2327.66167,0.19491
2329.59014,0.19018
2331.51861,0.19132
2333.44708,0.20445
2335.37555,0.21180
2337.30401,0.20904
2339.23248,0.20499
2341.16095,0.20439
2343.08942,0.20639
2345.01789,0.20487
2346.94636,0.19965
2348.87483,0.19625
2350.80330,0.19226
2352.73176,0.17927
2354.66023,0.16033
2356.58870,0.15907
2358.51717,0.17904
2360.44564,0.20743
2362.37411,0.22970
2364.30258,0.22587
2366.23104,0.21350
2368.15951,0.21107
2370.08798,0.20699
2372.01645,0.19952
2373.94492,0.19688
2375.87339,0.19821
2377.80186,0.19864
2379.73033,0.19762
2381.65879,0.19734
2383.58726,0.19726
2385.51573,0.19434
2387.44420,0.18924
2389.37267,0.18461
2391.30114,0.18262
2393.22961,0.18623
2395.15807,0.19297
2397.08654,0.19558
2399.01501,0.19355
2400.94348,0.19138
2402.87195,0.18960
2404.80042,0.18740
2406.72889,0.18648
2408.65736,0.18875
2410.58582,0.19142
2412.51429,0.19081
2414.44276,0.19038
2416.37123,0.19263
2418.29970,0.19394
2420.22817,0.19278
2422.15664,0.19161
2424.08510,0.19279
2426.01357,0.19533
2427.94204,0.19606
2429.87051,0.19461
2431.79898,0.19286
2433.72745,0.19121
2435.65592,0.19121
2437.58439,0.19306
2439.51285,0.19347
2441.44132,0.19269
2443.36979,0.19267
2445.29826,0.19362
2447.22673,0.19343
2449.15520,0.19124
2451.08367,0.19196
2453.01213,0.19597
2454.94060,0.19622
2456.86907,0.19224
2458.79754,0.19160
2460.72601,0.19436
2462.65448,0.19370
2464.58295,0.19090
2466.51142,0.19083
2468.43988,0.19204
2470.36835,0.19172
2472.29682,0.19147
2474.22529,0.19270
2476.15376,0.19281
2478.08223,0.19101
2480.01070,0.19104
2481.93916,0.19327
2483.86763,0.19325
2485.79610,0.19142
2487.72457,0.19123
2489.65304,0.19238
2491.58151,0.19398
2493.50998,0.19631
2495.43844,0.19827
2497.36691,0.19791
2499.29538,0.19591
2501.22385,0.19447
2503.15232,0.19459
2505.08079,0.19393
2507.00926,0.19124
2508.93773,0.19086
2510.86619,0.19390
2512.79466,0.19636
2514.72313,0.19627
2516.65160,0.19512
2518.58007,0.19546
2520.50854,0.19656
2522.43701,0.19599
2524.36547,0.19591
2526.29394,0.19773
2528.22241,0.19734
2530.15088,0.19451
2532.07935,0.19348
2534.00782,0.19412
2535.93629,0.19451
2537.86476,0.19532
2539.79322,0.19655
2541.72169,0.19587
2543.65016,0.19335
2545.57863,0.19237
2547.50710,0.19312
2549.43557,0.19312
2551.36404,0.19260
2553.29250,0.19290
2555.22097,0.19411
2557.14944,0.19512
2559.07791,0.19525
2561.00638,0.19468
2562.93485,0.19319
2564.86332,0.19283
2566.79179,0.19515
2568.72025,0.19624
2570.64872,0.19449
2572.57719,0.19385
2574.50566,0.19622
2576.43413,0.19924
2578.36260,0.19894
2580.29107,0.19558
2582.21953,0.19357
2584.14800,0.19394
2586.07647,0.19449
2588.00494,0.19366
2589.93341,0.19248
2591.86188,0.19322
2593.79035,0.19526
2595.71882,0.19622
2597.64728,0.19606
2599.57575,0.19583
2601.50422,0.19523
2603.43269,0.19541
2605.36116,0.19744
2607.28963,0.19830
2609.21810,0.19585
2611.14656,0.19396
2613.07503,0.19565
2615.00350,0.19781
2616.93197,0.19899
2618.86044,0.19904
2620.78891,0.19615
2622.71738,0.19351
2624.64585,0.19580
2626.57431,0.20004
2628.50278,0.20134
2630.43125,0.20118
2632.35972,0.20019
2634.28819,0.19651
2636.21666,0.19349
2638.14513,0.19392
2640.07359,0.19545
2642.00206,0.19643
2643.93053,0.19858
2645.85900,0.20248
2647.78747,0.20419
2649.71594,0.20180
2651.64441,0.19837
2653.57288,0.19626
2655.50134,0.19554
2657.42981,0.19634
2659.35828,0.19885
2661.28675,0.20048
2663.21522,0.19936
2665.14369,0.19790
2667.07216,0.19655
2669.00062,0.19427
2670.92909,0.19288
2672.85756,0.19374
2674.78603,0.19578
2676.71450,0.19737
2678.64297,0.19916
2680.57144,0.20196
2682.49990,0.20339
2684.42837,0.20155
2686.35684,0.19858
2688.28531,0.19764
2690.21378,0.19906
2692.14225,0.20090
2694.07072,0.20172
2695.99919,0.20177
2697.92765,0.20162
2699.85612,0.20177
2701.78459,0.20292
2703.71306,0.20380
2705.64153,0.20339
2707.57000,0.20196
2709.49847,0.19850
2711.42693,0.19533
2713.35540,0.19690
2715.28387,0.20001
2717.21234,0.20024
2719.14081,0.20156
2721.06928,0.20436
2722.99775,0.20373
2724.92622,0.20244
2726.85468,0.20301
2728.78315,0.20283
2730.71162,0.20407
2732.64009,0.20847
2734.56856,0.21018
2736.49703,0.20571
2738.42550,0.20115
2740.35396,0.20075
2742.28243,0.20113
2744.21090,0.20073
2746.13937,0.20051
2748.06784,0.19973
2749.99631,0.19917
2751.92478,0.20027
2753.85325,0.20125
2755.78171,0.20153
2757.71018,0.20215
2759.63865,0.20167
2761.56712,0.20130
2763.49559,0.20365
2765.42406,0.20644
2767.35253,0.20736
2769.28099,0.20774
2771.20946,0.20856
2773.13793,0.20883
2775.06640,0.20795
2776.99487,0.20688
2778.92334,0.20554
2780.85181,0.20283
2782.78028,0.20102
2784.70874,0.20226
2786.63721,0.20409
2788.56568,0.20520
2790.49415,0.20523
2792.42262,0.20323
2794.35109,0.20229
2796.27956,0.20334
2798.20802,0.20455
2800.13649,0.20696
2802.06496,0.20901
2803.99343,0.20935
2805.92190,0.20858
2807.85037,0.20648
2809.77884,0.20598
2811.70731,0.20654
2813.63577,0.20511
2815.56424,0.20329
2817.49271,0.20225
2819.42118,0.20244
2821.34965,0.20306
2823.27812,0.20232
2825.20659,0.20297
2827.13505,0.20678
2829.06352,0.20944
2830.99199,0.20770
2832.92046,0.20397
2834.84893,0.20303
2836.77740,0.20543
2838.70587,0.20847
2840.63433,0.21043
2842.56280,0.20924
2844.49127,0.20707
2846.41974,0.20730
2848.34821,0.20873
2850.27668,0.20961
2852.20515,0.20748
2854.13362,0.20347
2856.06208,0.20466
2857.99055,0.21219
2859.91902,0.21807
2861.84749,0.21864
2863.77596,0.21808
2865.70443,0.21703
2867.63290,0.21348
2869.56136,0.20944
2871.48983,0.20657
2873.41830,0.20342
2875.34677,0.20109
2877.27524,0.20351
2879.20371,0.20887
2881.13218,0.21041
2883.06065,0.20675
2884.98911,0.20379
2886.91758,0.20544
2888.84605,0.20751
2890.77452,0.20749
2892.70299,0.20808
2894.63146,0.20841
2896.55993,0.20924
2898.48839,0.21260
2900.41686,0.21479
2902.34533,0.21332
2904.27380,0.20912
2906.20227,0.20569
2908.13074,0.20678
2910.05921,0.20848
2911.98768,0.20533
2913.91614,0.19831
2915.84461,0.19327
2917.77308,0.19562
2919.70155,0.20093
2921.63002,0.20337
2923.55849,0.20117
2925.48696,0.19283
2927.41542,0.19141
2929.34389,0.20389
2931.27236,0.21170
2933.20083,0.20605
2935.12930,0.19459
2937.05777,0.18598
2938.98624,0.19014
2940.91471,0.20120
2942.84317,0.20416
2944.77164,0.19868
2946.70011,0.19256
2948.62858,0.19434
2950.55705,0.20286
2952.48552,0.20786
2954.41399,0.20400
2956.34245,0.18982
2958.27092,0.17902
2960.19939,0.18745
2962.12786,0.20396
2964.05633,0.21100
2965.98480,0.20698
2967.91327,0.20084
2969.84174,0.20109
2971.77020,0.20663
2973.69867,0.21222
2975.62714,0.21131
2977.55561,0.20212
2979.48408,0.19824
2981.41255,0.20462
2983.34102,0.20993
2985.26948,0.21021
2987.19795,0.20645
2989.12642,0.20294
2991.05489,0.20410
2992.98336,0.20649
2994.91183,0.20960
2996.84030,0.21139
2998.76877,0.21017
3000.69723,0.21062
3002.62570,0.21118
3004.55417,0.20966
3006.48264,0.20625
3008.41111,0.19905
3010.33958,0.18717
3012.26805,0.16330
3014.19651,0.12159
3016.12498,0.08786
3018.05345,0.10260
3019.98192,0.15525
3021.91039,0.19638
3023.83886,0.20829
3025.76733,0.20543
3027.69579,0.20328
3029.62426,0.20699
3031.55273,0.21191
3033.48120,0.21275
3035.40967,0.20964
3037.33814,0.20530
3039.26661,0.20402
3041.19508,0.20919
3043.12354,0.21596
3045.05201,0.21363
3046.98048,0.20254
3048.90895,0.19808
3050.83742,0.20515
3052.76589,0.21174
3054.69436,0.20783
3056.62282,0.19788
3058.55129,0.19863
3060.47976,0.20996
3062.40823,0.21598
3064.33670,0.21057
3066.26517,0.19905
3068.19364,0.19395
3070.12211,0.19930
3072.05057,0.20610
3073.97904,0.20396
3075.90751,0.19503
3077.83598,0.19488
3079.76445,0.20337
3081.69292,0.20862
3083.62139,0.20564
3085.54985,0.20014
3087.47832,0.20569
3089.40679,0.21590
3091.33526,0.21267
3093.26373,0.19759
3095.19220,0.19150
3097.12067,0.20490
3099.04914,0.21919
3100.97760,0.21653
3102.90607,0.20095
3104.83454,0.19200
3106.76301,0.19750
3108.69148,0.20317
3110.61995,0.19922
3112.54842,0.19362
3114.47688,0.19869
3116.40535,0.20741
3118.33382,0.20541
3120.26229,0.19465
3122.19076,0.19034
3124.11923,0.20023
3126.04770,0.21050
3127.97617,0.21226
3129.90463,0.20969
3131.83310,0.20813
3133.76157,0.21080
3135.69004,0.21342
3137.61851,0.21197
3139.54698,0.20768
3141.47545,0.20576
3143.40391,0.20779
3145.33238,0.20841
3147.26085,0.20705
3149.18932,0.20788
3151.11779,0.20997
3153.04626,0.21225
3154.97473,0.21506
3156.90320,0.21534
3158.83166,0.21472
3160.76013,0.21605
3162.68860,0.21787
3164.61707,0.21923
3166.54554,0.21855
3168.47401,0.21562
3170.40248,0.21238
3172.33094,0.21015
3174.25941,0.21267
3176.18788,0.21955
3178.11635,0.22251
3180.04482,0.22289
3181.97329,0.22549
3183.90176,0.22530
3185.83022,0.22359
3187.75869,0.22291
3189.68716,0.22095
3191.61563,0.22096
3193.54410,0.22221
3195.47257,0.22076
3197.40104,0.22023
3199.32951,0.22277
3201.25797,0.22568
3203.18644,0.22464
3205.11491,0.21740
3207.04338,0.21181
3208.97185,0.21222
3210.90032,0.21413
3212.82879,0.21826
3214.75725,0.22169
3216.68572,0.21958
3218.61419,0.21718
3220.54266,0.21500
3222.47113,0.21007
3224.39960,0.20837
3226.32807,0.21185
3228.25654,0.21310
3230.18500,0.21255
3232.11347,0.21425
3234.04194,0.21433
3235.97041,0.21317
3237.89888,0.21392
3239.82735,0.21337
3241.75582,0.20912
3243.68428,0.20448
3245.61275,0.20316
3247.54122,0.20474
3249.46969,0.20955
3251.39816,0.21528
3253.32663,0.21792
3255.25510,0.21930
3257.18357,0.22146
3259.11203,0.22255
3261.04050,0.21776
3262.96897,0.20934
3264.89744,0.20567
3266.82591,0.20797
3268.75438,0.21382
3270.68285,0.21871
3272.61131,0.21895
3274.53978,0.21750
3276.46825,0.21740
3278.39672,0.21841
3280.32519,0.21772
3282.25366,0.21728
3284.18213,0.22170
3286.11060,0.22600
3288.03906,0.22246
3289.96753,0.21268
3291.89600,0.20539
3293.82447,0.20476
3295.75294,0.20872
3297.68141,0.21217
3299.60988,0.21010
3301.53834,0.20602
3303.46681,0.20528
3305.39528,0.20845
3307.32375,0.21128
3309.25222,0.20910
3311.18069,0.20636
3313.10916,0.20726
3315.03763,0.20914
3316.96609,0.21147
3318.89456,0.21558
3320.82303,0.21767
3322.75150,0.21518
3324.67997,0.21479
3326.60844,0.21897
3328.53691,0.22274
3330.46537,0.22398
3332.39384,0.22189
3334.32231,0.21719
3336.25078,0.21254
3338.17925,0.21199
3340.10772,0.21799
3342.03619,0.22373
3343.96466,0.22220
3345.89312,0.21830
3347.82159,0.21849
3349.75006,0.21863
3351.67853,0.21401
3353.60700,0.20869
3355.53547,0.20382
3357.46394,0.19921
3359.39240,0.20154
3361.32087,0.21150
3363.24934,0.22198
3365.17781,0.22661
3367.10628,0.22247
3369.03475,0.21369
3370.96322,0.20896
3372.89168,0.21332
3374.82015,0.21899
3376.74862,0.21719
3378.67709,0.21491
3380.60556,0.21811
3382.53403,0.21921
3384.46250,0.21323
3386.39097,0.20930
3388.31943,0.21446
3390.24790,0.22093
3392.17637,0.22217
3394.10484,0.22062
3396.03331,0.21919
3397.96178,0.21736
3399.89025,0.21367
3401.81871,0.21146
3403.74718,0.21216
3405.67565,0.20978
3407.60412,0.20502
3409.53259,0.20291
3411.46106,0.20232
3413.38953,0.20408
3415.31800,0.20844
3417.24646,0.21202
3419.17493,0.21413
3421.10340,0.21332
3423.03187,0.20817
3424.96034,0.20465
3426.88881,0.20856
3428.81728,0.21476
3430.74574,0.21615
3432.67421,0.21546
3434.60268,0.21345
3436.53115,0.20721
3438.45962,0.20282
3440.38809,0.20238
3442.31656,0.20266
3444.24503,0.20702
3446.17349,0.21162
3448.10196,0.20808
3450.03043,0.20083
3451.95890,0.19985
3453.88737,0.20501
3455.81584,0.20693
3457.74431,0.20220
3459.67277,0.19553
3461.60124,0.19049
3463.52971,0.18913
3465.45818,0.19132
3467.38665,0.19406
3469.31512,0.19946
3471.24359,0.20817
3473.17206,0.21116
3475.10052,0.20601
3477.02899,0.19921
3478.95746,0.19486
3480.88593,0.19350
3482.81440,0.19270
3484.74287,0.19088
3486.67134,0.18805
3488.59980,0.18508
3490.52827,0.18394
3492.45674,0.18514
3494.38521,0.18738
3496.31368,0.18706
3498.24215,0.18366
3500.17062,0.18132
3502.09909,0.18138
3504.02755,0.18299
3505.95602,0.18346
3507.88449,0.18045
3509.81296,0.17549
3511.74143,0.17135
3513.66990,0.16994
3515.59837,0.17087
3517.52683,0.17248
3519.45530,0.17491
3521.38377,0.17816
3523.31224,0.18116
3525.24071,0.18317
3527.16918,0.18318
3529.09765,0.18189
3531.02611,0.17951
3532.95458,0.17348
3534.88305,0.16801
3536.81152,0.16941
3538.73999,0.17312
3540.66846,0.17243
3542.59693,0.17040
3544.52540,0.17316
3546.45386,0.17383
3548.38233,0.16563
3550.31080,0.16174
3552.23927,0.16709
3554.16774,0.17065
3556.09621,0.16837
3558.02468,0.16725
3559.95314,0.17186
3561.88161,0.17645
3563.81008,0.17877
3565.73855,0.18396
3567.66702,0.18351
3569.59549,0.17160
3571.52396,0.16308
3573.45243,0.16273
3575.38089,0.16520
3577.30936,0.16710
3579.23783,0.16735
3581.16630,0.16515
3583.09477,0.16469
3585.02324,0.17018
3586.95171,0.17990
3588.88017,0.18093
3590.80864,0.17097
3592.73711,0.16096
3594.66558,0.15598
3596.59405,0.15462
3598.52252,0.15311
3600.45099,0.15258
3602.37946,0.15147
3604.30792,0.15052
3606.23639,0.15694
3608.16486,0.16663
3610.09333,0.16840
3612.02180,0.16744
3613.95027,0.16941
3615.87874,0.17242
3617.80720,0.17139
3619.73567,0.15854
3621.66414,0.14455
3623.59261,0.14155
3625.52108,0.14516
3627.44955,0.15026
3629.37802,0.14941
3631.30649,0.14401
3633.23495,0.14203
3635.16342,0.14094
3637.09189,0.13872
3639.02036,0.13626
3640.94883,0.13627
3642.87730,0.14120
3644.80577,0.15256
3646.73423,0.17149
3648.66270,0.18770
3650.59117,0.17349
3652.51964,0.15131
3654.44811,0.14524
3656.37658,0.14733
3658.30505,0.14388
3660.23352,0.13773
3662.16198,0.13461
3664.09045,0.13443
3666.01892,0.13654
3667.94739,0.14097
3669.87586,0.14416
3671.80433,0.14115
3673.73280,0.13932
3675.66126,0.14108
3677.58973,0.13938
3679.51820,0.13624
3681.44667,0.13442
3683.37514,0.13407
3685.30361,0.13655
3687.23208,0.14383
3689.16055,0.15234
3691.08901,0.14814
3693.01748,0.14097
3694.94595,0.14049
3696.87442,0.13685
3698.80289,0.12814
3700.73136,0.12573
3702.65983,0.13101
3704.58829,0.13453
3706.51676,0.13606
3708.44523,0.13669
3710.37370,0.13683
3712.30217,0.13794
3714.23064,0.13651
3716.15911,0.13361
3718.08757,0.13189
3720.01604,0.13085
3721.94451,0.12970
3723.87298,0.13241
3725.80145,0.13512
3727.72992,0.13127
3729.65839,0.13110
3731.58686,0.14100
3733.51532,0.15399
3735.44379,0.16168
3737.37226,0.16122
3739.30073,0.15198
3741.22920,0.14146
3743.15767,0.13911
3745.08614,0.14412
3747.01460,0.14733
3748.94307,0.15219
3750.87154,0.15282
3752.80001,0.14222
3754.72848,0.13535
3756.65695,0.13502
3758.58542,0.13716
3760.51389,0.13579
3762.44235,0.13442
3764.37082,0.13773
3766.29929,0.13780
3768.22776,0.13297
3770.15623,0.13042
3772.08470,0.13007
3774.01317,0.13081
3775.94163,0.13197
3777.87010,0.13159
3779.79857,0.12900
3781.72704,0.12729
3783.65551,0.12784
3785.58398,0.12755
3787.51245,0.12470
3789.44092,0.12070
3791.36938,0.11652
3793.29785,0.11535
3795.22632,0.11997
3797.15479,0.12709
3799.08326,0.13695
3801.01173,0.14978
3802.94020,0.14896
3804.86866,0.14149
3806.79713,0.14154
3808.72560,0.13892
3810.65407,0.12994
3812.58254,0.12693
3814.51101,0.13534
3816.43948,0.14335
3818.36795,0.14218
3820.29641,0.14417
3822.22488,0.14430
3824.15335,0.13937
3826.08182,0.13589
3828.01029,0.12972
3829.93876,0.12413
3831.86723,0.12578
3833.79569,0.13279
3835.72416,0.14041
3837.65263,0.14530
3839.58110,0.14272
3841.50957,0.13559
3843.43804,0.12872
3845.36651,0.12339
3847.29498,0.12316
3849.22344,0.13037
3851.15191,0.14626
3853.08038,0.16534
3855.00885,0.15758
3856.93732,0.13736
3858.86579,0.12535
3860.79426,0.12516
3862.72272,0.13191
3864.65119,0.13161
3866.57966,0.12650
3868.50813,0.12730
3870.43660,0.13357
3872.36507,0.13484
3874.29354,0.12517
3876.22200,0.11422
3878.15047,0.11302
3880.07894,0.12400
3882.00741,0.14114
3883.93588,0.15142
3885.86435,0.14427
3887.79282,0.12397
3889.72129,0.10839
3891.64975,0.10192
3893.57822,0.10559
3895.50669,0.11484
3897.43516,0.12138
3899.36363,0.12206
3901.29210,0.12537
3903.22057,0.13285
3905.14903,0.12920
3907.07750,0.11647
3909.00597,0.10973
3910.93444,0.11120
3912.86291,0.11335
3914.79138,0.11260
3916.71985,0.11308
3918.64832,0.11644
3920.57678,0.11881
3922.50525,0.11926
3924.43372,0.11949
3926.36219,0.12119
3928.29066,0.12344
3930.21913,0.12235
3932.14760,0.11825
3934.07606,0.11689
3936.00453,0.11788
3937.93300,0.11581
3939.86147,0.11303
3941.78994,0.11590
3943.71841,0.11852
3945.64688,0.11738
3947.57535,0.11816
3949.50381,0.11523
3951.43228,0.10730
3953.36075,0.10592
3955.28922,0.11259
3957.21769,0.11739
3959.14616,0.11223
3961.07463,0.10322
3963.00309,0.10155
3964.93156,0.10495
3966.86003,0.10858
3968.78850,0.11369
3970.71697,0.11624
3972.64544,0.11315
3974.57391,0.10935
3976.50238,0.10590
3978.43084,0.10267
3980.35931,0.10416
3982.28778,0.10686
3984.21625,0.10784
3986.14472,0.11051
3988.07319,0.10898
3990.00166,0.10080
3991.93012,0.09607
3993.85859,0.09657
3995.78706,0.09440
3997.71553,0.09258
3999.64400,0.09689
4001.57247,0.10221
4003.50094,0.10589
4005.42941,0.10755
4007.35787,0.10384
4009.28634,0.09753
4011.21481,0.09644
4013.14328,0.09995
4015.07175,0.09976
4017.00022,0.09518
4018.92869,0.09143
4020.85715,0.09012
4022.78562,0.09116
4024.71409,0.09350
4026.64256,0.09612
4028.57103,0.10001
4030.49950,0.10225
4032.42797,0.10053
4034.35644,0.10151
4036.28490,0.10580
4038.21337,0.10593
4040.14184,0.10246
4042.07031,0.09970
4043.99878,0.09884
4045.92725,0.09962
4047.85572,0.09980
4049.78418,0.10024
4051.71265,0.10349
4053.64112,0.10502
4055.56959,0.10371
4057.49806,0.10478
4059.42653,0.10482
4061.35500,0.10046
4063.28346,0.09602
4065.21193,0.09111
4067.14040,0.08589
4069.06887,0.08745
4070.99734,0.09619
4072.92581,0.10297
4074.85428,0.10348
4076.78275,0.10203
4078.71121,0.10257
4080.63968,0.10306
4082.56815,0.09990
4084.49662,0.09666
4086.42509,0.09655
4088.35356,0.09663
4090.28203,0.09532
4092.21049,0.09174
4094.13896,0.08882
4096.06743,0.08839
4097.99590,0.08642
4099.92437,0.08496
4101.85284,0.08419
4103.78131,0.08100
4105.70978,0.08122
4107.63824,0.08581
4109.56671,0.08802
4111.49518,0.08821
4113.42365,0.08793
4115.35212,0.08751
4117.28059,0.08741
4119.20906,0.08339
4121.13752,0.07973
4123.06599,0.08446
4124.99446,0.08838
4126.92293,0.08457
4128.85140,0.08066
4130.77987,0.08038
4132.70834,0.08525
4134.63681,0.09482
4136.56527,0.09910
4138.49374,0.09497
4140.42221,0.09318
4142.35068,0.09846
4144.27915,0.10195
4146.20762,0.09953
4148.13609,0.09520
4150.06455,0.08972
4151.99302,0.08366
4153.92149,0.08010
4155.84996,0.08214
4157.77843,0.08356
4159.70690,0.07670
4161.63537,0.07051
4163.56384,0.07181
4165.49230,0.07481
4167.42077,0.07652
4169.34924,0.07948
4171.27771,0.08409
4173.20618,0.08647
4175.13465,0.08412
4177.06312,0.07862
4178.99158,0.07672
4180.92005,0.08420
4182.84852,0.09303
4184.77699,0.09147
4186.70546,0.08427
4188.63393,0.08242
4190.56240,0.08263
4192.49087,0.07802
4194.41933,0.07475
4196.34780,0.07703
4198.27627,0.07963
4200.20474,0.08164
4202.13321,0.08200
4204.06168,0.07854
4205.99015,0.07499
4207.91861,0.07461
4209.84708,0.07684
4211.77555,0.07732
4213.70402,0.07635
4215.63249,0.08037
4217.56096,0.08687
4219.48943,0.08670
4221.41789,0.08066
4223.34636,0.07623
4225.27483,0.07230
4227.20330,0.06983
4229.13177,0.07354
4231.06024,0.07638
4232.98871,0.07492
4234.91718,0.07540
4236.84564,0.07820
4238.77411,0.07991
4240.70258,0.07969
4242.63105,0.07856
4244.55952,0.07635
4246.48799,0.07492
4248.41646,0.07584
4250.34492,0.07530
4252.27339,0.07513
4254.20186,0.07737
4256.13033,0.07374
4258.05880,0.06269
4259.98727,0.05603
4261.91574,0.05901
4263.84421,0.06283
4265.77267,0.06340
4267.70114,0.06545
4269.62961,0.06776
4271.55808,0.06667
4273.48655,0.06635
4275.41502,0.07138
4277.34349,0.08016
4279.27195,0.08519
4281.20042,0.08020
4283.12889,0.07036
4285.05736,0.06326
4286.98583,0.06022
4288.91430,0.06126
4290.84277,0.06426
4292.77124,0.06577
4294.69970,0.06758
4296.62817,0.06896
4298.55664,0.06692
4300.48511,0.06816
4302.41358,0.07270
4304.34205,0.07084
4306.27052,0.06385
4308.19898,0.05718
4310.12745,0.05107
4312.05592,0.04683
4313.98439,0.04530
4315.91286,0.04507
4317.84133,0.04941
4319.76980,0.05731
4321.69827,0.05955
4323.62673,0.05778
4325.55520,0.05886
4327.48367,0.06156
4329.41214,0.06253
4331.34061,0.05986
4333.26908,0.05415
4335.19755,0.04782
4337.12601,0.04418
4339.05448,0.04856
4340.98295,0.05799
4342.91142,0.05870
4344.83989,0.05002
4346.76836,0.04694
4348.69683,0.05214
4350.62530,0.05664
4352.55376,0.05868
4354.48223,0.05930
4356.41070,0.05539
4358.33917,0.04857
4360.26764,0.04367
4362.19611,0.04219
4364.12458,0.04508
4366.05304,0.04818
4367.98151,0.04476
4369.90998,0.03760
4371.83845,0.03269
4373.76692,0.02974
4375.69539,0.02847
4377.62386,0.03297
4379.55232,0.04294
4381.48079,0.05064
4383.40926,0.05308
4385.33773,0.05457
4387.26620,0.05758
4389.19467,0.05822
4391.12314,0.05328
4393.05161,0.05124
4394.98007,0.05347
4396.90854,0.04977
4398.83701,0.04530
4400.76548,0.04740
4402.69395,0.04906
4404.62242,0.04479
4406.55089,0.04084
4408.47935,0.04469
4410.40782,0.05100
4412.33629,0.04933
4414.26476,0.03836
4416.19323,0.02971
4418.12170,0.03091
4420.05017,0.03340
4421.97864,0.03255
4423.90710,0.03084
4425.83557,0.03223
4427.76404,0.03863
4429.69251,0.03940
4431.62098,0.03298
4433.54945,0.03246
4435.47792,0.03591
4437.40638,0.03546
4439.33485,0.03411
4441.26332,0.03496
4443.19179,0.03921
4445.12026,0.04466
4447.04873,0.04578
4448.97720,0.04160
4450.90567,0.03540
4452.83413,0.03319
4454.76260,0.03637
4456.69107,0.03745
4458.61954,0.03410
4460.54801,0.03237
4462.47648,0.03298
4464.40495,0.03289
4466.33341,0.03335
4468.26188,0.03495
4470.19035,0.03544
4472.11882,0.03215
4474.04729,0.02628
4475.97576,0.02144
4477.90423,0.01863
4479.83270,0.01980
4481.76116,0.02396
4483.68963,0.02745
4485.61810,0.02826
4487.54657,0.02616
4489.47504,0.02564
4491.40351,0.02455
4493.33198,0.01640
4495.26044,0.01169
4497.18891,0.01641
4499.11738,0.01598
4501.04585,0.01157
4502.97432,0.01596
4504.90279,0.02466
4506.83126,0.03142
4508.75973,0.03445
4510.68819,0.03204
4512.61666,0.02570
4514.54513,0.01872
4516.47360,0.01585
4518.40207,0.01959
4520.33054,0.02362
4522.25901,0.02025
4524.18747,0.01293
4526.11594,0.01019
4528.04441,0.01538
4529.97288,0.02241
4531.90135,0.02176
4533.82982,0.01499
4535.75829,0.01331
4537.68676,0.01873
4539.61522,0.02473
4541.54369,0.03010
4543.47216,0.03049
4545.40063,0.02281
4547.32910,0.01658
4549.25757,0.01998
4551.18604,0.02718
4553.11450,0.02750
4555.04297,0.02112
4556.97144,0.01551
4558.89991,0.01189
4560.82838,0.00861
4562.75685,0.01011
4564.68532,0.01392
4566.61378,0.01440
4568.54225,0.01354
4570.47072,0.01171
4572.39919,0.01200
4574.32766,0.01390
4576.25613,0.01301
4578.18460,0.01254
4580.11307,0.01360
4582.04153,0.01217
4583.97000,0.00862
4585.89847,0.00452
4587.82694,-0.00545
4589.75541,-0.01938
4591.68388,-0.02487
4593.61235,-0.01802
4595.54081,-0.00776
4597.46928,-0.00203
4599.39775,0.00391
4601.32622,0.01320
4603.25469,0.01952
4605.18316,0.02226
4607.11163,0.02420
4609.04010,0.01788
4610.96856,0.00065
4612.89703,-0.01148
4614.82550,-0.00673
4616.75397,0.00602
4618.68244,0.01402
4620.61091,0.01678
4622.53938,0.01347
4624.46784,0.00236
4626.39631,-0.00600
4628.32478,-0.00492
4630.25325,0.00135
4632.18172,0.00767
4634.11019,0.01052
4636.03866,0.01064
4637.96713,0.00949
4639.89559,0.01012
4641.82406,0.01508
4643.75253,0.01833
4645.68100,0.01235
4647.60947,0.00243
4649.53794,-0.00131
4651.46641,0.00010
4653.39487,0.00542
4655.32334,0.01662
4657.25181,0.02364
4659.18028,0.01520
4661.10875,-0.00107
4663.03722,-0.00881
4664.96569,-0.00118
4666.89416,0.01371
4668.82262,0.01953
4670.75109,0.01805
4672.67956,0.02335
4674.60803,0.02969
4676.53650,0.02711
4678.46497,0.02031
4680.39344,0.01658
4682.32190,0.01546
4684.25037,0.00826
4686.17884,-0.00145
4688.10731,0.00151
4690.03578,0.01064
4691.96425,0.00995
4693.89272,0.00477
4695.82119,0.00868
4697.74965,0.01832
4699.67812,0.01612
4701.60659,0.00557
4703.53506,0.00544
4705.46353,0.00729
4707.39200,0.00038
4709.32047,-0.00527
4711.24893,-0.00452
4713.17740,0.00076
4715.10587,0.00581
4717.03434,0.00955
4718.96281,0.01440
4720.89128,0.01165
4722.81975,-0.00001
4724.74821,-0.00589
4726.67668,0.00238
4728.60515,0.01609
4730.53362,0.02048
4732.46209,0.01863
4734.39056,0.01826
4736.31903,0.01264
4738.24750,0.00353
4740.17596,-0.00208
4742.10443,-0.00615
4744.03290,-0.00423
4745.96137,0.00428
4747.88984,0.00631
4749.81831,0.00058
4751.74678,-0.00602
4753.67524,-0.00925
4755.60371,0.00068
4757.53218,0.01786
4759.46065,0.02691
4761.38912,0.02858
4763.31759,0.02527
4765.24606,0.01371
4767.17453,0.00307
4769.10299,0.00875
4771.03146,0.02072
4772.95993,0.02435
4774.88840,0.02953
4776.81687,0.03860
4778.74534,0.03679
4780.67381,0.02401
4782.60227,0.01590
4784.53074,0.01571
4786.45921,0.01422
4788.38768,0.00505
4790.31615,-0.00807
4792.24462,-0.01010
4794.17309,0.00217
4796.10156,0.01499
4798.03002,0.02769
4799.95849,0.03843
4801.88696,0.03070
4803.81543,0.01130
4805.74390,0.00129
4807.67237,-0.00246
4809.60084,-0.00773
4811.52930,-0.00937
4813.45777,-0.00451
4815.38624,0.00043
4817.31471,-0.00481
4819.24318,-0.01197
4821.17165,-0.00392
4823.10012,0.00756
4825.02859,0.01213
4826.95705,0.01733
4828.88552,0.01688
4830.81399,0.01158
4832.74246,0.01337
4834.67093,0.01781
4836.59940,0.01482
4838.52787,0.00456
4840.45633,-0.00568
4842.38480,-0.00600
4844.31327,0.00416
4846.24174,0.01271
4848.17021,0.01576
4850.09868,0.01501
4852.02715,0.00946
4853.95562,0.00667
4855.88408,0.01238
4857.81255,0.02017
4859.74102,0.01912
4861.66949,0.00362
4863.59796,-0.00859
4865.52643,-0.00149
4867.45490,0.00366
4869.38336,-0.00089
4871.31183,0.00795
4873.24030,0.02363
4875.16877,0.02749
4877.09724,0.02724
4879.02571,0.02860
4880.95418,0.02781
4882.88265,0.02568
4884.81111,0.02503
4886.73958,0.02572
4888.66805,0.02124
4890.59652,0.01167
4892.52499,0.00980
4894.45346,0.01420
4896.38193,0.01481
4898.31039,0.01667
4900.23886,0.01786
4902.16733,0.01123
4904.09580,0.00813
4906.02427,0.00613
4907.95274,-0.00825
4909.88121,-0.01763
4911.80967,-0.00744
4913.73814,0.00231
4915.66661,0.00092
4917.59508,0.00353
4919.52355,0.00989
4921.45202,0.00915
4923.38049,0.00829
4925.30896,0.00892
4927.23742,0.00932
4929.16589,0.01396
4931.09436,0.01583
4933.02283,0.01295
4934.95130,0.01227
4936.87977,0.00885
4938.80824,-0.00208
4940.73670,-0.00571
4942.66517,0.01143
4944.59364,0.02591
4946.52211,0.01646
4948.45058,0.00660
4950.37905,0.00675
4952.30752,0.00308
4954.23599,0.00504
4956.16445,0.01546
4958.09292,0.01078
4960.02139,-0.00868
4961.94986,-0.01761
4963.87833,-0.01108
4965.80680,0.00089
4967.73527,0.01380
4969.66373,0.02390
4971.59220,0.03041
4973.52067,0.03164
4975.44914,0.02084
4977.37761,0.00787
4979.30608,0.00875
4981.23455,0.01437
4983.16302,0.01568
4985.09148,0.01545
4987.01995,0.00612
4988.94842,-0.00936
4990.87689,-0.01111
4992.80536,0.00255
4994.73383,0.01842
4996.66230,0.02792
4998.59076,0.02525
5000.51923,0.01701
5002.44770,0.02177
5004.37617,0.04322
5006.30464,0.05188
5008.23311,0.03325
5010.16158,0.01471
5012.09005,0.01419
5014.01851,0.02641
5015.94698,0.03926
5017.87545,0.04106
5019.80392,0.03761
5021.73239,0.02882
5023.66086,0.00574
5025.58933,-0.01237
5027.51779,-0.01016
5029.44626,-0.00557
5031.37473,-0.00798
5033.30320,-0.01124
5035.23167,-0.00630
5037.16014,0.00563
5039.08861,0.01338
5041.01708,0.02300
5042.94554,0.03773
5044.87401,0.04498
5046.80248,0.04140
5048.73095,0.03730
5050.65942,0.03269
5052.58789,0.01955
5054.51636,0.00998
5056.44482,0.01227
5058.37329,0.01752
5060.30176,0.02040
5062.23023,0.02420
5064.15870,0.03009
5066.08717,0.02753
5068.01564,0.01950
5069.94410,0.02070
5071.87257,0.02843
5073.80104,0.04066
5075.72951,0.05312
5077.65798,0.04414
5079.58645,0.02112
5081.51492,0.01601
5083.44339,0.02870
5085.37185,0.03751
5087.30032,0.03500
5089.22879,0.03301
5091.15726,0.02994
5093.08573,0.02563
5095.01420,0.03876
5096.94267,0.05407
5098.87113,0.04767
5100.79960,0.03029
5102.72807,0.01971
5104.65654,0.02278
5106.58501,0.02620
5108.51348,0.02390
5110.44195,0.02705
5112.37042,0.02948
5114.29888,0.02705
5116.22735,0.03372
5118.15582,0.04637
5120.08429,0.04831
5122.01276,0.05100
5123.94123,0.07073
5125.86970,0.08154
5127.79816,0.06285
5129.72663,0.04240
5131.65510,0.04022
5133.58357,0.04053
5135.51204,0.02906
5137.44051,0.01380
5139.36898,0.00962
5141.29745,0.02406
5143.22591,0.04662
5145.15438,0.05194
5147.08285,0.03790
5149.01132,0.02164
5150.93979,0.01745
5152.86826,0.03148
5154.79673,0.03936
5156.72519,0.02669
5158.65366,0.01304
5160.58213,0.01020
5162.51060,0.02182
5164.43907,0.03780
5166.36754,0.04065
5168.29601,0.03831
5170.22448,0.04385
5172.15294,0.04249
5174.08141,0.02572
5176.00988,0.01195
5177.93835,0.00736
5179.86682,0.00542
5181.79529,0.00954
5183.72376,0.02546
5185.65222,0.03822
5187.58069,0.03658
5189.50916,0.03629
5191.43763,0.03904
5193.36610,0.03331
5195.29457,0.02531
5197.22304,0.02826
5199.15151,0.03297
5201.07997,0.02274
5203.00844,0.00412
5204.93691,-0.00307
5206.86538,0.00765
5208.79385,0.01803
5210.72232,0.01965
5212.65079,0.01900
5214.57925,0.01799
5216.50772,0.01136
5218.43619,0.00654
5220.36466,0.02677
5222.29313,0.05922
5224.22160,0.06650
5226.15007,0.04536
5228.07854,0.02455
5230.00700,0.01301
5231.93547,0.00896
5233.86394,0.01763
5235.79241,0.03323
5237.72088,0.04272
5239.64935,0.04087
5241.57782,0.03313
5243.50628,0.02799
5245.43475,0.03299
5247.36322,0.04658
5249.29169,0.05552
5251.22016,0.04586
5253.14863,0.02332
5255.07710,0.01724
5257.00556,0.03656
5258.93403,0.05675
5260.86250,0.06969
5262.79097,0.07409
5264.71944,0.06784
5266.64791,0.06461
5268.57638,0.06397
5270.50485,0.06081
5272.43331,0.06084
5274.36178,0.06690
5276.29025,0.07644
5278.21872,0.07185
5280.14719,0.04458
5282.07566,0.01949
5284.00413,0.02182
5285.93259,0.04573
5287.86106,0.06442
5289.78953,0.06817
5291.71800,0.06525
5293.64647,0.05754
5295.57494,0.03976
5297.50341,0.02446
5299.43188,0.03351
5301.36034,0.05654
5303.28881,0.05405
5305.21728,0.01637
5307.14575,-0.00466
5309.07422,0.01809
5311.00269,0.02838
5312.93116,0.01729
5314.85962,0.03083
5316.78809,0.06029
5318.71656,0.06720
5320.64503,0.03784
5322.57350,-0.00569
5324.50197,-0.00892
5326.43044,0.02935
5328.35891,0.05242
5330.28737,0.05533
5332.21584,0.05895
5334.14431,0.06087
5336.07278,0.06745
5338.00125,0.07734
5339.92972,0.07256
5341.85819,0.05656
5343.78665,0.04388
5345.71512,0.03863
5347.64359,0.03908
5349.57206,0.05071
5351.50053,0.06323
5353.42900,0.05291
5355.35747,0.03954
5357.28594,0.05132
5359.21440,0.06900
5361.14287,0.07561
5363.07134,0.07597
5364.99981,0.07038
5366.92828,0.05919
5368.85675,0.04891
5370.78522,0.04970
5372.71368,0.06819
5374.64215,0.08101
5376.57062,0.06919
5378.49909,0.05182
5380.42756,0.03150
5382.35603,0.01274
5384.28450,0.02281
5386.21297,0.05842
5388.14143,0.07947
5390.06990,0.08067
5391.99837,0.07678
5393.92684,0.07075
5395.85531,0.06845
5397.78378,0.07167
5399.71225,0.06664
5401.64071,0.05093
5403.56918,0.03634
5405.49765,0.02152
5407.42612,0.01491
5409.35459,0.03259
5411.28306,0.05531
5413.21153,0.07027
5415.13999,0.08158
5417.06846,0.08047
5418.99693,0.07410
5420.92540,0.07037
5422.85387,0.06908
5424.78234,0.07469
5426.71081,0.08569
5428.63928,0.08928
5430.56774,0.08048
5432.49621,0.07501
5434.42468,0.07005
5436.35315,0.05033
5438.28162,0.02863
5440.21009,0.02453
5442.13856,0.04228
5444.06702,0.05686
5445.99549,0.05261
5447.92396,0.05453
5449.85243,0.06268
5451.78090,0.04380
5453.70937,0.01442
5455.63784,0.01199
5457.56631,0.01920
5459.49477,0.00994
5461.42324,0.01321
5463.35171,0.03719
5465.28018,0.04828
5467.20865,0.03629
5469.13712,0.02257
5471.06559,0.02078
5472.99405,0.01918
5474.92252,0.01633
5476.85099,0.03035
5478.77946,0.05222
5480.70793,0.06419
5482.63640,0.06437
5484.56487,0.05218
5486.49334,0.04382
5488.42180,0.06104
5490.35027,0.09093
5492.27874,0.10385
5494.20721,0.10632
5496.13568,0.11685
5498.06415,0.11591
5499.99262,0.10121
5501.92108,0.10059
5503.84955,0.10363
5505.77802,0.08613
5507.70649,0.06012
5509.63496,0.05439
5511.56343,0.06232
5513.49190,0.05635
5515.42037,0.04527
5517.34883,0.05361
5519.27730,0.07655
5521.20577,0.09465
5523.13424,0.10027
5525.06271,0.10030
5526.99118,0.09205
5528.91965,0.07938
5530.84811,0.08766
5532.77658,0.11009
5534.70505,0.12149
5536.63352,0.12220
5538.56199,0.11727
5540.49046,0.10439
5542.41893,0.08872
5544.34740,0.08227
5546.27586,0.08774
5548.20433,0.10141
5550.13280,0.11748
5552.06127,0.11985
5553.98974,0.10312
5555.91821,0.09116
5557.84668,0.09842
5559.77514,0.11089
5561.70361,0.11688
5563.63208,0.12730
5565.56055,0.15151
5567.48902,0.16528
5569.41749,0.15762
5571.34596,0.14471
5573.27443,0.12391
5575.20289,0.09785
5577.13136,0.09211
5579.05983,0.10587
5580.98830,0.10684
5582.91677,0.09081
5584.84524,0.08340
5586.77371,0.08459
5588.70217,0.07726
5590.63064,0.06406
5592.55911,0.05209
5594.48758,0.03697
5596.41605,0.04230
5598.34452,0.07983
5600.27299,0.11292
5602.20145,0.11986
5604.12992,0.10389
5606.05839,0.07897
5607.98686,0.08130
5609.91533,0.11827
5611.84380,0.13666
5613.77227,0.11028
5615.70074,0.08245
5617.62920,0.09456
5619.55767,0.12994
5621.48614,0.14960
5623.41461,0.16120
5625.34308,0.15688
5627.27155,0.12021
5629.20002,0.09356
5631.12848,0.10007
5633.05695,0.12178
5634.98542,0.13053
5636.91389,0.11503
5638.84236,0.09905
5640.77083,0.09111
5642.69930,0.08617
5644.62777,0.09169
5646.55623,0.10425
5648.48470,0.11063
5650.41317,0.10200
5652.34164,0.08432
5654.27011,0.08259
5656.19858,0.09746
5658.12705,0.10120
5660.05551,0.07866
5661.98398,0.05559
5663.91245,0.05772
5665.84092,0.06907
5667.76939,0.08230
5669.69786,0.10219
5671.62633,0.11890
5673.55480,0.12057
5675.48326,0.11425
5677.41173,0.10832
5679.34020,0.08910
5681.26867,0.07331
5683.19714,0.07716
5685.12561,0.07725
5687.05408,0.07649
5688.98254,0.07661
5690.91101,0.05868
5692.83948,0.04363
5694.76795,0.04768
5696.69642,0.06485
5698.62489,0.09054
5700.55336,0.09390
5702.48183,0.06394
5704.41029,0.02572
5706.33876,0.00636
5708.26723,0.01071
5710.19570,0.02162
5712.12417,0.04887
5714.05264,0.07295
5715.98111,0.05522
5717.90957,0.03199
5719.83804,0.03136
5721.76651,0.04644
5723.69498,0.07184
5725.62345,0.08576
5727.55192,0.08206
5729.48039,0.08346
5731.40886,0.09947
5733.33732,0.12024
5735.26579,0.13253
5737.19426,0.11701
5739.12273,0.09075
5741.05120,0.09100
5742.97967,0.09828
5744.90814,0.07624
5746.83660,0.02747
5748.76507,0.00231
5750.69354,0.04297
5752.62201,0.08423
5754.55048,0.05999
5756.47895,0.03425
5758.40742,0.05579
5760.33588,0.07795
5762.26435,0.07008
5764.19282,0.05209
5766.12129,0.04180
5768.04976,0.04550
5769.97823,0.06496
5771.90670,0.08507
5773.83517,0.09235
5775.76363,0.10568
5777.69210,0.12979
5779.62057,0.14340
5781.54904,0.13457
5783.47751,0.10441
5785.40598,0.08096
5787.33445,0.08189
5789.26291,0.08313
5791.19138,0.06904
5793.11985,0.05145
5795.04832,0.04567
5796.97679,0.05215
5798.90526,0.06346
5800.83373,0.06980
5802.76220,0.06662
5804.69066,0.06329
5806.61913,0.06021
5808.54760,0.06055
5810.47607,0.08152
5812.40454,0.10744
5814.33301,0.10376
5816.26148,0.07148
5818.18994,0.04128
5820.11841,0.04355
5822.04688,0.06634
5823.97535,0.07790
5825.90382,0.08745
5827.83229,0.10264
5829.76076,0.10817
5831.68923,0.09950
5833.61769,0.08759
5835.54616,0.09477
5837.47463,0.11946
5839.40310,0.12199
5841.33157,0.08154
5843.26004,0.04627
5845.18851,0.04951
5847.11697,0.05375
5849.04544,0.04902
5850.97391,0.05514
5852.90238,0.06821
5854.83085,0.07944
5856.75932,0.09191
5858.68779,0.11323
5860.61626,0.11243
5862.54472,0.07547
5864.47319,0.05120
5866.40166,0.05695
5868.33013,0.06231
5870.25860,0.04780
5872.18707,0.01496
5874.11554,-0.00490
5876.04400,0.01462
5877.97247,0.03639
5879.90094,0.03355
5881.82941,0.04084
5883.75788,0.07035
5885.68635,0.08887
5887.61482,0.07410
5889.54329,0.03425
5891.47175,-0.00095
5893.40022,-0.00112
5895.32869,0.03253
5897.25716,0.06457
5899.18563,0.07186
5901.11410,0.07703
5903.04257,0.07945
5904.97103,0.05625
5906.89950,0.05195
5908.82797,0.09832
5910.75644,0.13341
5912.68491,0.11855
5914.61338,0.09748
5916.54185,0.08782
5918.47032,0.07320
5920.39878,0.07537
5922.32725,0.07940
5924.25572,0.05293
5926.18419,0.02891
5928.11266,0.02948
5930.04113,0.04182
5931.96960,0.06044
5933.89806,0.07129
5935.82653,0.05536
5937.75500,0.03743
5939.68347,0.05412
5941.61194,0.08389
5943.54041,0.08780
5945.46888,0.07299
5947.39734,0.06983
5949.32581,0.09696
5951.25428,0.13522
5953.18275,0.13725
5955.11122,0.11304
5957.03969,0.10692
5958.96816,0.09996
5960.89663,0.06429
5962.82509,0.02790
5964.75356,0.04416
5966.68203,0.09622
5968.61050,0.09302
5970.53897,0.06575
5972.46744,0.07757
5974.39591,0.08270
5976.32437,0.08180
5978.25284,0.09687
5980.18131,0.12066
5982.10978,0.14431
5984.03825,0.13483
5985.96672,0.09786
5987.89519,0.07624
5989.82366,0.07279
5991.75212,0.05249
5993.68059,-0.00042
5995.60906,-0.02486
5997.53753,0.00501
5999.46600,0.01844
6001.39447,0.00206
6003.32294,0.00802
6005.25140,0.04787
6007.17987,0.06902
6009.10834,0.05692
6011.03681,0.04903
6012.96528,0.05676
6014.89375,0.06063
6016.82222,0.04809
6018.75069,0.03300
6020.67915,0.04331
6022.60762,0.09092
6024.53609,0.13896
6026.46456,0.15019
6028.39303,0.14335
6030.32150,0.12908
6032.24997,0.10080
6034.17843,0.07893
6036.10690,0.06157
6038.03537,0.02973
6039.96384,-0.00801
6041.89231,-0.02433
6043.82078,0.02204
6045.74925,0.09668
6047.67772,0.11697
6049.60618,0.09194
6051.53465,0.08003
6053.46312,0.08445
6055.39159,0.09377
6057.32006,0.09924
6059.24853,0.10915
6061.17700,0.13554
6063.10546,0.12908
6065.03393,0.07527
6066.96240,0.04947
6068.89087,0.08755
6070.81934,0.15879
6072.74781,0.20575
6074.67628,0.19148
6076.60475,0.12927
6078.53321,0.04790
6080.46168,-0.01223
6082.39015,-0.01306
6084.31862,0.03235
6086.24709,0.07481
6088.17556,0.07028
6090.10403,0.02590
6092.03249,0.00604
6093.96096,0.05025
6095.88943,0.10496
6097.81790,0.12827
6099.74637,0.14679
6101.67484,0.16083
6103.60331,0.14631
6105.53177,0.11382
6107.46024,0.09180
6109.38871,0.08615
6111.31718,0.09591
6113.24565,0.11893
6115.17412,0.11531
6117.10259,0.07655
6119.03106,0.06028
6120.95952,0.09758
6122.88799,0.12644
6124.81646,0.10638
6126.74493,0.08645
6128.67340,0.09169
6130.60187,0.08483
6132.53034,0.06224
6134.45880,0.05442
6136.38727,0.07150
6138.31574,0.08997
6140.24421,0.11346
6142.17268,0.15673
6144.10115,0.15960
6146.02962,0.10020
6147.95809,0.05195
6149.88655,0.05548
6151.81502,0.08819
6153.74349,0.10032
6155.67196,0.09099
6157.60043,0.09952
6159.52890,0.10680
6161.45737,0.06700
6163.38583,0.01858
6165.31430,0.02133
6167.24277,0.03293
6169.17124,0.03124
6171.09971,0.06502
6173.02818,0.11986
6174.95665,0.12894
6176.88512,0.07738
6178.81358,0.02149
6180.74205,0.02655
6182.67052,0.08170
6184.59899,0.12557
6186.52746,0.12689
6188.45593,0.09867
6190.38440,0.09310
6192.31286,0.12645
6194.24133,0.15362
6196.16980,0.15339
6198.09827,0.13358
6200.02674,0.09940
6201.95521,0.06809
6203.88368,0.05675
6205.81215,0.06395
6207.74061,0.07714
6209.66908,0.09553
6211.59755,0.12113
6213.52602,0.12711
6215.45449,0.10445
6217.38296,0.08799
6219.31143,0.08835
6221.23989,0.11288
6223.16836,0.16900
6225.09683,0.20122
6227.02530,0.17070
6228.95377,0.11273
6230.88224,0.10963
6232.81071,0.15920
6234.73918,0.14756
6236.66764,0.10939
6238.59611,0.11867
6240.52458,0.12177
6242.45305,0.06807
6244.38152,0.00445
6246.30999,0.01610
6248.23846,0.07343
6250.16692,0.06556
6252.09539,-0.00501
6254.02386,-0.05038
6255.95233,-0.05150
6257.88080,-0.04076
6259.80927,-0.02001
6261.73774,0.01945
6263.66621,0.05351
6265.59467,0.06762
6267.52314,0.05690
6269.45161,0.03396
6271.38008,0.03412
6273.30855,0.03877
6275.23702,0.01157
6277.16549,-0.01394
6279.09395,-0.02148
6281.02242,-0.01897
6282.95089,0.00910
6284.87936,0.03780
6286.80783,0.02591
6288.73630,-0.00916
6290.66477,-0.00090
6292.59323,0.06099
6294.52170,0.09549
6296.45017,0.05512
6298.37864,-0.01719
6300.30711,-0.01184
6302.23558,0.12533
6304.16405,0.25205
6306.09252,0.26355
6308.02098,0.21055
6309.94945,0.13961
6311.87792,0.08639
6313.80639,0.07062
6315.73486,0.06254
6317.66333,0.05820
6319.59180,0.05223
6321.52026,0.03617
6323.44873,0.02816
6325.37720,0.03135
6327.30567,0.03983
6329.23414,0.05202
6331.16261,0.07519
6333.09108,0.08079
6335.01955,0.05807
6336.94801,0.04211
6338.87648,0.00691
6340.80495,-0.02908
6342.73342,0.00587
6344.66189,0.07645
6346.59036,0.08514
6348.51883,0.03296
6350.44729,0.03542
6352.37576,0.11364
6354.30423,0.13788
6356.23270,0.06635
6358.16117,0.00984
6360.08964,0.03559
6362.01811,0.04956
6363.94658,0.01746
6365.87504,0.02066
6367.80351,0.03885
6369.73198,0.00993
6371.66045,-0.00904
6373.58892,0.02329
6375.51739,0.07557
6377.44586,0.12294
6379.37432,0.15520
6381.30279,0.17959
6383.23126,0.18683
6385.15973,0.16306
6387.08820,0.13926
6389.01667,0.11118
6390.94514,0.06557
6392.87361,0.08161
6394.80207,0.15032
6396.73054,0.13914
6398.65901,0.10767
6400.58748,0.12760
6402.51595,0.14599
6404.44442,0.15494
6406.37289,0.17923
6408.30135,0.17826
6410.22982,0.11006
6412.15829,0.01982
6414.08676,-0.06036
6416.01523,-0.12741
6417.94370,-0.13693
6419.87217,-0.08417
6421.80064,0.00329
6423.72910,0.08305
6425.65757,0.10284
6427.58604,0.10208
6429.51451,0.13185
6431.44298,0.16381
6433.37145,0.14426
6435.29992,0.09266
6437.22838,0.08887
6439.15685,0.12411
6441.08532,0.11060
6443.01379,0.05952
6444.94226,0.02944
6446.87073,0.01273
6448.79920,0.00191
6450.72766,0.01549
6452.65613,0.03312
6454.58460,0.03965
6456.51307,0.06968
6458.44154,0.12577
6460.37001,0.14000
6462.29848,0.08345
6464.22695,0.00164
6466.15541,-0.06656
6468.08388,-0.07292
6470.01235,-0.01165
6471.94082,0.04851
6473.86929,0.08998
6475.79776,0.11277
6477.72623,0.10203
6479.65469,0.06795
6481.58316,0.05594
6483.51163,0.05449
6485.44010,0.02325
6487.36857,0.02420
6489.29704,0.07150
6491.22551,0.08670
6493.15398,0.05181
6495.08244,-0.00993
6497.01091,-0.06621
6498.93938,-0.03288
6500.86785,0.09235
6502.79632,0.16958
6504.72479,0.15430
6506.65326,0.10529
6508.58172,0.05378
6510.51019,0.00797
6512.43866,-0.02012
6514.36713,-0.01632
6516.29560,0.02061
6518.22407,0.08507
6520.15254,0.12584
6522.08101,0.10034
6524.00947,0.05863
6525.93794,0.05241
6527.86641,0.04508
6529.79488,0.02798
6531.72335,0.02677
6533.65182,0.04583
6535.58029,0.03923
6537.50875,-0.01687
6539.43722,-0.05245
6541.36569,-0.06587
6543.29416,-0.04982
6545.22263,0.04391
6547.15110,0.12261
6549.07957,0.13009
6551.00804,0.11020
6552.93650,0.09619
6554.86497,0.08337
6556.79344,0.06394
6558.72191,0.03282
6560.65038,0.01750
6562.57885,0.03294
6564.50732,0.04554
6566.43578,0.04106
6568.36425,0.03343
6570.29272,0.07320
6572.22119,0.13199
6574.14966,0.12589
6576.07813,0.12929
6578.00660,0.16850
6579.93507,0.15675
6581.86353,0.12294
6583.79200,0.08444
6585.72047,0.03334
6587.64894,0.04766
6589.57741,0.09956
6591.50588,0.10411
6593.43435,0.07455
6595.36281,0.04723
6597.29128,0.04699
6599.21975,0.08368
6601.14822,0.13551
6603.07669,0.13886
6605.00516,0.06992
6606.93363,0.00672
6608.86210,0.02781
6610.79056,0.06439
6612.71903,0.01894
6614.64750,-0.01151
6616.57597,0.06324
6618.50444,0.10916
6620.43291,0.05684
6622.36138,-0.00672
6624.28984,-0.04386
6626.21831,-0.05748
6628.14678,-0.03237
6630.07525,0.02915
6632.00372,0.10455
6633.93219,0.15084
6635.86066,0.14029
6637.78912,0.11165
6639.71759,0.11668
6641.64606,0.14746
6643.57453,0.15432
6645.50300,0.12092
6647.43147,0.07724
6649.35994,0.06592
6651.28841,0.08622
6653.21687,0.09447
6655.14534,0.03684
6657.07381,-0.07144
6659.00228,-0.05272
6660.93075,0.10232
6662.85922,0.19639
6664.78769,0.19054
6666.71615,0.16115
6668.64462,0.12443
6670.57309,0.05758
6672.50156,0.00248
6674.43003,-0.00198
6676.35850,0.01409
6678.28697,0.04997
6680.21544,0.07537
6682.14390,0.06161
6684.07237,0.07689
6686.00084,0.11146
6687.92931,0.06892
6689.85778,-0.00068
6691.78625,0.00891
6693.71472,0.06828
6695.64318,0.10893
6697.57165,0.10337
6699.50012,0.07851
6701.42859,0.09367
6703.35706,0.12937
6705.28553,0.07699
6707.21400,-0.00946
6709.14247,0.00095
6711.07093,0.06407
6712.99940,0.09165
6714.92787,0.04661
6716.85634,-0.03403
6718.78481,-0.03855
6720.71328,0.03486
6722.64175,0.03862
6724.57021,-0.03762
6726.49868,-0.06504
6728.42715,-0.02729
6730.35562,0.01709
6732.28409,0.05576
6734.21256,0.07105
6736.14103,0.03134
6738.06950,-0.00546
6739.99796,-0.01116
6741.92643,-0.06647
6743.85490,-0.17657
6745.78337,-0.19861
6747.71184,-0.07555
6749.64031,0.04734
6751.56878,0.11769
6753.49724,0.21370
6755.42571,0.25233
6757.35418,0.18364
6759.28265,0.08778
6761.21112,0.01166
6763.13959,-0.02929
6765.06806,-0.04820
6766.99653,-0.06046
6768.92499,-0.01529
6770.85346,0.10367
6772.78193,0.18173
6774.71040,0.16516
6776.63887,0.12717
6778.56734,0.09019
6780.49581,0.03414
6782.42427,0.02130
6784.35274,0.06079
6786.28121,0.07828
6788.20968,0.04632
6790.13815,-0.01920
6792.06662,-0.05176
6793.99509,0.01060
6795.92355,0.09523
6797.85202,0.10042
6799.78049,0.06197
6801.70896,0.05457
6803.63743,0.06747
6805.56590,0.03815
6807.49437,-0.02126
6809.42284,-0.01230
6811.35130,0.10298
6813.27977,0.21621
6815.20824,0.21067
6817.13671,0.08919
6819.06518,-0.03364
6820.99365,-0.04142
6822.92212,0.09691
6824.85058,0.19284
6826.77905,0.12759
6828.70752,0.03594
6830.63599,0.01890
6832.56446,0.00319
6834.49293,-0.01378
6836.42140,0.05111
6838.34987,0.15752
6840.27833,0.19932
6842.20680,0.14581
6844.13527,0.05726
6846.06374,-0.02893
6847.99221,-0.11922
6849.92068,-0.11501
6851.84915,0.00224
6853.77761,0.13179
6855.70608,0.21899
6857.63455,0.20779
6859.56302,0.14833
6861.49149,0.10821
6863.41996,0.06124
6865.34843,0.00438
6867.27690,-0.02802
6869.20536,-0.02574
6871.13383,0.04277
6873.06230,0.16048
6874.99077,0.18466
6876.91924,0.09382
6878.84771,0.02108
6880.77618,0.05121
6882.70464,0.07787
6884.63311,0.09286
6886.56158,0.20511
6888.49005,0.30692
6890.41852,0.22831
6892.34699,0.04204
6894.27546,-0.03414
6896.20393,0.08695
6898.13239,0.22927
6900.06086,0.20844
6901.98933,0.15006
6903.91780,0.13771
6905.84627,0.14449
6907.77474,0.17047
6909.70321,0.12452
6911.63167,-0.02986
6913.56014,-0.11543
6915.48861,-0.03876
6917.41708,0.07153
6919.34555,0.15666
6921.27402,0.25188
6923.20249,0.27688
6925.13096,0.16397
6927.05942,0.03058
6928.98789,0.01724
6930.91636,0.05741
6932.84483,0.00006
6934.77330,-0.05537
6936.70177,-0.02370
6938.63024,-0.00473
6940.55870,-0.03554
6942.48717,-0.05366
6944.41564,-0.05712
6946.34411,-0.02074
6948.27258,0.04676
6950.20105,0.09735
6952.12952,0.11561
6954.05799,0.11099
6955.98645,0.13399
6957.91492,0.13553
6959.84339,0.05078
6961.77186,-0.05058
6963.70033,-0.07349
6965.62880,-0.03832
6967.55727,0.00647
6969.48573,0.05879
6971.41420,0.08799
6973.34267,0.10686
6975.27114,0.13267
6977.19961,0.09754
6979.12808,0.06180
6981.05655,0.07146
6982.98501,0.07319
6984.91348,0.08243
6986.84195,0.14491
6988.77042,0.21270
6990.69889,0.21662
6992.62736,0.17128
6994.55583,0.08489
6996.48430,-0.07417
6998.41276,-0.20774
7000.34123,-0.21458
7002.26970,-0.18017
7004.19817,-0.15409
7006.12664,-0.10678
7008.05511,-0.00584
7009.98358,0.09610
7011.91204,0.09043
7013.84051,-0.01445
7015.76898,-0.03252
7017.69745,0.07312
7019.62592,0.17818
7021.55439,0.24812
7023.48286,0.27691
7025.41133,0.25241
7027.33979,0.28525
7029.26826,0.35356
7031.19673,0.30292
7033.12520,0.19854
7035.05367,0.11810
7036.98214,0.07567
7038.91061,0.11674
7040.83907,0.24685
7042.76754,0.31787
7044.69601,0.19345
7046.62448,0.03293
7048.55295,-0.02789
7050.48142,-0.00104
7052.40989,0.04926
7054.33836,0.02017
7056.26682,-0.11148
7058.19529,-0.20299
7060.12376,-0.09000
7062.05223,0.09916
7063.98070,0.17079
7065.90917,0.14400
7067.83764,0.05950
7069.76610,-0.01070
7071.69457,0.07785
7073.62304,0.19973
7075.55151,0.26812
7077.47998,0.28030
7079.40845,0.18882
7081.33692,0.10976
7083.26539,0.14001
7085.19385,0.13211
7087.12232,0.02620
7089.05079,-0.05997
7090.97926,-0.06845
7092.90773,-0.08926
7094.83620,-0.09842
7096.76467,-0.03317
7098.69313,0.02425
7100.62160,-0.00496
7102.55007,-0.08067
7104.47854,-0.21178
7106.40701,-0.34914
7108.33548,-0.31453
7110.26395,-0.16329
7112.19242,-0.06017
7114.12088,-0.00037
7116.04935,0.07839
7117.97782,0.11274
7119.90629,0.08864
7121.83476,0.13855
7123.76323,0.22833
7125.69170,0.21061
7127.62016,0.11871
7129.54863,0.12986
7131.47710,0.24481
7133.40557,0.29732
7135.33404,0.20089
7137.26251,0.06757
7139.19098,0.02884
7141.11944,0.09100
7143.04791,0.12615
7144.97638,0.07486
7146.90485,0.11632
7148.83332,0.22664
7150.76179,0.22827
7152.69026,0.17630
7154.61873,0.19123
7156.54719,0.21850
7158.47566,0.12325
7160.40413,-0.01286
7162.33260,-0.00309
7164.26107,0.05070
7166.18954,-0.00339
7168.11801,-0.06756
7170.04647,-0.06245
7171.97494,0.00486
7173.90341,0.10547
7175.83188,0.12762
7177.76035,0.02491
7179.68882,-0.02272
7181.61729,0.06825
7183.54576,0.19801
7185.47422,0.26559
7187.40269,0.22619
7189.33116,0.11021
7191.25963,0.03764
7193.18810,0.06299
7195.11657,0.09458
7197.04504,0.08286
7198.97350,0.07044
7200.90197,0.07841
7202.83044,0.10987
7204.75891,0.12733
7206.68738,0.05141
7208.61585,-0.07364
7210.54432,-0.17834
7212.47279,-0.15370
7214.40125,0.00102
7216.32972,0.18044
7218.25819,0.30673
7220.18666,0.27534
7222.11513,0.12250
7224.04360,-0.05215
7225.97207,-0.17290
7227.90053,-0.19081
7229.82900,-0.12274
7231.75747,0.04145
7233.68594,0.19965
7235.61441,0.18289
7237.54288,0.03221
7239.47135,-0.01990
7241.39982,0.09352
7243.32828,0.23111
7245.25675,0.23738
7247.18522,0.11497
7249.11369,-0.06028
7251.04216,-0.10794
7252.97063,0.02148
7254.89910,0.11988
7256.82756,0.21077
7258.75603,0.31144
7260.68450,0.35371
7262.61297,0.34358
7264.54144,0.30681
7266.46991,0.33178
7268.39838,0.40014
7270.32685,0.41071
7272.25531,0.31315
7274.18378,0.15722
7276.11225,0.09424
7278.04072,0.23744
7279.96919,0.45419
7281.89766,0.36386
7283.82613,0.10328
7285.75459,-0.05643
7287.68306,-0.01595
7289.61153,0.15750
7291.54000,0.21294
7293.46847,0.09100
7295.39694,-0.00851
7297.32541,-0.04104
7299.25387,-0.07589
7301.18234,-0.09277
7303.11081,-0.09191
7305.03928,-0.05388
7306.96775,0.08812
7308.89622,0.16384
7310.82469,0.07809
7312.75316,0.03681
7314.68162,0.07371
7316.61009,0.15785
7318.53856,0.22236
7320.46703,0.22436
7322.39550,0.15046
7324.32397,0.06483
7326.25244,0.06055
7328.18090,0.07678
7330.10937,-0.01540
7332.03784,-0.17249
7333.96631,-0.13748
7335.89478,0.03383
7337.82325,0.05975
7339.75172,-0.08082
7341.68019,-0.16946
7343.60865,-0.23653
7345.53712,-0.27059
7347.46559,-0.12896
7349.39406,0.10799
7351.32253,0.28051
7353.25100,0.38706
7355.17947,0.44759
7357.10793,0.26272
7359.03640,-0.07653
7360.96487,-0.13927
7362.89334,-0.04802
7364.82181,0.04710
7366.75028,0.07407
7368.67875,0.00131
7370.60722,0.01061
7372.53568,0.13520
7374.46415,0.27127
7376.39262,0.25740
7378.32109,0.14461
7380.24956,0.15404
7382.17803,0.25736
7384.10650,0.18683
7386.03496,-0.05332
7387.96343,-0.20672
7389.89190,-0.23325
7391.82037,-0.23173
7393.74884,-0.17358
7395.67731,0.02833
7397.60578,0.22235
7399.53425,0.28561
7401.46271,0.28957
7403.39118,0.25636
7405.31965,0.28235
7407.24812,0.29611
7409.17659,0.12913
7411.10506,-0.07378
7413.03353,-0.12727
7414.96199,-0.05816
7416.89046,0.03057
7418.81893,0.15158
7420.74740,0.30828
7422.67587,0.34028
7424.60434,0.28354
7426.53281,0.19310
7428.46128,0.12842
7430.38974,0.16624
7432.31821,0.19588
7434.24668,0.13125
7436.17515,0.08957
7438.10362,0.12385
7440.03209,0.08371
7441.96056,-0.03766
7443.88902,-0.02490
7445.81749,0.08362
7447.74596,0.19762
7449.67443,0.35045
7451.60290,0.38719
7453.53137,0.27743
7455.45984,0.24071
7457.38831,0.22288
7459.31677,0.08316
7461.24524,-0.04158
7463.17371,-0.00901
7465.10218,0.04303
7467.03065,0.11807
7468.95912,0.20514
7470.88759,0.24457
7472.81605,0.29233
7474.74452,0.32516
7476.67299,0.25841
7478.60146,0.12257
7480.52993,0.02411
7482.45840,0.04848
7484.38687,0.21269
7486.31533,0.45579
7488.24380,0.52268
7490.17227,0.29061
7492.10074,0.07487
7494.02921,-0.00446
7495.95768,-0.12441
7497.88615,-0.27417
