399.19301,10.00396
401.12148,1.08205
403.04995,0.25408
404.97842,0.19963
406.90689,0.29701
408.83536,0.35127
410.76382,0.24150
412.69229,0.06008
414.62076,-0.05134
416.54923,-0.13063
418.47770,-0.15456
420.40617,-0.12271
422.33464,-0.14511
424.26311,-0.18207
426.19157,-0.14779
428.12004,-0.07554
430.04851,-0.01716
431.97698,0.04616
433.90545,0.12130
435.83392,0.14345
437.76239,0.11700
439.69085,0.13188
441.61932,0.16257
443.54779,0.13844
445.47626,0.08934
447.40473,0.04461
449.33320,0.01758
451.26167,0.03186
453.19013,0.04483
455.11860,0.00949
457.04707,0.03278
458.97554,0.13547
460.90401,0.15019
462.83248,0.09895
464.76095,0.11269
466.68942,0.17317
468.61788,0.19246
470.54635,0.15869
472.47482,0.01272
474.40329,-0.18677
476.33176,-0.12637
478.26023,0.00444
480.18870,0.04516
482.11716,0.03765
484.04563,0.05287
485.97410,0.10603
487.90257,0.16590
489.83104,0.19127
491.75951,0.17342
493.68798,0.13657
495.61645,0.10790
497.54491,0.08342
499.47338,0.07869
501.40185,0.10580
503.33032,0.10811
505.25879,0.06457
507.18726,0.05393
509.11573,0.09384
511.04419,0.10224
512.97266,0.08980
514.90113,0.11274
516.82960,0.14698
518.75807,0.11960
520.68654,0.06141
522.61501,0.06691
524.54348,0.11570
526.47194,0.11939
528.40041,0.09138
530.32888,0.06677
532.25735,0.05129
534.18582,0.08001
536.11429,0.13395
538.04276,0.14959
539.97122,0.15128
541.89969,0.16058
543.82816,0.14308
545.75663,0.11227
547.68510,0.11443
549.61357,0.14866
551.54204,0.14154
553.47051,0.06938
555.39897,0.02561
557.32744,0.04051
559.25591,0.05995
561.18438,0.07801
563.11285,0.10828
565.04132,0.14068
566.96979,0.14864
568.89825,0.13578
570.82672,0.12251
572.75519,0.09869
574.68366,0.07119
576.61213,0.07355
578.54060,0.10347
580.46907,0.12387
582.39754,0.12559
584.32600,0.12226
586.25447,0.11363
588.18294,0.10067
590.11141,0.08925
592.03988,0.08313
593.96835,0.08689
595.89682,0.09258
597.82528,0.08524
599.75375,0.08259
601.68222,0.10396
603.61069,0.13193
605.53916,0.14885
607.46763,0.14539
609.39610,0.13317
611.32456,0.12508
613.25303,0.10661
615.18150,0.09116
617.10997,0.09913
619.03844,0.10889
620.96691,0.10415
622.89538,0.09648
624.82385,0.10614
626.75231,0.13391
628.68078,0.15319
630.60925,0.14928
632.53772,0.14017
634.46619,0.14100
636.39466,0.14192
638.32313,0.13855
640.25159,0.13306
642.18006,0.11885
644.10853,0.10379
646.03700,0.10786
647.96547,0.12442
649.89394,0.12758
651.82241,0.11605
653.75088,0.10690
655.67934,0.11056
657.60781,0.12357
659.53628,0.13371
661.46475,0.13481
663.39322,0.12916
665.32169,0.12941
667.25016,0.14414
669.17862,0.14373
671.10709,0.12227
673.03556,0.11495
674.96403,0.11521
676.89250,0.10590
678.82097,0.09020
680.74944,0.08272
682.67791,0.08882
684.60637,0.09511
686.53484,0.09376
688.46331,0.10473
690.39178,0.12868
692.32025,0.14507
694.24872,0.14920
696.17719,0.13862
698.10565,0.11864
700.03412,0.11324
701.96259,0.12765
703.89106,0.14207
705.81953,0.15460
707.74800,0.17208
709.67647,0.17179
711.60494,0.14398
713.53340,0.12878
715.46187,0.14172
717.39034,0.14645
719.31881,0.13523
721.24728,0.12397
723.17575,0.11777
725.10422,0.11942
727.03268,0.12036
728.96115,0.11736
730.88962,0.11944
732.81809,0.12417
734.74656,0.12622
736.67503,0.12976
738.60350,0.13613
740.53197,0.14190
742.46043,0.14506
744.38890,0.14681
746.31737,0.14848
748.24584,0.14289
750.17431,0.13279
752.10278,0.12962
754.03125,0.12697
755.95971,0.12318
757.88818,0.12938
759.81665,0.14171
761.74512,0.14712
763.67359,0.14456
765.60206,0.14048
767.53053,0.13871
769.45900,0.14246
771.38746,0.14548
773.31593,0.14275
775.24440,0.14085
777.17287,0.13532
779.10134,0.12413
781.02981,0.12158
782.95828,0.12524
784.88674,0.12183
786.81521,0.11460
788.74368,0.10982
790.67215,0.11117
792.60062,0.12505
794.52909,0.14488
796.45756,0.15431
798.38602,0.15579
800.31449,0.15670
802.24296,0.15202
804.17143,0.14769
806.09990,0.14949
808.02837,0.14789
809.95684,0.14355
811.88531,0.14651
813.81377,0.15402
815.74224,0.15115
817.67071,0.14051
819.59918,0.13963
821.52765,0.14518
823.45612,0.15242
825.38459,0.16330
827.31305,0.16569
829.24152,0.15749
831.16999,0.15183
833.09846,0.15292
835.02693,0.14965
836.95540,0.13526
838.88387,0.12597
840.81234,0.13153
842.74080,0.14222
844.66927,0.15145
846.59774,0.15740
848.52621,0.15948
850.45468,0.16193
852.38315,0.16626
854.31162,0.16549
856.24008,0.15762
858.16855,0.15375
860.09702,0.15446
862.02549,0.14966
863.95396,0.14861
865.88243,0.15650
867.81090,0.15576
869.73937,0.14597
871.66783,0.14764
873.59630,0.16030
875.52477,0.16422
877.45324,0.15534
879.38171,0.14145
881.31018,0.12897
883.23865,0.12525
885.16711,0.13121
887.09558,0.13772
889.02405,0.13973
890.95252,0.14153
892.88099,0.14167
894.80946,0.13864
896.73793,0.13948
898.66640,0.14529
900.59486,0.15093
902.52333,0.15323
904.45180,0.14993
906.38027,0.14280
908.30874,0.13757
910.23721,0.13703
912.16568,0.13884
914.09414,0.13657
916.02261,0.13269
917.95108,0.13751
919.87955,0.14461
921.80802,0.14594
923.73649,0.15123
925.66496,0.15765
927.59343,0.15167
929.52189,0.14118
931.45036,0.13958
933.37883,0.14709
935.30730,0.15669
937.23577,0.15560
939.16424,0.14494
941.09271,0.14214
943.02117,0.14840
944.94964,0.15291
946.87811,0.15181
948.80658,0.14723
950.73505,0.14883
952.66352,0.15482
954.59199,0.14831
956.52045,0.13232
958.44892,0.12471
960.37739,0.12544
962.30586,0.13163
964.23433,0.14534
966.16280,0.15397
968.09127,0.15184
970.01974,0.14866
971.94820,0.14767
973.87667,0.14715
975.80514,0.14559
977.73361,0.14461
979.66208,0.14436
981.59055,0.14590
983.51902,0.15358
985.44748,0.16144
987.37595,0.16131
989.30442,0.15419
991.23289,0.14986
993.16136,0.15353
995.08983,0.15544
997.01830,0.15529
998.94677,0.16177
1000.87523,0.16681
1002.80370,0.16290
1004.73217,0.15738
1006.66064,0.15508
1008.58911,0.15363
1010.51758,0.15100
1012.44605,0.14981
1014.37451,0.15084
1016.30298,0.14905
1018.23145,0.14520
1020.15992,0.14671
1022.08839,0.15350
1024.01686,0.15739
1025.94533,0.15957
1027.87380,0.16626
1029.80226,0.16769
1031.73073,0.15700
1033.65920,0.15224
1035.58767,0.15970
1037.51614,0.16384
1039.44461,0.16281
1041.37308,0.16226
1043.30154,0.16275
1045.23001,0.16584
1047.15848,0.16792
1049.08695,0.16251
1051.01542,0.15327
1052.94389,0.14751
1054.87236,0.14372
1056.80083,0.14441
1058.72929,0.15379
1060.65776,0.16410
1062.58623,0.16957
1064.51470,0.16952
1066.44317,0.16374
1068.37164,0.16276
1070.30011,0.17228
1072.22857,0.17967
1074.15704,0.17999
1076.08551,0.17668
1078.01398,0.17184
1079.94245,0.16803
1081.87092,0.16382
1083.79939,0.16309
1085.72786,0.16612
1087.65632,0.16577
1089.58479,0.16161
1091.51326,0.15639
1093.44173,0.15338
1095.37020,0.15681
1097.29867,0.16593
1099.22714,0.17189
1101.15560,0.17177
1103.08407,0.17117
1105.01254,0.17526
1106.94101,0.18470
1108.86948,0.18858
1110.79795,0.18026
1112.72642,0.17028
1114.65489,0.16797
1116.58335,0.17007
1118.51182,0.16836
1120.44029,0.16355
1122.36876,0.16284
1124.29723,0.16367
1126.22570,0.16253
1128.15417,0.16611
1130.08263,0.17107
1132.01110,0.16628
1133.93957,0.15820
1135.86804,0.15843
1137.79651,0.16033
1139.72498,0.15608
1141.65345,0.15301
1143.58191,0.15638
1145.51038,0.16148
1147.43885,0.16382
1149.36732,0.16273
1151.29579,0.15901
1153.22426,0.15792
1155.15273,0.16247
1157.08120,0.16645
1159.00966,0.16816
1160.93813,0.16980
1162.86660,0.16713
1164.79507,0.16126
1166.72354,0.16212
1168.65201,0.16992
1170.58048,0.17368
1172.50894,0.16970
1174.43741,0.16355
1176.36588,0.16244
1178.29435,0.16684
1180.22282,0.16905
1182.15129,0.16603
1184.07976,0.15846
1186.00823,0.14516
1187.93669,0.13625
1189.86516,0.14194
1191.79363,0.15249
1193.72210,0.15742
1195.65057,0.15703
1197.57904,0.15594
1199.50751,0.15929
1201.43597,0.16583
1203.36444,0.17064
1205.29291,0.16871
1207.22138,0.16339
1209.14985,0.16520
1211.07832,0.17225
1213.00679,0.17487
1214.93526,0.17187
1216.86372,0.16800
1218.79219,0.16606
1220.72066,0.16391
1222.64913,0.16019
1224.57760,0.15996
1226.50607,0.16289
1228.43454,0.16296
1230.36300,0.16179
1232.29147,0.16179
1234.21994,0.16240
1236.14841,0.16304
1238.07688,0.16259
1240.00535,0.16235
1241.93382,0.16460
1243.86229,0.16776
1245.79075,0.16768
1247.71922,0.16541
1249.64769,0.16507
1251.57616,0.16499
1253.50463,0.16236
1255.43310,0.16063
1257.36157,0.16132
1259.29003,0.16099
1261.21850,0.16198
1263.14697,0.16539
1265.07544,0.16514
1267.00391,0.16251
1268.93238,0.16503
1270.86085,0.17036
1272.78932,0.16887
1274.71778,0.16173
1276.64625,0.16053
1278.57472,0.16651
1280.50319,0.16740
1282.43166,0.16261
1284.36013,0.16264
1286.28860,0.16384
1288.21706,0.16246
1290.14553,0.16386
1292.07400,0.16680
1294.00247,0.16875
1295.93094,0.16730
1297.85941,0.15912
1299.78788,0.14580
1301.71634,0.12932
1303.64481,0.11573
1305.57328,0.12131
1307.50175,0.14754
1309.43022,0.16892
1311.35869,0.17540
1313.28716,0.17899
1315.21563,0.17936
1317.14409,0.17397
1319.07256,0.16781
1321.00103,0.16366
1322.92950,0.16393
1324.85797,0.16403
1326.78644,0.16022
1328.71491,0.15939
1330.64337,0.16039
1332.57184,0.16145
1334.50031,0.16556
1336.42878,0.16654
1338.35725,0.16265
1340.28572,0.15603
1342.21419,0.15441
1344.14266,0.16648
1346.07112,0.17789
1347.99959,0.17580
1349.92806,0.16897
1351.85653,0.16538
1353.78500,0.16475
1355.71347,0.16722
1357.64194,0.17347
1359.57040,0.18044
1361.49887,0.18469
1363.42734,0.18300
1365.35581,0.17575
1367.28428,0.17064
1369.21275,0.17331
1371.14122,0.18016
1373.06969,0.18445
1374.99815,0.18417
1376.92662,0.18155
1378.85509,0.18017
1380.78356,0.18145
1382.71203,0.18221
1384.64050,0.18004
1386.56897,0.17833
1388.49743,0.17928
1390.42590,0.18095
1392.35437,0.18271
1394.28284,0.18218
1396.21131,0.17960
1398.13978,0.17846
1400.06825,0.17758
1401.99672,0.17897
1403.92518,0.18372
1405.85365,0.18662
1407.78212,0.18563
1409.71059,0.18403
1411.63906,0.18381
1413.56753,0.18629
1415.49600,0.19073
1417.42446,0.19493
1419.35293,0.19239
1421.28140,0.18292
1423.20987,0.17734
1425.13834,0.17750
1427.06681,0.17964
1428.99528,0.18139
1430.92375,0.18195
1432.85221,0.18528
1434.78068,0.19349
1436.70915,0.19605
1438.63762,0.18688
1440.56609,0.18015
1442.49456,0.17931
1444.42303,0.18249
1446.35149,0.18812
1448.27996,0.18953
1450.20843,0.18441
1452.13690,0.18119
1454.06537,0.18385
1455.99384,0.19388
1457.92231,0.20433
1459.85077,0.20044
1461.77924,0.19707
1463.70771,0.20021
1465.63618,0.20049
1467.56465,0.19463
1469.49312,0.19217
1471.42159,0.19500
1473.35006,0.19898
1475.27852,0.19752
1477.20699,0.19160
1479.13546,0.18769
1481.06393,0.18711
1482.99240,0.18744
1484.92087,0.19076
1486.84934,0.19896
1488.77780,0.20683
1490.70627,0.20411
1492.63474,0.19708
1494.56321,0.19752
1496.49168,0.20246
1498.42015,0.20035
1500.34862,0.18680
1502.27709,0.15816
1504.20555,0.11709
1506.13402,0.10442
1508.06249,0.17569
1509.99096,0.20790
1511.91943,0.20542
1513.84790,0.20843
1515.77637,0.21748
1517.70483,0.22181
1519.63330,0.22099
1521.56177,0.22344
1523.49024,0.22476
1525.41871,0.21936
1527.34718,0.20978
1529.27565,0.20053
1531.20412,0.19613
1533.13258,0.19459
1535.06105,0.19496
1536.98952,0.20202
1538.91799,0.21779
1540.84646,0.23481
1542.77493,0.23488
1544.70340,0.22235
1546.63186,0.20831
1548.56033,0.20168
1550.48880,0.20124
1552.41727,0.20112
1554.34574,0.20042
1556.27421,0.20739
1558.20268,0.22654
1560.13115,0.22013
1562.05961,0.20315
1563.98808,0.19646
1565.91655,0.19209
1567.84502,0.19044
1569.77349,0.19185
1571.70196,0.19275
1573.63043,0.19714
1575.55889,0.20285
1577.48736,0.19595
1579.41583,0.18489
1581.34430,0.18116
1583.27277,0.18167
1585.20124,0.18099
1587.12971,0.17781
1589.05818,0.17516
1590.98664,0.17676
1592.91511,0.18173
1594.84358,0.18441
1596.77205,0.18038
1598.70052,0.17492
1600.62899,0.17499
1602.55746,0.17768
1604.48592,0.17889
1606.41439,0.17937
1608.34286,0.17898
1610.27133,0.17952
1612.19980,0.18354
1614.12827,0.19068
1616.05674,0.19828
1617.98521,0.19774
1619.91367,0.19504
1621.84214,0.19780
1623.77061,0.20005
1625.69908,0.19982
1627.62755,0.20107
1629.55602,0.20125
1631.48449,0.20262
1633.41295,0.21261
1635.34142,0.22786
1637.26989,0.22274
1639.19836,0.20756
1641.12683,0.19922
1643.05530,0.19995
1644.98377,0.21146
1646.91223,0.22674
1648.84070,0.22808
1650.76917,0.22857
1652.69764,0.23753
1654.62611,0.22917
1656.55458,0.21466
1658.48305,0.20974
1660.41152,0.21205
1662.33998,0.21666
1664.26845,0.21495
1666.19692,0.21275
1668.12539,0.21864
1670.05386,0.22229
1671.98233,0.21378
1673.91080,0.20862
1675.83926,0.20765
1677.76773,0.20526
1679.69620,0.20904
1681.62467,0.22497
1683.55314,0.24195
1685.48161,0.22820
1687.41008,0.20811
1689.33855,0.19987
1691.26701,0.19730
1693.19548,0.19911
1695.12395,0.20845
1697.05242,0.22262
1698.98089,0.22855
1700.90936,0.22095
1702.83783,0.21314
1704.76629,0.21151
1706.69476,0.20734
1708.62323,0.19858
1710.55170,0.19232
1712.48017,0.19302
1714.40864,0.20053
1716.33711,0.20676
1718.26558,0.20062
1720.19404,0.19314
1722.12251,0.19231
1724.05098,0.19263
1725.97945,0.19053
1727.90792,0.18958
1729.83639,0.19230
1731.76486,0.19912
1733.69332,0.20564
1735.62179,0.20265
1737.55026,0.20126
1739.47873,0.20579
1741.40720,0.20782
1743.33567,0.20495
1745.26414,0.20249
1747.19261,0.20367
1749.12107,0.20617
1751.04954,0.20204
1752.97801,0.19359
1754.90648,0.18777
1756.83495,0.18564
1758.76342,0.18795
1760.69189,0.19277
1762.62035,0.19479
1764.54882,0.19380
1766.47729,0.19580
1768.40576,0.20273
1770.33423,0.20995
1772.26270,0.20890
1774.19117,0.20068
1776.11964,0.19647
1778.04810,0.19787
1779.97657,0.20096
1781.90504,0.20148
1783.83351,0.20029
1785.76198,0.19835
1787.69045,0.19694
1789.61892,0.19901
1791.54738,0.20233
1793.47585,0.20038
1795.40432,0.19570
1797.33279,0.19494
1799.26126,0.19879
1801.18973,0.20041
1803.11820,0.19514
1805.04666,0.18956
1806.97513,0.18783
1808.90360,0.18899
1810.83207,0.19120
1812.76054,0.19197
1814.68901,0.19235
1816.61748,0.19194
1818.54595,0.18880
1820.47441,0.18589
1822.40288,0.18684
1824.33135,0.18970
1826.25982,0.19034
1828.18829,0.19245
1830.11676,0.19692
1832.04523,0.19612
1833.97369,0.19400
1835.90216,0.19526
1837.83063,0.19490
1839.75910,0.19230
1841.68757,0.19325
1843.61604,0.19684
1845.54451,0.19731
1847.47298,0.19585
1849.40144,0.19311
1851.32991,0.18847
1853.25838,0.18615
1855.18685,0.18676
1857.11532,0.18754
1859.04379,0.18859
1860.97226,0.18971
1862.90072,0.19135
1864.82919,0.19470
1866.75766,0.19945
1868.68613,0.20140
1870.61460,0.19601
1872.54307,0.18976
1874.47154,0.18910
1876.40001,0.19299
1878.32847,0.19527
1880.25694,0.19345
1882.18541,0.19105
1884.11388,0.18939
1886.04235,0.18808
1887.97082,0.18777
1889.89929,0.18674
1891.82775,0.18648
1893.75622,0.18997
1895.68469,0.19245
1897.61316,0.19072
1899.54163,0.18946
1901.47010,0.19119
1903.39857,0.19272
1905.32704,0.19140
1907.25550,0.18973
1909.18397,0.18917
1911.11244,0.18796
1913.04091,0.18743
1914.96938,0.18986
1916.89785,0.19334
1918.82632,0.19528
1920.75478,0.19639
1922.68325,0.19593
1924.61172,0.19222
1926.54019,0.18794
1928.46866,0.18640
1930.39713,0.18774
1932.32560,0.18941
1934.25407,0.18974
1936.18253,0.19002
1938.11100,0.19097
1940.03947,0.19193
1941.96794,0.19340
1943.89641,0.19406
1945.82488,0.19160
1947.75335,0.18814
1949.68181,0.18698
1951.61028,0.18735
1953.53875,0.18738
1955.46722,0.18878
1957.39569,0.19171
1959.32416,0.19313
1961.25263,0.19259
1963.18110,0.19210
1965.10956,0.19358
1967.03803,0.19631
1968.96650,0.19707
1970.89497,0.19551
1972.82344,0.19407
1974.75191,0.19415
1976.68038,0.19511
1978.60884,0.19546
1980.53731,0.19480
1982.46578,0.19264
1984.39425,0.18970
1986.32272,0.18873
1988.25119,0.18925
1990.17966,0.19058
1992.10812,0.19256
1994.03659,0.19200
1995.96506,0.19033
1997.89353,0.19051
1999.82200,0.19030
2001.75047,0.18846
2003.67894,0.18668
2005.60741,0.18720
2007.53587,0.19104
2009.46434,0.19437
2011.39281,0.19434
2013.32128,0.19449
2015.24975,0.19642
2017.17822,0.19630
2019.10669,0.19224
2021.03515,0.18722
2022.96362,0.18509
2024.89209,0.18715
2026.82056,0.19036
2028.74903,0.19154
2030.67750,0.19069
2032.60597,0.18872
2034.53444,0.18705
2036.46290,0.18661
2038.39137,0.18870
2040.31984,0.19297
2042.24831,0.19458
2044.17678,0.19372
2046.10525,0.19457
2048.03372,0.19562
2049.96218,0.19506
2051.89065,0.19383
2053.81912,0.19176
2055.74759,0.18943
2057.67606,0.18818
2059.60453,0.18734
2061.53300,0.18708
2063.46147,0.18797
2065.38993,0.18870
2067.31840,0.18915
2069.24687,0.18975
2071.17534,0.19004
2073.10381,0.19039
2075.03228,0.19084
2076.96075,0.19174
2078.88921,0.19378
2080.81768,0.19503
2082.74615,0.19499
2084.67462,0.19574
2086.60309,0.19621
2088.53156,0.19483
2090.46003,0.19353
2092.38850,0.19385
2094.31696,0.19431
2096.24543,0.19335
2098.17390,0.19279
2100.10237,0.19305
2102.03084,0.19115
2103.95931,0.18856
2105.88778,0.18857
2107.81624,0.18982
2109.74471,0.19017
2111.67318,0.19042
2113.60165,0.19132
2115.53012,0.19010
2117.45859,0.18669
2119.38706,0.18601
2121.31553,0.18847
2123.24399,0.19058
2125.17246,0.19187
2127.10093,0.19227
2129.02940,0.19139
2130.95787,0.19159
2132.88634,0.19363
2134.81481,0.19372
2136.74327,0.19033
2138.67174,0.18792
2140.60021,0.18875
2142.52868,0.18945
2144.45715,0.18863
2146.38562,0.18841
2148.31409,0.18946
2150.24255,0.18944
2152.17102,0.18857
2154.09949,0.19065
2156.02796,0.19393
2157.95643,0.19442
2159.88490,0.19469
2161.81337,0.19769
2163.74184,0.20004
2165.67030,0.19786
2167.59877,0.19328
2169.52724,0.19155
2171.45571,0.19405
2173.38418,0.19640
2175.31265,0.19573
2177.24112,0.19452
2179.16958,0.19465
2181.09805,0.19592
2183.02652,0.19685
2184.95499,0.19485
2186.88346,0.19187
2188.81193,0.19158
2190.74040,0.19155
2192.66887,0.18889
2194.59733,0.18674
2196.52580,0.18736
2198.45427,0.18855
2200.38274,0.18972
2202.31121,0.19066
2204.23968,0.18940
2206.16815,0.18752
2208.09661,0.18855
2210.02508,0.19102
2211.95355,0.19208
2213.88202,0.19315
2215.81049,0.19564
2217.73896,0.19722
2219.66743,0.19553
2221.59590,0.19228
2223.52436,0.19053
2225.45283,0.19091
2227.38130,0.19165
2229.30977,0.19157
2231.23824,0.19177
2233.16671,0.19200
2235.09518,0.19192
2237.02364,0.19264
2238.95211,0.19261
2240.88058,0.19016
2242.80905,0.18797
2244.73752,0.18908
2246.66599,0.19191
2248.59446,0.19294
2250.52293,0.19168
2252.45139,0.19061
2254.37986,0.19159
2256.30833,0.19358
2258.23680,0.19364
2260.16527,0.19145
2262.09374,0.19014
2264.02221,0.19103
2265.95067,0.19208
2267.87914,0.19189
2269.80761,0.19153
2271.73608,0.19204
2273.66455,0.19282
2275.59302,0.19288
2277.52149,0.19284
2279.44996,0.19382
2281.37842,0.19463
2283.30689,0.19365
2285.23536,0.19103
2287.16383,0.18848
2289.09230,0.18781
2291.02077,0.18857
2292.94924,0.18621
2294.87770,0.17947
2296.80617,0.17731
2298.73464,0.18360
2300.66311,0.18994
2302.59158,0.19147
2304.52005,0.19080
2306.44852,0.18967
2308.37699,0.18640
2310.30545,0.18069
2312.23392,0.17750
2314.16239,0.17997
2316.09086,0.18341
2318.01933,0.18438
2319.94780,0.18472
2321.87627,0.18404
2323.80473,0.18261
2325.73320,0.18275
2327.66167,0.18121
2329.59014,0.17775
2331.51861,0.17863
2333.44708,0.18283
2335.37555,0.18442
2337.30401,0.18361
2339.23248,0.18326
2341.16095,0.18193
2343.08942,0.18072
2345.01789,0.18269
2346.94636,0.18439
2348.87483,0.18581
2350.80330,0.18717
2352.73176,0.18390
2354.66023,0.17401
2356.58870,0.16919
2358.51717,0.17946
2360.44564,0.19017
2362.37411,0.19421
2364.30258,0.20493
2366.23104,0.21050
2368.15951,0.19966
2370.08798,0.19164
2372.01645,0.18953
2373.94492,0.18336
2375.87339,0.17857
2377.80186,0.17924
2379.73033,0.18222
2381.65879,0.18645
2383.58726,0.18968
2385.51573,0.18928
2387.44420,0.18812
2389.37267,0.18903
2391.30114,0.19079
2393.22961,0.19237
2395.15807,0.19175
2397.08654,0.18834
2399.01501,0.18596
2400.94348,0.18639
2402.87195,0.18775
2404.80042,0.18942
2406.72889,0.19289
2408.65736,0.19638
2410.58582,0.19676
2412.51429,0.19470
2414.44276,0.19151
2416.37123,0.18873
2418.29970,0.18830
2420.22817,0.18992
2422.15664,0.19220
2424.08510,0.19321
2426.01357,0.19082
2427.94204,0.18775
2429.87051,0.18906
2431.79898,0.19306
2433.72745,0.19482
2435.65592,0.19374
2437.58439,0.19281
2439.51285,0.19406
2441.44132,0.19493
2443.36979,0.19363
2445.29826,0.19361
2447.22673,0.19510
2449.15520,0.19402
2451.08367,0.19107
2453.01213,0.19139
2454.94060,0.19525
2456.86907,0.19697
2458.79754,0.19553
2460.72601,0.19382
2462.65448,0.19276
2464.58295,0.19284
2466.51142,0.19260
2468.43988,0.18969
2470.36835,0.18696
2472.29682,0.18877
2474.22529,0.19178
2476.15376,0.19208
2478.08223,0.19185
2480.01070,0.19170
2481.93916,0.19100
2483.86763,0.19117
2485.79610,0.19212
2487.72457,0.19354
2489.65304,0.19620
2491.58151,0.19665
2493.50998,0.19281
2495.43844,0.18977
2497.36691,0.19022
2499.29538,0.19059
2501.22385,0.18843
2503.15232,0.18705
2505.08079,0.18879
2507.00926,0.19080
2508.93773,0.19193
2510.86619,0.19273
2512.79466,0.19319
2514.72313,0.19320
2516.65160,0.19266
2518.58007,0.19358
2520.50854,0.19597
2522.43701,0.19688
2524.36547,0.19656
2526.29394,0.19579
2528.22241,0.19431
2530.15088,0.19319
2532.07935,0.19249
2534.00782,0.19109
2535.93629,0.18917
2537.86476,0.18872
2539.79322,0.19001
2541.72169,0.19093
2543.65016,0.19151
2545.57863,0.19283
2547.50710,0.19455
2549.43557,0.19543
2551.36404,0.19547
2553.29250,0.19545
2555.22097,0.19397
2557.14944,0.19211
2559.07791,0.19330
2561.00638,0.19655
2562.93485,0.19872
2564.86332,0.19760
2566.79179,0.19359
2568.72025,0.19099
2570.64872,0.19133
2572.57719,0.19289
2574.50566,0.19500
2576.43413,0.19580
2578.36260,0.19634
2580.29107,0.19840
2582.21953,0.19845
2584.14800,0.19530
2586.07647,0.19174
2588.00494,0.19049
2589.93341,0.19247
2591.86188,0.19539
2593.79035,0.19632
2595.71882,0.19539
2597.64728,0.19427
2599.57575,0.19409
2601.50422,0.19640
2603.43269,0.19989
2605.36116,0.20084
2607.28963,0.19795
2609.21810,0.19586
2611.14656,0.20016
2613.07503,0.20569
2615.00350,0.20494
2616.93197,0.20108
2618.86044,0.19989
2620.78891,0.20025
2622.71738,0.19947
2624.64585,0.19853
2626.57431,0.19834
2628.50278,0.19894
2630.43125,0.19982
2632.35972,0.20001
2634.28819,0.19797
2636.21666,0.19450
2638.14513,0.19496
2640.07359,0.19968
2642.00206,0.20310
2643.93053,0.20279
2645.85900,0.19963
2647.78747,0.19603
2649.71594,0.19465
2651.64441,0.19693
2653.57288,0.20182
2655.50134,0.20511
2657.42981,0.20411
2659.35828,0.20063
2661.28675,0.19829
2663.21522,0.19720
2665.14369,0.19337
2667.07216,0.18931
2669.00062,0.19165
2670.92909,0.19677
2672.85756,0.19859
2674.78603,0.19840
2676.71450,0.19735
2678.64297,0.19611
2680.57144,0.19746
2682.49990,0.20066
2684.42837,0.20198
2686.35684,0.20230
2688.28531,0.20310
2690.21378,0.20084
2692.14225,0.19779
2694.07072,0.19939
2695.99919,0.20151
2697.92765,0.20127
2699.85612,0.20112
2701.78459,0.19989
2703.71306,0.19763
2705.64153,0.19617
2707.57000,0.19546
2709.49847,0.19601
2711.42693,0.19660
2713.35540,0.19650
2715.28387,0.19850
2717.21234,0.20291
2719.14081,0.20617
2721.06928,0.20555
2722.99775,0.20395
2724.92622,0.20387
2726.85468,0.20292
2728.78315,0.20052
2730.71162,0.19827
2732.64009,0.19937
2734.56856,0.20383
2736.49703,0.20668
2738.42550,0.20638
2740.35396,0.20433
2742.28243,0.20287
2744.21090,0.20234
2746.13937,0.19923
2748.06784,0.19550
2749.99631,0.19711
2751.92478,0.20113
2753.85325,0.20184
2755.78171,0.20225
2757.71018,0.20481
2759.63865,0.20670
2761.56712,0.20731
2763.49559,0.20743
2765.42406,0.20699
2767.35253,0.20737
2769.28099,0.20758
2771.20946,0.20547
2773.13793,0.20522
2775.06640,0.20763
2776.99487,0.20760
2778.92334,0.20738
2780.85181,0.20944
2782.78028,0.20951
2784.70874,0.20692
2786.63721,0.20483
2788.56568,0.20267
2790.49415,0.19973
2792.42262,0.19889
2794.35109,0.20121
2796.27956,0.20463
2798.20802,0.20513
2800.13649,0.20134
2802.06496,0.20007
2803.99343,0.20492
2805.92190,0.20953
2807.85037,0.21093
2809.77884,0.21243
2811.70731,0.21449
2813.63577,0.21510
2815.56424,0.21292
2817.49271,0.21031
2819.42118,0.21135
2821.34965,0.21363
2823.27812,0.21300
2825.20659,0.20962
2827.13505,0.20545
2829.06352,0.20399
2830.99199,0.20720
2832.92046,0.21189
2834.84893,0.21437
2836.77740,0.21593
2838.70587,0.21639
2840.63433,0.21295
2842.56280,0.20842
2844.49127,0.20727
2846.41974,0.20958
2848.34821,0.21116
2850.27668,0.20722
2852.20515,0.20044
2854.13362,0.19948
2856.06208,0.20578
2857.99055,0.21042
2859.91902,0.20756
2861.84749,0.20296
2863.77596,0.20464
2865.70443,0.20956
2867.63290,0.21076
2869.56136,0.21053
2871.48983,0.21240
2873.41830,0.21313
2875.34677,0.21056
2877.27524,0.20776
2879.20371,0.20855
2881.13218,0.21192
2883.06065,0.21256
2884.98911,0.20957
2886.91758,0.20755
2888.84605,0.20818
2890.77452,0.20893
2892.70299,0.20764
2894.63146,0.20502
2896.55993,0.20444
2898.48839,0.20692
2900.41686,0.20847
2902.34533,0.20458
2904.27380,0.19625
2906.20227,0.19100
2908.13074,0.19332
2910.05921,0.19877
2911.98768,0.20276
2913.91614,0.20215
2915.84461,0.19557
2917.77308,0.19221
2919.70155,0.19696
2921.63002,0.20095
2923.55849,0.19675
2925.48696,0.18574
2927.41542,0.18242
2929.34389,0.19466
2931.27236,0.20775
2933.20083,0.21001
2935.12930,0.20104
2937.05777,0.18912
2938.98624,0.18948
2940.91471,0.20042
2942.84317,0.20781
2944.77164,0.20454
2946.70011,0.19418
2948.62858,0.19182
2950.55705,0.19964
2952.48552,0.20337
2954.41399,0.19702
2956.34245,0.18266
2958.27092,0.17487
2960.19939,0.18581
2962.12786,0.20274
2964.05633,0.21022
2965.98480,0.20475
2967.91327,0.19643
2969.84174,0.20103
2971.77020,0.21218
2973.69867,0.21420
2975.62714,0.20634
2977.55561,0.19749
2979.48408,0.19923
2981.41255,0.20923
2983.34102,0.21573
2985.26948,0.21569
2987.19795,0.20818
2989.12642,0.20008
2991.05489,0.20329
2992.98336,0.21324
2994.91183,0.21643
2996.84030,0.21189
2998.76877,0.21029
3000.69723,0.21501
3002.62570,0.21735
3004.55417,0.21116
3006.48264,0.20098
3008.41111,0.19377
3010.33958,0.18650
3012.26805,0.16553
3014.19651,0.12649
3016.12498,0.09791
3018.05345,0.11749
3019.98192,0.17126
3021.91039,0.20892
3023.83886,0.21702
3025.76733,0.21280
3027.69579,0.20567
3029.62426,0.20242
3031.55273,0.20739
3033.48120,0.21357
3035.40967,0.21368
3037.33814,0.20928
3039.26661,0.20669
3041.19508,0.20697
3043.12354,0.20493
3045.05201,0.19969
3046.98048,0.19518
3048.90895,0.19732
3050.83742,0.20583
3052.76589,0.21127
3054.69436,0.20753
3056.62282,0.19823
3058.55129,0.19667
3060.47976,0.20571
3062.40823,0.21115
3064.33670,0.20413
3066.26517,0.19475
3068.19364,0.20052
3070.12211,0.21401
3072.05057,0.21602
3073.97904,0.20404
3075.90751,0.19122
3077.83598,0.19358
3079.76445,0.20432
3081.69292,0.20581
3083.62139,0.19348
3085.54985,0.18510
3087.47832,0.20035
3089.40679,0.21621
3091.33526,0.20770
3093.26373,0.19101
3095.19220,0.18805
3097.12067,0.20023
3099.04914,0.21369
3100.97760,0.21472
3102.90607,0.20194
3104.83454,0.19272
3106.76301,0.19847
3108.69148,0.20664
3110.61995,0.20313
3112.54842,0.19536
3114.47688,0.19989
3116.40535,0.21083
3118.33382,0.21473
3120.26229,0.20811
3122.19076,0.19809
3124.11923,0.20104
3126.04770,0.21305
3127.97617,0.21531
3129.90463,0.20534
3131.83310,0.19734
3133.76157,0.19987
3135.69004,0.20578
3137.61851,0.20595
3139.54698,0.20046
3141.47545,0.19927
3143.40391,0.20566
3145.33238,0.21140
3147.26085,0.21301
3149.18932,0.21294
3151.11779,0.21262
3153.04626,0.21244
3154.97473,0.21107
3156.90320,0.20892
3158.83166,0.20845
3160.76013,0.20866
3162.68860,0.21068
3164.61707,0.21342
3166.54554,0.21461
3168.47401,0.21760
3170.40248,0.22034
3172.33094,0.22071
3174.25941,0.22043
3176.18788,0.21960
3178.11635,0.21991
3180.04482,0.22011
3181.97329,0.21891
3183.90176,0.22152
3185.83022,0.22759
3187.75869,0.22812
3189.68716,0.22183
3191.61563,0.21820
3193.54410,0.22102
3195.47257,0.22386
3197.40104,0.22401
3199.32951,0.22397
3201.25797,0.22518
3203.18644,0.22515
3205.11491,0.21871
3207.04338,0.21082
3208.97185,0.20776
3210.90032,0.20675
3212.82879,0.20783
3214.75725,0.21104
3216.68572,0.21235
3218.61419,0.21204
3220.54266,0.21287
3222.47113,0.21354
3224.39960,0.21338
3226.32807,0.21649
3228.25654,0.22286
3230.18500,0.22542
3232.11347,0.22259
3234.04194,0.21864
3235.97041,0.21292
3237.89888,0.20710
3239.82735,0.20703
3241.75582,0.21111
3243.68428,0.21306
3245.61275,0.20984
3247.54122,0.20393
3249.46969,0.20221
3251.39816,0.20945
3253.32663,0.21870
3255.25510,0.21965
3257.18357,0.21535
3259.11203,0.21330
3261.04050,0.21401
3262.96897,0.21272
3264.89744,0.20767
3266.82591,0.20495
3268.75438,0.20674
3270.68285,0.20827
3272.61131,0.20933
3274.53978,0.21394
3276.46825,0.22026
3278.39672,0.22351
3280.32519,0.22180
3282.25366,0.21548
3284.18213,0.21146
3286.11060,0.21495
3288.03906,0.22064
3289.96753,0.22242
3291.89600,0.21927
3293.82447,0.21354
3295.75294,0.20890
3297.68141,0.20781
3299.60988,0.20970
3301.53834,0.21160
3303.46681,0.21091
3305.39528,0.20865
3307.32375,0.20735
3309.25222,0.20651
3311.18069,0.20660
3313.10916,0.20944
3315.03763,0.21314
3316.96609,0.21688
3318.89456,0.22107
3320.82303,0.22090
3322.75150,0.21442
3324.67997,0.20852
3326.60844,0.20916
3328.53691,0.21172
3330.46537,0.20892
3332.39384,0.20649
3334.32231,0.21291
3336.25078,0.22244
3338.17925,0.22310
3340.10772,0.21591
3342.03619,0.21317
3343.96466,0.21662
3345.89312,0.21980
3347.82159,0.22146
3349.75006,0.22114
3351.67853,0.21873
3353.60700,0.21613
3355.53547,0.21405
3357.46394,0.21466
3359.39240,0.21903
3361.32087,0.22202
3363.24934,0.21987
3365.17781,0.21606
3367.10628,0.21608
3369.03475,0.21984
3370.96322,0.22141
3372.89168,0.21851
3374.82015,0.21597
3376.74862,0.21714
3378.67709,0.21759
3380.60556,0.21514
3382.53403,0.21445
3384.46250,0.21598
3386.39097,0.21814
3388.31943,0.21927
3390.24790,0.21686
3392.17637,0.21547
3394.10484,0.21793
3396.03331,0.21822
3397.96178,0.21562
3399.89025,0.21660
3401.81871,0.21908
3403.74718,0.21571
3405.67565,0.20897
3407.60412,0.20685
3409.53259,0.21138
3411.46106,0.21247
3413.38953,0.20546
3415.31800,0.20340
3417.24646,0.21161
3419.17493,0.22104
3421.10340,0.22254
3423.03187,0.21498
3424.96034,0.20931
3426.88881,0.21219
3428.81728,0.21646
3430.74574,0.21465
3432.67421,0.20773
3434.60268,0.20063
3436.53115,0.19627
3438.45962,0.19639
3440.38809,0.20382
3442.31656,0.21236
3444.24503,0.21250
3446.17349,0.20842
3448.10196,0.20590
3450.03043,0.20359
3451.95890,0.19991
3453.88737,0.19686
3455.81584,0.19737
3457.74431,0.19985
3459.67277,0.20429
3461.60124,0.20992
3463.52971,0.21083
3465.45818,0.20754
3467.38665,0.20409
3469.31512,0.19825
3471.24359,0.19114
3473.17206,0.18861
3475.10052,0.18764
3477.02899,0.18456
3478.95746,0.18508
3480.88593,0.18907
3482.81440,0.19024
3484.74287,0.19199
3486.67134,0.19724
3488.59980,0.19962
3490.52827,0.19632
3492.45674,0.19106
3494.38521,0.18549
3496.31368,0.18015
3498.24215,0.18201
3500.17062,0.19145
3502.09909,0.19555
3504.02755,0.18949
3505.95602,0.18223
3507.88449,0.17706
3509.81296,0.17207
3511.74143,0.17115
3513.66990,0.17568
3515.59837,0.17963
3517.52683,0.17963
3519.45530,0.17842
3521.38377,0.17998
3523.31224,0.18311
3525.24071,0.18543
3527.16918,0.18596
3529.09765,0.18104
3531.02611,0.17313
3532.95458,0.16938
3534.88305,0.17087
3536.81152,0.17483
3538.73999,0.17935
3540.66846,0.18034
3542.59693,0.17649
3544.52540,0.17642
3546.45386,0.18079
3548.38233,0.18007
3550.31080,0.17623
3552.23927,0.17393
3554.16774,0.17400
3556.09621,0.17423
3558.02468,0.17237
3559.95314,0.17097
3561.88161,0.17322
3563.81008,0.17938
3565.73855,0.18241
3567.66702,0.17054
3569.59549,0.15417
3571.52396,0.14845
3573.45243,0.15212
3575.38089,0.15807
3577.30936,0.16226
3579.23783,0.16639
3581.16630,0.16850
3583.09477,0.16788
3585.02324,0.16967
3586.95171,0.17287
3588.88017,0.17036
3590.80864,0.16668
3592.73711,0.16343
3594.66558,0.15704
3596.59405,0.15117
3598.52252,0.14825
3600.45099,0.14671
3602.37946,0.14647
3604.30792,0.14767
3606.23639,0.15069
3608.16486,0.15424
3610.09333,0.15941
3612.02180,0.16707
3613.95027,0.16980
3615.87874,0.16462
3617.80720,0.15817
3619.73567,0.15520
3621.66414,0.15234
3623.59261,0.14557
3625.52108,0.14257
3627.44955,0.15361
3629.37802,0.16658
3631.30649,0.15931
3633.23495,0.15005
3635.16342,0.14802
3637.09189,0.14841
3639.02036,0.14640
3640.94883,0.14471
3642.87730,0.14753
3644.80577,0.15299
3646.73423,0.15940
3648.66270,0.16515
3650.59117,0.15762
3652.51964,0.14583
3654.44811,0.14128
3656.37658,0.13755
3658.30505,0.13223
3660.23352,0.13126
3662.16198,0.13361
3664.09045,0.13632
3666.01892,0.14004
3667.94739,0.14738
3669.87586,0.15432
3671.80433,0.15080
3673.73280,0.14518
3675.66126,0.14243
3677.58973,0.13755
3679.51820,0.13115
3681.44667,0.12689
3683.37514,0.12696
3685.30361,0.12951
3687.23208,0.13322
3689.16055,0.14157
3691.08901,0.14540
3693.01748,0.13961
3694.94595,0.13662
3696.87442,0.13676
3698.80289,0.13617
3700.73136,0.13598
3702.65983,0.13405
3704.58829,0.13162
3706.51676,0.13402
3708.44523,0.13835
3710.37370,0.13756
3712.30217,0.13393
3714.23064,0.13358
3716.15911,0.13375
3718.08757,0.13318
3720.01604,0.13482
3721.94451,0.14047
3723.87298,0.14494
3725.80145,0.14537
3727.72992,0.14295
3729.65839,0.14139
3731.58686,0.14371
3733.51532,0.14663
3735.44379,0.14704
3737.37226,0.14309
3739.30073,0.13781
3741.22920,0.13996
3743.15767,0.15174
3745.08614,0.15639
3747.01460,0.14515
3748.94307,0.14230
3750.87154,0.14916
3752.80001,0.14427
3754.72848,0.13623
3756.65695,0.13609
3758.58542,0.13902
3760.51389,0.13744
3762.44235,0.13560
3764.37082,0.13747
3766.29929,0.13880
3768.22776,0.13876
3770.15623,0.13723
3772.08470,0.13060
3774.01317,0.12351
3775.94163,0.11886
3777.87010,0.11459
3779.79857,0.11383
3781.72704,0.12035
3783.65551,0.12860
3785.58398,0.13403
3787.51245,0.13530
3789.44092,0.13239
3791.36938,0.12809
3793.29785,0.12560
3795.22632,0.12323
3797.15479,0.12193
3799.08326,0.12538
3801.01173,0.12988
3802.94020,0.13344
3804.86866,0.13856
3806.79713,0.13740
3808.72560,0.12580
3810.65407,0.11899
3812.58254,0.12022
3814.51101,0.12443
3816.43948,0.13149
3818.36795,0.14221
3820.29641,0.15074
3822.22488,0.14431
3824.15335,0.13385
3826.08182,0.13116
3828.01029,0.13050
3829.93876,0.12861
3831.86723,0.12596
3833.79569,0.12163
3835.72416,0.11738
3837.65263,0.11868
3839.58110,0.12475
3841.50957,0.12564
3843.43804,0.12248
3845.36651,0.12097
3847.29498,0.12209
3849.22344,0.12742
3851.15191,0.13804
3853.08038,0.14460
3855.00885,0.13744
3856.93732,0.12970
3858.86579,0.12387
3860.79426,0.12259
3862.72272,0.12734
3864.65119,0.13126
3866.57966,0.12992
3868.50813,0.13274
3870.43660,0.14025
3872.36507,0.13942
3874.29354,0.13090
3876.22200,0.12200
3878.15047,0.12348
3880.07894,0.13514
3882.00741,0.13799
3883.93588,0.12849
3885.86435,0.11609
3887.79282,0.10855
3889.72129,0.10784
3891.64975,0.11011
3893.57822,0.11057
3895.50669,0.11020
3897.43516,0.11234
3899.36363,0.11870
3901.29210,0.12777
3903.22057,0.12944
3905.14903,0.12217
3907.07750,0.11707
3909.00597,0.11572
3910.93444,0.11635
3912.86291,0.11981
3914.79138,0.12270
3916.71985,0.12054
3918.64832,0.11690
3920.57678,0.11682
3922.50525,0.11953
3924.43372,0.12055
3926.36219,0.11888
3928.29066,0.12069
3930.21913,0.12574
3932.14760,0.12310
3934.07606,0.10979
3936.00453,0.10328
3937.93300,0.11216
3939.86147,0.12290
3941.78994,0.12426
3943.71841,0.12101
3945.64688,0.11879
3947.57535,0.11547
3949.50381,0.11091
3951.43228,0.11114
3953.36075,0.11496
3955.28922,0.11502
3957.21769,0.11141
3959.14616,0.10787
3961.07463,0.10650
3963.00309,0.10817
3964.93156,0.11019
3966.86003,0.11035
3968.78850,0.11027
3970.71697,0.10986
3972.64544,0.10757
3974.57391,0.10584
3976.50238,0.10550
3978.43084,0.10450
3980.35931,0.10548
3982.28778,0.11104
3984.21625,0.11536
3986.14472,0.11257
3988.07319,0.10588
3990.00166,0.10045
3991.93012,0.09725
3993.85859,0.09539
3995.78706,0.09703
3997.71553,0.10299
3999.64400,0.10629
4001.57247,0.10329
4003.50094,0.09984
4005.42941,0.10020
4007.35787,0.10153
4009.28634,0.10114
4011.21481,0.10204
4013.14328,0.10588
4015.07175,0.10751
4017.00022,0.10622
4018.92869,0.10641
4020.85715,0.10622
4022.78562,0.10388
4024.71409,0.10374
4026.64256,0.10563
4028.57103,0.10285
4030.49950,0.09690
4032.42797,0.09366
4034.35644,0.09247
4036.28490,0.09299
4038.21337,0.09477
4040.14184,0.09529
4042.07031,0.09556
4043.99878,0.09462
4045.92725,0.09072
4047.85572,0.09089
4049.78418,0.09480
4051.71265,0.09592
4053.64112,0.10011
4055.56959,0.10441
4057.49806,0.09890
4059.42653,0.09477
4061.35500,0.09936
4063.28346,0.09979
4065.21193,0.09592
4067.14040,0.09663
4069.06887,0.09777
4070.99734,0.09698
4072.92581,0.09792
4074.85428,0.09633
4076.78275,0.08842
4078.71121,0.08469
4080.63968,0.09000
4082.56815,0.09393
4084.49662,0.09474
4086.42509,0.09713
4088.35356,0.09703
4090.28203,0.09286
4092.21049,0.09076
4094.13896,0.09034
4096.06743,0.08864
4097.99590,0.08928
4099.92437,0.09270
4101.85284,0.09364
4103.78131,0.09191
4105.70978,0.09213
4107.63824,0.09367
4109.56671,0.09350
4111.49518,0.09043
4113.42365,0.08695
4115.35212,0.08943
4117.28059,0.09402
4119.20906,0.09043
4121.13752,0.08427
4123.06599,0.08500
4124.99446,0.08608
4126.92293,0.08546
4128.85140,0.08948
4130.77987,0.09422
4132.70834,0.09453
4134.63681,0.09218
4136.56527,0.08851
4138.49374,0.08368
4140.42221,0.08260
4142.35068,0.08782
4144.27915,0.08995
4146.20762,0.08291
4148.13609,0.07527
4150.06455,0.07669
4151.99302,0.08245
4153.92149,0.08263
4155.84996,0.08197
4157.77843,0.08638
4159.70690,0.08854
4161.63537,0.08504
4163.56384,0.07952
4165.49230,0.07412
4167.42077,0.07171
4169.34924,0.07312
4171.27771,0.07462
4173.20618,0.07671
4175.13465,0.08110
4177.06312,0.08310
4178.99158,0.08207
4180.92005,0.07878
4182.84852,0.07274
4184.77699,0.07100
4186.70546,0.07426
4188.63393,0.07654
4190.56240,0.08025
4192.49087,0.08524
4194.41933,0.08523
4196.34780,0.08072
4198.27627,0.07806
4200.20474,0.07961
4202.13321,0.08308
4204.06168,0.08785
4205.99015,0.08843
4207.91861,0.08196
4209.84708,0.08067
4211.77555,0.08585
4213.70402,0.08562
4215.63249,0.08183
4217.56096,0.08083
4219.48943,0.08186
4221.41789,0.08254
4223.34636,0.08276
4225.27483,0.08242
4227.20330,0.07995
4229.13177,0.07890
4231.06024,0.08033
4232.98871,0.07993
4234.91718,0.07526
4236.84564,0.06617
4238.77411,0.06126
4240.70258,0.06673
4242.63105,0.07494
4244.55952,0.07908
4246.48799,0.07757
4248.41646,0.07159
4250.34492,0.06850
4252.27339,0.07129
4254.20186,0.07277
4256.13033,0.07217
4258.05880,0.07236
4259.98727,0.07232
4261.91574,0.07365
4263.84421,0.07252
4265.77267,0.06763
4267.70114,0.06727
4269.62961,0.06975
4271.55808,0.06766
4273.48655,0.06166
4275.41502,0.05206
4277.34349,0.04511
4279.27195,0.05051
4281.20042,0.06029
4283.12889,0.06781
4285.05736,0.07458
4286.98583,0.07358
4288.91430,0.06570
4290.84277,0.05835
4292.77124,0.05160
4294.69970,0.04916
4296.62817,0.05251
4298.55664,0.05498
4300.48511,0.05552
4302.41358,0.05449
4304.34205,0.05134
4306.27052,0.05088
4308.19898,0.05261
4310.12745,0.05198
4312.05592,0.04887
4313.98439,0.04506
4315.91286,0.04633
4317.84133,0.05459
4319.76980,0.06008
4321.69827,0.05819
4323.62673,0.05585
4325.55520,0.05725
4327.48367,0.05869
4329.41214,0.05679
4331.34061,0.05555
4333.26908,0.05792
4335.19755,0.06177
4337.12601,0.06569
4339.05448,0.06724
4340.98295,0.06354
4342.91142,0.05540
4344.83989,0.04963
4346.76836,0.04972
4348.69683,0.05015
4350.62530,0.04990
4352.55376,0.05180
4354.48223,0.05345
4356.41070,0.05056
4358.33917,0.04568
4360.26764,0.04489
4362.19611,0.04542
4364.12458,0.04361
4366.05304,0.04178
4367.98151,0.04021
4369.90998,0.03920
4371.83845,0.04158
4373.76692,0.04522
4375.69539,0.04335
4377.62386,0.03910
4379.55232,0.04213
4381.48079,0.04751
4383.40926,0.04582
4385.33773,0.04007
4387.26620,0.03282
4389.19467,0.02626
4391.12314,0.02919
4393.05161,0.04052
4394.98007,0.04837
4396.90854,0.04845
4398.83701,0.04598
4400.76548,0.04473
4402.69395,0.04335
4404.62242,0.03938
4406.55089,0.03560
4408.47935,0.03920
4410.40782,0.04491
4412.33629,0.04097
4414.26476,0.03549
4416.19323,0.03815
4418.12170,0.04088
4420.05017,0.03705
4421.97864,0.03011
4423.90710,0.02737
4425.83557,0.03208
4427.76404,0.03921
4429.69251,0.04121
4431.62098,0.03759
4433.54945,0.03246
4435.47792,0.02426
4437.40638,0.01803
4439.33485,0.02418
4441.26332,0.03618
4443.19179,0.04205
4445.12026,0.04113
4447.04873,0.04007
4448.97720,0.03966
4450.90567,0.03307
4452.83413,0.02450
4454.76260,0.02242
4456.69107,0.02312
4458.61954,0.02251
4460.54801,0.02064
4462.47648,0.02025
4464.40495,0.02699
4466.33341,0.03686
4468.26188,0.04267
4470.19035,0.04415
4472.11882,0.03800
4474.04729,0.02830
4475.97576,0.02538
4477.90423,0.02462
4479.83270,0.02236
4481.76116,0.02337
4483.68963,0.02266
4485.61810,0.01588
4487.54657,0.01301
4489.47504,0.01849
4491.40351,0.02503
4493.33198,0.02949
4495.26044,0.03072
4497.18891,0.02879
4499.11738,0.02564
4501.04585,0.01900
4502.97432,0.01231
4504.90279,0.01110
4506.83126,0.01120
4508.75973,0.01245
4510.68819,0.02101
4512.61666,0.03224
4514.54513,0.03483
4516.47360,0.02796
4518.40207,0.02040
4520.33054,0.01754
4522.25901,0.01541
4524.18747,0.00981
4526.11594,0.00731
4528.04441,0.01638
4529.97288,0.02886
4531.90135,0.03225
4533.82982,0.03111
4535.75829,0.02806
4537.68676,0.01915
4539.61522,0.01626
4541.54369,0.02341
4543.47216,0.02424
4545.40063,0.01918
4547.32910,0.01909
4549.25757,0.01939
4551.18604,0.01612
4553.11450,0.01772
4555.04297,0.02643
4556.97144,0.03464
4558.89991,0.03709
4560.82838,0.02921
4562.75685,0.01610
4564.68532,0.00936
4566.61378,0.01045
4568.54225,0.01677
4570.47072,0.02058
4572.39919,0.01664
4574.32766,0.01293
4576.25613,0.01488
4578.18460,0.01969
4580.11307,0.02253
4582.04153,0.02168
4583.97000,0.01819
4585.89847,0.01395
4587.82694,0.01152
4589.75541,0.00781
4591.68388,0.00377
4593.61235,0.00825
4595.54081,0.01758
4597.46928,0.02122
4599.39775,0.01833
4601.32622,0.00917
4603.25469,0.00059
4605.18316,0.00593
4607.11163,0.01305
4609.04010,0.00660
4610.96856,-0.00215
4612.89703,-0.00298
4614.82550,0.00478
4616.75397,0.01667
4618.68244,0.02239
4620.61091,0.01940
4622.53938,0.01229
4624.46784,0.00888
4626.39631,0.01487
4628.32478,0.02057
4630.25325,0.01741
4632.18172,0.01081
4634.11019,0.00535
4636.03866,0.00537
4637.96713,0.01190
4639.89559,0.01462
4641.82406,0.01232
4643.75253,0.01354
4645.68100,0.01598
4647.60947,0.01763
4649.53794,0.02014
4651.46641,0.01793
4653.39487,0.00716
4655.32334,-0.00792
4657.25181,-0.01596
4659.18028,-0.01046
4661.10875,0.00046
4663.03722,0.00610
4664.96569,0.00521
4666.89416,0.00520
4668.82262,0.00725
4670.75109,0.00403
4672.67956,-0.00087
4674.60803,0.00114
4676.53650,0.00567
4678.46497,0.00500
4680.39344,0.00247
4682.32190,0.00811
4684.25037,0.01915
4686.17884,0.02017
4688.10731,0.01175
4690.03578,0.00690
4691.96425,0.00665
4693.89272,0.00438
4695.82119,-0.00047
4697.74965,0.00007
4699.67812,0.00956
4701.60659,0.01660
4703.53506,0.01418
4705.46353,0.01128
4707.39200,0.00890
4709.32047,0.00469
4711.24893,0.00839
4713.17740,0.01743
4715.10587,0.02014
4717.03434,0.01857
4718.96281,0.01384
4720.89128,0.00246
4722.81975,-0.00999
4724.74821,-0.01206
4726.67668,-0.00007
4728.60515,0.01079
4730.53362,0.00860
4732.46209,0.00222
4734.39056,0.00426
4736.31903,0.01685
4738.24750,0.02726
4740.17596,0.02635
4742.10443,0.01823
4744.03290,0.01076
4745.96137,0.00901
4747.88984,0.01024
4749.81831,0.01064
4751.74678,0.00817
4753.67524,0.00988
4755.60371,0.01913
4757.53218,0.02329
4759.46065,0.01987
4761.38912,0.01483
4763.31759,0.01407
4765.24606,0.01593
4767.17453,0.00885
4769.10299,0.00020
4771.03146,0.00084
4772.95993,0.00777
4774.88840,0.01735
4776.81687,0.02024
4778.74534,0.01113
4780.67381,-0.00060
4782.60227,-0.00148
4784.53074,0.00686
4786.45921,0.01152
4788.38768,0.01147
4790.31615,0.00960
4792.24462,0.00690
4794.17309,0.00511
4796.10156,0.00938
4798.03002,0.02274
4799.95849,0.02597
4801.88696,0.01182
4803.81543,0.00401
4805.74390,0.00682
4807.67237,0.00267
4809.60084,-0.00432
4811.52930,-0.00281
4813.45777,0.00323
4815.38624,0.00938
4817.31471,0.01475
4819.24318,0.02126
4821.17165,0.02866
4823.10012,0.02780
4825.02859,0.01676
4826.95705,0.00687
4828.88552,0.00458
4830.81399,0.00509
4832.74246,0.00355
4834.67093,-0.00009
4836.59940,-0.00173
4838.52787,-0.00220
4840.45633,-0.00594
4842.38480,-0.00434
4844.31327,0.00450
4846.24174,0.00748
4848.17021,0.00401
4850.09868,-0.00022
4852.02715,-0.00162
4853.95562,0.00685
4855.88408,0.02111
4857.81255,0.02750
4859.74102,0.02183
4861.66949,0.01177
4863.59796,0.00918
4865.52643,0.01327
4867.45490,0.01128
4869.38336,0.00788
4871.31183,0.01079
4873.24030,0.00700
4875.16877,-0.00581
4877.09724,-0.01332
4879.02571,-0.01221
4880.95418,-0.00791
4882.88265,-0.00188
4884.81111,0.00978
4886.73958,0.02801
4888.66805,0.03818
4890.59652,0.02114
4892.52499,-0.00846
4894.45346,-0.01872
4896.38193,-0.01137
4898.31039,-0.00431
4900.23886,-0.00282
4902.16733,-0.00011
4904.09580,0.00863
4906.02427,0.01378
4907.95274,0.01584
4909.88121,0.02351
4911.80967,0.02833
4913.73814,0.02327
4915.66661,0.01557
4917.59508,0.01179
4919.52355,0.00927
4921.45202,0.00726
4923.38049,0.00738
4925.30896,0.01007
4927.23742,0.01835
4929.16589,0.02265
4931.09436,0.01474
4933.02283,0.00748
4934.95130,0.01600
4936.87977,0.03846
4938.80824,0.05192
4940.73670,0.03858
4942.66517,0.01210
4944.59364,0.00062
4946.52211,0.01137
4948.45058,0.02273
4950.37905,0.02218
4952.30752,0.01832
4954.23599,0.01659
4956.16445,0.01943
4958.09292,0.02326
4960.02139,0.01894
4961.94986,0.01049
4963.87833,0.00257
4965.80680,-0.00717
4967.73527,-0.01253
4969.66373,-0.00788
4971.59220,0.00598
4973.52067,0.02678
4975.44914,0.03766
4977.37761,0.02727
4979.30608,0.01425
4981.23455,0.00960
4983.16302,0.01182
4985.09148,0.01804
4987.01995,0.01194
4988.94842,-0.00252
4990.87689,-0.00303
4992.80536,0.00625
4994.73383,0.01206
4996.66230,0.01754
4998.59076,0.02490
5000.51923,0.02443
5002.44770,0.01404
5004.37617,0.00517
5006.30464,0.00173
5008.23311,-0.00004
5010.16158,-0.00643
5012.09005,-0.01830
5014.01851,-0.02081
5015.94698,-0.00622
5017.87545,0.02212
5019.80392,0.04768
5021.73239,0.04986
5023.66086,0.03933
5025.58933,0.02848
5027.51779,0.01517
5029.44626,0.01050
5031.37473,0.01512
5033.30320,0.01548
5035.23167,0.01357
5037.16014,0.01962
5039.08861,0.03097
5041.01708,0.02894
5042.94554,0.01121
5044.87401,0.00094
5046.80248,0.00704
5048.73095,0.01748
5050.65942,0.02457
5052.58789,0.02879
5054.51636,0.02643
5056.44482,0.01624
5058.37329,0.00654
5060.30176,0.00476
5062.23023,0.01248
5064.15870,0.01897
5066.08717,0.01441
5068.01564,0.00591
5069.94410,0.00679
5071.87257,0.02222
5073.80104,0.03726
5075.72951,0.03698
5077.65798,0.02954
5079.58645,0.02260
5081.51492,0.01798
5083.44339,0.02714
5085.37185,0.04641
5087.30032,0.05078
5089.22879,0.03677
5091.15726,0.02971
5093.08573,0.03690
5095.01420,0.03646
5096.94267,0.01925
5098.87113,0.00463
5100.79960,0.00983
5102.72807,0.02874
5104.65654,0.04757
5106.58501,0.05583
5108.51348,0.04884
5110.44195,0.03466
5112.37042,0.02449
5114.29888,0.02423
5116.22735,0.02279
5118.15582,0.00793
5120.08429,-0.00233
5122.01276,0.00497
5123.94123,0.01287
5125.86970,0.00725
5127.79816,-0.00036
5129.72663,0.01056
5131.65510,0.03187
5133.58357,0.04036
5135.51204,0.03567
5137.44051,0.02952
5139.36898,0.02247
5141.29745,0.01916
5143.22591,0.03119
5145.15438,0.04898
5147.08285,0.05322
5149.01132,0.04461
5150.93979,0.03449
5152.86826,0.02417
5154.79673,0.00966
5156.72519,0.00227
5158.65366,0.01582
5160.58213,0.03582
5162.51060,0.04108
5164.43907,0.03525
5166.36754,0.03889
5168.29601,0.05630
5170.22448,0.06248
5172.15294,0.04291
5174.08141,0.01961
5176.00988,0.01552
5177.93835,0.02878
5179.86682,0.04179
5181.79529,0.05078
5183.72376,0.05364
5185.65222,0.04792
5187.58069,0.04751
5189.50916,0.04695
5191.43763,0.03169
5193.36610,0.01098
5195.29457,0.00328
5197.22304,0.01546
5199.15151,0.04065
5201.07997,0.06069
5203.00844,0.06372
5204.93691,0.06127
5206.86538,0.06558
5208.79385,0.06750
5210.72232,0.05633
5212.65079,0.04258
5214.57925,0.04162
5216.50772,0.04673
5218.43619,0.04588
5220.36466,0.03840
5222.29313,0.02736
5224.22160,0.01915
5226.15007,0.02227
5228.07854,0.03807
5230.00700,0.06450
5231.93547,0.08671
5233.86394,0.08030
5235.79241,0.05546
5237.72088,0.03614
5239.64935,0.02374
5241.57782,0.00746
5243.50628,-0.01048
5245.43475,-0.00741
5247.36322,0.01937
5249.29169,0.04548
5251.22016,0.05820
5253.14863,0.06266
5255.07710,0.05871
5257.00556,0.05265
5258.93403,0.05833
5260.86250,0.06574
5262.79097,0.06050
5264.71944,0.05013
5266.64791,0.03680
5268.57638,0.02600
5270.50485,0.03772
5272.43331,0.06214
5274.36178,0.07396
5276.29025,0.07080
5278.21872,0.05767
5280.14719,0.03788
5282.07566,0.01824
5284.00413,0.01391
5285.93259,0.03119
5287.86106,0.05284
5289.78953,0.06756
5291.71800,0.06854
5293.64647,0.05149
5295.57494,0.03526
5297.50341,0.03839
5299.43188,0.05233
5301.36034,0.05108
5303.28881,0.03062
5305.21728,0.02071
5307.14575,0.03333
5309.07422,0.05207
5311.00269,0.06267
5312.93116,0.05732
5314.85962,0.05016
5316.78809,0.05845
5318.71656,0.06526
5320.64503,0.06133
5322.57350,0.06004
5324.50197,0.06259
5326.43044,0.06295
5328.35891,0.05721
5330.28737,0.04368
5332.21584,0.03273
5334.14431,0.03397
5336.07278,0.05047
5338.00125,0.07346
5339.92972,0.07303
5341.85819,0.05163
5343.78665,0.04359
5345.71512,0.06483
5347.64359,0.08474
5349.57206,0.08407
5351.50053,0.07682
5353.42900,0.07114
5355.35747,0.06340
5357.28594,0.05350
5359.21440,0.04589
5361.14287,0.04721
5363.07134,0.05697
5364.99981,0.06125
5366.92828,0.06086
5368.85675,0.07372
5370.78522,0.09562
5372.71368,0.10780
5374.64215,0.09568
5376.57062,0.05934
5378.49909,0.02886
5380.42756,0.03663
5382.35603,0.07282
5384.28450,0.09136
5386.21297,0.07807
5388.14143,0.05723
5390.06990,0.04499
5391.99837,0.06436
5393.92684,0.11206
5395.85531,0.12954
5397.78378,0.10042
5399.71225,0.07059
5401.64071,0.06306
5403.56918,0.06821
5405.49765,0.06254
5407.42612,0.04951
5409.35459,0.06376
5411.28306,0.07701
5413.21153,0.05386
5415.13999,0.04707
5417.06846,0.06000
5418.99693,0.05816
5420.92540,0.05695
5422.85387,0.06231
5424.78234,0.06025
5426.71081,0.05254
5428.63928,0.04535
5430.56774,0.04864
5432.49621,0.04939
5434.42468,0.04028
5436.35315,0.04036
5438.28162,0.03582
5440.21009,0.01012
5442.13856,-0.00472
5444.06702,0.02847
5445.99549,0.08354
5447.92396,0.10517
5449.85243,0.09582
5451.78090,0.09086
5453.70937,0.09904
5455.63784,0.10845
5457.56631,0.10516
5459.49477,0.09444
5461.42324,0.07779
5463.35171,0.05611
5465.28018,0.04970
5467.20865,0.05095
5469.13712,0.05320
5471.06559,0.07344
5472.99405,0.09446
5474.92252,0.09569
5476.85099,0.08061
5478.77946,0.06527
5480.70793,0.06838
5482.63640,0.07838
5484.56487,0.07984
5486.49334,0.08883
5488.42180,0.09881
5490.35027,0.09774
5492.27874,0.10342
5494.20721,0.10474
5496.13568,0.08723
5498.06415,0.06890
5499.99262,0.06076
5501.92108,0.05771
5503.84955,0.05943
5505.77802,0.06706
5507.70649,0.08349
5509.63496,0.11410
5511.56343,0.12412
5513.49190,0.10006
5515.42037,0.08416
5517.34883,0.07449
5519.27730,0.04826
5521.20577,0.01510
5523.13424,0.00628
5525.06271,0.04571
5526.99118,0.10125
5528.91965,0.12756
5530.84811,0.12439
5532.77658,0.11709
5534.70505,0.10575
5536.63352,0.08762
5538.56199,0.07660
5540.49046,0.07325
5542.41893,0.07232
5544.34740,0.07648
5546.27586,0.08919
5548.20433,0.08191
5550.13280,0.03259
5552.06127,-0.00171
5553.98974,0.02281
5555.91821,0.06252
5557.84668,0.08403
5559.77514,0.09387
5561.70361,0.07608
5563.63208,0.03254
5565.56055,0.00668
5567.48902,0.01450
5569.41749,0.04017
5571.34596,0.06079
5573.27443,0.06546
5575.20289,0.07146
5577.13136,0.08312
5579.05983,0.09710
5580.98830,0.10706
5582.91677,0.08684
5584.84524,0.05566
5586.77371,0.05259
5588.70217,0.07961
5590.63064,0.11782
5592.55911,0.13851
5594.48758,0.12433
5596.41605,0.08969
5598.34452,0.06739
5600.27299,0.07343
5602.20145,0.10187
5604.12992,0.12239
5606.05839,0.09729
5607.98686,0.04619
5609.91533,0.02525
5611.84380,0.04326
5613.77227,0.06771
5615.70074,0.07974
5617.62920,0.06775
5619.55767,0.04593
5621.48614,0.05350
5623.41461,0.08700
5625.34308,0.11777
5627.27155,0.12027
5629.20002,0.08598
5631.12848,0.04289
5633.05695,0.02977
5634.98542,0.05714
5636.91389,0.08176
5638.84236,0.07817
5640.77083,0.07119
5642.69930,0.08265
5644.62777,0.10823
5646.55623,0.11108
5648.48470,0.08270
5650.41317,0.04835
5652.34164,0.01595
5654.27011,0.02418
5656.19858,0.07633
5658.12705,0.10239
5660.05551,0.09217
5661.98398,0.08445
5663.91245,0.08302
5665.84092,0.07556
5667.76939,0.05993
5669.69786,0.04083
5671.62633,0.02537
5673.55480,0.02720
5675.48326,0.04570
5677.41173,0.05625
5679.34020,0.04880
5681.26867,0.04799
5683.19714,0.06826
5685.12561,0.08673
5687.05408,0.08096
5688.98254,0.06429
5690.91101,0.07580
5692.83948,0.10638
5694.76795,0.11373
5696.69642,0.10272
5698.62489,0.09490
5700.55336,0.08591
5702.48183,0.06442
5704.41029,0.04299
5706.33876,0.05125
5708.26723,0.07566
5710.19570,0.07730
5712.12417,0.05859
5714.05264,0.04355
5715.98111,0.04358
5717.90957,0.05708
5719.83804,0.08467
5721.76651,0.11530
5723.69498,0.12528
5725.62345,0.12199
5727.55192,0.11497
5729.48039,0.10044
5731.40886,0.08035
5733.33732,0.06544
5735.26579,0.06450
5737.19426,0.05553
5739.12273,0.04457
5741.05120,0.04678
5742.97967,0.04002
5744.90814,0.03001
5746.83660,0.02767
5748.76507,0.02814
5750.69354,0.04232
5752.62201,0.06222
5754.55048,0.05381
5756.47895,0.03882
5758.40742,0.06087
5760.33588,0.10408
5762.26435,0.13446
5764.19282,0.14618
5766.12129,0.13641
5768.04976,0.10713
5769.97823,0.07837
5771.90670,0.06915
5773.83517,0.08483
5775.76363,0.10261
5777.69210,0.10428
5779.62057,0.10205
5781.54904,0.09715
5783.47751,0.08453
5785.40598,0.08025
5787.33445,0.09454
5789.26291,0.09560
5791.19138,0.06521
5793.11985,0.04863
5795.04832,0.07371
5796.97679,0.10161
5798.90526,0.10109
5800.83373,0.09595
5802.76220,0.09113
5804.69066,0.07574
5806.61913,0.07483
5808.54760,0.08236
5810.47607,0.07242
5812.40454,0.06132
5814.33301,0.06927
5816.26148,0.08706
5818.18994,0.10030
5820.11841,0.10369
5822.04688,0.08430
5823.97535,0.05576
5825.90382,0.06004
5827.83229,0.09343
5829.76076,0.11258
5831.68923,0.09170
5833.61769,0.06523
5835.54616,0.08018
5837.47463,0.10464
5839.40310,0.10213
5841.33157,0.09228
5843.26004,0.08434
5845.18851,0.07380
5847.11697,0.07672
5849.04544,0.11242
5850.97391,0.15201
5852.90238,0.15609
5854.83085,0.14080
5856.75932,0.12228
5858.68779,0.10251
5860.61626,0.08180
5862.54472,0.05179
5864.47319,0.02341
5866.40166,0.02031
5868.33013,0.03773
5870.25860,0.04796
5872.18707,0.06334
5874.11554,0.09881
5876.04400,0.11376
5877.97247,0.09850
5879.90094,0.09238
5881.82941,0.11001
5883.75788,0.12840
5885.68635,0.11505
5887.61482,0.08528
5889.54329,0.09187
5891.47175,0.12363
5893.40022,0.13198
5895.32869,0.11977
5897.25716,0.10173
5899.18563,0.08971
5901.11410,0.08424
5903.04257,0.06340
5904.97103,0.04349
5906.89950,0.03967
5908.82797,0.02544
5910.75644,-0.00112
5912.68491,-0.00385
5914.61338,0.03597
5916.54185,0.09411
5918.47032,0.13195
5920.39878,0.13846
5922.32725,0.12952
5924.25572,0.10429
5926.18419,0.05624
5928.11266,0.00934
5930.04113,-0.00640
5931.96960,0.01010
5933.89806,0.04386
5935.82653,0.08003
5937.75500,0.11112
5939.68347,0.12432
5941.61194,0.11119
5943.54041,0.10435
5945.46888,0.10892
5947.39734,0.08348
5949.32581,0.03287
5951.25428,0.00696
5953.18275,0.04358
5955.11122,0.11409
5957.03969,0.14641
5958.96816,0.13167
5960.89663,0.11503
5962.82509,0.12523
5964.75356,0.15619
5966.68203,0.16655
5968.61050,0.12606
5970.53897,0.07979
5972.46744,0.07748
5974.39591,0.08365
5976.32437,0.07746
5978.25284,0.09277
5980.18131,0.12117
5982.10978,0.13971
5984.03825,0.15026
5985.96672,0.14463
5987.89519,0.11625
5989.82366,0.09610
5991.75212,0.11260
5993.68059,0.14491
5995.60906,0.13785
5997.53753,0.08169
5999.46600,0.05027
6001.39447,0.08160
6003.32294,0.11941
6005.25140,0.12403
6007.17987,0.13323
6009.10834,0.12739
6011.03681,0.05753
6012.96528,-0.02024
6014.89375,-0.02533
6016.82222,0.05618
6018.75069,0.15176
6020.67915,0.15753
6022.60762,0.10615
6024.53609,0.08845
6026.46456,0.08070
6028.39303,0.05294
6030.32150,0.05310
6032.24997,0.07336
6034.17843,0.06456
6036.10690,0.05463
6038.03537,0.06971
6039.96384,0.06851
6041.89231,0.05873
6043.82078,0.06464
6045.74925,0.06654
6047.67772,0.07719
6049.60618,0.10777
6051.53465,0.12479
6053.46312,0.11892
6055.39159,0.10394
6057.32006,0.08841
6059.24853,0.07954
6061.17700,0.06173
6063.10546,0.04369
6065.03393,0.06114
6066.96240,0.06606
6068.89087,0.03774
6070.81934,0.05125
6072.74781,0.11605
6074.67628,0.14896
6076.60475,0.12123
6078.53321,0.09652
6080.46168,0.10920
6082.39015,0.11569
6084.31862,0.09307
6086.24709,0.09011
6088.17556,0.12312
6090.10403,0.13043
6092.03249,0.08116
6093.96096,0.03713
6095.88943,0.04786
6097.81790,0.07004
6099.74637,0.09408
6101.67484,0.13167
6103.60331,0.14010
6105.53177,0.09863
6107.46024,0.03903
6109.38871,0.01931
6111.31718,0.05838
6113.24565,0.10858
6115.17412,0.11637
6117.10259,0.08984
6119.03106,0.10162
6120.95952,0.15657
6122.88799,0.16225
6124.81646,0.09227
6126.74493,0.01828
6128.67340,0.01350
6130.60187,0.04677
6132.53034,0.04218
6134.45880,0.01352
6136.38727,0.01533
6138.31574,0.04770
6140.24421,0.06620
6142.17268,0.05674
6144.10115,0.03767
6146.02962,0.00426
6147.95809,-0.01549
6149.88655,0.02799
6151.81502,0.10778
6153.74349,0.16709
6155.67196,0.20980
6157.60043,0.21921
6159.52890,0.16407
6161.45737,0.11521
6163.38583,0.14781
6165.31430,0.18597
6167.24277,0.13911
6169.17124,0.08589
6171.09971,0.10759
6173.02818,0.13293
6174.95665,0.09481
6176.88512,0.01560
6178.81358,-0.04136
6180.74205,-0.01807
6182.67052,0.05290
6184.59899,0.06948
6186.52746,-0.00618
6188.45593,-0.08287
6190.38440,-0.07566
6192.31286,-0.05905
6194.24133,-0.09157
6196.16980,-0.11163
6198.09827,-0.07633
6200.02674,-0.01032
6201.95521,0.03726
6203.88368,0.02548
6205.81215,-0.00527
6207.74061,0.02124
6209.66908,0.10588
6211.59755,0.16717
6213.52602,0.17049
6215.45449,0.13543
6217.38296,0.07545
6219.31143,0.04906
6221.23989,0.05664
6223.16836,0.04822
6225.09683,0.04346
6227.02530,0.06732
6228.95377,0.10239
6230.88224,0.13161
6232.81071,0.12661
6234.73918,0.10299
6236.66764,0.09243
6238.59611,0.07074
6240.52458,0.04893
6242.45305,0.06655
6244.38152,0.08278
6246.30999,0.06073
6248.23846,0.06073
6250.16692,0.10114
6252.09539,0.12254
6254.02386,0.13073
6255.95233,0.13553
6257.88080,0.11344
6259.80927,0.09276
6261.73774,0.10939
6263.66621,0.14094
6265.59467,0.12237
6267.52314,0.06079
6269.45161,0.04581
6271.38008,0.08782
6273.30855,0.12703
6275.23702,0.14688
6277.16549,0.16105
6279.09395,0.15118
6281.02242,0.14435
6282.95089,0.16402
6284.87936,0.16396
6286.80783,0.11871
6288.73630,0.04193
6290.66477,-0.02848
6292.59323,-0.03769
6294.52170,-0.00002
6296.45017,0.02463
6298.37864,0.04302
6300.30711,0.08258
6302.23558,0.10989
6304.16405,0.11598
6306.09252,0.12582
6308.02098,0.10891
6309.94945,0.06252
6311.87792,0.05858
6313.80639,0.11394
6315.73486,0.15795
6317.66333,0.14364
6319.59180,0.08843
6321.52026,0.04248
6323.44873,0.03772
6325.37720,0.04876
6327.30567,0.05207
6329.23414,0.06830
6331.16261,0.11573
6333.09108,0.16458
6335.01955,0.16618
6336.94801,0.13372
6338.87648,0.14076
6340.80495,0.20474
6342.73342,0.24020
6344.66189,0.20948
6346.59036,0.19375
6348.51883,0.19536
6350.44729,0.12250
6352.37576,0.04876
6354.30423,0.04342
6356.23270,0.03608
6358.16117,0.02299
6360.08964,0.04464
6362.01811,0.10106
6363.94658,0.15380
6365.87504,0.14115
6367.80351,0.07933
6369.73198,0.06137
6371.66045,0.05892
6373.58892,0.00215
6375.51739,-0.03728
6377.44586,-0.01913
6379.37432,0.01469
6381.30279,0.05201
6383.23126,0.06906
6385.15973,0.04706
6387.08820,0.05094
6389.01667,0.08678
6390.94514,0.09328
6392.87361,0.07857
6394.80207,0.06802
6396.73054,0.05704
6398.65901,0.06450
6400.58748,0.09170
6402.51595,0.11199
6404.44442,0.12419
6406.37289,0.15277
6408.30135,0.14869
6410.22982,0.08547
6412.15829,0.06594
6414.08676,0.09436
6416.01523,0.09069
6417.94370,0.07115
6419.87217,0.06874
6421.80064,0.07852
6423.72910,0.12388
6425.65757,0.19180
6427.58604,0.19411
6429.51451,0.11227
6431.44298,0.06220
6433.37145,0.11203
6435.29992,0.17612
6437.22838,0.19117
6439.15685,0.15373
6441.08532,0.09063
6443.01379,0.03428
6444.94226,0.01494
6446.87073,0.03445
6448.79920,0.04434
6450.72766,0.04348
6452.65613,0.09286
6454.58460,0.14409
6456.51307,0.13330
6458.44154,0.10579
6460.37001,0.07279
6462.29848,0.00192
6464.22695,-0.07375
6466.15541,-0.10218
6468.08388,-0.06629
6470.01235,0.01048
6471.94082,0.08159
6473.86929,0.09535
6475.79776,0.05256
6477.72623,0.00383
6479.65469,-0.01421
6481.58316,0.00954
6483.51163,0.03470
6485.44010,0.04597
6487.36857,0.05488
6489.29704,0.03692
6491.22551,0.01115
6493.15398,0.03229
6495.08244,0.08646
6497.01091,0.09987
6498.93938,0.05605
6500.86785,0.03179
6502.79632,0.05309
6504.72479,0.03999
6506.65326,-0.00623
6508.58172,0.01346
6510.51019,0.09397
6512.43866,0.11765
6514.36713,0.09186
6516.29560,0.07834
6518.22407,0.05944
6520.15254,0.06083
6522.08101,0.11511
6524.00947,0.16310
6525.93794,0.13723
6527.86641,0.07104
6529.79488,0.02609
6531.72335,0.00495
6533.65182,0.01229
6535.58029,0.08443
6537.50875,0.15800
6539.43722,0.13022
6541.36569,0.04515
6543.29416,0.01210
6545.22263,0.06224
6547.15110,0.10449
6549.07957,0.06434
6551.00804,0.00863
6552.93650,0.01506
6554.86497,0.05664
6556.79344,0.09336
6558.72191,0.09022
6560.65038,0.04214
6562.57885,0.00171
6564.50732,-0.01634
6566.43578,-0.02938
6568.36425,0.01306
6570.29272,0.06226
6572.22119,0.03136
6574.14966,0.02785
6576.07813,0.10575
6578.00660,0.14672
6579.93507,0.10744
6581.86353,0.09179
6583.79200,0.13393
6585.72047,0.14642
6587.64894,0.10553
6589.57741,0.03206
6591.50588,-0.04819
6593.43435,-0.07904
6595.36281,-0.04037
6597.29128,0.01229
6599.21975,0.04838
6601.14822,0.10842
6603.07669,0.18774
6605.00516,0.19296
6606.93363,0.11726
6608.86210,0.03834
6610.79056,-0.00391
6612.71903,-0.02961
6614.64750,-0.05991
6616.57597,-0.07975
6618.50444,-0.04781
6620.43291,0.04670
6622.36138,0.14257
6624.28984,0.18133
6626.21831,0.17923
6628.14678,0.13459
6630.07525,0.03063
6632.00372,-0.06914
6633.93219,-0.08957
6635.86066,-0.00668
6637.78912,0.10571
6639.71759,0.17769
6641.64606,0.25248
6643.57453,0.29240
6645.50300,0.22758
6647.43147,0.12303
6649.35994,0.05136
6651.28841,0.05581
6653.21687,0.14849
6655.14534,0.23004
6657.07381,0.19800
6659.00228,0.16415
6660.93075,0.20277
6662.85922,0.14721
6664.78769,0.02606
6666.71615,0.00767
6668.64462,0.05777
6670.57309,0.03052
6672.50156,-0.04743
6674.43003,-0.03029
6676.35850,0.06174
6678.28697,0.12325
6680.21544,0.09436
6682.14390,0.04150
6684.07237,0.05774
6686.00084,0.08464
6687.92931,0.05896
6689.85778,0.00782
6691.78625,-0.03278
6693.71472,-0.03738
6695.64318,-0.00071
6697.57165,0.02215
6699.50012,0.00733
6701.42859,0.01004
6703.35706,0.01138
6705.28553,-0.02232
6707.21400,-0.02488
6709.14247,0.04969
6711.07093,0.11573
6712.99940,0.09666
6714.92787,0.03616
6716.85634,0.02619
6718.78481,0.09391
6720.71328,0.19440
6722.64175,0.25809
6724.57021,0.26064
6726.49868,0.22434
6728.42715,0.16400
6730.35562,0.12038
6732.28409,0.12843
6734.21256,0.11195
6736.14103,0.04904
6738.06950,0.05391
6739.99796,0.11301
6741.92643,0.15139
6743.85490,0.18602
6745.78337,0.18357
6747.71184,0.11675
6749.64031,0.03979
6751.56878,-0.00777
6753.49724,-0.03380
6755.42571,-0.06069
6757.35418,-0.07695
6759.28265,-0.02053
6761.21112,0.09167
6763.13959,0.13544
6765.06806,0.13931
6766.99653,0.13474
6768.92499,0.09783
6770.85346,0.08790
6772.78193,0.11523
6774.71040,0.11730
6776.63887,0.08293
6778.56734,0.05718
6780.49581,0.03727
6782.42427,0.00623
6784.35274,0.00247
6786.28121,0.07006
6788.20968,0.16176
6790.13815,0.11593
6792.06662,-0.03761
6793.99509,-0.05761
6795.92355,-0.03050
6797.85202,-0.07792
6799.78049,-0.06643
6801.70896,0.06222
6803.63743,0.19395
6805.56590,0.23503
6807.49437,0.17803
6809.42284,0.09537
6811.35130,0.05161
6813.27977,0.02466
6815.20824,0.00564
6817.13671,0.04373
6819.06518,0.11590
6820.99365,0.17763
6822.92212,0.21308
6824.85058,0.21389
6826.77905,0.20049
6828.70752,0.17242
6830.63599,0.13763
6832.56446,0.10538
6834.49293,0.04587
6836.42140,0.00869
6838.34987,0.04375
6840.27833,0.06932
6842.20680,0.05297
6844.13527,0.01410
6846.06374,-0.04389
6847.99221,-0.10664
6849.92068,-0.13213
6851.84915,-0.09246
6853.77761,0.00864
6855.70608,0.15345
6857.63455,0.23401
6859.56302,0.18003
6861.49149,0.04864
6863.41996,-0.03100
6865.34843,-0.04783
6867.27690,-0.09333
6869.20536,-0.09876
6871.13383,0.01280
6873.06230,0.13003
6874.99077,0.14616
6876.91924,0.14464
6878.84771,0.17390
6880.77618,0.14637
6882.70464,0.05664
6884.63311,-0.00549
6886.56158,-0.02754
6888.49005,-0.03310
6890.41852,-0.03898
6892.34699,-0.00714
6894.27546,0.10170
6896.20393,0.22308
6898.13239,0.26876
6900.06086,0.24924
6901.98933,0.20877
6903.91780,0.16114
6905.84627,0.10591
6907.77474,0.05907
6909.70321,0.09722
6911.63167,0.20032
6913.56014,0.21644
6915.48861,0.12466
6917.41708,0.10424
6919.34555,0.21412
6921.27402,0.22737
6923.20249,0.11374
6925.13096,0.05357
6927.05942,0.02187
6928.98789,-0.02560
6930.91636,0.02028
6932.84483,0.13386
6934.77330,0.13914
6936.70177,0.08250
6938.63024,0.10235
6940.55870,0.16332
6942.48717,0.14488
6944.41564,0.10903
6946.34411,0.08232
6948.27258,0.08004
6950.20105,0.14461
6952.12952,0.19820
6954.05799,0.16791
6955.98645,0.10361
6957.91492,0.06496
6959.84339,0.00448
6961.77186,-0.06685
6963.70033,-0.10716
6965.62880,-0.15777
6967.55727,-0.15269
6969.48573,-0.01513
6971.41420,0.14615
6973.34267,0.26383
6975.27114,0.30156
6977.19961,0.20062
6979.12808,0.07121
6981.05655,0.04561
6982.98501,0.10317
6984.91348,0.10979
6986.84195,0.04748
6988.77042,-0.01470
6990.69889,-0.07846
6992.62736,-0.12443
6994.55583,-0.11685
6996.48430,-0.07781
6998.41276,-0.05586
7000.34123,-0.07267
7002.26970,-0.04781
7004.19817,0.07997
7006.12664,0.21001
7008.05511,0.23488
7009.98358,0.22818
7011.91204,0.26754
7013.84051,0.32808
7015.76898,0.34695
7017.69745,0.28038
7019.62592,0.18514
7021.55439,0.15995
7023.48286,0.18397
7025.41133,0.25268
7027.33979,0.35580
7029.26826,0.34365
7031.19673,0.21753
7033.12520,0.13160
7035.05367,0.10055
7036.98214,0.06951
7038.91061,0.05172
7040.83907,0.06507
7042.76754,0.11444
7044.69601,0.19740
7046.62448,0.18836
7048.55295,0.06359
7050.48142,0.02990
7052.40989,0.11670
7054.33836,0.18228
7056.26682,0.20029
7058.19529,0.20201
7060.12376,0.16081
7062.05223,0.09956
7063.98070,0.07452
7065.90917,0.11034
7067.83764,0.18012
7069.76610,0.21044
7071.69457,0.11209
7073.62304,-0.01769
7075.55151,-0.04388
7077.47998,0.00105
7079.40845,0.05477
7081.33692,0.06721
7083.26539,0.04669
7085.19385,0.05840
7087.12232,0.08812
7089.05079,0.08759
7090.97926,0.04543
7092.90773,-0.02340
7094.83620,-0.08108
7096.76467,-0.08388
7098.69313,0.00333
7100.62160,0.07908
7102.55007,0.02529
7104.47854,-0.09152
7106.40701,-0.11905
7108.33548,-0.02032
7110.26395,0.07661
7112.19242,0.09276
7114.12088,0.04451
7116.04935,0.00097
7117.97782,-0.01292
7119.90629,-0.06213
7121.83476,-0.10014
7123.76323,-0.09452
7125.69170,-0.06310
7127.62016,-0.02161
7129.54863,-0.00870
7131.47710,0.03358
7133.40557,0.08201
7135.33404,0.01287
7137.26251,-0.08532
7139.19098,-0.07379
7141.11944,-0.07941
7143.04791,-0.17228
7144.97638,-0.13755
7146.90485,0.03456
7148.83332,0.11073
7150.76179,0.08331
7152.69026,0.09823
7154.61873,0.21468
7156.54719,0.24383
7158.47566,0.10672
7160.40413,-0.02205
7162.33260,-0.05824
7164.26107,-0.02469
7166.18954,0.10074
7168.11801,0.25450
7170.04647,0.35191
7171.97494,0.33715
7173.90341,0.27978
7175.83188,0.28891
7177.76035,0.28802
7179.68882,0.19801
7181.61729,0.07672
7183.54576,-0.03981
7185.47422,-0.08766
7187.40269,0.02481
7189.33116,0.15644
7191.25963,0.05524
7193.18810,-0.20068
7195.11657,-0.30706
7197.04504,-0.18690
7198.97350,-0.02044
7200.90197,0.08063
7202.83044,0.15971
7204.75891,0.18682
7206.68738,0.13627
7208.61585,0.10148
7210.54432,0.08976
7212.47279,0.07223
7214.40125,0.05955
7216.32972,0.01665
7218.25819,-0.11115
7220.18666,-0.17623
7222.11513,-0.06089
7224.04360,0.13172
7225.97207,0.18846
7227.90053,0.08426
7229.82900,-0.01847
7231.75747,-0.04815
7233.68594,-0.05521
7235.61441,-0.09669
7237.54288,-0.07672
7239.47135,0.04427
7241.39982,0.15914
7243.32828,0.20622
7245.25675,0.17818
7247.18522,0.11399
7249.11369,0.04969
7251.04216,0.03282
7252.97063,0.05215
7254.89910,0.00889
7256.82756,-0.07196
7258.75603,-0.16272
7260.68450,-0.18912
7262.61297,-0.02702
7264.54144,0.11870
7266.46991,0.09165
7268.39838,0.06344
7270.32685,0.06598
7272.25531,-0.00548
7274.18378,-0.09630
7276.11225,-0.13797
7278.04072,-0.11725
7279.96919,0.02256
7281.89766,0.19031
7283.82613,0.26247
7285.75459,0.25951
7287.68306,0.29054
7289.61153,0.36840
7291.54000,0.35215
7293.46847,0.21144
7295.39694,0.04546
7297.32541,-0.02280
7299.25387,0.02745
7301.18234,0.07849
7303.11081,0.06818
7305.03928,0.12621
7306.96775,0.33108
7308.89622,0.46670
7310.82469,0.38263
7312.75316,0.23915
7314.68162,0.10382
7316.61009,-0.00607
7318.53856,-0.02373
7320.46703,0.09050
7322.39550,0.20501
7324.32397,0.12625
7326.25244,0.02344
7328.18090,0.11883
7330.10937,0.11601
7332.03784,-0.10513
7333.96631,-0.18558
7335.89478,-0.14216
7337.82325,-0.04750
7339.75172,0.07901
7341.68019,0.09818
7343.60865,0.16607
7345.53712,0.31084
7347.46559,0.29370
7349.39406,0.11071
7351.32253,-0.01822
7353.25100,-0.09909
7355.17947,-0.22720
7357.10793,-0.33015
7359.03640,-0.18371
7360.96487,0.07295
7362.89334,0.14468
7364.82181,0.10761
7366.75028,0.06345
7368.67875,-0.01956
7370.60722,-0.08811
7372.53568,-0.08008
7374.46415,0.00200
7376.39262,0.20696
7378.32109,0.43625
7380.24956,0.47466
7382.17803,0.19740
7384.10650,-0.12667
7386.03496,-0.18132
7387.96343,-0.15934
7389.89190,-0.19624
7391.82037,-0.09432
7393.74884,0.09764
7395.67731,0.18270
7397.60578,0.17017
7399.53425,0.17474
7401.46271,0.27906
7403.39118,0.42450
7405.31965,0.38465
7407.24812,0.16167
7409.17659,-0.00930
7411.10506,0.03086
7413.03353,0.19553
7414.96199,0.26496
7416.89046,0.20171
7418.81893,0.16754
7420.74740,0.18968
7422.67587,0.06587
7424.60434,-0.13564
7426.53281,-0.14406
7428.46128,0.10624
7430.38974,0.24897
7432.31821,0.14863
7434.24668,0.22125
7436.17515,0.36760
7438.10362,0.29050
7440.03209,0.17111
7441.96056,0.16507
7443.88902,0.12751
7445.81749,0.03859
7447.74596,-0.03398
7449.67443,-0.04895
7451.60290,0.02704
7453.53137,0.06735
7455.45984,0.00823
7457.38831,-0.10807
7459.31677,-0.21570
7461.24524,-0.20973
7463.17371,-0.15312
7465.10218,-0.09030
7467.03065,-0.05008
7468.95912,-0.00281
7470.88759,0.09921
7472.81605,0.06071
7474.74452,-0.15153
7476.67299,-0.29368
7478.60146,-0.28741
7480.52993,-0.27801
7482.45840,-0.28815
7484.38687,-0.24853
7486.31533,-0.17918
7488.24380,-0.06768
7490.17227,0.08692
7492.10074,0.13681
7494.02921,-0.00422
7495.95768,-0.13905
7497.88615,-0.02222
