399.19301,2.79754
401.12148,-0.06475
403.04995,0.07624
404.97842,0.29926
406.90689,0.31491
408.83536,0.20635
410.76382,0.00129
412.69229,-0.10859
414.62076,-0.04215
416.54923,0.11780
418.47770,0.39577
420.40617,0.46508
422.33464,0.26168
424.26311,0.15123
426.19157,0.13405
428.12004,0.09288
430.04851,0.05991
431.97698,0.05522
433.90545,0.07095
435.83392,0.07452
437.76239,0.05527
439.69085,0.06714
441.61932,0.13613
443.54779,0.17651
445.47626,0.14630
447.40473,0.13776
449.33320,0.13838
451.26167,0.11256
453.19013,0.10999
455.11860,0.12976
457.04707,0.07845
458.97554,-0.05326
460.90401,-0.12965
462.83248,-0.11276
464.76095,-0.03717
466.68942,0.05045
468.61788,0.09674
470.54635,0.16017
472.47482,0.53000
474.40329,0.92277
476.33176,0.56326
478.26023,0.20271
480.18870,0.10486
482.11716,0.09351
484.04563,0.11441
485.97410,0.13053
487.90257,0.11310
489.83104,0.11226
491.75951,0.13268
493.68798,0.15463
495.61645,0.15021
497.54491,0.09135
499.47338,0.04886
501.40185,0.08369
503.33032,0.12666
505.25879,0.11865
507.18726,0.09646
509.11573,0.09294
511.04419,0.10453
512.97266,0.12225
514.90113,0.14358
516.82960,0.17599
518.75807,0.19800
520.68654,0.17308
522.61501,0.13758
524.54348,0.13554
526.47194,0.14454
528.40041,0.13879
530.32888,0.12879
532.25735,0.12466
534.18582,0.12491
536.11429,0.11766
538.04276,0.08821
539.97122,0.07916
541.89969,0.10260
543.82816,0.09236
545.75663,0.06694
547.68510,0.08823
549.61357,0.12387
551.54204,0.06332
553.47051,-0.04140
555.39897,-0.00231
557.32744,0.09859
559.25591,0.10881
561.18438,0.10546
563.11285,0.11917
565.04132,0.12817
566.96979,0.13741
568.89825,0.12634
570.82672,0.11151
572.75519,0.10205
574.68366,0.09216
576.61213,0.10487
578.54060,0.12474
580.46907,0.11196
582.39754,0.09416
584.32600,0.10883
586.25447,0.12261
588.18294,0.11091
590.11141,0.09201
592.03988,0.07087
593.96835,0.05769
595.89682,0.07363
597.82528,0.09896
599.75375,0.11205
601.68222,0.12104
603.61069,0.12761
605.53916,0.12239
607.46763,0.09917
609.39610,0.07837
611.32456,0.08194
613.25303,0.09559
615.18150,0.11079
617.10997,0.12781
619.03844,0.12718
620.96691,0.11502
622.89538,0.11048
624.82385,0.10163
626.75231,0.09020
628.68078,0.10166
630.60925,0.13146
632.53772,0.14337
634.46619,0.12619
636.39466,0.11257
638.32313,0.10755
640.25159,0.09586
642.18006,0.09530
644.10853,0.10624
646.03700,0.11164
647.96547,0.11942
649.89394,0.12882
651.82241,0.13062
653.75088,0.12891
655.67934,0.12394
657.60781,0.11923
659.53628,0.12219
661.46475,0.12950
663.39322,0.13697
665.32169,0.13857
667.25016,0.12192
669.17862,0.09968
671.10709,0.10663
673.03556,0.11894
674.96403,0.12266
676.89250,0.11791
678.82097,0.11056
680.74944,0.11266
682.67791,0.12249
684.60637,0.12828
686.53484,0.11945
688.46331,0.10877
690.39178,0.12157
692.32025,0.14006
694.24872,0.14011
696.17719,0.12915
698.10565,0.12307
700.03412,0.12601
701.96259,0.12858
703.89106,0.12780
705.81953,0.13325
707.74800,0.16149
709.67647,0.22989
711.60494,0.28652
713.53340,0.24613
715.46187,0.16427
717.39034,0.13167
719.31881,0.13101
721.24728,0.13568
723.17575,0.13904
725.10422,0.14163
727.03268,0.14045
728.96115,0.13146
730.88962,0.13060
732.81809,0.14480
734.74656,0.16282
736.67503,0.16920
738.60350,0.16130
740.53197,0.15738
742.46043,0.16612
744.38890,0.16988
746.31737,0.16159
748.24584,0.15056
750.17431,0.13867
752.10278,0.12954
754.03125,0.12740
755.95971,0.13072
757.88818,0.13895
759.81665,0.15278
761.74512,0.16391
763.67359,0.16427
765.60206,0.15977
767.53053,0.15234
769.45900,0.14375
771.38746,0.14029
773.31593,0.13771
775.24440,0.13237
777.17287,0.12667
779.10134,0.12292
781.02981,0.12569
782.95828,0.13670
784.88674,0.14608
786.81521,0.14695
788.74368,0.14572
790.67215,0.14306
792.60062,0.14054
794.52909,0.13810
796.45756,0.12950
798.38602,0.12260
800.31449,0.12365
802.24296,0.13736
804.17143,0.15856
806.09990,0.16122
808.02837,0.14069
809.95684,0.12159
811.88531,0.11870
813.81377,0.12288
815.74224,0.13092
817.67071,0.14128
819.59918,0.13719
821.52765,0.12539
823.45612,0.12278
825.38459,0.12551
827.31305,0.13083
829.24152,0.14073
831.16999,0.15351
833.09846,0.15786
835.02693,0.14871
836.95540,0.14113
838.88387,0.13710
840.81234,0.13166
842.74080,0.13255
844.66927,0.13730
846.59774,0.13539
848.52621,0.13229
850.45468,0.13621
852.38315,0.14305
854.31162,0.15135
856.24008,0.15728
858.16855,0.15590
860.09702,0.15406
862.02549,0.15519
863.95396,0.15772
865.88243,0.15671
867.81090,0.14327
869.73937,0.12642
871.66783,0.12338
873.59630,0.13144
875.52477,0.13831
877.45324,0.13939
879.38171,0.13911
881.31018,0.14396
883.23865,0.15180
885.16711,0.15624
887.09558,0.15887
889.02405,0.15979
890.95252,0.15530
892.88099,0.15244
894.80946,0.15486
896.73793,0.15292
898.66640,0.14326
900.59486,0.13115
902.52333,0.12187
904.45180,0.12212
906.38027,0.13357
908.30874,0.14677
910.23721,0.15357
912.16568,0.15827
914.09414,0.16298
916.02261,0.16287
917.95108,0.15979
919.87955,0.15241
921.80802,0.14125
923.73649,0.13691
925.66496,0.13833
927.59343,0.14121
929.52189,0.14617
931.45036,0.14797
933.37883,0.14670
935.30730,0.14543
937.23577,0.14357
939.16424,0.14523
941.09271,0.14950
943.02117,0.15145
944.94964,0.15426
946.87811,0.15720
948.80658,0.15453
950.73505,0.14718
952.66352,0.14161
954.59199,0.14353
956.52045,0.14983
958.44892,0.15234
960.37739,0.15134
962.30586,0.15313
964.23433,0.15542
966.16280,0.15477
968.09127,0.15370
970.01974,0.15217
971.94820,0.15142
973.87667,0.14824
975.80514,0.13957
977.73361,0.13960
979.66208,0.15387
981.59055,0.16260
983.51902,0.15945
985.44748,0.16002
987.37595,0.16365
989.30442,0.15901
991.23289,0.15076
993.16136,0.14571
995.08983,0.14134
997.01830,0.13714
998.94677,0.13555
1000.87523,0.13763
1002.80370,0.14460
1004.73217,0.15197
1006.66064,0.15544
1008.58911,0.15872
1010.51758,0.16318
1012.44605,0.16785
1014.37451,0.16932
1016.30298,0.16581
1018.23145,0.16123
1020.15992,0.15877
1022.08839,0.16098
1024.01686,0.16202
1025.94533,0.15385
1027.87380,0.14371
1029.80226,0.14350
1031.73073,0.14836
1033.65920,0.14910
1035.58767,0.14995
1037.51614,0.15027
1039.44461,0.14615
1041.37308,0.14561
1043.30154,0.15133
1045.23001,0.15487
1047.15848,0.15256
1049.08695,0.14956
1051.01542,0.14937
1052.94389,0.14860
1054.87236,0.14745
1056.80083,0.14934
1058.72929,0.15317
1060.65776,0.15722
1062.58623,0.15954
1064.51470,0.15965
1066.44317,0.15916
1068.37164,0.15776
1070.30011,0.15841
1072.22857,0.16564
1074.15704,0.17378
1076.08551,0.17474
1078.01398,0.17383
1079.94245,0.17645
1081.87092,0.17443
1083.79939,0.16806
1085.72786,0.16661
1087.65632,0.16377
1089.58479,0.15375
1091.51326,0.14234
1093.44173,0.13545
1095.37020,0.14058
1097.29867,0.15354
1099.22714,0.16151
1101.15560,0.16456
1103.08407,0.16493
1105.01254,0.15975
1106.94101,0.15323
1108.86948,0.15780
1110.79795,0.17155
1112.72642,0.17549
1114.65489,0.16830
1116.58335,0.16428
1118.51182,0.16630
1120.44029,0.16869
1122.36876,0.16756
1124.29723,0.16486
1126.22570,0.16378
1128.15417,0.16341
1130.08263,0.16275
1132.01110,0.16181
1133.93957,0.15980
1135.86804,0.15724
1137.79651,0.15693
1139.72498,0.15827
1141.65345,0.16111
1143.58191,0.16805
1145.51038,0.17267
1147.43885,0.17119
1149.36732,0.17124
1151.29579,0.17031
1153.22426,0.16620
1155.15273,0.16722
1157.08120,0.17091
1159.00966,0.17183
1160.93813,0.17102
1162.86660,0.16947
1164.79507,0.16903
1166.72354,0.16970
1168.65201,0.16878
1170.58048,0.16565
1172.50894,0.16413
1174.43741,0.16479
1176.36588,0.16528
1178.29435,0.16722
1180.22282,0.16935
1182.15129,0.16951
1184.07976,0.16945
1186.00823,0.16714
1187.93669,0.16283
1189.86516,0.16402
1191.79363,0.16913
1193.72210,0.17142
1195.65057,0.17134
1197.57904,0.16897
1199.50751,0.16549
1201.43597,0.16458
1203.36444,0.16550
1205.29291,0.16594
1207.22138,0.16663
1209.14985,0.16849
1211.07832,0.17085
1213.00679,0.17336
1214.93526,0.17623
1216.86372,0.17682
1218.79219,0.17241
1220.72066,0.16870
1222.64913,0.16908
1224.57760,0.16855
1226.50607,0.16672
1228.43454,0.16585
1230.36300,0.16787
1232.29147,0.17197
1234.21994,0.17052
1236.14841,0.16579
1238.07688,0.16661
1240.00535,0.16977
1241.93382,0.17121
1243.86229,0.17049
1245.79075,0.16626
1247.71922,0.16284
1249.64769,0.16172
1251.57616,0.15896
1253.50463,0.15796
1255.43310,0.16262
1257.36157,0.16628
1259.29003,0.16381
1261.21850,0.16089
1263.14697,0.16199
1265.07544,0.16426
1267.00391,0.16428
1268.93238,0.16356
1270.86085,0.16583
1272.78932,0.16679
1274.71778,0.16321
1276.64625,0.16399
1278.57472,0.17043
1280.50319,0.17171
1282.43166,0.16808
1284.36013,0.16612
1286.28860,0.16418
1288.21706,0.16362
1290.14553,0.16772
1292.07400,0.16996
1294.00247,0.16567
1295.93094,0.15951
1297.85941,0.15367
1299.78788,0.14466
1301.71634,0.13045
1303.64481,0.11800
1305.57328,0.12304
1307.50175,0.14371
1309.43022,0.15870
1311.35869,0.16495
1313.28716,0.17011
1315.21563,0.17223
1317.14409,0.17185
1319.07256,0.16981
1321.00103,0.16609
1322.92950,0.16347
1324.85797,0.15783
1326.78644,0.15150
1328.71491,0.15533
1330.64337,0.16307
1332.57184,0.16654
1334.50031,0.16769
1336.42878,0.16707
1338.35725,0.16591
1340.28572,0.16153
1342.21419,0.16134
1344.14266,0.17359
1346.07112,0.18160
1347.99959,0.17261
1349.92806,0.16179
1351.85653,0.16046
1353.78500,0.16026
1355.71347,0.15863
1357.64194,0.15998
1359.57040,0.16478
1361.49887,0.17248
1363.42734,0.17699
1365.35581,0.17444
1367.28428,0.17318
1369.21275,0.17627
1371.14122,0.17770
1373.06969,0.17767
1374.99815,0.17835
1376.92662,0.17779
1378.85509,0.17713
1380.78356,0.17798
1382.71203,0.18061
1384.64050,0.18191
1386.56897,0.17920
1388.49743,0.17635
1390.42590,0.17891
1392.35437,0.18694
1394.28284,0.19732
1396.21131,0.20524
1398.13978,0.20555
1400.06825,0.19674
1401.99672,0.18803
1403.92518,0.18609
1405.85365,0.18704
1407.78212,0.18759
1409.71059,0.18878
1411.63906,0.18793
1413.56753,0.18405
1415.49600,0.18342
1417.42446,0.18963
1419.35293,0.19311
1421.28140,0.18993
1423.20987,0.18904
1425.13834,0.18831
1427.06681,0.18803
1428.99528,0.19015
1430.92375,0.19018
1432.85221,0.18940
1434.78068,0.19264
1436.70915,0.19480
1438.63762,0.18908
1440.56609,0.18347
1442.49456,0.18200
1444.42303,0.18391
1446.35149,0.18820
1448.27996,0.19101
1450.20843,0.18989
1452.13690,0.19072
1454.06537,0.19809
1455.99384,0.21004
1457.92231,0.21105
1459.85077,0.19825
1461.77924,0.19270
1463.70771,0.19486
1465.63618,0.19401
1467.56465,0.18955
1469.49312,0.19327
1471.42159,0.20623
1473.35006,0.21151
1475.27852,0.20373
1477.20699,0.19709
1479.13546,0.19402
1481.06393,0.19578
1482.99240,0.19880
1484.92087,0.19960
1486.84934,0.20123
1488.77780,0.20559
1490.70627,0.20694
1492.63474,0.20486
1494.56321,0.20551
1496.49168,0.20724
1498.42015,0.20414
1500.34862,0.20410
1502.27709,0.21143
1504.20555,0.22128
1506.13402,0.23172
1508.06249,0.22540
1509.99096,0.20971
1511.91943,0.20223
1513.84790,0.20177
1515.77637,0.20650
1517.70483,0.21111
1519.63330,0.21511
1521.56177,0.21645
1523.49024,0.20937
1525.41871,0.20462
1527.34718,0.19955
1529.27565,0.19341
1531.20412,0.19659
1533.13258,0.20832
1535.06105,0.21224
1536.98952,0.21189
1538.91799,0.22134
1540.84646,0.23021
1542.77493,0.22122
1544.70340,0.21002
1546.63186,0.20078
1548.56033,0.19817
1550.48880,0.20066
1552.41727,0.20158
1554.34574,0.20519
1556.27421,0.21918
1558.20268,0.23890
1560.13115,0.22557
1562.05961,0.20450
1563.98808,0.19603
1565.91655,0.19381
1567.84502,0.19884
1569.77349,0.20187
1571.70196,0.19227
1573.63043,0.18671
1575.55889,0.19240
1577.48736,0.19593
1579.41583,0.19002
1581.34430,0.18355
1583.27277,0.18005
1585.20124,0.18072
1587.12971,0.18383
1589.05818,0.18602
1590.98664,0.18704
1592.91511,0.18551
1594.84358,0.18252
1596.77205,0.18308
1598.70052,0.18505
1600.62899,0.18480
1602.55746,0.18340
1604.48592,0.18342
1606.41439,0.18524
1608.34286,0.18613
1610.27133,0.18494
1612.19980,0.18289
1614.12827,0.18169
1616.05674,0.18379
1617.98521,0.18867
1619.91367,0.19364
1621.84214,0.19864
1623.77061,0.19887
1625.69908,0.19393
1627.62755,0.18894
1629.55602,0.18550
1631.48449,0.18725
1633.41295,0.19651
1635.34142,0.21091
1637.26989,0.21084
1639.19836,0.20062
1641.12683,0.19787
1643.05530,0.20462
1644.98377,0.21951
1646.91223,0.23055
1648.84070,0.22045
1650.76917,0.21308
1652.69764,0.21963
1654.62611,0.21577
1656.55458,0.20412
1658.48305,0.20147
1660.41152,0.20701
1662.33998,0.21036
1664.26845,0.20261
1666.19692,0.19823
1668.12539,0.20564
1670.05386,0.21581
1671.98233,0.21743
1673.91080,0.21506
1675.83926,0.20794
1677.76773,0.20105
1679.69620,0.20469
1681.62467,0.21991
1683.55314,0.23445
1685.48161,0.22222
1687.41008,0.20758
1689.33855,0.20527
1691.26701,0.20538
1693.19548,0.20602
1695.12395,0.21219
1697.05242,0.22157
1698.98089,0.22587
1700.90936,0.22178
1702.83783,0.21666
1704.76629,0.21366
1706.69476,0.20663
1708.62323,0.19900
1710.55170,0.19637
1712.48017,0.20092
1714.40864,0.21438
1716.33711,0.22890
1718.26558,0.22191
1720.19404,0.20235
1722.12251,0.19191
1724.05098,0.19011
1725.97945,0.19093
1727.90792,0.19364
1729.83639,0.19950
1731.76486,0.20741
1733.69332,0.21192
1735.62179,0.20557
1737.55026,0.19994
1739.47873,0.19866
1741.40720,0.19907
1743.33567,0.19976
1745.26414,0.19821
1747.19261,0.19687
1749.12107,0.19834
1751.04954,0.19520
1752.97801,0.18862
1754.90648,0.18761
1756.83495,0.19117
1758.76342,0.19455
1760.69189,0.19796
1762.62035,0.19850
1764.54882,0.19389
1766.47729,0.19150
1768.40576,0.19594
1770.33423,0.20506
1772.26270,0.20914
1774.19117,0.20154
1776.11964,0.19413
1778.04810,0.19418
1779.97657,0.19925
1781.90504,0.20055
1783.83351,0.19479
1785.76198,0.18852
1787.69045,0.18777
1789.61892,0.19467
1791.54738,0.20685
1793.47585,0.21066
1795.40432,0.20446
1797.33279,0.20072
1799.26126,0.20170
1801.18973,0.20154
1803.11820,0.19663
1805.04666,0.19160
1806.97513,0.19043
1808.90360,0.19160
1810.83207,0.19066
1812.76054,0.18708
1814.68901,0.18550
1816.61748,0.18499
1818.54595,0.17890
1820.47441,0.16905
1822.40288,0.17047
1824.33135,0.18840
1826.25982,0.20259
1828.18829,0.20293
1830.11676,0.19905
1832.04523,0.19359
1833.97369,0.18901
1835.90216,0.18914
1837.83063,0.19206
1839.75910,0.19333
1841.68757,0.19385
1843.61604,0.19483
1845.54451,0.19323
1847.47298,0.19105
1849.40144,0.19037
1851.32991,0.18881
1853.25838,0.18696
1855.18685,0.18637
1857.11532,0.18671
1859.04379,0.18838
1860.97226,0.19065
1862.90072,0.19293
1864.82919,0.19597
1866.75766,0.19915
1868.68613,0.19901
1870.61460,0.19364
1872.54307,0.18899
1874.47154,0.18867
1876.40001,0.18988
1878.32847,0.19019
1880.25694,0.19039
1882.18541,0.18976
1884.11388,0.18745
1886.04235,0.18632
1887.97082,0.18906
1889.89929,0.19268
1891.82775,0.19293
1893.75622,0.19262
1895.68469,0.19293
1897.61316,0.19185
1899.54163,0.19138
1901.47010,0.19153
1903.39857,0.18987
1905.32704,0.18926
1907.25550,0.19096
1909.18397,0.18992
1911.11244,0.18697
1913.04091,0.18735
1914.96938,0.19049
1916.89785,0.19331
1918.82632,0.19417
1920.75478,0.19395
1922.68325,0.19302
1924.61172,0.19200
1926.54019,0.19179
1928.46866,0.19074
1930.39713,0.18962
1932.32560,0.18986
1934.25407,0.19016
1936.18253,0.18961
1938.11100,0.18887
1940.03947,0.19076
1941.96794,0.19550
1943.89641,0.19656
1945.82488,0.19327
1947.75335,0.19201
1949.68181,0.19146
1951.61028,0.18901
1953.53875,0.18914
1955.46722,0.19178
1957.39569,0.19241
1959.32416,0.19312
1961.25263,0.19554
1963.18110,0.19682
1965.10956,0.19610
1967.03803,0.19431
1968.96650,0.19209
1970.89497,0.18930
1972.82344,0.18568
1974.75191,0.18356
1976.68038,0.18718
1978.60884,0.19280
1980.53731,0.19289
1982.46578,0.19071
1984.39425,0.19053
1986.32272,0.19030
1988.25119,0.18946
1990.17966,0.18910
1992.10812,0.18892
1994.03659,0.18870
1995.96506,0.18887
1997.89353,0.18873
1999.82200,0.18889
2001.75047,0.19013
2003.67894,0.19093
2005.60741,0.19008
2007.53587,0.18750
2009.46434,0.18557
2011.39281,0.18672
2013.32128,0.19009
2015.24975,0.19385
2017.17822,0.19609
2019.10669,0.19528
2021.03515,0.19356
2022.96362,0.19327
2024.89209,0.19295
2026.82056,0.19214
2028.74903,0.19106
2030.67750,0.18952
2032.60597,0.18960
2034.53444,0.19091
2036.46290,0.19137
2038.39137,0.19134
2040.31984,0.19082
2042.24831,0.19049
2044.17678,0.19136
2046.10525,0.19193
2048.03372,0.19119
2049.96218,0.19037
2051.89065,0.18959
2053.81912,0.18879
2055.74759,0.18899
2057.67606,0.18808
2059.60453,0.18520
2061.53300,0.18489
2063.46147,0.18965
2065.38993,0.19613
2067.31840,0.19918
2069.24687,0.19803
2071.17534,0.19498
2073.10381,0.19089
2075.03228,0.18772
2076.96075,0.18692
2078.88921,0.18714
2080.81768,0.18782
2082.74615,0.18815
2084.67462,0.18795
2086.60309,0.18953
2088.53156,0.19207
2090.46003,0.19217
2092.38850,0.19001
2094.31696,0.18922
2096.24543,0.19028
2098.17390,0.19002
2100.10237,0.18949
2102.03084,0.19154
2103.95931,0.19474
2105.88778,0.19556
2107.81624,0.19300
2109.74471,0.19139
2111.67318,0.19364
2113.60165,0.19599
2115.53012,0.19578
2117.45859,0.19439
2119.38706,0.19363
2121.31553,0.19391
2123.24399,0.19354
2125.17246,0.19120
2127.10093,0.18869
2129.02940,0.18913
2130.95787,0.19129
2132.88634,0.19190
2134.81481,0.19066
2136.74327,0.19059
2138.67174,0.19285
2140.60021,0.19259
2142.52868,0.19032
2144.45715,0.19121
2146.38562,0.19296
2148.31409,0.19211
2150.24255,0.19105
2152.17102,0.19138
2154.09949,0.19194
2156.02796,0.19510
2157.95643,0.19972
2159.88490,0.19971
2161.81337,0.19646
2163.74184,0.19438
2165.67030,0.19343
2167.59877,0.19222
2169.52724,0.18997
2171.45571,0.18745
2173.38418,0.18705
2175.31265,0.18819
2177.24112,0.18771
2179.16958,0.18606
2181.09805,0.18608
2183.02652,0.18826
2184.95499,0.19086
2186.88346,0.19310
2188.81193,0.19494
2190.74040,0.19584
2192.66887,0.19544
2194.59733,0.19470
2196.52580,0.19476
2198.45427,0.19306
2200.38274,0.18895
2202.31121,0.18786
2204.23968,0.19034
2206.16815,0.19205
2208.09661,0.19242
2210.02508,0.19173
2211.95355,0.18963
2213.88202,0.18814
2215.81049,0.18912
2217.73896,0.18983
2219.66743,0.18742
2221.59590,0.18473
2223.52436,0.18424
2225.45283,0.18629
2227.38130,0.19016
2229.30977,0.19137
2231.23824,0.18886
2233.16671,0.18797
2235.09518,0.18970
2237.02364,0.19026
2238.95211,0.18917
2240.88058,0.18694
2242.80905,0.18411
2244.73752,0.18442
2246.66599,0.18825
2248.59446,0.19130
2250.52293,0.19260
2252.45139,0.19369
2254.37986,0.19452
2256.30833,0.19472
2258.23680,0.19455
2260.16527,0.19357
2262.09374,0.19112
2264.02221,0.18921
2265.95067,0.18973
2267.87914,0.19128
2269.80761,0.19212
2271.73608,0.19167
2273.66455,0.19082
2275.59302,0.19052
2277.52149,0.18964
2279.44996,0.18828
2281.37842,0.18913
2283.30689,0.19211
2285.23536,0.19321
2287.16383,0.19077
2289.09230,0.18884
2291.02077,0.19000
2292.94924,0.19038
2294.87770,0.18859
2296.80617,0.18816
2298.73464,0.18843
2300.66311,0.18646
2302.59158,0.18430
2304.52005,0.18391
2306.44852,0.18383
2308.37699,0.18365
2310.30545,0.18483
2312.23392,0.18760
2314.16239,0.18974
2316.09086,0.19122
2318.01933,0.19112
2319.94780,0.18705
2321.87627,0.18406
2323.80473,0.18314
2325.73320,0.17955
2327.66167,0.17786
2329.59014,0.17998
2331.51861,0.18101
2333.44708,0.18552
2335.37555,0.19281
2337.30401,0.18788
2339.23248,0.17026
2341.16095,0.15338
2343.08942,0.14330
2345.01789,0.14461
2346.94636,0.15689
2348.87483,0.17156
2350.80330,0.18714
2352.73176,0.20084
2354.66023,0.19768
2356.58870,0.17076
2358.51717,0.14207
2360.44564,0.14241
2362.37411,0.16811
2364.30258,0.19154
2366.23104,0.20427
2368.15951,0.20697
2370.08798,0.19164
2372.01645,0.17177
2373.94492,0.16981
2375.87339,0.18095
2377.80186,0.19058
2379.73033,0.19453
2381.65879,0.19456
2383.58726,0.19255
2385.51573,0.19169
2387.44420,0.19469
2389.37267,0.19792
2391.30114,0.19634
2393.22961,0.19227
2395.15807,0.19035
2397.08654,0.18968
2399.01501,0.18984
2400.94348,0.19242
2402.87195,0.19484
2404.80042,0.19405
2406.72889,0.19220
2408.65736,0.19343
2410.58582,0.19633
2412.51429,0.19693
2414.44276,0.19529
2416.37123,0.19318
2418.29970,0.19208
2420.22817,0.19307
2422.15664,0.19427
2424.08510,0.19384
2426.01357,0.19421
2427.94204,0.19574
2429.87051,0.19571
2431.79898,0.19454
2433.72745,0.19375
2435.65592,0.19254
2437.58439,0.19219
2439.51285,0.19430
2441.44132,0.19577
2443.36979,0.19500
2445.29826,0.19391
2447.22673,0.19391
2449.15520,0.19598
2451.08367,0.20043
2453.01213,0.20285
2454.94060,0.20023
2456.86907,0.19646
2458.79754,0.19362
2460.72601,0.19157
2462.65448,0.19067
2464.58295,0.19122
2466.51142,0.19253
2468.43988,0.19217
2470.36835,0.19124
2472.29682,0.19182
2474.22529,0.19262
2476.15376,0.19286
2478.08223,0.19233
2480.01070,0.19060
2481.93916,0.18985
2483.86763,0.19186
2485.79610,0.19417
2487.72457,0.19364
2489.65304,0.19159
2491.58151,0.19217
2493.50998,0.19562
2495.43844,0.19827
2497.36691,0.19768
2499.29538,0.19688
2501.22385,0.19866
2503.15232,0.19943
2505.08079,0.19808
2507.00926,0.19671
2508.93773,0.19408
2510.86619,0.19135
2512.79466,0.19289
2514.72313,0.19594
2516.65160,0.19597
2518.58007,0.19614
2520.50854,0.19718
2522.43701,0.19716
2524.36547,0.19735
2526.29394,0.19521
2528.22241,0.18978
2530.15088,0.18941
2532.07935,0.19566
2534.00782,0.19903
2535.93629,0.19780
2537.86476,0.19687
2539.79322,0.19700
2541.72169,0.19717
2543.65016,0.19649
2545.57863,0.19361
2547.50710,0.19080
2549.43557,0.19150
2551.36404,0.19234
2553.29250,0.19071
2555.22097,0.18995
2557.14944,0.19027
2559.07791,0.18989
2561.00638,0.19130
2562.93485,0.19623
2564.86332,0.20075
2566.79179,0.20084
2568.72025,0.19787
2570.64872,0.19513
2572.57719,0.19429
2574.50566,0.19562
2576.43413,0.19621
2578.36260,0.19417
2580.29107,0.19236
2582.21953,0.19294
2584.14800,0.19523
2586.07647,0.19614
2588.00494,0.19431
2589.93341,0.19164
2591.86188,0.18942
2593.79035,0.19044
2595.71882,0.19465
2597.64728,0.19636
2599.57575,0.19521
2601.50422,0.19669
2603.43269,0.20110
2605.36116,0.20372
2607.28963,0.20121
2609.21810,0.19769
2611.14656,0.19858
2613.07503,0.19939
2615.00350,0.19732
2616.93197,0.19638
2618.86044,0.19623
2620.78891,0.19477
2622.71738,0.19473
2624.64585,0.19783
2626.57431,0.19995
2628.50278,0.19899
2630.43125,0.19645
2632.35972,0.19402
2634.28819,0.19455
2636.21666,0.19762
2638.14513,0.19953
2640.07359,0.20002
2642.00206,0.20051
2643.93053,0.19977
2645.85900,0.19711
2647.78747,0.19504
2649.71594,0.19575
2651.64441,0.19688
2653.57288,0.19607
2655.50134,0.19551
2657.42981,0.19620
2659.35828,0.19673
2661.28675,0.19729
2663.21522,0.19822
2665.14369,0.19977
2667.07216,0.20199
2669.00062,0.20309
2670.92909,0.20094
2672.85756,0.19680
2674.78603,0.19574
2676.71450,0.19766
2678.64297,0.19723
2680.57144,0.19559
2682.49990,0.19588
2684.42837,0.19755
2686.35684,0.20057
2688.28531,0.20326
2690.21378,0.20358
2692.14225,0.20223
2694.07072,0.19989
2695.99919,0.19995
2697.92765,0.20387
2699.85612,0.20501
2701.78459,0.20228
2703.71306,0.20029
2705.64153,0.19759
2707.57000,0.19541
2709.49847,0.19871
2711.42693,0.20383
2713.35540,0.20538
2715.28387,0.20428
2717.21234,0.20252
2719.14081,0.20108
2721.06928,0.19985
2722.99775,0.19991
2724.92622,0.20277
2726.85468,0.20631
2728.78315,0.20815
2730.71162,0.20698
2732.64009,0.20313
2734.56856,0.20019
2736.49703,0.20087
2738.42550,0.20341
2740.35396,0.20475
2742.28243,0.20383
2744.21090,0.20175
2746.13937,0.20039
2748.06784,0.20085
2749.99631,0.20402
2751.92478,0.20864
2753.85325,0.21081
2755.78171,0.21057
2757.71018,0.20995
2759.63865,0.20705
2761.56712,0.20181
2763.49559,0.19812
2765.42406,0.19903
2767.35253,0.20454
2769.28099,0.21118
2771.20946,0.21329
2773.13793,0.20786
2775.06640,0.20062
2776.99487,0.19809
2778.92334,0.19850
2780.85181,0.19962
2782.78028,0.20207
2784.70874,0.20479
2786.63721,0.20641
2788.56568,0.20829
2790.49415,0.21107
2792.42262,0.21303
2794.35109,0.21357
2796.27956,0.21186
2798.20802,0.20775
2800.13649,0.20605
2802.06496,0.20830
2803.99343,0.20809
2805.92190,0.20500
2807.85037,0.20456
2809.77884,0.20546
2811.70731,0.20356
2813.63577,0.20074
2815.56424,0.20096
2817.49271,0.20266
2819.42118,0.20504
2821.34965,0.20915
2823.27812,0.21098
2825.20659,0.20893
2827.13505,0.20707
2829.06352,0.20693
2830.99199,0.20641
2832.92046,0.20618
2834.84893,0.20860
2836.77740,0.21173
2838.70587,0.21185
2840.63433,0.20963
2842.56280,0.20972
2844.49127,0.21228
2846.41974,0.21300
2848.34821,0.21153
2850.27668,0.20934
2852.20515,0.20636
2854.13362,0.20382
2856.06208,0.20332
2857.99055,0.20443
2859.91902,0.20578
2861.84749,0.20596
2863.77596,0.20521
2865.70443,0.20750
2867.63290,0.21049
2869.56136,0.20736
2871.48983,0.20259
2873.41830,0.20163
2875.34677,0.20357
2877.27524,0.20731
2879.20371,0.20918
2881.13218,0.20738
2883.06065,0.20490
2884.98911,0.20483
2886.91758,0.20639
2888.84605,0.20588
2890.77452,0.20288
2892.70299,0.19996
2894.63146,0.19902
2896.55993,0.20104
2898.48839,0.20348
2900.41686,0.20370
2902.34533,0.20365
2904.27380,0.20138
2906.20227,0.19745
2908.13074,0.19947
2910.05921,0.20518
2911.98768,0.20756
2913.91614,0.20359
2915.84461,0.19462
2917.77308,0.19155
2919.70155,0.19699
2921.63002,0.19995
2923.55849,0.19738
2925.48696,0.19189
2927.41542,0.18647
2929.34389,0.18661
2931.27236,0.19207
2933.20083,0.19595
2935.12930,0.19165
2937.05777,0.18446
2938.98624,0.18661
2940.91471,0.19653
2942.84317,0.20337
2944.77164,0.19919
2946.70011,0.18811
2948.62858,0.18736
2950.55705,0.19779
2952.48552,0.20393
2954.41399,0.20117
2956.34245,0.18997
2958.27092,0.18257
2960.19939,0.19202
2962.12786,0.20412
2964.05633,0.20579
2965.98480,0.19771
2967.91327,0.18804
2969.84174,0.19254
2971.77020,0.20606
2973.69867,0.21197
2975.62714,0.20756
2977.55561,0.19662
2979.48408,0.19240
2981.41255,0.20279
2983.34102,0.21438
2985.26948,0.21666
2987.19795,0.20853
2989.12642,0.19903
2991.05489,0.20199
2992.98336,0.20910
2994.91183,0.20977
2996.84030,0.20652
2998.76877,0.20017
3000.69723,0.19738
3002.62570,0.20310
3004.55417,0.20766
3006.48264,0.20393
3008.41111,0.19873
3010.33958,0.19299
3012.26805,0.17120
3014.19651,0.12772
3016.12498,0.09339
3018.05345,0.10923
3019.98192,0.16234
3021.91039,0.20211
3023.83886,0.21433
3025.76733,0.21392
3027.69579,0.20924
3029.62426,0.20690
3031.55273,0.20962
3033.48120,0.21110
3035.40967,0.20720
3037.33814,0.20200
3039.26661,0.20317
3041.19508,0.20839
3043.12354,0.20998
3045.05201,0.20856
3046.98048,0.20634
3048.90895,0.20650
3050.83742,0.21132
3052.76589,0.21541
3054.69436,0.21083
3056.62282,0.19975
3058.55129,0.19722
3060.47976,0.20561
3062.40823,0.21260
3064.33670,0.21022
3066.26517,0.20049
3068.19364,0.19972
3070.12211,0.21036
3072.05057,0.21379
3073.97904,0.20446
3075.90751,0.19466
3077.83598,0.19845
3079.76445,0.21053
3081.69292,0.21356
3083.62139,0.20385
3085.54985,0.19432
3087.47832,0.19648
3089.40679,0.20218
3091.33526,0.19990
3093.26373,0.18961
3095.19220,0.18498
3097.12067,0.19529
3099.04914,0.20630
3100.97760,0.20553
3102.90607,0.19563
3104.83454,0.19229
3106.76301,0.20186
3108.69148,0.20748
3110.61995,0.19873
3112.54842,0.18588
3114.47688,0.18634
3116.40535,0.20080
3118.33382,0.21404
3120.26229,0.21578
3122.19076,0.21154
3124.11923,0.21237
3126.04770,0.21444
3127.97617,0.21141
3129.90463,0.20786
3131.83310,0.21035
3133.76157,0.21856
3135.69004,0.22492
3137.61851,0.22271
3139.54698,0.21498
3141.47545,0.21002
3143.40391,0.20856
3145.33238,0.20973
3147.26085,0.21246
3149.18932,0.21351
3151.11779,0.21358
3153.04626,0.21309
3154.97473,0.21102
3156.90320,0.20836
3158.83166,0.20807
3160.76013,0.21000
3162.68860,0.21080
3164.61707,0.21091
3166.54554,0.21229
3168.47401,0.21431
3170.40248,0.21769
3172.33094,0.22250
3174.25941,0.22415
3176.18788,0.22197
3178.11635,0.22257
3180.04482,0.22717
3181.97329,0.22826
3183.90176,0.22489
3185.83022,0.22258
3187.75869,0.22047
3189.68716,0.21689
3191.61563,0.21522
3193.54410,0.21655
3195.47257,0.21875
3197.40104,0.22017
3199.32951,0.21958
3201.25797,0.21829
3203.18644,0.21805
3205.11491,0.21973
3207.04338,0.22344
3208.97185,0.22581
3210.90032,0.22567
3212.82879,0.22423
3214.75725,0.22150
3216.68572,0.21997
3218.61419,0.21917
3220.54266,0.21513
3222.47113,0.20892
3224.39960,0.20404
3226.32807,0.20387
3228.25654,0.20971
3230.18500,0.21567
3232.11347,0.21712
3234.04194,0.21781
3235.97041,0.22023
3237.89888,0.22239
3239.82735,0.22440
3241.75582,0.22502
3243.68428,0.22257
3245.61275,0.22254
3247.54122,0.22805
3249.46969,0.23205
3251.39816,0.22588
3253.32663,0.21255
3255.25510,0.20622
3257.18357,0.21043
3259.11203,0.21318
3261.04050,0.20949
3262.96897,0.20765
3264.89744,0.21116
3266.82591,0.21738
3268.75438,0.22474
3270.68285,0.22683
3272.61131,0.21980
3274.53978,0.21131
3276.46825,0.20692
3278.39672,0.20444
3280.32519,0.20287
3282.25366,0.20188
3284.18213,0.19977
3286.11060,0.19972
3288.03906,0.20595
3289.96753,0.21415
3291.89600,0.21873
3293.82447,0.21894
3295.75294,0.21712
3297.68141,0.21630
3299.60988,0.21381
3301.53834,0.20983
3303.46681,0.21042
3305.39528,0.21523
3307.32375,0.22069
3309.25222,0.22384
3311.18069,0.22179
3313.10916,0.21416
3315.03763,0.20524
3316.96609,0.20245
3318.89456,0.20585
3320.82303,0.21029
3322.75150,0.21385
3324.67997,0.21563
3326.60844,0.21619
3328.53691,0.21601
3330.46537,0.21445
3332.39384,0.21353
3334.32231,0.21526
3336.25078,0.21865
3338.17925,0.22077
3340.10772,0.21894
3342.03619,0.21522
3343.96466,0.21448
3345.89312,0.21633
3347.82159,0.21857
3349.75006,0.22256
3351.67853,0.22620
3353.60700,0.22515
3355.53547,0.22120
3357.46394,0.21986
3359.39240,0.22350
3361.32087,0.22866
3363.24934,0.22991
3365.17781,0.22555
3367.10628,0.21913
3369.03475,0.21615
3370.96322,0.21801
3372.89168,0.22187
3374.82015,0.22175
3376.74862,0.21600
3378.67709,0.21372
3380.60556,0.21881
3382.53403,0.22616
3384.46250,0.22953
3386.39097,0.22432
3388.31943,0.21901
3390.24790,0.22265
3392.17637,0.22884
3394.10484,0.23017
3396.03331,0.22850
3397.96178,0.22527
3399.89025,0.21872
3401.81871,0.21342
3403.74718,0.21257
3405.67565,0.21226
3407.60412,0.21175
3409.53259,0.21164
3411.46106,0.21054
3413.38953,0.21014
3415.31800,0.21215
3417.24646,0.21394
3419.17493,0.21545
3421.10340,0.21759
3423.03187,0.21705
3424.96034,0.21628
3426.88881,0.21954
3428.81728,0.22366
3430.74574,0.22485
3432.67421,0.22184
3434.60268,0.21441
3436.53115,0.20771
3438.45962,0.20741
3440.38809,0.21151
3442.31656,0.21431
3444.24503,0.21461
3446.17349,0.21704
3448.10196,0.21950
3450.03043,0.21325
3451.95890,0.20236
3453.88737,0.19727
3455.81584,0.19783
3457.74431,0.19837
3459.67277,0.19652
3461.60124,0.19325
3463.52971,0.19299
3465.45818,0.19731
3467.38665,0.20331
3469.31512,0.20536
3471.24359,0.20063
3473.17206,0.19861
3475.10052,0.20250
3477.02899,0.20040
3478.95746,0.19192
3480.88593,0.18785
3482.81440,0.18958
3484.74287,0.19204
3486.67134,0.19242
3488.59980,0.18828
3490.52827,0.18066
3492.45674,0.17685
3494.38521,0.18257
3496.31368,0.19185
3498.24215,0.19528
3500.17062,0.19570
3502.09909,0.19814
3504.02755,0.19996
3505.95602,0.19806
3507.88449,0.19291
3509.81296,0.18761
3511.74143,0.18616
3513.66990,0.18780
3515.59837,0.18787
3517.52683,0.18343
3519.45530,0.17697
3521.38377,0.17361
3523.31224,0.17712
3525.24071,0.18606
3527.16918,0.19145
3529.09765,0.18669
3531.02611,0.17777
3532.95458,0.17392
3534.88305,0.17461
3536.81152,0.17465
3538.73999,0.17333
3540.66846,0.17233
3542.59693,0.17216
3544.52540,0.17518
3546.45386,0.18021
3548.38233,0.17906
3550.31080,0.17231
3552.23927,0.16576
3554.16774,0.16247
3556.09621,0.16303
3558.02468,0.16396
3559.95314,0.16388
3561.88161,0.16526
3563.81008,0.17022
3565.73855,0.18005
3567.66702,0.18542
3569.59549,0.17617
3571.52396,0.16610
3573.45243,0.16315
3575.38089,0.16237
3577.30936,0.16117
3579.23783,0.16045
3581.16630,0.16079
3583.09477,0.16559
3585.02324,0.17259
3586.95171,0.17361
3588.88017,0.16890
3590.80864,0.16670
3592.73711,0.16796
3594.66558,0.16915
3596.59405,0.16584
3598.52252,0.16053
3600.45099,0.15646
3602.37946,0.15400
3604.30792,0.15522
3606.23639,0.15906
3608.16486,0.16014
3610.09333,0.15715
3612.02180,0.15526
3613.95027,0.15827
3615.87874,0.16525
3617.80720,0.16735
3619.73567,0.15713
3621.66414,0.14694
3623.59261,0.14678
3625.52108,0.15528
3627.44955,0.16646
3629.37802,0.16068
3631.30649,0.14891
3633.23495,0.14971
3635.16342,0.14770
3637.09189,0.13941
3639.02036,0.13601
3640.94883,0.13894
3642.87730,0.14232
3644.80577,0.14473
3646.73423,0.15044
3648.66270,0.16062
3650.59117,0.15837
3652.51964,0.14534
3654.44811,0.13679
3656.37658,0.13412
3658.30505,0.13277
3660.23352,0.13179
3662.16198,0.13372
3664.09045,0.13609
3666.01892,0.13605
3667.94739,0.13659
3669.87586,0.14018
3671.80433,0.14438
3673.73280,0.14848
3675.66126,0.14768
3677.58973,0.14173
3679.51820,0.13791
3681.44667,0.13416
3683.37514,0.13318
3685.30361,0.13713
3687.23208,0.14402
3689.16055,0.15019
3691.08901,0.14859
3693.01748,0.14453
3694.94595,0.14219
3696.87442,0.13830
3698.80289,0.13450
3700.73136,0.13382
3702.65983,0.13456
3704.58829,0.13424
3706.51676,0.13348
3708.44523,0.13633
3710.37370,0.14303
3712.30217,0.14298
3714.23064,0.13801
3716.15911,0.13803
3718.08757,0.14137
3720.01604,0.14184
3721.94451,0.13868
3723.87298,0.13497
3725.80145,0.13129
3727.72992,0.13129
3729.65839,0.13685
3731.58686,0.14476
3733.51532,0.15045
3735.44379,0.14981
3737.37226,0.14421
3739.30073,0.13950
3741.22920,0.13871
3743.15767,0.14288
3745.08614,0.14702
3747.01460,0.14653
3748.94307,0.15090
3750.87154,0.15298
3752.80001,0.13904
3754.72848,0.13121
3756.65695,0.13422
3758.58542,0.13712
3760.51389,0.13541
3762.44235,0.13493
3764.37082,0.13771
3766.29929,0.13978
3768.22776,0.13933
3770.15623,0.13810
3772.08470,0.13359
3774.01317,0.12911
3775.94163,0.13082
3777.87010,0.13775
3779.79857,0.14164
3781.72704,0.13679
3783.65551,0.12832
3785.58398,0.12240
3787.51245,0.12395
3789.44092,0.12900
3791.36938,0.13016
3793.29785,0.12990
3795.22632,0.13254
3797.15479,0.13513
3799.08326,0.13749
3801.01173,0.14043
3802.94020,0.13763
3804.86866,0.13502
3806.79713,0.13251
3808.72560,0.12349
3810.65407,0.11727
3812.58254,0.11788
3814.51101,0.12320
3816.43948,0.12997
3818.36795,0.13257
3820.29641,0.13425
3822.22488,0.13299
3824.15335,0.12752
3826.08182,0.12754
3828.01029,0.13342
3829.93876,0.13715
3831.86723,0.13917
3833.79569,0.14210
3835.72416,0.14240
3837.65263,0.13996
3839.58110,0.13840
3841.50957,0.13567
3843.43804,0.13051
3845.36651,0.12779
3847.29498,0.12982
3849.22344,0.13295
3851.15191,0.13782
3853.08038,0.14783
3855.00885,0.14540
3856.93732,0.13541
3858.86579,0.13030
3860.79426,0.12961
3862.72272,0.13229
3864.65119,0.13128
3866.57966,0.12561
3868.50813,0.12304
3870.43660,0.12612
3872.36507,0.13056
3874.29354,0.13037
3876.22200,0.12816
3878.15047,0.12922
3880.07894,0.13108
3882.00741,0.12798
3883.93588,0.12417
3885.86435,0.12305
3887.79282,0.12201
3889.72129,0.12449
3891.64975,0.12961
3893.57822,0.12504
3895.50669,0.11779
3897.43516,0.11996
3899.36363,0.12763
3901.29210,0.13187
3903.22057,0.13409
3905.14903,0.13186
3907.07750,0.12350
3909.00597,0.11673
3910.93444,0.11286
3912.86291,0.11122
3914.79138,0.11262
3916.71985,0.11277
3918.64832,0.10816
3920.57678,0.10538
3922.50525,0.11181
3924.43372,0.12158
3926.36219,0.12355
3928.29066,0.11753
3930.21913,0.11093
3932.14760,0.11305
3934.07606,0.11753
3936.00453,0.11648
3937.93300,0.11662
3939.86147,0.11848
3941.78994,0.11738
3943.71841,0.11084
3945.64688,0.10403
3947.57535,0.10635
3949.50381,0.11723
3951.43228,0.12577
3953.36075,0.12424
3955.28922,0.11513
3957.21769,0.10676
3959.14616,0.10476
3961.07463,0.10655
3963.00309,0.10647
3964.93156,0.10515
3966.86003,0.10347
3968.78850,0.09997
3970.71697,0.09811
3972.64544,0.10050
3974.57391,0.10509
3976.50238,0.10714
3978.43084,0.10570
3980.35931,0.10386
3982.28778,0.10272
3984.21625,0.10310
3986.14472,0.10480
3988.07319,0.10781
3990.00166,0.11051
3991.93012,0.11018
3993.85859,0.10762
3995.78706,0.10319
3997.71553,0.09957
3999.64400,0.10118
4001.57247,0.10629
4003.50094,0.10842
4005.42941,0.10479
4007.35787,0.09946
4009.28634,0.09583
4011.21481,0.09450
4013.14328,0.09772
4015.07175,0.10467
4017.00022,0.11033
4018.92869,0.11264
4020.85715,0.11100
4022.78562,0.10726
4024.71409,0.10557
4026.64256,0.10558
4028.57103,0.10360
4030.49950,0.09847
4032.42797,0.09393
4034.35644,0.09168
4036.28490,0.08845
4038.21337,0.08530
4040.14184,0.08698
4042.07031,0.09238
4043.99878,0.09580
4045.92725,0.09504
4047.85572,0.09352
4049.78418,0.09277
4051.71265,0.09042
4053.64112,0.08957
4055.56959,0.09251
4057.49806,0.09548
4059.42653,0.09841
4061.35500,0.10103
4063.28346,0.10084
4065.21193,0.09639
4067.14040,0.09024
4069.06887,0.08936
4070.99734,0.09336
4072.92581,0.09761
4074.85428,0.10099
4076.78275,0.10230
4078.71121,0.10200
4080.63968,0.10011
4082.56815,0.09556
4084.49662,0.09154
4086.42509,0.08914
4088.35356,0.08491
4090.28203,0.08005
4092.21049,0.08021
4094.13896,0.08739
4096.06743,0.09468
4097.99590,0.09689
4099.92437,0.09884
4101.85284,0.10003
4103.78131,0.09800
4105.70978,0.09723
4107.63824,0.09770
4109.56671,0.09688
4111.49518,0.09430
4113.42365,0.09281
4115.35212,0.09581
4117.28059,0.09622
4119.20906,0.09109
4121.13752,0.08874
4123.06599,0.08993
4124.99446,0.08988
4126.92293,0.08993
4128.85140,0.09383
4130.77987,0.09902
4132.70834,0.10154
4134.63681,0.10143
4136.56527,0.09806
4138.49374,0.09316
4140.42221,0.08796
4142.35068,0.08119
4144.27915,0.07574
4146.20762,0.07288
4148.13609,0.07322
4150.06455,0.08034
4151.99302,0.08801
4153.92149,0.08573
4155.84996,0.07672
4157.77843,0.06855
4159.70690,0.06588
4161.63537,0.07087
4163.56384,0.07582
4165.49230,0.07722
4167.42077,0.08023
4169.34924,0.08280
4171.27771,0.08356
4173.20618,0.08860
4175.13465,0.09426
4177.06312,0.08890
4178.99158,0.07864
4180.92005,0.07735
4182.84852,0.08102
4184.77699,0.08221
4186.70546,0.08396
4188.63393,0.08748
4190.56240,0.08686
4192.49087,0.08251
4194.41933,0.08124
4196.34780,0.08315
4198.27627,0.08350
4200.20474,0.07976
4202.13321,0.07333
4204.06168,0.06687
4205.99015,0.06333
4207.91861,0.06378
4209.84708,0.06620
4211.77555,0.06864
4213.70402,0.07091
4215.63249,0.07484
4217.56096,0.07992
4219.48943,0.08215
4221.41789,0.07814
4223.34636,0.07231
4225.27483,0.07225
4227.20330,0.07409
4229.13177,0.07066
4231.06024,0.06232
4232.98871,0.05565
4234.91718,0.05606
4236.84564,0.05954
4238.77411,0.06036
4240.70258,0.05990
4242.63105,0.06247
4244.55952,0.06664
4246.48799,0.06933
4248.41646,0.07414
4250.34492,0.07849
4252.27339,0.07292
4254.20186,0.06238
4256.13033,0.06005
4258.05880,0.06751
4259.98727,0.07594
4261.91574,0.07966
4263.84421,0.07970
4265.77267,0.07256
4267.70114,0.05962
4269.62961,0.05236
4271.55808,0.05234
4273.48655,0.05408
4275.41502,0.05674
4277.34349,0.05974
4279.27195,0.06120
4281.20042,0.06237
4283.12889,0.06360
4285.05736,0.06405
4286.98583,0.06588
4288.91430,0.06696
4290.84277,0.06373
4292.77124,0.06023
4294.69970,0.05984
4296.62817,0.05916
4298.55664,0.05856
4300.48511,0.06020
4302.41358,0.05994
4304.34205,0.05789
4306.27052,0.05849
4308.19898,0.06182
4310.12745,0.06490
4312.05592,0.06300
4313.98439,0.05660
4315.91286,0.05361
4317.84133,0.05811
4319.76980,0.06288
4321.69827,0.05887
4323.62673,0.05294
4325.55520,0.05651
4327.48367,0.05920
4329.41214,0.05208
4331.34061,0.04808
4333.26908,0.05020
4335.19755,0.05074
4337.12601,0.05158
4339.05448,0.05708
4340.98295,0.06646
4342.91142,0.06762
4344.83989,0.05343
4346.76836,0.04031
4348.69683,0.04064
4350.62530,0.04583
4352.55376,0.04851
4354.48223,0.05289
4356.41070,0.05756
4358.33917,0.05499
4360.26764,0.04876
4362.19611,0.04459
4364.12458,0.04135
4366.05304,0.03864
4367.98151,0.03601
4369.90998,0.03151
4371.83845,0.02630
4373.76692,0.02635
4375.69539,0.03506
4377.62386,0.04488
4379.55232,0.04754
4381.48079,0.04590
4383.40926,0.04187
4385.33773,0.03376
4387.26620,0.02910
4389.19467,0.03444
4391.12314,0.04491
4393.05161,0.05273
4394.98007,0.05280
4396.90854,0.04465
4398.83701,0.03460
4400.76548,0.03096
4402.69395,0.03435
4404.62242,0.03953
4406.55089,0.04001
4408.47935,0.03199
4410.40782,0.02498
4412.33629,0.02998
4414.26476,0.03893
4416.19323,0.03929
4418.12170,0.03389
4420.05017,0.03011
4421.97864,0.03066
4423.90710,0.03426
4425.83557,0.03792
4427.76404,0.04047
4429.69251,0.03804
4431.62098,0.03187
4433.54945,0.03154
4435.47792,0.03710
4437.40638,0.04054
4439.33485,0.04140
4441.26332,0.04003
4443.19179,0.03328
4445.12026,0.02790
4447.04873,0.02938
4448.97720,0.03095
4450.90567,0.02800
4452.83413,0.02094
4454.76260,0.01469
4456.69107,0.01507
4458.61954,0.01725
4460.54801,0.01592
4462.47648,0.01534
4464.40495,0.01641
4466.33341,0.01623
4468.26188,0.01695
4470.19035,0.02304
4472.11882,0.02863
4474.04729,0.02537
4475.97576,0.02202
4477.90423,0.02693
4479.83270,0.03204
4481.76116,0.02814
4483.68963,0.01834
4485.61810,0.01341
4487.54657,0.01641
4489.47504,0.02358
4491.40351,0.03159
4493.33198,0.03524
4495.26044,0.03393
4497.18891,0.03227
4499.11738,0.03057
4501.04585,0.02912
4502.97432,0.02600
4504.90279,0.02045
4506.83126,0.02316
4508.75973,0.03107
4510.68819,0.02700
4512.61666,0.01386
4514.54513,0.00545
4516.47360,0.00768
4518.40207,0.02044
4520.33054,0.03310
4522.25901,0.03432
4524.18747,0.02672
4526.11594,0.01991
4528.04441,0.01988
4529.97288,0.02248
4531.90135,0.02126
4533.82982,0.01760
4535.75829,0.01485
4537.68676,0.01800
4539.61522,0.02691
4541.54369,0.03074
4543.47216,0.03008
4545.40063,0.03061
4547.32910,0.02647
4549.25757,0.01885
4551.18604,0.01550
4553.11450,0.01736
4555.04297,0.01636
4556.97144,0.01025
4558.89991,0.01063
4560.82838,0.01914
4562.75685,0.02298
4564.68532,0.01596
4566.61378,0.00858
4568.54225,0.00946
4570.47072,0.01485
4572.39919,0.01947
4574.32766,0.02087
4576.25613,0.01813
4578.18460,0.01116
4580.11307,0.00833
4582.04153,0.01765
4583.97000,0.02336
4585.89847,0.01190
4587.82694,0.00763
4589.75541,0.01981
4591.68388,0.02116
4593.61235,0.01178
4595.54081,0.00718
4597.46928,0.00743
4599.39775,0.01079
4601.32622,0.01489
4603.25469,0.01743
4605.18316,0.01779
4607.11163,0.01672
4609.04010,0.01460
4610.96856,0.01597
4612.89703,0.02246
4614.82550,0.02300
4616.75397,0.01630
4618.68244,0.01966
4620.61091,0.03318
4622.53938,0.03397
4624.46784,0.01847
4626.39631,0.00564
4628.32478,0.00651
4630.25325,0.01507
4632.18172,0.02120
4634.11019,0.02320
4636.03866,0.02159
4637.96713,0.01227
4639.89559,0.00022
4641.82406,-0.00002
4643.75253,0.00685
4645.68100,0.00504
4647.60947,0.00153
4649.53794,0.00878
4651.46641,0.01918
4653.39487,0.02392
4655.32334,0.02662
4657.25181,0.02760
4659.18028,0.02222
4661.10875,0.01413
4663.03722,0.01062
4664.96569,0.01382
4666.89416,0.01598
4668.82262,0.00605
4670.75109,-0.00648
4672.67956,-0.00248
4674.60803,0.01138
4676.53650,0.01455
4678.46497,0.00682
4680.39344,0.00264
4682.32190,0.00471
4684.25037,0.00632
4686.17884,0.00545
4688.10731,0.00299
4690.03578,-0.00553
4691.96425,-0.01641
4693.89272,-0.01048
4695.82119,0.00947
4697.74965,0.02312
4699.67812,0.02720
4701.60659,0.02280
4703.53506,0.01274
4705.46353,0.00744
4707.39200,0.00944
4709.32047,0.01093
4711.24893,0.01230
4713.17740,0.02062
4715.10587,0.02688
4717.03434,0.01878
4718.96281,0.00527
4720.89128,0.00097
4722.81975,0.00239
4724.74821,0.00043
4726.67668,-0.00177
4728.60515,0.00151
4730.53362,0.00861
4732.46209,0.01189
4734.39056,0.00681
4736.31903,0.00210
4738.24750,0.00576
4740.17596,0.00981
4742.10443,0.01022
4744.03290,0.01556
4745.96137,0.02736
4747.88984,0.03355
4749.81831,0.02468
4751.74678,0.01274
4753.67524,0.01137
4755.60371,0.01415
4757.53218,0.01074
4759.46065,0.00526
4761.38912,0.01093
4763.31759,0.02996
4765.24606,0.04409
4767.17453,0.04071
4769.10299,0.03252
4771.03146,0.02616
4772.95993,0.01841
4774.88840,0.01402
4776.81687,0.01263
4778.74534,0.01425
4780.67381,0.01850
4782.60227,0.01889
4784.53074,0.01585
4786.45921,0.01034
4788.38768,0.00864
4790.31615,0.01646
4792.24462,0.02082
4794.17309,0.01544
4796.10156,0.00673
4798.03002,-0.00271
4799.95849,-0.00697
4801.88696,-0.00546
4803.81543,-0.00211
4805.74390,0.00389
4807.67237,0.00953
4809.60084,0.00863
4811.52930,0.00209
4813.45777,-0.00229
4815.38624,-0.00436
4817.31471,-0.00830
4819.24318,-0.00728
4821.17165,0.00236
4823.10012,0.01072
4825.02859,0.01075
4826.95705,0.00495
4828.88552,-0.00399
4830.81399,-0.00302
4832.74246,0.01307
4834.67093,0.01845
4836.59940,0.00921
4838.52787,0.00327
4840.45633,0.00388
4842.38480,0.01958
4844.31327,0.03697
4846.24174,0.03163
4848.17021,0.02018
4850.09868,0.01666
4852.02715,0.00742
4853.95562,-0.00013
4855.88408,0.01404
4857.81255,0.03475
4859.74102,0.03370
4861.66949,0.01090
4863.59796,-0.00699
4865.52643,-0.00465
4867.45490,0.00456
4869.38336,0.00431
4871.31183,-0.00553
4873.24030,-0.00885
4875.16877,-0.00136
4877.09724,0.00385
4879.02571,0.00772
4880.95418,0.01303
4882.88265,0.01406
4884.81111,0.01400
4886.73958,0.01781
4888.66805,0.02531
4890.59652,0.02648
4892.52499,0.01509
4894.45346,0.01119
4896.38193,0.02032
4898.31039,0.02129
4900.23886,0.01246
4902.16733,0.00840
4904.09580,0.00893
4906.02427,0.00453
4907.95274,-0.00117
4909.88121,0.00080
4911.80967,0.00839
4913.73814,0.01418
4915.66661,0.01661
4917.59508,0.01695
4919.52355,0.01248
4921.45202,0.00354
4923.38049,-0.00569
4925.30896,-0.00995
4927.23742,-0.01124
4929.16589,-0.00854
4931.09436,0.00560
4933.02283,0.02106
4934.95130,0.02467
4936.87977,0.01631
4938.80824,0.00715
4940.73670,0.00466
4942.66517,0.00022
4944.59364,-0.00443
4946.52211,0.00072
4948.45058,0.01040
4950.37905,0.01814
4952.30752,0.02079
4954.23599,0.01293
4956.16445,-0.00122
4958.09292,-0.00398
4960.02139,0.00997
4961.94986,0.01610
4963.87833,0.00885
4965.80680,0.00894
4967.73527,0.00993
4969.66373,-0.00053
4971.59220,-0.01422
4973.52067,-0.01930
4975.44914,-0.01805
4977.37761,-0.01501
4979.30608,-0.00077
4981.23455,0.01800
4983.16302,0.02854
4985.09148,0.03492
4987.01995,0.03544
4988.94842,0.02968
4990.87689,0.02699
4992.80536,0.02927
4994.73383,0.02991
4996.66230,0.02831
4998.59076,0.03241
5000.51923,0.03707
5002.44770,0.02608
5004.37617,0.00924
5006.30464,0.00880
5008.23311,0.01941
5010.16158,0.02907
5012.09005,0.03137
5014.01851,0.01754
5015.94698,0.00004
5017.87545,0.00140
5019.80392,0.01407
5021.73239,0.01787
5023.66086,0.00941
5025.58933,0.00008
5027.51779,-0.00281
5029.44626,0.00212
5031.37473,0.02212
5033.30320,0.04893
5035.23167,0.05560
5037.16014,0.03356
5039.08861,0.00589
5041.01708,-0.00169
5042.94554,0.01050
5044.87401,0.02781
5046.80248,0.03726
5048.73095,0.03381
5050.65942,0.02649
5052.58789,0.02372
5054.51636,0.01720
5056.44482,0.00681
5058.37329,-0.00021
5060.30176,-0.00929
5062.23023,-0.01604
5064.15870,-0.00909
5066.08717,0.00897
5068.01564,0.01955
5069.94410,0.01532
5071.87257,0.01229
5073.80104,0.01302
5075.72951,0.01199
5077.65798,0.01159
5079.58645,0.00796
5081.51492,0.00120
5083.44339,0.00478
5085.37185,0.02746
5087.30032,0.05270
5089.22879,0.05532
5091.15726,0.03635
5093.08573,0.01783
5095.01420,0.01715
5096.94267,0.03007
5098.87113,0.03642
5100.79960,0.02852
5102.72807,0.01682
5104.65654,0.01482
5106.58501,0.02869
5108.51348,0.05071
5110.44195,0.06181
5112.37042,0.05628
5114.29888,0.05356
5116.22735,0.05974
5118.15582,0.06083
5120.08429,0.05366
5122.01276,0.05065
5123.94123,0.05764
5125.86970,0.06027
5127.79816,0.04667
5129.72663,0.02585
5131.65510,0.02665
5133.58357,0.05720
5135.51204,0.07283
5137.44051,0.05272
5139.36898,0.03340
5141.29745,0.02988
5143.22591,0.02462
5145.15438,0.01794
5147.08285,0.01759
5149.01132,0.01774
5150.93979,0.01732
5152.86826,0.02168
5154.79673,0.03324
5156.72519,0.04538
5158.65366,0.04668
5160.58213,0.03425
5162.51060,0.01287
5164.43907,0.00396
5166.36754,0.00953
5168.29601,0.00756
5170.22448,0.01000
5172.15294,0.02825
5174.08141,0.04270
5176.00988,0.03714
5177.93835,0.01493
5179.86682,-0.00670
5181.79529,-0.01353
5183.72376,0.00403
5185.65222,0.02969
5187.58069,0.03015
5189.50916,0.00793
5191.43763,-0.00914
5193.36610,-0.00130
5195.29457,0.01769
5197.22304,0.01980
5199.15151,0.00810
5201.07997,0.01043
5203.00844,0.03335
5204.93691,0.05866
5206.86538,0.06643
5208.79385,0.05820
5210.72232,0.05212
5212.65079,0.04841
5214.57925,0.04400
5216.50772,0.04103
5218.43619,0.03048
5220.36466,0.01144
5222.29313,0.00194
5224.22160,0.01443
5226.15007,0.03846
5228.07854,0.04847
5230.00700,0.04866
5231.93547,0.04931
5233.86394,0.03196
5235.79241,0.00071
5237.72088,-0.01312
5239.64935,-0.00434
5241.57782,0.01332
5243.50628,0.02899
5245.43475,0.03767
5247.36322,0.05180
5249.29169,0.07942
5251.22016,0.09932
5253.14863,0.09145
5255.07710,0.06311
5257.00556,0.03927
5258.93403,0.02159
5260.86250,0.00635
5262.79097,0.01795
5264.71944,0.04820
5266.64791,0.05762
5268.57638,0.05788
5270.50485,0.06638
5272.43331,0.06595
5274.36178,0.05173
5276.29025,0.04024
5278.21872,0.03676
5280.14719,0.03883
5282.07566,0.03991
5284.00413,0.03431
5285.93259,0.03675
5287.86106,0.04659
5289.78953,0.03937
5291.71800,0.02276
5293.64647,0.02382
5295.57494,0.04048
5297.50341,0.06515
5299.43188,0.08695
5301.36034,0.08909
5303.28881,0.07304
5305.21728,0.05682
5307.14575,0.05746
5309.07422,0.06303
5311.00269,0.05664
5312.93116,0.05447
5314.85962,0.05890
5316.78809,0.05319
5318.71656,0.03851
5320.64503,0.03608
5322.57350,0.05317
5324.50197,0.06477
5326.43044,0.05767
5328.35891,0.05426
5330.28737,0.06700
5332.21584,0.07799
5334.14431,0.07527
5336.07278,0.06649
5338.00125,0.05914
5339.92972,0.05528
5341.85819,0.05469
5343.78665,0.06235
5345.71512,0.06738
5347.64359,0.05602
5349.57206,0.05307
5351.50053,0.06990
5353.42900,0.08505
5355.35747,0.08074
5357.28594,0.05854
5359.21440,0.03756
5361.14287,0.03980
5363.07134,0.05086
5364.99981,0.04833
5366.92828,0.04928
5368.85675,0.06484
5370.78522,0.08147
5372.71368,0.08496
5374.64215,0.07774
5376.57062,0.08278
5378.49909,0.08732
5380.42756,0.06921
5382.35603,0.04900
5384.28450,0.04034
5386.21297,0.04509
5388.14143,0.06679
5390.06990,0.07787
5391.99837,0.06123
5393.92684,0.04311
5395.85531,0.03617
5397.78378,0.03073
5399.71225,0.03187
5401.64071,0.03512
5403.56918,0.03870
5405.49765,0.05620
5407.42612,0.07941
5409.35459,0.07836
5411.28306,0.05841
5413.21153,0.04755
5415.13999,0.04623
5417.06846,0.05542
5418.99693,0.07663
5420.92540,0.09302
5422.85387,0.08743
5424.78234,0.07171
5426.71081,0.06313
5428.63928,0.04436
5430.56774,0.02061
5432.49621,0.02559
5434.42468,0.05543
5436.35315,0.08588
5438.28162,0.09498
5440.21009,0.07119
5442.13856,0.03916
5444.06702,0.03750
5445.99549,0.05093
5447.92396,0.05727
5449.85243,0.07093
5451.78090,0.07507
5453.70937,0.05046
5455.63784,0.03077
5457.56631,0.03587
5459.49477,0.03829
5461.42324,0.04936
5463.35171,0.09171
5465.28018,0.12866
5467.20865,0.12221
5469.13712,0.08560
5471.06559,0.06484
5472.99405,0.05636
5474.92252,0.03404
5476.85099,0.03507
5478.77946,0.06711
5480.70793,0.08249
5482.63640,0.07152
5484.56487,0.05689
5486.49334,0.05184
5488.42180,0.05350
5490.35027,0.05954
5492.27874,0.06610
5494.20721,0.06918
5496.13568,0.08034
5498.06415,0.10541
5499.99262,0.11685
5501.92108,0.08669
5503.84955,0.04848
5505.77802,0.05020
5507.70649,0.07782
5509.63496,0.08418
5511.56343,0.06919
5513.49190,0.06275
5515.42037,0.06815
5517.34883,0.06581
5519.27730,0.05045
5521.20577,0.03821
5523.13424,0.04172
5525.06271,0.05479
5526.99118,0.07167
5528.91965,0.08024
5530.84811,0.06256
5532.77658,0.03559
5534.70505,0.02688
5536.63352,0.03872
5538.56199,0.05311
5540.49046,0.06095
5542.41893,0.07364
5544.34740,0.09192
5546.27586,0.10244
5548.20433,0.09597
5550.13280,0.08437
5552.06127,0.08815
5553.98974,0.09646
5555.91821,0.08489
5557.84668,0.06747
5559.77514,0.06770
5561.70361,0.06915
5563.63208,0.06453
5565.56055,0.06896
5567.48902,0.07030
5569.41749,0.06499
5571.34596,0.07729
5573.27443,0.09246
5575.20289,0.07567
5577.13136,0.05421
5579.05983,0.06884
5580.98830,0.10093
5582.91677,0.10744
5584.84524,0.08518
5586.77371,0.04781
5588.70217,0.01377
5590.63064,0.01431
5592.55911,0.03352
5594.48758,0.03863
5596.41605,0.04343
5598.34452,0.05176
5600.27299,0.04733
5602.20145,0.03850
5604.12992,0.04825
5606.05839,0.08363
5607.98686,0.11154
5609.91533,0.11059
5611.84380,0.10367
5613.77227,0.09837
5615.70074,0.09038
5617.62920,0.09540
5619.55767,0.11636
5621.48614,0.12376
5623.41461,0.09628
5625.34308,0.06400
5627.27155,0.06425
5629.20002,0.07725
5631.12848,0.07848
5633.05695,0.07688
5634.98542,0.06616
5636.91389,0.04210
5638.84236,0.04531
5640.77083,0.08492
5642.69930,0.10895
5644.62777,0.09872
5646.55623,0.09233
5648.48470,0.12695
5650.41317,0.17185
5652.34164,0.17089
5654.27011,0.13753
5656.19858,0.11303
5658.12705,0.10485
5660.05551,0.10039
5661.98398,0.10452
5663.91245,0.11738
5665.84092,0.11283
5667.76939,0.08544
5669.69786,0.05064
5671.62633,0.02698
5673.55480,0.01609
5675.48326,0.01693
5677.41173,0.03879
5679.34020,0.07675
5681.26867,0.10281
5683.19714,0.08576
5685.12561,0.06246
5687.05408,0.07247
5688.98254,0.08064
5690.91101,0.06594
5692.83948,0.05429
5694.76795,0.05333
5696.69642,0.05263
5698.62489,0.05730
5700.55336,0.05988
5702.48183,0.04788
5704.41029,0.04765
5706.33876,0.08375
5708.26723,0.11446
5710.19570,0.09236
5712.12417,0.06363
5714.05264,0.08478
5715.98111,0.13042
5717.90957,0.14837
5719.83804,0.11969
5721.76651,0.07789
5723.69498,0.06166
5725.62345,0.06705
5727.55192,0.06176
5729.48039,0.02887
5731.40886,0.00872
5733.33732,0.03189
5735.26579,0.05186
5737.19426,0.03664
5739.12273,0.02272
5741.05120,0.03691
5742.97967,0.08066
5744.90814,0.11923
5746.83660,0.12438
5748.76507,0.12392
5750.69354,0.13461
5752.62201,0.13695
5754.55048,0.12704
5756.47895,0.09935
5758.40742,0.06400
5760.33588,0.04314
5762.26435,0.01681
5764.19282,-0.00989
5766.12129,0.00877
5768.04976,0.05854
5769.97823,0.09890
5771.90670,0.12423
5773.83517,0.13660
5775.76363,0.12317
5777.69210,0.08905
5779.62057,0.05981
5781.54904,0.04871
5783.47751,0.06046
5785.40598,0.08842
5787.33445,0.10909
5789.26291,0.11049
5791.19138,0.09694
5793.11985,0.08565
5795.04832,0.08079
5796.97679,0.06762
5798.90526,0.05888
5800.83373,0.06006
5802.76220,0.06489
5804.69066,0.07710
5806.61913,0.08652
5808.54760,0.09056
5810.47607,0.08048
5812.40454,0.04650
5814.33301,0.00881
5816.26148,0.00400
5818.18994,0.04269
5820.11841,0.06382
5822.04688,0.04878
5823.97535,0.05448
5825.90382,0.07961
5827.83229,0.08839
5829.76076,0.06769
5831.68923,0.05092
5833.61769,0.06804
5835.54616,0.09589
5837.47463,0.11784
5839.40310,0.13180
5841.33157,0.12337
5843.26004,0.09295
5845.18851,0.07633
5847.11697,0.08596
5849.04544,0.07598
5850.97391,0.05343
5852.90238,0.06515
5854.83085,0.07676
5856.75932,0.05661
5858.68779,0.03115
5860.61626,0.03427
5862.54472,0.08254
5864.47319,0.13156
5866.40166,0.13017
5868.33013,0.10867
5870.25860,0.09527
5872.18707,0.07572
5874.11554,0.05544
5876.04400,0.06699
5877.97247,0.10321
5879.90094,0.09973
5881.82941,0.05633
5883.75788,0.04307
5885.68635,0.07026
5887.61482,0.10774
5889.54329,0.14249
5891.47175,0.14228
5893.40022,0.09161
5895.32869,0.05477
5897.25716,0.06987
5899.18563,0.07622
5901.11410,0.04637
5903.04257,0.03630
5904.97103,0.07090
5906.89950,0.09786
5908.82797,0.08296
5910.75644,0.05452
5912.68491,0.03601
5914.61338,0.01966
5916.54185,-0.00131
5918.47032,-0.00976
5920.39878,0.00493
5922.32725,0.04335
5924.25572,0.09550
5926.18419,0.11768
5928.11266,0.11329
5930.04113,0.11516
5931.96960,0.10677
5933.89806,0.07518
5935.82653,0.05619
5937.75500,0.09250
5939.68347,0.15247
5941.61194,0.17027
5943.54041,0.14385
5945.46888,0.10923
5947.39734,0.09069
5949.32581,0.09547
5951.25428,0.08755
5953.18275,0.05654
5955.11122,0.05255
5957.03969,0.08426
5958.96816,0.10780
5960.89663,0.11055
5962.82509,0.11981
5964.75356,0.12650
5966.68203,0.10647
5968.61050,0.08698
5970.53897,0.10489
5972.46744,0.11834
5974.39591,0.08223
5976.32437,0.04968
5978.25284,0.06179
5980.18131,0.09614
5982.10978,0.11571
5984.03825,0.09961
5985.96672,0.06826
5987.89519,0.05697
5989.82366,0.07330
5991.75212,0.09123
5993.68059,0.10321
5995.60906,0.11316
5997.53753,0.11226
5999.46600,0.12104
6001.39447,0.14538
6003.32294,0.14948
6005.25140,0.12004
6007.17987,0.09240
6009.10834,0.07721
6011.03681,0.06837
6012.96528,0.08439
6014.89375,0.11499
6016.82222,0.12991
6018.75069,0.13589
6020.67915,0.15360
6022.60762,0.16188
6024.53609,0.13701
6026.46456,0.09515
6028.39303,0.07100
6030.32150,0.07639
6032.24997,0.08716
6034.17843,0.09070
6036.10690,0.07178
6038.03537,0.04125
6039.96384,0.05985
6041.89231,0.11616
6043.82078,0.12693
6045.74925,0.08964
6047.67772,0.07709
6049.60618,0.08522
6051.53465,0.06565
6053.46312,0.05093
6055.39159,0.06395
6057.32006,0.06504
6059.24853,0.05467
6061.17700,0.05858
6063.10546,0.06357
6065.03393,0.05481
6066.96240,0.04675
6068.89087,0.06281
6070.81934,0.10359
6072.74781,0.12161
6074.67628,0.08373
6076.60475,0.04228
6078.53321,0.02419
6080.46168,0.00050
6082.39015,0.00504
6084.31862,0.04825
6086.24709,0.06566
6088.17556,0.04330
6090.10403,0.02569
6092.03249,0.03824
6093.96096,0.05423
6095.88943,0.04100
6097.81790,0.04063
6099.74637,0.08379
6101.67484,0.12523
6103.60331,0.13767
6105.53177,0.12849
6107.46024,0.10739
6109.38871,0.10976
6111.31718,0.12566
6113.24565,0.09412
6115.17412,0.05513
6117.10259,0.06249
6119.03106,0.04718
6120.95952,-0.02562
6122.88799,-0.04749
6124.81646,0.03603
6126.74493,0.12798
6128.67340,0.14351
6130.60187,0.12394
6132.53034,0.10119
6134.45880,0.07930
6136.38727,0.07475
6138.31574,0.08078
6140.24421,0.06269
6142.17268,0.01334
6144.10115,0.00753
6146.02962,0.06752
6147.95809,0.11761
6149.88655,0.12802
6151.81502,0.10340
6153.74349,0.06153
6155.67196,0.05999
6157.60043,0.09135
6159.52890,0.08920
6161.45737,0.05558
6163.38583,0.03763
6165.31430,0.02357
6167.24277,0.00982
6169.17124,0.03512
6171.09971,0.06157
6173.02818,0.04294
6174.95665,0.04001
6176.88512,0.07574
6178.81358,0.10250
6180.74205,0.11224
6182.67052,0.11168
6184.59899,0.10483
6186.52746,0.11576
6188.45593,0.13863
6190.38440,0.13983
6192.31286,0.12923
6194.24133,0.12166
6196.16980,0.10008
6198.09827,0.05365
6200.02674,0.02245
6201.95521,0.05948
6203.88368,0.13452
6205.81215,0.18153
6207.74061,0.20374
6209.66908,0.18816
6211.59755,0.15622
6213.52602,0.20124
6215.45449,0.28043
6217.38296,0.28069
6219.31143,0.20732
6221.23989,0.14883
6223.16836,0.16521
6225.09683,0.20215
6227.02530,0.16050
6228.95377,0.09794
6230.88224,0.10552
6232.81071,0.13412
6234.73918,0.11818
6236.66764,0.08219
6238.59611,0.06096
6240.52458,0.03789
6242.45305,-0.01143
6244.38152,-0.03431
6246.30999,-0.00164
6248.23846,0.04067
6250.16692,0.08810
6252.09539,0.12839
6254.02386,0.12066
6255.95233,0.08791
6257.88080,0.05725
6259.80927,0.02856
6261.73774,0.01985
6263.66621,0.03928
6265.59467,0.04947
6267.52314,0.03679
6269.45161,0.04273
6271.38008,0.06957
6273.30855,0.08560
6275.23702,0.06967
6277.16549,0.04734
6279.09395,0.07048
6281.02242,0.11545
6282.95089,0.14823
6284.87936,0.18455
6286.80783,0.17737
6288.73630,0.07494
6290.66477,-0.03841
6292.59323,-0.03183
6294.52170,0.06045
6296.45017,0.09227
6298.37864,0.04929
6300.30711,0.03788
6302.23558,0.07274
6304.16405,0.06836
6306.09252,0.00989
6308.02098,-0.02074
6309.94945,0.00898
6311.87792,-0.00025
6313.80639,-0.07141
6315.73486,-0.08181
6317.66333,-0.00030
6319.59180,0.05818
6321.52026,0.05618
6323.44873,0.07431
6325.37720,0.08471
6327.30567,0.03526
6329.23414,0.00700
6331.16261,0.02655
6333.09108,0.02330
6335.01955,0.02318
6336.94801,0.05204
6338.87648,0.05632
6340.80495,0.02939
6342.73342,0.01383
6344.66189,0.04019
6346.59036,0.07875
6348.51883,0.08335
6350.44729,0.09990
6352.37576,0.13836
6354.30423,0.12613
6356.23270,0.06976
6358.16117,0.04784
6360.08964,0.07910
6362.01811,0.10068
6363.94658,0.09609
6365.87504,0.10935
6367.80351,0.14217
6369.73198,0.12440
6371.66045,0.05222
6373.58892,0.02049
6375.51739,0.04190
6377.44586,0.04365
6379.37432,0.02700
6381.30279,0.01612
6383.23126,0.01142
6385.15973,0.02903
6387.08820,0.07017
6389.01667,0.11040
6390.94514,0.12323
6392.87361,0.10295
6394.80207,0.05351
6396.73054,0.01672
6398.65901,0.04597
6400.58748,0.10580
6402.51595,0.11854
6404.44442,0.09209
6406.37289,0.08024
6408.30135,0.09798
6410.22982,0.12591
6412.15829,0.14223
6414.08676,0.14233
6416.01523,0.12198
6417.94370,0.07622
6419.87217,0.04265
6421.80064,0.00813
6423.72910,-0.04768
6425.65757,-0.04862
6427.58604,0.00379
6429.51451,0.00450
6431.44298,-0.03499
6433.37145,-0.01608
6435.29992,0.07414
6437.22838,0.15734
6439.15685,0.14363
6441.08532,0.07424
6443.01379,0.04734
6444.94226,0.08459
6446.87073,0.11672
6448.79920,0.12458
6450.72766,0.11286
6452.65613,0.05353
6454.58460,0.00425
6456.51307,0.03169
6458.44154,0.09534
6460.37001,0.11269
6462.29848,0.05970
6464.22695,0.00415
6466.15541,-0.00325
6468.08388,0.01730
6470.01235,0.10929
6471.94082,0.26242
6473.86929,0.30035
6475.79776,0.20034
6477.72623,0.11341
6479.65469,0.10769
6481.58316,0.12453
6483.51163,0.12510
6485.44010,0.13507
6487.36857,0.12775
6489.29704,0.09095
6491.22551,0.06519
6493.15398,0.02900
6495.08244,-0.01929
6497.01091,-0.02416
6498.93938,0.02357
6500.86785,0.07909
6502.79632,0.07487
6504.72479,0.06730
6506.65326,0.14764
6508.58172,0.20376
6510.51019,0.10916
6512.43866,0.00747
6514.36713,0.04840
6516.29560,0.14376
6518.22407,0.19115
6520.15254,0.17026
6522.08101,0.12912
6524.00947,0.13362
6525.93794,0.14698
6527.86641,0.13424
6529.79488,0.13302
6531.72335,0.14100
6533.65182,0.12718
6535.58029,0.08208
6537.50875,0.03726
6539.43722,0.03417
6541.36569,0.06524
6543.29416,0.07273
6545.22263,0.07318
6547.15110,0.09682
6549.07957,0.10380
6551.00804,0.10669
6552.93650,0.12848
6554.86497,0.14871
6556.79344,0.18452
6558.72191,0.19486
6560.65038,0.13005
6562.57885,0.08935
6564.50732,0.16038
6566.43578,0.27032
6568.36425,0.27553
6570.29272,0.15803
6572.22119,0.02254
6574.14966,-0.07497
6576.07813,-0.09576
6578.00660,0.00538
6579.93507,0.14199
6581.86353,0.17254
6583.79200,0.12181
6585.72047,0.11036
6587.64894,0.12037
6589.57741,0.08476
6591.50588,0.02957
6593.43435,0.04923
6595.36281,0.13590
6597.29128,0.17466
6599.21975,0.13201
6601.14822,0.03497
6603.07669,-0.00769
6605.00516,0.03502
6606.93363,0.06648
6608.86210,0.05131
6610.79056,0.04725
6612.71903,0.07143
6614.64750,0.09005
6616.57597,0.08912
6618.50444,0.07025
6620.43291,0.07059
6622.36138,0.08569
6624.28984,0.08857
6626.21831,0.11209
6628.14678,0.12981
6630.07525,0.10258
6632.00372,0.10635
6633.93219,0.18201
6635.86066,0.24473
6637.78912,0.18077
6639.71759,0.07398
6641.64606,0.03072
6643.57453,0.00965
6645.50300,-0.01410
6647.43147,-0.01529
6649.35994,-0.00529
6651.28841,0.03143
6653.21687,0.12317
6655.14534,0.21237
6657.07381,0.20046
6659.00228,0.11763
6660.93075,0.06159
6662.85922,0.07485
6664.78769,0.13123
6666.71615,0.13934
6668.64462,0.09479
6670.57309,0.05975
6672.50156,-0.01336
6674.43003,-0.09932
6676.35850,-0.07975
6678.28697,-0.01902
6680.21544,-0.02621
6682.14390,-0.03550
6684.07237,0.04900
6686.00084,0.13825
6687.92931,0.14470
6689.85778,0.15329
6691.78625,0.16981
6693.71472,0.16180
6695.64318,0.15634
6697.57165,0.11053
6699.50012,0.04269
6701.42859,0.04816
6703.35706,0.12598
6705.28553,0.20215
6707.21400,0.18474
6709.14247,0.10709
6711.07093,0.09311
6712.99940,0.11713
6714.92787,0.11752
6716.85634,0.10843
6718.78481,0.08019
6720.71328,0.00188
6722.64175,-0.05690
6724.57021,-0.01436
6726.49868,0.05144
6728.42715,0.03509
6730.35562,-0.00424
6732.28409,0.01296
6734.21256,0.01602
6736.14103,-0.01692
6738.06950,-0.01340
6739.99796,0.03964
6741.92643,0.09153
6743.85490,0.09851
6745.78337,0.13431
6747.71184,0.23517
6749.64031,0.27111
6751.56878,0.18146
6753.49724,0.06215
6755.42571,-0.00209
6757.35418,0.01516
6759.28265,0.08922
6761.21112,0.12853
6763.13959,0.13768
6765.06806,0.17012
6766.99653,0.15047
6768.92499,0.05327
6770.85346,-0.04338
6772.78193,-0.08930
6774.71040,-0.07773
6776.63887,-0.00311
6778.56734,0.06385
6780.49581,0.04611
6782.42427,-0.01283
6784.35274,-0.02138
6786.28121,0.03485
6788.20968,0.09420
6790.13815,0.11597
6792.06662,0.09592
6793.99509,0.04830
6795.92355,0.01130
6797.85202,0.01660
6799.78049,0.02470
6801.70896,-0.05272
6803.63743,-0.12857
6805.56590,-0.05860
6807.49437,0.03693
6809.42284,0.07036
6811.35130,0.05537
6813.27977,-0.01919
6815.20824,-0.08074
6817.13671,-0.03357
6819.06518,0.06267
6820.99365,0.09973
6822.92212,0.07575
6824.85058,0.05205
6826.77905,0.01401
6828.70752,-0.02740
6830.63599,0.00419
6832.56446,0.09173
6834.49293,0.15550
6836.42140,0.17016
6838.34987,0.17383
6840.27833,0.19242
6842.20680,0.17983
6844.13527,0.09185
6846.06374,0.01560
6847.99221,0.03109
6849.92068,0.08437
6851.84915,0.11826
6853.77761,0.12982
6855.70608,0.15172
6857.63455,0.18898
6859.56302,0.19737
6861.49149,0.17144
6863.41996,0.11864
6865.34843,0.03688
6867.27690,-0.06358
6869.20536,-0.13160
6871.13383,-0.09985
6873.06230,0.07586
6874.99077,0.25304
6876.91924,0.28185
6878.84771,0.19149
6880.77618,0.09546
6882.70464,0.07669
6884.63311,0.11652
6886.56158,0.14212
6888.49005,0.08559
6890.41852,0.01916
6892.34699,0.05896
6894.27546,0.11801
6896.20393,0.11466
6898.13239,0.10014
6900.06086,0.09696
6901.98933,0.10007
6903.91780,0.11051
6905.84627,0.12030
6907.77474,0.11897
6909.70321,0.12922
6911.63167,0.13059
6913.56014,0.05750
6915.48861,0.00779
6917.41708,0.00270
6919.34555,-0.06881
6921.27402,-0.09018
6923.20249,-0.01746
6925.13096,-0.01202
6927.05942,-0.04329
6928.98789,0.04755
6930.91636,0.19866
6932.84483,0.21189
6934.77330,0.12753
6936.70177,0.06024
6938.63024,0.03580
6940.55870,0.05414
6942.48717,0.06616
6944.41564,0.01935
6946.34411,-0.02838
6948.27258,0.00155
6950.20105,0.02558
6952.12952,-0.02053
6954.05799,-0.06586
6955.98645,-0.07184
6957.91492,-0.06047
6959.84339,0.04548
6961.77186,0.16661
6963.70033,0.11286
6965.62880,0.00901
6967.55727,-0.00281
6969.48573,0.00580
6971.41420,-0.03455
6973.34267,-0.09922
6975.27114,-0.15878
6977.19961,-0.17815
6979.12808,-0.12562
6981.05655,0.02063
6982.98501,0.19828
6984.91348,0.23163
6986.84195,0.12729
6988.77042,0.01913
6990.69889,-0.01648
6992.62736,0.06065
6994.55583,0.14036
6996.48430,0.14088
6998.41276,0.10982
7000.34123,0.06165
7002.26970,0.07124
7004.19817,0.16596
7006.12664,0.25130
7008.05511,0.28042
7009.98358,0.24011
7011.91204,0.13157
7013.84051,0.07257
7015.76898,0.13350
7017.69745,0.17070
7019.62592,0.15861
7021.55439,0.15590
7023.48286,0.14590
7025.41133,0.15283
7027.33979,0.21247
7029.26826,0.30358
7031.19673,0.34125
7033.12520,0.29359
7035.05367,0.19614
7036.98214,0.09281
7038.91061,0.05394
7040.83907,0.09172
7042.76754,0.09287
7044.69601,0.02308
7046.62448,0.00177
7048.55295,0.03987
7050.48142,0.06825
7052.40989,0.05073
7054.33836,0.04832
7056.26682,0.15000
7058.19529,0.20943
7060.12376,0.09748
7062.05223,-0.01920
7063.98070,-0.01754
7065.90917,0.06834
7067.83764,0.11885
7069.76610,0.06231
7071.69457,-0.05705
7073.62304,-0.09547
7075.55151,0.00134
7077.47998,0.09070
7079.40845,0.03191
7081.33692,-0.08118
7083.26539,-0.06295
7085.19385,0.04522
7087.12232,0.13655
7089.05079,0.12457
7090.97926,0.03921
7092.90773,-0.03691
7094.83620,-0.01338
7096.76467,0.12054
7098.69313,0.22350
7100.62160,0.20018
7102.55007,0.17401
7104.47854,0.25394
7106.40701,0.36726
7108.33548,0.34911
7110.26395,0.19825
7112.19242,0.00630
7114.12088,-0.12527
7116.04935,-0.11078
7117.97782,0.04771
7119.90629,0.16534
7121.83476,0.12230
7123.76323,-0.01585
7125.69170,-0.07527
7127.62016,-0.01822
7129.54863,0.00829
7131.47710,-0.00062
7133.40557,0.05553
7135.33404,0.17209
7137.26251,0.25036
7139.19098,0.23362
7141.11944,0.19104
7143.04791,0.12204
7144.97638,-0.08512
7146.90485,-0.20565
7148.83332,-0.11182
7150.76179,-0.09011
7152.69026,-0.13795
7154.61873,-0.04580
7156.54719,0.07270
7158.47566,0.09096
7160.40413,0.12518
7162.33260,0.23655
7164.26107,0.27416
7166.18954,0.15088
7168.11801,0.01154
7170.04647,0.00458
7171.97494,0.09665
7173.90341,0.16451
7175.83188,0.16926
7177.76035,0.11265
7179.68882,-0.00682
7181.61729,-0.10795
7183.54576,-0.05629
7185.47422,0.00493
7187.40269,-0.04596
7189.33116,-0.11131
7191.25963,-0.05653
7193.18810,0.11933
7195.11657,0.16422
7197.04504,0.03488
7198.97350,-0.05263
7200.90197,-0.04796
7202.83044,-0.00129
7204.75891,0.08875
7206.68738,0.10320
7208.61585,0.04293
7210.54432,0.02791
7212.47279,0.04139
7214.40125,0.08868
7216.32972,0.24438
7218.25819,0.36742
7220.18666,0.29482
7222.11513,0.20368
7224.04360,0.14024
7225.97207,0.05249
7227.90053,0.03406
7229.82900,0.23037
7231.75747,0.46523
7233.68594,0.34774
7235.61441,0.06940
7237.54288,0.01286
7239.47135,0.15594
7241.39982,0.19972
7243.32828,0.14560
7245.25675,0.19835
7247.18522,0.26354
7249.11369,0.15584
7251.04216,-0.06724
7252.97063,-0.13607
7254.89910,-0.04462
7256.82756,-0.02001
7258.75603,-0.08412
7260.68450,-0.13031
7262.61297,-0.02231
7264.54144,0.04890
7266.46991,-0.04011
7268.39838,-0.04977
7270.32685,0.11103
7272.25531,0.15551
7274.18378,-0.04385
7276.11225,-0.08477
7278.04072,0.08488
7279.96919,0.13610
7281.89766,-0.06499
7283.82613,-0.22595
7285.75459,-0.29814
7287.68306,-0.28516
7289.61153,-0.16275
7291.54000,-0.02579
7293.46847,0.02208
7295.39694,0.07179
7297.32541,0.20862
7299.25387,0.30437
7301.18234,0.25956
7303.11081,0.09124
7305.03928,-0.13537
7306.96775,-0.19549
7308.89622,0.08829
7310.82469,0.30150
7312.75316,0.24844
7314.68162,0.23812
7316.61009,0.33342
7318.53856,0.34763
7320.46703,0.27245
7322.39550,0.15847
7324.32397,0.10437
7326.25244,0.19286
7328.18090,0.28043
7330.10937,0.18873
7332.03784,0.07472
7333.96631,0.09106
7335.89478,0.11025
7337.82325,0.06275
7339.75172,0.05559
7341.68019,0.13007
7343.60865,0.08901
7345.53712,0.00353
7347.46559,0.02388
7349.39406,0.03727
7351.32253,0.01672
7353.25100,0.02058
7355.17947,0.01358
7357.10793,0.06033
7359.03640,0.16068
7360.96487,0.18615
7362.89334,0.08532
7364.82181,-0.03760
7366.75028,-0.03292
7368.67875,0.05200
7370.60722,0.07732
7372.53568,0.05562
7374.46415,0.12610
7376.39262,0.22469
7378.32109,0.08364
7380.24956,-0.23107
7382.17803,-0.41759
7384.10650,-0.20902
7386.03496,0.18197
7387.96343,0.36386
7389.89190,0.34796
7391.82037,0.22819
7393.74884,-0.00317
7395.67731,-0.15350
7397.60578,-0.13052
7399.53425,0.00176
7401.46271,0.19399
7403.39118,0.26501
7405.31965,0.15706
7407.24812,0.12777
7409.17659,0.22726
7411.10506,0.29163
7413.03353,0.26697
7414.96199,0.22403
7416.89046,0.17169
7418.81893,0.07499
7420.74740,0.02383
7422.67587,0.01976
7424.60434,0.01647
7426.53281,0.11504
7428.46128,0.33135
7430.38974,0.43975
7432.31821,0.29108
7434.24668,0.08849
7436.17515,0.01388
7438.10362,0.08966
7440.03209,0.16755
7441.96056,0.16050
7443.88902,0.14342
7445.81749,0.12146
7447.74596,0.05705
7449.67443,0.05605
7451.60290,0.13469
7453.53137,0.07216
7455.45984,-0.03770
7457.38831,-0.04103
7459.31677,0.00353
7461.24524,-0.02535
7463.17371,-0.14323
7465.10218,-0.29255
7467.03065,-0.26938
7468.95912,0.00752
7470.88759,0.23461
7472.81605,0.19249
7474.74452,0.10658
7476.67299,0.13655
7478.60146,0.25295
7480.52993,0.29652
7482.45840,0.18908
7484.38687,0.06649
7486.31533,-0.00581
7488.24380,-0.08508
7490.17227,-0.14765
7492.10074,-0.06987
7494.02921,0.05056
7495.95768,0.05182
7497.88615,-0.06004
