399.19301,0.23299
401.12148,0.75756
403.04995,0.61194
404.97842,0.34852
406.90689,0.26432
408.83536,0.23252
410.76382,0.17613
412.69229,0.07039
414.62076,-0.04390
416.54923,-0.02708
418.47770,0.12335
420.40617,0.11440
422.33464,0.02440
424.26311,0.10640
426.19157,0.24662
428.12004,0.30122
430.04851,0.31843
431.97698,0.27954
433.90545,0.16991
435.83392,0.09734
437.76239,0.06263
439.69085,-0.00106
441.61932,-0.03180
443.54779,0.03841
445.47626,0.09623
447.40473,0.08249
449.33320,0.02504
451.26167,-0.03709
453.19013,-0.02901
455.11860,0.05423
457.04707,0.09990
458.97554,0.08993
460.90401,0.12249
462.83248,0.16467
464.76095,0.14998
466.68942,0.11142
468.61788,0.10182
470.54635,0.14203
472.47482,0.24149
474.40329,0.29513
476.33176,0.21683
478.26023,0.12101
480.18870,0.06571
482.11716,0.07672
484.04563,0.10005
485.97410,0.05747
487.90257,-0.00504
489.83104,0.00895
491.75951,0.07716
493.68798,0.09830
495.61645,0.07810
497.54491,0.08845
499.47338,0.10571
501.40185,0.10107
503.33032,0.11447
505.25879,0.14637
507.18726,0.15699
509.11573,0.12947
511.04419,0.10321
512.97266,0.10320
514.90113,0.10401
516.82960,0.08326
518.75807,0.06460
520.68654,0.08331
522.61501,0.10872
524.54348,0.09851
526.47194,0.05597
528.40041,0.03839
530.32888,0.08100
532.25735,0.12527
534.18582,0.13317
536.11429,0.13251
538.04276,0.13771
539.97122,0.12694
541.89969,0.06849
543.82816,0.01213
545.75663,0.01146
547.68510,0.04894
549.61357,0.14199
551.54204,0.27894
553.47051,0.35097
555.39897,0.28905
557.32744,0.18196
559.25591,0.13488
561.18438,0.11303
563.11285,0.08428
565.04132,0.07731
566.96979,0.12024
568.89825,0.18449
570.82672,0.19561
572.75519,0.15690
574.68366,0.12396
576.61213,0.10581
578.54060,0.08706
580.46907,0.07241
582.39754,0.07185
584.32600,0.08649
586.25447,0.09518
588.18294,0.08604
590.11141,0.08736
592.03988,0.10146
593.96835,0.11015
595.89682,0.11972
597.82528,0.12078
599.75375,0.10854
601.68222,0.11177
603.61069,0.12876
605.53916,0.13208
607.46763,0.13103
609.39610,0.13124
611.32456,0.12360
613.25303,0.11637
615.18150,0.11948
617.10997,0.12902
619.03844,0.13287
620.96691,0.11723
622.89538,0.09826
624.82385,0.10817
626.75231,0.12109
628.68078,0.10710
630.60925,0.10361
632.53772,0.12144
634.46619,0.12371
636.39466,0.11893
638.32313,0.13267
640.25159,0.14382
642.18006,0.13179
644.10853,0.12320
646.03700,0.13720
647.96547,0.14757
649.89394,0.12570
651.82241,0.09800
653.75088,0.10471
655.67934,0.12493
657.60781,0.12040
659.53628,0.10062
661.46475,0.08699
663.39322,0.07953
665.32169,0.08142
667.25016,0.11711
669.17862,0.16373
671.10709,0.14986
673.03556,0.13423
674.96403,0.14796
676.89250,0.16875
678.82097,0.16703
680.74944,0.13927
682.67791,0.11105
684.60637,0.10234
686.53484,0.10899
688.46331,0.11731
690.39178,0.11781
692.32025,0.11570
694.24872,0.11778
696.17719,0.11391
698.10565,0.10496
700.03412,0.10679
701.96259,0.11616
703.89106,0.13276
705.81953,0.15311
707.74800,0.14435
709.67647,0.09659
711.60494,0.05242
713.53340,0.05850
715.46187,0.10303
717.39034,0.13434
719.31881,0.14158
721.24728,0.14609
723.17575,0.14432
725.10422,0.13045
727.03268,0.12187
728.96115,0.12079
730.88962,0.11649
732.81809,0.11717
734.74656,0.12793
736.67503,0.13319
738.60350,0.12954
740.53197,0.12964
742.46043,0.13814
744.38890,0.14792
746.31737,0.15192
748.24584,0.15241
750.17431,0.14664
752.10278,0.13375
754.03125,0.12428
755.95971,0.12178
757.88818,0.12028
759.81665,0.11499
761.74512,0.11414
763.67359,0.12624
765.60206,0.14126
767.53053,0.14438
769.45900,0.13567
771.38746,0.12483
773.31593,0.11746
775.24440,0.11909
777.17287,0.12813
779.10134,0.12719
781.02981,0.11888
782.95828,0.12020
784.88674,0.12267
786.81521,0.12322
788.74368,0.12695
790.67215,0.12697
792.60062,0.13115
794.52909,0.14739
796.45756,0.16214
798.38602,0.15730
800.31449,0.13437
802.24296,0.12199
804.17143,0.13450
806.09990,0.14892
808.02837,0.14651
809.95684,0.13177
811.88531,0.11713
813.81377,0.11907
815.74224,0.13384
817.67071,0.13583
819.59918,0.12722
821.52765,0.12721
823.45612,0.13698
825.38459,0.14642
827.31305,0.14255
829.24152,0.13097
831.16999,0.12710
833.09846,0.12824
835.02693,0.13375
836.95540,0.14747
838.88387,0.15897
840.81234,0.16310
842.74080,0.16537
844.66927,0.15835
846.59774,0.13883
848.52621,0.12926
850.45468,0.14088
852.38315,0.15610
854.31162,0.16273
856.24008,0.16268
858.16855,0.15355
860.09702,0.13877
862.02549,0.13082
863.95396,0.13046
865.88243,0.13061
867.81090,0.13317
869.73937,0.14194
871.66783,0.14752
873.59630,0.14293
875.52477,0.13572
877.45324,0.13288
879.38171,0.13547
881.31018,0.14261
883.23865,0.15031
885.16711,0.15510
887.09558,0.15897
889.02405,0.15748
890.95252,0.14815
892.88099,0.14455
894.80946,0.14851
896.73793,0.15038
898.66640,0.15246
900.59486,0.15425
902.52333,0.15250
904.45180,0.15108
906.38027,0.14922
908.30874,0.14759
910.23721,0.15106
912.16568,0.15731
914.09414,0.15984
916.02261,0.15782
917.95108,0.15564
919.87955,0.15533
921.80802,0.15522
923.73649,0.15507
925.66496,0.15855
927.59343,0.16177
929.52189,0.15407
931.45036,0.14059
933.37883,0.13584
935.30730,0.14054
937.23577,0.14286
939.16424,0.13895
941.09271,0.13691
943.02117,0.13887
944.94964,0.14035
946.87811,0.14088
948.80658,0.14214
950.73505,0.14551
952.66352,0.15040
954.59199,0.15128
956.52045,0.14589
958.44892,0.14284
960.37739,0.14789
962.30586,0.15451
964.23433,0.15386
966.16280,0.14845
968.09127,0.14668
970.01974,0.14301
971.94820,0.13476
973.87667,0.13648
975.80514,0.14803
977.73361,0.15608
979.66208,0.15903
981.59055,0.15649
983.51902,0.15042
985.44748,0.15144
987.37595,0.15618
989.30442,0.15386
991.23289,0.14888
993.16136,0.14473
995.08983,0.13732
997.01830,0.12976
998.94677,0.12990
1000.87523,0.13852
1002.80370,0.14661
1004.73217,0.15083
1006.66064,0.15584
1008.58911,0.15719
1010.51758,0.15337
1012.44605,0.15418
1014.37451,0.15859
1016.30298,0.15885
1018.23145,0.15823
1020.15992,0.16234
1022.08839,0.16631
1024.01686,0.16143
1025.94533,0.15341
1027.87380,0.15613
1029.80226,0.16385
1031.73073,0.16213
1033.65920,0.15865
1035.58767,0.16108
1037.51614,0.16528
1039.44461,0.17340
1041.37308,0.17952
1043.30154,0.17218
1045.23001,0.15896
1047.15848,0.15478
1049.08695,0.15920
1051.01542,0.16140
1052.94389,0.16230
1054.87236,0.17196
1056.80083,0.18260
1058.72929,0.17885
1060.65776,0.17151
1062.58623,0.17635
1064.51470,0.18548
1066.44317,0.18625
1068.37164,0.18143
1070.30011,0.18033
1072.22857,0.18369
1074.15704,0.18647
1076.08551,0.18375
1078.01398,0.17808
1079.94245,0.17618
1081.87092,0.17499
1083.79939,0.17064
1085.72786,0.16296
1087.65632,0.15498
1089.58479,0.15450
1091.51326,0.15969
1093.44173,0.16296
1095.37020,0.16632
1097.29867,0.16713
1099.22714,0.16527
1101.15560,0.16704
1103.08407,0.16114
1105.01254,0.15052
1106.94101,0.15211
1108.86948,0.15913
1110.79795,0.16416
1112.72642,0.16639
1114.65489,0.16274
1116.58335,0.15840
1118.51182,0.15977
1120.44029,0.16420
1122.36876,0.16294
1124.29723,0.15337
1126.22570,0.14981
1128.15417,0.16135
1130.08263,0.17024
1132.01110,0.16453
1133.93957,0.15471
1135.86804,0.14904
1137.79651,0.15120
1139.72498,0.16091
1141.65345,0.16467
1143.58191,0.15848
1145.51038,0.15578
1147.43885,0.15848
1149.36732,0.15941
1151.29579,0.15954
1153.22426,0.16056
1155.15273,0.16091
1157.08120,0.16128
1159.00966,0.16442
1160.93813,0.16842
1162.86660,0.16848
1164.79507,0.16756
1166.72354,0.16857
1168.65201,0.16679
1170.58048,0.16259
1172.50894,0.16031
1174.43741,0.16153
1176.36588,0.16522
1178.29435,0.16752
1180.22282,0.16877
1182.15129,0.16992
1184.07976,0.16832
1186.00823,0.16515
1187.93669,0.16501
1189.86516,0.16980
1191.79363,0.17595
1193.72210,0.17795
1195.65057,0.17195
1197.57904,0.16126
1199.50751,0.15680
1201.43597,0.16105
1203.36444,0.16596
1205.29291,0.16776
1207.22138,0.16779
1209.14985,0.16679
1211.07832,0.16721
1213.00679,0.17043
1214.93526,0.17091
1216.86372,0.16503
1218.79219,0.15973
1220.72066,0.16183
1222.64913,0.16812
1224.57760,0.17276
1226.50607,0.17418
1228.43454,0.17319
1230.36300,0.17211
1232.29147,0.16982
1234.21994,0.16210
1236.14841,0.15408
1238.07688,0.15529
1240.00535,0.16253
1241.93382,0.16662
1243.86229,0.16637
1245.79075,0.16531
1247.71922,0.16540
1249.64769,0.16572
1251.57616,0.16380
1253.50463,0.16104
1255.43310,0.16308
1257.36157,0.16882
1259.29003,0.17025
1261.21850,0.16710
1263.14697,0.16501
1265.07544,0.16393
1267.00391,0.16063
1268.93238,0.15493
1270.86085,0.15282
1272.78932,0.15796
1274.71778,0.16296
1276.64625,0.16372
1278.57472,0.16393
1280.50319,0.16146
1282.43166,0.15815
1284.36013,0.16240
1286.28860,0.16864
1288.21706,0.16956
1290.14553,0.16997
1292.07400,0.16984
1294.00247,0.16571
1295.93094,0.16126
1297.85941,0.15800
1299.78788,0.15047
1301.71634,0.13444
1303.64481,0.11862
1305.57328,0.12336
1307.50175,0.14837
1309.43022,0.16747
1311.35869,0.17192
1313.28716,0.17339
1315.21563,0.17525
1317.14409,0.17506
1319.07256,0.17391
1321.00103,0.17222
1322.92950,0.16816
1324.85797,0.16165
1326.78644,0.15916
1328.71491,0.16325
1330.64337,0.16299
1332.57184,0.15934
1334.50031,0.16081
1336.42878,0.16227
1338.35725,0.16222
1340.28572,0.15710
1342.21419,0.14868
1344.14266,0.14711
1346.07112,0.14741
1347.99959,0.14989
1349.92806,0.15538
1351.85653,0.15622
1353.78500,0.15722
1355.71347,0.16255
1357.64194,0.16775
1359.57040,0.17117
1361.49887,0.17313
1363.42734,0.17234
1365.35581,0.16909
1367.28428,0.16537
1369.21275,0.16436
1371.14122,0.16995
1373.06969,0.17866
1374.99815,0.18295
1376.92662,0.18108
1378.85509,0.17733
1380.78356,0.17524
1382.71203,0.17594
1384.64050,0.17869
1386.56897,0.18254
1388.49743,0.18408
1390.42590,0.18248
1392.35437,0.18326
1394.28284,0.18663
1396.21131,0.18848
1398.13978,0.18814
1400.06825,0.18372
1401.99672,0.17869
1403.92518,0.17789
1405.85365,0.17785
1407.78212,0.17503
1409.71059,0.17475
1411.63906,0.17865
1413.56753,0.18105
1415.49600,0.18444
1417.42446,0.19354
1419.35293,0.19672
1421.28140,0.19003
1423.20987,0.18693
1425.13834,0.18555
1427.06681,0.18432
1428.99528,0.18787
1430.92375,0.19256
1432.85221,0.19398
1434.78068,0.19856
1436.70915,0.20272
1438.63762,0.19475
1440.56609,0.18380
1442.49456,0.17591
1444.42303,0.17499
1446.35149,0.18252
1448.27996,0.19202
1450.20843,0.19895
1452.13690,0.20299
1454.06537,0.20697
1455.99384,0.21696
1457.92231,0.21915
1459.85077,0.20312
1461.77924,0.19316
1463.70771,0.19107
1465.63618,0.18869
1467.56465,0.18620
1469.49312,0.18994
1471.42159,0.19833
1473.35006,0.20034
1475.27852,0.19356
1477.20699,0.18858
1479.13546,0.18941
1481.06393,0.19325
1482.99240,0.19309
1484.92087,0.19171
1486.84934,0.19791
1488.77780,0.20795
1490.70627,0.20646
1492.63474,0.20016
1494.56321,0.20097
1496.49168,0.20568
1498.42015,0.20483
1500.34862,0.20079
1502.27709,0.20017
1504.20555,0.20807
1506.13402,0.23180
1508.06249,0.23833
1509.99096,0.21694
1511.91943,0.20285
1513.84790,0.20229
1515.77637,0.21460
1517.70483,0.22712
1519.63330,0.23228
1521.56177,0.23298
1523.49024,0.22448
1525.41871,0.21511
1527.34718,0.20786
1529.27565,0.20237
1531.20412,0.20315
1533.13258,0.20979
1535.06105,0.21409
1536.98952,0.22134
1538.91799,0.24441
1540.84646,0.26327
1542.77493,0.24574
1544.70340,0.22281
1546.63186,0.20697
1548.56033,0.20293
1550.48880,0.20540
1552.41727,0.20764
1554.34574,0.21187
1556.27421,0.21889
1558.20268,0.22594
1560.13115,0.21521
1562.05961,0.20244
1563.98808,0.19792
1565.91655,0.19760
1567.84502,0.20324
1569.77349,0.20869
1571.70196,0.20488
1573.63043,0.20296
1575.55889,0.20249
1577.48736,0.19133
1579.41583,0.18142
1581.34430,0.18075
1583.27277,0.18295
1585.20124,0.18204
1587.12971,0.18159
1589.05818,0.18435
1590.98664,0.18463
1592.91511,0.18291
1594.84358,0.18363
1596.77205,0.18338
1598.70052,0.18041
1600.62899,0.17868
1602.55746,0.17931
1604.48592,0.17999
1606.41439,0.18087
1608.34286,0.18263
1610.27133,0.18329
1612.19980,0.18348
1614.12827,0.18615
1616.05674,0.18975
1617.98521,0.19001
1619.91367,0.19322
1621.84214,0.20115
1623.77061,0.20397
1625.69908,0.20035
1627.62755,0.19760
1629.55602,0.19384
1631.48449,0.19261
1633.41295,0.19739
1635.34142,0.20338
1637.26989,0.20236
1639.19836,0.19677
1641.12683,0.19210
1643.05530,0.19399
1644.98377,0.20630
1646.91223,0.22335
1648.84070,0.22686
1650.76917,0.22528
1652.69764,0.22671
1654.62611,0.21878
1656.55458,0.20840
1658.48305,0.20072
1660.41152,0.19380
1662.33998,0.19128
1664.26845,0.19533
1666.19692,0.20254
1668.12539,0.21352
1670.05386,0.22094
1671.98233,0.21646
1673.91080,0.21086
1675.83926,0.20752
1677.76773,0.20609
1679.69620,0.20864
1681.62467,0.21538
1683.55314,0.21894
1685.48161,0.20869
1687.41008,0.20280
1689.33855,0.20456
1691.26701,0.20482
1693.19548,0.20470
1695.12395,0.21155
1697.05242,0.22053
1698.98089,0.21875
1700.90936,0.21055
1702.83783,0.20637
1704.76629,0.20625
1706.69476,0.20554
1708.62323,0.20122
1710.55170,0.19870
1712.48017,0.20385
1714.40864,0.21657
1716.33711,0.22965
1718.26558,0.22539
1720.19404,0.20861
1722.12251,0.19734
1724.05098,0.19263
1725.97945,0.18982
1727.90792,0.18918
1729.83639,0.19317
1731.76486,0.20150
1733.69332,0.21112
1735.62179,0.20808
1737.55026,0.19919
1739.47873,0.19513
1741.40720,0.19628
1743.33567,0.20039
1745.26414,0.20460
1747.19261,0.20789
1749.12107,0.20875
1751.04954,0.20224
1752.97801,0.19462
1754.90648,0.19392
1756.83495,0.19604
1758.76342,0.19609
1760.69189,0.19636
1762.62035,0.19557
1764.54882,0.19281
1766.47729,0.19357
1768.40576,0.20029
1770.33423,0.21087
1772.26270,0.21706
1774.19117,0.21046
1776.11964,0.20114
1778.04810,0.19742
1779.97657,0.19840
1781.90504,0.19870
1783.83351,0.19695
1785.76198,0.19512
1787.69045,0.19422
1789.61892,0.19584
1791.54738,0.19859
1793.47585,0.19864
1795.40432,0.19669
1797.33279,0.19608
1799.26126,0.19790
1801.18973,0.19734
1803.11820,0.19359
1805.04666,0.19114
1806.97513,0.18916
1808.90360,0.18915
1810.83207,0.19238
1812.76054,0.19291
1814.68901,0.18988
1816.61748,0.18723
1818.54595,0.18598
1820.47441,0.18733
1822.40288,0.19294
1824.33135,0.19937
1826.25982,0.20184
1828.18829,0.20402
1830.11676,0.20543
1832.04523,0.19965
1833.97369,0.19360
1835.90216,0.19278
1837.83063,0.19247
1839.75910,0.19085
1841.68757,0.19342
1843.61604,0.19997
1845.54451,0.20140
1847.47298,0.19736
1849.40144,0.19193
1851.32991,0.18639
1853.25838,0.18463
1855.18685,0.18636
1857.11532,0.18756
1859.04379,0.18817
1860.97226,0.18851
1862.90072,0.18746
1864.82919,0.18796
1866.75766,0.19411
1868.68613,0.20207
1870.61460,0.20211
1872.54307,0.19636
1874.47154,0.19160
1876.40001,0.19078
1878.32847,0.19232
1880.25694,0.19185
1882.18541,0.18972
1884.11388,0.18828
1886.04235,0.18795
1887.97082,0.18969
1889.89929,0.19057
1891.82775,0.18788
1893.75622,0.18616
1895.68469,0.18744
1897.61316,0.18997
1899.54163,0.19105
1901.47010,0.18862
1903.39857,0.18624
1905.32704,0.18671
1907.25550,0.18793
1909.18397,0.18903
1911.11244,0.18979
1913.04091,0.19008
1914.96938,0.19094
1916.89785,0.19145
1918.82632,0.19173
1920.75478,0.19478
1922.68325,0.19560
1924.61172,0.19050
1926.54019,0.18695
1928.46866,0.18759
1930.39713,0.18911
1932.32560,0.18951
1934.25407,0.18883
1936.18253,0.18837
1938.11100,0.18948
1940.03947,0.19303
1941.96794,0.19672
1943.89641,0.19534
1945.82488,0.19104
1947.75335,0.19027
1949.68181,0.19168
1951.61028,0.19194
1953.53875,0.19114
1955.46722,0.18922
1957.39569,0.18724
1959.32416,0.18755
1961.25263,0.18986
1963.18110,0.19162
1965.10956,0.19232
1967.03803,0.19152
1968.96650,0.18833
1970.89497,0.18503
1972.82344,0.18347
1974.75191,0.18358
1976.68038,0.18487
1978.60884,0.18689
1980.53731,0.18781
1982.46578,0.18655
1984.39425,0.18563
1986.32272,0.18672
1988.25119,0.18943
1990.17966,0.19308
1992.10812,0.19514
1994.03659,0.19506
1995.96506,0.19434
1997.89353,0.19269
1999.82200,0.18893
2001.75047,0.18354
2003.67894,0.18123
2005.60741,0.18315
2007.53587,0.18473
2009.46434,0.18564
2011.39281,0.18764
2013.32128,0.19050
2015.24975,0.19287
2017.17822,0.19166
2019.10669,0.18691
2021.03515,0.18363
2022.96362,0.18456
2024.89209,0.18822
2026.82056,0.19079
2028.74903,0.19094
2030.67750,0.19108
2032.60597,0.19061
2034.53444,0.18888
2036.46290,0.18796
2038.39137,0.18833
2040.31984,0.19037
2042.24831,0.19296
2044.17678,0.19331
2046.10525,0.19170
2048.03372,0.18992
2049.96218,0.18832
2051.89065,0.18688
2053.81912,0.18674
2055.74759,0.18792
2057.67606,0.18939
2059.60453,0.19119
2061.53300,0.19140
2063.46147,0.19025
2065.38993,0.19065
2067.31840,0.19047
2069.24687,0.18869
2071.17534,0.18742
2073.10381,0.18503
2075.03228,0.18200
2076.96075,0.18321
2078.88921,0.18817
2080.81768,0.19108
2082.74615,0.19086
2084.67462,0.19118
2086.60309,0.19215
2088.53156,0.19188
2090.46003,0.19155
2092.38850,0.19236
2094.31696,0.19417
2096.24543,0.19629
2098.17390,0.19661
2100.10237,0.19399
2102.03084,0.19175
2103.95931,0.19318
2105.88778,0.19541
2107.81624,0.19594
2109.74471,0.19618
2111.67318,0.19609
2113.60165,0.19561
2115.53012,0.19470
2117.45859,0.19324
2119.38706,0.19226
2121.31553,0.19165
2123.24399,0.19263
2125.17246,0.19560
2127.10093,0.19727
2129.02940,0.19629
2130.95787,0.19395
2132.88634,0.19208
2134.81481,0.19113
2136.74327,0.19095
2138.67174,0.19217
2140.60021,0.19296
2142.52868,0.19226
2144.45715,0.19166
2146.38562,0.19138
2148.31409,0.19138
2150.24255,0.19267
2152.17102,0.19522
2154.09949,0.19671
2156.02796,0.19545
2157.95643,0.19334
2159.88490,0.19214
2161.81337,0.19171
2163.74184,0.19203
2165.67030,0.19188
2167.59877,0.19173
2169.52724,0.19266
2171.45571,0.19204
2173.38418,0.19049
2175.31265,0.19021
2177.24112,0.19052
2179.16958,0.19265
2181.09805,0.19596
2183.02652,0.19666
2184.95499,0.19439
2186.88346,0.19180
2188.81193,0.19038
2190.74040,0.18981
2192.66887,0.18947
2194.59733,0.18977
2196.52580,0.19047
2198.45427,0.18964
2200.38274,0.18827
2202.31121,0.18955
2204.23968,0.19215
2206.16815,0.19292
2208.09661,0.19213
2210.02508,0.19094
2211.95355,0.19027
2213.88202,0.19054
2215.81049,0.19103
2217.73896,0.19094
2219.66743,0.18996
2221.59590,0.18960
2223.52436,0.19082
2225.45283,0.19112
2227.38130,0.19005
2229.30977,0.19234
2231.23824,0.19719
2233.16671,0.19761
2235.09518,0.19501
2237.02364,0.19381
2238.95211,0.19296
2240.88058,0.19265
2242.80905,0.19409
2244.73752,0.19552
2246.66599,0.19429
2248.59446,0.19213
2250.52293,0.19193
2252.45139,0.19129
2254.37986,0.18978
2256.30833,0.19093
2258.23680,0.19346
2260.16527,0.19382
2262.09374,0.19335
2264.02221,0.19383
2265.95067,0.19362
2267.87914,0.19307
2269.80761,0.19408
2271.73608,0.19570
2273.66455,0.19564
2275.59302,0.19353
2277.52149,0.19189
2279.44996,0.19123
2281.37842,0.19011
2283.30689,0.19001
2285.23536,0.19195
2287.16383,0.19334
2289.09230,0.19320
2291.02077,0.19409
2292.94924,0.19420
2294.87770,0.19180
2296.80617,0.19149
2298.73464,0.19302
2300.66311,0.19360
2302.59158,0.19400
2304.52005,0.19210
2306.44852,0.18812
2308.37699,0.18625
2310.30545,0.18736
2312.23392,0.18917
2314.16239,0.18939
2316.09086,0.19066
2318.01933,0.19797
2319.94780,0.20649
2321.87627,0.20498
2323.80473,0.19686
2325.73320,0.19645
2327.66167,0.20338
2329.59014,0.20364
2331.51861,0.19173
2333.44708,0.17630
2335.37555,0.16698
2337.30401,0.16949
2339.23248,0.17832
2341.16095,0.18544
2343.08942,0.19028
2345.01789,0.19063
2346.94636,0.18978
2348.87483,0.18939
2350.80330,0.18776
2352.73176,0.19170
2354.66023,0.20924
2356.58870,0.21402
2358.51717,0.18611
2360.44564,0.16925
2362.37411,0.18011
2364.30258,0.19440
2366.23104,0.20854
2368.15951,0.21330
2370.08798,0.19897
2372.01645,0.18557
2373.94492,0.18597
2375.87339,0.18860
2377.80186,0.18890
2379.73033,0.18942
2381.65879,0.18844
2383.58726,0.18899
2385.51573,0.19355
2387.44420,0.19603
2389.37267,0.19436
2391.30114,0.19376
2393.22961,0.19497
2395.15807,0.19420
2397.08654,0.19121
2399.01501,0.18981
2400.94348,0.19038
2402.87195,0.19034
2404.80042,0.19047
2406.72889,0.19124
2408.65736,0.19048
2410.58582,0.18871
2412.51429,0.18942
2414.44276,0.19251
2416.37123,0.19364
2418.29970,0.19209
2420.22817,0.19078
2422.15664,0.19114
2424.08510,0.19192
2426.01357,0.19104
2427.94204,0.18969
2429.87051,0.19069
2431.79898,0.19253
2433.72745,0.19193
2435.65592,0.19066
2437.58439,0.19144
2439.51285,0.19255
2441.44132,0.19122
2443.36979,0.18855
2445.29826,0.19000
2447.22673,0.19565
2449.15520,0.19616
2451.08367,0.18893
2453.01213,0.18462
2454.94060,0.18842
2456.86907,0.19328
2458.79754,0.19543
2460.72601,0.19708
2462.65448,0.19688
2464.58295,0.19299
2466.51142,0.19019
2468.43988,0.19146
2470.36835,0.19234
2472.29682,0.19091
2474.22529,0.19006
2476.15376,0.19116
2478.08223,0.19287
2480.01070,0.19458
2481.93916,0.19537
2483.86763,0.19374
2485.79610,0.19204
2487.72457,0.19252
2489.65304,0.19336
2491.58151,0.19360
2493.50998,0.19411
2495.43844,0.19383
2497.36691,0.19252
2499.29538,0.19168
2501.22385,0.19141
2503.15232,0.19203
2505.08079,0.19420
2507.00926,0.19592
2508.93773,0.19602
2510.86619,0.19594
2512.79466,0.19638
2514.72313,0.19831
2516.65160,0.20035
2518.58007,0.19969
2520.50854,0.19725
2522.43701,0.19483
2524.36547,0.19309
2526.29394,0.19182
2528.22241,0.19177
2530.15088,0.19341
2532.07935,0.19563
2534.00782,0.19705
2535.93629,0.19729
2537.86476,0.19824
2539.79322,0.19836
2541.72169,0.19477
2543.65016,0.19020
2545.57863,0.18858
2547.50710,0.19157
2549.43557,0.19692
2551.36404,0.19898
2553.29250,0.19694
2555.22097,0.19562
2557.14944,0.19663
2559.07791,0.19844
2561.00638,0.19936
2562.93485,0.19883
2564.86332,0.19856
2566.79179,0.19846
2568.72025,0.19788
2570.64872,0.19749
2572.57719,0.19626
2574.50566,0.19469
2576.43413,0.19568
2578.36260,0.19786
2580.29107,0.19800
2582.21953,0.19528
2584.14800,0.19084
2586.07647,0.18869
2588.00494,0.19027
2589.93341,0.19243
2591.86188,0.19385
2593.79035,0.19548
2595.71882,0.19570
2597.64728,0.19264
2599.57575,0.18913
2601.50422,0.18870
2603.43269,0.19108
2605.36116,0.19382
2607.28963,0.19568
2609.21810,0.19598
2611.14656,0.19285
2613.07503,0.18900
2615.00350,0.18924
2616.93197,0.19215
2618.86044,0.19558
2620.78891,0.19834
2622.71738,0.19751
2624.64585,0.19441
2626.57431,0.19303
2628.50278,0.19437
2630.43125,0.19626
2632.35972,0.19577
2634.28819,0.19409
2636.21666,0.19416
2638.14513,0.19648
2640.07359,0.19969
2642.00206,0.20029
2643.93053,0.19743
2645.85900,0.19516
2647.78747,0.19539
2649.71594,0.19719
2651.64441,0.19850
2653.57288,0.19766
2655.50134,0.19648
2657.42981,0.19606
2659.35828,0.19576
2661.28675,0.19721
2663.21522,0.20065
2665.14369,0.20249
2667.07216,0.20153
2669.00062,0.20062
2670.92909,0.20094
2672.85756,0.20057
2674.78603,0.19624
2676.71450,0.18944
2678.64297,0.18859
2680.57144,0.19436
2682.49990,0.19795
2684.42837,0.19699
2686.35684,0.19641
2688.28531,0.19753
2690.21378,0.19666
2692.14225,0.19482
2694.07072,0.19617
2695.99919,0.19841
2697.92765,0.19936
2699.85612,0.20103
2701.78459,0.20260
2703.71306,0.20261
2705.64153,0.20265
2707.57000,0.20242
2709.49847,0.20048
2711.42693,0.20024
2713.35540,0.20404
2715.28387,0.20682
2717.21234,0.20417
2719.14081,0.19976
2721.06928,0.19836
2722.99775,0.19818
2724.92622,0.19741
2726.85468,0.19821
2728.78315,0.19968
2730.71162,0.19963
2732.64009,0.19826
2734.56856,0.19605
2736.49703,0.19674
2738.42550,0.20046
2740.35396,0.20063
2742.28243,0.20037
2744.21090,0.20404
2746.13937,0.20406
2748.06784,0.20012
2749.99631,0.20070
2751.92478,0.20525
2753.85325,0.20847
2755.78171,0.21072
2757.71018,0.21129
2759.63865,0.20614
2761.56712,0.19929
2763.49559,0.19795
2765.42406,0.20057
2767.35253,0.20216
2769.28099,0.20288
2771.20946,0.20479
2773.13793,0.20643
2775.06640,0.20617
2776.99487,0.20440
2778.92334,0.20296
2780.85181,0.20385
2782.78028,0.20565
2784.70874,0.20534
2786.63721,0.20421
2788.56568,0.20567
2790.49415,0.20915
2792.42262,0.21183
2794.35109,0.21267
2796.27956,0.21223
2798.20802,0.20956
2800.13649,0.20528
2802.06496,0.20367
2803.99343,0.20456
2805.92190,0.20421
2807.85037,0.20269
2809.77884,0.20345
2811.70731,0.20712
2813.63577,0.20949
2815.56424,0.20810
2817.49271,0.20669
2819.42118,0.20874
2821.34965,0.21014
2823.27812,0.20838
2825.20659,0.20800
2827.13505,0.20966
2829.06352,0.20914
2830.99199,0.20650
2832.92046,0.20558
2834.84893,0.20836
2836.77740,0.21272
2838.70587,0.21469
2840.63433,0.21290
2842.56280,0.20830
2844.49127,0.20487
2846.41974,0.20558
2848.34821,0.20697
2850.27668,0.20734
2852.20515,0.20876
2854.13362,0.20851
2856.06208,0.20447
2857.99055,0.20183
2859.91902,0.20334
2861.84749,0.20469
2863.77596,0.20367
2865.70443,0.20302
2867.63290,0.20361
2869.56136,0.20402
2871.48983,0.20518
2873.41830,0.20819
2875.34677,0.21134
2877.27524,0.21273
2879.20371,0.21285
2881.13218,0.21065
2883.06065,0.20533
2884.98911,0.20130
2886.91758,0.19974
2888.84605,0.19950
2890.77452,0.20340
2892.70299,0.20819
2894.63146,0.20782
2896.55993,0.20597
2898.48839,0.20565
2900.41686,0.20557
2902.34533,0.20716
2904.27380,0.20727
2906.20227,0.20427
2908.13074,0.20425
2910.05921,0.20720
2911.98768,0.20734
2913.91614,0.20169
2915.84461,0.19433
2917.77308,0.19474
2919.70155,0.20038
2921.63002,0.20132
2923.55849,0.19723
2925.48696,0.19193
2927.41542,0.19263
2929.34389,0.20072
2931.27236,0.20627
2933.20083,0.20482
2935.12930,0.19706
2937.05777,0.18955
2938.98624,0.19221
2940.91471,0.19898
2942.84317,0.19998
2944.77164,0.19538
2946.70011,0.18796
2948.62858,0.18507
2950.55705,0.18766
2952.48552,0.19118
2954.41399,0.19495
2956.34245,0.19027
2958.27092,0.18395
2960.19939,0.19333
2962.12786,0.20595
2964.05633,0.20732
2965.98480,0.20057
2967.91327,0.19235
2969.84174,0.19276
2971.77020,0.20007
2973.69867,0.20251
2975.62714,0.19629
2977.55561,0.18758
2979.48408,0.18924
2981.41255,0.20279
2983.34102,0.21535
2985.26948,0.21535
2987.19795,0.20247
2989.12642,0.19599
2991.05489,0.20560
2992.98336,0.21497
2994.91183,0.21616
2996.84030,0.21443
2998.76877,0.21297
3000.69723,0.21235
3002.62570,0.21220
3004.55417,0.21206
3006.48264,0.20883
3008.41111,0.20157
3010.33958,0.18939
3012.26805,0.16653
3014.19651,0.12993
3016.12498,0.09792
3018.05345,0.11046
3019.98192,0.16351
3021.91039,0.20287
3023.83886,0.21233
3025.76733,0.21148
3027.69579,0.20944
3029.62426,0.21176
3031.55273,0.21841
3033.48120,0.21931
3035.40967,0.21194
3037.33814,0.20526
3039.26661,0.20681
3041.19508,0.21297
3043.12354,0.21704
3045.05201,0.21725
3046.98048,0.21175
3048.90895,0.20577
3050.83742,0.20931
3052.76589,0.21762
3054.69436,0.21506
3056.62282,0.20054
3058.55129,0.19415
3060.47976,0.20356
3062.40823,0.21245
3064.33670,0.20785
3066.26517,0.19498
3068.19364,0.19065
3070.12211,0.19998
3072.05057,0.20957
3073.97904,0.20612
3075.90751,0.19534
3077.83598,0.19737
3079.76445,0.21234
3081.69292,0.21820
3083.62139,0.20340
3085.54985,0.18594
3087.47832,0.19017
3089.40679,0.20639
3091.33526,0.21009
3093.26373,0.19966
3095.19220,0.19615
3097.12067,0.20977
3099.04914,0.21992
3100.97760,0.21198
3102.90607,0.19554
3104.83454,0.18876
3106.76301,0.19657
3108.69148,0.20529
3110.61995,0.20274
3112.54842,0.19399
3114.47688,0.19639
3116.40535,0.20834
3118.33382,0.21217
3120.26229,0.20381
3122.19076,0.19608
3124.11923,0.20195
3126.04770,0.21354
3127.97617,0.21598
3129.90463,0.20965
3131.83310,0.20767
3133.76157,0.21429
3135.69004,0.21588
3137.61851,0.20694
3139.54698,0.20030
3141.47545,0.20499
3143.40391,0.21345
3145.33238,0.21581
3147.26085,0.21307
3149.18932,0.21427
3151.11779,0.21994
3153.04626,0.22173
3154.97473,0.21853
3156.90320,0.21449
3158.83166,0.21355
3160.76013,0.21521
3162.68860,0.21635
3164.61707,0.21772
3166.54554,0.21955
3168.47401,0.21976
3170.40248,0.21894
3172.33094,0.21825
3174.25941,0.21787
3176.18788,0.21796
3178.11635,0.21641
3180.04482,0.21568
3181.97329,0.22014
3183.90176,0.22520
3185.83022,0.22442
3187.75869,0.21815
3189.68716,0.21255
3191.61563,0.21133
3193.54410,0.21375
3195.47257,0.21949
3197.40104,0.22359
3199.32951,0.22055
3201.25797,0.21569
3203.18644,0.21351
3205.11491,0.21231
3207.04338,0.21245
3208.97185,0.21347
3210.90032,0.21247
3212.82879,0.21082
3214.75725,0.21169
3216.68572,0.21301
3218.61419,0.21312
3220.54266,0.21359
3222.47113,0.21414
3224.39960,0.21381
3226.32807,0.21373
3228.25654,0.21459
3230.18500,0.21621
3232.11347,0.21789
3234.04194,0.21690
3235.97041,0.21590
3237.89888,0.21906
3239.82735,0.22231
3241.75582,0.22093
3243.68428,0.21655
3245.61275,0.21226
3247.54122,0.20673
3249.46969,0.20167
3251.39816,0.20389
3253.32663,0.21315
3255.25510,0.21960
3257.18357,0.21739
3259.11203,0.21293
3261.04050,0.21355
3262.96897,0.21450
3264.89744,0.20835
3266.82591,0.20267
3268.75438,0.20622
3270.68285,0.21244
3272.61131,0.21421
3274.53978,0.21374
3276.46825,0.21436
3278.39672,0.21468
3280.32519,0.21227
3282.25366,0.21032
3284.18213,0.21207
3286.11060,0.21299
3288.03906,0.21229
3289.96753,0.21390
3291.89600,0.21408
3293.82447,0.21076
3295.75294,0.20969
3297.68141,0.21211
3299.60988,0.21225
3301.53834,0.20816
3303.46681,0.20518
3305.39528,0.20743
3307.32375,0.21219
3309.25222,0.21537
3311.18069,0.21280
3313.10916,0.20727
3315.03763,0.20897
3316.96609,0.21479
3318.89456,0.21632
3320.82303,0.21554
3322.75150,0.21453
3324.67997,0.21185
3326.60844,0.20867
3328.53691,0.20842
3330.46537,0.21119
3332.39384,0.21439
3334.32231,0.21626
3336.25078,0.21868
3338.17925,0.22198
3340.10772,0.22240
3342.03619,0.22170
3343.96466,0.21945
3345.89312,0.21313
3347.82159,0.21002
3349.75006,0.21112
3351.67853,0.20911
3353.60700,0.20833
3355.53547,0.21345
3357.46394,0.21731
3359.39240,0.21442
3361.32087,0.20972
3363.24934,0.21230
3365.17781,0.22067
3367.10628,0.22636
3369.03475,0.22792
3370.96322,0.22743
3372.89168,0.22587
3374.82015,0.22454
3376.74862,0.22225
3378.67709,0.21713
3380.60556,0.21304
3382.53403,0.21436
3384.46250,0.21980
3386.39097,0.22288
3388.31943,0.22084
3390.24790,0.22085
3392.17637,0.22362
3394.10484,0.22288
3396.03331,0.21868
3397.96178,0.21235
3399.89025,0.20804
3401.81871,0.21086
3403.74718,0.21638
3405.67565,0.21901
3407.60412,0.21850
3409.53259,0.21277
3411.46106,0.20385
3413.38953,0.20031
3415.31800,0.20477
3417.24646,0.21222
3419.17493,0.21659
3421.10340,0.21689
3423.03187,0.21511
3424.96034,0.21237
3426.88881,0.21073
3428.81728,0.20904
3430.74574,0.20651
3432.67421,0.20601
3434.60268,0.20693
3436.53115,0.20609
3438.45962,0.20256
3440.38809,0.19981
3442.31656,0.20089
3444.24503,0.20526
3446.17349,0.21070
3448.10196,0.21178
3450.03043,0.20916
3451.95890,0.20904
3453.88737,0.20901
3455.81584,0.20462
3457.74431,0.19859
3459.67277,0.19584
3461.60124,0.19813
3463.52971,0.20192
3465.45818,0.20386
3467.38665,0.20327
3469.31512,0.19841
3471.24359,0.19106
3473.17206,0.18661
3475.10052,0.18709
3477.02899,0.19004
3478.95746,0.19214
3480.88593,0.19120
3482.81440,0.18537
3484.74287,0.18001
3486.67134,0.18402
3488.59980,0.19436
3490.52827,0.20010
3492.45674,0.19780
3494.38521,0.19183
3496.31368,0.18725
3498.24215,0.18762
3500.17062,0.19120
3502.09909,0.19161
3504.02755,0.19070
3505.95602,0.19457
3507.88449,0.19913
3509.81296,0.19544
3511.74143,0.18337
3513.66990,0.17421
3515.59837,0.17270
3517.52683,0.17445
3519.45530,0.17687
3521.38377,0.18130
3523.31224,0.18724
3525.24071,0.19126
3527.16918,0.19066
3529.09765,0.18129
3531.02611,0.16815
3532.95458,0.16347
3534.88305,0.16667
3536.81152,0.16883
3538.73999,0.16807
3540.66846,0.16820
3542.59693,0.17021
3544.52540,0.17372
3546.45386,0.17830
3548.38233,0.18171
3550.31080,0.18121
3552.23927,0.17527
3554.16774,0.16639
3556.09621,0.16244
3558.02468,0.16650
3559.95314,0.17044
3561.88161,0.16804
3563.81008,0.16424
3565.73855,0.16580
3567.66702,0.17164
3569.59549,0.17243
3571.52396,0.16862
3573.45243,0.16369
3575.38089,0.15988
3577.30936,0.15929
3579.23783,0.16097
3581.16630,0.16369
3583.09477,0.16757
3585.02324,0.17245
3586.95171,0.17323
3588.88017,0.16435
3590.80864,0.15539
3592.73711,0.15447
3594.66558,0.16045
3596.59405,0.16303
3598.52252,0.15937
3600.45099,0.15660
3602.37946,0.15491
3604.30792,0.15531
3606.23639,0.15943
3608.16486,0.16236
3610.09333,0.16526
3612.02180,0.17206
3613.95027,0.17512
3615.87874,0.17107
3617.80720,0.16920
3619.73567,0.17084
3621.66414,0.16658
3623.59261,0.15893
3625.52108,0.15465
3627.44955,0.15715
3629.37802,0.16100
3631.30649,0.15573
3633.23495,0.14920
3635.16342,0.14566
3637.09189,0.14345
3639.02036,0.14104
3640.94883,0.13833
3642.87730,0.13938
3644.80577,0.15023
3646.73423,0.17096
3648.66270,0.18923
3650.59117,0.18070
3652.51964,0.16131
3654.44811,0.15115
3656.37658,0.14769
3658.30505,0.14434
3660.23352,0.14039
3662.16198,0.13602
3664.09045,0.13359
3666.01892,0.13754
3667.94739,0.14758
3669.87586,0.15409
3671.80433,0.14691
3673.73280,0.14158
3675.66126,0.14698
3677.58973,0.14892
3679.51820,0.14332
3681.44667,0.13804
3683.37514,0.13767
3685.30361,0.14347
3687.23208,0.15186
3689.16055,0.15692
3691.08901,0.15222
3693.01748,0.14190
3694.94595,0.13633
3696.87442,0.13596
3698.80289,0.13367
3700.73136,0.12883
3702.65983,0.12593
3704.58829,0.12514
3706.51676,0.12695
3708.44523,0.13550
3710.37370,0.14734
3712.30217,0.14866
3714.23064,0.14237
3716.15911,0.13546
3718.08757,0.12927
3720.01604,0.12903
3721.94451,0.13595
3723.87298,0.14197
3725.80145,0.14040
3727.72992,0.13572
3729.65839,0.13494
3731.58686,0.14058
3733.51532,0.15008
3735.44379,0.15421
3737.37226,0.15379
3739.30073,0.15354
3741.22920,0.15263
3743.15767,0.15456
3745.08614,0.15957
3747.01460,0.15827
3748.94307,0.15541
3750.87154,0.15647
3752.80001,0.15136
3754.72848,0.14026
3756.65695,0.13186
3758.58542,0.12686
3760.51389,0.12576
3762.44235,0.12986
3764.37082,0.13573
3766.29929,0.13843
3768.22776,0.13742
3770.15623,0.13602
3772.08470,0.13439
3774.01317,0.13419
3775.94163,0.13633
3777.87010,0.13885
3779.79857,0.14090
3781.72704,0.14164
3783.65551,0.14163
3785.58398,0.14025
3787.51245,0.13713
3789.44092,0.13382
3791.36938,0.12899
3793.29785,0.12763
3795.22632,0.13547
3797.15479,0.14109
3799.08326,0.13945
3801.01173,0.13939
3802.94020,0.13589
3804.86866,0.13464
3806.79713,0.13952
3808.72560,0.13750
3810.65407,0.12880
3812.58254,0.12190
3814.51101,0.12029
3816.43948,0.12469
3818.36795,0.12907
3820.29641,0.13065
3822.22488,0.13168
3824.15335,0.13146
3826.08182,0.12988
3828.01029,0.12873
3829.93876,0.12999
3831.86723,0.13518
3833.79569,0.14358
3835.72416,0.15277
3837.65263,0.15789
3839.58110,0.15582
3841.50957,0.15092
3843.43804,0.14118
3845.36651,0.12970
3847.29498,0.12386
3849.22344,0.12334
3851.15191,0.12697
3853.08038,0.13307
3855.00885,0.13301
3856.93732,0.13041
3858.86579,0.12981
3860.79426,0.13349
3862.72272,0.13948
3864.65119,0.13661
3866.57966,0.13142
3868.50813,0.13717
3870.43660,0.14138
3872.36507,0.13145
3874.29354,0.12130
3876.22200,0.11740
3878.15047,0.11762
3880.07894,0.12136
3882.00741,0.12348
3883.93588,0.12159
3885.86435,0.12011
3887.79282,0.12007
3889.72129,0.12267
3891.64975,0.12470
3893.57822,0.11753
3895.50669,0.11167
3897.43516,0.11644
3899.36363,0.12540
3901.29210,0.13232
3903.22057,0.13944
3905.14903,0.13915
3907.07750,0.13064
3909.00597,0.12309
3910.93444,0.11524
3912.86291,0.10744
3914.79138,0.10522
3916.71985,0.10797
3918.64832,0.11082
3920.57678,0.11107
3922.50525,0.11316
3924.43372,0.12000
3926.36219,0.12436
3928.29066,0.12215
3930.21913,0.11834
3932.14760,0.11757
3934.07606,0.11707
3936.00453,0.11547
3937.93300,0.11683
3939.86147,0.12109
3941.78994,0.12447
3943.71841,0.12217
3945.64688,0.11547
3947.57535,0.11156
3949.50381,0.10884
3951.43228,0.10558
3953.36075,0.10801
3955.28922,0.11179
3957.21769,0.10972
3959.14616,0.10681
3961.07463,0.10770
3963.00309,0.11086
3964.93156,0.11325
3966.86003,0.11377
3968.78850,0.11462
3970.71697,0.11413
3972.64544,0.11039
3974.57391,0.10807
3976.50238,0.10882
3978.43084,0.10960
3980.35931,0.10830
3982.28778,0.10699
3984.21625,0.10659
3986.14472,0.10298
3988.07319,0.09910
3990.00166,0.09997
3991.93012,0.10224
3993.85859,0.10320
3995.78706,0.10532
3997.71553,0.10854
3999.64400,0.10900
4001.57247,0.10516
4003.50094,0.09930
4005.42941,0.09627
4007.35787,0.09733
4009.28634,0.10050
4011.21481,0.10442
4013.14328,0.10421
4015.07175,0.09923
4017.00022,0.09672
4018.92869,0.09781
4020.85715,0.09753
4022.78562,0.09679
4024.71409,0.09820
4026.64256,0.09991
4028.57103,0.10063
4030.49950,0.10055
4032.42797,0.10035
4034.35644,0.10156
4036.28490,0.10300
4038.21337,0.10149
4040.14184,0.09905
4042.07031,0.10187
4043.99878,0.10950
4045.92725,0.11359
4047.85572,0.10982
4049.78418,0.10322
4051.71265,0.09852
4053.64112,0.09644
4055.56959,0.09769
4057.49806,0.09853
4059.42653,0.09723
4061.35500,0.10110
4063.28346,0.10791
4065.21193,0.10797
4067.14040,0.10157
4069.06887,0.09260
4070.99734,0.08618
4072.92581,0.08753
4074.85428,0.09383
4076.78275,0.09845
4078.71121,0.09829
4080.63968,0.09491
4082.56815,0.09181
4084.49662,0.09206
4086.42509,0.09696
4088.35356,0.10148
4090.28203,0.09931
4092.21049,0.09303
4094.13896,0.08938
4096.06743,0.08982
4097.99590,0.09038
4099.92437,0.09072
4101.85284,0.09204
4103.78131,0.08910
4105.70978,0.08333
4107.63824,0.08411
4109.56671,0.09340
4111.49518,0.10312
4113.42365,0.10412
4115.35212,0.09829
4117.28059,0.09259
4119.20906,0.08904
4121.13752,0.08805
4123.06599,0.09091
4124.99446,0.09524
4126.92293,0.09343
4128.85140,0.08565
4130.77987,0.08203
4132.70834,0.08577
4134.63681,0.08823
4136.56527,0.08419
4138.49374,0.08093
4140.42221,0.08310
4142.35068,0.08560
4144.27915,0.08611
4146.20762,0.08540
4148.13609,0.08177
4150.06455,0.07950
4151.99302,0.08203
4153.92149,0.08159
4155.84996,0.07575
4157.77843,0.07214
4159.70690,0.07549
4161.63537,0.08091
4163.56384,0.08021
4165.49230,0.07702
4167.42077,0.07822
4169.34924,0.08045
4171.27771,0.07938
4173.20618,0.07725
4175.13465,0.07858
4177.06312,0.08195
4178.99158,0.08256
4180.92005,0.08057
4182.84852,0.07783
4184.77699,0.07434
4186.70546,0.07010
4188.63393,0.06661
4190.56240,0.06465
4192.49087,0.06576
4194.41933,0.07056
4196.34780,0.07370
4198.27627,0.07394
4200.20474,0.07432
4202.13321,0.07457
4204.06168,0.07640
4205.99015,0.07939
4207.91861,0.07961
4209.84708,0.07624
4211.77555,0.06848
4213.70402,0.06085
4215.63249,0.06284
4217.56096,0.06975
4219.48943,0.06913
4221.41789,0.06458
4223.34636,0.06995
4225.27483,0.08262
4227.20330,0.08604
4229.13177,0.07910
4231.06024,0.07324
4232.98871,0.06894
4234.91718,0.06198
4236.84564,0.05959
4238.77411,0.06647
4240.70258,0.07478
4242.63105,0.07790
4244.55952,0.07344
4246.48799,0.06424
4248.41646,0.05823
4250.34492,0.05733
4252.27339,0.05943
4254.20186,0.06270
4256.13033,0.06164
4258.05880,0.05520
4259.98727,0.05087
4261.91574,0.05160
4263.84421,0.05532
4265.77267,0.06195
4267.70114,0.06850
4269.62961,0.07158
4271.55808,0.07353
4273.48655,0.07564
4275.41502,0.07565
4277.34349,0.07196
4279.27195,0.06631
4281.20042,0.06105
4283.12889,0.05366
4285.05736,0.04783
4286.98583,0.05091
4288.91430,0.05659
4290.84277,0.05836
4292.77124,0.05800
4294.69970,0.05816
4296.62817,0.06057
4298.55664,0.06190
4300.48511,0.06004
4302.41358,0.05984
4304.34205,0.06321
4306.27052,0.06653
4308.19898,0.06917
4310.12745,0.06858
4312.05592,0.05936
4313.98439,0.04710
4315.91286,0.04315
4317.84133,0.04973
4319.76980,0.05502
4321.69827,0.04821
4323.62673,0.03793
4325.55520,0.03425
4327.48367,0.03586
4329.41214,0.04269
4331.34061,0.05204
4333.26908,0.05289
4335.19755,0.04395
4337.12601,0.03836
4339.05448,0.04205
4340.98295,0.04893
4342.91142,0.05494
4344.83989,0.05714
4346.76836,0.05049
4348.69683,0.04050
4350.62530,0.03795
4352.55376,0.03888
4354.48223,0.03871
4356.41070,0.04338
4358.33917,0.04724
4360.26764,0.04096
4362.19611,0.03306
4364.12458,0.03499
4366.05304,0.04459
4367.98151,0.04927
4369.90998,0.04412
4371.83845,0.03842
4373.76692,0.03756
4375.69539,0.03707
4377.62386,0.03487
4379.55232,0.03663
4381.48079,0.03980
4383.40926,0.03337
4385.33773,0.02422
4387.26620,0.02995
4389.19467,0.04462
4391.12314,0.04747
4393.05161,0.04075
4394.98007,0.03620
4396.90854,0.03397
4398.83701,0.03538
4400.76548,0.04173
4402.69395,0.04873
4404.62242,0.04866
4406.55089,0.04111
4408.47935,0.03528
4410.40782,0.03660
4412.33629,0.04184
4414.26476,0.04509
4416.19323,0.04628
4418.12170,0.04672
4420.05017,0.04768
4421.97864,0.04938
4423.90710,0.04336
4425.83557,0.02863
4427.76404,0.02159
4429.69251,0.02942
4431.62098,0.03460
4433.54945,0.02742
4435.47792,0.02278
4437.40638,0.02596
4439.33485,0.02614
4441.26332,0.02442
4443.19179,0.02674
4445.12026,0.02794
4447.04873,0.02363
4448.97720,0.01746
4450.90567,0.01912
4452.83413,0.03012
4454.76260,0.03572
4456.69107,0.03148
4458.61954,0.02570
4460.54801,0.02224
4462.47648,0.02418
4464.40495,0.02849
4466.33341,0.03109
4468.26188,0.03608
4470.19035,0.03807
4472.11882,0.03319
4474.04729,0.03120
4475.97576,0.03541
4477.90423,0.04024
4479.83270,0.04161
4481.76116,0.04039
4483.68963,0.03626
4485.61810,0.02579
4487.54657,0.01303
4489.47504,0.01064
4491.40351,0.02243
4493.33198,0.03525
4495.26044,0.03911
4497.18891,0.03499
4499.11738,0.02878
4501.04585,0.02671
4502.97432,0.02783
4504.90279,0.03154
4506.83126,0.03361
4508.75973,0.02752
4510.68819,0.02228
4512.61666,0.02391
4514.54513,0.02232
4516.47360,0.01540
4518.40207,0.01279
4520.33054,0.01390
4522.25901,0.01130
4524.18747,0.00960
4526.11594,0.01307
4528.04441,0.01874
4529.97288,0.02507
4531.90135,0.02760
4533.82982,0.02697
4535.75829,0.02767
4537.68676,0.02443
4539.61522,0.01432
4541.54369,0.00609
4543.47216,0.00479
4545.40063,0.00599
4547.32910,0.00914
4549.25757,0.01558
4551.18604,0.01857
4553.11450,0.01668
4555.04297,0.01842
4556.97144,0.02249
4558.89991,0.02075
4560.82838,0.01770
4562.75685,0.01745
4564.68532,0.01243
4566.61378,0.00524
4568.54225,0.00735
4570.47072,0.01330
4572.39919,0.01398
4574.32766,0.01786
4576.25613,0.02366
4578.18460,0.01924
4580.11307,0.01080
4582.04153,0.00498
4583.97000,0.00212
4585.89847,0.00823
4587.82694,0.01775
4589.75541,0.01662
4591.68388,0.00703
4593.61235,0.00594
4595.54081,0.01627
4597.46928,0.01968
4599.39775,0.00958
4601.32622,0.00631
4603.25469,0.01781
4605.18316,0.02524
4607.11163,0.01968
4609.04010,0.01015
4610.96856,0.00815
4612.89703,0.01188
4614.82550,0.00871
4616.75397,0.00198
4618.68244,0.00123
4620.61091,0.00317
4622.53938,0.00402
4624.46784,0.00554
4626.39631,0.00881
4628.32478,0.01001
4630.25325,0.00502
4632.18172,0.00125
4634.11019,0.00616
4636.03866,0.01269
4637.96713,0.01283
4639.89559,0.00954
4641.82406,0.00862
4643.75253,0.00810
4645.68100,0.00857
4647.60947,0.00934
4649.53794,0.00510
4651.46641,0.00261
4653.39487,0.00635
4655.32334,0.00925
4657.25181,0.00879
4659.18028,0.00803
4661.10875,0.01073
4663.03722,0.01958
4664.96569,0.02384
4666.89416,0.01601
4668.82262,0.00814
4670.75109,0.00577
4672.67956,0.00820
4674.60803,0.02040
4676.53650,0.02913
4678.46497,0.01790
4680.39344,-0.00048
4682.32190,-0.00704
4684.25037,-0.00186
4686.17884,0.00424
4688.10731,0.00202
4690.03578,-0.00447
4691.96425,-0.00271
4693.89272,0.00540
4695.82119,0.01192
4697.74965,0.01571
4699.67812,0.01054
4701.60659,-0.00375
4703.53506,-0.01637
4705.46353,-0.01685
4707.39200,-0.00132
4709.32047,0.01681
4711.24893,0.01809
4713.17740,0.00361
4715.10587,-0.00497
4717.03434,0.00119
4718.96281,0.00905
4720.89128,0.01391
4722.81975,0.02058
4724.74821,0.02463
4726.67668,0.01996
4728.60515,0.00899
4730.53362,0.00089
4732.46209,0.00450
4734.39056,0.01320
4736.31903,0.01475
4738.24750,0.00984
4740.17596,0.00541
4742.10443,0.00892
4744.03290,0.01753
4745.96137,0.02311
4747.88984,0.02690
4749.81831,0.02979
4751.74678,0.03153
4753.67524,0.02605
4755.60371,0.00562
4757.53218,-0.01215
4759.46065,-0.01159
4761.38912,-0.00732
4763.31759,-0.00341
4765.24606,0.00859
4767.17453,0.01616
4769.10299,0.01267
4771.03146,0.01173
4772.95993,0.01105
4774.88840,0.00313
4776.81687,0.00022
4778.74534,0.00354
4780.67381,0.00347
4782.60227,0.00371
4784.53074,0.00594
4786.45921,0.00765
4788.38768,0.00515
4790.31615,-0.00289
4792.24462,-0.00856
4794.17309,-0.00369
4796.10156,0.01192
4798.03002,0.02467
4799.95849,0.02337
4801.88696,0.01257
4803.81543,0.00426
4805.74390,0.00510
4807.67237,0.01028
4809.60084,0.01266
4811.52930,0.00947
4813.45777,0.01014
4815.38624,0.01901
4817.31471,0.01970
4819.24318,0.01224
4821.17165,0.01138
4823.10012,0.01719
4825.02859,0.02511
4826.95705,0.02475
4828.88552,0.01467
4830.81399,0.01486
4832.74246,0.02713
4834.67093,0.03838
4836.59940,0.04383
4838.52787,0.03728
4840.45633,0.02058
4842.38480,0.00994
4844.31327,0.00972
4846.24174,0.00840
4848.17021,0.00578
4850.09868,0.00631
4852.02715,0.00240
4853.95562,-0.00331
4855.88408,-0.00234
4857.81255,0.00334
4859.74102,0.00794
4861.66949,0.01033
4863.59796,0.00936
4865.52643,-0.00348
4867.45490,-0.02305
4869.38336,-0.03101
4871.31183,-0.02430
4873.24030,-0.01025
4875.16877,0.00636
4877.09724,0.02011
4879.02571,0.02613
4880.95418,0.02612
4882.88265,0.02125
4884.81111,0.00824
4886.73958,-0.01005
4888.66805,-0.02075
4890.59652,-0.01251
4892.52499,-0.00115
4894.45346,-0.00596
4896.38193,-0.01184
4898.31039,0.00176
4900.23886,0.02412
4902.16733,0.02434
4904.09580,0.00446
4906.02427,-0.00269
4907.95274,0.00489
4909.88121,0.00955
4911.80967,0.00403
4913.73814,-0.00657
4915.66661,-0.00982
4917.59508,-0.00433
4919.52355,0.00694
4921.45202,0.01471
4923.38049,0.01422
4925.30896,0.01830
4927.23742,0.01797
4929.16589,0.00030
4931.09436,-0.01183
4933.02283,-0.00148
4934.95130,0.01460
4936.87977,0.02010
4938.80824,0.01773
4940.73670,0.01474
4942.66517,0.01714
4944.59364,0.02386
4946.52211,0.02001
4948.45058,0.00540
4950.37905,0.00003
4952.30752,0.00720
4954.23599,0.01363
4956.16445,0.01207
4958.09292,0.00431
4960.02139,0.00534
4961.94986,0.01983
4963.87833,0.02434
4965.80680,0.01415
4967.73527,0.01337
4969.66373,0.02771
4971.59220,0.03499
4973.52067,0.03041
4975.44914,0.03482
4977.37761,0.04186
4979.30608,0.03400
4981.23455,0.01758
4983.16302,0.00028
4985.09148,-0.00515
4987.01995,0.01175
4988.94842,0.03304
4990.87689,0.03616
4992.80536,0.02909
4994.73383,0.02794
4996.66230,0.02319
4998.59076,0.00917
5000.51923,0.00062
5002.44770,0.00561
5004.37617,0.01849
5006.30464,0.02611
5008.23311,0.02407
5010.16158,0.02038
5012.09005,0.02045
5014.01851,0.02384
5015.94698,0.02942
5017.87545,0.03782
5019.80392,0.04297
5021.73239,0.03936
5023.66086,0.03895
5025.58933,0.03739
5027.51779,0.01723
5029.44626,-0.00579
5031.37473,-0.01415
5033.30320,-0.00862
5035.23167,0.00409
5037.16014,0.01185
5039.08861,0.01642
5041.01708,0.02447
5042.94554,0.03240
5044.87401,0.03418
5046.80248,0.02370
5048.73095,0.00866
5050.65942,-0.00253
5052.58789,-0.00868
5054.51636,0.00210
5056.44482,0.01953
5058.37329,0.01409
5060.30176,-0.00808
5062.23023,-0.01793
5064.15870,-0.00721
5066.08717,0.00534
5068.01564,0.00833
5069.94410,0.01220
5071.87257,0.01424
5073.80104,0.00934
5075.72951,0.00662
5077.65798,0.00994
5079.58645,0.02267
5081.51492,0.03984
5083.44339,0.04670
5085.37185,0.03954
5087.30032,0.02470
5089.22879,0.01923
5091.15726,0.02642
5093.08573,0.02639
5095.01420,0.02013
5096.94267,0.01687
5098.87113,0.01385
5100.79960,0.02087
5102.72807,0.03378
5104.65654,0.03444
5106.58501,0.03567
5108.51348,0.04379
5110.44195,0.04439
5112.37042,0.04502
5114.29888,0.04789
5116.22735,0.03904
5118.15582,0.02474
5120.08429,0.01917
5122.01276,0.02166
5123.94123,0.02693
5125.86970,0.03172
5127.79816,0.02732
5129.72663,0.01659
5131.65510,0.01866
5133.58357,0.03245
5135.51204,0.04094
5137.44051,0.03654
5139.36898,0.01615
5141.29745,-0.00878
5143.22591,-0.01913
5145.15438,-0.00731
5147.08285,0.01384
5149.01132,0.01473
5150.93979,0.00428
5152.86826,0.00746
5154.79673,0.01189
5156.72519,0.01714
5158.65366,0.03586
5160.58213,0.05277
5162.51060,0.05196
5164.43907,0.03970
5166.36754,0.03124
5168.29601,0.03064
5170.22448,0.03159
5172.15294,0.03585
5174.08141,0.04830
5176.00988,0.05772
5177.93835,0.05706
5179.86682,0.05382
5181.79529,0.04556
5183.72376,0.02771
5185.65222,0.01361
5187.58069,0.01571
5189.50916,0.03072
5191.43763,0.04734
5193.36610,0.06088
5195.29457,0.07726
5197.22304,0.08318
5199.15151,0.06801
5201.07997,0.04898
5203.00844,0.03504
5204.93691,0.02349
5206.86538,0.01511
5208.79385,0.02033
5210.72232,0.03505
5212.65079,0.04637
5214.57925,0.05214
5216.50772,0.05170
5218.43619,0.05084
5220.36466,0.05268
5222.29313,0.05667
5224.22160,0.07149
5226.15007,0.09118
5228.07854,0.08876
5230.00700,0.06316
5231.93547,0.04024
5233.86394,0.02778
5235.79241,0.01762
5237.72088,0.01429
5239.64935,0.02330
5241.57782,0.03782
5243.50628,0.04413
5245.43475,0.03970
5247.36322,0.04227
5249.29169,0.06211
5251.22016,0.08007
5253.14863,0.08367
5255.07710,0.07957
5257.00556,0.06494
5258.93403,0.04668
5260.86250,0.04482
5262.79097,0.05438
5264.71944,0.05604
5266.64791,0.05145
5268.57638,0.05551
5270.50485,0.07368
5272.43331,0.09096
5274.36178,0.09232
5276.29025,0.08391
5278.21872,0.07642
5280.14719,0.07095
5282.07566,0.06764
5284.00413,0.06470
5285.93259,0.05501
5287.86106,0.03805
5289.78953,0.01882
5291.71800,0.00828
5293.64647,0.02222
5295.57494,0.04962
5297.50341,0.06261
5299.43188,0.05212
5301.36034,0.03077
5303.28881,0.02980
5305.21728,0.06196
5307.14575,0.09045
5309.07422,0.09390
5311.00269,0.08864
5312.93116,0.06353
5314.85962,0.02381
5316.78809,0.02147
5318.71656,0.04930
5320.64503,0.06369
5322.57350,0.07171
5324.50197,0.08841
5326.43044,0.10299
5328.35891,0.09139
5330.28737,0.07167
5332.21584,0.07792
5334.14431,0.08357
5336.07278,0.05396
5338.00125,0.01327
5339.92972,0.00332
5341.85819,0.01671
5343.78665,0.03977
5345.71512,0.07384
5347.64359,0.10614
5349.57206,0.11988
5351.50053,0.10497
5353.42900,0.07777
5355.35747,0.06486
5357.28594,0.05825
5359.21440,0.04357
5361.14287,0.03032
5363.07134,0.02534
5364.99981,0.03129
5366.92828,0.05497
5368.85675,0.08519
5370.78522,0.10367
5372.71368,0.10122
5374.64215,0.07922
5376.57062,0.04997
5378.49909,0.04143
5380.42756,0.06286
5382.35603,0.08897
5384.28450,0.09233
5386.21297,0.08089
5388.14143,0.08403
5390.06990,0.09083
5391.99837,0.08078
5393.92684,0.05601
5395.85531,0.04460
5397.78378,0.06039
5399.71225,0.07812
5401.64071,0.09149
5403.56918,0.10078
5405.49765,0.09289
5407.42612,0.09098
5409.35459,0.10946
5411.28306,0.11435
5413.21153,0.09356
5415.13999,0.07390
5417.06846,0.06876
5418.99693,0.06998
5420.92540,0.06570
5422.85387,0.06237
5424.78234,0.07142
5426.71081,0.08211
5428.63928,0.08055
5430.56774,0.07559
5432.49621,0.07485
5434.42468,0.06469
5436.35315,0.04006
5438.28162,0.02451
5440.21009,0.02857
5442.13856,0.03181
5444.06702,0.03538
5445.99549,0.05091
5447.92396,0.06217
5449.85243,0.07570
5451.78090,0.09687
5453.70937,0.09506
5455.63784,0.06505
5457.56631,0.04474
5459.49477,0.04049
5461.42324,0.03096
5463.35171,0.02241
5465.28018,0.02429
5467.20865,0.03792
5469.13712,0.05343
5471.06559,0.06278
5472.99405,0.08151
5474.92252,0.10863
5476.85099,0.10662
5478.77946,0.07982
5480.70793,0.06666
5482.63640,0.07194
5484.56487,0.07815
5486.49334,0.07873
5488.42180,0.08376
5490.35027,0.09024
5492.27874,0.08056
5494.20721,0.04834
5496.13568,0.00980
5498.06415,-0.00494
5499.99262,0.00957
5501.92108,0.02663
5503.84955,0.03418
5505.77802,0.04278
5507.70649,0.06579
5509.63496,0.09719
5511.56343,0.11583
5513.49190,0.10717
5515.42037,0.08441
5517.34883,0.08909
5519.27730,0.11933
5521.20577,0.12050
5523.13424,0.08846
5525.06271,0.06943
5526.99118,0.07127
5528.91965,0.07269
5530.84811,0.06541
5532.77658,0.05376
5534.70505,0.05232
5536.63352,0.06649
5538.56199,0.08371
5540.49046,0.09791
5542.41893,0.10368
5544.34740,0.09984
5546.27586,0.10586
5548.20433,0.11002
5550.13280,0.08266
5552.06127,0.04592
5553.98974,0.03153
5555.91821,0.04243
5557.84668,0.06406
5559.77514,0.07002
5561.70361,0.06549
5563.63208,0.06999
5565.56055,0.06155
5567.48902,0.02276
5569.41749,-0.01032
5571.34596,-0.00883
5573.27443,0.01704
5575.20289,0.04885
5577.13136,0.06752
5579.05983,0.08061
5580.98830,0.09904
5582.91677,0.08820
5584.84524,0.05557
5586.77371,0.05627
5588.70217,0.08435
5590.63064,0.09498
5592.55911,0.08474
5594.48758,0.07169
5596.41605,0.06352
5598.34452,0.07337
5600.27299,0.09702
5602.20145,0.10863
5604.12992,0.10415
5606.05839,0.08957
5607.98686,0.08000
5609.91533,0.08601
5611.84380,0.07795
5613.77227,0.05063
5615.70074,0.03814
5617.62920,0.03377
5619.55767,0.02730
5621.48614,0.04671
5623.41461,0.09387
5625.34308,0.12502
5627.27155,0.11521
5629.20002,0.09808
5631.12848,0.09884
5633.05695,0.09492
5634.98542,0.07633
5636.91389,0.05572
5638.84236,0.04331
5640.77083,0.04402
5642.69930,0.04515
5644.62777,0.04900
5646.55623,0.06493
5648.48470,0.06842
5650.41317,0.06518
5652.34164,0.08734
5654.27011,0.11805
5656.19858,0.12279
5658.12705,0.10471
5660.05551,0.08554
5661.98398,0.07848
5663.91245,0.08810
5665.84092,0.09713
5667.76939,0.08662
5669.69786,0.06873
5671.62633,0.08755
5673.55480,0.15096
5675.48326,0.17753
5677.41173,0.12584
5679.34020,0.06995
5681.26867,0.06224
5683.19714,0.08435
5685.12561,0.09463
5687.05408,0.08675
5688.98254,0.10045
5690.91101,0.12146
5692.83948,0.10926
5694.76795,0.09936
5696.69642,0.11784
5698.62489,0.13541
5700.55336,0.13386
5702.48183,0.12630
5704.41029,0.12174
5706.33876,0.10566
5708.26723,0.07077
5710.19570,0.02281
5712.12417,-0.01183
5714.05264,0.00078
5715.98111,0.04265
5717.90957,0.07481
5719.83804,0.08799
5721.76651,0.08905
5723.69498,0.08232
5725.62345,0.06520
5727.55192,0.04766
5729.48039,0.05881
5731.40886,0.09588
5733.33732,0.12584
5735.26579,0.12875
5737.19426,0.10703
5739.12273,0.07025
5741.05120,0.04699
5742.97967,0.06404
5744.90814,0.08804
5746.83660,0.09601
5748.76507,0.09716
5750.69354,0.07446
5752.62201,0.03758
5754.55048,0.02559
5756.47895,0.01966
5758.40742,0.00833
5760.33588,0.01930
5762.26435,0.03050
5764.19282,0.02053
5766.12129,0.02585
5768.04976,0.05864
5769.97823,0.08084
5771.90670,0.07517
5773.83517,0.07114
5775.76363,0.05592
5777.69210,0.02940
5779.62057,0.04862
5781.54904,0.10049
5783.47751,0.12652
5785.40598,0.11196
5787.33445,0.07294
5789.26291,0.04183
5791.19138,0.04300
5793.11985,0.05497
5795.04832,0.05299
5796.97679,0.06487
5798.90526,0.10062
5800.83373,0.12895
5802.76220,0.13077
5804.69066,0.09177
5806.61913,0.04362
5808.54760,0.03363
5810.47607,0.04691
5812.40454,0.07467
5814.33301,0.10245
5816.26148,0.09572
5818.18994,0.07340
5820.11841,0.07581
5822.04688,0.09498
5823.97535,0.10278
5825.90382,0.08547
5827.83229,0.05812
5829.76076,0.07186
5831.68923,0.11749
5833.61769,0.12321
5835.54616,0.08352
5837.47463,0.04791
5839.40310,0.03625
5841.33157,0.04930
5843.26004,0.06844
5845.18851,0.06879
5847.11697,0.07282
5849.04544,0.08656
5850.97391,0.07954
5852.90238,0.07538
5854.83085,0.08694
5856.75932,0.08592
5858.68779,0.06976
5860.61626,0.04431
5862.54472,0.04806
5864.47319,0.11034
5866.40166,0.14593
5868.33013,0.11879
5870.25860,0.08826
5872.18707,0.06942
5874.11554,0.06758
5876.04400,0.10387
5877.97247,0.15816
5879.90094,0.16956
5881.82941,0.13939
5883.75788,0.11732
5885.68635,0.11587
5887.61482,0.11820
5889.54329,0.09426
5891.47175,0.05781
5893.40022,0.05018
5895.32869,0.06896
5897.25716,0.09255
5899.18563,0.11631
5901.11410,0.12647
5903.04257,0.11784
5904.97103,0.11750
5906.89950,0.12210
5908.82797,0.11723
5910.75644,0.10654
5912.68491,0.09190
5914.61338,0.09620
5916.54185,0.12999
5918.47032,0.15162
5920.39878,0.13813
5922.32725,0.11760
5924.25572,0.11261
5926.18419,0.12486
5928.11266,0.14167
5930.04113,0.13940
5931.96960,0.09913
5933.89806,0.04981
5935.82653,0.04126
5937.75500,0.05778
5939.68347,0.06675
5941.61194,0.07930
5943.54041,0.10338
5945.46888,0.11424
5947.39734,0.11552
5949.32581,0.13220
5951.25428,0.14608
5953.18275,0.11216
5955.11122,0.04497
5957.03969,0.00925
5958.96816,0.00554
5960.89663,0.01075
5962.82509,0.03058
5964.75356,0.02933
5966.68203,-0.00255
5968.61050,0.00444
5970.53897,0.06997
5972.46744,0.12231
5974.39591,0.11929
5976.32437,0.10013
5978.25284,0.10169
5980.18131,0.09924
5982.10978,0.09018
5984.03825,0.09561
5985.96672,0.08243
5987.89519,0.05704
5989.82366,0.06409
5991.75212,0.09729
5993.68059,0.14033
5995.60906,0.14316
5997.53753,0.08759
5999.46600,0.05810
6001.39447,0.06876
6003.32294,0.06856
6005.25140,0.05329
6007.17987,0.03828
6009.10834,0.05662
6011.03681,0.11080
6012.96528,0.13430
6014.89375,0.11236
6016.82222,0.08445
6018.75069,0.04781
6020.67915,0.02166
6022.60762,0.07277
6024.53609,0.15543
6026.46456,0.18045
6028.39303,0.15360
6030.32150,0.11556
6032.24997,0.08113
6034.17843,0.05517
6036.10690,0.06579
6038.03537,0.10854
6039.96384,0.12420
6041.89231,0.10010
6043.82078,0.06864
6045.74925,0.05912
6047.67772,0.08880
6049.60618,0.12871
6051.53465,0.12138
6053.46312,0.07775
6055.39159,0.04256
6057.32006,0.03510
6059.24853,0.05360
6061.17700,0.08416
6063.10546,0.11226
6065.03393,0.13254
6066.96240,0.13378
6068.89087,0.10021
6070.81934,0.05945
6072.74781,0.05267
6074.67628,0.07418
6076.60475,0.10235
6078.53321,0.10677
6080.46168,0.07848
6082.39015,0.05274
6084.31862,0.03195
6086.24709,0.00932
6088.17556,0.02507
6090.10403,0.07424
6092.03249,0.08933
6093.96096,0.06692
6095.88943,0.06032
6097.81790,0.06521
6099.74637,0.04588
6101.67484,0.01708
6103.60331,0.01483
6105.53177,0.02668
6107.46024,0.04890
6109.38871,0.07652
6111.31718,0.08074
6113.24565,0.11043
6115.17412,0.17493
6117.10259,0.20780
6119.03106,0.19676
6120.95952,0.15952
6122.88799,0.11188
6124.81646,0.09287
6126.74493,0.10680
6128.67340,0.09020
6130.60187,0.03203
6132.53034,0.00430
6134.45880,0.03160
6136.38727,0.06821
6138.31574,0.08388
6140.24421,0.08475
6142.17268,0.06369
6144.10115,0.05413
6146.02962,0.08968
6147.95809,0.11725
6149.88655,0.09817
6151.81502,0.06256
6153.74349,0.05601
6155.67196,0.06664
6157.60043,0.08057
6159.52890,0.11127
6161.45737,0.13158
6163.38583,0.12688
6165.31430,0.11192
6167.24277,0.08272
6169.17124,0.04540
6171.09971,0.02304
6173.02818,0.04829
6174.95665,0.10869
6176.88512,0.13091
6178.81358,0.09808
6180.74205,0.06384
6182.67052,0.04493
6184.59899,0.04637
6186.52746,0.07869
6188.45593,0.10836
6190.38440,0.09651
6192.31286,0.06613
6194.24133,0.07790
6196.16980,0.10528
6198.09827,0.06254
6200.02674,0.02323
6201.95521,0.05157
6203.88368,0.07765
6205.81215,0.09620
6207.74061,0.10515
6209.66908,0.05799
6211.59755,-0.00191
6213.52602,-0.03141
6215.45449,-0.02733
6217.38296,0.02498
6219.31143,0.05801
6221.23989,0.01607
6223.16836,-0.03182
6225.09683,-0.01889
6227.02530,0.02755
6228.95377,0.08143
6230.88224,0.13123
6232.81071,0.14839
6234.73918,0.14468
6236.66764,0.14505
6238.59611,0.14118
6240.52458,0.15586
6242.45305,0.18781
6244.38152,0.16990
6246.30999,0.11521
6248.23846,0.09405
6250.16692,0.10807
6252.09539,0.10666
6254.02386,0.06101
6255.95233,0.02302
6257.88080,0.04207
6259.80927,0.06552
6261.73774,0.06966
6263.66621,0.08418
6265.59467,0.07059
6267.52314,0.02197
6269.45161,0.02166
6271.38008,0.06395
6273.30855,0.07003
6275.23702,0.04140
6277.16549,0.04009
6279.09395,0.04860
6281.02242,0.03716
6282.95089,0.03550
6284.87936,0.06314
6286.80783,0.07187
6288.73630,0.06846
6290.66477,0.10145
6292.59323,0.10684
6294.52170,0.07017
6296.45017,0.06223
6298.37864,0.07225
6300.30711,0.09381
6302.23558,0.13659
6304.16405,0.14172
6306.09252,0.09808
6308.02098,0.06709
6309.94945,0.04916
6311.87792,0.04998
6313.80639,0.11414
6315.73486,0.17298
6317.66333,0.16977
6319.59180,0.12718
6321.52026,0.07001
6323.44873,0.03561
6325.37720,0.01169
6327.30567,-0.01933
6329.23414,-0.00724
6331.16261,0.05502
6333.09108,0.07086
6335.01955,0.03708
6336.94801,0.04004
6338.87648,0.07650
6340.80495,0.12764
6342.73342,0.18018
6344.66189,0.17670
6346.59036,0.06484
6348.51883,-0.07380
6350.44729,-0.08306
6352.37576,0.03023
6354.30423,0.13808
6356.23270,0.18667
6358.16117,0.17977
6360.08964,0.14560
6362.01811,0.12971
6363.94658,0.12442
6365.87504,0.07259
6367.80351,0.03833
6369.73198,0.08450
6371.66045,0.13173
6373.58892,0.14904
6375.51739,0.17500
6377.44586,0.19366
6379.37432,0.16496
6381.30279,0.08459
6383.23126,-0.02034
6385.15973,-0.04086
6387.08820,0.04249
6389.01667,0.10282
6390.94514,0.12816
6392.87361,0.18719
6394.80207,0.21646
6396.73054,0.17854
6398.65901,0.12895
6400.58748,0.06683
6402.51595,0.00660
6404.44442,-0.00737
6406.37289,0.05720
6408.30135,0.14782
6410.22982,0.11374
6412.15829,0.01426
6414.08676,0.00556
6416.01523,0.04764
6417.94370,0.09651
6419.87217,0.12135
6421.80064,0.08889
6423.72910,0.06371
6425.65757,0.10065
6427.58604,0.16132
6429.51451,0.20240
6431.44298,0.17482
6433.37145,0.08907
6435.29992,0.05292
6437.22838,0.07176
6439.15685,0.06674
6441.08532,0.02001
6443.01379,-0.00724
6444.94226,0.04298
6446.87073,0.11278
6448.79920,0.12677
6450.72766,0.08918
6452.65613,0.06544
6454.58460,0.06563
6456.51307,0.04848
6458.44154,0.03783
6460.37001,0.06120
6462.29848,0.07398
6464.22695,0.06029
6466.15541,0.06295
6468.08388,0.09753
6470.01235,0.13487
6471.94082,0.10975
6473.86929,0.04675
6475.79776,0.06834
6477.72623,0.16894
6479.65469,0.23119
6481.58316,0.22605
6483.51163,0.20253
6485.44010,0.16838
6487.36857,0.11181
6489.29704,0.07473
6491.22551,0.08325
6493.15398,0.12764
6495.08244,0.15043
6497.01091,0.08378
6498.93938,0.00372
6500.86785,0.02012
6502.79632,0.09962
6504.72479,0.14523
6506.65326,0.11948
6508.58172,0.08598
6510.51019,0.09260
6512.43866,0.06963
6514.36713,0.04493
6516.29560,0.05743
6518.22407,0.01358
6520.15254,-0.04978
6522.08101,-0.03523
6524.00947,0.01634
6525.93794,0.05287
6527.86641,0.06642
6529.79488,0.04371
6531.72335,0.02094
6533.65182,0.01843
6535.58029,-0.00610
6537.50875,-0.03445
6539.43722,0.02405
6541.36569,0.14801
6543.29416,0.22902
6545.22263,0.23641
6547.15110,0.21344
6549.07957,0.19005
6551.00804,0.15740
6552.93650,0.12604
6554.86497,0.10852
6556.79344,0.11043
6558.72191,0.13957
6560.65038,0.15773
6562.57885,0.15010
6564.50732,0.11944
6566.43578,0.04452
6568.36425,-0.01790
6570.29272,0.01474
6572.22119,0.08943
6574.14966,0.10305
6576.07813,0.05952
6578.00660,-0.00361
6579.93507,-0.04785
6581.86353,-0.02753
6583.79200,0.03310
6585.72047,0.05958
6587.64894,0.03915
6589.57741,0.01332
6591.50588,0.01049
6593.43435,0.05103
6595.36281,0.13480
6597.29128,0.19768
6599.21975,0.16532
6601.14822,0.04240
6603.07669,-0.04080
6605.00516,-0.06424
6606.93363,-0.07344
6608.86210,-0.03131
6610.79056,0.03452
6612.71903,0.07771
6614.64750,0.06980
6616.57597,-0.01601
6618.50444,-0.06693
6620.43291,-0.04688
6622.36138,-0.04009
6624.28984,-0.05032
6626.21831,-0.03460
6628.14678,0.03502
6630.07525,0.08882
6632.00372,0.07519
6633.93219,0.06341
6635.86066,0.04728
6637.78912,0.03136
6639.71759,0.05458
6641.64606,0.06786
6643.57453,0.06244
6645.50300,0.10079
6647.43147,0.17195
6649.35994,0.20319
6651.28841,0.20124
6653.21687,0.20115
6655.14534,0.19664
6657.07381,0.17232
6659.00228,0.11734
6660.93075,0.07919
6662.85922,0.07961
6664.78769,0.03878
6666.71615,-0.02910
6668.64462,-0.01446
6670.57309,0.04274
6672.50156,0.02727
6674.43003,-0.00332
6676.35850,0.03047
6678.28697,0.07477
6680.21544,0.07100
6682.14390,0.01160
6684.07237,-0.04758
6686.00084,-0.03617
6687.92931,0.02052
6689.85778,0.03684
6691.78625,0.02192
6693.71472,0.04163
6695.64318,0.07181
6697.57165,0.07802
6699.50012,0.10375
6701.42859,0.13957
6703.35706,0.16309
6705.28553,0.16459
6707.21400,0.07032
6709.14247,-0.03823
6711.07093,-0.03661
6712.99940,-0.00305
6714.92787,-0.01307
6716.85634,-0.03764
6718.78481,-0.04949
6720.71328,-0.04850
6722.64175,-0.00061
6724.57021,0.04464
6726.49868,0.02263
6728.42715,0.01018
6730.35562,0.05500
6732.28409,0.09705
6734.21256,0.08480
6736.14103,0.04214
6738.06950,0.02368
6739.99796,-0.01001
6741.92643,-0.07875
6743.85490,-0.07099
6745.78337,0.00833
6747.71184,0.04103
6749.64031,0.01353
6751.56878,0.02003
6753.49724,0.06011
6755.42571,0.04777
6757.35418,0.01306
6759.28265,0.05228
6761.21112,0.12479
6763.13959,0.10886
6765.06806,0.04648
6766.99653,0.03476
6768.92499,0.07396
6770.85346,0.11072
6772.78193,0.10933
6774.71040,0.10927
6776.63887,0.13548
6778.56734,0.12330
6780.49581,0.12355
6782.42427,0.18535
6784.35274,0.18623
6786.28121,0.13252
6788.20968,0.13812
6790.13815,0.16249
6792.06662,0.17580
6793.99509,0.17644
6795.92355,0.14997
6797.85202,0.15835
6799.78049,0.15719
6801.70896,0.07074
6803.63743,0.00989
6805.56590,0.05689
6807.49437,0.08421
6809.42284,0.05629
6811.35130,0.08770
6813.27977,0.18428
6815.20824,0.21191
6817.13671,0.13764
6819.06518,0.07357
6820.99365,0.06234
6822.92212,0.08162
6824.85058,0.11588
6826.77905,0.16777
6828.70752,0.24532
6830.63599,0.25846
6832.56446,0.17163
6834.49293,0.06564
6836.42140,0.02359
6838.34987,0.05023
6840.27833,0.06013
6842.20680,0.05342
6844.13527,0.03932
6846.06374,0.00193
6847.99221,-0.02480
6849.92068,-0.01598
6851.84915,-0.01459
6853.77761,-0.01640
6855.70608,0.04882
6857.63455,0.12326
6859.56302,0.12843
6861.49149,0.12974
6863.41996,0.15064
6865.34843,0.17332
6867.27690,0.22720
6869.20536,0.26382
6871.13383,0.24884
6873.06230,0.22368
6874.99077,0.16076
6876.91924,0.04143
6878.84771,-0.02053
6880.77618,0.05599
6882.70464,0.13461
6884.63311,0.13024
6886.56158,0.08454
6888.49005,0.04771
6890.41852,0.05534
6892.34699,0.07726
6894.27546,0.07772
6896.20393,0.04837
6898.13239,0.01152
6900.06086,0.04218
6901.98933,0.11438
6903.91780,0.15148
6905.84627,0.15576
6907.77474,0.14075
6909.70321,0.09746
6911.63167,0.03127
6913.56014,-0.06713
6915.48861,-0.14177
6917.41708,-0.15022
6919.34555,-0.12887
6921.27402,-0.09257
6923.20249,-0.04400
6925.13096,-0.01786
6927.05942,-0.02098
6928.98789,-0.03070
6930.91636,0.01292
6932.84483,0.14937
6934.77330,0.23306
6936.70177,0.16329
6938.63024,0.02824
6940.55870,-0.03991
6942.48717,-0.04193
6944.41564,-0.04686
6946.34411,-0.01036
6948.27258,0.06529
6950.20105,0.05117
6952.12952,-0.04349
6954.05799,-0.06252
6955.98645,0.00187
6957.91492,0.03476
6959.84339,0.04624
6961.77186,-0.00033
6963.70033,-0.11047
6965.62880,-0.12033
6967.55727,0.00811
6969.48573,0.11099
6971.41420,0.10018
6973.34267,0.06043
6975.27114,0.10434
6977.19961,0.16858
6979.12808,0.14253
6981.05655,0.07852
6982.98501,0.11309
6984.91348,0.17794
6986.84195,0.11170
6988.77042,-0.00533
6990.69889,-0.03649
6992.62736,0.03993
6994.55583,0.14194
6996.48430,0.17425
6998.41276,0.12223
7000.34123,0.04376
7002.26970,-0.02172
7004.19817,-0.07289
7006.12664,-0.03404
7008.05511,0.08952
7009.98358,0.14048
7011.91204,0.09255
7013.84051,0.00124
7015.76898,-0.04377
7017.69745,-0.04245
7019.62592,-0.03690
7021.55439,-0.02899
7023.48286,0.01887
7025.41133,0.14472
7027.33979,0.22777
7029.26826,0.15051
7031.19673,0.08207
7033.12520,0.16094
7035.05367,0.23892
7036.98214,0.14657
7038.91061,0.00810
7040.83907,-0.06662
7042.76754,-0.04864
7044.69601,0.11047
7046.62448,0.26136
7048.55295,0.21672
7050.48142,0.12953
7052.40989,0.14817
7054.33836,0.16269
7056.26682,0.08324
7058.19529,-0.01450
7060.12376,-0.05641
7062.05223,-0.05877
7063.98070,-0.02460
7065.90917,0.05777
7067.83764,0.13313
7069.76610,0.11285
7071.69457,0.03578
7073.62304,-0.00327
7075.55151,-0.02429
7077.47998,-0.04117
7079.40845,-0.02440
7081.33692,0.02173
7083.26539,0.01355
7085.19385,-0.01556
7087.12232,0.01752
7089.05079,0.05006
7090.97926,0.02067
7092.90773,0.02058
7094.83620,0.08245
7096.76467,0.15186
7098.69313,0.19539
7100.62160,0.18333
7102.55007,0.16482
7104.47854,0.20379
7106.40701,0.22817
7108.33548,0.16673
7110.26395,0.08583
7112.19242,0.00868
7114.12088,-0.06372
7116.04935,-0.08130
7117.97782,0.04391
7119.90629,0.16090
7121.83476,0.06231
7123.76323,-0.02569
7125.69170,0.05539
7127.62016,0.10921
7129.54863,0.09525
7131.47710,0.12030
7133.40557,0.10730
7135.33404,0.02313
7137.26251,-0.02618
7139.19098,-0.00330
7141.11944,0.05528
7143.04791,0.14007
7144.97638,0.22369
7146.90485,0.20981
7148.83332,0.15597
7150.76179,0.14199
7152.69026,0.09719
7154.61873,0.01909
7156.54719,0.00707
7158.47566,0.05838
7160.40413,0.09099
7162.33260,0.05830
7164.26107,0.06541
7166.18954,0.15253
7168.11801,0.17123
7170.04647,0.14102
7171.97494,0.15883
7173.90341,0.18161
7175.83188,0.13722
7177.76035,0.08729
7179.68882,0.15799
7181.61729,0.22544
7183.54576,0.15017
7185.47422,0.07885
7187.40269,0.11857
7189.33116,0.15202
7191.25963,0.04018
7193.18810,-0.11111
7195.11657,-0.15624
7197.04504,-0.09512
7198.97350,0.01819
7200.90197,0.11787
7202.83044,0.21599
7204.75891,0.27668
7206.68738,0.29300
7208.61585,0.33379
7210.54432,0.31176
7212.47279,0.22281
7214.40125,0.19103
7216.32972,0.22699
7218.25819,0.21370
7220.18666,0.17581
7222.11513,0.14223
7224.04360,0.00268
7225.97207,-0.14765
7227.90053,-0.08946
7229.82900,0.06469
7231.75747,0.09938
7233.68594,0.08420
7235.61441,0.15043
7237.54288,0.17651
7239.47135,0.07106
7241.39982,-0.06040
7243.32828,-0.17750
7245.25675,-0.18093
7247.18522,0.00311
7249.11369,0.19671
7251.04216,0.24157
7252.97063,0.20072
7254.89910,0.12797
7256.82756,0.07191
7258.75603,0.04082
7260.68450,0.00624
7262.61297,0.10574
7264.54144,0.31040
7266.46991,0.34325
7268.39838,0.20813
7270.32685,0.04902
7272.25531,-0.04319
7274.18378,-0.01373
7276.11225,0.10818
7278.04072,0.21520
7279.96919,0.18125
7281.89766,0.07216
7283.82613,0.10186
7285.75459,0.25652
7287.68306,0.37036
7289.61153,0.32339
7291.54000,0.15334
7293.46847,0.03925
7295.39694,0.02065
7297.32541,0.01243
7299.25387,0.01524
7301.18234,0.06695
7303.11081,0.10945
7305.03928,0.09866
7306.96775,0.14408
7308.89622,0.23765
7310.82469,0.24704
7312.75316,0.26848
7314.68162,0.33088
7316.61009,0.31775
7318.53856,0.23877
7320.46703,0.20974
7322.39550,0.19955
7324.32397,0.10500
7326.25244,0.00731
7328.18090,0.08156
7330.10937,0.20332
7332.03784,0.09722
7333.96631,-0.06979
7335.89478,-0.10952
7337.82325,-0.05623
7339.75172,0.06787
7341.68019,0.12716
7343.60865,0.05720
7345.53712,0.01707
7347.46559,0.00743
7349.39406,-0.04112
7351.32253,-0.03159
7353.25100,-0.02663
7355.17947,-0.17895
7357.10793,-0.27527
7359.03640,0.01621
7360.96487,0.33238
7362.89334,0.31287
7364.82181,0.22910
7366.75028,0.28222
7368.67875,0.30839
7370.60722,0.20379
7372.53568,0.07523
7374.46415,0.01640
7376.39262,0.04567
7378.32109,0.04327
7380.24956,0.04401
7382.17803,0.10287
7384.10650,0.16052
7386.03496,0.16904
7387.96343,0.07218
7389.89190,-0.17255
7391.82037,-0.35140
7393.74884,-0.18847
7395.67731,0.03516
7397.60578,-0.02194
7399.53425,-0.08642
7401.46271,-0.02457
7403.39118,0.01228
7405.31965,-0.00900
7407.24812,-0.01308
7409.17659,0.00252
7411.10506,0.04396
7413.03353,0.09366
7414.96199,0.16984
7416.89046,0.25080
7418.81893,0.25250
7420.74740,0.23936
7422.67587,0.16589
7424.60434,0.02558
7426.53281,-0.05928
7428.46128,-0.05581
7430.38974,0.08224
7432.31821,0.27347
7434.24668,0.32472
7436.17515,0.19671
7438.10362,0.01099
7440.03209,-0.07581
7441.96056,-0.00837
7443.88902,0.06204
7445.81749,-0.01801
7447.74596,-0.15606
7449.67443,-0.15437
7451.60290,0.08192
7453.53137,0.28035
7455.45984,0.25866
7457.38831,0.22209
7459.31677,0.29897
7461.24524,0.33430
7463.17371,0.25890
7465.10218,0.18631
7467.03065,0.11973
7468.95912,0.05433
7470.88759,-0.06824
7472.81605,-0.17496
7474.74452,-0.17689
7476.67299,-0.08965
7478.60146,0.04158
7480.52993,0.14731
7482.45840,0.28490
7484.38687,0.37025
7486.31533,0.29813
7488.24380,0.10590
7490.17227,-0.07953
7492.10074,-0.08773
7494.02921,0.03653
7495.95768,0.14207
7497.88615,0.21112
