399.19301,0.36945
401.12148,-0.97478
403.04995,-0.83451
404.97842,-0.26659
406.90689,0.09675
408.83536,0.13068
410.76382,-0.01203
412.69229,-0.07950
414.62076,-0.01213
416.54923,0.06525
418.47770,0.15534
420.40617,0.22349
422.33464,0.17259
424.26311,0.04803
426.19157,-0.04007
428.12004,0.02296
430.04851,0.13666
431.97698,0.03398
433.90545,-0.13710
435.83392,-0.10807
437.76239,0.01728
439.69085,0.10289
441.61932,0.12089
443.54779,0.10098
445.47626,0.05782
447.40473,0.02102
449.33320,0.04881
451.26167,0.05272
453.19013,-0.02626
455.11860,-0.09936
457.04707,-0.09284
458.97554,-0.00222
460.90401,0.09313
462.83248,0.15742
464.76095,0.18907
466.68942,0.15259
468.61788,0.07400
470.54635,0.03358
472.47482,0.09916
474.40329,0.21602
476.33176,0.20221
478.26023,0.13734
480.18870,0.10097
482.11716,0.12160
484.04563,0.17346
485.97410,0.16974
487.90257,0.12330
489.83104,0.10048
491.75951,0.08384
493.68798,0.05331
495.61645,0.03287
497.54491,0.03200
499.47338,0.03564
501.40185,0.05198
503.33032,0.08294
505.25879,0.09833
507.18726,0.09125
509.11573,0.07451
511.04419,0.08401
512.97266,0.13152
514.90113,0.15167
516.82960,0.10308
518.75807,0.04251
520.68654,0.02525
522.61501,0.05587
524.54348,0.09358
526.47194,0.07199
528.40041,0.02174
530.32888,0.00345
532.25735,0.02165
534.18582,0.07680
536.11429,0.14047
538.04276,0.15955
539.97122,0.12878
541.89969,0.08941
543.82816,0.08862
545.75663,0.10879
547.68510,0.08798
549.61357,0.09851
551.54204,0.38237
553.47051,0.73689
555.39897,0.63762
557.32744,0.26259
559.25591,0.09565
561.18438,0.07883
563.11285,0.05957
565.04132,0.04679
566.96979,0.06547
568.89825,0.10021
570.82672,0.10476
572.75519,0.09292
574.68366,0.10720
576.61213,0.12398
578.54060,0.10757
580.46907,0.09398
582.39754,0.10326
584.32600,0.09932
586.25447,0.06461
588.18294,0.03085
590.11141,0.03381
592.03988,0.05408
593.96835,0.04984
595.89682,0.03504
597.82528,0.03972
599.75375,0.06373
601.68222,0.09826
603.61069,0.11812
605.53916,0.10081
607.46763,0.05716
609.39610,0.02458
611.32456,0.03157
613.25303,0.05589
615.18150,0.06007
617.10997,0.05181
619.03844,0.05729
620.96691,0.07104
622.89538,0.08280
624.82385,0.08720
626.75231,0.08186
628.68078,0.08518
630.60925,0.09141
632.53772,0.07965
634.46619,0.07265
636.39466,0.09320
638.32313,0.11206
640.25159,0.10106
642.18006,0.08195
644.10853,0.07299
646.03700,0.06781
647.96547,0.07275
649.89394,0.08008
651.82241,0.07017
653.75088,0.05719
655.67934,0.05388
657.60781,0.05669
659.53628,0.06902
661.46475,0.08540
663.39322,0.09304
665.32169,0.09463
667.25016,0.09909
669.17862,0.10091
671.10709,0.09122
673.03556,0.07842
674.96403,0.07914
676.89250,0.09287
678.82097,0.09287
680.74944,0.07714
682.67791,0.06798
684.60637,0.08119
686.53484,0.10016
688.46331,0.09191
690.39178,0.07278
692.32025,0.07759
694.24872,0.09260
696.17719,0.09630
698.10565,0.08418
700.03412,0.06487
701.96259,0.06270
703.89106,0.07413
705.81953,0.08017
707.74800,0.11015
709.67647,0.21947
711.60494,0.30853
713.53340,0.22484
715.46187,0.08688
717.39034,0.04819
719.31881,0.06455
721.24728,0.08534
723.17575,0.10797
725.10422,0.12420
727.03268,0.11957
728.96115,0.10549
730.88962,0.09914
732.81809,0.09345
734.74656,0.08284
736.67503,0.07718
738.60350,0.08600
740.53197,0.09877
742.46043,0.10206
744.38890,0.10055
746.31737,0.10480
748.24584,0.10999
750.17431,0.11221
752.10278,0.11200
754.03125,0.10400
755.95971,0.09341
757.88818,0.08735
759.81665,0.09029
761.74512,0.09977
763.67359,0.10435
765.60206,0.10178
767.53053,0.09857
769.45900,0.09583
771.38746,0.08689
773.31593,0.07204
775.24440,0.06042
777.17287,0.05956
779.10134,0.07063
781.02981,0.09029
782.95828,0.10653
784.88674,0.10360
786.81521,0.09274
788.74368,0.09880
790.67215,0.11275
792.60062,0.11354
794.52909,0.10725
796.45756,0.11525
798.38602,0.13397
800.31449,0.13283
802.24296,0.11006
804.17143,0.09228
806.09990,0.08853
808.02837,0.09833
809.95684,0.10941
811.88531,0.10678
813.81377,0.09859
815.74224,0.09380
817.67071,0.09147
819.59918,0.09241
821.52765,0.09694
823.45612,0.10836
825.38459,0.12202
827.31305,0.12549
829.24152,0.11493
831.16999,0.09973
833.09846,0.09502
835.02693,0.10378
836.95540,0.12381
838.88387,0.14277
840.81234,0.14117
842.74080,0.12639
844.66927,0.11680
846.59774,0.11141
848.52621,0.10425
850.45468,0.09982
852.38315,0.10046
854.31162,0.10506
856.24008,0.10826
858.16855,0.10503
860.09702,0.10326
862.02549,0.10989
863.95396,0.12245
865.88243,0.12929
867.81090,0.11708
869.73937,0.09150
871.66783,0.07642
873.59630,0.08419
875.52477,0.10365
877.45324,0.11773
879.38171,0.11889
881.31018,0.11567
883.23865,0.11543
885.16711,0.10942
887.09558,0.09771
889.02405,0.09279
890.95252,0.09113
892.88099,0.08576
894.80946,0.08801
896.73793,0.10126
898.66640,0.10687
900.59486,0.10114
902.52333,0.10047
904.45180,0.10513
906.38027,0.10726
908.30874,0.11050
910.23721,0.11768
912.16568,0.12513
914.09414,0.12484
916.02261,0.11521
917.95108,0.10907
919.87955,0.11254
921.80802,0.11348
923.73649,0.10840
925.66496,0.11029
927.59343,0.11866
929.52189,0.11725
931.45036,0.10745
933.37883,0.10749
935.30730,0.12031
937.23577,0.13185
939.16424,0.13086
941.09271,0.11733
943.02117,0.10443
944.94964,0.10622
946.87811,0.11604
948.80658,0.12045
950.73505,0.12326
952.66352,0.12633
954.59199,0.12434
956.52045,0.12454
958.44892,0.13012
960.37739,0.12909
962.30586,0.12334
964.23433,0.12577
966.16280,0.12956
968.09127,0.12264
970.01974,0.11284
971.94820,0.11080
973.87667,0.11421
975.80514,0.11782
977.73361,0.11849
979.66208,0.11663
981.59055,0.11544
983.51902,0.11367
985.44748,0.10811
987.37595,0.10062
989.30442,0.09774
991.23289,0.10039
993.16136,0.10477
995.08983,0.11169
997.01830,0.12041
998.94677,0.12828
1000.87523,0.13173
1002.80370,0.12731
1004.73217,0.12217
1006.66064,0.12271
1008.58911,0.12429
1010.51758,0.12525
1012.44605,0.12667
1014.37451,0.12492
1016.30298,0.12124
1018.23145,0.12010
1020.15992,0.12066
1022.08839,0.12181
1024.01686,0.12417
1025.94533,0.13048
1027.87380,0.13578
1029.80226,0.12988
1031.73073,0.12761
1033.65920,0.13690
1035.58767,0.13397
1037.51614,0.12160
1039.44461,0.12240
1041.37308,0.12691
1043.30154,0.12166
1045.23001,0.12025
1047.15848,0.13102
1049.08695,0.13987
1051.01542,0.13661
1052.94389,0.12753
1054.87236,0.12777
1056.80083,0.13713
1058.72929,0.13913
1060.65776,0.13429
1062.58623,0.13453
1064.51470,0.13323
1066.44317,0.12377
1068.37164,0.12161
1070.30011,0.13054
1072.22857,0.13707
1074.15704,0.13672
1076.08551,0.13047
1078.01398,0.12316
1079.94245,0.12453
1081.87092,0.13225
1083.79939,0.13816
1085.72786,0.14472
1087.65632,0.14556
1089.58479,0.13620
1091.51326,0.13149
1093.44173,0.13447
1095.37020,0.13736
1097.29867,0.14208
1099.22714,0.14995
1101.15560,0.15421
1103.08407,0.15446
1105.01254,0.15466
1106.94101,0.15061
1108.86948,0.14287
1110.79795,0.13883
1112.72642,0.13822
1114.65489,0.13728
1116.58335,0.13735
1118.51182,0.13501
1120.44029,0.12881
1122.36876,0.13155
1124.29723,0.14532
1126.22570,0.15132
1128.15417,0.14341
1130.08263,0.13590
1132.01110,0.13379
1133.93957,0.13230
1135.86804,0.13150
1137.79651,0.13456
1139.72498,0.13932
1141.65345,0.13883
1143.58191,0.13510
1145.51038,0.13699
1147.43885,0.14307
1149.36732,0.14228
1151.29579,0.13551
1153.22426,0.13377
1155.15273,0.13741
1157.08120,0.14235
1159.00966,0.14883
1160.93813,0.15237
1162.86660,0.14699
1164.79507,0.13810
1166.72354,0.13372
1168.65201,0.13338
1170.58048,0.13541
1172.50894,0.13935
1174.43741,0.14422
1176.36588,0.14891
1178.29435,0.15061
1180.22282,0.14938
1182.15129,0.14317
1184.07976,0.12155
1186.00823,0.09347
1187.93669,0.09101
1189.86516,0.11421
1191.79363,0.13015
1193.72210,0.13082
1195.65057,0.12922
1197.57904,0.13194
1199.50751,0.14157
1201.43597,0.14962
1203.36444,0.14649
1205.29291,0.13970
1207.22138,0.13761
1209.14985,0.13740
1211.07832,0.13817
1213.00679,0.14399
1214.93526,0.15271
1216.86372,0.15742
1218.79219,0.15655
1220.72066,0.15360
1222.64913,0.15059
1224.57760,0.14835
1226.50607,0.14889
1228.43454,0.15013
1230.36300,0.14869
1232.29147,0.14728
1234.21994,0.14773
1236.14841,0.14727
1238.07688,0.14699
1240.00535,0.14954
1241.93382,0.15166
1243.86229,0.15058
1245.79075,0.14836
1247.71922,0.14783
1249.64769,0.15041
1251.57616,0.15307
1253.50463,0.15196
1255.43310,0.14928
1257.36157,0.14929
1259.29003,0.15129
1261.21850,0.15130
1263.14697,0.14915
1265.07544,0.14845
1267.00391,0.15136
1268.93238,0.15378
1270.86085,0.15048
1272.78932,0.14731
1274.71778,0.15068
1276.64625,0.15610
1278.57472,0.15769
1280.50319,0.15398
1282.43166,0.15039
1284.36013,0.15204
1286.28860,0.15584
1288.21706,0.15971
1290.14553,0.16338
1292.07400,0.16245
1294.00247,0.15839
1295.93094,0.15875
1297.85941,0.16127
1299.78788,0.15991
1301.71634,0.15488
1303.64481,0.14813
1305.57328,0.14568
1307.50175,0.15047
1309.43022,0.15482
1311.35869,0.15567
1313.28716,0.15625
1315.21563,0.15475
1317.14409,0.15301
1319.07256,0.15476
1321.00103,0.15509
1322.92950,0.15285
1324.85797,0.15146
1326.78644,0.15178
1328.71491,0.15428
1330.64337,0.15435
1332.57184,0.15115
1334.50031,0.15282
1336.42878,0.16206
1338.35725,0.16961
1340.28572,0.17481
1342.21419,0.21526
1344.14266,0.27338
1346.07112,0.26143
1347.99959,0.19068
1349.92806,0.15523
1351.85653,0.15784
1353.78500,0.15899
1355.71347,0.15601
1357.64194,0.15447
1359.57040,0.15717
1361.49887,0.16200
1363.42734,0.16292
1365.35581,0.16137
1367.28428,0.15987
1369.21275,0.15687
1371.14122,0.15761
1373.06969,0.16621
1374.99815,0.17348
1376.92662,0.17093
1378.85509,0.16483
1380.78356,0.16164
1382.71203,0.16204
1384.64050,0.16511
1386.56897,0.16941
1388.49743,0.16991
1390.42590,0.16675
1392.35437,0.16788
1394.28284,0.17489
1396.21131,0.17960
1398.13978,0.17789
1400.06825,0.17073
1401.99672,0.16523
1403.92518,0.16899
1405.85365,0.17304
1407.78212,0.16851
1409.71059,0.16372
1411.63906,0.16282
1413.56753,0.16727
1415.49600,0.17854
1417.42446,0.19008
1419.35293,0.19150
1421.28140,0.18568
1423.20987,0.17988
1425.13834,0.17529
1427.06681,0.17662
1428.99528,0.18096
1430.92375,0.18065
1432.85221,0.17740
1434.78068,0.17643
1436.70915,0.17903
1438.63762,0.17843
1440.56609,0.17175
1442.49456,0.16703
1444.42303,0.17205
1446.35149,0.18066
1448.27996,0.18103
1450.20843,0.17816
1452.13690,0.18123
1454.06537,0.19042
1455.99384,0.20427
1457.92231,0.20638
1459.85077,0.19013
1461.77924,0.17966
1463.70771,0.17862
1465.63618,0.17876
1467.56465,0.17653
1469.49312,0.17939
1471.42159,0.19034
1473.35006,0.19927
1475.27852,0.19284
1477.20699,0.18211
1479.13546,0.17561
1481.06393,0.17175
1482.99240,0.16988
1484.92087,0.17545
1486.84934,0.18980
1488.77780,0.20215
1490.70627,0.19915
1492.63474,0.19247
1494.56321,0.19558
1496.49168,0.20330
1498.42015,0.19895
1500.34862,0.18710
1502.27709,0.18159
1504.20555,0.18948
1506.13402,0.21815
1508.06249,0.22676
1509.99096,0.20335
1511.91943,0.19124
1513.84790,0.19414
1515.77637,0.20627
1517.70483,0.21741
1519.63330,0.22471
1521.56177,0.22337
1523.49024,0.20891
1525.41871,0.20003
1527.34718,0.19678
1529.27565,0.19667
1531.20412,0.20377
1533.13258,0.21190
1535.06105,0.21201
1536.98952,0.21756
1538.91799,0.24329
1540.84646,0.26949
1542.77493,0.25253
1544.70340,0.22235
1546.63186,0.20152
1548.56033,0.19704
1550.48880,0.20091
1552.41727,0.20288
1554.34574,0.20497
1556.27421,0.21933
1558.20268,0.25533
1560.13115,0.24955
1562.05961,0.21643
1563.98808,0.20058
1565.91655,0.19419
1567.84502,0.19622
1569.77349,0.20282
1571.70196,0.20333
1573.63043,0.20539
1575.55889,0.21192
1577.48736,0.20515
1579.41583,0.18973
1581.34430,0.18170
1583.27277,0.18048
1585.20124,0.18003
1587.12971,0.17857
1589.05818,0.17882
1590.98664,0.18152
1592.91511,0.18445
1594.84358,0.18664
1596.77205,0.18668
1598.70052,0.18367
1600.62899,0.18154
1602.55746,0.18224
1604.48592,0.18226
1606.41439,0.18173
1608.34286,0.18266
1610.27133,0.18204
1612.19980,0.17982
1614.12827,0.18236
1616.05674,0.19124
1617.98521,0.19363
1619.91367,0.19091
1621.84214,0.19439
1623.77061,0.19831
1625.69908,0.19640
1627.62755,0.19268
1629.55602,0.18970
1631.48449,0.19152
1633.41295,0.19887
1635.34142,0.20703
1637.26989,0.20203
1639.19836,0.19290
1641.12683,0.19100
1643.05530,0.19626
1644.98377,0.21009
1646.91223,0.22495
1648.84070,0.22350
1650.76917,0.22188
1652.69764,0.22877
1654.62611,0.22233
1656.55458,0.20701
1658.48305,0.20116
1660.41152,0.20970
1662.33998,0.21968
1664.26845,0.21152
1666.19692,0.20410
1668.12539,0.21144
1670.05386,0.21924
1671.98233,0.21582
1673.91080,0.21404
1675.83926,0.21120
1677.76773,0.20507
1679.69620,0.20740
1681.62467,0.21999
1683.55314,0.22965
1685.48161,0.21949
1687.41008,0.21330
1689.33855,0.21398
1691.26701,0.20925
1693.19548,0.20756
1695.12395,0.22063
1697.05242,0.23724
1698.98089,0.23863
1700.90936,0.22756
1702.83783,0.22089
1704.76629,0.22012
1706.69476,0.21061
1708.62323,0.19579
1710.55170,0.19019
1712.48017,0.19481
1714.40864,0.20674
1716.33711,0.22250
1718.26558,0.22228
1720.19404,0.20601
1722.12251,0.19523
1724.05098,0.19049
1725.97945,0.18613
1727.90792,0.18417
1729.83639,0.18852
1731.76486,0.19980
1733.69332,0.21361
1735.62179,0.21515
1737.55026,0.21079
1739.47873,0.20874
1741.40720,0.20704
1743.33567,0.20421
1745.26414,0.20300
1747.19261,0.20698
1749.12107,0.21150
1751.04954,0.20706
1752.97801,0.19728
1754.90648,0.19189
1756.83495,0.19177
1758.76342,0.19308
1760.69189,0.19538
1762.62035,0.19489
1764.54882,0.19064
1766.47729,0.19127
1768.40576,0.19944
1770.33423,0.21248
1772.26270,0.22055
1774.19117,0.21189
1776.11964,0.19829
1778.04810,0.19121
1779.97657,0.19230
1781.90504,0.19416
1783.83351,0.19187
1785.76198,0.18872
1787.69045,0.18884
1789.61892,0.19673
1791.54738,0.20984
1793.47585,0.21190
1795.40432,0.20369
1797.33279,0.19845
1799.26126,0.19730
1801.18973,0.19527
1803.11820,0.19083
1805.04666,0.18833
1806.97513,0.18804
1808.90360,0.18906
1810.83207,0.19139
1812.76054,0.19219
1814.68901,0.19151
1816.61748,0.19766
1818.54595,0.21587
1820.47441,0.22215
1822.40288,0.20531
1824.33135,0.19326
1826.25982,0.19521
1828.18829,0.19743
1830.11676,0.19575
1832.04523,0.19035
1833.97369,0.18771
1835.90216,0.18701
1837.83063,0.18342
1839.75910,0.18249
1841.68757,0.19134
1843.61604,0.20400
1845.54451,0.20564
1847.47298,0.19807
1849.40144,0.18990
1851.32991,0.18456
1853.25838,0.18349
1855.18685,0.18483
1857.11532,0.18724
1859.04379,0.18971
1860.97226,0.18892
1862.90072,0.18612
1864.82919,0.18860
1866.75766,0.19693
1868.68613,0.19960
1870.61460,0.19146
1872.54307,0.18414
1874.47154,0.18251
1876.40001,0.18287
1878.32847,0.18302
1880.25694,0.18492
1882.18541,0.18704
1884.11388,0.18695
1886.04235,0.18730
1887.97082,0.19046
1889.89929,0.19320
1891.82775,0.19212
1893.75622,0.18980
1895.68469,0.18831
1897.61316,0.18898
1899.54163,0.19146
1901.47010,0.19159
1903.39857,0.18831
1905.32704,0.18492
1907.25550,0.18348
1909.18397,0.18379
1911.11244,0.18356
1913.04091,0.18244
1914.96938,0.18521
1916.89785,0.19176
1918.82632,0.19441
1920.75478,0.19300
1922.68325,0.19123
1924.61172,0.18794
1926.54019,0.18623
1928.46866,0.18799
1930.39713,0.18964
1932.32560,0.19021
1934.25407,0.18950
1936.18253,0.18720
1938.11100,0.18611
1940.03947,0.18718
1941.96794,0.18904
1943.89641,0.18944
1945.82488,0.18768
1947.75335,0.18662
1949.68181,0.18622
1951.61028,0.18516
1953.53875,0.18646
1955.46722,0.19045
1957.39569,0.19231
1959.32416,0.19102
1961.25263,0.19035
1963.18110,0.19185
1965.10956,0.19328
1967.03803,0.19298
1968.96650,0.19158
1970.89497,0.18892
1972.82344,0.18545
1974.75191,0.18805
1976.68038,0.19803
1978.60884,0.20121
1980.53731,0.19357
1982.46578,0.18825
1984.39425,0.18837
1986.32272,0.18796
1988.25119,0.18700
1990.17966,0.18688
1992.10812,0.18689
1994.03659,0.18666
1995.96506,0.18620
1997.89353,0.18568
1999.82200,0.18576
2001.75047,0.18742
2003.67894,0.18983
2005.60741,0.19075
2007.53587,0.18944
2009.46434,0.18768
2011.39281,0.18769
2013.32128,0.18910
2015.24975,0.18999
2017.17822,0.18931
2019.10669,0.18747
2021.03515,0.18631
2022.96362,0.18789
2024.89209,0.19133
2026.82056,0.19347
2028.74903,0.19305
2030.67750,0.19070
2032.60597,0.18840
2034.53444,0.18723
2036.46290,0.18727
2038.39137,0.18970
2040.31984,0.19352
2042.24831,0.19552
2044.17678,0.19494
2046.10525,0.19408
2048.03372,0.19450
2049.96218,0.19390
2051.89065,0.19087
2053.81912,0.18885
2055.74759,0.18839
2057.67606,0.18699
2059.60453,0.18596
2061.53300,0.18709
2063.46147,0.19000
2065.38993,0.19321
2067.31840,0.19375
2069.24687,0.19060
2071.17534,0.18811
2073.10381,0.18941
2075.03228,0.19195
2076.96075,0.19230
2078.88921,0.18979
2080.81768,0.18877
2082.74615,0.19151
2084.67462,0.19312
2086.60309,0.19196
2088.53156,0.19162
2090.46003,0.19237
2092.38850,0.19251
2094.31696,0.19246
2096.24543,0.19312
2098.17390,0.19522
2100.10237,0.19697
2102.03084,0.19605
2103.95931,0.19385
2105.88778,0.19189
2107.81624,0.19098
2109.74471,0.19104
2111.67318,0.18982
2113.60165,0.18953
2115.53012,0.19336
2117.45859,0.19691
2119.38706,0.19650
2121.31553,0.19436
2123.24399,0.19390
2125.17246,0.19577
2127.10093,0.19652
2129.02940,0.19465
2130.95787,0.19466
2132.88634,0.19926
2134.81481,0.20246
2136.74327,0.19942
2138.67174,0.19342
2140.60021,0.18895
2142.52868,0.18692
2144.45715,0.18574
2146.38562,0.18713
2148.31409,0.19114
2150.24255,0.19313
2152.17102,0.19215
2154.09949,0.19039
2156.02796,0.19020
2157.95643,0.19169
2159.88490,0.19290
2161.81337,0.19254
2163.74184,0.19098
2165.67030,0.19123
2167.59877,0.19405
2169.52724,0.19604
2171.45571,0.19473
2173.38418,0.19191
2175.31265,0.19134
2177.24112,0.19400
2179.16958,0.19704
2181.09805,0.19863
2183.02652,0.19897
2184.95499,0.19699
2186.88346,0.19577
2188.81193,0.19796
2190.74040,0.19818
2192.66887,0.19457
2194.59733,0.19233
2196.52580,0.19373
2198.45427,0.19621
2200.38274,0.19801
2202.31121,0.19871
2204.23968,0.19728
2206.16815,0.19454
2208.09661,0.19196
2210.02508,0.19078
2211.95355,0.19197
2213.88202,0.19282
2215.81049,0.19118
2217.73896,0.19088
2219.66743,0.19379
2221.59590,0.19534
2223.52436,0.19349
2225.45283,0.19201
2227.38130,0.19374
2229.30977,0.19727
2231.23824,0.19931
2233.16671,0.19883
2235.09518,0.19734
2237.02364,0.19656
2238.95211,0.19695
2240.88058,0.19742
2242.80905,0.19687
2244.73752,0.19613
2246.66599,0.19636
2248.59446,0.19674
2250.52293,0.19675
2252.45139,0.19622
2254.37986,0.19516
2256.30833,0.19380
2258.23680,0.19057
2260.16527,0.18801
2262.09374,0.19041
2264.02221,0.19501
2265.95067,0.19691
2267.87914,0.19492
2269.80761,0.19298
2271.73608,0.19624
2273.66455,0.20233
2275.59302,0.20408
2277.52149,0.20065
2279.44996,0.19643
2281.37842,0.19472
2283.30689,0.19642
2285.23536,0.19948
2287.16383,0.20044
2289.09230,0.19780
2291.02077,0.19449
2292.94924,0.19264
2294.87770,0.19094
2296.80617,0.18879
2298.73464,0.18727
2300.66311,0.18738
2302.59158,0.18593
2304.52005,0.18258
2306.44852,0.18407
2308.37699,0.19114
2310.30545,0.19583
2312.23392,0.19344
2314.16239,0.18751
2316.09086,0.18276
2318.01933,0.18117
2319.94780,0.18651
2321.87627,0.19964
2323.80473,0.20673
2325.73320,0.20072
2327.66167,0.19428
2329.59014,0.19223
2331.51861,0.19298
2333.44708,0.19518
2335.37555,0.19806
2337.30401,0.20940
2339.23248,0.22170
2341.16095,0.21279
2343.08942,0.19337
2345.01789,0.19058
2346.94636,0.19802
2348.87483,0.20040
2350.80330,0.19412
2352.73176,0.18195
2354.66023,0.17797
2356.58870,0.19370
2358.51717,0.21558
2360.44564,0.22475
2362.37411,0.22148
2364.30258,0.20910
2366.23104,0.19803
2368.15951,0.18734
2370.08798,0.17197
2372.01645,0.16779
2373.94492,0.17661
2375.87339,0.18643
2377.80186,0.19132
2379.73033,0.19026
2381.65879,0.19001
2383.58726,0.19474
2385.51573,0.19910
2387.44420,0.20101
2389.37267,0.20149
2391.30114,0.19970
2393.22961,0.19703
2395.15807,0.19647
2397.08654,0.19891
2399.01501,0.20068
2400.94348,0.19962
2402.87195,0.19881
2404.80042,0.19942
2406.72889,0.19909
2408.65736,0.19706
2410.58582,0.19488
2412.51429,0.19178
2414.44276,0.18934
2416.37123,0.19094
2418.29970,0.19282
2420.22817,0.19276
2422.15664,0.19446
2424.08510,0.19813
2426.01357,0.20022
2427.94204,0.19937
2429.87051,0.19794
2431.79898,0.19767
2433.72745,0.19790
2435.65592,0.19729
2437.58439,0.19552
2439.51285,0.19467
2441.44132,0.19478
2443.36979,0.19251
2445.29826,0.18896
2447.22673,0.18753
2449.15520,0.18757
2451.08367,0.18850
2453.01213,0.18919
2454.94060,0.18998
2456.86907,0.19370
2458.79754,0.19670
2460.72601,0.19823
2462.65448,0.20106
2464.58295,0.20036
2466.51142,0.19648
2468.43988,0.19435
2470.36835,0.19352
2472.29682,0.19519
2474.22529,0.20067
2476.15376,0.20397
2478.08223,0.20005
2480.01070,0.19392
2481.93916,0.19086
2483.86763,0.19068
2485.79610,0.19234
2487.72457,0.19427
2489.65304,0.19545
2491.58151,0.19427
2493.50998,0.19185
2495.43844,0.19263
2497.36691,0.19582
2499.29538,0.19883
2501.22385,0.20122
2503.15232,0.20071
2505.08079,0.19745
2507.00926,0.19594
2508.93773,0.19667
2510.86619,0.19764
2512.79466,0.19845
2514.72313,0.19819
2516.65160,0.19723
2518.58007,0.19641
2520.50854,0.19733
2522.43701,0.19961
2524.36547,0.19946
2526.29394,0.19703
2528.22241,0.19532
2530.15088,0.19599
2532.07935,0.19757
2534.00782,0.19674
2535.93629,0.19498
2537.86476,0.19635
2539.79322,0.19865
2541.72169,0.19763
2543.65016,0.19566
2545.57863,0.19647
2547.50710,0.19989
2549.43557,0.20360
2551.36404,0.20578
2553.29250,0.20657
2555.22097,0.20571
2557.14944,0.20309
2559.07791,0.20154
2561.00638,0.20224
2562.93485,0.20249
2564.86332,0.20197
2566.79179,0.20180
2568.72025,0.20062
2570.64872,0.19921
2572.57719,0.20001
2574.50566,0.20154
2576.43413,0.20226
2578.36260,0.20286
2580.29107,0.20310
2582.21953,0.20325
2584.14800,0.20316
2586.07647,0.20087
2588.00494,0.19891
2589.93341,0.20102
2591.86188,0.20277
2593.79035,0.20136
2595.71882,0.20072
2597.64728,0.20148
2599.57575,0.20075
2601.50422,0.19820
2603.43269,0.19795
2605.36116,0.20232
2607.28963,0.20523
2609.21810,0.20079
2611.14656,0.19816
2613.07503,0.20393
2615.00350,0.20465
2616.93197,0.19846
2618.86044,0.19568
2620.78891,0.19465
2622.71738,0.19532
2624.64585,0.19988
2626.57431,0.20373
2628.50278,0.20514
2630.43125,0.20488
2632.35972,0.20270
2634.28819,0.20264
2636.21666,0.20499
2638.14513,0.20445
2640.07359,0.20268
2642.00206,0.20182
2643.93053,0.19938
2645.85900,0.19633
2647.78747,0.19683
2649.71594,0.19977
2651.64441,0.20025
2653.57288,0.20090
2655.50134,0.20503
2657.42981,0.20871
2659.35828,0.20860
2661.28675,0.20553
2663.21522,0.20367
2665.14369,0.20575
2667.07216,0.20874
2669.00062,0.20917
2670.92909,0.20759
2672.85756,0.20616
2674.78603,0.20551
2676.71450,0.20453
2678.64297,0.20327
2680.57144,0.20418
2682.49990,0.20737
2684.42837,0.20873
2686.35684,0.20644
2688.28531,0.20378
2690.21378,0.20318
2692.14225,0.20275
2694.07072,0.20112
2695.99919,0.20064
2697.92765,0.20134
2699.85612,0.20120
2701.78459,0.20253
2703.71306,0.20505
2705.64153,0.20348
2707.57000,0.19989
2709.49847,0.20055
2711.42693,0.20343
2713.35540,0.20461
2715.28387,0.20493
2717.21234,0.20433
2719.14081,0.20272
2721.06928,0.20225
2722.99775,0.20298
2724.92622,0.20356
2726.85468,0.20354
2728.78315,0.20385
2730.71162,0.20600
2732.64009,0.20802
2734.56856,0.20780
2736.49703,0.20687
2738.42550,0.20704
2740.35396,0.20850
2742.28243,0.20920
2744.21090,0.20942
2746.13937,0.21349
2748.06784,0.22028
2749.99631,0.22152
2751.92478,0.21418
2753.85325,0.20635
2755.78171,0.20564
2757.71018,0.20949
2759.63865,0.21240
2761.56712,0.21259
2763.49559,0.21230
2765.42406,0.21623
2767.35253,0.22310
2769.28099,0.22654
2771.20946,0.22460
2773.13793,0.21991
2775.06640,0.21552
2776.99487,0.21230
2778.92334,0.21109
2780.85181,0.21177
2782.78028,0.21237
2784.70874,0.21313
2786.63721,0.21366
2788.56568,0.21259
2790.49415,0.21096
2792.42262,0.21095
2794.35109,0.21310
2796.27956,0.21499
2798.20802,0.21613
2800.13649,0.21787
2802.06496,0.21921
2803.99343,0.21858
2805.92190,0.21597
2807.85037,0.21403
2809.77884,0.21442
2811.70731,0.21538
2813.63577,0.21493
2815.56424,0.21404
2817.49271,0.21683
2819.42118,0.22138
2821.34965,0.21937
2823.27812,0.21372
2825.20659,0.21471
2827.13505,0.21868
2829.06352,0.21793
2830.99199,0.21638
2832.92046,0.21735
2834.84893,0.21786
2836.77740,0.21661
2838.70587,0.21468
2840.63433,0.21297
2842.56280,0.21341
2844.49127,0.21473
2846.41974,0.21332
2848.34821,0.21164
2850.27668,0.21319
2852.20515,0.21513
2854.13362,0.21285
2856.06208,0.20886
2857.99055,0.20849
2859.91902,0.21080
2861.84749,0.21326
2863.77596,0.21452
2865.70443,0.21583
2867.63290,0.21805
2869.56136,0.21713
2871.48983,0.21260
2873.41830,0.20826
2875.34677,0.20604
2877.27524,0.20838
2879.20371,0.21510
2881.13218,0.22003
2883.06065,0.22052
2884.98911,0.21997
2886.91758,0.21921
2888.84605,0.21668
2890.77452,0.21559
2892.70299,0.21784
2894.63146,0.21777
2896.55993,0.21524
2898.48839,0.21495
2900.41686,0.21557
2902.34533,0.21496
2904.27380,0.21358
2906.20227,0.21015
2908.13074,0.20414
2910.05921,0.20068
2911.98768,0.20113
2913.91614,0.20041
2915.84461,0.19841
2917.77308,0.19859
2919.70155,0.20105
2921.63002,0.20702
2923.55849,0.21981
2925.48696,0.23074
2927.41542,0.23108
2929.34389,0.22698
2931.27236,0.22181
2933.20083,0.22002
2935.12930,0.22262
2937.05777,0.22048
2938.98624,0.21502
2940.91471,0.20968
2942.84317,0.20695
2944.77164,0.21130
2946.70011,0.21638
2948.62858,0.21865
2950.55705,0.22056
2952.48552,0.22053
2954.41399,0.21847
2956.34245,0.21409
2958.27092,0.20982
2960.19939,0.21269
2962.12786,0.21911
2964.05633,0.21730
2965.98480,0.20919
2967.91327,0.20753
2969.84174,0.21259
2971.77020,0.21707
2973.69867,0.22207
2975.62714,0.22498
2977.55561,0.21954
2979.48408,0.21232
2981.41255,0.21085
2983.34102,0.21171
2985.26948,0.21146
2987.19795,0.21162
2989.12642,0.21579
2991.05489,0.22370
2992.98336,0.22826
2994.91183,0.22609
2996.84030,0.22050
2998.76877,0.21831
3000.69723,0.22332
3002.62570,0.22717
3004.55417,0.22522
3006.48264,0.22328
3008.41111,0.22235
3010.33958,0.21986
3012.26805,0.21210
3014.19651,0.19534
3016.12498,0.17924
3018.05345,0.18191
3019.98192,0.20106
3021.91039,0.21591
3023.83886,0.21966
3025.76733,0.22004
3027.69579,0.22146
3029.62426,0.22500
3031.55273,0.22661
3033.48120,0.22085
3035.40967,0.21500
3037.33814,0.21506
3039.26661,0.21617
3041.19508,0.21737
3043.12354,0.21872
3045.05201,0.21858
3046.98048,0.21837
3048.90895,0.21821
3050.83742,0.21943
3052.76589,0.22061
3054.69436,0.21637
3056.62282,0.21240
3058.55129,0.21673
3060.47976,0.22421
3062.40823,0.22680
3064.33670,0.22213
3066.26517,0.21629
3068.19364,0.21833
3070.12211,0.22305
3072.05057,0.22053
3073.97904,0.21364
3075.90751,0.20775
3077.83598,0.20621
3079.76445,0.21089
3081.69292,0.22058
3083.62139,0.23425
3085.54985,0.24332
3087.47832,0.23692
3089.40679,0.22355
3091.33526,0.22050
3093.26373,0.22121
3095.19220,0.21824
3097.12067,0.22231
3099.04914,0.22707
3100.97760,0.22291
3102.90607,0.21678
3104.83454,0.21642
3106.76301,0.22084
3108.69148,0.22096
3110.61995,0.21948
3112.54842,0.22369
3114.47688,0.22830
3116.40535,0.22862
3118.33382,0.22713
3120.26229,0.22591
3122.19076,0.22695
3124.11923,0.23054
3126.04770,0.22979
3127.97617,0.22278
3129.90463,0.21590
3131.83310,0.21522
3133.76157,0.22071
3135.69004,0.22637
3137.61851,0.22807
3139.54698,0.22495
3141.47545,0.22183
3143.40391,0.22384
3145.33238,0.22745
3147.26085,0.22681
3149.18932,0.22561
3151.11779,0.23118
3153.04626,0.23964
3154.97473,0.24054
3156.90320,0.23256
3158.83166,0.22623
3160.76013,0.22662
3162.68860,0.22916
3164.61707,0.23139
3166.54554,0.23454
3168.47401,0.23738
3170.40248,0.23556
3172.33094,0.23090
3174.25941,0.22778
3176.18788,0.22591
3178.11635,0.22356
3180.04482,0.22233
3181.97329,0.22709
3183.90176,0.23612
3185.83022,0.23953
3187.75869,0.23408
3189.68716,0.22645
3191.61563,0.21980
3193.54410,0.21802
3195.47257,0.22498
3197.40104,0.23395
3199.32951,0.23746
3201.25797,0.23494
3203.18644,0.23154
3205.11491,0.22947
3207.04338,0.22481
3208.97185,0.22036
3210.90032,0.22057
3212.82879,0.22232
3214.75725,0.22487
3216.68572,0.22908
3218.61419,0.22965
3220.54266,0.22497
3222.47113,0.22079
3224.39960,0.22182
3226.32807,0.22793
3228.25654,0.23241
3230.18500,0.23337
3232.11347,0.23792
3234.04194,0.24116
3235.97041,0.23407
3237.89888,0.22482
3239.82735,0.22367
3241.75582,0.22790
3243.68428,0.23206
3245.61275,0.23685
3247.54122,0.23940
3249.46969,0.23566
3251.39816,0.22984
3253.32663,0.22452
3255.25510,0.21771
3257.18357,0.21105
3259.11203,0.21030
3261.04050,0.21719
3262.96897,0.22672
3264.89744,0.23068
3266.82591,0.22603
3268.75438,0.21941
3270.68285,0.21726
3272.61131,0.22098
3274.53978,0.22530
3276.46825,0.22520
3278.39672,0.22356
3280.32519,0.22255
3282.25366,0.22225
3284.18213,0.22311
3286.11060,0.22420
3288.03906,0.22339
3289.96753,0.22349
3291.89600,0.22929
3293.82447,0.23259
3295.75294,0.22569
3297.68141,0.21760
3299.60988,0.21730
3301.53834,0.22123
3303.46681,0.22156
3305.39528,0.21713
3307.32375,0.21219
3309.25222,0.21131
3311.18069,0.21699
3313.10916,0.22318
3315.03763,0.22119
3316.96609,0.21394
3318.89456,0.21493
3320.82303,0.22580
3322.75150,0.23029
3324.67997,0.22517
3326.60844,0.22213
3328.53691,0.22401
3330.46537,0.22620
3332.39384,0.22494
3334.32231,0.22184
3336.25078,0.22197
3338.17925,0.22404
3340.10772,0.22409
3342.03619,0.22420
3343.96466,0.22603
3345.89312,0.22894
3347.82159,0.23113
3349.75006,0.22550
3351.67853,0.21457
3353.60700,0.21336
3355.53547,0.22065
3357.46394,0.22204
3359.39240,0.22098
3361.32087,0.22650
3363.24934,0.22940
3365.17781,0.22358
3367.10628,0.22104
3369.03475,0.22609
3370.96322,0.23035
3372.89168,0.23436
3374.82015,0.23864
3376.74862,0.23931
3378.67709,0.24103
3380.60556,0.24166
3382.53403,0.23615
3384.46250,0.23053
3386.39097,0.22573
3388.31943,0.21981
3390.24790,0.21811
3392.17637,0.22269
3394.10484,0.22561
3396.03331,0.22226
3397.96178,0.21871
3399.89025,0.21446
3401.81871,0.20742
3403.74718,0.20613
3405.67565,0.21194
3407.60412,0.21594
3409.53259,0.21618
3411.46106,0.21825
3413.38953,0.22312
3415.31800,0.22878
3417.24646,0.23247
3419.17493,0.23302
3421.10340,0.23490
3423.03187,0.23383
3424.96034,0.22513
3426.88881,0.21698
3428.81728,0.21332
3430.74574,0.20992
3432.67421,0.20513
3434.60268,0.20434
3436.53115,0.20901
3438.45962,0.21370
3440.38809,0.21717
3442.31656,0.21869
3444.24503,0.21829
3446.17349,0.21851
3448.10196,0.21505
3450.03043,0.20791
3451.95890,0.20329
3453.88737,0.19929
3455.81584,0.19628
3457.74431,0.19881
3459.67277,0.20315
3461.60124,0.20331
3463.52971,0.20343
3465.45818,0.20657
3467.38665,0.20719
3469.31512,0.20781
3471.24359,0.21082
3473.17206,0.21055
3475.10052,0.20744
3477.02899,0.20384
3478.95746,0.20178
3480.88593,0.20428
3482.81440,0.20426
3484.74287,0.19653
3486.67134,0.19336
3488.59980,0.19912
3490.52827,0.20350
3492.45674,0.20354
3494.38521,0.20254
3496.31368,0.20141
3498.24215,0.19664
3500.17062,0.19229
3502.09909,0.19605
3504.02755,0.19859
3505.95602,0.19391
3507.88449,0.19315
3509.81296,0.19591
3511.74143,0.19181
3513.66990,0.18339
3515.59837,0.17868
3517.52683,0.17817
3519.45530,0.18023
3521.38377,0.18464
3523.31224,0.18719
3525.24071,0.18791
3527.16918,0.19160
3529.09765,0.19177
3531.02611,0.18416
3532.95458,0.17935
3534.88305,0.18532
3536.81152,0.19459
3538.73999,0.19398
3540.66846,0.18414
3542.59693,0.17629
3544.52540,0.17608
3546.45386,0.17528
3548.38233,0.17028
3550.31080,0.17051
3552.23927,0.17390
3554.16774,0.17056
3556.09621,0.16642
3558.02468,0.16840
3559.95314,0.17151
3561.88161,0.17228
3563.81008,0.17276
3565.73855,0.17817
3567.66702,0.18258
3569.59549,0.17727
3571.52396,0.17398
3573.45243,0.17419
3575.38089,0.17150
3577.30936,0.16655
3579.23783,0.16437
3581.16630,0.16648
3583.09477,0.17082
3585.02324,0.17703
3586.95171,0.18217
3588.88017,0.17873
3590.80864,0.17428
3592.73711,0.17519
3594.66558,0.17408
3596.59405,0.16955
3598.52252,0.16894
3600.45099,0.16832
3602.37946,0.16080
3604.30792,0.15468
3606.23639,0.16066
3608.16486,0.17219
3610.09333,0.17676
3612.02180,0.17750
3613.95027,0.17696
3615.87874,0.17675
3617.80720,0.17565
3619.73567,0.16420
3621.66414,0.15103
3623.59261,0.14752
3625.52108,0.14832
3627.44955,0.15244
3629.37802,0.15838
3631.30649,0.15415
3633.23495,0.14795
3635.16342,0.14704
3637.09189,0.14862
3639.02036,0.14887
3640.94883,0.14588
3642.87730,0.14212
3644.80577,0.14569
3646.73423,0.16384
3648.66270,0.19176
3650.59117,0.19145
3652.51964,0.16669
3654.44811,0.15072
3656.37658,0.14784
3658.30505,0.14661
3660.23352,0.14125
3662.16198,0.13607
3664.09045,0.13478
3666.01892,0.13940
3667.94739,0.14911
3669.87586,0.15814
3671.80433,0.16220
3673.73280,0.16608
3675.66126,0.16045
3677.58973,0.14911
3679.51820,0.14722
3681.44667,0.14406
3683.37514,0.13746
3685.30361,0.13618
3687.23208,0.14568
3689.16055,0.15531
3691.08901,0.14548
3693.01748,0.13354
3694.94595,0.13148
3696.87442,0.13256
3698.80289,0.13252
3700.73136,0.13519
3702.65983,0.14167
3704.58829,0.14500
3706.51676,0.14535
3708.44523,0.14607
3710.37370,0.14735
3712.30217,0.14529
3714.23064,0.13758
3716.15911,0.13340
3718.08757,0.13956
3720.01604,0.15047
3721.94451,0.15316
3723.87298,0.14429
3725.80145,0.13480
3727.72992,0.13302
3729.65839,0.13732
3731.58686,0.15327
3733.51532,0.18234
3735.44379,0.19251
3737.37226,0.17069
3739.30073,0.15336
3741.22920,0.15306
3743.15767,0.16371
3745.08614,0.17040
3747.01460,0.16961
3748.94307,0.17613
3750.87154,0.17901
3752.80001,0.16566
3754.72848,0.15398
3756.65695,0.14661
3758.58542,0.14259
3760.51389,0.13974
3762.44235,0.13771
3764.37082,0.13913
3766.29929,0.13930
3768.22776,0.13675
3770.15623,0.13440
3772.08470,0.13164
3774.01317,0.13046
3775.94163,0.13360
3777.87010,0.14083
3779.79857,0.14545
3781.72704,0.14144
3783.65551,0.13440
3785.58398,0.13127
3787.51245,0.13306
3789.44092,0.13376
3791.36938,0.12913
3793.29785,0.12549
3795.22632,0.13112
3797.15479,0.14436
3799.08326,0.15915
3801.01173,0.16337
3802.94020,0.14669
3804.86866,0.13461
3806.79713,0.13177
3808.72560,0.13052
3810.65407,0.13237
3812.58254,0.13693
3814.51101,0.14434
3816.43948,0.15431
3818.36795,0.16268
3820.29641,0.16557
3822.22488,0.15388
3824.15335,0.14229
3826.08182,0.13989
3828.01029,0.14060
3829.93876,0.14191
3831.86723,0.13926
3833.79569,0.13162
3835.72416,0.12986
3837.65263,0.14098
3839.58110,0.15128
3841.50957,0.14694
3843.43804,0.13751
3845.36651,0.13100
3847.29498,0.12797
3849.22344,0.13074
3851.15191,0.14447
3853.08038,0.15812
3855.00885,0.14363
3856.93732,0.12865
3858.86579,0.12271
3860.79426,0.12359
3862.72272,0.12963
3864.65119,0.13281
3866.57966,0.13534
3868.50813,0.13957
3870.43660,0.13938
3872.36507,0.14024
3874.29354,0.13677
3876.22200,0.12250
3878.15047,0.11881
3880.07894,0.12743
3882.00741,0.12296
3883.93588,0.11482
3885.86435,0.12172
3887.79282,0.12912
3889.72129,0.13022
3891.64975,0.12790
3893.57822,0.11845
3895.50669,0.11100
3897.43516,0.11141
3899.36363,0.11802
3901.29210,0.12833
3903.22057,0.13473
3905.14903,0.13052
3907.07750,0.12115
3909.00597,0.11542
3910.93444,0.11480
3912.86291,0.11690
3914.79138,0.11737
3916.71985,0.11555
3918.64832,0.11818
3920.57678,0.12078
3922.50525,0.11746
3924.43372,0.11343
3926.36219,0.11105
3928.29066,0.11107
3930.21913,0.11528
3932.14760,0.11968
3934.07606,0.12113
3936.00453,0.12240
3937.93300,0.12061
3939.86147,0.11625
3941.78994,0.11120
3943.71841,0.10197
3945.64688,0.09722
3947.57535,0.10165
3949.50381,0.10773
3951.43228,0.11146
3953.36075,0.11195
3955.28922,0.11137
3957.21769,0.11703
3959.14616,0.12726
3961.07463,0.12965
3963.00309,0.12374
3964.93156,0.11508
3966.86003,0.10398
3968.78850,0.09815
3970.71697,0.10149
3972.64544,0.10442
3974.57391,0.10307
3976.50238,0.10352
3978.43084,0.10625
3980.35931,0.10875
3982.28778,0.11158
3984.21625,0.11058
3986.14472,0.10628
3988.07319,0.10609
3990.00166,0.10845
3991.93012,0.10844
3993.85859,0.10426
3995.78706,0.09771
3997.71553,0.09632
3999.64400,0.10088
4001.57247,0.10336
4003.50094,0.10149
4005.42941,0.10060
4007.35787,0.10200
4009.28634,0.10300
4011.21481,0.10320
4013.14328,0.10205
4015.07175,0.10052
4017.00022,0.10096
4018.92869,0.09915
4020.85715,0.09126
4022.78562,0.08667
4024.71409,0.09050
4026.64256,0.09240
4028.57103,0.08817
4030.49950,0.08208
4032.42797,0.07810
4034.35644,0.08204
4036.28490,0.09380
4038.21337,0.10480
4040.14184,0.10619
4042.07031,0.09819
4043.99878,0.08997
4045.92725,0.08710
4047.85572,0.08860
4049.78418,0.08935
4051.71265,0.08436
4053.64112,0.07785
4055.56959,0.07618
4057.49806,0.08056
4059.42653,0.08730
4061.35500,0.08991
4063.28346,0.08672
4065.21193,0.08090
4067.14040,0.07822
4069.06887,0.08117
4070.99734,0.08622
4072.92581,0.08756
4074.85428,0.08497
4076.78275,0.08719
4078.71121,0.09037
4080.63968,0.08453
4082.56815,0.07640
4084.49662,0.07326
4086.42509,0.07231
4088.35356,0.07108
4090.28203,0.07458
4092.21049,0.08544
4094.13896,0.09365
4096.06743,0.09328
4097.99590,0.09313
4099.92437,0.09625
4101.85284,0.09489
4103.78131,0.08705
4105.70978,0.07946
4107.63824,0.07936
4109.56671,0.08264
4111.49518,0.08144
4113.42365,0.07871
4115.35212,0.07887
4117.28059,0.08259
4119.20906,0.08674
4121.13752,0.08644
4123.06599,0.08499
4124.99446,0.08586
4126.92293,0.08460
4128.85140,0.08114
4130.77987,0.08031
4132.70834,0.07915
4134.63681,0.07484
4136.56527,0.07373
4138.49374,0.07885
4140.42221,0.08501
4142.35068,0.08740
4144.27915,0.08462
4146.20762,0.07946
4148.13609,0.07612
4150.06455,0.07633
4151.99302,0.08178
4153.92149,0.08885
4155.84996,0.09184
4157.77843,0.08911
4159.70690,0.08273
4161.63537,0.08067
4163.56384,0.08034
4165.49230,0.07207
4167.42077,0.05955
4169.34924,0.05297
4171.27771,0.05796
4173.20618,0.07217
4175.13465,0.08579
4177.06312,0.08854
4178.99158,0.08034
4180.92005,0.06891
4182.84852,0.06218
4184.77699,0.06322
4186.70546,0.06746
4188.63393,0.06805
4190.56240,0.05998
4192.49087,0.05133
4194.41933,0.05611
4196.34780,0.07129
4198.27627,0.07876
4200.20474,0.07178
4202.13321,0.06758
4204.06168,0.07203
4205.99015,0.07301
4207.91861,0.07017
4209.84708,0.06902
4211.77555,0.06845
4213.70402,0.06688
4215.63249,0.06573
4217.56096,0.06638
4219.48943,0.06768
4221.41789,0.06440
4223.34636,0.05641
4225.27483,0.05133
4227.20330,0.04852
4229.13177,0.04916
4231.06024,0.05914
4232.98871,0.06630
4234.91718,0.06171
4236.84564,0.05823
4238.77411,0.06114
4240.70258,0.06419
4242.63105,0.06702
4244.55952,0.06919
4246.48799,0.06465
4248.41646,0.05402
4250.34492,0.04758
4252.27339,0.04572
4254.20186,0.04492
4256.13033,0.05053
4258.05880,0.05930
4259.98727,0.06381
4261.91574,0.06100
4263.84421,0.05331
4265.77267,0.05001
4267.70114,0.05189
4269.62961,0.05532
4271.55808,0.05707
4273.48655,0.05310
4275.41502,0.04655
4277.34349,0.04209
4279.27195,0.04216
4281.20042,0.04548
4283.12889,0.04696
4285.05736,0.04575
4286.98583,0.04508
4288.91430,0.04265
4290.84277,0.03576
4292.77124,0.03178
4294.69970,0.03452
4296.62817,0.03647
4298.55664,0.03363
4300.48511,0.03206
4302.41358,0.03727
4304.34205,0.04522
4306.27052,0.04722
4308.19898,0.04342
4310.12745,0.04203
4312.05592,0.04446
4313.98439,0.04371
4315.91286,0.03530
4317.84133,0.02878
4319.76980,0.03596
4321.69827,0.04867
4323.62673,0.05164
4325.55520,0.04189
4327.48367,0.02959
4329.41214,0.02595
4331.34061,0.02796
4333.26908,0.03048
4335.19755,0.03470
4337.12601,0.03604
4339.05448,0.03565
4340.98295,0.04069
4342.91142,0.04405
4344.83989,0.04109
4346.76836,0.04196
4348.69683,0.04282
4350.62530,0.03404
4352.55376,0.02463
4354.48223,0.02254
4356.41070,0.02666
4358.33917,0.03284
4360.26764,0.03491
4362.19611,0.03152
4364.12458,0.02778
4366.05304,0.02675
4367.98151,0.02414
4369.90998,0.02027
4371.83845,0.01993
4373.76692,0.02423
4375.69539,0.03111
4377.62386,0.03817
4379.55232,0.04208
4381.48079,0.04008
4383.40926,0.03671
4385.33773,0.03599
4387.26620,0.03823
4389.19467,0.03995
4391.12314,0.03545
4393.05161,0.02617
4394.98007,0.01755
4396.90854,0.01307
4398.83701,0.01163
4400.76548,0.01008
4402.69395,0.00742
4404.62242,0.00514
4406.55089,0.00149
4408.47935,0.00027
4410.40782,0.00970
4412.33629,0.01993
4414.26476,0.02340
4416.19323,0.02778
4418.12170,0.03019
4420.05017,0.02473
4421.97864,0.01952
4423.90710,0.02118
4425.83557,0.02496
4427.76404,0.02274
4429.69251,0.01319
4431.62098,0.00455
4433.54945,0.00101
4435.47792,0.00006
4437.40638,0.00181
4439.33485,0.00691
4441.26332,0.01026
4443.19179,0.00757
4445.12026,0.00262
4447.04873,0.00261
4448.97720,0.00951
4450.90567,0.01640
4452.83413,0.01609
4454.76260,0.00830
4456.69107,0.00312
4458.61954,0.00774
4460.54801,0.01341
4462.47648,0.01646
4464.40495,0.01916
4466.33341,0.01942
4468.26188,0.01712
4470.19035,0.01072
4472.11882,0.00100
4474.04729,-0.00115
4475.97576,0.00737
4477.90423,0.01219
4479.83270,0.01011
4481.76116,0.00991
4483.68963,0.00879
4485.61810,0.00060
4487.54657,-0.00559
4489.47504,0.00036
4491.40351,0.00959
4493.33198,0.01362
4495.26044,0.01686
4497.18891,0.02251
4499.11738,0.02801
4501.04585,0.02835
4502.97432,0.02189
4504.90279,0.01363
4506.83126,0.01083
4508.75973,0.01036
4510.68819,0.00606
4512.61666,0.00724
4514.54513,0.01229
4516.47360,0.00840
4518.40207,0.00495
4520.33054,0.00376
4522.25901,-0.00476
4524.18747,-0.00833
4526.11594,0.00143
4528.04441,0.01234
4529.97288,0.01265
4531.90135,0.00484
4533.82982,0.00140
4535.75829,0.00877
4537.68676,0.01992
4539.61522,0.02278
4541.54369,0.01627
4543.47216,0.00904
4545.40063,0.00423
4547.32910,-0.00188
4549.25757,-0.00677
4551.18604,-0.00477
4553.11450,0.00089
4555.04297,0.00485
4556.97144,0.00236
4558.89991,-0.00593
4560.82838,-0.00145
4562.75685,0.02129
4564.68532,0.03344
4566.61378,0.02186
4568.54225,0.00803
4570.47072,0.00926
4572.39919,0.01863
4574.32766,0.01939
4576.25613,0.01522
4578.18460,0.01679
4580.11307,0.01990
4582.04153,0.01827
4583.97000,0.01363
4585.89847,0.01242
4587.82694,0.01394
4589.75541,0.01210
4591.68388,0.00773
4593.61235,0.00897
4595.54081,0.01867
4597.46928,0.02720
4599.39775,0.02539
4601.32622,0.01351
4603.25469,0.00098
4605.18316,0.00100
4607.11163,0.00861
4609.04010,0.00991
4610.96856,0.00683
4612.89703,0.00337
4614.82550,-0.00016
4616.75397,-0.00055
4618.68244,0.00871
4620.61091,0.02259
4622.53938,0.01967
4624.46784,-0.00180
4626.39631,-0.01923
4628.32478,-0.01759
4630.25325,-0.00452
4632.18172,0.00549
4634.11019,0.00924
4636.03866,0.00973
4637.96713,0.01470
4639.89559,0.02623
4641.82406,0.02767
4643.75253,0.01547
4645.68100,0.00882
4647.60947,0.01036
4649.53794,0.01129
4651.46641,0.01592
4653.39487,0.02405
4655.32334,0.02549
4657.25181,0.02147
4659.18028,0.02000
4661.10875,0.02077
4663.03722,0.02631
4664.96569,0.02870
4666.89416,0.01903
4668.82262,0.01500
4670.75109,0.01867
4672.67956,0.01360
4674.60803,0.00474
4676.53650,0.00132
4678.46497,0.00317
4680.39344,0.01027
4682.32190,0.01664
4684.25037,0.01459
4686.17884,0.00815
4688.10731,0.00360
4690.03578,0.00126
4691.96425,0.00258
4693.89272,0.00512
4695.82119,0.00270
4697.74965,-0.00438
4699.67812,0.00268
4701.60659,0.02127
4703.53506,0.03039
4705.46353,0.02739
4707.39200,0.01977
4709.32047,0.01742
4711.24893,0.02069
4713.17740,0.01971
4715.10587,0.01606
4717.03434,0.01585
4718.96281,0.01734
4720.89128,0.01559
4722.81975,0.00748
4724.74821,-0.00040
4726.67668,-0.00061
4728.60515,0.00131
4730.53362,-0.00196
4732.46209,-0.00605
4734.39056,-0.00398
4736.31903,0.00311
4738.24750,0.00658
4740.17596,0.00469
4742.10443,0.00795
4744.03290,0.01664
4745.96137,0.01884
4747.88984,0.01637
4749.81831,0.01877
4751.74678,0.01757
4753.67524,0.00435
4755.60371,-0.00862
4757.53218,-0.00554
4759.46065,0.00451
4761.38912,0.00399
4763.31759,0.00241
4765.24606,0.01260
4767.17453,0.02396
4769.10299,0.02349
4771.03146,0.01356
4772.95993,0.01121
4774.88840,0.01259
4776.81687,-0.00033
4778.74534,-0.01151
4780.67381,-0.00234
4782.60227,0.00689
4784.53074,0.00058
4786.45921,-0.00062
4788.38768,0.01232
4790.31615,0.02082
4792.24462,0.01956
4794.17309,0.01555
4796.10156,0.01191
4798.03002,0.00277
4799.95849,-0.01432
4801.88696,-0.01603
4803.81543,0.01029
4805.74390,0.03790
4807.67237,0.04432
4809.60084,0.03675
4811.52930,0.02866
4813.45777,0.01798
4815.38624,-0.00237
4817.31471,-0.01769
4819.24318,-0.01241
4821.17165,-0.00635
4823.10012,-0.01952
4825.02859,-0.03331
4826.95705,-0.02090
4828.88552,0.00614
4830.81399,0.01477
4832.74246,0.00403
4834.67093,0.00361
4836.59940,0.01954
4838.52787,0.02681
4840.45633,0.01996
4842.38480,0.01135
4844.31327,0.00332
4846.24174,-0.00211
4848.17021,0.00146
4850.09868,0.01215
4852.02715,0.02324
4853.95562,0.03064
4855.88408,0.02794
4857.81255,0.01929
4859.74102,0.01248
4861.66949,0.01049
4863.59796,0.01618
4865.52643,0.01651
4867.45490,0.00765
4869.38336,0.00575
4871.31183,0.01286
4873.24030,0.02116
4875.16877,0.02339
4877.09724,0.01207
4879.02571,0.00007
4880.95418,0.00706
4882.88265,0.01956
4884.81111,0.01442
4886.73958,-0.00154
4888.66805,-0.01053
4890.59652,-0.01207
4892.52499,-0.00840
4894.45346,0.00720
4896.38193,0.02311
4898.31039,0.02309
4900.23886,0.01780
4902.16733,0.01135
4904.09580,-0.00359
4906.02427,-0.01025
4907.95274,-0.00294
4909.88121,-0.00402
4911.80967,-0.01020
4913.73814,-0.00865
4915.66661,-0.00734
4917.59508,-0.00313
4919.52355,0.01347
4921.45202,0.03440
4923.38049,0.04471
4925.30896,0.04070
4927.23742,0.03184
4929.16589,0.01864
4931.09436,0.00134
4933.02283,-0.00710
4934.95130,-0.00042
4936.87977,0.00766
4938.80824,-0.00271
4940.73670,-0.01741
4942.66517,-0.01533
4944.59364,-0.00016
4946.52211,0.01779
4948.45058,0.02983
4950.37905,0.03830
4952.30752,0.04058
4954.23599,0.03104
4956.16445,0.02357
4958.09292,0.03103
4960.02139,0.04563
4961.94986,0.05367
4963.87833,0.04998
4965.80680,0.03629
4967.73527,0.02843
4969.66373,0.02674
4971.59220,0.01301
4973.52067,-0.00456
4975.44914,-0.01392
4977.37761,-0.01039
4979.30608,0.01116
4981.23455,0.02712
4983.16302,0.01691
4985.09148,0.00480
4987.01995,0.00634
4988.94842,0.01653
4990.87689,0.03298
4992.80536,0.03403
4994.73383,0.01950
4996.66230,0.01420
4998.59076,0.00887
5000.51923,-0.00292
5002.44770,-0.00446
5004.37617,0.01195
5006.30464,0.02441
5008.23311,0.01150
5010.16158,-0.00497
5012.09005,-0.00359
5014.01851,0.00521
5015.94698,0.00612
5017.87545,-0.00381
5019.80392,-0.00895
5021.73239,0.00024
5023.66086,0.00853
5025.58933,0.00235
5027.51779,-0.01199
5029.44626,-0.02295
5031.37473,-0.02547
5033.30320,-0.01703
5035.23167,-0.00544
5037.16014,-0.00235
5039.08861,-0.01490
5041.01708,-0.03537
5042.94554,-0.04173
5044.87401,-0.02653
5046.80248,-0.00680
5048.73095,0.00739
5050.65942,0.01087
5052.58789,0.00432
5054.51636,0.00348
5056.44482,0.00248
5058.37329,-0.00861
5060.30176,-0.00761
5062.23023,0.01253
5064.15870,0.03054
5066.08717,0.03497
5068.01564,0.02549
5069.94410,0.01299
5071.87257,0.00799
5073.80104,0.00948
5075.72951,0.01378
5077.65798,0.00629
5079.58645,-0.00947
5081.51492,-0.01060
5083.44339,0.00174
5085.37185,0.01105
5087.30032,0.00697
5089.22879,-0.00358
5091.15726,-0.00450
5093.08573,0.00774
5095.01420,0.01560
5096.94267,0.00884
5098.87113,0.00877
5100.79960,0.02134
5102.72807,0.02076
5104.65654,0.00812
5106.58501,0.00851
5108.51348,0.02232
5110.44195,0.03861
5112.37042,0.04952
5114.29888,0.04349
5116.22735,0.02371
5118.15582,0.01152
5120.08429,0.02583
5122.01276,0.04788
5123.94123,0.04928
5125.86970,0.03749
5127.79816,0.02201
5129.72663,0.00852
5131.65510,0.01046
5133.58357,0.02488
5135.51204,0.03919
5137.44051,0.04605
5139.36898,0.03919
5141.29745,0.01855
5143.22591,-0.01145
5145.15438,-0.04014
5147.08285,-0.03867
5149.01132,-0.00203
5150.93979,0.03206
5152.86826,0.04567
5154.79673,0.04154
5156.72519,0.01854
5158.65366,0.00629
5160.58213,0.02249
5162.51060,0.03507
5164.43907,0.02677
5166.36754,0.01039
5168.29601,-0.00301
5170.22448,-0.00065
5172.15294,0.01364
5174.08141,0.02318
5176.00988,0.03198
5177.93835,0.04042
5179.86682,0.03808
5181.79529,0.02974
5183.72376,0.02542
5185.65222,0.02111
5187.58069,0.01379
5189.50916,0.01337
5191.43763,0.01898
5193.36610,0.01635
5195.29457,0.00520
5197.22304,0.00313
5199.15151,0.01328
5201.07997,0.01872
5203.00844,0.02540
5204.93691,0.05054
5206.86538,0.07212
5208.79385,0.05759
5210.72232,0.03798
5212.65079,0.03843
5214.57925,0.03996
5216.50772,0.03561
5218.43619,0.03248
5220.36466,0.03978
5222.29313,0.06379
5224.22160,0.08493
5226.15007,0.08657
5228.07854,0.06995
5230.00700,0.04031
5231.93547,0.02314
5233.86394,0.03472
5235.79241,0.05124
5237.72088,0.05149
5239.64935,0.04175
5241.57782,0.03806
5243.50628,0.03868
5245.43475,0.03773
5247.36322,0.03578
5249.29169,0.03122
5251.22016,0.03963
5253.14863,0.05758
5255.07710,0.05578
5257.00556,0.03088
5258.93403,0.00549
5260.86250,0.00910
5262.79097,0.04349
5264.71944,0.06959
5266.64791,0.07432
5268.57638,0.07557
5270.50485,0.07109
5272.43331,0.05194
5274.36178,0.03248
5276.29025,0.02594
5278.21872,0.02203
5280.14719,0.01991
5282.07566,0.02859
5284.00413,0.02934
5285.93259,0.01237
5287.86106,-0.00060
5289.78953,-0.01231
5291.71800,-0.02651
5293.64647,-0.01766
5295.57494,0.00958
5297.50341,0.02418
5299.43188,0.01562
5301.36034,-0.00304
5303.28881,-0.01052
5305.21728,0.01533
5307.14575,0.05827
5309.07422,0.07584
5311.00269,0.07867
5312.93116,0.09798
5314.85962,0.11565
5316.78809,0.10102
5318.71656,0.06848
5320.64503,0.04118
5322.57350,0.02406
5324.50197,0.02815
5326.43044,0.03941
5328.35891,0.03392
5330.28737,0.03032
5332.21584,0.04155
5334.14431,0.05092
5336.07278,0.05636
5338.00125,0.05641
5339.92972,0.03594
5341.85819,0.01256
5343.78665,-0.00467
5345.71512,-0.00908
5347.64359,0.02047
5349.57206,0.04972
5351.50053,0.04595
5353.42900,0.03545
5355.35747,0.04604
5357.28594,0.06368
5359.21440,0.07179
5361.14287,0.07826
5363.07134,0.09174
5364.99981,0.09139
5366.92828,0.07003
5368.85675,0.04930
5370.78522,0.03501
5372.71368,0.02870
5374.64215,0.04144
5376.57062,0.05790
5378.49909,0.05521
5380.42756,0.04205
5382.35603,0.02247
5384.28450,0.01905
5386.21297,0.04999
5388.14143,0.06943
5390.06990,0.07232
5391.99837,0.07748
5393.92684,0.06707
5395.85531,0.04747
5397.78378,0.03696
5399.71225,0.02426
5401.64071,0.00744
5403.56918,0.00881
5405.49765,0.02455
5407.42612,0.03654
5409.35459,0.04741
5411.28306,0.04291
5413.21153,0.02376
5415.13999,0.01851
5417.06846,0.02839
5418.99693,0.03637
5420.92540,0.03574
5422.85387,0.04145
5424.78234,0.05003
5426.71081,0.04326
5428.63928,0.02488
5430.56774,0.01133
5432.49621,0.01656
5434.42468,0.04880
5436.35315,0.08160
5438.28162,0.08179
5440.21009,0.08033
5442.13856,0.10878
5444.06702,0.12533
5445.99549,0.10340
5447.92396,0.08535
5449.85243,0.07916
5451.78090,0.05111
5453.70937,0.02141
5455.63784,0.01366
5457.56631,0.01312
5459.49477,0.02188
5461.42324,0.04586
5463.35171,0.07442
5465.28018,0.09678
5467.20865,0.09316
5469.13712,0.07544
5471.06559,0.06843
5472.99405,0.05238
5474.92252,0.02029
5476.85099,0.01212
5478.77946,0.03381
5480.70793,0.04323
5482.63640,0.03986
5484.56487,0.06173
5486.49334,0.09561
5488.42180,0.10862
5490.35027,0.11461
5492.27874,0.10258
5494.20721,0.05461
5496.13568,0.01551
5498.06415,0.00086
5499.99262,0.00466
5501.92108,0.02833
5503.84955,0.04622
5505.77802,0.04681
5507.70649,0.05001
5509.63496,0.05456
5511.56343,0.06084
5513.49190,0.07186
5515.42037,0.07358
5517.34883,0.09283
5519.27730,0.11562
5521.20577,0.08757
5523.13424,0.05392
5525.06271,0.06580
5526.99118,0.09072
5528.91965,0.09746
5530.84811,0.09102
5532.77658,0.08895
5534.70505,0.07443
5536.63352,0.03204
5538.56199,0.01656
5540.49046,0.06708
5542.41893,0.12937
5544.34740,0.14002
5546.27586,0.11633
5548.20433,0.09821
5550.13280,0.07245
5552.06127,0.04539
5553.98974,0.05970
5555.91821,0.08378
5557.84668,0.06826
5559.77514,0.03773
5561.70361,0.01568
5563.63208,0.02019
5565.56055,0.05986
5567.48902,0.08363
5569.41749,0.06844
5571.34596,0.05819
5573.27443,0.07173
5575.20289,0.07797
5577.13136,0.06094
5579.05983,0.04821
5580.98830,0.05504
5582.91677,0.05440
5584.84524,0.04181
5586.77371,0.05211
5588.70217,0.07234
5590.63064,0.06577
5592.55911,0.05505
5594.48758,0.05240
5596.41605,0.04673
5598.34452,0.05673
5600.27299,0.06767
5602.20145,0.05604
5604.12992,0.05606
5606.05839,0.07331
5607.98686,0.07626
5609.91533,0.06644
5611.84380,0.07290
5613.77227,0.09202
5615.70074,0.08061
5617.62920,0.05270
5619.55767,0.05549
5621.48614,0.07025
5623.41461,0.06159
5625.34308,0.05292
5627.27155,0.09162
5629.20002,0.14842
5631.12848,0.14993
5633.05695,0.10131
5634.98542,0.06234
5636.91389,0.06593
5638.84236,0.08011
5640.77083,0.07541
5642.69930,0.07975
5644.62777,0.10578
5646.55623,0.12444
5648.48470,0.10872
5650.41317,0.05934
5652.34164,0.01541
5654.27011,0.01179
5656.19858,0.03000
5658.12705,0.04426
5660.05551,0.06015
5661.98398,0.08191
5663.91245,0.10353
5665.84092,0.10706
5667.76939,0.09696
5669.69786,0.11260
5671.62633,0.14094
5673.55480,0.12895
5675.48326,0.07061
5677.41173,0.03065
5679.34020,0.04889
5681.26867,0.06332
5683.19714,0.05435
5685.12561,0.06320
5687.05408,0.08178
5688.98254,0.08748
5690.91101,0.06884
5692.83948,0.03160
5694.76795,-0.00477
5696.69642,-0.03809
5698.62489,-0.03057
5700.55336,0.03577
5702.48183,0.09147
5704.41029,0.10088
5706.33876,0.08717
5708.26723,0.07535
5710.19570,0.07624
5712.12417,0.08123
5714.05264,0.06552
5715.98111,0.03334
5717.90957,0.03276
5719.83804,0.05613
5721.76651,0.06062
5723.69498,0.05651
5725.62345,0.07900
5727.55192,0.12295
5729.48039,0.13547
5731.40886,0.11796
5733.33732,0.08700
5735.26579,0.02505
5737.19426,-0.02718
5739.12273,-0.02103
5741.05120,0.03833
5742.97967,0.09955
5744.90814,0.10645
5746.83660,0.09995
5748.76507,0.12282
5750.69354,0.12619
5752.62201,0.10973
5754.55048,0.11447
5756.47895,0.11295
5758.40742,0.09138
5760.33588,0.08873
5762.26435,0.11020
5764.19282,0.10177
5766.12129,0.04986
5768.04976,0.01840
5769.97823,0.04893
5771.90670,0.09069
5773.83517,0.09594
5775.76363,0.09246
5777.69210,0.08741
5779.62057,0.07543
5781.54904,0.07330
5783.47751,0.06152
5785.40598,0.02517
5787.33445,0.00304
5789.26291,0.01043
5791.19138,0.03133
5793.11985,0.06723
5795.04832,0.08373
5796.97679,0.04292
5798.90526,-0.00148
5800.83373,-0.00083
5802.76220,0.00843
5804.69066,0.01528
5806.61913,0.04722
5808.54760,0.06642
5810.47607,0.04448
5812.40454,0.02616
5814.33301,0.02851
5816.26148,0.02188
5818.18994,0.02794
5820.11841,0.06944
5822.04688,0.08821
5823.97535,0.07119
5825.90382,0.07292
5827.83229,0.08255
5829.76076,0.07460
5831.68923,0.06581
5833.61769,0.04633
5835.54616,0.03402
5837.47463,0.05965
5839.40310,0.07342
5841.33157,0.04901
5843.26004,0.03860
5845.18851,0.06136
5847.11697,0.06876
5849.04544,0.05874
5850.97391,0.07765
5852.90238,0.09124
5854.83085,0.07225
5856.75932,0.05501
5858.68779,0.04955
5860.61626,0.04992
5862.54472,0.06265
5864.47319,0.08496
5866.40166,0.09207
5868.33013,0.07654
5870.25860,0.07022
5872.18707,0.08394
5874.11554,0.09454
5876.04400,0.08455
5877.97247,0.06255
5879.90094,0.07207
5881.82941,0.13126
5883.75788,0.16624
5885.68635,0.11099
5887.61482,0.03421
5889.54329,0.04030
5891.47175,0.09071
5893.40022,0.10770
5895.32869,0.09610
5897.25716,0.08257
5899.18563,0.09353
5901.11410,0.12968
5903.04257,0.15877
5904.97103,0.15116
5906.89950,0.10511
5908.82797,0.07902
5910.75644,0.10104
5912.68491,0.09689
5914.61338,0.05225
5916.54185,0.03981
5918.47032,0.07925
5920.39878,0.12720
5922.32725,0.12732
5924.25572,0.10588
5926.18419,0.12828
5928.11266,0.14393
5930.04113,0.12084
5931.96960,0.12179
5933.89806,0.16404
5935.82653,0.20464
5937.75500,0.20827
5939.68347,0.17889
5941.61194,0.13043
5943.54041,0.08483
5945.46888,0.07196
5947.39734,0.08246
5949.32581,0.06771
5951.25428,0.00994
5953.18275,-0.04588
5955.11122,-0.05531
5957.03969,-0.02477
5958.96816,0.01638
5960.89663,0.05617
5962.82509,0.07600
5964.75356,0.07124
5966.68203,0.08233
5968.61050,0.12442
5970.53897,0.15722
5972.46744,0.15033
5974.39591,0.10401
5976.32437,0.05721
5978.25284,0.05880
5980.18131,0.09906
5982.10978,0.13853
5984.03825,0.14934
5985.96672,0.12355
5987.89519,0.08040
5989.82366,0.02851
5991.75212,-0.03037
5993.68059,-0.06529
5995.60906,-0.03538
5997.53753,0.03041
5999.46600,0.05943
6001.39447,0.04458
6003.32294,0.03434
6005.25140,0.07181
6007.17987,0.13496
6009.10834,0.16457
6011.03681,0.15599
6012.96528,0.14007
6014.89375,0.11314
6016.82222,0.05877
6018.75069,-0.01087
6020.67915,-0.05392
6022.60762,-0.03338
6024.53609,0.03594
6026.46456,0.09048
6028.39303,0.10398
6030.32150,0.10911
6032.24997,0.08999
6034.17843,0.01990
6036.10690,-0.03273
6038.03537,-0.02833
6039.96384,-0.01175
6041.89231,-0.00355
6043.82078,-0.00093
6045.74925,0.01819
6047.67772,0.04131
6049.60618,0.00489
6051.53465,-0.03752
6053.46312,-0.00552
6055.39159,0.04055
6057.32006,0.04748
6059.24853,0.04924
6061.17700,0.05108
6063.10546,0.03424
6065.03393,0.02186
6066.96240,0.03987
6068.89087,0.08647
6070.81934,0.14562
6072.74781,0.19108
6074.67628,0.20594
6076.60475,0.19601
6078.53321,0.16397
6080.46168,0.12521
6082.39015,0.11763
6084.31862,0.13340
6086.24709,0.13058
6088.17556,0.10284
6090.10403,0.06466
6092.03249,0.01321
6093.96096,-0.00586
6095.88943,0.03467
6097.81790,0.06088
6099.74637,0.05604
6101.67484,0.05584
6103.60331,0.05068
6105.53177,0.04278
6107.46024,0.04759
6109.38871,0.05041
6111.31718,0.03171
6113.24565,0.00221
6115.17412,0.00116
6117.10259,0.06110
6119.03106,0.12559
6120.95952,0.11389
6122.88799,0.05082
6124.81646,0.00341
6126.74493,0.01864
6128.67340,0.05326
6130.60187,0.05034
6132.53034,0.04601
6134.45880,0.06852
6136.38727,0.09447
6138.31574,0.07547
6140.24421,0.01340
6142.17268,-0.02419
6144.10115,-0.02628
6146.02962,-0.00685
6147.95809,0.04380
6149.88655,0.09087
6151.81502,0.09080
6153.74349,0.06071
6155.67196,0.04166
6157.60043,0.03677
6159.52890,0.04324
6161.45737,0.03298
6163.38583,-0.02115
6165.31430,-0.04788
6167.24277,0.00430
6169.17124,0.06322
6171.09971,0.06151
6173.02818,0.04959
6174.95665,0.06344
6176.88512,0.07507
6178.81358,0.07522
6180.74205,0.01989
6182.67052,-0.03324
6184.59899,0.02664
6186.52746,0.10747
6188.45593,0.10971
6190.38440,0.12690
6192.31286,0.16270
6194.24133,0.12709
6196.16980,0.04890
6198.09827,0.00116
6200.02674,0.02700
6201.95521,0.10244
6203.88368,0.14968
6205.81215,0.17626
6207.74061,0.22661
6209.66908,0.23263
6211.59755,0.15235
6213.52602,0.10317
6215.45449,0.14287
6217.38296,0.17697
6219.31143,0.14845
6221.23989,0.11913
6223.16836,0.10593
6225.09683,0.05611
6227.02530,-0.01039
6228.95377,-0.00721
6230.88224,0.05219
6232.81071,0.06610
6234.73918,0.02664
6236.66764,0.01205
6238.59611,0.04582
6240.52458,0.07425
6242.45305,0.05468
6244.38152,-0.00641
6246.30999,-0.07573
6248.23846,-0.08120
6250.16692,-0.01734
6252.09539,0.03746
6254.02386,0.07132
6255.95233,0.09313
6257.88080,0.07685
6259.80927,0.05445
6261.73774,0.07133
6263.66621,0.10851
6265.59467,0.10345
6267.52314,0.04155
6269.45161,0.00982
6271.38008,0.05325
6273.30855,0.11465
6275.23702,0.09368
6277.16549,0.02117
6279.09395,0.03416
6281.02242,0.08929
6282.95089,0.08481
6284.87936,0.04801
6286.80783,0.01940
6288.73630,0.02580
6290.66477,0.04958
6292.59323,0.03470
6294.52170,0.02079
6296.45017,0.04315
6298.37864,0.08637
6300.30711,0.15255
6302.23558,0.20428
6304.16405,0.18093
6306.09252,0.11257
6308.02098,0.05981
6309.94945,0.04969
6311.87792,0.08984
6313.80639,0.14129
6315.73486,0.17140
6317.66333,0.17001
6319.59180,0.13056
6321.52026,0.10772
6323.44873,0.10820
6325.37720,0.07333
6327.30567,0.06010
6329.23414,0.13453
6331.16261,0.18226
6333.09108,0.12612
6335.01955,0.04543
6336.94801,-0.00671
6338.87648,0.00546
6340.80495,0.09685
6342.73342,0.18190
6344.66189,0.17400
6346.59036,0.12951
6348.51883,0.16526
6350.44729,0.25039
6352.37576,0.26343
6354.30423,0.16832
6356.23270,0.04625
6358.16117,-0.01846
6360.08964,-0.01357
6362.01811,0.03856
6363.94658,0.12587
6365.87504,0.19425
6367.80351,0.14562
6369.73198,0.03911
6371.66045,0.03690
6373.58892,0.11395
6375.51739,0.13268
6377.44586,0.10467
6379.37432,0.06734
6381.30279,0.00402
6383.23126,-0.02516
6385.15973,0.01819
6387.08820,0.03519
6389.01667,0.00318
6390.94514,-0.01558
6392.87361,0.00707
6394.80207,0.03158
6396.73054,0.02506
6398.65901,0.00563
6400.58748,0.02547
6402.51595,0.07591
6404.44442,0.06965
6406.37289,0.03226
6408.30135,0.03768
6410.22982,0.05472
6412.15829,0.02116
6414.08676,-0.04704
6416.01523,-0.05262
6417.94370,-0.00565
6419.87217,0.00585
6421.80064,0.02537
6423.72910,0.05876
6425.65757,0.05858
6427.58604,0.05326
6429.51451,0.05448
6431.44298,0.05238
6433.37145,0.05151
6435.29992,0.02971
6437.22838,-0.00112
6439.15685,0.00044
6441.08532,0.04440
6443.01379,0.12152
6444.94226,0.15182
6446.87073,0.09991
6448.79920,0.05781
6450.72766,0.06525
6452.65613,0.06810
6454.58460,0.03920
6456.51307,0.01320
6458.44154,0.01696
6460.37001,0.00875
6462.29848,-0.01584
6464.22695,0.00039
6466.15541,0.06116
6468.08388,0.12742
6470.01235,0.15255
6471.94082,0.11966
6473.86929,0.08225
6475.79776,0.06652
6477.72623,0.05863
6479.65469,0.07231
6481.58316,0.11202
6483.51163,0.12297
6485.44010,0.07595
6487.36857,0.00806
6489.29704,-0.03168
6491.22551,-0.00342
6493.15398,0.05817
6495.08244,0.05394
6497.01091,0.02678
6498.93938,0.08589
6500.86785,0.16781
6502.79632,0.13646
6504.72479,0.04500
6506.65326,-0.01549
6508.58172,-0.00721
6510.51019,0.08351
6512.43866,0.16378
6514.36713,0.14335
6516.29560,0.06584
6518.22407,0.00985
6520.15254,-0.01372
6522.08101,-0.00550
6524.00947,0.06600
6525.93794,0.15751
6527.86641,0.21673
6529.79488,0.27218
6531.72335,0.32552
6533.65182,0.31686
6535.58029,0.23634
6537.50875,0.19225
6539.43722,0.20569
6541.36569,0.18898
6543.29416,0.16040
6545.22263,0.13782
6547.15110,0.08142
6549.07957,0.00736
6551.00804,-0.02571
6552.93650,0.04378
6554.86497,0.15909
6556.79344,0.17028
6558.72191,0.11984
6560.65038,0.13424
6562.57885,0.15458
6564.50732,0.07906
6566.43578,-0.03194
6568.36425,-0.03539
6570.29272,0.05277
6572.22119,0.09314
6574.14966,0.05431
6576.07813,0.01709
6578.00660,0.00372
6579.93507,0.00546
6581.86353,-0.00590
6583.79200,-0.06687
6585.72047,-0.09133
6587.64894,-0.06662
6589.57741,-0.08324
6591.50588,-0.08417
6593.43435,0.02665
6595.36281,0.12822
6597.29128,0.10423
6599.21975,0.05500
6601.14822,0.02787
6603.07669,0.03643
6605.00516,0.11068
6606.93363,0.15914
6608.86210,0.11277
6610.79056,0.03623
6612.71903,0.03694
6614.64750,0.15913
6616.57597,0.26823
6618.50444,0.19329
6620.43291,0.07062
6622.36138,0.11862
6624.28984,0.24026
6626.21831,0.25955
6628.14678,0.21340
6630.07525,0.14580
6632.00372,0.09668
6633.93219,0.10707
6635.86066,0.15917
6637.78912,0.22285
6639.71759,0.21661
6641.64606,0.13548
6643.57453,0.04755
6645.50300,-0.02814
6647.43147,-0.03653
6649.35994,0.02586
6651.28841,0.04548
6653.21687,-0.02640
6655.14534,-0.08340
6657.07381,-0.01515
6659.00228,0.04804
6660.93075,0.00157
6662.85922,-0.04850
6664.78769,-0.04048
6666.71615,-0.01472
6668.64462,-0.01020
6670.57309,-0.01185
6672.50156,0.00928
6674.43003,0.07921
6676.35850,0.17752
6678.28697,0.21091
6680.21544,0.19320
6682.14390,0.20419
6684.07237,0.17204
6686.00084,0.09104
6687.92931,0.04434
6689.85778,0.00131
6691.78625,-0.01470
6693.71472,0.00592
6695.64318,0.00751
6697.57165,0.01992
6699.50012,0.10689
6701.42859,0.22732
6703.35706,0.29247
6705.28553,0.29341
6707.21400,0.24189
6709.14247,0.13593
6711.07093,0.03867
6712.99940,0.03331
6714.92787,0.07094
6716.85634,0.02448
6718.78481,-0.02086
6720.71328,0.03610
6722.64175,0.10728
6724.57021,0.11463
6726.49868,0.00524
6728.42715,-0.12869
6730.35562,-0.12521
6732.28409,-0.04063
6734.21256,-0.00112
6736.14103,0.03210
6738.06950,0.14964
6739.99796,0.27471
6741.92643,0.28345
6743.85490,0.20872
6745.78337,0.08018
6747.71184,-0.06040
6749.64031,-0.09032
6751.56878,-0.04749
6753.49724,-0.06374
6755.42571,-0.11161
6757.35418,-0.08756
6759.28265,-0.02832
6761.21112,-0.01694
6763.13959,-0.03953
6765.06806,-0.05010
6766.99653,-0.01755
6768.92499,0.04858
6770.85346,0.09488
6772.78193,0.11279
6774.71040,0.11435
6776.63887,0.05322
6778.56734,-0.05094
6780.49581,-0.06393
6782.42427,0.04779
6784.35274,0.17726
6786.28121,0.18501
6788.20968,0.03573
6790.13815,-0.14781
6792.06662,-0.20056
6793.99509,-0.15727
6795.92355,-0.15695
6797.85202,-0.17106
6799.78049,-0.15642
6801.70896,-0.12178
6803.63743,-0.09754
6805.56590,-0.11041
6807.49437,-0.08738
6809.42284,0.01106
6811.35130,0.14872
6813.27977,0.25704
6815.20824,0.29679
6817.13671,0.26375
6819.06518,0.18974
6820.99365,0.10531
6822.92212,0.06933
6824.85058,0.13568
6826.77905,0.20381
6828.70752,0.23057
6830.63599,0.22603
6832.56446,0.16922
6834.49293,0.10174
6836.42140,0.04688
6838.34987,-0.02449
6840.27833,-0.04754
6842.20680,0.01744
6844.13527,0.05917
6846.06374,0.04068
6847.99221,0.01678
6849.92068,-0.01643
6851.84915,-0.01196
6853.77761,0.10574
6855.70608,0.26762
6857.63455,0.27634
6859.56302,0.11919
6861.49149,-0.03024
6863.41996,-0.02296
6865.34843,0.05156
6867.27690,0.04266
6869.20536,-0.01629
6871.13383,-0.04703
6873.06230,-0.05474
6874.99077,-0.06233
6876.91924,-0.05754
6878.84771,-0.02955
6880.77618,-0.01586
6882.70464,0.03171
6884.63311,0.16153
6886.56158,0.20887
6888.49005,0.10059
6890.41852,0.02418
6892.34699,0.03595
6894.27546,0.04626
6896.20393,0.06619
6898.13239,0.11441
6900.06086,0.17739
6901.98933,0.22325
6903.91780,0.18915
6905.84627,0.11936
6907.77474,0.07138
6909.70321,-0.00768
6911.63167,-0.07338
6913.56014,-0.04416
6915.48861,0.01266
6917.41708,-0.02013
6919.34555,-0.14317
6921.27402,-0.20192
6923.20249,-0.13828
6925.13096,-0.02844
6927.05942,0.05609
6928.98789,0.06153
6930.91636,0.00270
6932.84483,-0.06260
6934.77330,-0.09646
6936.70177,-0.09757
6938.63024,-0.07249
6940.55870,-0.00409
6942.48717,0.07112
6944.41564,0.08422
6946.34411,0.03453
6948.27258,0.00628
6950.20105,0.02073
6952.12952,-0.01167
6954.05799,-0.02611
6955.98645,0.07203
6957.91492,0.13569
6959.84339,0.09332
6961.77186,0.06596
6963.70033,0.08414
6965.62880,0.06844
6967.55727,-0.02257
6969.48573,-0.11481
6971.41420,-0.07907
6973.34267,0.02226
6975.27114,0.06238
6977.19961,0.03730
6979.12808,-0.01045
6981.05655,-0.03309
6982.98501,-0.01022
6984.91348,-0.00429
6986.84195,-0.03037
6988.77042,-0.04996
6990.69889,-0.11406
6992.62736,-0.16638
6994.55583,-0.08496
6996.48430,0.00863
6998.41276,-0.09446
7000.34123,-0.22997
7002.26970,-0.15833
7004.19817,-0.01103
7006.12664,0.01371
7008.05511,-0.02906
7009.98358,-0.02609
7011.91204,-0.00712
7013.84051,0.12351
7015.76898,0.29299
7017.69745,0.25382
7019.62592,0.06373
7021.55439,0.00442
7023.48286,0.13828
7025.41133,0.27900
7027.33979,0.35311
7029.26826,0.32667
7031.19673,0.21444
7033.12520,0.14060
7035.05367,0.07826
7036.98214,-0.00308
7038.91061,0.01268
7040.83907,0.14641
7042.76754,0.23642
7044.69601,0.20339
7046.62448,0.19004
7048.55295,0.29352
7050.48142,0.38954
7052.40989,0.24961
7054.33836,-0.00497
7056.26682,-0.01350
7058.19529,0.12230
7060.12376,0.12013
7062.05223,0.10016
7063.98070,0.08499
7065.90917,0.03098
7067.83764,0.11840
7069.76610,0.39339
7071.69457,0.49708
7073.62304,0.27560
7075.55151,0.06579
7077.47998,-0.01134
7079.40845,-0.04651
7081.33692,-0.02303
7083.26539,0.12302
7085.19385,0.28654
7087.12232,0.34397
7089.05079,0.29109
7090.97926,0.18582
7092.90773,0.09097
7094.83620,0.08195
7096.76467,0.02144
7098.69313,-0.15211
7100.62160,-0.18985
7102.55007,-0.13840
7104.47854,-0.15151
7106.40701,-0.14009
7108.33548,-0.09257
7110.26395,-0.04602
7112.19242,0.06910
7114.12088,0.16005
7116.04935,0.17122
7117.97782,0.09040
7119.90629,-0.05876
7121.83476,0.00323
7123.76323,0.18446
7125.69170,0.14896
7127.62016,-0.03487
7129.54863,-0.11418
7131.47710,-0.03275
7133.40557,0.07598
7135.33404,0.07446
7137.26251,0.00714
7139.19098,-0.04350
7141.11944,-0.04634
7143.04791,-0.10737
7144.97638,-0.30080
7146.90485,-0.28222
7148.83332,-0.00838
7150.76179,0.14885
7152.69026,0.14989
7154.61873,0.14189
7156.54719,0.17759
7158.47566,0.20257
7160.40413,0.11516
7162.33260,-0.00062
7164.26107,0.01871
7166.18954,0.10341
7168.11801,0.09917
7170.04647,0.02177
7171.97494,-0.06289
7173.90341,-0.11927
7175.83188,-0.11508
7177.76035,-0.06070
7179.68882,0.04277
7181.61729,0.20188
7183.54576,0.36338
7185.47422,0.40772
7187.40269,0.36375
7189.33116,0.33642
7191.25963,0.26469
7193.18810,0.17978
7195.11657,0.15117
7197.04504,0.03890
7198.97350,-0.10845
7200.90197,-0.13948
7202.83044,-0.04385
7204.75891,0.15933
7206.68738,0.29483
7208.61585,0.21634
7210.54432,0.07877
7212.47279,0.07369
7214.40125,0.17142
7216.32972,0.28551
7218.25819,0.30920
7220.18666,0.15850
7222.11513,0.08099
7224.04360,0.17353
7225.97207,0.22604
7227.90053,0.13096
7229.82900,0.05570
7231.75747,0.03778
7233.68594,-0.08484
7235.61441,-0.20123
7237.54288,-0.09520
7239.47135,0.11297
7241.39982,0.14076
7243.32828,-0.05180
7245.25675,-0.15591
7247.18522,-0.05095
7249.11369,0.09737
7251.04216,0.16344
7252.97063,0.17021
7254.89910,0.14436
7256.82756,0.12903
7258.75603,0.17989
7260.68450,0.21621
7262.61297,0.13605
7264.54144,0.05622
7266.46991,0.04565
7268.39838,0.06027
7270.32685,0.09889
7272.25531,0.10925
7274.18378,0.01551
7276.11225,-0.05738
7278.04072,-0.06822
7279.96919,-0.01198
7281.89766,0.14890
7283.82613,0.25986
7285.75459,0.17868
7287.68306,0.05825
7289.61153,0.13578
7291.54000,0.29117
7293.46847,0.20961
7295.39694,-0.03798
7297.32541,-0.05197
7299.25387,0.19801
7301.18234,0.32647
7303.11081,0.24854
7305.03928,0.23113
7306.96775,0.31337
7308.89622,0.20764
7310.82469,-0.04240
7312.75316,-0.06792
7314.68162,0.10448
7316.61009,0.19651
7318.53856,-0.00634
7320.46703,-0.19746
7322.39550,-0.15705
7324.32397,-0.08036
7326.25244,-0.14751
7328.18090,-0.30095
7330.10937,-0.30936
7332.03784,-0.04336
7333.96631,0.22367
7335.89478,0.32822
7337.82325,0.40544
7339.75172,0.42568
7341.68019,0.26310
7343.60865,0.23560
7345.53712,0.37145
7347.46559,0.47537
7349.39406,0.48016
7351.32253,0.47014
7353.25100,0.50366
7355.17947,0.43381
7357.10793,0.10729
7359.03640,-0.07885
7360.96487,0.23471
7362.89334,0.50663
7364.82181,0.39109
7366.75028,0.16476
7368.67875,0.06791
7370.60722,0.08880
7372.53568,0.20511
7374.46415,0.32929
7376.39262,0.25061
7378.32109,0.10361
7380.24956,0.04164
7382.17803,0.03575
7384.10650,0.05753
7386.03496,0.06199
7387.96343,-0.03957
7389.89190,-0.13640
7391.82037,-0.15036
7393.74884,-0.10786
7395.67731,-0.01736
7397.60578,0.04224
7399.53425,0.05816
7401.46271,0.00399
7403.39118,-0.10709
7405.31965,-0.02783
7407.24812,0.24716
7409.17659,0.36698
7411.10506,0.26989
7413.03353,0.25603
7414.96199,0.32957
7416.89046,0.34775
7418.81893,0.27649
7420.74740,0.12611
7422.67587,-0.07333
7424.60434,-0.27590
7426.53281,-0.39160
7428.46128,-0.35652
7430.38974,-0.07791
7432.31821,0.22664
7434.24668,0.25149
7436.17515,0.03303
7438.10362,-0.21866
7440.03209,-0.37093
7441.96056,-0.34361
7443.88902,-0.12261
7445.81749,0.14176
7447.74596,0.32442
7449.67443,0.41116
7451.60290,0.47424
7453.53137,0.50484
7455.45984,0.40962
7457.38831,0.33806
7459.31677,0.36345
7461.24524,0.26253
7463.17371,0.01007
7465.10218,-0.23495
7467.03065,-0.30139
7468.95912,-0.14122
7470.88759,0.07996
7472.81605,0.21961
7474.74452,0.30684
7476.67299,0.37580
7478.60146,0.38671
7480.52993,0.36393
7482.45840,0.27851
7484.38687,0.06835
7486.31533,-0.07711
7488.24380,0.03788
7490.17227,0.26961
7492.10074,0.36032
7494.02921,0.35844
7495.95768,0.39972
7497.88615,0.43585
