399.19301,1.15568
401.12148,0.50133
403.04995,0.47258
404.97842,0.08924
406.90689,-0.29497
408.83536,-0.41620
410.76382,-0.17475
412.69229,0.22192
414.62076,0.42438
416.54923,0.38380
418.47770,0.15301
420.40617,-0.09565
422.33464,-0.18511
424.26311,-0.13127
426.19157,0.02413
428.12004,0.14851
430.04851,0.21841
431.97698,0.19372
433.90545,0.13977
435.83392,0.13259
437.76239,0.11461
439.69085,0.12149
441.61932,0.14246
443.54779,0.09076
445.47626,0.08411
447.40473,0.19402
449.33320,0.26700
451.26167,0.25572
453.19013,0.23647
455.11860,0.21041
457.04707,0.16066
458.97554,0.08063
460.90401,0.00608
462.83248,-0.03402
464.76095,-0.02682
466.68942,0.05622
468.61788,0.14320
470.54635,0.14861
472.47482,0.13591
474.40329,0.20591
476.33176,0.19512
478.26023,0.08848
480.18870,-0.02314
482.11716,-0.10249
484.04563,-0.07454
485.97410,0.04969
487.90257,0.14191
489.83104,0.14625
491.75951,0.09179
493.68798,0.01572
495.61645,-0.02437
497.54491,0.01115
499.47338,0.03907
501.40185,0.00720
503.33032,0.00197
505.25879,0.04029
507.18726,0.06960
509.11573,0.09638
511.04419,0.09746
512.97266,0.05720
514.90113,0.02061
516.82960,0.00220
518.75807,0.00089
520.68654,0.03082
522.61501,0.06852
524.54348,0.07900
526.47194,0.04795
528.40041,-0.00363
530.32888,-0.00801
532.25735,0.04301
534.18582,0.06961
536.11429,0.05992
538.04276,0.06852
539.97122,0.07743
541.89969,0.06324
543.82816,0.05908
545.75663,0.06021
547.68510,0.03620
549.61357,0.02865
551.54204,0.15015
553.47051,0.30036
555.39897,0.24282
557.32744,0.08862
559.25591,0.05530
561.18438,0.07588
563.11285,0.07663
565.04132,0.07735
566.96979,0.05713
568.89825,0.01565
570.82672,0.01158
572.75519,0.04997
574.68366,0.09027
576.61213,0.10684
578.54060,0.08890
580.46907,0.04820
582.39754,0.01998
584.32600,0.01993
586.25447,0.02442
588.18294,0.02319
590.11141,0.01991
592.03988,0.02849
593.96835,0.07342
595.89682,0.10073
597.82528,0.07623
599.75375,0.06741
601.68222,0.08904
603.61069,0.10135
605.53916,0.10418
607.46763,0.08564
609.39610,0.03926
611.32456,0.01339
613.25303,0.03410
615.18150,0.06630
617.10997,0.07656
619.03844,0.06236
620.96691,0.04669
622.89538,0.05528
624.82385,0.07982
626.75231,0.08802
628.68078,0.08187
630.60925,0.08797
632.53772,0.09793
634.46619,0.10661
636.39466,0.12426
638.32313,0.13647
640.25159,0.13184
642.18006,0.11431
644.10853,0.09300
646.03700,0.07929
647.96547,0.06988
649.89394,0.05911
651.82241,0.05249
653.75088,0.05821
655.67934,0.07225
657.60781,0.07707
659.53628,0.07651
661.46475,0.08555
663.39322,0.09859
665.32169,0.11048
667.25016,0.12599
669.17862,0.11928
671.10709,0.09221
673.03556,0.08675
674.96403,0.09920
676.89250,0.10741
678.82097,0.09781
680.74944,0.08278
682.67791,0.07814
684.60637,0.07516
686.53484,0.06770
688.46331,0.06718
690.39178,0.07946
692.32025,0.10141
694.24872,0.11766
696.17719,0.11257
698.10565,0.10090
700.03412,0.09750
701.96259,0.09430
703.89106,0.09123
705.81953,0.08514
707.74800,0.06683
709.67647,0.06498
711.60494,0.07679
713.53340,0.06071
715.46187,0.05202
717.39034,0.07431
719.31881,0.09346
721.24728,0.10554
723.17575,0.10905
725.10422,0.09848
727.03268,0.07966
728.96115,0.06074
730.88962,0.05412
732.81809,0.06776
734.74656,0.08906
736.67503,0.09611
738.60350,0.08561
740.53197,0.07116
742.46043,0.07219
744.38890,0.08560
746.31737,0.08816
748.24584,0.08203
750.17431,0.08738
752.10278,0.09349
754.03125,0.08770
755.95971,0.09001
757.88818,0.10233
759.81665,0.11014
761.74512,0.11452
763.67359,0.11559
765.60206,0.10781
767.53053,0.09372
769.45900,0.08074
771.38746,0.07071
773.31593,0.06833
775.24440,0.07938
777.17287,0.09253
779.10134,0.09411
781.02981,0.09163
782.95828,0.09219
784.88674,0.09442
786.81521,0.09708
788.74368,0.10001
790.67215,0.10728
792.60062,0.11742
794.52909,0.11725
796.45756,0.09836
798.38602,0.08234
800.31449,0.08404
802.24296,0.09059
804.17143,0.09720
806.09990,0.10419
808.02837,0.10973
809.95684,0.11073
811.88531,0.10883
813.81377,0.10910
815.74224,0.11124
817.67071,0.11272
819.59918,0.10899
821.52765,0.10360
823.45612,0.09650
825.38459,0.08402
827.31305,0.07946
829.24152,0.08862
831.16999,0.09529
833.09846,0.09160
835.02693,0.08666
836.95540,0.09314
838.88387,0.10983
840.81234,0.11842
842.74080,0.11443
844.66927,0.11085
846.59774,0.11668
848.52621,0.12726
850.45468,0.12664
852.38315,0.11115
854.31162,0.09907
856.24008,0.09885
858.16855,0.09914
860.09702,0.09761
862.02549,0.10164
863.95396,0.11047
865.88243,0.12204
867.81090,0.15088
869.73937,0.17524
871.66783,0.14992
873.59630,0.11185
875.52477,0.10084
877.45324,0.09937
879.38171,0.10044
881.31018,0.09948
883.23865,0.09294
885.16711,0.08629
887.09558,0.08332
889.02405,0.08633
890.95252,0.08915
892.88099,0.09116
894.80946,0.10099
896.73793,0.11111
898.66640,0.11430
900.59486,0.11891
902.52333,0.11984
904.45180,0.11418
906.38027,0.11743
908.30874,0.12465
910.23721,0.12134
912.16568,0.11929
914.09414,0.12212
916.02261,0.11738
917.95108,0.11182
919.87955,0.11171
921.80802,0.11104
923.73649,0.11384
925.66496,0.12387
927.59343,0.12819
929.52189,0.12251
931.45036,0.11701
933.37883,0.11245
935.30730,0.10621
937.23577,0.10228
939.16424,0.10889
941.09271,0.12400
943.02117,0.13040
944.94964,0.12231
946.87811,0.11676
948.80658,0.12324
950.73505,0.13052
952.66352,0.13163
954.59199,0.12788
956.52045,0.12251
958.44892,0.12114
960.37739,0.12267
962.30586,0.11965
964.23433,0.11525
966.16280,0.11548
968.09127,0.11535
970.01974,0.11577
971.94820,0.11918
973.87667,0.12205
975.80514,0.12629
977.73361,0.12652
979.66208,0.11461
981.59055,0.10266
983.51902,0.10153
985.44748,0.10335
987.37595,0.10759
989.30442,0.12317
991.23289,0.13861
993.16136,0.13400
995.08983,0.12396
997.01830,0.12917
998.94677,0.13713
1000.87523,0.13168
1002.80370,0.11493
1004.73217,0.10376
1006.66064,0.10692
1008.58911,0.11579
1010.51758,0.12770
1012.44605,0.14012
1014.37451,0.14275
1016.30298,0.13794
1018.23145,0.13524
1020.15992,0.13218
1022.08839,0.12299
1024.01686,0.13540
1025.94533,0.20668
1027.87380,0.26803
1029.80226,0.22619
1031.73073,0.14868
1033.65920,0.12503
1035.58767,0.13685
1037.51614,0.14915
1039.44461,0.14693
1041.37308,0.13910
1043.30154,0.14093
1045.23001,0.14504
1047.15848,0.13908
1049.08695,0.12060
1051.01542,0.10490
1052.94389,0.10936
1054.87236,0.12423
1056.80083,0.13273
1058.72929,0.13991
1060.65776,0.15159
1062.58623,0.15687
1064.51470,0.15178
1066.44317,0.14729
1068.37164,0.14349
1070.30011,0.13639
1072.22857,0.13765
1074.15704,0.14805
1076.08551,0.15122
1078.01398,0.14438
1079.94245,0.13257
1081.87092,0.12013
1083.79939,0.11607
1085.72786,0.12066
1087.65632,0.12729
1089.58479,0.13382
1091.51326,0.13369
1093.44173,0.12020
1095.37020,0.10684
1097.29867,0.11081
1099.22714,0.12371
1101.15560,0.13364
1103.08407,0.13745
1105.01254,0.13177
1106.94101,0.12828
1108.86948,0.13499
1110.79795,0.13822
1112.72642,0.13472
1114.65489,0.13243
1116.58335,0.13696
1118.51182,0.14775
1120.44029,0.14640
1122.36876,0.13157
1124.29723,0.12635
1126.22570,0.13298
1128.15417,0.13938
1130.08263,0.14241
1132.01110,0.14250
1133.93957,0.13753
1135.86804,0.12700
1137.79651,0.12087
1139.72498,0.12534
1141.65345,0.13000
1143.58191,0.13031
1145.51038,0.13366
1147.43885,0.13927
1149.36732,0.14208
1151.29579,0.14239
1153.22426,0.13961
1155.15273,0.13632
1157.08120,0.13865
1159.00966,0.14280
1160.93813,0.14357
1162.86660,0.14506
1164.79507,0.14851
1166.72354,0.14852
1168.65201,0.14290
1170.58048,0.13982
1172.50894,0.14423
1174.43741,0.14934
1176.36588,0.15205
1178.29435,0.15246
1180.22282,0.15021
1182.15129,0.14915
1184.07976,0.15313
1186.00823,0.16082
1187.93669,0.16302
1189.86516,0.15665
1191.79363,0.14901
1193.72210,0.14329
1195.65057,0.14061
1197.57904,0.14246
1199.50751,0.14446
1201.43597,0.14293
1203.36444,0.14147
1205.29291,0.14119
1207.22138,0.14059
1209.14985,0.14171
1211.07832,0.14253
1213.00679,0.14260
1214.93526,0.14646
1216.86372,0.14869
1218.79219,0.14426
1220.72066,0.14128
1222.64913,0.14482
1224.57760,0.15052
1226.50607,0.15309
1228.43454,0.15200
1230.36300,0.15045
1232.29147,0.15044
1234.21994,0.15174
1236.14841,0.15147
1238.07688,0.15000
1240.00535,0.15026
1241.93382,0.14834
1243.86229,0.14352
1245.79075,0.14245
1247.71922,0.14467
1249.64769,0.14400
1251.57616,0.13959
1253.50463,0.13729
1255.43310,0.13993
1257.36157,0.14303
1259.29003,0.14522
1261.21850,0.15073
1263.14697,0.15658
1265.07544,0.15416
1267.00391,0.14829
1268.93238,0.15022
1270.86085,0.15524
1272.78932,0.15490
1274.71778,0.15033
1276.64625,0.14633
1278.57472,0.14754
1280.50319,0.15104
1282.43166,0.15066
1284.36013,0.14906
1286.28860,0.15011
1288.21706,0.15300
1290.14553,0.15721
1292.07400,0.15950
1294.00247,0.15735
1295.93094,0.15814
1297.85941,0.16423
1299.78788,0.16535
1301.71634,0.15905
1303.64481,0.15020
1305.57328,0.14565
1307.50175,0.15303
1309.43022,0.16244
1311.35869,0.16273
1313.28716,0.16118
1315.21563,0.16127
1317.14409,0.16003
1319.07256,0.15807
1321.00103,0.15539
1322.92950,0.15279
1324.85797,0.15156
1326.78644,0.15199
1328.71491,0.15347
1330.64337,0.15275
1332.57184,0.14915
1334.50031,0.14833
1336.42878,0.15456
1338.35725,0.16465
1340.28572,0.16198
1342.21419,0.12708
1344.14266,0.08022
1346.07112,0.07566
1347.99959,0.11948
1349.92806,0.15106
1351.85653,0.15168
1353.78500,0.15037
1355.71347,0.15492
1357.64194,0.16055
1359.57040,0.16591
1361.49887,0.16937
1363.42734,0.16877
1365.35581,0.16641
1367.28428,0.16471
1369.21275,0.16329
1371.14122,0.16546
1373.06969,0.17083
1374.99815,0.17320
1376.92662,0.17124
1378.85509,0.16723
1380.78356,0.16247
1382.71203,0.16129
1384.64050,0.16676
1386.56897,0.17476
1388.49743,0.17613
1390.42590,0.17326
1392.35437,0.17695
1394.28284,0.18665
1396.21131,0.19023
1398.13978,0.18430
1400.06825,0.17671
1401.99672,0.17226
1403.92518,0.16897
1405.85365,0.16897
1407.78212,0.17262
1409.71059,0.17011
1411.63906,0.16225
1413.56753,0.16060
1415.49600,0.16773
1417.42446,0.17617
1419.35293,0.17386
1421.28140,0.16796
1423.20987,0.16778
1425.13834,0.16731
1427.06681,0.17009
1428.99528,0.17583
1430.92375,0.17489
1432.85221,0.17342
1434.78068,0.18009
1436.70915,0.18674
1438.63762,0.18120
1440.56609,0.17220
1442.49456,0.16688
1444.42303,0.16508
1446.35149,0.16649
1448.27996,0.16910
1450.20843,0.16976
1452.13690,0.17325
1454.06537,0.18854
1455.99384,0.21513
1457.92231,0.21446
1459.85077,0.18665
1461.77924,0.17695
1463.70771,0.18144
1465.63618,0.18427
1467.56465,0.18157
1469.49312,0.18513
1471.42159,0.19721
1473.35006,0.20245
1475.27852,0.19239
1477.20699,0.18243
1479.13546,0.17776
1481.06393,0.17798
1482.99240,0.18134
1484.92087,0.18730
1486.84934,0.19810
1488.77780,0.20813
1490.70627,0.20245
1492.63474,0.19130
1494.56321,0.19157
1496.49168,0.20195
1498.42015,0.20717
1500.34862,0.20415
1502.27709,0.20303
1504.20555,0.21097
1506.13402,0.22999
1508.06249,0.22366
1509.99096,0.19731
1511.91943,0.18623
1513.84790,0.19340
1515.77637,0.21004
1517.70483,0.21899
1519.63330,0.21995
1521.56177,0.21922
1523.49024,0.21129
1525.41871,0.20365
1527.34718,0.19780
1529.27565,0.19285
1531.20412,0.19543
1533.13258,0.20229
1535.06105,0.19961
1536.98952,0.19980
1538.91799,0.22161
1540.84646,0.24592
1542.77493,0.22917
1544.70340,0.20473
1546.63186,0.19170
1548.56033,0.19280
1550.48880,0.19887
1552.41727,0.20058
1554.34574,0.20285
1556.27421,0.21524
1558.20268,0.23621
1560.13115,0.21737
1562.05961,0.19197
1563.98808,0.18760
1565.91655,0.19414
1567.84502,0.20358
1569.77349,0.20521
1571.70196,0.19960
1573.63043,0.20249
1575.55889,0.20982
1577.48736,0.20114
1579.41583,0.18788
1581.34430,0.18348
1583.27277,0.18104
1585.20124,0.17905
1587.12971,0.18366
1589.05818,0.19009
1590.98664,0.18894
1592.91511,0.18376
1594.84358,0.18045
1596.77205,0.17741
1598.70052,0.17656
1600.62899,0.17997
1602.55746,0.18202
1604.48592,0.18076
1606.41439,0.18206
1608.34286,0.18520
1610.27133,0.18403
1612.19980,0.18178
1614.12827,0.18707
1616.05674,0.20068
1617.98521,0.20576
1619.91367,0.20355
1621.84214,0.20872
1623.77061,0.21225
1625.69908,0.20590
1627.62755,0.19870
1629.55602,0.19448
1631.48449,0.19854
1633.41295,0.21397
1635.34142,0.23104
1637.26989,0.22275
1639.19836,0.20695
1641.12683,0.20104
1643.05530,0.20426
1644.98377,0.21868
1646.91223,0.23374
1648.84070,0.22772
1650.76917,0.22595
1652.69764,0.24175
1654.62611,0.23099
1656.55458,0.20503
1658.48305,0.19056
1660.41152,0.18464
1662.33998,0.18898
1664.26845,0.19561
1666.19692,0.19856
1668.12539,0.20793
1670.05386,0.21830
1671.98233,0.21670
1673.91080,0.21381
1675.83926,0.21110
1677.76773,0.20855
1679.69620,0.21178
1681.62467,0.22295
1683.55314,0.23671
1685.48161,0.22873
1687.41008,0.20952
1689.33855,0.19704
1691.26701,0.19427
1693.19548,0.20477
1695.12395,0.22778
1697.05242,0.24736
1698.98089,0.25040
1700.90936,0.23553
1702.83783,0.21957
1704.76629,0.21823
1706.69476,0.21596
1708.62323,0.20363
1710.55170,0.19630
1712.48017,0.20189
1714.40864,0.21852
1716.33711,0.23436
1718.26558,0.22090
1720.19404,0.19689
1722.12251,0.18949
1724.05098,0.19132
1725.97945,0.19351
1727.90792,0.19946
1729.83639,0.20949
1731.76486,0.21688
1733.69332,0.21662
1735.62179,0.20606
1737.55026,0.19916
1739.47873,0.19950
1741.40720,0.20185
1743.33567,0.20502
1745.26414,0.21119
1747.19261,0.21958
1749.12107,0.22332
1751.04954,0.21289
1752.97801,0.19835
1754.90648,0.19153
1756.83495,0.19021
1758.76342,0.19237
1760.69189,0.19873
1762.62035,0.20156
1764.54882,0.19620
1766.47729,0.19307
1768.40576,0.19866
1770.33423,0.21049
1772.26270,0.21511
1774.19117,0.20442
1776.11964,0.19576
1778.04810,0.19584
1779.97657,0.19862
1781.90504,0.19866
1783.83351,0.19709
1785.76198,0.19242
1787.69045,0.18624
1789.61892,0.18719
1791.54738,0.19530
1793.47585,0.19937
1795.40432,0.19690
1797.33279,0.19463
1799.26126,0.19339
1801.18973,0.19085
1803.11820,0.18777
1805.04666,0.18646
1806.97513,0.18734
1808.90360,0.18888
1810.83207,0.18897
1812.76054,0.18953
1814.68901,0.19462
1816.61748,0.19563
1818.54595,0.19237
1820.47441,0.19883
1822.40288,0.20146
1824.33135,0.19250
1826.25982,0.19343
1828.18829,0.20502
1830.11676,0.21047
1832.04523,0.20096
1833.97369,0.18946
1835.90216,0.18736
1837.83063,0.18876
1839.75910,0.18741
1841.68757,0.18863
1843.61604,0.19361
1845.54451,0.19284
1847.47298,0.18779
1849.40144,0.18480
1851.32991,0.18486
1853.25838,0.18736
1855.18685,0.18949
1857.11532,0.18975
1859.04379,0.18871
1860.97226,0.18768
1862.90072,0.18856
1864.82919,0.19401
1866.75766,0.20233
1868.68613,0.20531
1870.61460,0.19830
1872.54307,0.19023
1874.47154,0.18810
1876.40001,0.18912
1878.32847,0.18754
1880.25694,0.18437
1882.18541,0.18490
1884.11388,0.18811
1886.04235,0.19189
1887.97082,0.19714
1889.89929,0.19705
1891.82775,0.19028
1893.75622,0.18777
1895.68469,0.18983
1897.61316,0.18896
1899.54163,0.18695
1901.47010,0.18882
1903.39857,0.19194
1905.32704,0.19135
1907.25550,0.18794
1909.18397,0.18537
1911.11244,0.18491
1913.04091,0.18513
1914.96938,0.18568
1916.89785,0.18751
1918.82632,0.18804
1920.75478,0.18861
1922.68325,0.19177
1924.61172,0.19259
1926.54019,0.18966
1928.46866,0.18603
1930.39713,0.18433
1932.32560,0.18387
1934.25407,0.18179
1936.18253,0.18062
1938.11100,0.18437
1940.03947,0.19181
1941.96794,0.19688
1943.89641,0.19443
1945.82488,0.18931
1947.75335,0.18759
1949.68181,0.18748
1951.61028,0.18786
1953.53875,0.19052
1955.46722,0.19383
1957.39569,0.19421
1959.32416,0.19252
1961.25263,0.19171
1963.18110,0.19165
1965.10956,0.19235
1967.03803,0.19241
1968.96650,0.18892
1970.89497,0.18505
1972.82344,0.18585
1974.75191,0.18893
1976.68038,0.18642
1978.60884,0.18059
1980.53731,0.18243
1982.46578,0.18969
1984.39425,0.19112
1986.32272,0.18881
1988.25119,0.19050
1990.17966,0.19505
1992.10812,0.19784
1994.03659,0.19605
1995.96506,0.19138
1997.89353,0.18804
1999.82200,0.18772
2001.75047,0.18959
2003.67894,0.19198
2005.60741,0.19313
2007.53587,0.19226
2009.46434,0.19055
2011.39281,0.18857
2013.32128,0.18634
2015.24975,0.18586
2017.17822,0.18950
2019.10669,0.19488
2021.03515,0.19533
2022.96362,0.19046
2024.89209,0.18659
2026.82056,0.18523
2028.74903,0.18324
2030.67750,0.18245
2032.60597,0.18514
2034.53444,0.18565
2036.46290,0.18444
2038.39137,0.18804
2040.31984,0.19013
2042.24831,0.18549
2044.17678,0.18308
2046.10525,0.18696
2048.03372,0.19033
2049.96218,0.18932
2051.89065,0.18660
2053.81912,0.18577
2055.74759,0.18673
2057.67606,0.18713
2059.60453,0.18671
2061.53300,0.18495
2063.46147,0.18434
2065.38993,0.18812
2067.31840,0.19193
2069.24687,0.19346
2071.17534,0.19435
2073.10381,0.19328
2075.03228,0.19048
2076.96075,0.18923
2078.88921,0.19098
2080.81768,0.19272
2082.74615,0.19185
2084.67462,0.19108
2086.60309,0.19237
2088.53156,0.19317
2090.46003,0.19207
2092.38850,0.19031
2094.31696,0.18913
2096.24543,0.19027
2098.17390,0.19337
2100.10237,0.19405
2102.03084,0.19244
2103.95931,0.19255
2105.88778,0.19265
2107.81624,0.19136
2109.74471,0.19078
2111.67318,0.19035
2113.60165,0.18988
2115.53012,0.19023
2117.45859,0.19061
2119.38706,0.19053
2121.31553,0.18928
2123.24399,0.18682
2125.17246,0.18646
2127.10093,0.18947
2129.02940,0.19161
2130.95787,0.19109
2132.88634,0.19415
2134.81481,0.20259
2136.74327,0.20490
2138.67174,0.19691
2140.60021,0.18940
2142.52868,0.18806
2144.45715,0.19029
2146.38562,0.19397
2148.31409,0.19729
2150.24255,0.19713
2152.17102,0.19365
2154.09949,0.19060
2156.02796,0.19006
2157.95643,0.19201
2159.88490,0.19440
2161.81337,0.19516
2163.74184,0.19579
2165.67030,0.19716
2167.59877,0.19660
2169.52724,0.19359
2171.45571,0.19084
2173.38418,0.18972
2175.31265,0.18978
2177.24112,0.19216
2179.16958,0.19615
2181.09805,0.19591
2183.02652,0.19245
2184.95499,0.19224
2186.88346,0.19364
2188.81193,0.19304
2190.74040,0.19214
2192.66887,0.19163
2194.59733,0.18955
2196.52580,0.18682
2198.45427,0.18612
2200.38274,0.18783
2202.31121,0.18971
2204.23968,0.19075
2206.16815,0.19200
2208.09661,0.19266
2210.02508,0.19333
2211.95355,0.19536
2213.88202,0.19579
2215.81049,0.19400
2217.73896,0.19369
2219.66743,0.19466
2221.59590,0.19358
2223.52436,0.19086
2225.45283,0.19044
2227.38130,0.19213
2229.30977,0.19232
2231.23824,0.19207
2233.16671,0.19264
2235.09518,0.19281
2237.02364,0.19384
2238.95211,0.19496
2240.88058,0.19498
2242.80905,0.19636
2244.73752,0.19756
2246.66599,0.19596
2248.59446,0.19407
2250.52293,0.19476
2252.45139,0.19763
2254.37986,0.20037
2256.30833,0.20126
2258.23680,0.19952
2260.16527,0.19585
2262.09374,0.19155
2264.02221,0.19084
2265.95067,0.19500
2267.87914,0.19707
2269.80761,0.19561
2271.73608,0.19488
2273.66455,0.19361
2275.59302,0.19019
2277.52149,0.18821
2279.44996,0.18884
2281.37842,0.19030
2283.30689,0.19303
2285.23536,0.19563
2287.16383,0.19649
2289.09230,0.19863
2291.02077,0.20365
2292.94924,0.20810
2294.87770,0.20964
2296.80617,0.20299
2298.73464,0.18981
2300.66311,0.18335
2302.59158,0.18173
2304.52005,0.18015
2306.44852,0.18396
2308.37699,0.19114
2310.30545,0.19667
2312.23392,0.19717
2314.16239,0.19252
2316.09086,0.18873
2318.01933,0.18909
2319.94780,0.19226
2321.87627,0.19672
2323.80473,0.19863
2325.73320,0.19697
2327.66167,0.20061
2329.59014,0.21359
2331.51861,0.22253
2333.44708,0.21302
2335.37555,0.19408
2337.30401,0.17941
2339.23248,0.17456
2341.16095,0.18636
2343.08942,0.20425
2345.01789,0.20744
2346.94636,0.20289
2348.87483,0.20170
2350.80330,0.20270
2352.73176,0.20509
2354.66023,0.20092
2356.58870,0.18287
2358.51717,0.17430
2360.44564,0.18506
2362.37411,0.19502
2364.30258,0.20433
2366.23104,0.21174
2368.15951,0.20440
2370.08798,0.19564
2372.01645,0.19711
2373.94492,0.19643
2375.87339,0.19177
2377.80186,0.19174
2379.73033,0.19558
2381.65879,0.19890
2383.58726,0.20012
2385.51573,0.19967
2387.44420,0.19869
2389.37267,0.19778
2391.30114,0.19814
2393.22961,0.19925
2395.15807,0.19937
2397.08654,0.19972
2399.01501,0.19976
2400.94348,0.19774
2402.87195,0.19672
2404.80042,0.19864
2406.72889,0.20114
2408.65736,0.20106
2410.58582,0.19730
2412.51429,0.19460
2414.44276,0.19503
2416.37123,0.19541
2418.29970,0.19629
2420.22817,0.19695
2422.15664,0.19558
2424.08510,0.19487
2426.01357,0.19549
2427.94204,0.19439
2429.87051,0.19140
2431.79898,0.18995
2433.72745,0.19121
2435.65592,0.19393
2437.58439,0.19727
2439.51285,0.19987
2441.44132,0.20089
2443.36979,0.20015
2445.29826,0.19780
2447.22673,0.19478
2449.15520,0.18657
2451.08367,0.17168
2453.01213,0.16814
2454.94060,0.18334
2456.86907,0.19584
2458.79754,0.19572
2460.72601,0.19276
2462.65448,0.19292
2464.58295,0.19514
2466.51142,0.19576
2468.43988,0.19559
2470.36835,0.19772
2472.29682,0.20048
2474.22529,0.20181
2476.15376,0.20357
2478.08223,0.20607
2480.01070,0.20518
2481.93916,0.20042
2483.86763,0.19635
2485.79610,0.19656
2487.72457,0.20047
2489.65304,0.20286
2491.58151,0.20111
2493.50998,0.19758
2495.43844,0.19459
2497.36691,0.19389
2499.29538,0.19623
2501.22385,0.19923
2503.15232,0.19956
2505.08079,0.19764
2507.00926,0.19607
2508.93773,0.19651
2510.86619,0.19800
2512.79466,0.19694
2514.72313,0.19484
2516.65160,0.19579
2518.58007,0.19725
2520.50854,0.19671
2522.43701,0.19726
2524.36547,0.20117
2526.29394,0.20504
2528.22241,0.20539
2530.15088,0.20364
2532.07935,0.20198
2534.00782,0.20115
2535.93629,0.19987
2537.86476,0.19715
2539.79322,0.19536
2541.72169,0.19595
2543.65016,0.19802
2545.57863,0.20159
2547.50710,0.20357
2549.43557,0.20083
2551.36404,0.19804
2553.29250,0.19907
2555.22097,0.20143
2557.14944,0.20296
2559.07791,0.20421
2561.00638,0.20519
2562.93485,0.20447
2564.86332,0.20195
2566.79179,0.19878
2568.72025,0.19739
2570.64872,0.19936
2572.57719,0.20105
2574.50566,0.19966
2576.43413,0.19858
2578.36260,0.19948
2580.29107,0.20182
2582.21953,0.20470
2584.14800,0.20426
2586.07647,0.20190
2588.00494,0.20214
2589.93341,0.20374
2591.86188,0.20305
2593.79035,0.19949
2595.71882,0.19794
2597.64728,0.20011
2599.57575,0.19985
2601.50422,0.19786
2603.43269,0.20002
2605.36116,0.20443
2607.28963,0.20929
2609.21810,0.21316
2611.14656,0.21266
2613.07503,0.20896
2615.00350,0.20413
2616.93197,0.20103
2618.86044,0.20052
2620.78891,0.20007
2622.71738,0.19945
2624.64585,0.19958
2626.57431,0.19935
2628.50278,0.19721
2630.43125,0.19579
2632.35972,0.19715
2634.28819,0.19988
2636.21666,0.20147
2638.14513,0.20167
2640.07359,0.20361
2642.00206,0.20634
2643.93053,0.20778
2645.85900,0.20791
2647.78747,0.20533
2649.71594,0.20180
2651.64441,0.20160
2653.57288,0.20358
2655.50134,0.20412
2657.42981,0.20472
2659.35828,0.20549
2661.28675,0.20436
2663.21522,0.20312
2665.14369,0.20215
2667.07216,0.20161
2669.00062,0.20270
2670.92909,0.20419
2672.85756,0.20622
2674.78603,0.20856
2676.71450,0.20776
2678.64297,0.20392
2680.57144,0.20236
2682.49990,0.20419
2684.42837,0.20617
2686.35684,0.20905
2688.28531,0.21325
2690.21378,0.21511
2692.14225,0.21430
2694.07072,0.21294
2695.99919,0.20987
2697.92765,0.20560
2699.85612,0.20171
2701.78459,0.19840
2703.71306,0.19813
2705.64153,0.20072
2707.57000,0.20368
2709.49847,0.20641
2711.42693,0.20877
2713.35540,0.21080
2715.28387,0.21170
2717.21234,0.21051
2719.14081,0.20834
2721.06928,0.20678
2722.99775,0.20728
2724.92622,0.20967
2726.85468,0.20943
2728.78315,0.20750
2730.71162,0.20903
2732.64009,0.21028
2734.56856,0.20938
2736.49703,0.21136
2738.42550,0.21503
2740.35396,0.21546
2742.28243,0.21252
2744.21090,0.20868
2746.13937,0.20538
2748.06784,0.20394
2749.99631,0.20594
2751.92478,0.20932
2753.85325,0.20983
2755.78171,0.20754
2757.71018,0.20599
2759.63865,0.20779
2761.56712,0.21158
2763.49559,0.21266
2765.42406,0.20718
2767.35253,0.20195
2769.28099,0.20453
2771.20946,0.20752
2773.13793,0.20649
2775.06640,0.20785
2776.99487,0.21337
2778.92334,0.21753
2780.85181,0.21847
2782.78028,0.21797
2784.70874,0.21508
2786.63721,0.21188
2788.56568,0.21096
2790.49415,0.21121
2792.42262,0.21109
2794.35109,0.20979
2796.27956,0.20946
2798.20802,0.21280
2800.13649,0.21819
2802.06496,0.22086
2803.99343,0.21889
2805.92190,0.21483
2807.85037,0.21263
2809.77884,0.21388
2811.70731,0.21730
2813.63577,0.21959
2815.56424,0.21985
2817.49271,0.22094
2819.42118,0.22298
2821.34965,0.22497
2823.27812,0.22607
2825.20659,0.22346
2827.13505,0.21779
2829.06352,0.21440
2830.99199,0.21542
2832.92046,0.21771
2834.84893,0.21934
2836.77740,0.21989
2838.70587,0.22102
2840.63433,0.22474
2842.56280,0.22488
2844.49127,0.21845
2846.41974,0.21423
2848.34821,0.21450
2850.27668,0.21361
2852.20515,0.21350
2854.13362,0.21575
2856.06208,0.21611
2857.99055,0.21538
2859.91902,0.21473
2861.84749,0.21227
2863.77596,0.21058
2865.70443,0.21189
2867.63290,0.21533
2869.56136,0.21891
2871.48983,0.21941
2873.41830,0.21619
2875.34677,0.21106
2877.27524,0.20771
2879.20371,0.20977
2881.13218,0.21466
2883.06065,0.21750
2884.98911,0.21769
2886.91758,0.21649
2888.84605,0.21555
2890.77452,0.21622
2892.70299,0.21739
2894.63146,0.21750
2896.55993,0.21804
2898.48839,0.21955
2900.41686,0.22056
2902.34533,0.22128
2904.27380,0.21967
2906.20227,0.21509
2908.13074,0.21207
2910.05921,0.21170
2911.98768,0.21109
2913.91614,0.21031
2915.84461,0.21287
2917.77308,0.21828
2919.70155,0.22078
2921.63002,0.21945
2923.55849,0.21988
2925.48696,0.22013
2927.41542,0.21793
2929.34389,0.22089
2931.27236,0.22659
2933.20083,0.22742
2935.12930,0.22315
2937.05777,0.21730
2938.98624,0.21739
2940.91471,0.22012
2942.84317,0.21687
2944.77164,0.21363
2946.70011,0.21516
2948.62858,0.21628
2950.55705,0.21573
2952.48552,0.21555
2954.41399,0.21332
2956.34245,0.20844
2958.27092,0.20750
2960.19939,0.21125
2962.12786,0.21531
2964.05633,0.21984
2965.98480,0.22020
2967.91327,0.21687
2969.84174,0.21878
2971.77020,0.22349
2973.69867,0.22495
2975.62714,0.22464
2977.55561,0.22470
2979.48408,0.22488
2981.41255,0.22451
2983.34102,0.22261
2985.26948,0.21941
2987.19795,0.21502
2989.12642,0.21056
2991.05489,0.21326
2992.98336,0.22279
2994.91183,0.22721
2996.84030,0.22474
2998.76877,0.22268
3000.69723,0.22226
3002.62570,0.22231
3004.55417,0.22301
3006.48264,0.22424
3008.41111,0.22560
3010.33958,0.22422
3012.26805,0.21812
3014.19651,0.20557
3016.12498,0.19060
3018.05345,0.19076
3019.98192,0.20790
3021.91039,0.22241
3023.83886,0.22933
3025.76733,0.23180
3027.69579,0.22789
3029.62426,0.22217
3031.55273,0.22053
3033.48120,0.22221
3035.40967,0.22195
3037.33814,0.21954
3039.26661,0.22159
3041.19508,0.22743
3043.12354,0.22990
3045.05201,0.22551
3046.98048,0.21773
3048.90895,0.21585
3050.83742,0.21986
3052.76589,0.22113
3054.69436,0.22088
3056.62282,0.22322
3058.55129,0.22554
3060.47976,0.22540
3062.40823,0.22418
3064.33670,0.22164
3066.26517,0.21751
3068.19364,0.21832
3070.12211,0.22447
3072.05057,0.22492
3073.97904,0.21891
3075.90751,0.22086
3077.83598,0.23154
3079.76445,0.23818
3081.69292,0.23149
3083.62139,0.20647
3085.54985,0.18902
3087.47832,0.20288
3089.40679,0.22150
3091.33526,0.22518
3093.26373,0.22029
3095.19220,0.21130
3097.12067,0.20786
3099.04914,0.21147
3100.97760,0.21335
3102.90607,0.21191
3104.83454,0.21222
3106.76301,0.21828
3108.69148,0.22424
3110.61995,0.22334
3112.54842,0.21881
3114.47688,0.21405
3116.40535,0.21076
3118.33382,0.21296
3120.26229,0.21966
3122.19076,0.22637
3124.11923,0.23021
3126.04770,0.22646
3127.97617,0.21774
3129.90463,0.21448
3131.83310,0.21881
3133.76157,0.22477
3135.69004,0.22783
3137.61851,0.22758
3139.54698,0.22599
3141.47545,0.22479
3143.40391,0.22439
3145.33238,0.22487
3147.26085,0.22318
3149.18932,0.21794
3151.11779,0.21506
3153.04626,0.21718
3154.97473,0.22153
3156.90320,0.22495
3158.83166,0.22686
3160.76013,0.23033
3162.68860,0.23451
3164.61707,0.23630
3166.54554,0.23558
3168.47401,0.23258
3170.40248,0.23201
3172.33094,0.23827
3174.25941,0.24328
3176.18788,0.23877
3178.11635,0.23244
3180.04482,0.23503
3181.97329,0.23986
3183.90176,0.23613
3185.83022,0.23028
3187.75869,0.22985
3189.68716,0.22812
3191.61563,0.22436
3193.54410,0.22397
3195.47257,0.22460
3197.40104,0.22440
3199.32951,0.22179
3201.25797,0.21780
3203.18644,0.21587
3205.11491,0.21912
3207.04338,0.23075
3208.97185,0.23591
3210.90032,0.22679
3212.82879,0.22237
3214.75725,0.22811
3216.68572,0.23079
3218.61419,0.22514
3220.54266,0.21804
3222.47113,0.21798
3224.39960,0.22254
3226.32807,0.22301
3228.25654,0.22123
3230.18500,0.22152
3232.11347,0.21933
3234.04194,0.21497
3235.97041,0.21615
3237.89888,0.22289
3239.82735,0.22607
3241.75582,0.22498
3243.68428,0.22894
3245.61275,0.23680
3247.54122,0.23608
3249.46969,0.22821
3251.39816,0.22836
3253.32663,0.23647
3255.25510,0.24016
3257.18357,0.23769
3259.11203,0.23297
3261.04050,0.22846
3262.96897,0.22578
3264.89744,0.22121
3266.82591,0.21528
3268.75438,0.21447
3270.68285,0.21616
3272.61131,0.21420
3274.53978,0.21380
3276.46825,0.22252
3278.39672,0.23295
3280.32519,0.23350
3282.25366,0.22469
3284.18213,0.21455
3286.11060,0.20969
3288.03906,0.20970
3289.96753,0.21067
3291.89600,0.21131
3293.82447,0.21378
3295.75294,0.22014
3297.68141,0.22623
3299.60988,0.22737
3301.53834,0.22703
3303.46681,0.22740
3305.39528,0.22716
3307.32375,0.22618
3309.25222,0.22446
3311.18069,0.22297
3313.10916,0.22079
3315.03763,0.22043
3316.96609,0.22384
3318.89456,0.22491
3320.82303,0.22278
3322.75150,0.22129
3324.67997,0.22180
3326.60844,0.22597
3328.53691,0.23106
3330.46537,0.23189
3332.39384,0.22964
3334.32231,0.22872
3336.25078,0.23191
3338.17925,0.23355
3340.10772,0.22557
3342.03619,0.21754
3343.96466,0.22066
3345.89312,0.22601
3347.82159,0.22307
3349.75006,0.21947
3351.67853,0.22365
3353.60700,0.22698
3355.53547,0.22698
3357.46394,0.22968
3359.39240,0.22844
3361.32087,0.22129
3363.24934,0.21959
3365.17781,0.22457
3367.10628,0.22687
3369.03475,0.22543
3370.96322,0.22465
3372.89168,0.22405
3374.82015,0.22350
3376.74862,0.22535
3378.67709,0.22937
3380.60556,0.23367
3382.53403,0.23550
3384.46250,0.23271
3386.39097,0.22638
3388.31943,0.22040
3390.24790,0.22027
3392.17637,0.22785
3394.10484,0.23570
3396.03331,0.23310
3397.96178,0.21834
3399.89025,0.20222
3401.81871,0.19558
3403.74718,0.19994
3405.67565,0.21324
3407.60412,0.22766
3409.53259,0.23369
3411.46106,0.23362
3413.38953,0.23015
3415.31800,0.22097
3417.24646,0.21032
3419.17493,0.20743
3421.10340,0.21411
3423.03187,0.21730
3424.96034,0.21127
3426.88881,0.20805
3428.81728,0.21108
3430.74574,0.21308
3432.67421,0.21188
3434.60268,0.20902
3436.53115,0.20800
3438.45962,0.21087
3440.38809,0.21583
3442.31656,0.21641
3444.24503,0.20997
3446.17349,0.20674
3448.10196,0.20743
3450.03043,0.20509
3451.95890,0.20380
3453.88737,0.20472
3455.81584,0.20363
3457.74431,0.20241
3459.67277,0.20742
3461.60124,0.21534
3463.52971,0.21706
3465.45818,0.21222
3467.38665,0.20593
3469.31512,0.20153
3471.24359,0.20025
3473.17206,0.20296
3475.10052,0.20459
3477.02899,0.19869
3478.95746,0.19164
3480.88593,0.19402
3482.81440,0.20322
3484.74287,0.21064
3486.67134,0.21370
3488.59980,0.21044
3490.52827,0.20342
3492.45674,0.19916
3494.38521,0.19801
3496.31368,0.19564
3498.24215,0.19252
3500.17062,0.19331
3502.09909,0.19829
3504.02755,0.20296
3505.95602,0.20287
3507.88449,0.19815
3509.81296,0.19062
3511.74143,0.18383
3513.66990,0.18010
3515.59837,0.17815
3517.52683,0.17958
3519.45530,0.18471
3521.38377,0.18828
3523.31224,0.18871
3525.24071,0.19024
3527.16918,0.19096
3529.09765,0.18765
3531.02611,0.18608
3532.95458,0.18628
3534.88305,0.18175
3536.81152,0.17399
3538.73999,0.17137
3540.66846,0.17763
3542.59693,0.18766
3544.52540,0.19319
3546.45386,0.19102
3548.38233,0.18668
3550.31080,0.18602
3552.23927,0.18494
3554.16774,0.17780
3556.09621,0.16930
3558.02468,0.16547
3559.95314,0.16743
3561.88161,0.17405
3563.81008,0.18561
3565.73855,0.19575
3567.66702,0.18890
3569.59549,0.17413
3571.52396,0.16801
3573.45243,0.16825
3575.38089,0.16875
3577.30936,0.16733
3579.23783,0.16741
3581.16630,0.16955
3583.09477,0.17371
3585.02324,0.18287
3586.95171,0.18932
3588.88017,0.18137
3590.80864,0.17389
3592.73711,0.17316
3594.66558,0.17245
3596.59405,0.17059
3598.52252,0.16778
3600.45099,0.16472
3602.37946,0.16368
3604.30792,0.16296
3606.23639,0.16417
3608.16486,0.17063
3610.09333,0.17626
3612.02180,0.17927
3613.95027,0.18093
3615.87874,0.17877
3617.80720,0.17696
3619.73567,0.17330
3621.66414,0.16607
3623.59261,0.16517
3625.52108,0.17119
3627.44955,0.17714
3629.37802,0.17501
3631.30649,0.16705
3633.23495,0.15916
3635.16342,0.14999
3637.09189,0.14132
3639.02036,0.13836
3640.94883,0.14312
3642.87730,0.15081
3644.80577,0.15814
3646.73423,0.16860
3648.66270,0.18225
3650.59117,0.17998
3652.51964,0.16810
3654.44811,0.16155
3656.37658,0.15480
3658.30505,0.14500
3660.23352,0.13859
3662.16198,0.13573
3664.09045,0.13447
3666.01892,0.13756
3667.94739,0.15046
3669.87586,0.16457
3671.80433,0.16088
3673.73280,0.15877
3675.66126,0.16634
3677.58973,0.16294
3679.51820,0.15128
3681.44667,0.14042
3683.37514,0.13641
3685.30361,0.13912
3687.23208,0.14426
3689.16055,0.15042
3691.08901,0.14869
3693.01748,0.14097
3694.94595,0.13680
3696.87442,0.13539
3698.80289,0.13318
3700.73136,0.12963
3702.65983,0.12777
3704.58829,0.13033
3706.51676,0.13444
3708.44523,0.14003
3710.37370,0.14999
3712.30217,0.15104
3714.23064,0.14315
3716.15911,0.14566
3718.08757,0.15405
3720.01604,0.15335
3721.94451,0.14350
3723.87298,0.13809
3725.80145,0.13870
3727.72992,0.13784
3729.65839,0.14090
3731.58686,0.15611
3733.51532,0.17587
3735.44379,0.17665
3737.37226,0.15652
3739.30073,0.14275
3741.22920,0.14463
3743.15767,0.15324
3745.08614,0.15408
3747.01460,0.15253
3748.94307,0.16181
3750.87154,0.17368
3752.80001,0.16954
3754.72848,0.16015
3756.65695,0.15450
3758.58542,0.15069
3760.51389,0.14667
3762.44235,0.14498
3764.37082,0.14616
3766.29929,0.14387
3768.22776,0.13688
3770.15623,0.13336
3772.08470,0.13633
3774.01317,0.14040
3775.94163,0.14131
3777.87010,0.13923
3779.79857,0.13505
3781.72704,0.12927
3783.65551,0.12610
3785.58398,0.12673
3787.51245,0.12740
3789.44092,0.12614
3791.36938,0.12495
3793.29785,0.12625
3795.22632,0.12951
3797.15479,0.13453
3799.08326,0.14461
3801.01173,0.15746
3802.94020,0.15962
3804.86866,0.15634
3806.79713,0.15134
3808.72560,0.13775
3810.65407,0.12505
3812.58254,0.12040
3814.51101,0.12448
3816.43948,0.13215
3818.36795,0.13657
3820.29641,0.13724
3822.22488,0.12895
3824.15335,0.12312
3826.08182,0.12458
3828.01029,0.12511
3829.93876,0.12362
3831.86723,0.12403
3833.79569,0.12741
3835.72416,0.13738
3837.65263,0.15698
3839.58110,0.16754
3841.50957,0.15579
3843.43804,0.13730
3845.36651,0.12525
3847.29498,0.12337
3849.22344,0.13040
3851.15191,0.14264
3853.08038,0.14832
3855.00885,0.13458
3856.93732,0.12403
3858.86579,0.12401
3860.79426,0.13014
3862.72272,0.13649
3864.65119,0.13750
3866.57966,0.13496
3868.50813,0.13533
3870.43660,0.13280
3872.36507,0.11928
3874.29354,0.10543
3876.22200,0.10362
3878.15047,0.11578
3880.07894,0.13058
3882.00741,0.13158
3883.93588,0.13121
3885.86435,0.13483
3887.79282,0.12902
3889.72129,0.12369
3891.64975,0.12474
3893.57822,0.12036
3895.50669,0.11233
3897.43516,0.11414
3899.36363,0.13061
3901.29210,0.14347
3903.22057,0.13730
3905.14903,0.12557
3907.07750,0.11810
3909.00597,0.11080
3910.93444,0.10383
3912.86291,0.10262
3914.79138,0.10932
3916.71985,0.12057
3918.64832,0.12812
3920.57678,0.12581
3922.50525,0.11693
3924.43372,0.10993
3926.36219,0.10886
3928.29066,0.10830
3930.21913,0.10625
3932.14760,0.10544
3934.07606,0.10462
3936.00453,0.10348
3937.93300,0.10490
3939.86147,0.10933
3941.78994,0.11329
3943.71841,0.11428
3945.64688,0.11525
3947.57535,0.11757
3949.50381,0.11682
3951.43228,0.10937
3953.36075,0.10179
3955.28922,0.10307
3957.21769,0.10860
3959.14616,0.10816
3961.07463,0.10523
3963.00309,0.10868
3964.93156,0.11543
3966.86003,0.11571
3968.78850,0.10878
3970.71697,0.10157
3972.64544,0.09805
3974.57391,0.09976
3976.50238,0.10341
3978.43084,0.10037
3980.35931,0.09279
3982.28778,0.09111
3984.21625,0.09392
3986.14472,0.09471
3988.07319,0.09623
3990.00166,0.09949
3991.93012,0.10011
3993.85859,0.09716
3995.78706,0.09223
3997.71553,0.08701
3999.64400,0.08403
4001.57247,0.08572
4003.50094,0.09023
4005.42941,0.09392
4007.35787,0.09594
4009.28634,0.09622
4011.21481,0.09591
4013.14328,0.09572
4015.07175,0.09602
4017.00022,0.09825
4018.92869,0.09928
4020.85715,0.09534
4022.78562,0.09130
4024.71409,0.09309
4026.64256,0.09717
4028.57103,0.09753
4030.49950,0.09609
4032.42797,0.09928
4034.35644,0.10713
4036.28490,0.10930
4038.21337,0.10156
4040.14184,0.09399
4042.07031,0.09221
4043.99878,0.09341
4045.92725,0.09554
4047.85572,0.09574
4049.78418,0.09570
4051.71265,0.09764
4053.64112,0.09621
4055.56959,0.09185
4057.49806,0.08851
4059.42653,0.08832
4061.35500,0.09609
4063.28346,0.10425
4065.21193,0.10021
4067.14040,0.09064
4069.06887,0.08825
4070.99734,0.09056
4072.92581,0.08850
4074.85428,0.08278
4076.78275,0.08157
4078.71121,0.08448
4080.63968,0.08254
4082.56815,0.07637
4084.49662,0.07448
4086.42509,0.07915
4088.35356,0.08606
4090.28203,0.08665
4092.21049,0.07944
4094.13896,0.07593
4096.06743,0.07933
4097.99590,0.08245
4099.92437,0.08210
4101.85284,0.07691
4103.78131,0.07409
4105.70978,0.07822
4107.63824,0.07874
4109.56671,0.07537
4111.49518,0.07773
4113.42365,0.08552
4115.35212,0.09077
4117.28059,0.08914
4119.20906,0.08268
4121.13752,0.07396
4123.06599,0.06791
4124.99446,0.06705
4126.92293,0.07098
4128.85140,0.08052
4130.77987,0.08720
4132.70834,0.08570
4134.63681,0.08386
4136.56527,0.08372
4138.49374,0.08161
4140.42221,0.07685
4142.35068,0.07016
4144.27915,0.06875
4146.20762,0.07775
4148.13609,0.08441
4150.06455,0.08124
4151.99302,0.08116
4153.92149,0.08760
4155.84996,0.08946
4157.77843,0.08527
4159.70690,0.07882
4161.63537,0.07003
4163.56384,0.06420
4165.49230,0.06731
4167.42077,0.07530
4169.34924,0.07914
4171.27771,0.07290
4173.20618,0.06188
4175.13465,0.05702
4177.06312,0.05862
4178.99158,0.05989
4180.92005,0.05803
4182.84852,0.05735
4184.77699,0.06736
4186.70546,0.08267
4188.63393,0.07769
4190.56240,0.05173
4192.49087,0.03805
4194.41933,0.04661
4196.34780,0.06169
4198.27627,0.07305
4200.20474,0.07624
4202.13321,0.07512
4204.06168,0.07409
4205.99015,0.07016
4207.91861,0.06480
4209.84708,0.06664
4211.77555,0.07425
4213.70402,0.07407
4215.63249,0.06722
4217.56096,0.06522
4219.48943,0.06542
4221.41789,0.06242
4223.34636,0.06161
4225.27483,0.06584
4227.20330,0.06661
4229.13177,0.06123
4231.06024,0.05644
4232.98871,0.05229
4234.91718,0.05097
4236.84564,0.05775
4238.77411,0.06410
4240.70258,0.06424
4242.63105,0.06372
4244.55952,0.06337
4246.48799,0.06245
4248.41646,0.05897
4250.34492,0.04968
4252.27339,0.04186
4254.20186,0.04190
4256.13033,0.04615
4258.05880,0.05416
4259.98727,0.06468
4261.91574,0.06855
4263.84421,0.06282
4265.77267,0.05469
4267.70114,0.04885
4269.62961,0.04702
4271.55808,0.05123
4273.48655,0.05348
4275.41502,0.04657
4277.34349,0.03992
4279.27195,0.04242
4281.20042,0.05012
4283.12889,0.05197
4285.05736,0.04660
4286.98583,0.04808
4288.91430,0.05820
4290.84277,0.06029
4292.77124,0.04907
4294.69970,0.03691
4296.62817,0.03030
4298.55664,0.02631
4300.48511,0.02579
4302.41358,0.02974
4304.34205,0.03516
4306.27052,0.03929
4308.19898,0.03907
4310.12745,0.03304
4312.05592,0.02718
4313.98439,0.02839
4315.91286,0.03490
4317.84133,0.04143
4319.76980,0.04320
4321.69827,0.04412
4323.62673,0.05285
4325.55520,0.06147
4327.48367,0.05611
4329.41214,0.04104
4331.34061,0.03174
4333.26908,0.02944
4335.19755,0.02746
4337.12601,0.02792
4339.05448,0.02945
4340.98295,0.03100
4342.91142,0.03676
4344.83989,0.04463
4346.76836,0.05328
4348.69683,0.06545
4350.62530,0.07484
4352.55376,0.07176
4354.48223,0.05197
4356.41070,0.02639
4358.33917,0.01789
4360.26764,0.02358
4362.19611,0.02864
4364.12458,0.03033
4366.05304,0.02431
4367.98151,0.01956
4369.90998,0.02540
4371.83845,0.02811
4373.76692,0.02193
4375.69539,0.01618
4377.62386,0.01466
4379.55232,0.01485
4381.48079,0.01112
4383.40926,0.00766
4385.33773,0.01274
4387.26620,0.01726
4389.19467,0.01588
4391.12314,0.01467
4393.05161,0.01312
4394.98007,0.01217
4396.90854,0.01438
4398.83701,0.01356
4400.76548,0.00962
4402.69395,0.01367
4404.62242,0.02637
4406.55089,0.03144
4408.47935,0.01979
4410.40782,0.00744
4412.33629,0.00370
4414.26476,-0.00136
4416.19323,-0.00387
4418.12170,0.00274
4420.05017,0.01299
4421.97864,0.01893
4423.90710,0.01542
4425.83557,0.01006
4427.76404,0.01368
4429.69251,0.02141
4431.62098,0.02014
4433.54945,0.01179
4435.47792,0.00778
4437.40638,0.00610
4439.33485,0.00327
4441.26332,0.00290
4443.19179,0.00370
4445.12026,0.00495
4447.04873,0.00964
4448.97720,0.01418
4450.90567,0.01456
4452.83413,0.01632
4454.76260,0.01887
4456.69107,0.01530
4458.61954,0.01237
4460.54801,0.01962
4462.47648,0.02808
4464.40495,0.02459
4466.33341,0.01255
4468.26188,0.00207
4470.19035,0.00263
4472.11882,0.01336
4474.04729,0.01593
4475.97576,0.00407
4477.90423,-0.00515
4479.83270,-0.00270
4481.76116,0.00185
4483.68963,0.00278
4485.61810,0.00544
4487.54657,0.01023
4489.47504,0.01154
4491.40351,0.00791
4493.33198,0.00297
4495.26044,0.00212
4497.18891,0.00693
4499.11738,0.01118
4501.04585,0.01314
4502.97432,0.01295
4504.90279,0.00849
4506.83126,0.00902
4508.75973,0.01530
4510.68819,0.01377
4512.61666,0.00281
4514.54513,-0.00489
4516.47360,-0.00238
4518.40207,0.00253
4520.33054,0.00438
4522.25901,0.00076
4524.18747,-0.01337
4526.11594,-0.02702
4528.04441,-0.02284
4529.97288,-0.00780
4531.90135,0.00010
4533.82982,-0.00286
4535.75829,-0.01240
4537.68676,-0.01921
4539.61522,-0.01412
4541.54369,-0.00355
4543.47216,0.00002
4545.40063,-0.00385
4547.32910,-0.00977
4549.25757,-0.01388
4551.18604,-0.01101
4553.11450,-0.00166
4555.04297,0.00704
4556.97144,0.01211
4558.89991,0.01303
4560.82838,0.01025
4562.75685,0.00829
4564.68532,0.00668
4566.61378,0.00304
4568.54225,0.00361
4570.47072,0.00721
4572.39919,0.00731
4574.32766,0.00982
4576.25613,0.01854
4578.18460,0.02721
4580.11307,0.03095
4582.04153,0.02511
4583.97000,0.01051
4585.89847,0.00008
4587.82694,0.00004
4589.75541,-0.00001
4591.68388,-0.00602
4593.61235,-0.01042
4595.54081,-0.00827
4597.46928,-0.00631
4599.39775,-0.00847
4601.32622,-0.00609
4603.25469,0.00272
4605.18316,0.00944
4607.11163,0.01360
4609.04010,0.01443
4610.96856,0.00623
4612.89703,-0.00055
4614.82550,0.00690
4616.75397,0.01604
4618.68244,0.00792
4620.61091,-0.00401
4622.53938,0.00559
4624.46784,0.02569
4626.39631,0.03437
4628.32478,0.03259
4630.25325,0.02487
4632.18172,0.01147
4634.11019,-0.00142
4636.03866,-0.00464
4637.96713,0.00374
4639.89559,0.01292
4641.82406,0.01464
4643.75253,0.00989
4645.68100,0.00256
4647.60947,-0.00057
4649.53794,0.00093
4651.46641,0.00042
4653.39487,-0.00541
4655.32334,-0.00883
4657.25181,0.00121
4659.18028,0.01179
4661.10875,0.00647
4663.03722,-0.00179
4664.96569,0.00595
4666.89416,0.01956
4668.82262,0.01542
4670.75109,-0.00462
4672.67956,-0.01464
4674.60803,-0.00666
4676.53650,0.00272
4678.46497,0.00901
4680.39344,0.01992
4682.32190,0.02730
4684.25037,0.02417
4686.17884,0.02298
4688.10731,0.02156
4690.03578,0.00622
4691.96425,-0.01205
4693.89272,-0.01768
4695.82119,-0.01064
4697.74965,0.00352
4699.67812,0.01686
4701.60659,0.01858
4703.53506,0.01121
4705.46353,0.00819
4707.39200,0.00415
4709.32047,-0.01054
4711.24893,-0.02137
4713.17740,-0.01374
4715.10587,0.00143
4717.03434,0.01045
4718.96281,0.00913
4720.89128,-0.00031
4722.81975,-0.00539
4724.74821,-0.00430
4726.67668,-0.00258
4728.60515,0.00657
4730.53362,0.01671
4732.46209,0.01364
4734.39056,0.00498
4736.31903,0.00222
4738.24750,-0.00523
4740.17596,-0.02106
4742.10443,-0.02351
4744.03290,-0.00830
4745.96137,0.00242
4747.88984,-0.00570
4749.81831,-0.02567
4751.74678,-0.03441
4753.67524,-0.02070
4755.60371,0.00189
4757.53218,0.01504
4759.46065,0.01751
4761.38912,0.01839
4763.31759,0.01619
4765.24606,0.00931
4767.17453,0.00302
4769.10299,0.00235
4771.03146,0.00505
4772.95993,0.00803
4774.88840,0.01437
4776.81687,0.01740
4778.74534,0.01010
4780.67381,0.00469
4782.60227,0.00980
4784.53074,0.00922
4786.45921,-0.00241
4788.38768,-0.00413
4790.31615,0.01075
4792.24462,0.02644
4794.17309,0.03044
4796.10156,0.02380
4798.03002,0.01470
4799.95849,0.01163
4801.88696,0.01637
4803.81543,0.01379
4805.74390,-0.00474
4807.67237,-0.02522
4809.60084,-0.03226
4811.52930,-0.02189
4813.45777,-0.01004
4815.38624,-0.00591
4817.31471,0.00720
4819.24318,0.02212
4821.17165,0.01978
4823.10012,0.00660
4825.02859,-0.00090
4826.95705,0.00188
4828.88552,0.00375
4830.81399,-0.00117
4832.74246,-0.00481
4834.67093,-0.00239
4836.59940,-0.00005
4838.52787,-0.00354
4840.45633,-0.00874
4842.38480,-0.00731
4844.31327,0.00114
4846.24174,0.00593
4848.17021,0.00534
4850.09868,0.00707
4852.02715,0.01074
4853.95562,0.01443
4855.88408,0.01064
4857.81255,-0.00398
4859.74102,-0.01236
4861.66949,-0.00807
4863.59796,-0.00175
4865.52643,0.00776
4867.45490,0.02157
4869.38336,0.02836
4871.31183,0.02577
4873.24030,0.02196
4875.16877,0.01627
4877.09724,0.01024
4879.02571,0.01102
4880.95418,0.01860
4882.88265,0.02401
4884.81111,0.01811
4886.73958,0.00447
4888.66805,-0.00101
4890.59652,0.01115
4892.52499,0.02477
4894.45346,0.01405
4896.38193,-0.00433
4898.31039,0.00326
4900.23886,0.02095
4902.16733,0.02214
4904.09580,0.01341
4906.02427,0.00516
4907.95274,0.00254
4909.88121,0.00137
4911.80967,-0.00499
4913.73814,-0.00656
4915.66661,-0.00168
4917.59508,0.00369
4919.52355,0.01124
4921.45202,0.01916
4923.38049,0.02036
4925.30896,0.01040
4927.23742,0.00681
4929.16589,0.01377
4931.09436,0.01320
4933.02283,0.01243
4934.95130,0.01400
4936.87977,-0.00188
4938.80824,-0.02203
4940.73670,-0.01957
4942.66517,-0.01031
4944.59364,-0.01082
4946.52211,-0.00834
4948.45058,0.00226
4950.37905,0.00975
4952.30752,0.00492
4954.23599,0.00042
4956.16445,0.01558
4958.09292,0.03692
4960.02139,0.03693
4961.94986,0.02541
4963.87833,0.02063
4965.80680,0.01400
4967.73527,0.01031
4969.66373,0.01724
4971.59220,0.01507
4973.52067,-0.00471
4975.44914,-0.01677
4977.37761,-0.00912
4979.30608,0.00698
4981.23455,0.02159
4983.16302,0.01727
4985.09148,-0.00505
4987.01995,-0.01458
4988.94842,-0.00487
4990.87689,0.00329
4992.80536,0.00930
4994.73383,0.01173
4996.66230,0.00324
4998.59076,0.00412
5000.51923,0.00559
5002.44770,-0.01988
5004.37617,-0.04261
5006.30464,-0.03594
5008.23311,-0.02500
5010.16158,-0.02644
5012.09005,-0.02064
5014.01851,0.00271
5015.94698,0.01407
5017.87545,0.00510
5019.80392,0.00264
5021.73239,0.00974
5023.66086,0.01483
5025.58933,0.01873
5027.51779,0.02382
5029.44626,0.02498
5031.37473,0.01864
5033.30320,0.01220
5035.23167,0.01487
5037.16014,0.02119
5039.08861,0.02083
5041.01708,0.01808
5042.94554,0.01879
5044.87401,0.01922
5046.80248,0.01046
5048.73095,-0.00733
5050.65942,-0.01666
5052.58789,-0.00310
5054.51636,0.02558
5056.44482,0.03652
5058.37329,0.01896
5060.30176,0.00918
5062.23023,0.01542
5064.15870,0.01059
5066.08717,0.00443
5068.01564,0.01112
5069.94410,0.01794
5071.87257,0.01548
5073.80104,0.00256
5075.72951,-0.00960
5077.65798,-0.01260
5079.58645,-0.01554
5081.51492,-0.01925
5083.44339,-0.01542
5085.37185,-0.00619
5087.30032,0.00696
5089.22879,0.01937
5091.15726,0.01706
5093.08573,0.00164
5095.01420,-0.01568
5096.94267,-0.01619
5098.87113,0.00067
5100.79960,0.00600
5102.72807,-0.00133
5104.65654,0.00023
5106.58501,0.00704
5108.51348,-0.00132
5110.44195,-0.02816
5112.37042,-0.04025
5114.29888,-0.01804
5116.22735,0.00428
5118.15582,0.00045
5120.08429,-0.00355
5122.01276,0.01548
5123.94123,0.03040
5125.86970,0.02222
5127.79816,0.00803
5129.72663,0.00011
5131.65510,0.00726
5133.58357,0.02738
5135.51204,0.03331
5137.44051,0.03019
5139.36898,0.06473
5141.29745,0.11521
5143.22591,0.10941
5145.15438,0.05617
5147.08285,0.01025
5149.01132,-0.01250
5150.93979,-0.01572
5152.86826,-0.00757
5154.79673,0.00328
5156.72519,0.02299
5158.65366,0.04083
5160.58213,0.03656
5162.51060,0.02287
5164.43907,0.02036
5166.36754,0.02532
5168.29601,0.02186
5170.22448,0.01593
5172.15294,0.02114
5174.08141,0.03263
5176.00988,0.04520
5177.93835,0.04692
5179.86682,0.03143
5181.79529,0.01653
5183.72376,0.02281
5185.65222,0.04860
5187.58069,0.06629
5189.50916,0.05639
5191.43763,0.03127
5193.36610,0.01731
5195.29457,0.01370
5197.22304,0.01029
5199.15151,0.02036
5201.07997,0.03996
5203.00844,0.04527
5204.93691,0.03330
5206.86538,0.01911
5208.79385,0.01768
5210.72232,0.03550
5212.65079,0.05457
5214.57925,0.04651
5216.50772,0.02491
5218.43619,0.01992
5220.36466,0.02269
5222.29313,0.02045
5224.22160,0.01900
5226.15007,0.02204
5228.07854,0.03011
5230.00700,0.02552
5231.93547,0.00669
5233.86394,0.01528
5235.79241,0.05396
5237.72088,0.07548
5239.64935,0.06487
5241.57782,0.04938
5243.50628,0.05032
5245.43475,0.04948
5247.36322,0.02913
5249.29169,0.01073
5251.22016,0.00896
5253.14863,0.01975
5255.07710,0.02508
5257.00556,0.01788
5258.93403,0.02531
5260.86250,0.03740
5262.79097,0.02928
5264.71944,0.02501
5266.64791,0.04148
5268.57638,0.05215
5270.50485,0.04254
5272.43331,0.03072
5274.36178,0.03552
5276.29025,0.05739
5278.21872,0.07371
5280.14719,0.07054
5282.07566,0.05707
5284.00413,0.03390
5285.93259,0.01618
5287.86106,0.02710
5289.78953,0.05194
5291.71800,0.05916
5293.64647,0.05243
5295.57494,0.04595
5297.50341,0.03271
5299.43188,0.02232
5301.36034,0.02829
5303.28881,0.04336
5305.21728,0.05860
5307.14575,0.05762
5309.07422,0.03115
5311.00269,-0.00067
5312.93116,-0.01814
5314.85962,-0.01410
5316.78809,0.00806
5318.71656,0.03165
5320.64503,0.04528
5322.57350,0.05491
5324.50197,0.05885
5326.43044,0.04539
5328.35891,0.02761
5330.28737,0.03183
5332.21584,0.04889
5334.14431,0.05296
5336.07278,0.05921
5338.00125,0.08337
5339.92972,0.08434
5341.85819,0.04653
5343.78665,0.00387
5345.71512,-0.00748
5347.64359,0.01221
5349.57206,0.02769
5351.50053,0.01065
5353.42900,-0.01732
5355.35747,-0.00927
5357.28594,0.02329
5359.21440,0.05058
5361.14287,0.05341
5363.07134,0.04619
5364.99981,0.05698
5366.92828,0.06277
5368.85675,0.05533
5370.78522,0.05374
5372.71368,0.05189
5374.64215,0.04861
5376.57062,0.04218
5378.49909,0.02907
5380.42756,0.03526
5382.35603,0.04711
5384.28450,0.03993
5386.21297,0.04294
5388.14143,0.05168
5390.06990,0.04309
5391.99837,0.03760
5393.92684,0.03364
5395.85531,0.02962
5397.78378,0.04675
5399.71225,0.07109
5401.64071,0.08182
5403.56918,0.07448
5405.49765,0.04877
5407.42612,0.02447
5409.35459,0.03513
5411.28306,0.07322
5413.21153,0.08255
5415.13999,0.06348
5417.06846,0.06706
5418.99693,0.08177
5420.92540,0.06855
5422.85387,0.02931
5424.78234,-0.00315
5426.71081,0.00375
5428.63928,0.05351
5430.56774,0.08569
5432.49621,0.06738
5434.42468,0.03070
5436.35315,0.01492
5438.28162,0.03061
5440.21009,0.05768
5442.13856,0.07314
5444.06702,0.07595
5445.99549,0.08754
5447.92396,0.10628
5449.85243,0.09092
5451.78090,0.04531
5453.70937,0.02017
5455.63784,0.02360
5457.56631,0.02931
5459.49477,0.03134
5461.42324,0.03412
5463.35171,0.03458
5465.28018,0.03475
5467.20865,0.04184
5469.13712,0.05562
5471.06559,0.06407
5472.99405,0.07059
5474.92252,0.08301
5476.85099,0.07653
5478.77946,0.04988
5480.70793,0.04313
5482.63640,0.07464
5484.56487,0.11770
5486.49334,0.12068
5488.42180,0.08172
5490.35027,0.06360
5492.27874,0.08872
5494.20721,0.11000
5496.13568,0.10218
5498.06415,0.08371
5499.99262,0.06408
5501.92108,0.04956
5503.84955,0.04871
5505.77802,0.04388
5507.70649,0.02135
5509.63496,0.01049
5511.56343,0.03095
5513.49190,0.05303
5515.42037,0.05527
5517.34883,0.04371
5519.27730,0.01451
5521.20577,-0.00594
5523.13424,0.02004
5525.06271,0.06512
5526.99118,0.08348
5528.91965,0.08445
5530.84811,0.08902
5532.77658,0.08883
5534.70505,0.07151
5536.63352,0.04306
5538.56199,0.02852
5540.49046,0.03268
5542.41893,0.03886
5544.34740,0.03748
5546.27586,0.01645
5548.20433,-0.01268
5550.13280,-0.01264
5552.06127,0.02286
5553.98974,0.05062
5555.91821,0.05069
5557.84668,0.04799
5559.77514,0.04353
5561.70361,0.04959
5563.63208,0.06898
5565.56055,0.07831
5567.48902,0.09651
5569.41749,0.12656
5571.34596,0.13272
5573.27443,0.09709
5575.20289,0.05917
5577.13136,0.06464
5579.05983,0.09300
5580.98830,0.12184
5582.91677,0.13871
5584.84524,0.12627
5586.77371,0.10243
5588.70217,0.09081
5590.63064,0.08324
5592.55911,0.06746
5594.48758,0.05566
5596.41605,0.07483
5598.34452,0.10943
5600.27299,0.10448
5602.20145,0.07421
5604.12992,0.07437
5606.05839,0.10061
5607.98686,0.11801
5609.91533,0.10603
5611.84380,0.07485
5613.77227,0.04923
5615.70074,0.02303
5617.62920,-0.00382
5619.55767,0.00000
5621.48614,0.03676
5623.41461,0.07542
5625.34308,0.10732
5627.27155,0.13144
5629.20002,0.10585
5631.12848,0.04588
5633.05695,0.03939
5634.98542,0.08615
5636.91389,0.12321
5638.84236,0.13607
5640.77083,0.12432
5642.69930,0.09434
5644.62777,0.06779
5646.55623,0.05177
5648.48470,0.02321
5650.41317,-0.01371
5652.34164,-0.00948
5654.27011,0.02946
5656.19858,0.06065
5658.12705,0.08089
5660.05551,0.09074
5661.98398,0.08465
5663.91245,0.08148
5665.84092,0.09597
5667.76939,0.10078
5669.69786,0.07853
5671.62633,0.05543
5673.55480,0.04453
5675.48326,0.04164
5677.41173,0.05079
5679.34020,0.07197
5681.26867,0.08905
5683.19714,0.08219
5685.12561,0.08172
5687.05408,0.12430
5688.98254,0.15778
5690.91101,0.12417
5692.83948,0.07496
5694.76795,0.06555
5696.69642,0.06959
5698.62489,0.05836
5700.55336,0.05472
5702.48183,0.06530
5704.41029,0.05872
5706.33876,0.04490
5708.26723,0.04495
5710.19570,0.04134
5712.12417,0.04089
5714.05264,0.06102
5715.98111,0.07632
5717.90957,0.07006
5719.83804,0.07364
5721.76651,0.09033
5723.69498,0.06580
5725.62345,0.01000
5727.55192,-0.00763
5729.48039,0.01492
5731.40886,0.03784
5733.33732,0.04860
5735.26579,0.05488
5737.19426,0.07532
5739.12273,0.09159
5741.05120,0.08700
5742.97967,0.08448
5744.90814,0.08330
5746.83660,0.06957
5748.76507,0.06109
5750.69354,0.08530
5752.62201,0.13801
5754.55048,0.17034
5756.47895,0.14098
5758.40742,0.09012
5760.33588,0.06635
5762.26435,0.05317
5764.19282,0.04430
5766.12129,0.06232
5768.04976,0.08510
5769.97823,0.08192
5771.90670,0.08145
5773.83517,0.11500
5775.76363,0.15179
5777.69210,0.14952
5779.62057,0.11504
5781.54904,0.10029
5783.47751,0.11841
5785.40598,0.10650
5787.33445,0.04951
5789.26291,0.01795
5791.19138,0.02174
5793.11985,0.04014
5795.04832,0.07082
5796.97679,0.08424
5798.90526,0.07969
5800.83373,0.07078
5802.76220,0.04107
5804.69066,0.01331
5806.61913,0.04863
5808.54760,0.11469
5810.47607,0.11682
5812.40454,0.06125
5814.33301,0.03042
5816.26148,0.03045
5818.18994,0.02647
5820.11841,0.04712
5822.04688,0.09034
5823.97535,0.09917
5825.90382,0.08191
5827.83229,0.05748
5829.76076,0.03675
5831.68923,0.04979
5833.61769,0.09197
5835.54616,0.12678
5837.47463,0.13682
5839.40310,0.13414
5841.33157,0.11937
5843.26004,0.09300
5845.18851,0.09344
5847.11697,0.12025
5849.04544,0.11625
5850.97391,0.08271
5852.90238,0.06439
5854.83085,0.06478
5856.75932,0.07254
5858.68779,0.07562
5860.61626,0.08518
5862.54472,0.09617
5864.47319,0.06068
5866.40166,0.00997
5868.33013,0.01306
5870.25860,0.03864
5872.18707,0.04842
5874.11554,0.05463
5876.04400,0.04302
5877.97247,0.01010
5879.90094,-0.00622
5881.82941,0.00331
5883.75788,0.03378
5885.68635,0.07489
5887.61482,0.09434
5889.54329,0.09599
5891.47175,0.12261
5893.40022,0.16879
5895.32869,0.19415
5897.25716,0.18061
5899.18563,0.14132
5901.11410,0.11269
5903.04257,0.10335
5904.97103,0.09745
5906.89950,0.10573
5908.82797,0.14742
5910.75644,0.19310
5912.68491,0.16342
5914.61338,0.06813
5916.54185,0.01348
5918.47032,0.01483
5920.39878,0.01679
5922.32725,0.00012
5924.25572,-0.02326
5926.18419,-0.01068
5928.11266,0.04630
5930.04113,0.06837
5931.96960,0.03607
5933.89806,0.03876
5935.82653,0.09194
5937.75500,0.10348
5939.68347,0.05233
5941.61194,-0.00504
5943.54041,-0.02260
5945.46888,0.00232
5947.39734,0.03561
5949.32581,0.05448
5951.25428,0.04972
5953.18275,0.01717
5955.11122,-0.00231
5957.03969,0.01260
5958.96816,0.04084
5960.89663,0.05238
5962.82509,0.03684
5964.75356,0.06078
5966.68203,0.12360
5968.61050,0.12288
5970.53897,0.06091
5972.46744,0.00907
5974.39591,-0.00763
5976.32437,0.00241
5978.25284,0.02271
5980.18131,0.04920
5982.10978,0.08057
5984.03825,0.10611
5985.96672,0.10259
5987.89519,0.07591
5989.82366,0.06493
5991.75212,0.06339
5993.68059,0.05726
5995.60906,0.07656
5997.53753,0.10772
5999.46600,0.12297
6001.39447,0.12537
6003.32294,0.08154
6005.25140,0.02112
6007.17987,0.01925
6009.10834,0.04168
6011.03681,0.06674
6012.96528,0.10535
6014.89375,0.13853
6016.82222,0.16609
6018.75069,0.15355
6020.67915,0.07774
6022.60762,0.01848
6024.53609,0.01686
6026.46456,0.04365
6028.39303,0.09417
6030.32150,0.13983
6032.24997,0.14215
6034.17843,0.13784
6036.10690,0.13808
6038.03537,0.12727
6039.96384,0.11650
6041.89231,0.09135
6043.82078,0.07812
6045.74925,0.09936
6047.67772,0.10132
6049.60618,0.06331
6051.53465,0.03611
6053.46312,0.05469
6055.39159,0.08754
6057.32006,0.08768
6059.24853,0.07785
6061.17700,0.06173
6063.10546,0.01734
6065.03393,0.00331
6066.96240,0.02714
6068.89087,0.05158
6070.81934,0.09637
6072.74781,0.12238
6074.67628,0.09108
6076.60475,0.08774
6078.53321,0.13755
6080.46168,0.16398
6082.39015,0.15952
6084.31862,0.15572
6086.24709,0.13389
6088.17556,0.07393
6090.10403,0.02924
6092.03249,0.03851
6093.96096,0.03426
6095.88943,-0.01188
6097.81790,-0.03239
6099.74637,-0.00918
6101.67484,0.03459
6103.60331,0.07611
6105.53177,0.08824
6107.46024,0.08657
6109.38871,0.09039
6111.31718,0.08786
6113.24565,0.08716
6115.17412,0.09476
6117.10259,0.10111
6119.03106,0.11207
6120.95952,0.14455
6122.88799,0.15756
6124.81646,0.12697
6126.74493,0.10880
6128.67340,0.12107
6130.60187,0.14032
6132.53034,0.14744
6134.45880,0.13722
6136.38727,0.12116
6138.31574,0.09074
6140.24421,0.06620
6142.17268,0.06774
6144.10115,0.06884
6146.02962,0.06822
6147.95809,0.07687
6149.88655,0.08399
6151.81502,0.08279
6153.74349,0.07653
6155.67196,0.07800
6157.60043,0.09202
6159.52890,0.10804
6161.45737,0.13925
6163.38583,0.17036
6165.31430,0.15672
6167.24277,0.11920
6169.17124,0.08831
6171.09971,0.06454
6173.02818,0.04808
6174.95665,0.05749
6176.88512,0.08651
6178.81358,0.10216
6180.74205,0.10347
6182.67052,0.06514
6184.59899,-0.01307
6186.52746,-0.06901
6188.45593,-0.06449
6190.38440,-0.01546
6192.31286,-0.00156
6194.24133,-0.02811
6196.16980,-0.01569
6198.09827,0.01205
6200.02674,0.01246
6201.95521,-0.01003
6203.88368,-0.04104
6205.81215,-0.01908
6207.74061,0.05646
6209.66908,0.10400
6211.59755,0.11015
6213.52602,0.14028
6215.45449,0.16643
6217.38296,0.14476
6219.31143,0.11317
6221.23989,0.08166
6223.16836,0.04173
6225.09683,0.01282
6227.02530,-0.01226
6228.95377,-0.01603
6230.88224,0.05216
6232.81071,0.11635
6234.73918,0.08213
6236.66764,0.04388
6238.59611,0.07740
6240.52458,0.12479
6242.45305,0.13806
6244.38152,0.14288
6246.30999,0.14377
6248.23846,0.11449
6250.16692,0.06528
6252.09539,0.06198
6254.02386,0.09195
6255.95233,0.07690
6257.88080,0.05477
6259.80927,0.07607
6261.73774,0.10269
6263.66621,0.11130
6265.59467,0.08251
6267.52314,0.02641
6269.45161,0.02027
6271.38008,0.06444
6273.30855,0.08947
6275.23702,0.05953
6277.16549,0.01145
6279.09395,0.02405
6281.02242,0.10829
6282.95089,0.17760
6284.87936,0.18482
6286.80783,0.16548
6288.73630,0.12682
6290.66477,0.08104
6292.59323,0.06418
6294.52170,0.04878
6296.45017,0.00524
6298.37864,-0.03219
6300.30711,-0.02114
6302.23558,0.03778
6304.16405,0.10309
6306.09252,0.15744
6308.02098,0.19087
6309.94945,0.18592
6311.87792,0.18384
6313.80639,0.20020
6315.73486,0.18494
6317.66333,0.14898
6319.59180,0.10582
6321.52026,0.07271
6323.44873,0.08218
6325.37720,0.08145
6327.30567,0.06778
6329.23414,0.04525
6331.16261,-0.01454
6333.09108,-0.03770
6335.01955,0.00632
6336.94801,0.03678
6338.87648,-0.00163
6340.80495,-0.04213
6342.73342,0.00327
6344.66189,0.08530
6346.59036,0.11953
6348.51883,0.09302
6350.44729,0.05725
6352.37576,0.05499
6354.30423,0.05191
6356.23270,0.02182
6358.16117,-0.00506
6360.08964,0.01034
6362.01811,0.05574
6363.94658,0.10204
6365.87504,0.12296
6367.80351,0.07286
6369.73198,-0.00264
6371.66045,-0.05265
6373.58892,-0.08280
6375.51739,-0.04746
6377.44586,0.04898
6379.37432,0.10778
6381.30279,0.06005
6383.23126,-0.02731
6385.15973,-0.00967
6387.08820,0.06059
6389.01667,0.08228
6390.94514,0.09232
6392.87361,0.12704
6394.80207,0.14691
6396.73054,0.15524
6398.65901,0.17493
6400.58748,0.11973
6402.51595,-0.00300
6404.44442,0.00234
6406.37289,0.10765
6408.30135,0.15724
6410.22982,0.19061
6412.15829,0.20939
6414.08676,0.18750
6416.01523,0.15294
6417.94370,0.11662
6419.87217,0.12627
6421.80064,0.16471
6423.72910,0.17232
6425.65757,0.18436
6427.58604,0.22850
6429.51451,0.20994
6431.44298,0.10153
6433.37145,0.02421
6435.29992,0.00343
6437.22838,-0.02186
6439.15685,-0.02361
6441.08532,0.04090
6443.01379,0.10519
6444.94226,0.09756
6446.87073,0.06041
6448.79920,0.03652
6450.72766,0.01130
6452.65613,-0.01709
6454.58460,-0.02098
6456.51307,0.02397
6458.44154,0.09453
6460.37001,0.10438
6462.29848,0.03892
6464.22695,-0.01531
6466.15541,-0.03508
6468.08388,-0.04070
6470.01235,-0.00113
6471.94082,0.03678
6473.86929,0.02581
6475.79776,0.04888
6477.72623,0.09911
6479.65469,0.09468
6481.58316,0.04868
6483.51163,0.01878
6485.44010,0.01555
6487.36857,0.01033
6489.29704,-0.02714
6491.22551,-0.09836
6493.15398,-0.13599
6495.08244,-0.10606
6497.01091,-0.01052
6498.93938,0.11953
6500.86785,0.13115
6502.79632,0.01176
6504.72479,-0.00837
6506.65326,0.09900
6508.58172,0.16434
6510.51019,0.14833
6512.43866,0.12348
6514.36713,0.12438
6516.29560,0.13134
6518.22407,0.09840
6520.15254,0.05521
6522.08101,0.04627
6524.00947,0.06881
6525.93794,0.11115
6527.86641,0.14355
6529.79488,0.10920
6531.72335,0.00502
6533.65182,-0.05041
6535.58029,0.00679
6537.50875,0.08858
6539.43722,0.11355
6541.36569,0.08749
6543.29416,0.05363
6545.22263,0.03029
6547.15110,-0.01846
6549.07957,-0.06863
6551.00804,-0.03443
6552.93650,0.05725
6554.86497,0.15322
6556.79344,0.20450
6558.72191,0.15552
6560.65038,0.10138
6562.57885,0.13714
6564.50732,0.17210
6566.43578,0.14706
6568.36425,0.13097
6570.29272,0.10644
6572.22119,0.07165
6574.14966,0.09730
6576.07813,0.13693
6578.00660,0.12823
6579.93507,0.10081
6581.86353,0.08068
6583.79200,0.05134
6585.72047,0.03185
6587.64894,0.01095
6589.57741,-0.02759
6591.50588,-0.00681
6593.43435,0.08201
6595.36281,0.07438
6597.29128,-0.04616
6599.21975,-0.09380
6601.14822,-0.03930
6603.07669,-0.01684
6605.00516,-0.01239
6606.93363,0.04903
6608.86210,0.10085
6610.79056,0.07747
6612.71903,0.09852
6614.64750,0.17739
6616.57597,0.17524
6618.50444,0.10747
6620.43291,0.03811
6622.36138,0.01680
6624.28984,0.07405
6626.21831,0.13474
6628.14678,0.16163
6630.07525,0.19028
6632.00372,0.18637
6633.93219,0.08745
6635.86066,-0.01784
6637.78912,0.00923
6639.71759,0.08064
6641.64606,0.09030
6643.57453,0.07696
6645.50300,0.06368
6647.43147,0.05273
6649.35994,0.07479
6651.28841,0.11450
6653.21687,0.16589
6655.14534,0.21113
6657.07381,0.16650
6659.00228,0.07364
6660.93075,0.09017
6662.85922,0.13126
6664.78769,0.05505
6666.71615,-0.04460
6668.64462,-0.03155
6670.57309,0.05666
6672.50156,0.10715
6674.43003,0.13591
6676.35850,0.22578
6678.28697,0.26551
6680.21544,0.17673
6682.14390,0.09145
6684.07237,0.03715
6686.00084,-0.02836
6687.92931,-0.03318
6689.85778,0.04192
6691.78625,0.10866
6693.71472,0.11484
6695.64318,0.07645
6697.57165,0.02892
6699.50012,0.01044
6701.42859,0.06746
6703.35706,0.18212
6705.28553,0.25320
6707.21400,0.20117
6709.14247,0.08914
6711.07093,0.01019
6712.99940,0.00296
6714.92787,0.03767
6716.85634,0.03451
6718.78481,0.04863
6720.71328,0.09695
6722.64175,0.09504
6724.57021,0.06311
6726.49868,0.02607
6728.42715,-0.01380
6730.35562,-0.04517
6732.28409,-0.04528
6734.21256,-0.03260
6736.14103,0.01341
6738.06950,0.12275
6739.99796,0.17183
6741.92643,0.07358
6743.85490,-0.04273
6745.78337,-0.08692
6747.71184,-0.08241
6749.64031,-0.05193
6751.56878,-0.01531
6753.49724,0.01312
6755.42571,0.02883
6757.35418,-0.00272
6759.28265,-0.06211
6761.21112,-0.04235
6763.13959,0.00687
6765.06806,0.01803
6766.99653,0.04134
6768.92499,0.06478
6770.85346,0.11234
6772.78193,0.19884
6774.71040,0.22492
6776.63887,0.15042
6778.56734,0.02477
6780.49581,-0.10328
6782.42427,-0.18749
6784.35274,-0.19501
6786.28121,-0.10767
6788.20968,0.01614
6790.13815,0.10789
6792.06662,0.16056
6793.99509,0.18536
6795.92355,0.19420
6797.85202,0.18220
6799.78049,0.16327
6801.70896,0.13370
6803.63743,0.06643
6805.56590,0.00352
6807.49437,-0.02325
6809.42284,-0.00233
6811.35130,0.02154
6813.27977,-0.04314
6815.20824,-0.08030
6817.13671,-0.01886
6819.06518,0.04314
6820.99365,0.10060
6822.92212,0.15033
6824.85058,0.15333
6826.77905,0.14583
6828.70752,0.17870
6830.63599,0.15115
6832.56446,0.00674
6834.49293,-0.09016
6836.42140,-0.08042
6838.34987,-0.05799
6840.27833,-0.00449
6842.20680,0.08543
6844.13527,0.14780
6846.06374,0.18292
6847.99221,0.19541
6849.92068,0.17626
6851.84915,0.12014
6853.77761,0.06020
6855.70608,0.08379
6857.63455,0.17586
6859.56302,0.21038
6861.49149,0.13486
6863.41996,0.03631
6865.34843,-0.00911
6867.27690,-0.01264
6869.20536,0.01827
6871.13383,0.03577
6873.06230,0.01607
6874.99077,0.03254
6876.91924,0.11007
6878.84771,0.14189
6880.77618,0.04240
6882.70464,-0.03451
6884.63311,0.01186
6886.56158,0.05487
6888.49005,0.01883
6890.41852,-0.05542
6892.34699,-0.11633
6894.27546,-0.10253
6896.20393,-0.06370
6898.13239,-0.11147
6900.06086,-0.16444
6901.98933,-0.08154
6903.91780,0.04884
6905.84627,0.03290
6907.77474,-0.08127
6909.70321,-0.09972
6911.63167,-0.02343
6913.56014,0.01451
6915.48861,0.02164
6917.41708,0.06375
6919.34555,0.08911
6921.27402,0.12779
6923.20249,0.20746
6925.13096,0.23350
6927.05942,0.13846
6928.98789,-0.02231
6930.91636,-0.02247
6932.84483,0.17518
6934.77330,0.26215
6936.70177,0.17881
6938.63024,0.06118
6940.55870,-0.02033
6942.48717,-0.06886
6944.41564,-0.10338
6946.34411,-0.15323
6948.27258,-0.19429
6950.20105,-0.13886
6952.12952,0.00255
6954.05799,0.13524
6955.98645,0.13205
6957.91492,-0.00784
6959.84339,-0.09844
6961.77186,-0.04623
6963.70033,0.07209
6965.62880,0.17020
6967.55727,0.20198
6969.48573,0.16057
6971.41420,0.09601
6973.34267,0.14166
6975.27114,0.30136
6977.19961,0.36655
6979.12808,0.33342
6981.05655,0.24769
6982.98501,0.11327
6984.91348,0.04987
6986.84195,0.10617
6988.77042,0.16830
6990.69889,0.12085
6992.62736,0.01015
6994.55583,-0.04036
6996.48430,-0.01627
6998.41276,-0.01615
7000.34123,0.01517
7002.26970,0.14692
7004.19817,0.19106
7006.12664,0.09086
7008.05511,-0.01967
7009.98358,-0.05162
7011.91204,0.04552
7013.84051,0.20613
7015.76898,0.20706
7017.69745,0.07507
7019.62592,0.00168
7021.55439,0.05676
7023.48286,0.14380
7025.41133,0.11813
7027.33979,0.03702
7029.26826,0.06252
7031.19673,0.09360
7033.12520,0.03599
7035.05367,0.07191
7036.98214,0.24088
7038.91061,0.27233
7040.83907,0.07531
7042.76754,-0.08685
7044.69601,0.02456
7046.62448,0.20359
7048.55295,0.24893
7050.48142,0.19205
7052.40989,0.19305
7054.33836,0.27172
7056.26682,0.22177
7058.19529,0.09061
7060.12376,0.10657
7062.05223,0.15781
7063.98070,0.18346
7065.90917,0.28003
7067.83764,0.35854
7069.76610,0.25462
7071.69457,0.04081
7073.62304,-0.05811
7075.55151,-0.00655
7077.47998,0.07366
7079.40845,0.07221
7081.33692,0.00265
7083.26539,0.00866
7085.19385,0.13430
7087.12232,0.20483
7089.05079,0.11773
7090.97926,0.11875
7092.90773,0.21749
7094.83620,0.21756
7096.76467,0.17533
7098.69313,0.15202
7100.62160,0.13798
7102.55007,0.09529
7104.47854,0.01731
7106.40701,-0.01630
7108.33548,0.01809
7110.26395,0.09345
7112.19242,0.18698
7114.12088,0.22096
7116.04935,0.16295
7117.97782,0.03930
7119.90629,-0.08983
7121.83476,-0.23086
7123.76323,-0.26105
7125.69170,-0.08858
7127.62016,0.05648
7129.54863,0.03715
7131.47710,0.00214
7133.40557,0.07688
7135.33404,0.19077
7137.26251,0.27187
7139.19098,0.23391
7141.11944,0.11479
7143.04791,0.15532
7144.97638,0.26669
7146.90485,0.14233
7148.83332,0.01458
7150.76179,0.09120
7152.69026,0.16776
7154.61873,0.16040
7156.54719,0.10419
7158.47566,0.00228
7160.40413,0.00689
7162.33260,0.07372
7164.26107,0.00837
7166.18954,-0.11087
7168.11801,-0.11365
7170.04647,0.00060
7171.97494,0.09096
7173.90341,0.05010
7175.83188,0.01401
7177.76035,0.02070
7179.68882,-0.01483
7181.61729,0.09506
7183.54576,0.38705
7185.47422,0.45379
7187.40269,0.23973
7189.33116,0.02454
7191.25963,-0.00848
7193.18810,0.05816
7195.11657,0.11980
7197.04504,0.07104
7198.97350,-0.13651
7200.90197,-0.23865
7202.83044,-0.10679
7204.75891,0.08718
7206.68738,0.18474
7208.61585,0.20162
7210.54432,0.17579
7212.47279,0.16011
7214.40125,0.18918
7216.32972,0.25978
7218.25819,0.14597
7220.18666,-0.13118
7222.11513,-0.17921
7224.04360,-0.00764
7225.97207,0.11332
7227.90053,0.04993
7229.82900,0.06126
7231.75747,0.22587
7233.68594,0.22568
7235.61441,0.08078
7237.54288,0.00246
7239.47135,-0.00627
7241.39982,-0.05357
7243.32828,-0.04402
7245.25675,0.07619
7247.18522,0.21943
7249.11369,0.33087
7251.04216,0.39117
7252.97063,0.47887
7254.89910,0.46612
7256.82756,0.35543
7258.75603,0.29985
7260.68450,0.33339
7262.61297,0.33517
7264.54144,0.13914
7266.46991,-0.05484
7268.39838,-0.12796
7270.32685,-0.17248
7272.25531,-0.15856
7274.18378,-0.09476
7276.11225,-0.03439
7278.04072,0.00806
7279.96919,-0.01763
7281.89766,-0.03987
7283.82613,0.04599
7285.75459,0.21068
7287.68306,0.33058
7289.61153,0.29850
7291.54000,0.26429
7293.46847,0.26259
7295.39694,0.08538
7297.32541,-0.09761
7299.25387,-0.05400
7301.18234,0.01856
7303.11081,-0.06192
7305.03928,-0.08776
7306.96775,0.02081
7308.89622,-0.04807
7310.82469,-0.27927
7312.75316,-0.32116
7314.68162,-0.06769
7316.61009,0.33584
7318.53856,0.38117
7320.46703,0.12827
7322.39550,-0.01427
7324.32397,-0.04226
7326.25244,-0.11206
7328.18090,-0.08386
7330.10937,0.19923
7332.03784,0.35496
7333.96631,0.19779
7335.89478,0.09061
7337.82325,0.17377
7339.75172,0.31609
7341.68019,0.42471
7343.60865,0.43971
7345.53712,0.36949
7347.46559,0.37522
7349.39406,0.48592
7351.32253,0.45999
7353.25100,0.30990
7355.17947,0.36079
7357.10793,0.50193
7359.03640,0.31949
7360.96487,0.17302
7362.89334,0.28973
7364.82181,0.26317
7366.75028,0.12234
7368.67875,0.05545
7370.60722,0.00690
7372.53568,-0.04020
7374.46415,-0.06545
7376.39262,-0.06412
7378.32109,-0.03026
7380.24956,-0.00673
7382.17803,-0.04284
7384.10650,-0.16845
7386.03496,-0.32487
7387.96343,-0.33082
7389.89190,-0.20467
7391.82037,-0.14505
7393.74884,-0.10357
7395.67731,0.07265
7397.60578,0.19714
7399.53425,0.11905
7401.46271,0.03601
7403.39118,0.06236
7405.31965,0.08494
7407.24812,0.05844
7409.17659,0.01133
7411.10506,-0.06174
7413.03353,-0.10178
7414.96199,-0.04651
7416.89046,0.07892
7418.81893,0.07011
7420.74740,-0.07422
7422.67587,-0.06939
7424.60434,-0.02103
7426.53281,-0.01564
7428.46128,0.00925
7430.38974,0.09483
7432.31821,0.25661
7434.24668,0.38759
7436.17515,0.36412
7438.10362,0.24222
7440.03209,0.02360
7441.96056,-0.14980
7443.88902,-0.12287
7445.81749,-0.08011
7447.74596,-0.07727
7449.67443,0.04810
7451.60290,0.20439
7453.53137,0.16724
7455.45984,0.06304
7457.38831,0.06272
7459.31677,0.14309
7461.24524,0.14170
7463.17371,0.10259
7465.10218,0.03265
7467.03065,-0.05404
7468.95912,0.03194
7470.88759,0.16139
7472.81605,0.19589
7474.74452,0.25061
7476.67299,0.26789
7478.60146,0.15727
7480.52993,-0.03111
7482.45840,-0.20250
7484.38687,-0.23674
7486.31533,-0.15247
7488.24380,-0.07590
7490.17227,-0.05901
7492.10074,0.02863
7494.02921,0.15919
7495.95768,0.20783
7497.88615,0.17948
