399.19301,5.19963
401.12148,-0.43023
403.04995,-0.55463
404.97842,-0.50626
406.90689,-0.51358
408.83536,-0.35604
410.76382,-0.11549
412.69229,0.07434
414.62076,0.21951
416.54923,0.23410
418.47770,0.18950
420.40617,0.20538
422.33464,0.18443
424.26311,0.12990
426.19157,0.05547
428.12004,-0.05078
430.04851,-0.08201
431.97698,0.02589
433.90545,0.07778
435.83392,0.04298
437.76239,0.05679
439.69085,0.14476
441.61932,0.22010
443.54779,0.23180
445.47626,0.22097
447.40473,0.18690
449.33320,0.12051
451.26167,0.06484
453.19013,0.04875
455.11860,0.05109
457.04707,0.05814
458.97554,0.08825
460.90401,0.11368
462.83248,0.07306
464.76095,-0.01525
466.68942,-0.04601
468.61788,-0.00205
470.54635,0.03985
472.47482,0.04439
474.40329,0.07410
476.33176,0.15213
478.26023,0.16719
480.18870,0.11260
482.11716,0.04226
484.04563,-0.01932
485.97410,-0.04858
487.90257,-0.01652
489.83104,0.03200
491.75951,0.06941
493.68798,0.09442
495.61645,0.07095
497.54491,0.01684
499.47338,-0.00772
501.40185,0.01512
503.33032,0.05288
505.25879,0.06807
507.18726,0.07665
509.11573,0.07338
511.04419,0.04857
512.97266,0.01571
514.90113,-0.01522
516.82960,-0.03704
518.75807,-0.02937
520.68654,0.02450
522.61501,0.07699
524.54348,0.07764
526.47194,0.05209
528.40041,0.02794
530.32888,0.00532
532.25735,0.02819
534.18582,0.09435
536.11429,0.10188
538.04276,0.04476
539.97122,0.01729
541.89969,0.00997
543.82816,-0.01502
545.75663,-0.02653
547.68510,-0.00075
549.61357,0.04972
551.54204,0.10935
553.47051,0.14689
555.39897,0.11722
557.32744,0.05525
559.25591,0.03129
561.18438,0.01820
563.11285,-0.01156
565.04132,-0.02500
566.96979,-0.02480
568.89825,-0.01918
570.82672,0.01871
572.75519,0.05657
574.68366,0.03748
576.61213,-0.00645
578.54060,-0.02364
580.46907,-0.02007
582.39754,-0.00803
584.32600,0.01684
586.25447,0.04636
588.18294,0.04974
590.11141,0.03288
592.03988,0.03043
593.96835,0.03738
595.89682,0.03582
597.82528,0.03217
599.75375,0.03772
601.68222,0.04127
603.61069,0.03223
605.53916,0.03096
607.46763,0.03596
609.39610,0.03433
611.32456,0.03705
613.25303,0.04254
615.18150,0.04220
617.10997,0.04059
619.03844,0.03535
620.96691,0.02986
622.89538,0.03406
624.82385,0.04140
626.75231,0.04721
628.68078,0.04700
630.60925,0.04211
632.53772,0.04175
634.46619,0.03110
636.39466,0.01176
638.32313,0.01052
640.25159,0.02878
642.18006,0.04515
644.10853,0.05009
646.03700,0.05404
647.96547,0.06780
649.89394,0.08365
651.82241,0.07667
653.75088,0.04693
655.67934,0.01962
657.60781,0.01134
659.53628,0.02897
661.46475,0.05126
663.39322,0.05803
665.32169,0.06416
667.25016,0.06924
669.17862,0.04504
671.10709,0.02268
673.03556,0.02504
674.96403,0.03232
676.89250,0.02332
678.82097,0.00891
680.74944,0.01287
682.67791,0.03185
684.60637,0.04769
686.53484,0.05789
688.46331,0.06417
690.39178,0.05430
692.32025,0.03416
694.24872,0.02152
696.17719,0.02160
698.10565,0.03607
700.03412,0.05729
701.96259,0.06759
703.89106,0.06263
705.81953,0.05632
707.74800,0.05143
709.67647,0.03733
711.60494,0.01426
713.53340,0.00212
715.46187,0.01417
717.39034,0.03045
719.31881,0.03394
721.24728,0.03073
723.17575,0.02755
725.10422,0.02525
727.03268,0.02945
728.96115,0.04071
730.88962,0.04077
732.81809,0.03266
734.74656,0.04136
736.67503,0.05067
738.60350,0.03796
740.53197,0.02683
742.46043,0.03946
744.38890,0.06075
746.31737,0.06713
748.24584,0.05835
750.17431,0.04787
752.10278,0.04333
754.03125,0.04890
755.95971,0.06008
757.88818,0.06726
759.81665,0.06692
761.74512,0.05758
763.67359,0.04522
765.60206,0.04291
767.53053,0.05035
769.45900,0.05233
771.38746,0.04691
773.31593,0.04748
775.24440,0.05305
777.17287,0.05479
779.10134,0.05401
781.02981,0.05202
782.95828,0.04829
784.88674,0.04815
786.81521,0.05793
788.74368,0.07076
790.67215,0.07262
792.60062,0.06485
794.52909,0.05711
796.45756,0.05444
798.38602,0.05299
800.31449,0.04407
802.24296,0.03024
804.17143,0.01776
806.09990,0.01606
808.02837,0.02897
809.95684,0.03914
811.88531,0.04316
813.81377,0.04317
815.74224,0.03589
817.67071,0.03580
819.59918,0.04353
821.52765,0.04069
823.45612,0.03420
825.38459,0.03975
827.31305,0.04411
829.24152,0.04036
831.16999,0.04188
833.09846,0.05063
835.02693,0.05612
836.95540,0.05184
838.88387,0.04679
840.81234,0.04571
842.74080,0.04333
844.66927,0.04095
846.59774,0.04196
848.52621,0.04462
850.45468,0.04922
852.38315,0.05701
854.31162,0.05859
856.24008,0.05263
858.16855,0.04926
860.09702,0.04993
862.02549,0.04839
863.95396,0.04243
865.88243,0.04052
867.81090,0.03699
869.73937,0.02405
871.66783,0.02206
873.59630,0.03579
875.52477,0.04561
877.45324,0.04616
879.38171,0.04261
881.31018,0.04336
883.23865,0.04771
885.16711,0.04716
887.09558,0.04439
889.02405,0.03943
890.95252,0.03517
892.88099,0.03888
894.80946,0.04571
896.73793,0.04987
898.66640,0.04985
900.59486,0.05034
902.52333,0.05617
904.45180,0.05999
906.38027,0.05555
908.30874,0.04663
910.23721,0.03870
912.16568,0.03484
914.09414,0.03690
916.02261,0.04448
917.95108,0.05515
919.87955,0.06589
921.80802,0.06860
923.73649,0.05784
925.66496,0.04443
927.59343,0.04025
929.52189,0.04405
931.45036,0.04728
933.37883,0.04337
935.30730,0.03633
937.23577,0.03507
939.16424,0.04381
941.09271,0.05513
943.02117,0.05658
944.94964,0.04888
946.87811,0.04314
948.80658,0.04619
950.73505,0.04984
952.66352,0.04681
954.59199,0.04695
956.52045,0.05357
958.44892,0.05813
960.37739,0.06236
962.30586,0.06780
964.23433,0.06534
966.16280,0.05598
968.09127,0.05468
970.01974,0.06101
971.94820,0.06004
973.87667,0.05517
975.80514,0.05679
977.73361,0.05763
979.66208,0.05382
981.59055,0.05284
983.51902,0.05256
985.44748,0.04714
987.37595,0.04034
989.30442,0.03789
991.23289,0.04100
993.16136,0.04656
995.08983,0.05005
997.01830,0.05284
998.94677,0.05720
1000.87523,0.05714
1002.80370,0.05327
1004.73217,0.05362
1006.66064,0.05421
1008.58911,0.05003
1010.51758,0.04686
1012.44605,0.05057
1014.37451,0.05806
1016.30298,0.06057
1018.23145,0.05803
1020.15992,0.05733
1022.08839,0.05746
1024.01686,0.05515
1025.94533,0.04993
1027.87380,0.03703
1029.80226,0.02366
1031.73073,0.02576
1033.65920,0.03632
1035.58767,0.04329
1037.51614,0.04723
1039.44461,0.04859
1041.37308,0.04762
1043.30154,0.04619
1045.23001,0.04821
1047.15848,0.05549
1049.08695,0.06055
1051.01542,0.05319
1052.94389,0.04260
1054.87236,0.04577
1056.80083,0.05418
1058.72929,0.05705
1060.65776,0.05666
1062.58623,0.05324
1064.51470,0.05028
1066.44317,0.05091
1068.37164,0.05156
1070.30011,0.05025
1072.22857,0.04645
1074.15704,0.04148
1076.08551,0.04326
1078.01398,0.05428
1079.94245,0.06422
1081.87092,0.06521
1083.79939,0.06334
1085.72786,0.06832
1087.65632,0.07443
1089.58479,0.07172
1091.51326,0.06303
1093.44173,0.05102
1095.37020,0.03839
1097.29867,0.03619
1099.22714,0.04125
1101.15560,0.04191
1103.08407,0.04403
1105.01254,0.05399
1106.94101,0.06210
1108.86948,0.05863
1110.79795,0.05034
1112.72642,0.04651
1114.65489,0.04725
1116.58335,0.04953
1118.51182,0.05196
1120.44029,0.05449
1122.36876,0.05121
1124.29723,0.04320
1126.22570,0.04413
1128.15417,0.05498
1130.08263,0.05626
1132.01110,0.04457
1133.93957,0.03846
1135.86804,0.04021
1137.79651,0.04476
1139.72498,0.05056
1141.65345,0.05006
1143.58191,0.04735
1145.51038,0.05178
1147.43885,0.06003
1149.36732,0.06583
1151.29579,0.06694
1153.22426,0.06615
1155.15273,0.06613
1157.08120,0.06195
1159.00966,0.05313
1160.93813,0.04727
1162.86660,0.04728
1164.79507,0.04981
1166.72354,0.05153
1168.65201,0.05343
1170.58048,0.05592
1172.50894,0.05544
1174.43741,0.05283
1176.36588,0.05446
1178.29435,0.05886
1180.22282,0.06093
1182.15129,0.06295
1184.07976,0.06614
1186.00823,0.06629
1187.93669,0.05955
1189.86516,0.05212
1191.79363,0.05242
1193.72210,0.05474
1195.65057,0.05348
1197.57904,0.05446
1199.50751,0.05872
1201.43597,0.05884
1203.36444,0.05589
1205.29291,0.05476
1207.22138,0.05381
1209.14985,0.05324
1211.07832,0.05379
1213.00679,0.05319
1214.93526,0.05233
1216.86372,0.05318
1218.79219,0.05493
1220.72066,0.05784
1222.64913,0.06017
1224.57760,0.05902
1226.50607,0.05653
1228.43454,0.05506
1230.36300,0.05549
1232.29147,0.05730
1234.21994,0.05805
1236.14841,0.05744
1238.07688,0.05796
1240.00535,0.06018
1241.93382,0.06014
1243.86229,0.05757
1245.79075,0.05833
1247.71922,0.06207
1249.64769,0.06226
1251.57616,0.05898
1253.50463,0.05678
1255.43310,0.05630
1257.36157,0.05708
1259.29003,0.05899
1261.21850,0.06109
1263.14697,0.06284
1265.07544,0.06358
1267.00391,0.06271
1268.93238,0.06188
1270.86085,0.06209
1272.78932,0.06206
1274.71778,0.06198
1276.64625,0.06175
1278.57472,0.06131
1280.50319,0.06109
1282.43166,0.05845
1284.36013,0.05428
1286.28860,0.05438
1288.21706,0.05790
1290.14553,0.06013
1292.07400,0.06174
1294.00247,0.06288
1295.93094,0.06195
1297.85941,0.06011
1299.78788,0.05860
1301.71634,0.05720
1303.64481,0.05570
1305.57328,0.05569
1307.50175,0.05697
1309.43022,0.05756
1311.35869,0.05762
1313.28716,0.05705
1315.21563,0.05694
1317.14409,0.05830
1319.07256,0.05860
1321.00103,0.05656
1322.92950,0.05514
1324.85797,0.05834
1326.78644,0.06404
1328.71491,0.06564
1330.64337,0.06264
1332.57184,0.05887
1334.50031,0.05709
1336.42878,0.05818
1338.35725,0.06020
1340.28572,0.05976
1342.21419,0.05071
1344.14266,0.03167
1346.07112,0.01998
1347.99959,0.03098
1349.92806,0.04788
1351.85653,0.05333
1353.78500,0.05530
1355.71347,0.05913
1357.64194,0.05975
1359.57040,0.05693
1361.49887,0.05596
1363.42734,0.05944
1365.35581,0.06307
1367.28428,0.06395
1369.21275,0.06320
1371.14122,0.06373
1373.06969,0.06706
1374.99815,0.06818
1376.92662,0.06424
1378.85509,0.06034
1380.78356,0.05755
1382.71203,0.05539
1384.64050,0.05642
1386.56897,0.06065
1388.49743,0.06268
1390.42590,0.06208
1392.35437,0.06289
1394.28284,0.06516
1396.21131,0.06837
1398.13978,0.06988
1400.06825,0.06872
1401.99672,0.06833
1403.92518,0.06773
1405.85365,0.06480
1407.78212,0.06157
1409.71059,0.05929
1411.63906,0.05709
1413.56753,0.05490
1415.49600,0.05382
1417.42446,0.05544
1419.35293,0.05948
1421.28140,0.06264
1423.20987,0.06476
1425.13834,0.06681
1427.06681,0.06839
1428.99528,0.06718
1430.92375,0.06528
1432.85221,0.06659
1434.78068,0.06757
1436.70915,0.06578
1438.63762,0.06389
1440.56609,0.06343
1442.49456,0.06319
1444.42303,0.06169
1446.35149,0.05969
1448.27996,0.06079
1450.20843,0.06333
1452.13690,0.06147
1454.06537,0.05632
1455.99384,0.05429
1457.92231,0.06270
1459.85077,0.06980
1461.77924,0.07007
1463.70771,0.06882
1465.63618,0.06864
1467.56465,0.06985
1469.49312,0.07119
1471.42159,0.06983
1473.35006,0.06646
1475.27852,0.06573
1477.20699,0.06563
1479.13546,0.06697
1481.06393,0.06758
1482.99240,0.06471
1484.92087,0.06251
1486.84934,0.06221
1488.77780,0.06300
1490.70627,0.06520
1492.63474,0.06646
1494.56321,0.06782
1496.49168,0.06890
1498.42015,0.06578
1500.34862,0.06282
1502.27709,0.06438
1504.20555,0.06706
1506.13402,0.06867
1508.06249,0.07241
1509.99096,0.07449
1511.91943,0.07383
1513.84790,0.07222
1515.77637,0.06933
1517.70483,0.06862
1519.63330,0.07544
1521.56177,0.07979
1523.49024,0.07133
1525.41871,0.06536
1527.34718,0.06553
1529.27565,0.06661
1531.20412,0.06927
1533.13258,0.07011
1535.06105,0.06424
1536.98952,0.06070
1538.91799,0.06760
1540.84646,0.07898
1542.77493,0.07462
1544.70340,0.07013
1546.63186,0.06783
1548.56033,0.06191
1550.48880,0.05442
1552.41727,0.05145
1554.34574,0.05447
1556.27421,0.05878
1558.20268,0.05910
1560.13115,0.05968
1562.05961,0.06234
1563.98808,0.06402
1565.91655,0.06458
1567.84502,0.06536
1569.77349,0.06757
1571.70196,0.06917
1573.63043,0.07184
1575.55889,0.07487
1577.48736,0.07046
1579.41583,0.06394
1581.34430,0.06063
1583.27277,0.05960
1585.20124,0.06090
1587.12971,0.06265
1589.05818,0.06315
1590.98664,0.06458
1592.91511,0.06690
1594.84358,0.06465
1596.77205,0.05843
1598.70052,0.05636
1600.62899,0.05953
1602.55746,0.06198
1604.48592,0.06271
1606.41439,0.06593
1608.34286,0.06917
1610.27133,0.06736
1612.19980,0.06275
1614.12827,0.06011
1616.05674,0.06326
1617.98521,0.06760
1619.91367,0.06645
1621.84214,0.06402
1623.77061,0.06183
1625.69908,0.06131
1627.62755,0.06344
1629.55602,0.06512
1631.48449,0.06476
1633.41295,0.06612
1635.34142,0.07136
1637.26989,0.07199
1639.19836,0.06870
1641.12683,0.06875
1643.05530,0.07299
1644.98377,0.07944
1646.91223,0.08264
1648.84070,0.08114
1650.76917,0.08279
1652.69764,0.08909
1654.62611,0.08802
1656.55458,0.08138
1658.48305,0.07692
1660.41152,0.07403
1662.33998,0.07262
1664.26845,0.07152
1666.19692,0.06888
1668.12539,0.06708
1670.05386,0.06966
1671.98233,0.07212
1673.91080,0.07149
1675.83926,0.07062
1677.76773,0.07072
1679.69620,0.07209
1681.62467,0.07652
1683.55314,0.08130
1685.48161,0.07464
1687.41008,0.06593
1689.33855,0.06384
1691.26701,0.06431
1693.19548,0.06267
1695.12395,0.06298
1697.05242,0.07062
1698.98089,0.07665
1700.90936,0.07586
1702.83783,0.07413
1704.76629,0.07191
1706.69476,0.06523
1708.62323,0.05840
1710.55170,0.05679
1712.48017,0.05827
1714.40864,0.06130
1716.33711,0.06835
1718.26558,0.07212
1720.19404,0.06611
1722.12251,0.06064
1724.05098,0.05933
1725.97945,0.05975
1727.90792,0.06089
1729.83639,0.06377
1731.76486,0.06701
1733.69332,0.06660
1735.62179,0.06363
1737.55026,0.06286
1739.47873,0.06166
1741.40720,0.06120
1743.33567,0.06390
1745.26414,0.06750
1747.19261,0.06834
1749.12107,0.06341
1751.04954,0.05903
1752.97801,0.06032
1754.90648,0.06343
1756.83495,0.06608
1758.76342,0.06641
1760.69189,0.06569
1762.62035,0.06489
1764.54882,0.06375
1766.47729,0.06384
1768.40576,0.06610
1770.33423,0.06961
1772.26270,0.07082
1774.19117,0.06722
1776.11964,0.06373
1778.04810,0.06333
1779.97657,0.06360
1781.90504,0.06194
1783.83351,0.05967
1785.76198,0.05850
1787.69045,0.05907
1789.61892,0.06107
1791.54738,0.06516
1793.47585,0.06919
1795.40432,0.06819
1797.33279,0.06534
1799.26126,0.06430
1801.18973,0.06382
1803.11820,0.06326
1805.04666,0.06193
1806.97513,0.05851
1808.90360,0.05632
1810.83207,0.05770
1812.76054,0.05852
1814.68901,0.05816
1816.61748,0.05907
1818.54595,0.05817
1820.47441,0.05396
1822.40288,0.05308
1824.33135,0.05929
1826.25982,0.06486
1828.18829,0.06375
1830.11676,0.06115
1832.04523,0.06120
1833.97369,0.06220
1835.90216,0.06339
1837.83063,0.06467
1839.75910,0.06638
1841.68757,0.06836
1843.61604,0.06873
1845.54451,0.06671
1847.47298,0.06478
1849.40144,0.06420
1851.32991,0.06416
1853.25838,0.06370
1855.18685,0.06349
1857.11532,0.06395
1859.04379,0.06399
1860.97226,0.06159
1862.90072,0.05756
1864.82919,0.05646
1866.75766,0.05871
1868.68613,0.06055
1870.61460,0.06111
1872.54307,0.06270
1874.47154,0.06455
1876.40001,0.06403
1878.32847,0.06242
1880.25694,0.06246
1882.18541,0.06415
1884.11388,0.06537
1886.04235,0.06357
1887.97082,0.06025
1889.89929,0.05926
1891.82775,0.06122
1893.75622,0.06414
1895.68469,0.06639
1897.61316,0.06666
1899.54163,0.06534
1901.47010,0.06371
1903.39857,0.06265
1905.32704,0.06275
1907.25550,0.06287
1909.18397,0.06156
1911.11244,0.06045
1913.04091,0.06082
1914.96938,0.06173
1916.89785,0.06284
1918.82632,0.06400
1920.75478,0.06548
1922.68325,0.06663
1924.61172,0.06440
1926.54019,0.06006
1928.46866,0.05767
1930.39713,0.05777
1932.32560,0.05954
1934.25407,0.06190
1936.18253,0.06252
1938.11100,0.06166
1940.03947,0.06250
1941.96794,0.06442
1943.89641,0.06338
1945.82488,0.06101
1947.75335,0.06115
1949.68181,0.06231
1951.61028,0.06294
1953.53875,0.06450
1955.46722,0.06641
1957.39569,0.06674
1959.32416,0.06606
1961.25263,0.06571
1963.18110,0.06506
1965.10956,0.06395
1967.03803,0.06343
1968.96650,0.06416
1970.89497,0.06649
1972.82344,0.06743
1974.75191,0.06593
1976.68038,0.06513
1978.60884,0.06407
1980.53731,0.06118
1982.46578,0.05918
1984.39425,0.06060
1986.32272,0.06329
1988.25119,0.06324
1990.17966,0.06180
1992.10812,0.06260
1994.03659,0.06435
1995.96506,0.06497
1997.89353,0.06574
1999.82200,0.06719
2001.75047,0.06817
2003.67894,0.06663
2005.60741,0.06247
2007.53587,0.06145
2009.46434,0.06650
2011.39281,0.07064
2013.32128,0.06921
2015.24975,0.06690
2017.17822,0.06651
2019.10669,0.06568
2021.03515,0.06391
2022.96362,0.06347
2024.89209,0.06503
2026.82056,0.06621
2028.74903,0.06490
2030.67750,0.06198
2032.60597,0.06117
2034.53444,0.06258
2036.46290,0.06314
2038.39137,0.06270
2040.31984,0.06172
2042.24831,0.06189
2044.17678,0.06386
2046.10525,0.06396
2048.03372,0.06160
2049.96218,0.06016
2051.89065,0.06072
2053.81912,0.06194
2055.74759,0.06291
2057.67606,0.06412
2059.60453,0.06594
2061.53300,0.06582
2063.46147,0.06257
2065.38993,0.06096
2067.31840,0.06313
2069.24687,0.06607
2071.17534,0.06757
2073.10381,0.06601
2075.03228,0.06438
2076.96075,0.06613
2078.88921,0.06804
2080.81768,0.06873
2082.74615,0.06995
2084.67462,0.07120
2086.60309,0.07071
2088.53156,0.06914
2090.46003,0.06965
2092.38850,0.07101
2094.31696,0.06977
2096.24543,0.06724
2098.17390,0.06563
2100.10237,0.06598
2102.03084,0.06860
2103.95931,0.06970
2105.88778,0.06745
2107.81624,0.06532
2109.74471,0.06417
2111.67318,0.06394
2113.60165,0.06541
2115.53012,0.06614
2117.45859,0.06458
2119.38706,0.06260
2121.31553,0.06134
2123.24399,0.06050
2125.17246,0.06086
2127.10093,0.06334
2129.02940,0.06519
2130.95787,0.06275
2132.88634,0.05863
2134.81481,0.05837
2136.74327,0.06174
2138.67174,0.06328
2140.60021,0.06152
2142.52868,0.06099
2144.45715,0.06277
2146.38562,0.06406
2148.31409,0.06373
2150.24255,0.06232
2152.17102,0.06204
2154.09949,0.06427
2156.02796,0.06699
2157.95643,0.06786
2159.88490,0.06743
2161.81337,0.06765
2163.74184,0.06869
2165.67030,0.06889
2167.59877,0.06838
2169.52724,0.06947
2171.45571,0.07072
2173.38418,0.06887
2175.31265,0.06658
2177.24112,0.06617
2179.16958,0.06452
2181.09805,0.06164
2183.02652,0.06150
2184.95499,0.06351
2186.88346,0.06394
2188.81193,0.06255
2190.74040,0.06133
2192.66887,0.06100
2194.59733,0.06058
2196.52580,0.05933
2198.45427,0.05799
2200.38274,0.05704
2202.31121,0.05653
2204.23968,0.05684
2206.16815,0.05824
2208.09661,0.06073
2210.02508,0.06376
2211.95355,0.06648
2213.88202,0.06721
2215.81049,0.06526
2217.73896,0.06335
2219.66743,0.06394
2221.59590,0.06585
2223.52436,0.06636
2225.45283,0.06567
2227.38130,0.06587
2229.30977,0.06713
2231.23824,0.06839
2233.16671,0.06773
2235.09518,0.06457
2237.02364,0.06258
2238.95211,0.06434
2240.88058,0.06675
2242.80905,0.06654
2244.73752,0.06533
2246.66599,0.06504
2248.59446,0.06467
2250.52293,0.06398
2252.45139,0.06336
2254.37986,0.06245
2256.30833,0.06156
2258.23680,0.06097
2260.16527,0.06196
2262.09374,0.06506
2264.02221,0.06810
2265.95067,0.07002
2267.87914,0.07049
2269.80761,0.06842
2271.73608,0.06506
2273.66455,0.06313
2275.59302,0.06247
2277.52149,0.06112
2279.44996,0.05949
2281.37842,0.05912
2283.30689,0.06014
2285.23536,0.06199
2287.16383,0.06472
2289.09230,0.06789
2291.02077,0.06870
2292.94924,0.06619
2294.87770,0.06293
2296.80617,0.06111
2298.73464,0.06154
2300.66311,0.06213
2302.59158,0.06236
2304.52005,0.06410
2306.44852,0.06517
2308.37699,0.06645
2310.30545,0.06965
2312.23392,0.06822
2314.16239,0.06331
2316.09086,0.06159
2318.01933,0.06072
2319.94780,0.06304
2321.87627,0.07116
2323.80473,0.07322
2325.73320,0.06662
2327.66167,0.06188
2329.59014,0.06118
2331.51861,0.06431
2333.44708,0.07008
2335.37555,0.06857
2337.30401,0.05840
2339.23248,0.05681
2341.16095,0.07239
2343.08942,0.08308
2345.01789,0.07016
2346.94636,0.05316
2348.87483,0.04655
2350.80330,0.04224
2352.73176,0.03234
2354.66023,0.02282
2356.58870,0.02370
2358.51717,0.02766
2360.44564,0.02614
2362.37411,0.01657
2364.30258,0.01332
2366.23104,0.03666
2368.15951,0.06525
2370.08798,0.06964
2372.01645,0.06126
2373.94492,0.06189
2375.87339,0.06729
2377.80186,0.06712
2379.73033,0.06547
2381.65879,0.06544
2383.58726,0.06545
2385.51573,0.06554
2387.44420,0.06528
2389.37267,0.06537
2391.30114,0.06596
2393.22961,0.06426
2395.15807,0.06130
2397.08654,0.06189
2399.01501,0.06489
2400.94348,0.06537
2402.87195,0.06434
2404.80042,0.06419
2406.72889,0.06412
2408.65736,0.06430
2410.58582,0.06570
2412.51429,0.06756
2414.44276,0.06852
2416.37123,0.06899
2418.29970,0.06887
2420.22817,0.06782
2422.15664,0.06741
2424.08510,0.06679
2426.01357,0.06410
2427.94204,0.06185
2429.87051,0.06367
2431.79898,0.06822
2433.72745,0.07072
2435.65592,0.07081
2437.58439,0.07093
2439.51285,0.06980
2441.44132,0.06735
2443.36979,0.06608
2445.29826,0.06498
2447.22673,0.06296
2449.15520,0.06148
2451.08367,0.06044
2453.01213,0.06014
2454.94060,0.06175
2456.86907,0.06444
2458.79754,0.06592
2460.72601,0.06600
2462.65448,0.06762
2464.58295,0.06922
2466.51142,0.06743
2468.43988,0.06489
2470.36835,0.06518
2472.29682,0.06781
2474.22529,0.06877
2476.15376,0.06658
2478.08223,0.06346
2480.01070,0.06083
2481.93916,0.06094
2483.86763,0.06445
2485.79610,0.06834
2487.72457,0.06953
2489.65304,0.06797
2491.58151,0.06633
2493.50998,0.06569
2495.43844,0.06643
2497.36691,0.06810
2499.29538,0.06753
2501.22385,0.06511
2503.15232,0.06398
2505.08079,0.06434
2507.00926,0.06478
2508.93773,0.06391
2510.86619,0.06235
2512.79466,0.06291
2514.72313,0.06569
2516.65160,0.06775
2518.58007,0.06803
2520.50854,0.06774
2522.43701,0.06770
2524.36547,0.06644
2526.29394,0.06323
2528.22241,0.06183
2530.15088,0.06340
2532.07935,0.06525
2534.00782,0.06734
2535.93629,0.06921
2537.86476,0.06884
2539.79322,0.06660
2541.72169,0.06424
2543.65016,0.06333
2545.57863,0.06407
2547.50710,0.06449
2549.43557,0.06477
2551.36404,0.06605
2553.29250,0.06794
2555.22097,0.07027
2557.14944,0.07008
2559.07791,0.06666
2561.00638,0.06588
2562.93485,0.06861
2564.86332,0.06993
2566.79179,0.06831
2568.72025,0.06687
2570.64872,0.06873
2572.57719,0.07084
2574.50566,0.06977
2576.43413,0.06827
2578.36260,0.06864
2580.29107,0.06855
2582.21953,0.06607
2584.14800,0.06471
2586.07647,0.06581
2588.00494,0.06615
2589.93341,0.06575
2591.86188,0.06572
2593.79035,0.06628
2595.71882,0.06795
2597.64728,0.07034
2599.57575,0.07211
2601.50422,0.07216
2603.43269,0.07144
2605.36116,0.07159
2607.28963,0.07181
2609.21810,0.07085
2611.14656,0.06901
2613.07503,0.06591
2615.00350,0.06412
2616.93197,0.06653
2618.86044,0.06924
2620.78891,0.06911
2622.71738,0.06869
2624.64585,0.06994
2626.57431,0.07020
2628.50278,0.06839
2630.43125,0.06778
2632.35972,0.06814
2634.28819,0.06806
2636.21666,0.06804
2638.14513,0.06770
2640.07359,0.06868
2642.00206,0.07234
2643.93053,0.07573
2645.85900,0.07499
2647.78747,0.07117
2649.71594,0.06977
2651.64441,0.07177
2653.57288,0.07283
2655.50134,0.07123
2657.42981,0.06926
2659.35828,0.06854
2661.28675,0.06859
2663.21522,0.06896
2665.14369,0.06895
2667.07216,0.06772
2669.00062,0.06686
2670.92909,0.06840
2672.85756,0.07010
2674.78603,0.06880
2676.71450,0.06521
2678.64297,0.06294
2680.57144,0.06431
2682.49990,0.06715
2684.42837,0.06900
2686.35684,0.07052
2688.28531,0.07218
2690.21378,0.07275
2692.14225,0.07209
2694.07072,0.07145
2695.99919,0.07164
2697.92765,0.07232
2699.85612,0.07107
2701.78459,0.06838
2703.71306,0.06735
2705.64153,0.06665
2707.57000,0.06490
2709.49847,0.06447
2711.42693,0.06662
2713.35540,0.06843
2715.28387,0.06797
2717.21234,0.06765
2719.14081,0.06850
2721.06928,0.07015
2722.99775,0.07287
2724.92622,0.07414
2726.85468,0.07278
2728.78315,0.07268
2730.71162,0.07447
2732.64009,0.07388
2734.56856,0.06975
2736.49703,0.06644
2738.42550,0.06742
2740.35396,0.06953
2742.28243,0.06903
2744.21090,0.06903
2746.13937,0.07158
2748.06784,0.07257
2749.99631,0.07169
2751.92478,0.07160
2753.85325,0.07174
2755.78171,0.07264
2757.71018,0.07444
2759.63865,0.07583
2761.56712,0.07658
2763.49559,0.07657
2765.42406,0.07765
2767.35253,0.08021
2769.28099,0.08028
2771.20946,0.07671
2773.13793,0.07397
2775.06640,0.07525
2776.99487,0.07812
2778.92334,0.07922
2780.85181,0.07847
2782.78028,0.07725
2784.70874,0.07604
2786.63721,0.07494
2788.56568,0.07553
2790.49415,0.07833
2792.42262,0.07914
2794.35109,0.07686
2796.27956,0.07558
2798.20802,0.07454
2800.13649,0.07279
2802.06496,0.07271
2803.99343,0.07249
2805.92190,0.07156
2807.85037,0.07240
2809.77884,0.07381
2811.70731,0.07447
2813.63577,0.07462
2815.56424,0.07372
2817.49271,0.07284
2819.42118,0.07243
2821.34965,0.06996
2823.27812,0.06728
2825.20659,0.06938
2827.13505,0.07400
2829.06352,0.07507
2830.99199,0.07238
2832.92046,0.07039
2834.84893,0.06996
2836.77740,0.06998
2838.70587,0.07254
2840.63433,0.07618
2842.56280,0.07781
2844.49127,0.07758
2846.41974,0.07521
2848.34821,0.07262
2850.27668,0.07319
2852.20515,0.07590
2854.13362,0.07707
2856.06208,0.07641
2857.99055,0.07601
2859.91902,0.07641
2861.84749,0.07688
2863.77596,0.07628
2865.70443,0.07454
2867.63290,0.07227
2869.56136,0.07174
2871.48983,0.07430
2873.41830,0.07698
2875.34677,0.07836
2877.27524,0.07827
2879.20371,0.07542
2881.13218,0.07148
2883.06065,0.06922
2884.98911,0.06898
2886.91758,0.07020
2888.84605,0.07200
2890.77452,0.07305
2892.70299,0.07279
2894.63146,0.07314
2896.55993,0.07583
2898.48839,0.07745
2900.41686,0.07659
2902.34533,0.07713
2904.27380,0.07929
2906.20227,0.08004
2908.13074,0.07794
2910.05921,0.07337
2911.98768,0.07009
2913.91614,0.07232
2915.84461,0.07778
2917.77308,0.07967
2919.70155,0.07640
2921.63002,0.07387
2923.55849,0.07543
2925.48696,0.07764
2927.41542,0.07946
2929.34389,0.08197
2931.27236,0.08416
2933.20083,0.08498
2935.12930,0.08356
2937.05777,0.08028
2938.98624,0.07637
2940.91471,0.07329
2942.84317,0.07215
2944.77164,0.07305
2946.70011,0.07491
2948.62858,0.07592
2950.55705,0.07630
2952.48552,0.07570
2954.41399,0.07386
2956.34245,0.07275
2958.27092,0.07260
2960.19939,0.07401
2962.12786,0.07661
2964.05633,0.07649
2965.98480,0.07428
2967.91327,0.07437
2969.84174,0.07684
2971.77020,0.07959
2973.69867,0.08197
2975.62714,0.08401
2977.55561,0.08575
2979.48408,0.08653
2981.41255,0.08561
2983.34102,0.08334
2985.26948,0.08082
2987.19795,0.07947
2989.12642,0.07819
2991.05489,0.07455
2992.98336,0.07168
2994.91183,0.07496
2996.84030,0.08160
2998.76877,0.08373
3000.69723,0.07990
3002.62570,0.07486
3004.55417,0.07194
3006.48264,0.07244
3008.41111,0.07568
3010.33958,0.07810
3012.26805,0.07785
3014.19651,0.07699
3016.12498,0.07774
3018.05345,0.08013
3019.98192,0.08179
3021.91039,0.07956
3023.83886,0.07475
3025.76733,0.07101
3027.69579,0.06942
3029.62426,0.07135
3031.55273,0.07453
3033.48120,0.07440
3035.40967,0.07459
3037.33814,0.07737
3039.26661,0.07702
3041.19508,0.07467
3043.12354,0.07709
3045.05201,0.08223
3046.98048,0.08418
3048.90895,0.08169
3050.83742,0.07807
3052.76589,0.07844
3054.69436,0.08011
3056.62282,0.07648
3058.55129,0.07259
3060.47976,0.07510
3062.40823,0.07811
3064.33670,0.07680
3066.26517,0.07576
3068.19364,0.07770
3070.12211,0.08012
3072.05057,0.08012
3073.97904,0.07671
3075.90751,0.07291
3077.83598,0.07240
3079.76445,0.07426
3081.69292,0.07418
3083.62139,0.07128
3085.54985,0.07208
3087.47832,0.07779
3089.40679,0.07925
3091.33526,0.07502
3093.26373,0.07216
3095.19220,0.07266
3097.12067,0.07645
3099.04914,0.08219
3100.97760,0.08361
3102.90607,0.07944
3104.83454,0.07685
3106.76301,0.07733
3108.69148,0.07625
3110.61995,0.07223
3112.54842,0.06906
3114.47688,0.07242
3116.40535,0.08008
3118.33382,0.08390
3120.26229,0.08311
3122.19076,0.08191
3124.11923,0.08206
3126.04770,0.08164
3127.97617,0.07848
3129.90463,0.07500
3131.83310,0.07568
3133.76157,0.08140
3135.69004,0.08680
3137.61851,0.08653
3139.54698,0.08217
3141.47545,0.07786
3143.40391,0.07475
3145.33238,0.07228
3147.26085,0.07112
3149.18932,0.07206
3151.11779,0.07407
3153.04626,0.07681
3154.97473,0.08224
3156.90320,0.08759
3158.83166,0.08645
3160.76013,0.08173
3162.68860,0.07873
3164.61707,0.07625
3166.54554,0.07623
3168.47401,0.07867
3170.40248,0.07750
3172.33094,0.07574
3174.25941,0.07922
3176.18788,0.08218
3178.11635,0.08007
3180.04482,0.07624
3181.97329,0.07242
3183.90176,0.06984
3185.83022,0.07054
3187.75869,0.07269
3189.68716,0.07248
3191.61563,0.07098
3193.54410,0.07170
3195.47257,0.07244
3197.40104,0.07203
3199.32951,0.07359
3201.25797,0.07661
3203.18644,0.07918
3205.11491,0.08006
3207.04338,0.07865
3208.97185,0.07777
3210.90032,0.07799
3212.82879,0.07558
3214.75725,0.07571
3216.68572,0.08206
3218.61419,0.08283
3220.54266,0.07644
3222.47113,0.07279
3224.39960,0.07092
3226.32807,0.06890
3228.25654,0.07225
3230.18500,0.07944
3232.11347,0.08040
3234.04194,0.07496
3235.97041,0.07101
3237.89888,0.06968
3239.82735,0.07163
3241.75582,0.07734
3243.68428,0.08117
3245.61275,0.07973
3247.54122,0.07498
3249.46969,0.07202
3251.39816,0.07283
3253.32663,0.07273
3255.25510,0.07100
3257.18357,0.07265
3259.11203,0.07825
3261.04050,0.08046
3262.96897,0.07594
3264.89744,0.07127
3266.82591,0.07036
3268.75438,0.07018
3270.68285,0.07211
3272.61131,0.08072
3274.53978,0.08857
3276.46825,0.08512
3278.39672,0.07479
3280.32519,0.06944
3282.25366,0.07349
3284.18213,0.08192
3286.11060,0.08443
3288.03906,0.07680
3289.96753,0.07032
3291.89600,0.07325
3293.82447,0.07939
3295.75294,0.08171
3297.68141,0.07900
3299.60988,0.07668
3301.53834,0.07949
3303.46681,0.08441
3305.39528,0.08471
3307.32375,0.07705
3309.25222,0.06789
3311.18069,0.06655
3313.10916,0.07222
3315.03763,0.08065
3316.96609,0.08959
3318.89456,0.09145
3320.82303,0.08449
3322.75150,0.07778
3324.67997,0.07564
3326.60844,0.07806
3328.53691,0.08350
3330.46537,0.08510
3332.39384,0.07953
3334.32231,0.07229
3336.25078,0.06997
3338.17925,0.07384
3340.10772,0.07980
3342.03619,0.08466
3343.96466,0.08665
3345.89312,0.08409
3347.82159,0.07923
3349.75006,0.07490
3351.67853,0.07260
3353.60700,0.07351
3355.53547,0.07592
3357.46394,0.07537
3359.39240,0.07098
3361.32087,0.06819
3363.24934,0.07134
3365.17781,0.07911
3367.10628,0.08659
3369.03475,0.08713
3370.96322,0.07934
3372.89168,0.07309
3374.82015,0.07437
3376.74862,0.07742
3378.67709,0.08045
3380.60556,0.08366
3382.53403,0.08387
3384.46250,0.08257
3386.39097,0.08233
3388.31943,0.08241
3390.24790,0.08380
3392.17637,0.08565
3394.10484,0.08407
3396.03331,0.08036
3397.96178,0.07690
3399.89025,0.07480
3401.81871,0.07667
3403.74718,0.07899
3405.67565,0.07722
3407.60412,0.07621
3409.53259,0.07884
3411.46106,0.08115
3413.38953,0.08370
3415.31800,0.08773
3417.24646,0.08796
3419.17493,0.08215
3421.10340,0.07699
3423.03187,0.07575
3424.96034,0.07431
3426.88881,0.07185
3428.81728,0.07183
3430.74574,0.07446
3432.67421,0.07460
3434.60268,0.07147
3436.53115,0.07005
3438.45962,0.07314
3440.38809,0.07768
3442.31656,0.07858
3444.24503,0.07784
3446.17349,0.07662
3448.10196,0.07242
3450.03043,0.07009
3451.95890,0.07324
3453.88737,0.07609
3455.81584,0.07400
3457.74431,0.07225
3459.67277,0.07522
3461.60124,0.07658
3463.52971,0.07186
3465.45818,0.06836
3467.38665,0.07066
3469.31512,0.07314
3471.24359,0.07358
3473.17206,0.07424
3475.10052,0.07216
3477.02899,0.06550
3478.95746,0.05917
3480.88593,0.05713
3482.81440,0.05868
3484.74287,0.06032
3486.67134,0.06133
3488.59980,0.06569
3490.52827,0.07176
3492.45674,0.07320
3494.38521,0.07273
3496.31368,0.07336
3498.24215,0.07092
3500.17062,0.06780
3502.09909,0.06762
3504.02755,0.06685
3505.95602,0.06656
3507.88449,0.07028
3509.81296,0.07155
3511.74143,0.06585
3513.66990,0.06370
3515.59837,0.06775
3517.52683,0.06810
3519.45530,0.06500
3521.38377,0.06440
3523.31224,0.06533
3525.24071,0.06615
3527.16918,0.06691
3529.09765,0.06764
3531.02611,0.06880
3532.95458,0.06957
3534.88305,0.06857
3536.81152,0.06677
3538.73999,0.06542
3540.66846,0.06329
3542.59693,0.06168
3544.52540,0.06306
3546.45386,0.06313
3548.38233,0.06009
3550.31080,0.06223
3552.23927,0.06712
3554.16774,0.06529
3556.09621,0.06250
3558.02468,0.06295
3559.95314,0.06365
3561.88161,0.06517
3563.81008,0.06762
3565.73855,0.07073
3567.66702,0.07087
3569.59549,0.06515
3571.52396,0.06034
3573.45243,0.06016
3575.38089,0.06140
3577.30936,0.05972
3579.23783,0.05762
3581.16630,0.05977
3583.09477,0.06426
3585.02324,0.06796
3586.95171,0.07068
3588.88017,0.06701
3590.80864,0.05703
3592.73711,0.04981
3594.66558,0.05258
3596.59405,0.06054
3598.52252,0.06282
3600.45099,0.06001
3602.37946,0.05594
3604.30792,0.05454
3606.23639,0.05586
3608.16486,0.05410
3610.09333,0.04901
3612.02180,0.04764
3613.95027,0.05286
3615.87874,0.05988
3617.80720,0.06531
3619.73567,0.06683
3621.66414,0.06405
3623.59261,0.06223
3625.52108,0.06153
3627.44955,0.05970
3629.37802,0.05559
3631.30649,0.05337
3633.23495,0.05512
3635.16342,0.05896
3637.09189,0.06128
3639.02036,0.05946
3640.94883,0.05437
3642.87730,0.04878
3644.80577,0.04530
3646.73423,0.04475
3648.66270,0.04643
3650.59117,0.04775
3652.51964,0.04919
3654.44811,0.05008
3656.37658,0.04722
3658.30505,0.04491
3660.23352,0.04806
3662.16198,0.05199
3664.09045,0.05353
3666.01892,0.05502
3667.94739,0.05572
3669.87586,0.05074
3671.80433,0.04427
3673.73280,0.04226
3675.66126,0.04354
3677.58973,0.04722
3679.51820,0.05097
3681.44667,0.05314
3683.37514,0.05152
3685.30361,0.04649
3687.23208,0.04331
3689.16055,0.04797
3691.08901,0.05284
3693.01748,0.05109
3694.94595,0.05036
3696.87442,0.05242
3698.80289,0.05149
3700.73136,0.04624
3702.65983,0.04309
3704.58829,0.04570
3706.51676,0.05068
3708.44523,0.05314
3710.37370,0.05089
3712.30217,0.04803
3714.23064,0.04756
3716.15911,0.04833
3718.08757,0.04991
3720.01604,0.05175
3721.94451,0.05088
3723.87298,0.04651
3725.80145,0.04538
3727.72992,0.05068
3729.65839,0.05672
3731.58686,0.05947
3733.51532,0.05862
3735.44379,0.05325
3737.37226,0.04627
3739.30073,0.04405
3741.22920,0.04500
3743.15767,0.04732
3745.08614,0.04883
3747.01460,0.04464
3748.94307,0.03849
3750.87154,0.03908
3752.80001,0.04607
3754.72848,0.04887
3756.65695,0.04929
3758.58542,0.04918
3760.51389,0.04577
3762.44235,0.04225
3764.37082,0.04356
3766.29929,0.04702
3768.22776,0.04831
3770.15623,0.04788
3772.08470,0.04723
3774.01317,0.04790
3775.94163,0.04960
3777.87010,0.05025
3779.79857,0.04894
3781.72704,0.04786
3783.65551,0.04813
3785.58398,0.04846
3787.51245,0.04682
3789.44092,0.04356
3791.36938,0.04290
3793.29785,0.04620
3795.22632,0.04989
3797.15479,0.05074
3799.08326,0.05231
3801.01173,0.05763
3802.94020,0.05545
3804.86866,0.04563
3806.79713,0.03884
3808.72560,0.03863
3810.65407,0.03890
3812.58254,0.03731
3814.51101,0.03972
3816.43948,0.04761
3818.36795,0.05100
3820.29641,0.04921
3822.22488,0.04825
3824.15335,0.05081
3826.08182,0.05116
3828.01029,0.04390
3829.93876,0.03704
3831.86723,0.03899
3833.79569,0.04566
3835.72416,0.05205
3837.65263,0.05684
3839.58110,0.05655
3841.50957,0.05430
3843.43804,0.05301
3845.36651,0.05217
3847.29498,0.05343
3849.22344,0.05760
3851.15191,0.06586
3853.08038,0.07560
3855.00885,0.06800
3856.93732,0.05406
3858.86579,0.04686
3860.79426,0.04462
3862.72272,0.04004
3864.65119,0.03311
3866.57966,0.03373
3868.50813,0.03515
3870.43660,0.03188
3872.36507,0.03570
3874.29354,0.04577
3876.22200,0.05051
3878.15047,0.05100
3880.07894,0.04954
3882.00741,0.04226
3883.93588,0.03490
3885.86435,0.03308
3887.79282,0.03563
3889.72129,0.04110
3891.64975,0.04645
3893.57822,0.04481
3895.50669,0.04070
3897.43516,0.04074
3899.36363,0.04439
3901.29210,0.05022
3903.22057,0.05643
3905.14903,0.05451
3907.07750,0.04601
3909.00597,0.03939
3910.93444,0.03436
3912.86291,0.03092
3914.79138,0.03414
3916.71985,0.04171
3918.64832,0.04440
3920.57678,0.04529
3922.50525,0.04793
3924.43372,0.04886
3926.36219,0.04984
3928.29066,0.05036
3930.21913,0.04804
3932.14760,0.04732
3934.07606,0.04666
3936.00453,0.04130
3937.93300,0.03710
3939.86147,0.03522
3941.78994,0.03132
3943.71841,0.03168
3945.64688,0.03692
3947.57535,0.03816
3949.50381,0.03705
3951.43228,0.03756
3953.36075,0.03587
3955.28922,0.03129
3957.21769,0.03062
3959.14616,0.03502
3961.07463,0.03723
3963.00309,0.03595
3964.93156,0.03511
3966.86003,0.03630
3968.78850,0.03914
3970.71697,0.04022
3972.64544,0.03770
3974.57391,0.03695
3976.50238,0.04084
3978.43084,0.04413
3980.35931,0.04271
3982.28778,0.03927
3984.21625,0.03806
3986.14472,0.03952
3988.07319,0.04419
3990.00166,0.04948
3991.93012,0.04924
3993.85859,0.04495
3995.78706,0.04142
3997.71553,0.03744
3999.64400,0.03311
4001.57247,0.03370
4003.50094,0.03805
4005.42941,0.04020
4007.35787,0.04024
4009.28634,0.04123
4011.21481,0.04420
4013.14328,0.04534
4015.07175,0.04072
4017.00022,0.03584
4018.92869,0.03673
4020.85715,0.03976
4022.78562,0.04149
4024.71409,0.04242
4026.64256,0.04337
4028.57103,0.04664
4030.49950,0.04851
4032.42797,0.04439
4034.35644,0.04094
4036.28490,0.04087
4038.21337,0.03935
4040.14184,0.03866
4042.07031,0.03892
4043.99878,0.03839
4045.92725,0.04172
4047.85572,0.04344
4049.78418,0.03684
4051.71265,0.03194
4053.64112,0.03365
4055.56959,0.03417
4057.49806,0.03128
4059.42653,0.02928
4061.35500,0.03184
4063.28346,0.03740
4065.21193,0.03868
4067.14040,0.03357
4069.06887,0.02600
4070.99734,0.02031
4072.92581,0.02271
4074.85428,0.03245
4076.78275,0.03774
4078.71121,0.03463
4080.63968,0.03280
4082.56815,0.03618
4084.49662,0.03962
4086.42509,0.03981
4088.35356,0.03719
4090.28203,0.03563
4092.21049,0.03753
4094.13896,0.03891
4096.06743,0.03660
4097.99590,0.03423
4099.92437,0.03373
4101.85284,0.03165
4103.78131,0.02989
4105.70978,0.03176
4107.63824,0.03237
4109.56671,0.02978
4111.49518,0.02915
4113.42365,0.03214
4115.35212,0.03516
4117.28059,0.03409
4119.20906,0.02975
4121.13752,0.02636
4123.06599,0.02534
4124.99446,0.02691
4126.92293,0.02990
4128.85140,0.03246
4130.77987,0.03450
4132.70834,0.03276
4134.63681,0.02608
4136.56527,0.02463
4138.49374,0.03188
4140.42221,0.03601
4142.35068,0.03417
4144.27915,0.03198
4146.20762,0.03022
4148.13609,0.03059
4150.06455,0.03159
4151.99302,0.03080
4153.92149,0.03333
4155.84996,0.03912
4157.77843,0.04018
4159.70690,0.03497
4161.63537,0.02962
4163.56384,0.02966
4165.49230,0.03008
4167.42077,0.02407
4169.34924,0.02059
4171.27771,0.02666
4173.20618,0.03605
4175.13465,0.03961
4177.06312,0.03185
4178.99158,0.02433
4180.92005,0.02626
4182.84852,0.02707
4184.77699,0.02419
4186.70546,0.02465
4188.63393,0.02625
4190.56240,0.02695
4192.49087,0.03076
4194.41933,0.03455
4196.34780,0.03357
4198.27627,0.03043
4200.20474,0.02922
4202.13321,0.03269
4204.06168,0.03652
4205.99015,0.03405
4207.91861,0.02771
4209.84708,0.02167
4211.77555,0.01945
4213.70402,0.02350
4215.63249,0.02665
4217.56096,0.02489
4219.48943,0.02688
4221.41789,0.03294
4223.34636,0.03558
4225.27483,0.03598
4227.20330,0.03552
4229.13177,0.03129
4231.06024,0.02662
4232.98871,0.02806
4234.91718,0.03491
4236.84564,0.04272
4238.77411,0.04669
4240.70258,0.04178
4242.63105,0.03348
4244.55952,0.03326
4246.48799,0.03818
4248.41646,0.03525
4250.34492,0.02595
4252.27339,0.02266
4254.20186,0.02572
4256.13033,0.02748
4258.05880,0.02451
4259.98727,0.01817
4261.91574,0.01393
4263.84421,0.01334
4265.77267,0.01415
4267.70114,0.01436
4269.62961,0.01348
4271.55808,0.01803
4273.48655,0.02629
4275.41502,0.02840
4277.34349,0.02815
4279.27195,0.03031
4281.20042,0.03016
4283.12889,0.02772
4285.05736,0.02355
4286.98583,0.01730
4288.91430,0.01469
4290.84277,0.01263
4292.77124,0.00909
4294.69970,0.01199
4296.62817,0.01525
4298.55664,0.01315
4300.48511,0.01233
4302.41358,0.01420
4304.34205,0.01777
4306.27052,0.02051
4308.19898,0.01937
4310.12745,0.01999
4312.05592,0.02467
4313.98439,0.02624
4315.91286,0.02007
4317.84133,0.01000
4319.76980,0.00883
4321.69827,0.01769
4323.62673,0.02340
4325.55520,0.02401
4327.48367,0.02327
4329.41214,0.02434
4331.34061,0.02652
4333.26908,0.02387
4335.19755,0.02100
4337.12601,0.02353
4339.05448,0.02680
4340.98295,0.02975
4342.91142,0.03541
4344.83989,0.03909
4346.76836,0.03523
4348.69683,0.02622
4350.62530,0.01769
4352.55376,0.01310
4354.48223,0.01047
4356.41070,0.00908
4358.33917,0.01145
4360.26764,0.01559
4362.19611,0.01668
4364.12458,0.01551
4366.05304,0.01729
4367.98151,0.02109
4369.90998,0.02293
4371.83845,0.02103
4373.76692,0.01602
4375.69539,0.01200
4377.62386,0.01299
4379.55232,0.01834
4381.48079,0.02191
4383.40926,0.02153
4385.33773,0.02016
4387.26620,0.01557
4389.19467,0.00842
4391.12314,0.00528
4393.05161,0.00509
4394.98007,0.00351
4396.90854,0.00343
4398.83701,0.00635
4400.76548,0.00924
4402.69395,0.01155
4404.62242,0.01072
4406.55089,0.00644
4408.47935,0.00783
4410.40782,0.01584
4412.33629,0.01829
4414.26476,0.01104
4416.19323,0.00591
4418.12170,0.01338
4420.05017,0.02539
4421.97864,0.02799
4423.90710,0.02083
4425.83557,0.01401
4427.76404,0.01546
4429.69251,0.02089
4431.62098,0.01999
4433.54945,0.01480
4435.47792,0.01346
4437.40638,0.01375
4439.33485,0.01178
4441.26332,0.00955
4443.19179,0.00570
4445.12026,-0.00062
4447.04873,-0.00108
4448.97720,0.00554
4450.90567,0.01155
4452.83413,0.01370
4454.76260,0.01187
4456.69107,0.00978
4458.61954,0.00940
4460.54801,0.01017
4462.47648,0.01181
4464.40495,0.01214
4466.33341,0.01304
4468.26188,0.01725
4470.19035,0.02363
4472.11882,0.02608
4474.04729,0.01980
4475.97576,0.00903
4477.90423,0.00178
4479.83270,0.00299
4481.76116,0.00743
4483.68963,0.00514
4485.61810,-0.00185
4487.54657,-0.00579
4489.47504,-0.00899
4491.40351,-0.01270
4493.33198,-0.01040
4495.26044,-0.00362
4497.18891,0.00126
4499.11738,0.00444
4501.04585,0.00879
4502.97432,0.01286
4504.90279,0.01130
4506.83126,0.00744
4508.75973,0.00861
4510.68819,0.00765
4512.61666,0.00407
4514.54513,0.00887
4516.47360,0.01474
4518.40207,0.00944
4520.33054,0.00050
4522.25901,0.00245
4524.18747,0.01087
4526.11594,0.00930
4528.04441,0.00185
4529.97288,0.00322
4531.90135,0.00750
4533.82982,0.00523
4535.75829,0.00361
4537.68676,0.00928
4539.61522,0.01866
4541.54369,0.02503
4543.47216,0.02436
4545.40063,0.01462
4547.32910,0.00175
4549.25757,-0.00392
4551.18604,-0.00946
4553.11450,-0.01982
4555.04297,-0.02536
4556.97144,-0.02262
4558.89991,-0.01249
4560.82838,-0.00044
4562.75685,0.00764
4564.68532,0.01211
4566.61378,0.01215
4568.54225,0.00909
4570.47072,0.00537
4572.39919,0.00214
4574.32766,0.00196
4576.25613,0.00258
4578.18460,-0.00065
4580.11307,-0.00473
4582.04153,-0.00309
4583.97000,-0.00070
4585.89847,-0.00254
4587.82694,-0.00096
4589.75541,0.00266
4591.68388,0.00308
4593.61235,0.00280
4595.54081,-0.00245
4597.46928,-0.00826
4599.39775,-0.00028
4601.32622,0.01164
4603.25469,0.01147
4605.18316,0.00872
4607.11163,0.00760
4609.04010,0.00461
4610.96856,0.00441
4612.89703,0.00556
4614.82550,0.00568
4616.75397,0.00487
4618.68244,0.00263
4620.61091,0.00004
4622.53938,-0.00032
4624.46784,0.00042
4626.39631,-0.00296
4628.32478,-0.00722
4630.25325,-0.00430
4632.18172,0.00283
4634.11019,0.00659
4636.03866,0.00985
4637.96713,0.01794
4639.89559,0.02451
4641.82406,0.01994
4643.75253,0.00842
4645.68100,0.00437
4647.60947,0.00665
4649.53794,0.00409
4651.46641,-0.00353
4653.39487,-0.00999
4655.32334,-0.00671
4657.25181,0.00535
4659.18028,0.01200
4661.10875,0.01045
4663.03722,0.00888
4664.96569,0.00801
4666.89416,0.00866
4668.82262,0.01487
4670.75109,0.02058
4672.67956,0.01667
4674.60803,0.00644
4676.53650,-0.00391
4678.46497,-0.01004
4680.39344,-0.00945
4682.32190,-0.01095
4684.25037,-0.01695
4686.17884,-0.01309
4688.10731,0.00311
4690.03578,0.01578
4691.96425,0.01774
4693.89272,0.01464
4695.82119,0.00949
4697.74965,0.00572
4699.67812,0.00276
4701.60659,-0.00439
4703.53506,-0.00692
4705.46353,-0.00161
4707.39200,-0.00188
4709.32047,-0.00516
4711.24893,-0.00048
4713.17740,0.00534
4715.10587,0.00365
4717.03434,-0.00260
4718.96281,-0.00515
4720.89128,0.00469
4722.81975,0.02483
4724.74821,0.03757
4726.67668,0.03151
4728.60515,0.01290
4730.53362,-0.00140
4732.46209,-0.00734
4734.39056,-0.01261
4736.31903,-0.01475
4738.24750,-0.01093
4740.17596,-0.00730
4742.10443,-0.00342
4744.03290,0.00322
4745.96137,0.01065
4747.88984,0.01715
4749.81831,0.01640
4751.74678,0.00580
4753.67524,-0.00596
4755.60371,-0.00751
4757.53218,0.00270
4759.46065,0.01197
4761.38912,0.01071
4763.31759,0.00352
4765.24606,-0.00260
4767.17453,-0.00369
4769.10299,0.00441
4771.03146,0.01720
4772.95993,0.02214
4774.88840,0.01959
4776.81687,0.01601
4778.74534,0.00998
4780.67381,0.00331
4782.60227,-0.00286
4784.53074,-0.00812
4786.45921,-0.00562
4788.38768,0.00062
4790.31615,0.00227
4792.24462,0.00071
4794.17309,-0.00284
4796.10156,-0.00805
4798.03002,-0.01636
4799.95849,-0.02237
4801.88696,-0.01467
4803.81543,0.00128
4805.74390,0.00947
4807.67237,0.01062
4809.60084,0.01285
4811.52930,0.01419
4813.45777,0.01854
4815.38624,0.02711
4817.31471,0.02731
4819.24318,0.02188
4821.17165,0.01583
4823.10012,0.00590
4825.02859,0.00625
4826.95705,0.01743
4828.88552,0.01347
4830.81399,-0.00416
4832.74246,-0.01471
4834.67093,-0.01365
4836.59940,-0.00697
4838.52787,-0.00273
4840.45633,0.00011
4842.38480,0.00396
4844.31327,0.00269
4846.24174,-0.00388
4848.17021,-0.00956
4850.09868,-0.01090
4852.02715,-0.00211
4853.95562,0.01248
4855.88408,0.01848
4857.81255,0.01593
4859.74102,0.01260
4861.66949,0.00449
4863.59796,-0.00223
4865.52643,0.00017
4867.45490,0.00560
4869.38336,0.00571
4871.31183,-0.00034
4873.24030,0.00009
4875.16877,0.00650
4877.09724,0.00753
4879.02571,0.00338
4880.95418,-0.00186
4882.88265,-0.00257
4884.81111,0.00056
4886.73958,0.00266
4888.66805,0.00719
4890.59652,0.01677
4892.52499,0.02462
4894.45346,0.02132
4896.38193,0.00609
4898.31039,-0.00747
4900.23886,-0.01174
4902.16733,-0.00663
4904.09580,0.00938
4906.02427,0.01742
4907.95274,0.00669
4909.88121,-0.00342
4911.80967,-0.00200
4913.73814,0.00434
4915.66661,0.00777
4917.59508,0.00847
4919.52355,0.01194
4921.45202,0.02382
4923.38049,0.04034
4925.30896,0.04138
4927.23742,0.02674
4929.16589,0.01378
4931.09436,0.00289
4933.02283,0.00170
4934.95130,0.01817
4936.87977,0.03270
4938.80824,0.02574
4940.73670,0.00681
4942.66517,-0.00306
4944.59364,-0.00077
4946.52211,0.00593
4948.45058,0.01238
4950.37905,0.01660
4952.30752,0.02099
4954.23599,0.02365
4956.16445,0.01690
4958.09292,0.00746
4960.02139,0.01181
4961.94986,0.02388
4963.87833,0.01894
4965.80680,-0.00221
4967.73527,-0.01383
4969.66373,-0.00983
4971.59220,-0.00300
4973.52067,0.00063
4975.44914,0.00235
4977.37761,-0.00225
4979.30608,-0.01331
4981.23455,-0.01544
4983.16302,-0.00487
4985.09148,0.00493
4987.01995,0.00936
4988.94842,0.00834
4990.87689,-0.00080
4992.80536,-0.00030
4994.73383,0.01792
4996.66230,0.02613
4998.59076,0.02281
5000.51923,0.02213
5002.44770,0.01787
5004.37617,0.01198
5006.30464,0.00922
5008.23311,0.00429
5010.16158,-0.00143
5012.09005,0.00210
5014.01851,0.00647
5015.94698,-0.00382
5017.87545,-0.00495
5019.80392,0.02051
5021.73239,0.04057
5023.66086,0.03522
5025.58933,0.01590
5027.51779,0.00144
5029.44626,0.00060
5031.37473,0.00579
5033.30320,0.01154
5035.23167,0.01050
5037.16014,0.00865
5039.08861,0.01903
5041.01708,0.02701
5042.94554,0.02052
5044.87401,0.00985
5046.80248,0.00745
5048.73095,0.01514
5050.65942,0.01273
5052.58789,-0.00809
5054.51636,-0.01950
5056.44482,-0.01373
5058.37329,-0.00584
5060.30176,0.00377
5062.23023,0.01405
5064.15870,0.01762
5066.08717,0.01715
5068.01564,0.02473
5069.94410,0.03916
5071.87257,0.04997
5073.80104,0.05060
5075.72951,0.04208
5077.65798,0.03897
5079.58645,0.04000
5081.51492,0.03086
5083.44339,0.02188
5085.37185,0.02908
5087.30032,0.03884
5089.22879,0.02535
5091.15726,-0.00105
5093.08573,-0.00473
5095.01420,0.01295
5096.94267,0.02235
5098.87113,0.02108
5100.79960,0.01899
5102.72807,0.01158
5104.65654,-0.00199
5106.58501,-0.01168
5108.51348,-0.01531
5110.44195,-0.02021
5112.37042,-0.02365
5114.29888,-0.01940
5116.22735,-0.01049
5118.15582,-0.00119
5120.08429,0.00764
5122.01276,0.01096
5123.94123,0.00698
5125.86970,0.00073
5127.79816,-0.00866
5129.72663,-0.01648
5131.65510,-0.01423
5133.58357,-0.00022
5135.51204,0.01331
5137.44051,0.00669
5139.36898,-0.00599
5141.29745,0.00632
5143.22591,0.03886
5145.15438,0.05541
5147.08285,0.04104
5149.01132,0.02328
5150.93979,0.01617
5152.86826,0.01050
5154.79673,0.00560
5156.72519,0.00634
5158.65366,0.01801
5160.58213,0.03491
5162.51060,0.03338
5164.43907,0.00728
5166.36754,-0.00421
5168.29601,0.00434
5170.22448,-0.00176
5172.15294,-0.00575
5174.08141,0.01847
5176.00988,0.03744
5177.93835,0.02519
5179.86682,0.01356
5181.79529,0.02530
5183.72376,0.03734
5185.65222,0.02994
5187.58069,0.01341
5189.50916,0.01081
5191.43763,0.02209
5193.36610,0.02735
5195.29457,0.01947
5197.22304,0.01036
5199.15151,0.01330
5201.07997,0.02492
5203.00844,0.03808
5204.93691,0.04843
5206.86538,0.04582
5208.79385,0.03674
5210.72232,0.03363
5212.65079,0.02457
5214.57925,0.00574
5216.50772,-0.00335
5218.43619,0.00732
5220.36466,0.01727
5222.29313,0.01020
5224.22160,-0.00007
5226.15007,-0.00081
5228.07854,0.00047
5230.00700,0.00101
5231.93547,0.00664
5233.86394,0.01286
5235.79241,0.01197
5237.72088,0.00878
5239.64935,0.01287
5241.57782,0.01744
5243.50628,0.01933
5245.43475,0.02920
5247.36322,0.03277
5249.29169,0.01772
5251.22016,0.00293
5253.14863,-0.00663
5255.07710,-0.01311
5257.00556,-0.00699
5258.93403,0.00913
5260.86250,0.02083
5262.79097,0.01616
5264.71944,0.00757
5266.64791,0.01584
5268.57638,0.02114
5270.50485,0.00995
5272.43331,0.00517
5274.36178,0.01331
5276.29025,0.01878
5278.21872,0.01929
5280.14719,0.02172
5282.07566,0.01958
5284.00413,0.01907
5285.93259,0.03645
5287.86106,0.05261
5289.78953,0.04897
5291.71800,0.03599
5293.64647,0.02785
5295.57494,0.02638
5297.50341,0.02329
5299.43188,0.02196
5301.36034,0.03305
5303.28881,0.04643
5305.21728,0.05449
5307.14575,0.06030
5309.07422,0.05243
5311.00269,0.03118
5312.93116,0.01873
5314.85962,0.02493
5316.78809,0.03888
5318.71656,0.03983
5320.64503,0.02326
5322.57350,0.01844
5324.50197,0.03684
5326.43044,0.04504
5328.35891,0.04205
5330.28737,0.05835
5332.21584,0.07311
5334.14431,0.05227
5336.07278,0.01772
5338.00125,0.01228
5339.92972,0.03607
5341.85819,0.04420
5343.78665,0.02272
5345.71512,0.00466
5347.64359,0.00277
5349.57206,0.00506
5351.50053,0.01738
5353.42900,0.02775
5355.35747,0.02271
5357.28594,0.01878
5359.21440,0.02904
5361.14287,0.04292
5363.07134,0.03808
5364.99981,0.02222
5366.92828,0.01580
5368.85675,0.00884
5370.78522,-0.00453
5372.71368,-0.00872
5374.64215,-0.00597
5376.57062,-0.00880
5378.49909,-0.00356
5380.42756,0.01096
5382.35603,0.02077
5384.28450,0.03146
5386.21297,0.04619
5388.14143,0.05013
5390.06990,0.04336
5391.99837,0.03132
5393.92684,0.02339
5395.85531,0.02793
5397.78378,0.03444
5399.71225,0.03498
5401.64071,0.03023
5403.56918,0.03138
5405.49765,0.03503
5407.42612,0.03501
5409.35459,0.05238
5411.28306,0.06799
5413.21153,0.04827
5415.13999,0.03093
5417.06846,0.02933
5418.99693,0.02389
5420.92540,0.02601
5422.85387,0.04168
5424.78234,0.05829
5426.71081,0.07353
5428.63928,0.07588
5430.56774,0.04192
5432.49621,-0.00422
5434.42468,-0.01891
5436.35315,0.00658
5438.28162,0.03488
5440.21009,0.02698
5442.13856,0.00190
5444.06702,0.00712
5445.99549,0.02812
5447.92396,0.03812
5449.85243,0.03973
5451.78090,0.03355
5453.70937,0.03038
5455.63784,0.04111
5457.56631,0.05275
5459.49477,0.04414
5461.42324,0.01723
5463.35171,0.00684
5465.28018,0.02376
5467.20865,0.03472
5469.13712,0.02605
5471.06559,0.01348
5472.99405,0.00668
5474.92252,0.00414
5476.85099,0.00770
5478.77946,0.00975
5480.70793,0.00316
5482.63640,0.00327
5484.56487,0.01808
5486.49334,0.03053
5488.42180,0.03616
5490.35027,0.03929
5492.27874,0.02222
5494.20721,-0.00236
5496.13568,-0.00651
5498.06415,0.00208
5499.99262,0.02596
5501.92108,0.05644
5503.84955,0.06367
5505.77802,0.05388
5507.70649,0.05100
5509.63496,0.04905
5511.56343,0.04315
5513.49190,0.03708
5515.42037,0.02245
5517.34883,0.00277
5519.27730,-0.01269
5521.20577,-0.01973
5523.13424,-0.01351
5525.06271,0.00033
5526.99118,0.00994
5528.91965,0.00949
5530.84811,-0.00204
5532.77658,-0.00732
5534.70505,0.00939
5536.63352,0.03070
5538.56199,0.03009
5540.49046,0.00003
5542.41893,-0.02621
5544.34740,-0.01182
5546.27586,0.01412
5548.20433,0.02399
5550.13280,0.02586
5552.06127,0.01814
5553.98974,0.01272
5555.91821,0.02025
5557.84668,0.03243
5559.77514,0.05003
5561.70361,0.04981
5563.63208,0.01766
5565.56055,-0.00483
5567.48902,0.00278
5569.41749,0.01566
5571.34596,0.01553
5573.27443,0.00917
5575.20289,0.00143
5577.13136,-0.00290
5579.05983,0.01362
5580.98830,0.03947
5582.91677,0.04547
5584.84524,0.03410
5586.77371,0.01343
5588.70217,-0.00597
5590.63064,0.00245
5592.55911,0.03153
5594.48758,0.04748
5596.41605,0.04753
5598.34452,0.04767
5600.27299,0.04739
5602.20145,0.04252
5604.12992,0.03641
5606.05839,0.02778
5607.98686,0.02430
5609.91533,0.02780
5611.84380,0.03002
5613.77227,0.03831
5615.70074,0.05167
5617.62920,0.05478
5619.55767,0.03845
5621.48614,0.01945
5623.41461,0.02101
5625.34308,0.03573
5627.27155,0.04378
5629.20002,0.04477
5631.12848,0.05092
5633.05695,0.05016
5634.98542,0.03400
5636.91389,0.02982
5638.84236,0.04141
5640.77083,0.04023
5642.69930,0.02754
5644.62777,0.01612
5646.55623,0.00925
5648.48470,0.01975
5650.41317,0.03970
5652.34164,0.04677
5654.27011,0.03647
5656.19858,0.01741
5658.12705,0.00403
5660.05551,0.00147
5661.98398,0.01162
5663.91245,0.02752
5665.84092,0.04046
5667.76939,0.05199
5669.69786,0.05475
5671.62633,0.05105
5673.55480,0.04657
5675.48326,0.03775
5677.41173,0.03940
5679.34020,0.04891
5681.26867,0.04193
5683.19714,0.03030
5685.12561,0.03488
5687.05408,0.04844
5688.98254,0.05692
5690.91101,0.05588
5692.83948,0.05149
5694.76795,0.04933
5696.69642,0.03538
5698.62489,0.00829
5700.55336,0.00240
5702.48183,0.00832
5704.41029,-0.00255
5706.33876,0.00323
5708.26723,0.03968
5710.19570,0.05695
5712.12417,0.03148
5714.05264,0.00441
5715.98111,0.00779
5717.90957,0.03574
5719.83804,0.07950
5721.76651,0.10222
5723.69498,0.08084
5725.62345,0.05553
5727.55192,0.05017
5729.48039,0.05105
5731.40886,0.06142
5733.33732,0.07503
5735.26579,0.06367
5737.19426,0.03343
5739.12273,0.00483
5741.05120,-0.02458
5742.97967,-0.03587
5744.90814,-0.00174
5746.83660,0.05805
5748.76507,0.08796
5750.69354,0.06272
5752.62201,0.02015
5754.55048,0.01004
5756.47895,0.02801
5758.40742,0.04495
5760.33588,0.04930
5762.26435,0.04947
5764.19282,0.05454
5766.12129,0.04109
5768.04976,0.01334
5769.97823,0.00608
5771.90670,0.01419
5773.83517,0.02275
5775.76363,0.02227
5777.69210,0.00251
5779.62057,-0.00251
5781.54904,0.03875
5783.47751,0.08552
5785.40598,0.09859
5787.33445,0.09098
5789.26291,0.08388
5791.19138,0.08155
5793.11985,0.05895
5795.04832,-0.00122
5796.97679,-0.04910
5798.90526,-0.03599
5800.83373,0.01059
5802.76220,0.03751
5804.69066,0.02000
5806.61913,-0.00726
5808.54760,-0.00202
5810.47607,0.01944
5812.40454,0.02484
5814.33301,0.01185
5816.26148,0.00206
5818.18994,0.00869
5820.11841,0.03894
5822.04688,0.07180
5823.97535,0.06057
5825.90382,0.02728
5827.83229,0.01159
5829.76076,0.00149
5831.68923,0.00148
5833.61769,0.03191
5835.54616,0.06929
5837.47463,0.08890
5839.40310,0.08193
5841.33157,0.05053
5843.26004,0.04082
5845.18851,0.07481
5847.11697,0.10749
5849.04544,0.08968
5850.97391,0.03412
5852.90238,-0.00467
5854.83085,-0.01256
5856.75932,-0.00188
5858.68779,0.01867
5860.61626,0.03799
5862.54472,0.04831
5864.47319,0.05608
5866.40166,0.05209
5868.33013,0.03064
5870.25860,0.02612
5872.18707,0.06038
5874.11554,0.10003
5876.04400,0.09268
5877.97247,0.04330
5879.90094,-0.00009
5881.82941,-0.01870
5883.75788,-0.01726
5885.68635,-0.00075
5887.61482,0.01267
5889.54329,0.00929
5891.47175,0.01544
5893.40022,0.04795
5895.32869,0.07317
5897.25716,0.06232
5899.18563,0.04669
5901.11410,0.06162
5903.04257,0.06883
5904.97103,0.03037
5906.89950,0.00119
5908.82797,0.02695
5910.75644,0.05443
5912.68491,0.03413
5914.61338,-0.00726
5916.54185,-0.02252
5918.47032,-0.00852
5920.39878,0.01574
5922.32725,0.04632
5924.25572,0.07161
5926.18419,0.08261
5928.11266,0.08934
5930.04113,0.10553
5931.96960,0.12880
5933.89806,0.12289
5935.82653,0.05686
5937.75500,-0.01347
5939.68347,-0.02865
5941.61194,-0.02035
5943.54041,-0.01223
5945.46888,0.00341
5947.39734,0.00640
5949.32581,-0.00996
5951.25428,-0.02255
5953.18275,-0.01825
5955.11122,-0.00476
5957.03969,0.03034
5958.96816,0.07693
5960.89663,0.08334
5962.82509,0.05808
5964.75356,0.04386
5966.68203,0.06027
5968.61050,0.08963
5970.53897,0.08919
5972.46744,0.06701
5974.39591,0.03910
5976.32437,-0.01230
5978.25284,-0.03717
5980.18131,0.00295
5982.10978,0.04487
5984.03825,0.05991
5985.96672,0.07764
5987.89519,0.08305
5989.82366,0.05312
5991.75212,0.03687
5993.68059,0.06239
5995.60906,0.07444
5997.53753,0.05520
5999.46600,0.03798
6001.39447,0.05537
6003.32294,0.11011
6005.25140,0.13828
6007.17987,0.09907
6009.10834,0.04839
6011.03681,0.04040
6012.96528,0.05151
6014.89375,0.05210
6016.82222,0.01836
6018.75069,-0.03912
6020.67915,-0.05923
6022.60762,-0.05660
6024.53609,-0.04692
6026.46456,-0.01511
6028.39303,0.01374
6030.32150,0.02481
6032.24997,0.02468
6034.17843,0.00905
6036.10690,-0.00495
6038.03537,0.01484
6039.96384,0.04419
6041.89231,0.05769
6043.82078,0.06786
6045.74925,0.07114
6047.67772,0.08042
6049.60618,0.08706
6051.53465,0.04713
6053.46312,0.02105
6055.39159,0.05582
6057.32006,0.05815
6059.24853,0.00008
6061.17700,-0.03911
6063.10546,-0.03171
6065.03393,0.00203
6066.96240,0.05667
6068.89087,0.09890
6070.81934,0.06955
6072.74781,0.00007
6074.67628,-0.01581
6076.60475,0.03315
6078.53321,0.07128
6080.46168,0.06698
6082.39015,0.07457
6084.31862,0.10508
6086.24709,0.10710
6088.17556,0.08590
6090.10403,0.04930
6092.03249,-0.01066
6093.96096,-0.02856
6095.88943,0.02367
6097.81790,0.07415
6099.74637,0.06378
6101.67484,0.02495
6103.60331,0.02811
6105.53177,0.06843
6107.46024,0.08397
6109.38871,0.06524
6111.31718,0.06514
6113.24565,0.06301
6115.17412,0.02045
6117.10259,-0.03091
6119.03106,-0.06272
6120.95952,-0.04785
6122.88799,0.00297
6124.81646,0.03574
6126.74493,0.04826
6128.67340,0.05007
6130.60187,0.03409
6132.53034,0.03566
6134.45880,0.06726
6136.38727,0.08837
6138.31574,0.07404
6140.24421,0.04651
6142.17268,0.04746
6144.10115,0.08519
6146.02962,0.11465
6147.95809,0.09251
6149.88655,0.03678
6151.81502,-0.00526
6153.74349,-0.02786
6155.67196,-0.04407
6157.60043,-0.04466
6159.52890,-0.01054
6161.45737,0.05447
6163.38583,0.08625
6165.31430,0.04542
6167.24277,0.00463
6169.17124,0.00006
6171.09971,-0.00898
6173.02818,-0.00288
6174.95665,0.04121
6176.88512,0.06750
6178.81358,0.06336
6180.74205,0.07151
6182.67052,0.08176
6184.59899,0.05686
6186.52746,0.03318
6188.45593,0.04763
6190.38440,0.06732
6192.31286,0.08687
6194.24133,0.10062
6196.16980,0.09653
6198.09827,0.08192
6200.02674,0.06758
6201.95521,0.06320
6203.88368,0.04928
6205.81215,0.01756
6207.74061,-0.02151
6209.66908,-0.06205
6211.59755,-0.08377
6213.52602,-0.06821
6215.45449,-0.00566
6217.38296,0.05288
6219.31143,0.03658
6221.23989,-0.01753
6223.16836,-0.03009
6225.09683,0.02164
6227.02530,0.07382
6228.95377,0.06776
6230.88224,0.05492
6232.81071,0.06244
6234.73918,0.03354
6236.66764,-0.02711
6238.59611,-0.08466
6240.52458,-0.09704
6242.45305,-0.03864
6244.38152,0.03055
6246.30999,0.04028
6248.23846,0.00043
6250.16692,-0.03387
6252.09539,-0.03338
6254.02386,-0.03190
6255.95233,-0.05616
6257.88080,-0.04418
6259.80927,0.02571
6261.73774,0.06323
6263.66621,0.05703
6265.59467,0.05963
6267.52314,0.05754
6269.45161,0.04900
6271.38008,0.03192
6273.30855,0.01168
6275.23702,0.00958
6277.16549,-0.00735
6279.09395,-0.01186
6281.02242,0.04399
6282.95089,0.12401
6284.87936,0.16724
6286.80783,0.14935
6288.73630,0.13097
6290.66477,0.13564
6292.59323,0.07275
6294.52170,-0.04513
6296.45017,-0.09861
6298.37864,-0.06691
6300.30711,-0.02552
6302.23558,-0.02402
6304.16405,0.00138
6306.09252,0.10739
6308.02098,0.18685
6309.94945,0.14979
6311.87792,0.07968
6313.80639,0.05541
6315.73486,0.05717
6317.66333,0.06141
6319.59180,0.07354
6321.52026,0.08002
6323.44873,0.05424
6325.37720,0.00765
6327.30567,-0.03128
6329.23414,-0.01050
6331.16261,0.08920
6333.09108,0.15798
6335.01955,0.11479
6336.94801,0.03697
6338.87648,-0.00275
6340.80495,-0.01751
6342.73342,-0.03435
6344.66189,-0.03241
6346.59036,0.03382
6348.51883,0.11777
6350.44729,0.14261
6352.37576,0.11038
6354.30423,0.06343
6356.23270,0.04929
6358.16117,0.07763
6360.08964,0.09541
6362.01811,0.06844
6363.94658,0.03544
6365.87504,0.02585
6367.80351,-0.00415
6369.73198,-0.04605
6371.66045,-0.01502
6373.58892,0.06488
6375.51739,0.08188
6377.44586,0.05009
6379.37432,0.04310
6381.30279,0.05455
6383.23126,0.05067
6385.15973,0.05844
6387.08820,0.08493
6389.01667,0.09996
6390.94514,0.10552
6392.87361,0.06687
6394.80207,-0.00745
6396.73054,-0.01589
6398.65901,0.02222
6400.58748,0.02954
6402.51595,0.02009
6404.44442,0.04950
6406.37289,0.10110
6408.30135,0.12909
6410.22982,0.12645
6412.15829,0.11515
6414.08676,0.10168
6416.01523,0.07047
6417.94370,0.01601
6419.87217,-0.03353
6421.80064,-0.01586
6423.72910,0.07486
6425.65757,0.14720
6427.58604,0.11805
6429.51451,0.04077
6431.44298,0.00647
6433.37145,0.00750
6435.29992,-0.00808
6437.22838,-0.07098
6439.15685,-0.11836
6441.08532,-0.06665
6443.01379,0.02433
6444.94226,0.04812
6446.87073,0.02629
6448.79920,0.00589
6450.72766,-0.02024
6452.65613,-0.02406
6454.58460,0.00312
6456.51307,0.02902
6458.44154,0.03065
6460.37001,0.01057
6462.29848,0.03490
6464.22695,0.12130
6466.15541,0.15540
6468.08388,0.10008
6470.01235,0.04215
6471.94082,-0.00718
6473.86929,-0.02744
6475.79776,0.03239
6477.72623,0.08320
6479.65469,0.05037
6481.58316,0.01022
6483.51163,0.04592
6485.44010,0.10714
6487.36857,0.11250
6489.29704,0.09184
6491.22551,0.09975
6493.15398,0.06575
6495.08244,-0.03539
6497.01091,-0.08120
6498.93938,-0.04779
6500.86785,-0.01705
6502.79632,-0.00763
6504.72479,0.01133
6506.65326,0.02630
6508.58172,0.02012
6510.51019,0.01929
6512.43866,0.05918
6514.36713,0.11602
6516.29560,0.13328
6518.22407,0.08879
6520.15254,0.00679
6522.08101,-0.04114
6524.00947,-0.01163
6525.93794,0.02451
6527.86641,0.01156
6529.79488,-0.00893
6531.72335,0.00377
6533.65182,0.06685
6535.58029,0.14432
6537.50875,0.15025
6539.43722,0.05190
6541.36569,-0.08064
6543.29416,-0.12030
6545.22263,-0.04775
6547.15110,0.01599
6549.07957,0.04567
6551.00804,0.07907
6552.93650,0.07611
6554.86497,0.00588
6556.79344,-0.04425
6558.72191,0.00222
6560.65038,0.09107
6562.57885,0.11000
6564.50732,0.05777
6566.43578,0.01537
6568.36425,-0.02408
6570.29272,-0.06292
6572.22119,-0.07528
6574.14966,-0.05572
6576.07813,0.00168
6578.00660,0.04830
6579.93507,0.06268
6581.86353,0.07765
6583.79200,0.10845
6585.72047,0.12883
6587.64894,0.07207
6589.57741,-0.01383
6591.50588,-0.02565
6593.43435,0.00667
6595.36281,0.07064
6597.29128,0.17951
6599.21975,0.22455
6601.14822,0.14383
6603.07669,0.04107
6605.00516,-0.01125
6606.93363,-0.05808
6608.86210,-0.11098
6610.79056,-0.09676
6612.71903,-0.00465
6614.64750,0.09547
6616.57597,0.16126
6618.50444,0.15460
6620.43291,0.08157
6622.36138,-0.00611
6624.28984,-0.04491
6626.21831,0.03260
6628.14678,0.21801
6630.07525,0.35412
6632.00372,0.31591
6633.93219,0.16663
6635.86066,0.02568
6637.78912,0.01676
6639.71759,0.09695
6641.64606,0.10660
6643.57453,0.03314
6645.50300,0.01431
6647.43147,0.06838
6649.35994,0.07736
6651.28841,0.02612
6653.21687,-0.01987
6655.14534,-0.02743
6657.07381,0.02074
6659.00228,0.07768
6660.93075,0.06449
6662.85922,0.01655
6664.78769,0.00873
6666.71615,0.04869
6668.64462,0.09336
6670.57309,0.11367
6672.50156,0.06419
6674.43003,-0.04509
6676.35850,-0.10074
6678.28697,-0.10696
6680.21544,-0.10281
6682.14390,-0.01773
6684.07237,0.12271
6686.00084,0.16431
6687.92931,0.12150
6689.85778,0.10125
6691.78625,0.08373
6693.71472,0.03669
6695.64318,-0.00528
6697.57165,-0.00880
6699.50012,-0.01985
6701.42859,-0.04470
6703.35706,-0.02711
6705.28553,0.01380
6707.21400,0.02332
6709.14247,0.01918
6711.07093,0.02153
6712.99940,0.02435
6714.92787,0.04105
6716.85634,0.06004
6718.78481,0.07284
6720.71328,0.08024
6722.64175,0.05829
6724.57021,0.03800
6726.49868,0.05380
6728.42715,0.12251
6730.35562,0.19957
6732.28409,0.19748
6734.21256,0.09262
6736.14103,-0.01943
6738.06950,-0.05643
6739.99796,-0.02663
6741.92643,0.02877
6743.85490,0.00560
6745.78337,-0.10183
6747.71184,-0.14305
6749.64031,-0.03980
6751.56878,0.05942
6753.49724,0.05534
6755.42571,0.00693
6757.35418,-0.05895
6759.28265,-0.08126
6761.21112,0.01187
6763.13959,0.07641
6765.06806,0.00484
6766.99653,-0.10121
6768.92499,-0.10162
6770.85346,-0.02423
6772.78193,0.02066
6774.71040,0.03823
6776.63887,0.08814
6778.56734,0.14355
6780.49581,0.14193
6782.42427,0.09934
6784.35274,0.05568
6786.28121,0.01983
6788.20968,0.01568
6790.13815,0.04545
6792.06662,0.10381
6793.99509,0.16269
6795.92355,0.13017
6797.85202,0.00739
6799.78049,-0.06891
6801.70896,-0.01492
6803.63743,0.08990
6805.56590,0.15118
6807.49437,0.16313
6809.42284,0.16226
6811.35130,0.18729
6813.27977,0.18131
6815.20824,0.12377
6817.13671,0.09395
6819.06518,0.07977
6820.99365,0.05828
6822.92212,0.08360
6824.85058,0.11370
6826.77905,0.03363
6828.70752,-0.09807
6830.63599,-0.10335
6832.56446,-0.00337
6834.49293,0.03154
6836.42140,-0.00064
6838.34987,0.03934
6840.27833,0.11635
6842.20680,0.12078
6844.13527,0.10989
6846.06374,0.19118
6847.99221,0.30902
6849.92068,0.31752
6851.84915,0.23003
6853.77761,0.14049
6855.70608,0.10800
6857.63455,0.12450
6859.56302,0.13181
6861.49149,0.11843
6863.41996,0.12269
6865.34843,0.17237
6867.27690,0.18220
6869.20536,0.07945
6871.13383,-0.02005
6873.06230,0.02138
6874.99077,0.06382
6876.91924,-0.00688
6878.84771,-0.03528
6880.77618,0.03518
6882.70464,0.05233
6884.63311,-0.01487
6886.56158,-0.04353
6888.49005,-0.01355
6890.41852,0.00523
6892.34699,0.04066
6894.27546,0.07249
6896.20393,0.08900
6898.13239,0.18065
6900.06086,0.30907
6901.98933,0.33169
6903.91780,0.20988
6905.84627,0.07627
6907.77474,0.08757
6909.70321,0.17854
6911.63167,0.21543
6913.56014,0.18347
6915.48861,0.14520
6917.41708,0.08361
6919.34555,-0.01877
6921.27402,-0.01930
6923.20249,0.08432
6925.13096,0.14702
6927.05942,0.17154
6928.98789,0.14510
6930.91636,0.00970
6932.84483,-0.06720
6934.77330,-0.01898
6936.70177,-0.00949
6938.63024,-0.02579
6940.55870,-0.01287
6942.48717,0.00260
6944.41564,0.04699
6946.34411,0.06112
6948.27258,-0.02769
6950.20105,-0.10666
6952.12952,-0.06847
6954.05799,0.03874
6955.98645,0.06453
6957.91492,0.00683
6959.84339,0.01279
6961.77186,0.08783
6963.70033,0.13572
6965.62880,0.13151
6967.55727,0.10221
6969.48573,0.08977
6971.41420,0.10498
6973.34267,0.07812
6975.27114,-0.01479
6977.19961,-0.04515
6979.12808,-0.02509
6981.05655,-0.05869
6982.98501,-0.08660
6984.91348,-0.02224
6986.84195,0.07052
6988.77042,0.05553
6990.69889,-0.03354
6992.62736,-0.01976
6994.55583,0.09592
6996.48430,0.15199
6998.41276,0.06472
7000.34123,-0.02559
7002.26970,-0.01345
7004.19817,0.00822
7006.12664,-0.04147
7008.05511,-0.07511
7009.98358,-0.03923
7011.91204,0.01185
7013.84051,0.08618
7015.76898,0.15218
7017.69745,0.15244
7019.62592,0.08389
7021.55439,-0.01168
7023.48286,-0.05314
7025.41133,-0.03819
7027.33979,-0.08952
7029.26826,-0.15446
7031.19673,-0.07421
7033.12520,0.07578
7035.05367,0.18371
7036.98214,0.20633
7038.91061,0.25052
7040.83907,0.38184
7042.76754,0.41154
7044.69601,0.23353
7046.62448,0.08361
7048.55295,0.06006
7050.48142,0.05491
7052.40989,0.03392
7054.33836,-0.00653
7056.26682,-0.08438
7058.19529,-0.07260
7060.12376,0.05484
7062.05223,0.13215
7063.98070,0.15709
7065.90917,0.15585
7067.83764,0.09501
7069.76610,0.02955
7071.69457,-0.01401
7073.62304,-0.05992
7075.55151,-0.07630
7077.47998,-0.07394
7079.40845,-0.03596
7081.33692,0.06311
7083.26539,0.16245
7085.19385,0.21098
7087.12232,0.13603
7089.05079,-0.01962
7090.97926,-0.07407
7092.90773,-0.04465
7094.83620,-0.02546
7096.76467,-0.01285
7098.69313,0.05994
7100.62160,0.22059
7102.55007,0.33126
7104.47854,0.24884
7106.40701,0.04837
7108.33548,-0.07083
7110.26395,-0.08044
7112.19242,-0.06232
7114.12088,-0.05116
7116.04935,0.01369
7117.97782,0.08683
7119.90629,0.07866
7121.83476,0.10446
7123.76323,0.16470
7125.69170,0.17829
7127.62016,0.12272
7129.54863,0.01128
7131.47710,-0.06209
7133.40557,-0.03347
7135.33404,0.01609
7137.26251,0.00948
7139.19098,-0.03215
7141.11944,-0.01575
7143.04791,0.05520
7144.97638,0.07816
7146.90485,0.10470
7148.83332,0.21037
7150.76179,0.27509
7152.69026,0.19046
7154.61873,0.06783
7156.54719,0.06311
7158.47566,0.16360
7160.40413,0.25132
7162.33260,0.19117
7164.26107,0.08197
7166.18954,0.08172
7168.11801,0.12282
7170.04647,0.16587
7171.97494,0.29839
7173.90341,0.43905
7175.83188,0.44463
7177.76035,0.32335
7179.68882,0.17251
7181.61729,0.08712
7183.54576,0.10250
7185.47422,0.14586
7187.40269,0.14330
7189.33116,0.06852
7191.25963,0.00389
7193.18810,0.01152
7195.11657,0.04938
7197.04504,0.08709
7198.97350,0.08715
7200.90197,0.11679
7202.83044,0.22331
7204.75891,0.31035
7206.68738,0.28239
7208.61585,0.20130
7210.54432,0.07782
7212.47279,-0.07207
7214.40125,-0.13780
7216.32972,-0.06820
7218.25819,-0.00982
7220.18666,-0.04482
7222.11513,-0.04772
7224.04360,0.01684
7225.97207,0.07897
7227.90053,0.06803
7229.82900,0.01474
7231.75747,-0.04292
7233.68594,-0.02717
7235.61441,0.02092
7237.54288,-0.00437
7239.47135,-0.00581
7241.39982,0.13250
7243.32828,0.31804
7245.25675,0.31193
7247.18522,0.13179
7249.11369,0.01831
7251.04216,0.11016
7252.97063,0.26735
7254.89910,0.29223
7256.82756,0.26395
7258.75603,0.22657
7260.68450,0.14161
7262.61297,0.01993
7264.54144,-0.05396
7266.46991,-0.09309
7268.39838,-0.14090
7270.32685,-0.11109
7272.25531,0.07734
7274.18378,0.18299
7276.11225,0.09877
7278.04072,-0.00302
7279.96919,-0.04262
7281.89766,-0.04541
7283.82613,-0.04102
7285.75459,-0.04410
7287.68306,-0.05254
7289.61153,-0.00104
7291.54000,0.04484
7293.46847,-0.06940
7295.39694,-0.14130
7297.32541,0.03657
7299.25387,0.19571
7301.18234,0.12903
7303.11081,0.08020
7305.03928,0.21991
7306.96775,0.34285
7308.89622,0.36986
7310.82469,0.37595
7312.75316,0.35728
7314.68162,0.28738
7316.61009,0.20473
7318.53856,0.14960
7320.46703,0.09532
7322.39550,0.08134
7324.32397,0.05307
7326.25244,-0.02414
7328.18090,0.00595
7330.10937,0.20111
7332.03784,0.32059
7333.96631,0.24939
7335.89478,0.11772
7337.82325,0.02597
7339.75172,0.00735
7341.68019,0.05507
7343.60865,0.12492
7345.53712,0.25947
7347.46559,0.28374
7349.39406,0.11453
7351.32253,0.09793
7353.25100,0.23232
7355.17947,0.17871
7357.10793,-0.00113
7359.03640,0.02739
7360.96487,0.21926
7362.89334,0.31186
7364.82181,0.25315
7366.75028,0.13491
7368.67875,0.06050
7370.60722,0.08008
7372.53568,0.19888
7374.46415,0.41723
7376.39262,0.52325
7378.32109,0.33870
7380.24956,0.05903
7382.17803,-0.03999
7384.10650,0.05720
7386.03496,0.02861
7387.96343,-0.16227
7389.89190,-0.14486
7391.82037,0.13163
7393.74884,0.33006
7395.67731,0.29664
7397.60578,0.16264
7399.53425,0.00625
7401.46271,-0.02022
7403.39118,0.17115
7405.31965,0.33408
7407.24812,0.31088
7409.17659,0.19652
7411.10506,0.07253
7413.03353,-0.00484
7414.96199,-0.11490
7416.89046,-0.21791
7418.81893,-0.07878
7420.74740,0.09839
7422.67587,0.04102
7424.60434,-0.02950
7426.53281,0.00816
7428.46128,0.08690
7430.38974,0.13208
7432.31821,0.19346
7434.24668,0.23770
7436.17515,0.08009
7438.10362,-0.10922
7440.03209,-0.00339
7441.96056,0.17203
7443.88902,0.12119
7445.81749,-0.03537
7447.74596,-0.07974
7449.67443,0.06935
7451.60290,0.28452
7453.53137,0.37202
7455.45984,0.35808
7457.38831,0.36550
7459.31677,0.40584
7461.24524,0.44663
7463.17371,0.50903
7465.10218,0.47506
7467.03065,0.28537
7468.95912,0.09478
7470.88759,-0.03718
7472.81605,-0.06757
7474.74452,-0.00992
7476.67299,0.00322
7478.60146,-0.13200
7480.52993,-0.18839
7482.45840,0.07489
7484.38687,0.24921
7486.31533,0.12601
7488.24380,-0.04187
7490.17227,-0.07671
7492.10074,-0.01232
7494.02921,0.03814
7495.95768,0.01476
7497.88615,-0.16070
