399.19301,0.19479
401.12148,-0.26727
403.04995,-0.34040
404.97842,-0.39448
406.90689,-0.35450
408.83536,-0.16467
410.76382,0.09347
412.69229,0.11938
414.62076,-0.03590
416.54923,-0.00788
418.47770,0.18771
420.40617,0.08019
422.33464,-0.07764
424.26311,-0.04090
426.19157,-0.02621
428.12004,-0.06099
430.04851,-0.01215
431.97698,0.05505
433.90545,-0.00226
435.83392,-0.03907
437.76239,0.01224
439.69085,0.08727
441.61932,0.10885
443.54779,0.08237
445.47626,0.03924
447.40473,-0.00410
449.33320,0.01659
451.26167,0.08402
453.19013,0.10839
455.11860,0.09108
457.04707,0.06798
458.97554,0.02574
460.90401,-0.00615
462.83248,0.03769
464.76095,0.13665
466.68942,0.17055
468.61788,0.11263
470.54635,0.05325
472.47482,0.06702
474.40329,0.12244
476.33176,0.07791
478.26023,-0.00120
480.18870,-0.02871
482.11716,0.01042
484.04563,0.07272
485.97410,0.09514
487.90257,0.05456
489.83104,-0.00658
491.75951,-0.00334
493.68798,0.08478
495.61645,0.16302
497.54491,0.13737
499.47338,0.05398
501.40185,0.02828
503.33032,0.06736
505.25879,0.07188
507.18726,0.01899
509.11573,-0.03737
511.04419,-0.05358
512.97266,-0.01570
514.90113,0.02660
516.82960,0.01783
518.75807,-0.00410
520.68654,0.00850
522.61501,0.01777
524.54348,-0.00477
526.47194,-0.01241
528.40041,0.00416
530.32888,0.00328
532.25735,-0.00941
534.18582,-0.01028
536.11429,0.01309
538.04276,0.05197
539.97122,0.05860
541.89969,0.03750
543.82816,0.06073
545.75663,0.10811
547.68510,0.10188
549.61357,0.06255
551.54204,0.06871
553.47051,0.11238
555.39897,0.11930
557.32744,0.08623
559.25591,0.05032
561.18438,0.03933
563.11285,0.07618
565.04132,0.10911
566.96979,0.09014
568.89825,0.05142
570.82672,0.03284
572.75519,0.03873
574.68366,0.04885
576.61213,0.06209
578.54060,0.08658
580.46907,0.10611
582.39754,0.10810
584.32600,0.08601
586.25447,0.03424
588.18294,-0.01294
590.11141,-0.01713
592.03988,0.00355
593.96835,0.01415
595.89682,0.01741
597.82528,0.02605
599.75375,0.03393
601.68222,0.02773
603.61069,0.01166
605.53916,0.01137
607.46763,0.02426
609.39610,0.03144
611.32456,0.03113
613.25303,0.01970
615.18150,0.00773
617.10997,0.01162
619.03844,0.02934
620.96691,0.04353
622.89538,0.03203
624.82385,0.00699
626.75231,0.00097
628.68078,0.01245
630.60925,0.02215
632.53772,0.03057
634.46619,0.03451
636.39466,0.03683
638.32313,0.05238
640.25159,0.06724
642.18006,0.06189
644.10853,0.04432
646.03700,0.02942
647.96547,0.03208
649.89394,0.05584
651.82241,0.07605
653.75088,0.06951
655.67934,0.04347
657.60781,0.02582
659.53628,0.03004
661.46475,0.03720
663.39322,0.02910
665.32169,0.01552
667.25016,0.00894
669.17862,0.02616
671.10709,0.05540
673.03556,0.06563
674.96403,0.06141
676.89250,0.05399
678.82097,0.04153
680.74944,0.02524
682.67791,0.01278
684.60637,0.01553
686.53484,0.02526
688.46331,0.02627
690.39178,0.03157
692.32025,0.04378
694.24872,0.04454
696.17719,0.03710
698.10565,0.03334
700.03412,0.03013
701.96259,0.03115
703.89106,0.04103
705.81953,0.04961
707.74800,0.05879
709.67647,0.09476
711.60494,0.13465
713.53340,0.11776
715.46187,0.07478
717.39034,0.06557
719.31881,0.07227
721.24728,0.06846
723.17575,0.06438
725.10422,0.06445
727.03268,0.05420
728.96115,0.03497
730.88962,0.02245
732.81809,0.02647
734.74656,0.04002
736.67503,0.04500
738.60350,0.04016
740.53197,0.03726
742.46043,0.04126
744.38890,0.04582
746.31737,0.04969
748.24584,0.05109
750.17431,0.04048
752.10278,0.03050
754.03125,0.03514
755.95971,0.04006
757.88818,0.04091
759.81665,0.04686
761.74512,0.05243
763.67359,0.05400
765.60206,0.05271
767.53053,0.04438
769.45900,0.03345
771.38746,0.03070
773.31593,0.03304
775.24440,0.03088
777.17287,0.03423
779.10134,0.05242
781.02981,0.06853
782.95828,0.07060
784.88674,0.06838
786.81521,0.06688
788.74368,0.06201
790.67215,0.05535
792.60062,0.04667
794.52909,0.03630
796.45756,0.03099
798.38602,0.03363
800.31449,0.04110
802.24296,0.04350
804.17143,0.03755
806.09990,0.03468
808.02837,0.03382
809.95684,0.03244
811.88531,0.04039
813.81377,0.04702
815.74224,0.04489
817.67071,0.04819
819.59918,0.05345
821.52765,0.05515
823.45612,0.05995
825.38459,0.06273
827.31305,0.05687
829.24152,0.04903
831.16999,0.04182
833.09846,0.02942
835.02693,0.01674
836.95540,0.01575
838.88387,0.02486
840.81234,0.03659
842.74080,0.04047
844.66927,0.03058
846.59774,0.02593
848.52621,0.03740
850.45468,0.05313
852.38315,0.06112
854.31162,0.05394
856.24008,0.04030
858.16855,0.03391
860.09702,0.03786
862.02549,0.05120
863.95396,0.06273
865.88243,0.06058
867.81090,0.05378
869.73937,0.05547
871.66783,0.06136
873.59630,0.06065
875.52477,0.05261
877.45324,0.04533
879.38171,0.04110
881.31018,0.03528
883.23865,0.03369
885.16711,0.04298
887.09558,0.05113
889.02405,0.04672
890.95252,0.03934
892.88099,0.04345
894.80946,0.05203
896.73793,0.05082
898.66640,0.04503
900.59486,0.04566
902.52333,0.05573
904.45180,0.06561
906.38027,0.06105
908.30874,0.04729
910.23721,0.04004
912.16568,0.03753
914.09414,0.03232
916.02261,0.03161
917.95108,0.04036
919.87955,0.05258
921.80802,0.05673
923.73649,0.04714
925.66496,0.03342
927.59343,0.02733
929.52189,0.03331
931.45036,0.04243
933.37883,0.04463
935.30730,0.04520
937.23577,0.04694
939.16424,0.04383
941.09271,0.03901
943.02117,0.04127
944.94964,0.05110
946.87811,0.06057
948.80658,0.06235
950.73505,0.06063
952.66352,0.05930
954.59199,0.05435
956.52045,0.04844
958.44892,0.05027
960.37739,0.05984
962.30586,0.06688
964.23433,0.06614
966.16280,0.05973
968.09127,0.04914
970.01974,0.04006
971.94820,0.03604
973.87667,0.03430
975.80514,0.03586
977.73361,0.04074
979.66208,0.04506
981.59055,0.04461
983.51902,0.03733
985.44748,0.02934
987.37595,0.02816
989.30442,0.03366
991.23289,0.04116
993.16136,0.04704
995.08983,0.04746
997.01830,0.03948
998.94677,0.02996
1000.87523,0.03266
1002.80370,0.04701
1004.73217,0.05615
1006.66064,0.05793
1008.58911,0.06012
1010.51758,0.05818
1012.44605,0.05094
1014.37451,0.04501
1016.30298,0.04384
1018.23145,0.04639
1020.15992,0.04766
1022.08839,0.04525
1024.01686,0.04593
1025.94533,0.05171
1027.87380,0.05156
1029.80226,0.04350
1031.73073,0.03867
1033.65920,0.04293
1035.58767,0.05169
1037.51614,0.05349
1039.44461,0.05161
1041.37308,0.06098
1043.30154,0.07082
1045.23001,0.06991
1047.15848,0.07044
1049.08695,0.07068
1051.01542,0.06349
1052.94389,0.05564
1054.87236,0.05092
1056.80083,0.04942
1058.72929,0.05090
1060.65776,0.05133
1062.58623,0.04566
1064.51470,0.03787
1066.44317,0.04008
1068.37164,0.04850
1070.30011,0.04863
1072.22857,0.04272
1074.15704,0.04176
1076.08551,0.04884
1078.01398,0.05615
1079.94245,0.05783
1081.87092,0.06051
1083.79939,0.06145
1085.72786,0.05519
1087.65632,0.04880
1089.58479,0.04257
1091.51326,0.04132
1093.44173,0.05225
1095.37020,0.05846
1097.29867,0.05218
1099.22714,0.05101
1101.15560,0.05672
1103.08407,0.05943
1105.01254,0.05794
1106.94101,0.05208
1108.86948,0.04759
1110.79795,0.05084
1112.72642,0.05785
1114.65489,0.06052
1116.58335,0.05688
1118.51182,0.05542
1120.44029,0.05585
1122.36876,0.05134
1124.29723,0.04938
1126.22570,0.05250
1128.15417,0.05173
1130.08263,0.05026
1132.01110,0.05516
1133.93957,0.05911
1135.86804,0.05606
1137.79651,0.05258
1139.72498,0.05263
1141.65345,0.05129
1143.58191,0.04677
1145.51038,0.04606
1147.43885,0.05335
1149.36732,0.06148
1151.29579,0.06128
1153.22426,0.05657
1155.15273,0.05575
1157.08120,0.05711
1159.00966,0.05971
1160.93813,0.06392
1162.86660,0.06341
1164.79507,0.05711
1166.72354,0.05110
1168.65201,0.04756
1170.58048,0.04731
1172.50894,0.05156
1174.43741,0.05566
1176.36588,0.05663
1178.29435,0.05634
1180.22282,0.05604
1182.15129,0.05824
1184.07976,0.06321
1186.00823,0.06753
1187.93669,0.06698
1189.86516,0.06231
1191.79363,0.06088
1193.72210,0.06161
1195.65057,0.05740
1197.57904,0.05188
1199.50751,0.05011
1201.43597,0.05129
1203.36444,0.05362
1205.29291,0.05390
1207.22138,0.05276
1209.14985,0.05309
1211.07832,0.05387
1213.00679,0.05473
1214.93526,0.05776
1216.86372,0.06183
1218.79219,0.06216
1220.72066,0.05860
1222.64913,0.05638
1224.57760,0.05764
1226.50607,0.05888
1228.43454,0.05775
1230.36300,0.05670
1232.29147,0.05613
1234.21994,0.05580
1236.14841,0.05786
1238.07688,0.05959
1240.00535,0.05971
1241.93382,0.06088
1243.86229,0.05952
1245.79075,0.05562
1247.71922,0.05563
1249.64769,0.05759
1251.57616,0.05504
1253.50463,0.05044
1255.43310,0.05069
1257.36157,0.05527
1259.29003,0.05775
1261.21850,0.05512
1263.14697,0.05208
1265.07544,0.05320
1267.00391,0.05603
1268.93238,0.05712
1270.86085,0.05454
1272.78932,0.04986
1274.71778,0.04954
1276.64625,0.05364
1278.57472,0.05647
1280.50319,0.05718
1282.43166,0.05651
1284.36013,0.05527
1286.28860,0.05546
1288.21706,0.05764
1290.14553,0.05976
1292.07400,0.05932
1294.00247,0.05951
1295.93094,0.06209
1297.85941,0.06143
1299.78788,0.05695
1301.71634,0.05597
1303.64481,0.05938
1305.57328,0.05988
1307.50175,0.05773
1309.43022,0.05785
1311.35869,0.05892
1313.28716,0.06038
1315.21563,0.06375
1317.14409,0.06625
1319.07256,0.06558
1321.00103,0.06380
1322.92950,0.06189
1324.85797,0.05923
1326.78644,0.05725
1328.71491,0.05808
1330.64337,0.06054
1332.57184,0.06204
1334.50031,0.06206
1336.42878,0.06023
1338.35725,0.05773
1340.28572,0.05775
1342.21419,0.05981
1344.14266,0.05939
1346.07112,0.05699
1347.99959,0.05852
1349.92806,0.06215
1351.85653,0.06225
1353.78500,0.05930
1355.71347,0.05597
1357.64194,0.05681
1359.57040,0.06193
1361.49887,0.06523
1363.42734,0.06404
1365.35581,0.06182
1367.28428,0.06175
1369.21275,0.06389
1371.14122,0.06593
1373.06969,0.06523
1374.99815,0.06199
1376.92662,0.05993
1378.85509,0.06048
1380.78356,0.06252
1382.71203,0.06478
1384.64050,0.06650
1386.56897,0.06651
1388.49743,0.06597
1390.42590,0.06775
1392.35437,0.07070
1394.28284,0.07232
1396.21131,0.06964
1398.13978,0.06439
1400.06825,0.06095
1401.99672,0.06053
1403.92518,0.06179
1405.85365,0.06080
1407.78212,0.05715
1409.71059,0.05443
1411.63906,0.05351
1413.56753,0.05533
1415.49600,0.05903
1417.42446,0.06171
1419.35293,0.06321
1421.28140,0.06456
1423.20987,0.06480
1425.13834,0.06378
1427.06681,0.06419
1428.99528,0.06746
1430.92375,0.06933
1432.85221,0.06789
1434.78068,0.06702
1436.70915,0.06537
1438.63762,0.06038
1440.56609,0.05650
1442.49456,0.05551
1444.42303,0.05763
1446.35149,0.06200
1448.27996,0.06426
1450.20843,0.06323
1452.13690,0.06324
1454.06537,0.06583
1455.99384,0.07285
1457.92231,0.08118
1459.85077,0.07681
1461.77924,0.06515
1463.70771,0.05539
1465.63618,0.05661
1467.56465,0.06254
1469.49312,0.06655
1471.42159,0.07305
1473.35006,0.07653
1475.27852,0.06916
1477.20699,0.06327
1479.13546,0.06377
1481.06393,0.06561
1482.99240,0.06521
1484.92087,0.06340
1486.84934,0.06253
1488.77780,0.06564
1490.70627,0.06968
1492.63474,0.06850
1494.56321,0.06500
1496.49168,0.06213
1498.42015,0.06121
1500.34862,0.06279
1502.27709,0.06580
1504.20555,0.06821
1506.13402,0.06728
1508.06249,0.06466
1509.99096,0.06609
1511.91943,0.06786
1513.84790,0.06990
1515.77637,0.07328
1517.70483,0.07506
1519.63330,0.07316
1521.56177,0.07101
1523.49024,0.06901
1525.41871,0.06545
1527.34718,0.06416
1529.27565,0.06677
1531.20412,0.06970
1533.13258,0.07084
1535.06105,0.06886
1536.98952,0.06741
1538.91799,0.07127
1540.84646,0.07772
1542.77493,0.07658
1544.70340,0.07288
1546.63186,0.06938
1548.56033,0.06647
1550.48880,0.06312
1552.41727,0.06172
1554.34574,0.06598
1556.27421,0.07862
1558.20268,0.09980
1560.13115,0.09195
1562.05961,0.07348
1563.98808,0.06799
1565.91655,0.06715
1567.84502,0.06709
1569.77349,0.06904
1571.70196,0.07241
1573.63043,0.07503
1575.55889,0.07362
1577.48736,0.06765
1579.41583,0.06601
1581.34430,0.06723
1583.27277,0.06795
1585.20124,0.06902
1587.12971,0.06890
1589.05818,0.06673
1590.98664,0.06665
1592.91511,0.06848
1594.84358,0.06736
1596.77205,0.06349
1598.70052,0.06063
1600.62899,0.05906
1602.55746,0.05721
1604.48592,0.05640
1606.41439,0.05928
1608.34286,0.06363
1610.27133,0.06389
1612.19980,0.05990
1614.12827,0.05851
1616.05674,0.06358
1617.98521,0.06618
1619.91367,0.06366
1621.84214,0.06361
1623.77061,0.06590
1625.69908,0.06711
1627.62755,0.06565
1629.55602,0.06170
1631.48449,0.06119
1633.41295,0.06794
1635.34142,0.07799
1637.26989,0.07712
1639.19836,0.06831
1641.12683,0.06218
1643.05530,0.06198
1644.98377,0.06686
1646.91223,0.06941
1648.84070,0.06551
1650.76917,0.06665
1652.69764,0.07530
1654.62611,0.07701
1656.55458,0.07213
1658.48305,0.06929
1660.41152,0.06847
1662.33998,0.06873
1664.26845,0.06951
1666.19692,0.07067
1668.12539,0.07092
1670.05386,0.06825
1671.98233,0.06476
1673.91080,0.06568
1675.83926,0.06977
1677.76773,0.06939
1679.69620,0.06693
1681.62467,0.06916
1683.55314,0.07549
1685.48161,0.07359
1687.41008,0.06717
1689.33855,0.06441
1691.26701,0.06466
1693.19548,0.06801
1695.12395,0.07502
1697.05242,0.07982
1698.98089,0.07795
1700.90936,0.07282
1702.83783,0.07079
1704.76629,0.07282
1706.69476,0.07311
1708.62323,0.07006
1710.55170,0.06808
1712.48017,0.06982
1714.40864,0.07491
1716.33711,0.07649
1718.26558,0.06938
1720.19404,0.06534
1722.12251,0.06561
1724.05098,0.06473
1725.97945,0.06163
1727.90792,0.05955
1729.83639,0.06072
1731.76486,0.06552
1733.69332,0.07003
1735.62179,0.06658
1737.55026,0.06258
1739.47873,0.06267
1741.40720,0.06401
1743.33567,0.06298
1745.26414,0.05864
1747.19261,0.05541
1749.12107,0.05905
1751.04954,0.06406
1752.97801,0.06498
1754.90648,0.06726
1756.83495,0.06841
1758.76342,0.06457
1760.69189,0.06304
1762.62035,0.06596
1764.54882,0.06763
1766.47729,0.06775
1768.40576,0.06691
1770.33423,0.06538
1772.26270,0.06480
1774.19117,0.06463
1776.11964,0.06446
1778.04810,0.06522
1779.97657,0.06549
1781.90504,0.06483
1783.83351,0.06607
1785.76198,0.06796
1787.69045,0.06782
1789.61892,0.06781
1791.54738,0.06935
1793.47585,0.06785
1795.40432,0.06354
1797.33279,0.06270
1799.26126,0.06533
1801.18973,0.06779
1803.11820,0.06934
1805.04666,0.06795
1806.97513,0.06350
1808.90360,0.06238
1810.83207,0.06557
1812.76054,0.06560
1814.68901,0.06205
1816.61748,0.05981
1818.54595,0.06031
1820.47441,0.06175
1822.40288,0.06333
1824.33135,0.06512
1826.25982,0.06654
1828.18829,0.06881
1830.11676,0.07129
1832.04523,0.07039
1833.97369,0.06767
1835.90216,0.06495
1837.83063,0.06297
1839.75910,0.06331
1841.68757,0.06534
1843.61604,0.06630
1845.54451,0.06540
1847.47298,0.06505
1849.40144,0.06538
1851.32991,0.06613
1853.25838,0.06639
1855.18685,0.06463
1857.11532,0.06340
1859.04379,0.06499
1860.97226,0.06594
1862.90072,0.06526
1864.82919,0.06583
1866.75766,0.06612
1868.68613,0.06467
1870.61460,0.06469
1872.54307,0.06638
1874.47154,0.06730
1876.40001,0.06648
1878.32847,0.06541
1880.25694,0.06564
1882.18541,0.06604
1884.11388,0.06419
1886.04235,0.06142
1887.97082,0.06158
1889.89929,0.06294
1891.82775,0.06282
1893.75622,0.06283
1895.68469,0.06237
1897.61316,0.06182
1899.54163,0.06414
1901.47010,0.06740
1903.39857,0.06845
1905.32704,0.06736
1907.25550,0.06419
1909.18397,0.06146
1911.11244,0.06262
1913.04091,0.06568
1914.96938,0.06720
1916.89785,0.06564
1918.82632,0.06222
1920.75478,0.06144
1922.68325,0.06362
1924.61172,0.06436
1926.54019,0.06219
1928.46866,0.06044
1930.39713,0.06178
1932.32560,0.06446
1934.25407,0.06560
1936.18253,0.06566
1938.11100,0.06545
1940.03947,0.06446
1941.96794,0.06450
1943.89641,0.06704
1945.82488,0.06896
1947.75335,0.06862
1949.68181,0.06761
1951.61028,0.06758
1953.53875,0.06787
1955.46722,0.06685
1957.39569,0.06572
1959.32416,0.06575
1961.25263,0.06526
1963.18110,0.06313
1965.10956,0.05978
1967.03803,0.05705
1968.96650,0.05725
1970.89497,0.05812
1972.82344,0.05810
1974.75191,0.06019
1976.68038,0.06444
1978.60884,0.06698
1980.53731,0.06638
1982.46578,0.06441
1984.39425,0.06206
1986.32272,0.06075
1988.25119,0.06269
1990.17966,0.06605
1992.10812,0.06737
1994.03659,0.06730
1995.96506,0.06845
1997.89353,0.07000
1999.82200,0.06970
2001.75047,0.06731
2003.67894,0.06435
2005.60741,0.06206
2007.53587,0.06041
2009.46434,0.05987
2011.39281,0.06010
2013.32128,0.06134
2015.24975,0.06442
2017.17822,0.06614
2019.10669,0.06586
2021.03515,0.06756
2022.96362,0.07045
2024.89209,0.07089
2026.82056,0.06859
2028.74903,0.06585
2030.67750,0.06428
2032.60597,0.06380
2034.53444,0.06298
2036.46290,0.06134
2038.39137,0.06068
2040.31984,0.06129
2042.24831,0.06192
2044.17678,0.06263
2046.10525,0.06353
2048.03372,0.06379
2049.96218,0.06254
2051.89065,0.06165
2053.81912,0.06415
2055.74759,0.06664
2057.67606,0.06535
2059.60453,0.06333
2061.53300,0.06296
2063.46147,0.06503
2065.38993,0.06850
2067.31840,0.06836
2069.24687,0.06625
2071.17534,0.06843
2073.10381,0.07293
2075.03228,0.07422
2076.96075,0.07260
2078.88921,0.07012
2080.81768,0.06676
2082.74615,0.06510
2084.67462,0.06744
2086.60309,0.07049
2088.53156,0.07125
2090.46003,0.07101
2092.38850,0.07030
2094.31696,0.06899
2096.24543,0.06797
2098.17390,0.06702
2100.10237,0.06647
2102.03084,0.06648
2103.95931,0.06679
2105.88778,0.06805
2107.81624,0.06921
2109.74471,0.06802
2111.67318,0.06436
2113.60165,0.06102
2115.53012,0.06042
2117.45859,0.06238
2119.38706,0.06462
2121.31553,0.06488
2123.24399,0.06419
2125.17246,0.06514
2127.10093,0.06740
2129.02940,0.06863
2130.95787,0.06808
2132.88634,0.06582
2134.81481,0.06313
2136.74327,0.06298
2138.67174,0.06357
2140.60021,0.06112
2142.52868,0.05936
2144.45715,0.06151
2146.38562,0.06384
2148.31409,0.06486
2150.24255,0.06632
2152.17102,0.06849
2154.09949,0.07043
2156.02796,0.07099
2157.95643,0.06971
2159.88490,0.06695
2161.81337,0.06574
2163.74184,0.06841
2165.67030,0.07103
2167.59877,0.07048
2169.52724,0.06909
2171.45571,0.06903
2173.38418,0.06940
2175.31265,0.06878
2177.24112,0.06922
2179.16958,0.07114
2181.09805,0.07030
2183.02652,0.06642
2184.95499,0.06387
2186.88346,0.06411
2188.81193,0.06405
2190.74040,0.06342
2192.66887,0.06388
2194.59733,0.06265
2196.52580,0.05943
2198.45427,0.05760
2200.38274,0.05709
2202.31121,0.05648
2204.23968,0.05723
2206.16815,0.06079
2208.09661,0.06403
2210.02508,0.06472
2211.95355,0.06558
2213.88202,0.06764
2215.81049,0.06837
2217.73896,0.06745
2219.66743,0.06767
2221.59590,0.06950
2223.52436,0.07031
2225.45283,0.07031
2227.38130,0.07001
2229.30977,0.06791
2231.23824,0.06594
2233.16671,0.06652
2235.09518,0.06765
2237.02364,0.06688
2238.95211,0.06544
2240.88058,0.06420
2242.80905,0.06333
2244.73752,0.06606
2246.66599,0.07064
2248.59446,0.07139
2250.52293,0.06932
2252.45139,0.06689
2254.37986,0.06525
2256.30833,0.06671
2258.23680,0.06901
2260.16527,0.06968
2262.09374,0.07057
2264.02221,0.07135
2265.95067,0.07040
2267.87914,0.06812
2269.80761,0.06678
2271.73608,0.06754
2273.66455,0.06788
2275.59302,0.06643
2277.52149,0.06562
2279.44996,0.06619
2281.37842,0.06626
2283.30689,0.06571
2285.23536,0.06456
2287.16383,0.06240
2289.09230,0.06001
2291.02077,0.05908
2292.94924,0.06079
2294.87770,0.06299
2296.80617,0.06463
2298.73464,0.06571
2300.66311,0.06345
2302.59158,0.06054
2304.52005,0.06257
2306.44852,0.06720
2308.37699,0.06971
2310.30545,0.06890
2312.23392,0.06437
2314.16239,0.05800
2316.09086,0.05481
2318.01933,0.05631
2319.94780,0.05635
2321.87627,0.05260
2323.80473,0.05299
2325.73320,0.05987
2327.66167,0.06353
2329.59014,0.05801
2331.51861,0.05621
2333.44708,0.06526
2335.37555,0.06922
2337.30401,0.06318
2339.23248,0.06003
2341.16095,0.06864
2343.08942,0.07835
2345.01789,0.07817
2346.94636,0.07736
2348.87483,0.07622
2350.80330,0.07120
2352.73176,0.06553
2354.66023,0.05552
2356.58870,0.04186
2358.51717,0.04249
2360.44564,0.05127
2362.37411,0.06065
2364.30258,0.06882
2366.23104,0.07072
2368.15951,0.07177
2370.08798,0.06865
2372.01645,0.05990
2373.94492,0.05626
2375.87339,0.06284
2377.80186,0.07093
2379.73033,0.07172
2381.65879,0.06831
2383.58726,0.06646
2385.51573,0.06564
2387.44420,0.06452
2389.37267,0.06380
2391.30114,0.06345
2393.22961,0.06319
2395.15807,0.06384
2397.08654,0.06528
2399.01501,0.06632
2400.94348,0.06643
2402.87195,0.06567
2404.80042,0.06467
2406.72889,0.06318
2408.65736,0.06175
2410.58582,0.06307
2412.51429,0.06553
2414.44276,0.06543
2416.37123,0.06426
2418.29970,0.06449
2420.22817,0.06571
2422.15664,0.06661
2424.08510,0.06620
2426.01357,0.06509
2427.94204,0.06488
2429.87051,0.06589
2431.79898,0.06727
2433.72745,0.06740
2435.65592,0.06627
2437.58439,0.06583
2439.51285,0.06476
2441.44132,0.06258
2443.36979,0.06300
2445.29826,0.06505
2447.22673,0.06531
2449.15520,0.06423
2451.08367,0.06362
2453.01213,0.06552
2454.94060,0.06938
2456.86907,0.07158
2458.79754,0.07084
2460.72601,0.06943
2462.65448,0.06908
2464.58295,0.06892
2466.51142,0.06810
2468.43988,0.06762
2470.36835,0.06824
2472.29682,0.06809
2474.22529,0.06566
2476.15376,0.06362
2478.08223,0.06518
2480.01070,0.06909
2481.93916,0.07096
2483.86763,0.06904
2485.79610,0.06725
2487.72457,0.06879
2489.65304,0.07098
2491.58151,0.07122
2493.50998,0.07039
2495.43844,0.07044
2497.36691,0.07167
2499.29538,0.07118
2501.22385,0.06940
2503.15232,0.07065
2505.08079,0.07283
2507.00926,0.07135
2508.93773,0.06783
2510.86619,0.06495
2512.79466,0.06393
2514.72313,0.06502
2516.65160,0.06610
2518.58007,0.06806
2520.50854,0.07171
2522.43701,0.07350
2524.36547,0.07323
2526.29394,0.07256
2528.22241,0.07068
2530.15088,0.06860
2532.07935,0.06845
2534.00782,0.06880
2535.93629,0.06888
2537.86476,0.07048
2539.79322,0.07305
2541.72169,0.07486
2543.65016,0.07462
2545.57863,0.07391
2547.50710,0.07457
2549.43557,0.07305
2551.36404,0.06930
2553.29250,0.06700
2555.22097,0.06655
2557.14944,0.06784
2559.07791,0.06995
2561.00638,0.07206
2562.93485,0.07316
2564.86332,0.07049
2566.79179,0.06583
2568.72025,0.06439
2570.64872,0.06532
2572.57719,0.06597
2574.50566,0.06732
2576.43413,0.06883
2578.36260,0.06938
2580.29107,0.06926
2582.21953,0.06990
2584.14800,0.07142
2586.07647,0.07158
2588.00494,0.07054
2589.93341,0.06868
2591.86188,0.06601
2593.79035,0.06400
2595.71882,0.06431
2597.64728,0.06718
2599.57575,0.06965
2601.50422,0.07045
2603.43269,0.07058
2605.36116,0.06965
2607.28963,0.06817
2609.21810,0.06932
2611.14656,0.07431
2613.07503,0.07769
2615.00350,0.07601
2616.93197,0.07245
2618.86044,0.06827
2620.78891,0.06450
2622.71738,0.06431
2624.64585,0.06662
2626.57431,0.06751
2628.50278,0.06718
2630.43125,0.06924
2632.35972,0.07265
2634.28819,0.07368
2636.21666,0.07364
2638.14513,0.07474
2640.07359,0.07454
2642.00206,0.07153
2643.93053,0.06988
2645.85900,0.07108
2647.78747,0.07153
2649.71594,0.06959
2651.64441,0.06751
2653.57288,0.06816
2655.50134,0.07002
2657.42981,0.06886
2659.35828,0.06507
2661.28675,0.06444
2663.21522,0.06674
2665.14369,0.06684
2667.07216,0.06670
2669.00062,0.06755
2670.92909,0.06611
2672.85756,0.06414
2674.78603,0.06474
2676.71450,0.06648
2678.64297,0.06875
2680.57144,0.07168
2682.49990,0.07277
2684.42837,0.07207
2686.35684,0.07149
2688.28531,0.07078
2690.21378,0.07054
2692.14225,0.07232
2694.07072,0.07496
2695.99919,0.07595
2697.92765,0.07526
2699.85612,0.07441
2701.78459,0.07405
2703.71306,0.07346
2705.64153,0.07199
2707.57000,0.07160
2709.49847,0.07254
2711.42693,0.07148
2713.35540,0.06922
2715.28387,0.06840
2717.21234,0.06797
2719.14081,0.06633
2721.06928,0.06407
2722.99775,0.06359
2724.92622,0.06427
2726.85468,0.06471
2728.78315,0.06668
2730.71162,0.06904
2732.64009,0.06798
2734.56856,0.06500
2736.49703,0.06546
2738.42550,0.06937
2740.35396,0.07296
2742.28243,0.07427
2744.21090,0.07331
2746.13937,0.07227
2748.06784,0.07167
2749.99631,0.07021
2751.92478,0.06948
2753.85325,0.07017
2755.78171,0.07020
2757.71018,0.06943
2759.63865,0.06836
2761.56712,0.06696
2763.49559,0.06699
2765.42406,0.06950
2767.35253,0.07307
2769.28099,0.07577
2771.20946,0.07624
2773.13793,0.07428
2775.06640,0.07132
2776.99487,0.07088
2778.92334,0.07476
2780.85181,0.07923
2782.78028,0.08014
2784.70874,0.07763
2786.63721,0.07452
2788.56568,0.07310
2790.49415,0.07355
2792.42262,0.07497
2794.35109,0.07503
2796.27956,0.07246
2798.20802,0.06955
2800.13649,0.06831
2802.06496,0.06809
2803.99343,0.06779
2805.92190,0.06730
2807.85037,0.06713
2809.77884,0.06837
2811.70731,0.07114
2813.63577,0.07248
2815.56424,0.07232
2817.49271,0.07356
2819.42118,0.07345
2821.34965,0.07099
2823.27812,0.07020
2825.20659,0.06947
2827.13505,0.06772
2829.06352,0.06906
2830.99199,0.07409
2832.92046,0.08161
2834.84893,0.08743
2836.77740,0.08495
2838.70587,0.07971
2840.63433,0.07886
2842.56280,0.07826
2844.49127,0.07721
2846.41974,0.07751
2848.34821,0.07624
2850.27668,0.07331
2852.20515,0.07238
2854.13362,0.07403
2856.06208,0.07565
2857.99055,0.07622
2859.91902,0.07665
2861.84749,0.07657
2863.77596,0.07577
2865.70443,0.07711
2867.63290,0.07961
2869.56136,0.07940
2871.48983,0.07744
2873.41830,0.07590
2875.34677,0.07593
2877.27524,0.07705
2879.20371,0.07727
2881.13218,0.07648
2883.06065,0.07595
2884.98911,0.07692
2886.91758,0.07895
2888.84605,0.07883
2890.77452,0.07561
2892.70299,0.07300
2894.63146,0.07300
2896.55993,0.07430
2898.48839,0.07667
2900.41686,0.07956
2902.34533,0.07934
2904.27380,0.07617
2906.20227,0.07535
2908.13074,0.07767
2910.05921,0.07935
2911.98768,0.07825
2913.91614,0.07702
2915.84461,0.07865
2917.77308,0.07965
2919.70155,0.07697
2921.63002,0.07426
2923.55849,0.07390
2925.48696,0.07319
2927.41542,0.07186
2929.34389,0.07285
2931.27236,0.07562
2933.20083,0.07749
2935.12930,0.07871
2937.05777,0.07807
2938.98624,0.07402
2940.91471,0.07152
2942.84317,0.07290
2944.77164,0.07391
2946.70011,0.07283
2948.62858,0.07404
2950.55705,0.07991
2952.48552,0.08285
2954.41399,0.07877
2956.34245,0.07431
2958.27092,0.07347
2960.19939,0.07465
2962.12786,0.07672
2964.05633,0.07865
2965.98480,0.07862
2967.91327,0.07779
2969.84174,0.07893
2971.77020,0.08013
2973.69867,0.07838
2975.62714,0.07500
2977.55561,0.07306
2979.48408,0.07307
2981.41255,0.07408
2983.34102,0.07618
2985.26948,0.07809
2987.19795,0.07951
2989.12642,0.08147
2991.05489,0.08216
2992.98336,0.08125
2994.91183,0.07957
2996.84030,0.07692
2998.76877,0.07547
3000.69723,0.07780
3002.62570,0.08218
3004.55417,0.08368
3006.48264,0.08158
3008.41111,0.07905
3010.33958,0.07571
3012.26805,0.07009
3014.19651,0.06710
3016.12498,0.06946
3018.05345,0.07128
3019.98192,0.07254
3021.91039,0.07632
3023.83886,0.07752
3025.76733,0.07571
3027.69579,0.07731
3029.62426,0.08043
3031.55273,0.07919
3033.48120,0.07602
3035.40967,0.07521
3037.33814,0.07612
3039.26661,0.07614
3041.19508,0.07290
3043.12354,0.07054
3045.05201,0.07316
3046.98048,0.07618
3048.90895,0.07874
3050.83742,0.08177
3052.76589,0.08096
3054.69436,0.07705
3056.62282,0.07445
3058.55129,0.07534
3060.47976,0.07834
3062.40823,0.07824
3064.33670,0.07387
3066.26517,0.07148
3068.19364,0.07635
3070.12211,0.08402
3072.05057,0.08585
3073.97904,0.08381
3075.90751,0.08337
3077.83598,0.08179
3079.76445,0.07835
3081.69292,0.07541
3083.62139,0.07499
3085.54985,0.07819
3087.47832,0.08097
3089.40679,0.08075
3091.33526,0.07867
3093.26373,0.07656
3095.19220,0.07634
3097.12067,0.07821
3099.04914,0.08157
3100.97760,0.08408
3102.90607,0.08370
3104.83454,0.08128
3106.76301,0.07848
3108.69148,0.07691
3110.61995,0.07540
3112.54842,0.07313
3114.47688,0.07325
3116.40535,0.07612
3118.33382,0.08040
3120.26229,0.08464
3122.19076,0.08462
3124.11923,0.08000
3126.04770,0.07530
3127.97617,0.07375
3129.90463,0.07454
3131.83310,0.07578
3133.76157,0.07845
3135.69004,0.08176
3137.61851,0.08233
3139.54698,0.08102
3141.47545,0.08017
3143.40391,0.08077
3145.33238,0.08461
3147.26085,0.09017
3149.18932,0.09212
3151.11779,0.08707
3153.04626,0.08011
3154.97473,0.07942
3156.90320,0.08238
3158.83166,0.08275
3160.76013,0.08086
3162.68860,0.07850
3164.61707,0.07599
3166.54554,0.07334
3168.47401,0.07222
3170.40248,0.07422
3172.33094,0.07702
3174.25941,0.07926
3176.18788,0.08226
3178.11635,0.08413
3180.04482,0.08293
3181.97329,0.08061
3183.90176,0.07841
3185.83022,0.07604
3187.75869,0.07518
3189.68716,0.07657
3191.61563,0.07977
3193.54410,0.08483
3195.47257,0.08826
3197.40104,0.08933
3199.32951,0.08932
3201.25797,0.08457
3203.18644,0.07894
3205.11491,0.07854
3207.04338,0.07939
3208.97185,0.07975
3210.90032,0.07997
3212.82879,0.07792
3214.75725,0.07714
3216.68572,0.08077
3218.61419,0.08348
3220.54266,0.08236
3222.47113,0.08169
3224.39960,0.08105
3226.32807,0.07807
3228.25654,0.07756
3230.18500,0.08040
3232.11347,0.08057
3234.04194,0.07931
3235.97041,0.08176
3237.89888,0.08394
3239.82735,0.08226
3241.75582,0.08092
3243.68428,0.08071
3245.61275,0.07814
3247.54122,0.07584
3249.46969,0.07753
3251.39816,0.07780
3253.32663,0.07517
3255.25510,0.07681
3257.18357,0.08116
3259.11203,0.08201
3261.04050,0.08277
3262.96897,0.08499
3264.89744,0.08367
3266.82591,0.08067
3268.75438,0.07889
3270.68285,0.07564
3272.61131,0.07078
3274.53978,0.06840
3276.46825,0.07147
3278.39672,0.07730
3280.32519,0.08083
3282.25366,0.08063
3284.18213,0.08020
3286.11060,0.08120
3288.03906,0.08039
3289.96753,0.07874
3291.89600,0.07914
3293.82447,0.08033
3295.75294,0.08250
3297.68141,0.08450
3299.60988,0.08299
3301.53834,0.08044
3303.46681,0.07911
3305.39528,0.07615
3307.32375,0.07363
3309.25222,0.07695
3311.18069,0.08244
3313.10916,0.08397
3315.03763,0.08309
3316.96609,0.08261
3318.89456,0.08095
3320.82303,0.07587
3322.75150,0.07160
3324.67997,0.07241
3326.60844,0.07709
3328.53691,0.08372
3330.46537,0.08871
3332.39384,0.08864
3334.32231,0.08507
3336.25078,0.08250
3338.17925,0.08248
3340.10772,0.08280
3342.03619,0.08233
3343.96466,0.08267
3345.89312,0.08254
3347.82159,0.07845
3349.75006,0.07273
3351.67853,0.07130
3353.60700,0.07634
3355.53547,0.08217
3357.46394,0.08302
3359.39240,0.08218
3361.32087,0.08096
3363.24934,0.07637
3365.17781,0.07280
3367.10628,0.07530
3369.03475,0.07991
3370.96322,0.08139
3372.89168,0.07958
3374.82015,0.07767
3376.74862,0.07890
3378.67709,0.08302
3380.60556,0.08469
3382.53403,0.08263
3384.46250,0.08213
3386.39097,0.08393
3388.31943,0.08486
3390.24790,0.08007
3392.17637,0.07273
3394.10484,0.07519
3396.03331,0.08124
3397.96178,0.07891
3399.89025,0.07304
3401.81871,0.07150
3403.74718,0.07635
3405.67565,0.08287
3407.60412,0.08554
3409.53259,0.08239
3411.46106,0.07680
3413.38953,0.07393
3415.31800,0.07266
3417.24646,0.07480
3419.17493,0.08236
3421.10340,0.08985
3423.03187,0.09334
3424.96034,0.09260
3426.88881,0.08977
3428.81728,0.08731
3430.74574,0.08423
3432.67421,0.08039
3434.60268,0.07767
3436.53115,0.07725
3438.45962,0.07977
3440.38809,0.08172
3442.31656,0.07939
3444.24503,0.07596
3446.17349,0.07489
3448.10196,0.07595
3450.03043,0.08085
3451.95890,0.08923
3453.88737,0.09211
3455.81584,0.08785
3457.74431,0.08558
3459.67277,0.08430
3461.60124,0.07948
3463.52971,0.07580
3465.45818,0.07400
3467.38665,0.07040
3469.31512,0.06807
3471.24359,0.06788
3473.17206,0.06880
3475.10052,0.07343
3477.02899,0.07775
3478.95746,0.07574
3480.88593,0.06979
3482.81440,0.06818
3484.74287,0.07245
3486.67134,0.07402
3488.59980,0.07160
3490.52827,0.07171
3492.45674,0.07376
3494.38521,0.07473
3496.31368,0.07487
3498.24215,0.07444
3500.17062,0.07337
3502.09909,0.06977
3504.02755,0.06403
3505.95602,0.05982
3507.88449,0.05982
3509.81296,0.06442
3511.74143,0.06899
3513.66990,0.07122
3515.59837,0.06876
3517.52683,0.06009
3519.45530,0.05638
3521.38377,0.06222
3523.31224,0.06673
3525.24071,0.06641
3527.16918,0.06607
3529.09765,0.06754
3531.02611,0.06979
3532.95458,0.06998
3534.88305,0.06644
3536.81152,0.06130
3538.73999,0.05816
3540.66846,0.05640
3542.59693,0.05640
3544.52540,0.06139
3546.45386,0.06776
3548.38233,0.06969
3550.31080,0.06887
3552.23927,0.06599
3554.16774,0.06200
3556.09621,0.06107
3558.02468,0.06221
3559.95314,0.06429
3561.88161,0.06788
3563.81008,0.07103
3565.73855,0.07230
3567.66702,0.06835
3569.59549,0.06127
3571.52396,0.05713
3573.45243,0.05646
3575.38089,0.05773
3577.30936,0.06070
3579.23783,0.06630
3581.16630,0.07024
3583.09477,0.06941
3585.02324,0.06576
3586.95171,0.06136
3588.88017,0.05897
3590.80864,0.05874
3592.73711,0.06047
3594.66558,0.06011
3596.59405,0.05331
3598.52252,0.04924
3600.45099,0.05321
3602.37946,0.05732
3604.30792,0.05719
3606.23639,0.05557
3608.16486,0.05369
3610.09333,0.05134
3612.02180,0.05203
3613.95027,0.05831
3615.87874,0.06340
3617.80720,0.06301
3619.73567,0.06062
3621.66414,0.05782
3623.59261,0.05378
3625.52108,0.05003
3627.44955,0.04843
3629.37802,0.04954
3631.30649,0.05050
3633.23495,0.04860
3635.16342,0.04674
3637.09189,0.04855
3639.02036,0.05016
3640.94883,0.04923
3642.87730,0.05188
3644.80577,0.05845
3646.73423,0.06231
3648.66270,0.06365
3650.59117,0.06370
3652.51964,0.05866
3654.44811,0.05462
3656.37658,0.05331
3658.30505,0.04933
3660.23352,0.04365
3662.16198,0.04296
3664.09045,0.04633
3666.01892,0.04749
3667.94739,0.04760
3669.87586,0.04932
3671.80433,0.04937
3673.73280,0.05105
3675.66126,0.05526
3677.58973,0.05596
3679.51820,0.05589
3681.44667,0.05576
3683.37514,0.05467
3685.30361,0.05384
3687.23208,0.05337
3689.16055,0.05183
3691.08901,0.04985
3693.01748,0.04901
3694.94595,0.04722
3696.87442,0.04340
3698.80289,0.04090
3700.73136,0.04243
3702.65983,0.04456
3704.58829,0.04554
3706.51676,0.04765
3708.44523,0.05115
3710.37370,0.05626
3712.30217,0.05846
3714.23064,0.05312
3716.15911,0.04576
3718.08757,0.03963
3720.01604,0.03625
3721.94451,0.03928
3723.87298,0.04733
3725.80145,0.05042
3727.72992,0.04586
3729.65839,0.04195
3731.58686,0.04006
3733.51532,0.03613
3735.44379,0.04105
3737.37226,0.05581
3739.30073,0.06278
3741.22920,0.06448
3743.15767,0.06795
3745.08614,0.07050
3747.01460,0.06565
3748.94307,0.05999
3750.87154,0.05343
3752.80001,0.04702
3754.72848,0.04637
3756.65695,0.04969
3758.58542,0.05359
3760.51389,0.05261
3762.44235,0.04767
3764.37082,0.04327
3766.29929,0.04194
3768.22776,0.04436
3770.15623,0.04797
3772.08470,0.04678
3774.01317,0.04325
3775.94163,0.04506
3777.87010,0.04947
3779.79857,0.04991
3781.72704,0.04804
3783.65551,0.04768
3785.58398,0.04825
3787.51245,0.04657
3789.44092,0.04285
3791.36938,0.03979
3793.29785,0.04222
3795.22632,0.05086
3797.15479,0.05502
3799.08326,0.04990
3801.01173,0.04352
3802.94020,0.04404
3804.86866,0.05028
3806.79713,0.05346
3808.72560,0.05203
3810.65407,0.05264
3812.58254,0.05341
3814.51101,0.05117
3816.43948,0.04778
3818.36795,0.04947
3820.29641,0.05118
3822.22488,0.04199
3824.15335,0.03462
3826.08182,0.03507
3828.01029,0.03914
3829.93876,0.04492
3831.86723,0.04955
3833.79569,0.05037
3835.72416,0.04969
3837.65263,0.04773
3839.58110,0.04071
3841.50957,0.03419
3843.43804,0.03522
3845.36651,0.04103
3847.29498,0.04310
3849.22344,0.04029
3851.15191,0.03656
3853.08038,0.03435
3855.00885,0.03752
3856.93732,0.04141
3858.86579,0.04376
3860.79426,0.04672
3862.72272,0.04854
3864.65119,0.04405
3866.57966,0.04033
3868.50813,0.04355
3870.43660,0.04388
3872.36507,0.03741
3874.29354,0.03545
3876.22200,0.04172
3878.15047,0.04989
3880.07894,0.05146
3882.00741,0.04482
3883.93588,0.03995
3885.86435,0.04080
3887.79282,0.04572
3889.72129,0.04985
3891.64975,0.04825
3893.57822,0.04430
3895.50669,0.04292
3897.43516,0.04028
3899.36363,0.03776
3901.29210,0.04156
3903.22057,0.04741
3905.14903,0.04929
3907.07750,0.04796
3909.00597,0.04308
3910.93444,0.03666
3912.86291,0.03316
3914.79138,0.03235
3916.71985,0.03328
3918.64832,0.03417
3920.57678,0.03391
3922.50525,0.03614
3924.43372,0.04075
3926.36219,0.04543
3928.29066,0.04790
3930.21913,0.04610
3932.14760,0.04249
3934.07606,0.04051
3936.00453,0.04187
3937.93300,0.04489
3939.86147,0.04361
3941.78994,0.03823
3943.71841,0.03612
3945.64688,0.03883
3947.57535,0.04520
3949.50381,0.05352
3951.43228,0.05351
3953.36075,0.04410
3955.28922,0.03715
3957.21769,0.03756
3959.14616,0.04164
3961.07463,0.04367
3963.00309,0.03896
3964.93156,0.03139
3966.86003,0.02893
3968.78850,0.03287
3970.71697,0.03968
3972.64544,0.04385
3974.57391,0.04149
3976.50238,0.03715
3978.43084,0.03588
3980.35931,0.03669
3982.28778,0.03828
3984.21625,0.04021
3986.14472,0.04147
3988.07319,0.04014
3990.00166,0.03747
3991.93012,0.03663
3993.85859,0.03902
3995.78706,0.04292
3997.71553,0.04170
3999.64400,0.03524
4001.57247,0.03308
4003.50094,0.03664
4005.42941,0.03596
4007.35787,0.03206
4009.28634,0.03454
4011.21481,0.03922
4013.14328,0.03782
4015.07175,0.03378
4017.00022,0.03493
4018.92869,0.03975
4020.85715,0.04080
4022.78562,0.03882
4024.71409,0.03980
4026.64256,0.04054
4028.57103,0.03557
4030.49950,0.03087
4032.42797,0.03044
4034.35644,0.03154
4036.28490,0.03154
4038.21337,0.03098
4040.14184,0.03259
4042.07031,0.03464
4043.99878,0.03423
4045.92725,0.02958
4047.85572,0.02599
4049.78418,0.03101
4051.71265,0.03840
4053.64112,0.04083
4055.56959,0.04201
4057.49806,0.04348
4059.42653,0.04340
4061.35500,0.04301
4063.28346,0.03986
4065.21193,0.03584
4067.14040,0.03653
4069.06887,0.03666
4070.99734,0.03304
4072.92581,0.03059
4074.85428,0.03042
4076.78275,0.03018
4078.71121,0.02943
4080.63968,0.02739
4082.56815,0.02583
4084.49662,0.02930
4086.42509,0.03319
4088.35356,0.03150
4090.28203,0.02908
4092.21049,0.03013
4094.13896,0.03213
4096.06743,0.03198
4097.99590,0.02947
4099.92437,0.02665
4101.85284,0.02553
4103.78131,0.02768
4105.70978,0.03003
4107.63824,0.02878
4109.56671,0.02810
4111.49518,0.03237
4113.42365,0.03681
4115.35212,0.03530
4117.28059,0.03057
4119.20906,0.02677
4121.13752,0.02471
4123.06599,0.02622
4124.99446,0.03304
4126.92293,0.04235
4128.85140,0.04637
4130.77987,0.04430
4132.70834,0.04147
4134.63681,0.04057
4136.56527,0.04186
4138.49374,0.04039
4140.42221,0.03234
4142.35068,0.02328
4144.27915,0.02006
4146.20762,0.02252
4148.13609,0.02893
4150.06455,0.03639
4151.99302,0.03801
4153.92149,0.03378
4155.84996,0.03222
4157.77843,0.03543
4159.70690,0.03647
4161.63537,0.03212
4163.56384,0.02643
4165.49230,0.02318
4167.42077,0.02365
4169.34924,0.02867
4171.27771,0.03569
4173.20618,0.03715
4175.13465,0.03323
4177.06312,0.03136
4178.99158,0.02993
4180.92005,0.02680
4182.84852,0.02548
4184.77699,0.02346
4186.70546,0.01868
4188.63393,0.01492
4190.56240,0.01524
4192.49087,0.01990
4194.41933,0.02364
4196.34780,0.02391
4198.27627,0.02665
4200.20474,0.03221
4202.13321,0.03366
4204.06168,0.03117
4205.99015,0.02835
4207.91861,0.02639
4209.84708,0.02833
4211.77555,0.03325
4213.70402,0.03700
4215.63249,0.03649
4217.56096,0.03212
4219.48943,0.02996
4221.41789,0.03044
4223.34636,0.03106
4225.27483,0.03084
4227.20330,0.02777
4229.13177,0.02543
4231.06024,0.02417
4232.98871,0.01972
4234.91718,0.01866
4236.84564,0.02519
4238.77411,0.03002
4240.70258,0.03070
4242.63105,0.03289
4244.55952,0.03681
4246.48799,0.03677
4248.41646,0.03086
4250.34492,0.02580
4252.27339,0.02378
4254.20186,0.02360
4256.13033,0.02387
4258.05880,0.02243
4259.98727,0.02416
4261.91574,0.02906
4263.84421,0.02912
4265.77267,0.02570
4267.70114,0.02883
4269.62961,0.03950
4271.55808,0.04496
4273.48655,0.03897
4275.41502,0.03184
4277.34349,0.03090
4279.27195,0.03058
4281.20042,0.02891
4283.12889,0.02911
4285.05736,0.02853
4286.98583,0.02710
4288.91430,0.02904
4290.84277,0.03281
4292.77124,0.03693
4294.69970,0.03768
4296.62817,0.02989
4298.55664,0.02144
4300.48511,0.02060
4302.41358,0.02184
4304.34205,0.02020
4306.27052,0.02048
4308.19898,0.02264
4310.12745,0.01980
4312.05592,0.01370
4313.98439,0.00912
4315.91286,0.00748
4317.84133,0.00869
4319.76980,0.01037
4321.69827,0.01018
4323.62673,0.01062
4325.55520,0.01310
4327.48367,0.01248
4329.41214,0.01082
4331.34061,0.01112
4333.26908,0.00960
4335.19755,0.00928
4337.12601,0.01266
4339.05448,0.01409
4340.98295,0.01214
4342.91142,0.01172
4344.83989,0.01145
4346.76836,0.00795
4348.69683,0.00465
4350.62530,0.00666
4352.55376,0.01477
4354.48223,0.02187
4356.41070,0.02327
4358.33917,0.02012
4360.26764,0.01642
4362.19611,0.01901
4364.12458,0.02506
4366.05304,0.02476
4367.98151,0.02005
4369.90998,0.01648
4371.83845,0.01298
4373.76692,0.01442
4375.69539,0.01891
4377.62386,0.01217
4379.55232,0.00007
4381.48079,-0.00080
4383.40926,0.00426
4385.33773,0.00511
4387.26620,0.00670
4389.19467,0.01161
4391.12314,0.01529
4393.05161,0.01762
4394.98007,0.02142
4396.90854,0.02312
4398.83701,0.01489
4400.76548,0.00652
4402.69395,0.01267
4404.62242,0.02156
4406.55089,0.01980
4408.47935,0.01208
4410.40782,0.00441
4412.33629,0.00226
4414.26476,0.00648
4416.19323,0.01276
4418.12170,0.01806
4420.05017,0.01529
4421.97864,0.00197
4423.90710,-0.00999
4425.83557,-0.00681
4427.76404,0.00610
4429.69251,0.01390
4431.62098,0.01747
4433.54945,0.02084
4435.47792,0.02201
4437.40638,0.02344
4439.33485,0.02856
4441.26332,0.03112
4443.19179,0.02098
4445.12026,0.00470
4447.04873,0.00075
4448.97720,0.01134
4450.90567,0.02084
4452.83413,0.01958
4454.76260,0.01417
4456.69107,0.01252
4458.61954,0.01462
4460.54801,0.01870
4462.47648,0.02269
4464.40495,0.02207
4466.33341,0.01292
4468.26188,0.00369
4470.19035,0.00719
4472.11882,0.01468
4474.04729,0.01466
4475.97576,0.01085
4477.90423,0.00947
4479.83270,0.01414
4481.76116,0.01967
4483.68963,0.01782
4485.61810,0.00857
4487.54657,0.00150
4489.47504,0.00468
4491.40351,0.01176
4493.33198,0.01267
4495.26044,0.01066
4497.18891,0.01442
4499.11738,0.02005
4501.04585,0.01552
4502.97432,0.00239
4504.90279,-0.00431
4506.83126,0.00035
4508.75973,0.00746
4510.68819,0.01087
4512.61666,0.01205
4514.54513,0.01143
4516.47360,0.00642
4518.40207,-0.00041
4520.33054,-0.00270
4522.25901,0.00223
4524.18747,0.01072
4526.11594,0.01510
4528.04441,0.01052
4529.97288,-0.00128
4531.90135,-0.01280
4533.82982,-0.01723
4535.75829,-0.01241
4537.68676,-0.00084
4539.61522,0.01346
4541.54369,0.02581
4543.47216,0.02916
4545.40063,0.02252
4547.32910,0.01169
4549.25757,0.00074
4551.18604,-0.00665
4553.11450,-0.00828
4555.04297,-0.00610
4556.97144,-0.00063
4558.89991,0.00584
4560.82838,0.00897
4562.75685,0.00733
4564.68532,0.00532
4566.61378,0.01185
4568.54225,0.02186
4570.47072,0.01868
4572.39919,0.00051
4574.32766,-0.01529
4576.25613,-0.01539
4578.18460,-0.00463
4580.11307,0.00645
4582.04153,0.01223
4583.97000,0.01489
4585.89847,0.01522
4587.82694,0.01058
4589.75541,0.00612
4591.68388,0.00910
4593.61235,0.01823
4595.54081,0.02103
4597.46928,0.00998
4599.39775,-0.00475
4601.32622,-0.01006
4603.25469,-0.00633
4605.18316,-0.00345
4607.11163,-0.00605
4609.04010,-0.00900
4610.96856,-0.00391
4612.89703,0.00639
4614.82550,0.01252
4616.75397,0.01319
4618.68244,0.00966
4620.61091,0.00599
4622.53938,0.00459
4624.46784,0.00551
4626.39631,0.01004
4628.32478,0.01330
4630.25325,0.01414
4632.18172,0.01704
4634.11019,0.02027
4636.03866,0.01740
4637.96713,0.00994
4639.89559,0.00640
4641.82406,0.00434
4643.75253,-0.00587
4645.68100,-0.01664
4647.60947,-0.01415
4649.53794,-0.00164
4651.46641,0.00629
4653.39487,0.00597
4655.32334,0.00534
4657.25181,0.00766
4659.18028,0.01260
4661.10875,0.01755
4663.03722,0.01947
4664.96569,0.01849
4666.89416,0.01430
4668.82262,0.00674
4670.75109,-0.00279
4672.67956,-0.00749
4674.60803,-0.00996
4676.53650,-0.01328
4678.46497,-0.00502
4680.39344,0.01067
4682.32190,0.01717
4684.25037,0.01959
4686.17884,0.02692
4688.10731,0.03379
4690.03578,0.03081
4691.96425,0.01701
4693.89272,0.00321
4695.82119,-0.00274
4697.74965,-0.00149
4699.67812,0.00127
4701.60659,0.00004
4703.53506,-0.00286
4705.46353,-0.00173
4707.39200,0.00029
4709.32047,-0.00057
4711.24893,-0.00106
4713.17740,-0.00158
4715.10587,-0.00677
4717.03434,-0.01186
4718.96281,-0.00623
4720.89128,0.00750
4722.81975,0.02014
4724.74821,0.03084
4726.67668,0.03820
4728.60515,0.03349
4730.53362,0.01768
4732.46209,0.00464
4734.39056,-0.00055
4736.31903,-0.00279
4738.24750,-0.00121
4740.17596,0.00299
4742.10443,0.00678
4744.03290,0.01388
4745.96137,0.01860
4747.88984,0.01179
4749.81831,0.00181
4751.74678,-0.00059
4753.67524,0.00063
4755.60371,0.00044
4757.53218,0.00030
4759.46065,0.00067
4761.38912,0.00496
4763.31759,0.01239
4765.24606,0.01062
4767.17453,0.00184
4769.10299,-0.00299
4771.03146,-0.00414
4772.95993,-0.00021
4774.88840,0.00168
4776.81687,-0.00765
4778.74534,-0.01170
4780.67381,0.00209
4782.60227,0.01685
4784.53074,0.01442
4786.45921,0.00026
4788.38768,-0.00655
4790.31615,0.00140
4792.24462,0.01122
4794.17309,0.01711
4796.10156,0.02206
4798.03002,0.01813
4799.95849,0.00363
4801.88696,-0.00860
4803.81543,-0.01002
4805.74390,-0.00302
4807.67237,0.00373
4809.60084,0.00601
4811.52930,0.00521
4813.45777,-0.00103
4815.38624,-0.01018
4817.31471,-0.01313
4819.24318,-0.00990
4821.17165,0.00057
4823.10012,0.01538
4825.02859,0.01919
4826.95705,0.01357
4828.88552,0.01039
4830.81399,0.00842
4832.74246,0.00947
4834.67093,0.01294
4836.59940,0.01365
4838.52787,0.01559
4840.45633,0.01774
4842.38480,0.01591
4844.31327,0.02179
4846.24174,0.03589
4848.17021,0.03543
4850.09868,0.01782
4852.02715,0.00164
4853.95562,-0.00874
4855.88408,-0.01817
4857.81255,-0.02228
4859.74102,-0.01421
4861.66949,0.00064
4863.59796,0.01064
4865.52643,0.01270
4867.45490,0.01101
4869.38336,0.00622
4871.31183,0.00362
4873.24030,0.00930
4875.16877,0.01029
4877.09724,-0.00023
4879.02571,-0.00462
4880.95418,0.00346
4882.88265,0.00399
4884.81111,-0.00529
4886.73958,-0.00751
4888.66805,-0.00630
4890.59652,-0.01111
4892.52499,-0.01359
4894.45346,-0.01217
4896.38193,-0.01027
4898.31039,-0.00563
4900.23886,-0.00459
4902.16733,-0.00782
4904.09580,-0.00511
4906.02427,0.00422
4907.95274,0.01767
4909.88121,0.02588
4911.80967,0.01857
4913.73814,0.00560
4915.66661,-0.00607
4917.59508,-0.02084
4919.52355,-0.03242
4921.45202,-0.02797
4923.38049,-0.00473
4925.30896,0.01535
4927.23742,0.01226
4929.16589,-0.00062
4931.09436,-0.00436
4933.02283,0.00146
4934.95130,0.01032
4936.87977,0.01700
4938.80824,0.01764
4940.73670,0.01500
4942.66517,0.00988
4944.59364,0.00007
4946.52211,-0.00615
4948.45058,-0.00302
4950.37905,-0.00362
4952.30752,-0.01250
4954.23599,-0.01567
4956.16445,-0.01520
4958.09292,-0.01424
4960.02139,-0.00384
4961.94986,0.00745
4963.87833,0.01319
4965.80680,0.01962
4967.73527,0.01779
4969.66373,0.00946
4971.59220,0.01028
4973.52067,0.01881
4975.44914,0.02041
4977.37761,0.01487
4979.30608,0.01129
4981.23455,0.01103
4983.16302,0.00736
4985.09148,-0.00088
4987.01995,-0.00487
4988.94842,-0.00488
4990.87689,-0.00182
4992.80536,0.00971
4994.73383,0.01784
4996.66230,0.01692
4998.59076,0.01368
5000.51923,-0.00063
5002.44770,-0.01808
5004.37617,-0.01271
5006.30464,0.00379
5008.23311,0.00368
5010.16158,-0.00357
5012.09005,0.00244
5014.01851,0.01324
5015.94698,0.01171
5017.87545,0.00299
5019.80392,0.00326
5021.73239,0.01748
5023.66086,0.03101
5025.58933,0.02579
5027.51779,0.01295
5029.44626,0.00942
5031.37473,0.00621
5033.30320,0.00048
5035.23167,0.00403
5037.16014,0.01390
5039.08861,0.01671
5041.01708,0.01676
5042.94554,0.02553
5044.87401,0.03516
5046.80248,0.03575
5048.73095,0.02630
5050.65942,0.01460
5052.58789,0.01088
5054.51636,0.00387
5056.44482,-0.01261
5058.37329,-0.01969
5060.30176,-0.01004
5062.23023,-0.00061
5064.15870,-0.00902
5066.08717,-0.02627
5068.01564,-0.02323
5069.94410,0.00065
5071.87257,0.01459
5073.80104,0.01259
5075.72951,0.01990
5077.65798,0.03763
5079.58645,0.04060
5081.51492,0.02771
5083.44339,0.01914
5085.37185,0.01591
5087.30032,0.00788
5089.22879,0.00326
5091.15726,0.00615
5093.08573,0.00607
5095.01420,0.00888
5096.94267,0.01746
5098.87113,0.02046
5100.79960,0.01891
5102.72807,0.01684
5104.65654,0.01247
5106.58501,0.01384
5108.51348,0.02180
5110.44195,0.01817
5112.37042,0.00353
5114.29888,-0.00116
5116.22735,0.01056
5118.15582,0.02264
5120.08429,0.01821
5122.01276,0.00557
5123.94123,0.00338
5125.86970,0.01237
5127.79816,0.02123
5129.72663,0.02300
5131.65510,0.01627
5133.58357,0.01195
5135.51204,0.01551
5137.44051,0.01335
5139.36898,0.01087
5141.29745,0.02540
5143.22591,0.04882
5145.15438,0.05593
5147.08285,0.03714
5149.01132,0.01466
5150.93979,0.00925
5152.86826,0.01044
5154.79673,0.00943
5156.72519,0.01231
5158.65366,0.01596
5160.58213,0.02110
5162.51060,0.03470
5164.43907,0.04547
5166.36754,0.03462
5168.29601,0.01166
5170.22448,-0.00395
5172.15294,-0.00759
5174.08141,-0.00046
5176.00988,0.00556
5177.93835,0.00586
5179.86682,0.01673
5181.79529,0.03788
5183.72376,0.04654
5185.65222,0.03986
5187.58069,0.03094
5189.50916,0.02193
5191.43763,0.01087
5193.36610,-0.00149
5195.29457,-0.00131
5197.22304,0.01270
5199.15151,0.02098
5201.07997,0.01044
5203.00844,-0.01989
5204.93691,-0.03848
5206.86538,-0.01133
5208.79385,0.02417
5210.72232,0.02354
5212.65079,0.00950
5214.57925,0.00935
5216.50772,0.01853
5218.43619,0.02354
5220.36466,0.01949
5222.29313,0.01636
5224.22160,0.02282
5226.15007,0.03869
5228.07854,0.05174
5230.00700,0.05030
5231.93547,0.03750
5233.86394,0.01725
5235.79241,-0.00182
5237.72088,-0.00627
5239.64935,-0.00134
5241.57782,-0.00771
5243.50628,-0.01798
5245.43475,-0.00250
5247.36322,0.02117
5249.29169,0.02016
5251.22016,0.01189
5253.14863,0.00474
5255.07710,-0.01003
5257.00556,-0.01140
5258.93403,0.00162
5260.86250,0.00582
5262.79097,0.00748
5264.71944,0.01528
5266.64791,0.02022
5268.57638,0.02590
5270.50485,0.02900
5272.43331,0.02911
5274.36178,0.03299
5276.29025,0.03199
5278.21872,0.02888
5280.14719,0.02213
5282.07566,0.00364
5284.00413,-0.00214
5285.93259,0.01441
5287.86106,0.03084
5289.78953,0.03779
5291.71800,0.03338
5293.64647,0.03168
5295.57494,0.04457
5297.50341,0.05555
5299.43188,0.05796
5301.36034,0.05762
5303.28881,0.04704
5305.21728,0.02890
5307.14575,0.02297
5309.07422,0.03226
5311.00269,0.04407
5312.93116,0.05061
5314.85962,0.03810
5316.78809,0.01337
5318.71656,0.00558
5320.64503,0.01289
5322.57350,0.01604
5324.50197,0.01784
5326.43044,0.02143
5328.35891,0.00686
5330.28737,-0.00895
5332.21584,0.00895
5334.14431,0.03354
5336.07278,0.03645
5338.00125,0.03201
5339.92972,0.02082
5341.85819,0.00481
5343.78665,-0.00401
5345.71512,-0.00461
5347.64359,-0.00094
5349.57206,0.00039
5351.50053,0.00084
5353.42900,0.01117
5355.35747,0.03583
5357.28594,0.06013
5359.21440,0.06012
5361.14287,0.03896
5363.07134,0.03103
5364.99981,0.03657
5366.92828,0.02972
5368.85675,0.02496
5370.78522,0.02900
5372.71368,0.01833
5374.64215,0.00029
5376.57062,0.00875
5378.49909,0.03286
5380.42756,0.03841
5382.35603,0.02780
5384.28450,0.00652
5386.21297,-0.01427
5388.14143,-0.01659
5390.06990,-0.01098
5391.99837,0.00970
5393.92684,0.05376
5395.85531,0.07353
5397.78378,0.04196
5399.71225,-0.00172
5401.64071,-0.01973
5403.56918,-0.00833
5405.49765,0.01811
5407.42612,0.04292
5409.35459,0.05287
5411.28306,0.04607
5413.21153,0.03141
5415.13999,0.01638
5417.06846,0.01244
5418.99693,0.02401
5420.92540,0.03104
5422.85387,0.01951
5424.78234,0.01868
5426.71081,0.05725
5428.63928,0.10055
5430.56774,0.09897
5432.49621,0.06795
5434.42468,0.04251
5436.35315,0.03203
5438.28162,0.01669
5440.21009,0.00186
5442.13856,0.00817
5444.06702,0.02496
5445.99549,0.03341
5447.92396,0.02782
5449.85243,0.02197
5451.78090,0.01678
5453.70937,0.00389
5455.63784,0.00971
5457.56631,0.04393
5459.49477,0.05623
5461.42324,0.02774
5463.35171,-0.00140
5465.28018,-0.00818
5467.20865,-0.00225
5469.13712,0.01248
5471.06559,0.02543
5472.99405,0.02953
5474.92252,0.03434
5476.85099,0.04138
5478.77946,0.04398
5480.70793,0.03020
5482.63640,0.00086
5484.56487,-0.01857
5486.49334,-0.01581
5488.42180,-0.00500
5490.35027,-0.00102
5492.27874,0.00006
5494.20721,0.00631
5496.13568,0.02542
5498.06415,0.06322
5499.99262,0.09669
5501.92108,0.09659
5503.84955,0.07317
5505.77802,0.05355
5507.70649,0.03759
5509.63496,0.02069
5511.56343,0.02566
5513.49190,0.03754
5515.42037,0.02074
5517.34883,0.00596
5519.27730,0.01922
5521.20577,0.02978
5523.13424,0.02816
5525.06271,0.02903
5526.99118,0.03017
5528.91965,0.03392
5530.84811,0.03893
5532.77658,0.03198
5534.70505,0.02642
5536.63352,0.04074
5538.56199,0.04900
5540.49046,0.03110
5542.41893,0.02031
5544.34740,0.03173
5546.27586,0.04632
5548.20433,0.05911
5550.13280,0.07213
5552.06127,0.08418
5553.98974,0.08060
5555.91821,0.05027
5557.84668,0.01089
5559.77514,-0.01301
5561.70361,-0.02948
5563.63208,-0.05127
5565.56055,-0.05295
5567.48902,-0.02489
5569.41749,0.00393
5571.34596,0.02250
5573.27443,0.03074
5575.20289,0.02313
5577.13136,0.01626
5579.05983,0.02573
5580.98830,0.02853
5582.91677,0.01150
5584.84524,-0.00864
5586.77371,-0.03264
5588.70217,-0.04696
5590.63064,-0.02978
5592.55911,0.00083
5594.48758,0.02297
5596.41605,0.03677
5598.34452,0.04226
5600.27299,0.03153
5602.20145,0.01681
5604.12992,0.01788
5606.05839,0.02723
5607.98686,0.03748
5609.91533,0.05236
5611.84380,0.05978
5613.77227,0.04099
5615.70074,0.01243
5617.62920,0.00225
5619.55767,-0.00178
5621.48614,-0.01291
5623.41461,-0.00010
5625.34308,0.05070
5627.27155,0.09300
5629.20002,0.09668
5631.12848,0.08377
5633.05695,0.06585
5634.98542,0.04861
5636.91389,0.04284
5638.84236,0.04014
5640.77083,0.03264
5642.69930,0.03109
5644.62777,0.03625
5646.55623,0.03301
5648.48470,0.02665
5650.41317,0.03113
5652.34164,0.03561
5654.27011,0.02774
5656.19858,0.01936
5658.12705,0.03268
5660.05551,0.06096
5661.98398,0.06979
5663.91245,0.05120
5665.84092,0.02948
5667.76939,0.02313
5669.69786,0.02659
5671.62633,0.03161
5673.55480,0.03652
5675.48326,0.03021
5677.41173,0.02810
5679.34020,0.03974
5681.26867,0.03694
5683.19714,0.04551
5685.12561,0.07954
5687.05408,0.08088
5688.98254,0.04583
5690.91101,0.03005
5692.83948,0.03195
5694.76795,0.02096
5696.69642,0.00690
5698.62489,0.00622
5700.55336,0.01713
5702.48183,0.03341
5704.41029,0.02906
5706.33876,-0.00088
5708.26723,-0.01151
5710.19570,0.00587
5712.12417,0.01639
5714.05264,0.03008
5715.98111,0.05254
5717.90957,0.05329
5719.83804,0.04683
5721.76651,0.04561
5723.69498,0.03113
5725.62345,0.01797
5727.55192,0.02596
5729.48039,0.04290
5731.40886,0.04344
5733.33732,0.02845
5735.26579,0.03215
5737.19426,0.05802
5739.12273,0.06284
5741.05120,0.05006
5742.97967,0.04951
5744.90814,0.04935
5746.83660,0.04992
5748.76507,0.05600
5750.69354,0.03588
5752.62201,0.01012
5754.55048,0.01509
5756.47895,0.02657
5758.40742,0.03129
5760.33588,0.03058
5762.26435,0.04334
5764.19282,0.07564
5766.12129,0.07673
5768.04976,0.05104
5769.97823,0.05241
5771.90670,0.07205
5773.83517,0.08717
5775.76363,0.09944
5777.69210,0.08882
5779.62057,0.05550
5781.54904,0.02927
5783.47751,0.01992
5785.40598,0.02864
5787.33445,0.05001
5789.26291,0.06358
5791.19138,0.05546
5793.11985,0.04024
5795.04832,0.01998
5796.97679,-0.01115
5798.90526,-0.01210
5800.83373,0.03244
5802.76220,0.07037
5804.69066,0.08145
5806.61913,0.08603
5808.54760,0.05827
5810.47607,0.01681
5812.40454,0.02434
5814.33301,0.03353
5816.26148,-0.00095
5818.18994,-0.01789
5820.11841,0.00298
5822.04688,-0.00326
5823.97535,-0.04072
5825.90382,-0.05140
5827.83229,-0.02562
5829.76076,0.00719
5831.68923,0.01903
5833.61769,0.01825
5835.54616,0.01170
5837.47463,-0.01645
5839.40310,-0.02780
5841.33157,0.00015
5843.26004,0.01063
5845.18851,0.00292
5847.11697,0.02861
5849.04544,0.06259
5850.97391,0.06225
5852.90238,0.05342
5854.83085,0.04609
5856.75932,0.03726
5858.68779,0.04186
5860.61626,0.05453
5862.54472,0.04885
5864.47319,0.02701
5866.40166,0.01714
5868.33013,0.00624
5870.25860,-0.00971
5872.18707,0.00066
5874.11554,0.03423
5876.04400,0.06798
5877.97247,0.07969
5879.90094,0.07270
5881.82941,0.07313
5883.75788,0.06390
5885.68635,0.02276
5887.61482,-0.02491
5889.54329,-0.03923
5891.47175,-0.00463
5893.40022,0.04406
5895.32869,0.04987
5897.25716,0.02306
5899.18563,0.02852
5901.11410,0.06614
5903.04257,0.08732
5904.97103,0.09287
5906.89950,0.10267
5908.82797,0.10466
5910.75644,0.09253
5912.68491,0.07209
5914.61338,0.04446
5916.54185,0.00741
5918.47032,-0.03868
5920.39878,-0.05360
5922.32725,-0.02643
5924.25572,-0.02754
5926.18419,-0.06706
5928.11266,-0.06819
5930.04113,-0.01563
5931.96960,0.04582
5933.89806,0.09316
5935.82653,0.12654
5937.75500,0.14061
5939.68347,0.10877
5941.61194,0.04301
5943.54041,-0.00126
5945.46888,-0.01516
5947.39734,-0.00660
5949.32581,0.03377
5951.25428,0.08571
5953.18275,0.11112
5955.11122,0.08936
5957.03969,0.03849
5958.96816,0.01172
5960.89663,0.03156
5962.82509,0.04839
5964.75356,0.03436
5966.68203,0.02131
5968.61050,0.02737
5970.53897,0.04082
5972.46744,0.05730
5974.39591,0.06899
5976.32437,0.05891
5978.25284,0.02890
5980.18131,0.01750
5982.10978,0.04046
5984.03825,0.05533
5985.96672,0.05680
5987.89519,0.07115
5989.82366,0.05955
5991.75212,0.01430
5993.68059,-0.00448
5995.60906,0.01274
5997.53753,0.04231
5999.46600,0.08199
6001.39447,0.10185
6003.32294,0.07455
6005.25140,0.04347
6007.17987,0.04892
6009.10834,0.07120
6011.03681,0.08436
6012.96528,0.07317
6014.89375,0.05274
6016.82222,0.04521
6018.75069,0.04826
6020.67915,0.04213
6022.60762,0.00180
6024.53609,-0.03781
6026.46456,-0.01292
6028.39303,0.05417
6030.32150,0.08371
6032.24997,0.06304
6034.17843,0.01972
6036.10690,-0.02312
6038.03537,-0.04153
6039.96384,-0.04294
6041.89231,-0.04284
6043.82078,-0.03912
6045.74925,-0.02261
6047.67772,0.00899
6049.60618,0.02640
6051.53465,0.00933
6053.46312,0.00168
6055.39159,0.02659
6057.32006,0.04765
6059.24853,0.04450
6061.17700,0.02910
6063.10546,0.03233
6065.03393,0.04486
6066.96240,0.02877
6068.89087,0.00522
6070.81934,0.00516
6072.74781,0.01489
6074.67628,0.02374
6076.60475,0.06103
6078.53321,0.10864
6080.46168,0.06434
6082.39015,-0.05133
6084.31862,-0.06286
6086.24709,0.04238
6088.17556,0.08626
6090.10403,0.03234
6092.03249,-0.04382
6093.96096,-0.07946
6095.88943,-0.05898
6097.81790,-0.01915
6099.74637,0.02220
6101.67484,0.03335
6103.60331,0.01387
6105.53177,0.02553
6107.46024,0.05691
6109.38871,0.03397
6111.31718,-0.02672
6113.24565,-0.04585
6115.17412,-0.01647
6117.10259,0.00029
6119.03106,-0.02771
6120.95952,-0.04955
6122.88799,-0.01134
6124.81646,0.05533
6126.74493,0.07080
6128.67340,0.02319
6130.60187,-0.00924
6132.53034,-0.00102
6134.45880,0.01686
6136.38727,0.06592
6138.31574,0.13142
6140.24421,0.12945
6142.17268,0.07882
6144.10115,0.07842
6146.02962,0.10423
6147.95809,0.07724
6149.88655,0.01384
6151.81502,-0.01040
6153.74349,0.02371
6155.67196,0.05487
6157.60043,0.05754
6159.52890,0.05953
6161.45737,0.08332
6163.38583,0.11347
6165.31430,0.09322
6167.24277,0.04315
6169.17124,0.03037
6171.09971,0.04155
6173.02818,0.04801
6174.95665,0.07891
6176.88512,0.11048
6178.81358,0.08277
6180.74205,0.03736
6182.67052,0.00978
6184.59899,-0.01131
6186.52746,-0.01394
6188.45593,0.00453
6190.38440,0.02888
6192.31286,0.03945
6194.24133,0.00200
6196.16980,-0.06205
6198.09827,-0.05268
6200.02674,0.02983
6201.95521,0.09967
6203.88368,0.11003
6205.81215,0.07616
6207.74061,0.06697
6209.66908,0.06302
6211.59755,0.01745
6213.52602,-0.01043
6215.45449,0.00431
6217.38296,0.02909
6219.31143,0.04167
6221.23989,0.02883
6223.16836,0.01212
6225.09683,0.03286
6227.02530,0.06414
6228.95377,0.07456
6230.88224,0.07404
6232.81071,0.04420
6234.73918,-0.01740
6236.66764,-0.04872
6238.59611,-0.00480
6240.52458,0.06300
6242.45305,0.07429
6244.38152,0.03998
6246.30999,0.00744
6248.23846,0.00684
6250.16692,0.04267
6252.09539,0.06505
6254.02386,0.07483
6255.95233,0.09390
6257.88080,0.09175
6259.80927,0.09137
6261.73774,0.12196
6263.66621,0.14183
6265.59467,0.12599
6267.52314,0.09982
6269.45161,0.08254
6271.38008,0.09942
6273.30855,0.12620
6275.23702,0.08145
6277.16549,-0.00546
6279.09395,-0.03409
6281.02242,0.00582
6282.95089,0.02576
6284.87936,-0.01233
6286.80783,-0.01174
6288.73630,0.05818
6290.66477,0.12711
6292.59323,0.14685
6294.52170,0.11782
6296.45017,0.08489
6298.37864,0.10576
6300.30711,0.14930
6302.23558,0.11922
6304.16405,0.03404
6306.09252,-0.01193
6308.02098,-0.00391
6309.94945,0.02283
6311.87792,0.03710
6313.80639,0.04063
6315.73486,0.04719
6317.66333,0.05013
6319.59180,0.02425
6321.52026,-0.04971
6323.44873,-0.11663
6325.37720,-0.11484
6327.30567,-0.05977
6329.23414,0.00822
6331.16261,0.05084
6333.09108,0.06379
6335.01955,0.06593
6336.94801,0.06085
6338.87648,0.05570
6340.80495,0.07956
6342.73342,0.10806
6344.66189,0.08124
6346.59036,0.01206
6348.51883,-0.03767
6350.44729,-0.03368
6352.37576,0.00148
6354.30423,-0.00130
6356.23270,-0.06486
6358.16117,-0.14642
6360.08964,-0.17145
6362.01811,-0.10607
6363.94658,-0.03978
6365.87504,-0.06537
6367.80351,-0.10362
6369.73198,-0.05885
6371.66045,0.01896
6373.58892,0.07587
6375.51739,0.10559
6377.44586,0.11114
6379.37432,0.09472
6381.30279,0.04351
6383.23126,-0.04465
6385.15973,-0.11656
6387.08820,-0.10923
6389.01667,-0.02785
6390.94514,0.05300
6392.87361,0.07821
6394.80207,0.08727
6396.73054,0.11349
6398.65901,0.10423
6400.58748,0.05211
6402.51595,0.01343
6404.44442,-0.02435
6406.37289,-0.05745
6408.30135,-0.03438
6410.22982,0.01902
6412.15829,0.08761
6414.08676,0.15754
6416.01523,0.15871
6417.94370,0.09215
6419.87217,0.05091
6421.80064,0.08037
6423.72910,0.12732
6425.65757,0.12758
6427.58604,0.05365
6429.51451,-0.05287
6431.44298,-0.10428
6433.37145,-0.04820
6435.29992,0.03911
6437.22838,0.07070
6439.15685,0.06533
6441.08532,0.06814
6443.01379,0.07419
6444.94226,0.06973
6446.87073,0.05375
6448.79920,0.03009
6450.72766,-0.00206
6452.65613,0.00030
6454.58460,0.05494
6456.51307,0.07060
6458.44154,0.02678
6460.37001,-0.01357
6462.29848,-0.06286
6464.22695,-0.09384
6466.15541,-0.06123
6468.08388,-0.00236
6470.01235,0.03703
6471.94082,0.03990
6473.86929,0.02256
6475.79776,0.05281
6477.72623,0.13581
6479.65469,0.16441
6481.58316,0.12230
6483.51163,0.07694
6485.44010,0.06444
6487.36857,0.06880
6489.29704,0.09593
6491.22551,0.18171
6493.15398,0.22967
6495.08244,0.17233
6497.01091,0.10023
6498.93938,0.06719
6500.86785,0.06515
6502.79632,0.04650
6504.72479,0.02238
6506.65326,0.02116
6508.58172,0.02876
6510.51019,0.03368
6512.43866,0.00237
6514.36713,-0.02648
6516.29560,-0.00438
6518.22407,0.01689
6520.15254,0.02377
6522.08101,0.02264
6524.00947,-0.01435
6525.93794,-0.06516
6527.86641,-0.08762
6529.79488,-0.05927
6531.72335,0.00398
6533.65182,0.02941
6535.58029,0.00745
6537.50875,0.00961
6539.43722,0.04929
6541.36569,0.07279
6543.29416,0.04642
6545.22263,-0.00795
6547.15110,-0.04272
6549.07957,-0.03529
6551.00804,0.03506
6552.93650,0.11515
6554.86497,0.12759
6556.79344,0.10596
6558.72191,0.09966
6560.65038,0.08279
6562.57885,0.03690
6564.50732,0.00316
6566.43578,0.00076
6568.36425,0.02194
6570.29272,0.05383
6572.22119,0.05423
6574.14966,0.03972
6576.07813,0.07692
6578.00660,0.15495
6579.93507,0.17748
6581.86353,0.12165
6583.79200,0.08071
6585.72047,0.10806
6587.64894,0.13958
6589.57741,0.11273
6591.50588,0.05390
6593.43435,0.01972
6595.36281,0.00317
6597.29128,-0.05236
6599.21975,-0.10386
6601.14822,-0.06827
6603.07669,-0.00209
6605.00516,0.01165
6606.93363,0.00067
6608.86210,0.02766
6610.79056,0.09013
6612.71903,0.11004
6614.64750,0.04372
6616.57597,-0.03344
6618.50444,-0.00855
6620.43291,0.06016
6622.36138,0.04418
6624.28984,-0.04081
6626.21831,-0.10294
6628.14678,-0.10910
6630.07525,-0.06836
6632.00372,-0.00295
6633.93219,0.05593
6635.86066,0.06110
6637.78912,0.03395
6639.71759,-0.00043
6641.64606,-0.05729
6643.57453,-0.08866
6645.50300,-0.08162
6647.43147,-0.07178
6649.35994,-0.03928
6651.28841,-0.00276
6653.21687,0.02321
6655.14534,0.08318
6657.07381,0.12977
6659.00228,0.09432
6660.93075,0.04810
6662.85922,0.01915
6664.78769,0.00113
6666.71615,0.00708
6668.64462,0.01470
6670.57309,0.00660
6672.50156,0.03742
6674.43003,0.03996
6676.35850,-0.03206
6678.28697,-0.08802
6680.21544,-0.06769
6682.14390,0.00650
6684.07237,0.04484
6686.00084,0.03498
6687.92931,0.06902
6689.85778,0.07782
6691.78625,-0.01478
6693.71472,-0.06406
6695.64318,-0.00604
6697.57165,0.04324
6699.50012,0.03069
6701.42859,0.05539
6703.35706,0.12589
6705.28553,0.18186
6707.21400,0.22125
6709.14247,0.19188
6711.07093,0.11858
6712.99940,0.08479
6714.92787,0.02902
6716.85634,-0.06587
6718.78481,-0.06515
6720.71328,0.03325
6722.64175,0.08223
6724.57021,0.04347
6726.49868,-0.01513
6728.42715,-0.01123
6730.35562,0.02474
6732.28409,0.00346
6734.21256,-0.01585
6736.14103,-0.00714
6738.06950,-0.01260
6739.99796,-0.01796
6741.92643,-0.02726
6743.85490,-0.04956
6745.78337,-0.11990
6747.71184,-0.21549
6749.64031,-0.16038
6751.56878,0.02340
6753.49724,0.11591
6755.42571,0.09872
6757.35418,0.09182
6759.28265,0.09355
6761.21112,0.05414
6763.13959,0.05311
6765.06806,0.10295
6766.99653,0.10207
6768.92499,0.06457
6770.85346,0.05089
6772.78193,0.04014
6774.71040,0.02715
6776.63887,0.08168
6778.56734,0.18879
6780.49581,0.24377
6782.42427,0.22541
6784.35274,0.14965
6786.28121,0.02879
6788.20968,-0.04490
6790.13815,-0.03723
6792.06662,-0.03497
6793.99509,-0.06316
6795.92355,-0.04438
6797.85202,-0.02890
6799.78049,-0.05921
6801.70896,-0.01630
6803.63743,0.14336
6805.56590,0.19390
6807.49437,0.08314
6809.42284,-0.00122
6811.35130,0.03395
6813.27977,0.07977
6815.20824,-0.00996
6817.13671,-0.11041
6819.06518,-0.08268
6820.99365,0.00755
6822.92212,0.06024
6824.85058,-0.02093
6826.77905,-0.10955
6828.70752,-0.02566
6830.63599,0.11585
6832.56446,0.13109
6834.49293,0.09892
6836.42140,0.05652
6838.34987,0.00285
6840.27833,0.01525
6842.20680,0.05213
6844.13527,0.02820
6846.06374,0.01003
6847.99221,0.09119
6849.92068,0.15907
6851.84915,0.11335
6853.77761,0.03837
6855.70608,0.01599
6857.63455,0.06817
6859.56302,0.12462
6861.49149,0.13822
6863.41996,0.06165
6865.34843,-0.05878
6867.27690,-0.09780
6869.20536,-0.07593
6871.13383,-0.06787
6873.06230,-0.07504
6874.99077,-0.08216
6876.91924,-0.04544
6878.84771,0.04346
6880.77618,0.13462
6882.70464,0.19203
6884.63311,0.15634
6886.56158,0.04492
6888.49005,-0.00437
6890.41852,0.02760
6892.34699,0.04043
6894.27546,0.03458
6896.20393,0.05619
6898.13239,0.04640
6900.06086,-0.00413
6901.98933,-0.03189
6903.91780,-0.05855
6905.84627,-0.09641
6907.77474,-0.05967
6909.70321,0.04008
6911.63167,0.11506
6913.56014,0.14429
6915.48861,0.11605
6917.41708,0.10731
6919.34555,0.15802
6921.27402,0.13254
6923.20249,0.03994
6925.13096,0.00292
6927.05942,0.02092
6928.98789,0.01594
6930.91636,0.00527
6932.84483,0.00430
6934.77330,-0.00566
6936.70177,-0.01635
6938.63024,-0.07229
6940.55870,-0.12714
6942.48717,-0.12372
6944.41564,-0.08698
6946.34411,0.00362
6948.27258,0.10271
6950.20105,0.17093
6952.12952,0.21869
6954.05799,0.19507
6955.98645,0.09050
6957.91492,0.00362
6959.84339,-0.03303
6961.77186,-0.02364
6963.70033,0.01102
6965.62880,0.06419
6967.55727,0.12707
6969.48573,0.14822
6971.41420,0.13523
6973.34267,0.08373
6975.27114,-0.01232
6977.19961,-0.04806
6979.12808,-0.00497
6981.05655,0.05150
6982.98501,0.07626
6984.91348,0.06477
6986.84195,0.08287
6988.77042,0.11625
6990.69889,0.08365
6992.62736,0.04816
6994.55583,0.04619
6996.48430,0.04881
6998.41276,0.09888
7000.34123,0.20004
7002.26970,0.23339
7004.19817,0.13700
7006.12664,0.02441
7008.05511,0.07346
7009.98358,0.23885
7011.91204,0.33670
7013.84051,0.30489
7015.76898,0.23702
7017.69745,0.19554
7019.62592,0.19549
7021.55439,0.21575
7023.48286,0.19247
7025.41133,0.12054
7027.33979,0.03267
7029.26826,0.01139
7031.19673,0.14827
7033.12520,0.30363
7035.05367,0.25546
7036.98214,0.05462
7038.91061,-0.12140
7040.83907,-0.20244
7042.76754,-0.20500
7044.69601,-0.22755
7046.62448,-0.24087
7048.55295,-0.18770
7050.48142,-0.13045
7052.40989,-0.03765
7054.33836,0.12994
7056.26682,0.19646
7058.19529,0.01283
7060.12376,-0.19348
7062.05223,-0.21220
7063.98070,-0.08709
7065.90917,0.01098
7067.83764,-0.06815
7069.76610,-0.25392
7071.69457,-0.19359
7073.62304,0.00410
7075.55151,0.02964
7077.47998,0.02420
7079.40845,0.14333
7081.33692,0.30073
7083.26539,0.31763
7085.19385,0.25659
7087.12232,0.20097
7089.05079,0.13914
7090.97926,0.10883
7092.90773,0.11472
7094.83620,0.12505
7096.76467,0.22717
7098.69313,0.39008
7100.62160,0.40806
7102.55007,0.35091
7104.47854,0.30347
7106.40701,0.20244
7108.33548,0.08421
7110.26395,0.02539
7112.19242,-0.00563
7114.12088,-0.02502
7116.04935,-0.00036
7117.97782,0.08195
7119.90629,0.15996
7121.83476,0.17165
7123.76323,0.09961
7125.69170,0.01671
7127.62016,0.04156
7129.54863,0.09099
7131.47710,0.03696
7133.40557,-0.03661
7135.33404,-0.08971
7137.26251,-0.16528
7139.19098,-0.18326
7141.11944,-0.12994
7143.04791,-0.07737
7144.97638,0.02374
7146.90485,0.10187
7148.83332,0.07342
7150.76179,0.03500
7152.69026,0.03433
7154.61873,0.03523
7156.54719,0.01212
7158.47566,0.01879
7160.40413,0.04167
7162.33260,-0.00319
7164.26107,-0.03921
7166.18954,-0.02573
7168.11801,-0.06194
7170.04647,-0.08236
7171.97494,0.00203
7173.90341,0.16451
7175.83188,0.33282
7177.76035,0.33319
7179.68882,0.16079
7181.61729,0.05833
7183.54576,0.14609
7185.47422,0.19487
7187.40269,0.15395
7189.33116,0.17951
7191.25963,0.21175
7193.18810,0.11573
7195.11657,0.00345
7197.04504,0.00424
7198.97350,0.06884
7200.90197,0.08954
7202.83044,0.09799
7204.75891,0.16436
7206.68738,0.12621
7208.61585,0.00223
7210.54432,-0.02169
7212.47279,0.03810
7214.40125,0.08015
7216.32972,0.04711
7218.25819,-0.10462
7220.18666,-0.18263
7222.11513,-0.07494
7224.04360,0.02547
7225.97207,0.01429
7227.90053,-0.01563
7229.82900,-0.00307
7231.75747,0.07860
7233.68594,0.10905
7235.61441,0.03520
7237.54288,0.03035
7239.47135,0.09130
7241.39982,0.04063
7243.32828,-0.02345
7245.25675,0.03537
7247.18522,0.11963
7249.11369,0.21268
7251.04216,0.25688
7252.97063,0.17618
7254.89910,0.08616
7256.82756,0.09632
7258.75603,0.20759
7260.68450,0.23985
7262.61297,-0.02492
7264.54144,-0.29058
7266.46991,-0.27526
7268.39838,-0.09631
7270.32685,0.04194
7272.25531,0.01576
7274.18378,-0.04213
7276.11225,0.01407
7278.04072,0.21911
7279.96919,0.39044
7281.89766,0.24647
7283.82613,0.03023
7285.75459,-0.12280
7287.68306,-0.22728
7289.61153,-0.22552
7291.54000,-0.09086
7293.46847,0.03948
7295.39694,0.05319
7297.32541,0.05196
7299.25387,0.12980
7301.18234,0.22337
7303.11081,0.19603
7305.03928,0.08307
7306.96775,0.11393
7308.89622,0.22394
7310.82469,0.14354
7312.75316,0.05673
7314.68162,0.12597
7316.61009,0.23458
7318.53856,0.25845
7320.46703,0.21541
7322.39550,0.06598
7324.32397,-0.06794
7326.25244,-0.03628
7328.18090,0.01936
7330.10937,0.07029
7332.03784,0.19736
7333.96631,0.22559
7335.89478,0.19048
7337.82325,0.20441
7339.75172,0.09844
7341.68019,-0.14433
7343.60865,-0.25478
7345.53712,-0.23010
7347.46559,-0.10477
7349.39406,0.04947
7351.32253,0.16494
7353.25100,0.20015
7355.17947,0.21266
7357.10793,0.20999
7359.03640,0.16650
7360.96487,0.13020
7362.89334,0.03138
7364.82181,-0.04861
7366.75028,0.01619
7368.67875,0.07720
7370.60722,0.02522
7372.53568,-0.00985
7374.46415,0.02501
7376.39262,0.04799
7378.32109,0.09148
7380.24956,0.16646
7382.17803,0.16682
7384.10650,0.09306
7386.03496,0.10205
7387.96343,0.19708
7389.89190,0.21830
7391.82037,0.12749
7393.74884,0.01120
7395.67731,0.05453
7397.60578,0.18347
7399.53425,0.17740
7401.46271,0.09337
7403.39118,0.02351
7405.31965,-0.04620
7407.24812,-0.08645
7409.17659,0.00246
7411.10506,0.13389
7413.03353,0.12203
7414.96199,0.05127
7416.89046,0.09217
7418.81893,0.20206
7420.74740,0.16303
7422.67587,0.08683
7424.60434,0.07862
7426.53281,0.07080
7428.46128,0.02201
7430.38974,-0.08338
7432.31821,-0.10323
7434.24668,0.04043
7436.17515,0.18096
7438.10362,0.24276
7440.03209,0.31551
7441.96056,0.35261
7443.88902,0.26445
7445.81749,0.19713
7447.74596,0.23006
7449.67443,0.20639
7451.60290,0.04821
7453.53137,-0.07948
7455.45984,-0.07838
7457.38831,-0.02267
7459.31677,0.00128
7461.24524,-0.09276
7463.17371,-0.21311
7465.10218,-0.21970
7467.03065,-0.17765
7468.95912,-0.15241
7470.88759,-0.05235
7472.81605,0.06696
7474.74452,0.00661
7476.67299,-0.17758
7478.60146,-0.17706
7480.52993,0.03363
7482.45840,0.10309
7484.38687,-0.04387
7486.31533,-0.20403
7488.24380,-0.22462
7490.17227,-0.12524
7492.10074,-0.00200
7494.02921,0.08781
7495.95768,0.09420
7497.88615,0.07101
