399.19301,-0.22580
401.12148,-0.30071
403.04995,-0.27231
404.97842,-0.14105
406.90689,-0.07006
408.83536,-0.01245
410.76382,0.12042
412.69229,0.18059
414.62076,0.05005
416.54923,-0.03256
418.47770,0.13980
420.40617,0.29047
422.33464,0.22859
424.26311,0.11811
426.19157,-0.01583
428.12004,-0.09257
430.04851,-0.03342
431.97698,0.04645
433.90545,0.02394
435.83392,0.01598
437.76239,0.07213
439.69085,0.13274
441.61932,0.12670
443.54779,0.02182
445.47626,-0.07648
447.40473,-0.07777
449.33320,-0.01884
451.26167,0.02057
453.19013,0.03708
455.11860,0.07253
457.04707,0.08473
458.97554,0.05307
460.90401,0.03868
462.83248,0.03024
464.76095,0.00139
466.68942,-0.02200
468.61788,-0.00196
470.54635,0.04824
472.47482,0.09719
474.40329,0.08985
476.33176,0.03916
478.26023,0.02905
480.18870,0.02568
482.11716,0.00212
484.04563,-0.02632
485.97410,-0.04142
487.90257,-0.00929
489.83104,0.04813
491.75951,0.07649
493.68798,0.10031
495.61645,0.10814
497.54491,0.05115
499.47338,-0.00808
501.40185,-0.00820
503.33032,0.02953
505.25879,0.07204
507.18726,0.08006
509.11573,0.03720
511.04419,0.00359
512.97266,0.00682
514.90113,0.03454
516.82960,0.08001
518.75807,0.10882
520.68654,0.09708
522.61501,0.05531
524.54348,0.00251
526.47194,-0.01852
528.40041,-0.00572
530.32888,0.00015
532.25735,0.01646
534.18582,0.05660
536.11429,0.05747
538.04276,0.01553
539.97122,0.01252
541.89969,0.06019
543.82816,0.09726
545.75663,0.10478
547.68510,0.10395
549.61357,0.12864
551.54204,0.21074
553.47051,0.24359
555.39897,0.14555
557.32744,0.04250
559.25591,0.01953
561.18438,0.01725
563.11285,0.00467
565.04132,-0.00775
566.96979,-0.00997
568.89825,0.00111
570.82672,0.01349
572.75519,0.03170
574.68366,0.07765
576.61213,0.12927
578.54060,0.13714
580.46907,0.10234
582.39754,0.06907
584.32600,0.05783
586.25447,0.04682
588.18294,0.03407
590.11141,0.03887
592.03988,0.05632
593.96835,0.06655
595.89682,0.06580
597.82528,0.06317
599.75375,0.05424
601.68222,0.03917
603.61069,0.03650
605.53916,0.04724
607.46763,0.05086
609.39610,0.04000
611.32456,0.03585
613.25303,0.04596
615.18150,0.05221
617.10997,0.05066
619.03844,0.04074
620.96691,0.02698
622.89538,0.03085
624.82385,0.04911
626.75231,0.06005
628.68078,0.05183
630.60925,0.02393
632.53772,-0.00092
634.46619,-0.00556
636.39466,-0.00800
638.32313,-0.01834
640.25159,-0.01795
642.18006,0.00733
644.10853,0.03358
646.03700,0.03145
647.96547,0.01648
649.89394,0.02340
651.82241,0.03954
653.75088,0.04036
655.67934,0.04187
657.60781,0.05626
659.53628,0.07026
661.46475,0.06721
663.39322,0.05250
665.32169,0.04917
667.25016,0.06549
669.17862,0.07363
671.10709,0.05743
673.03556,0.04416
674.96403,0.04140
676.89250,0.04458
678.82097,0.04454
680.74944,0.04544
682.67791,0.05035
684.60637,0.04712
686.53484,0.04240
688.46331,0.05241
690.39178,0.06826
692.32025,0.07671
694.24872,0.07633
696.17719,0.07041
698.10565,0.05771
700.03412,0.04127
701.96259,0.03140
703.89106,0.03312
705.81953,0.04339
707.74800,0.04715
709.67647,0.03584
711.60494,0.02406
713.53340,0.02503
715.46187,0.03153
717.39034,0.03568
719.31881,0.03596
721.24728,0.02908
723.17575,0.02438
725.10422,0.02461
727.03268,0.02674
728.96115,0.03870
730.88962,0.05292
732.81809,0.05558
734.74656,0.04886
736.67503,0.04437
738.60350,0.04590
740.53197,0.04606
742.46043,0.04255
744.38890,0.03980
746.31737,0.04404
748.24584,0.05880
750.17431,0.07234
752.10278,0.06458
754.03125,0.04214
755.95971,0.03420
757.88818,0.04179
759.81665,0.04486
761.74512,0.04552
763.67359,0.04797
765.60206,0.04380
767.53053,0.03787
769.45900,0.03553
771.38746,0.03460
773.31593,0.03886
775.24440,0.04593
777.17287,0.04646
779.10134,0.03896
781.02981,0.03405
782.95828,0.03635
784.88674,0.03704
786.81521,0.03412
788.74368,0.03130
790.67215,0.02831
792.60062,0.02661
794.52909,0.02845
796.45756,0.03251
798.38602,0.03979
800.31449,0.04581
802.24296,0.04106
804.17143,0.03643
806.09990,0.04028
808.02837,0.03945
809.95684,0.03254
811.88531,0.03113
813.81377,0.03642
815.74224,0.04643
817.67071,0.05659
819.59918,0.05405
821.52765,0.04586
823.45612,0.04482
825.38459,0.04560
827.31305,0.04760
829.24152,0.05330
831.16999,0.06037
833.09846,0.06064
835.02693,0.04724
836.95540,0.03052
838.88387,0.02334
840.81234,0.02681
842.74080,0.03607
844.66927,0.05089
846.59774,0.06851
848.52621,0.07257
850.45468,0.05965
852.38315,0.04322
854.31162,0.02766
856.24008,0.02361
858.16855,0.03786
860.09702,0.05056
862.02549,0.05060
863.95396,0.04839
865.88243,0.05049
867.81090,0.05381
869.73937,0.05617
871.66783,0.05772
873.59630,0.05437
875.52477,0.04964
877.45324,0.05295
879.38171,0.05550
881.31018,0.04874
883.23865,0.04420
885.16711,0.04540
887.09558,0.04470
889.02405,0.04476
890.95252,0.04960
892.88099,0.05383
894.80946,0.05146
896.73793,0.04502
898.66640,0.04137
900.59486,0.04136
902.52333,0.03924
904.45180,0.03554
906.38027,0.03929
908.30874,0.05027
910.23721,0.05858
912.16568,0.05864
914.09414,0.05284
916.02261,0.04810
917.95108,0.04634
919.87955,0.04960
921.80802,0.05731
923.73649,0.05419
925.66496,0.04143
927.59343,0.03841
929.52189,0.04439
931.45036,0.04661
933.37883,0.04364
935.30730,0.04225
937.23577,0.04181
939.16424,0.03744
941.09271,0.03411
943.02117,0.03570
944.94964,0.03906
946.87811,0.04416
948.80658,0.04941
950.73505,0.05245
952.66352,0.05555
954.59199,0.05667
956.52045,0.05469
958.44892,0.05310
960.37739,0.05150
962.30586,0.04883
964.23433,0.04612
966.16280,0.04408
968.09127,0.04299
970.01974,0.04417
971.94820,0.04616
973.87667,0.04208
975.80514,0.03437
977.73361,0.03411
979.66208,0.03924
981.59055,0.03981
983.51902,0.03756
985.44748,0.04012
987.37595,0.04535
989.30442,0.04431
991.23289,0.03836
993.16136,0.03620
995.08983,0.03638
997.01830,0.03555
998.94677,0.03709
1000.87523,0.03919
1002.80370,0.04229
1004.73217,0.05214
1006.66064,0.06102
1008.58911,0.05885
1010.51758,0.05140
1012.44605,0.04892
1014.37451,0.05208
1016.30298,0.05264
1018.23145,0.04447
1020.15992,0.03654
1022.08839,0.03958
1024.01686,0.04578
1025.94533,0.04579
1027.87380,0.04235
1029.80226,0.04270
1031.73073,0.04592
1033.65920,0.04086
1035.58767,0.03129
1037.51614,0.03428
1039.44461,0.04933
1041.37308,0.06296
1043.30154,0.06935
1045.23001,0.06592
1047.15848,0.05543
1049.08695,0.05226
1051.01542,0.05917
1052.94389,0.06550
1054.87236,0.06771
1056.80083,0.06500
1058.72929,0.06242
1060.65776,0.06277
1062.58623,0.05781
1064.51470,0.05216
1066.44317,0.05204
1068.37164,0.05447
1070.30011,0.06043
1072.22857,0.06647
1074.15704,0.06652
1076.08551,0.06231
1078.01398,0.06186
1079.94245,0.06432
1081.87092,0.06279
1083.79939,0.06135
1085.72786,0.06112
1087.65632,0.05749
1089.58479,0.05588
1091.51326,0.06044
1093.44173,0.06726
1095.37020,0.07006
1097.29867,0.06028
1099.22714,0.04507
1101.15560,0.04177
1103.08407,0.04764
1105.01254,0.04841
1106.94101,0.04262
1108.86948,0.03844
1110.79795,0.04135
1112.72642,0.05208
1114.65489,0.06406
1116.58335,0.06539
1118.51182,0.05502
1120.44029,0.04886
1122.36876,0.05226
1124.29723,0.05443
1126.22570,0.05622
1128.15417,0.05885
1130.08263,0.05690
1132.01110,0.05438
1133.93957,0.05425
1135.86804,0.05642
1137.79651,0.06172
1139.72498,0.06323
1141.65345,0.05642
1143.58191,0.04938
1145.51038,0.05130
1147.43885,0.06036
1149.36732,0.06313
1151.29579,0.05384
1153.22426,0.04473
1155.15273,0.04524
1157.08120,0.05113
1159.00966,0.05510
1160.93813,0.05630
1162.86660,0.05637
1164.79507,0.05265
1166.72354,0.04708
1168.65201,0.04831
1170.58048,0.05531
1172.50894,0.06115
1174.43741,0.06242
1176.36588,0.05786
1178.29435,0.05277
1180.22282,0.05336
1182.15129,0.05762
1184.07976,0.05684
1186.00823,0.05102
1187.93669,0.05148
1189.86516,0.05774
1191.79363,0.05992
1193.72210,0.05885
1195.65057,0.05903
1197.57904,0.05845
1199.50751,0.05721
1201.43597,0.05793
1203.36444,0.05995
1205.29291,0.06006
1207.22138,0.05694
1209.14985,0.05466
1211.07832,0.05399
1213.00679,0.05379
1214.93526,0.05602
1216.86372,0.05781
1218.79219,0.05540
1220.72066,0.05224
1222.64913,0.05238
1224.57760,0.05380
1226.50607,0.05380
1228.43454,0.05400
1230.36300,0.05671
1232.29147,0.05977
1234.21994,0.06007
1236.14841,0.05805
1238.07688,0.05563
1240.00535,0.05671
1241.93382,0.06151
1243.86229,0.06402
1245.79075,0.06233
1247.71922,0.06064
1249.64769,0.06092
1251.57616,0.06097
1253.50463,0.06025
1255.43310,0.06112
1257.36157,0.06424
1259.29003,0.06685
1261.21850,0.06769
1263.14697,0.06821
1265.07544,0.06584
1267.00391,0.05814
1268.93238,0.05220
1270.86085,0.05308
1272.78932,0.05659
1274.71778,0.05897
1276.64625,0.05851
1278.57472,0.05708
1280.50319,0.05792
1282.43166,0.05821
1284.36013,0.05797
1286.28860,0.06180
1288.21706,0.06491
1290.14553,0.06140
1292.07400,0.05751
1294.00247,0.05703
1295.93094,0.05574
1297.85941,0.05439
1299.78788,0.05462
1301.71634,0.05378
1303.64481,0.05160
1305.57328,0.05007
1307.50175,0.05157
1309.43022,0.05497
1311.35869,0.05657
1313.28716,0.05806
1315.21563,0.05906
1317.14409,0.05727
1319.07256,0.05651
1321.00103,0.05848
1322.92950,0.06005
1324.85797,0.06033
1326.78644,0.06013
1328.71491,0.05669
1330.64337,0.05023
1332.57184,0.04908
1334.50031,0.05499
1336.42878,0.05853
1338.35725,0.05605
1340.28572,0.05438
1342.21419,0.05537
1344.14266,0.05489
1346.07112,0.05486
1347.99959,0.05856
1349.92806,0.06017
1351.85653,0.05686
1353.78500,0.05538
1355.71347,0.05651
1357.64194,0.05743
1359.57040,0.05831
1361.49887,0.05972
1363.42734,0.06035
1365.35581,0.06037
1367.28428,0.06303
1369.21275,0.06619
1371.14122,0.06624
1373.06969,0.06422
1374.99815,0.06198
1376.92662,0.06114
1378.85509,0.06057
1380.78356,0.05930
1382.71203,0.06015
1384.64050,0.06420
1386.56897,0.06685
1388.49743,0.06444
1390.42590,0.06144
1392.35437,0.05979
1394.28284,0.05683
1396.21131,0.05584
1398.13978,0.05860
1400.06825,0.05843
1401.99672,0.05716
1403.92518,0.05941
1405.85365,0.06224
1407.78212,0.06287
1409.71059,0.06222
1411.63906,0.06014
1413.56753,0.05830
1415.49600,0.05841
1417.42446,0.05969
1419.35293,0.06221
1421.28140,0.06472
1423.20987,0.06440
1425.13834,0.06182
1427.06681,0.06134
1428.99528,0.06215
1430.92375,0.06192
1432.85221,0.06352
1434.78068,0.06444
1436.70915,0.06104
1438.63762,0.05915
1440.56609,0.06180
1442.49456,0.06561
1444.42303,0.06808
1446.35149,0.07114
1448.27996,0.07293
1450.20843,0.06856
1452.13690,0.06534
1454.06537,0.06744
1455.99384,0.07054
1457.92231,0.07429
1459.85077,0.07562
1461.77924,0.07212
1463.70771,0.06821
1465.63618,0.06716
1467.56465,0.06657
1469.49312,0.06546
1471.42159,0.06483
1473.35006,0.06563
1475.27852,0.06971
1477.20699,0.07261
1479.13546,0.06988
1481.06393,0.06416
1482.99240,0.06072
1484.92087,0.06263
1486.84934,0.06865
1488.77780,0.07151
1490.70627,0.06579
1492.63474,0.05955
1494.56321,0.05808
1496.49168,0.06207
1498.42015,0.06601
1500.34862,0.06570
1502.27709,0.06604
1504.20555,0.06994
1506.13402,0.08022
1508.06249,0.08530
1509.99096,0.07910
1511.91943,0.07546
1513.84790,0.07338
1515.77637,0.06978
1517.70483,0.06620
1519.63330,0.06564
1521.56177,0.06966
1523.49024,0.07601
1525.41871,0.07754
1527.34718,0.07129
1529.27565,0.06135
1531.20412,0.05423
1533.13258,0.05450
1535.06105,0.06092
1536.98952,0.06515
1538.91799,0.06726
1540.84646,0.07086
1542.77493,0.07343
1544.70340,0.07152
1546.63186,0.06900
1548.56033,0.06785
1550.48880,0.06822
1552.41727,0.07160
1554.34574,0.07575
1556.27421,0.07885
1558.20268,0.08273
1560.13115,0.08003
1562.05961,0.07509
1563.98808,0.07216
1565.91655,0.06868
1567.84502,0.06566
1569.77349,0.06424
1571.70196,0.06380
1573.63043,0.06649
1575.55889,0.07308
1577.48736,0.07684
1579.41583,0.07592
1581.34430,0.07380
1583.27277,0.07053
1585.20124,0.06805
1587.12971,0.06825
1589.05818,0.06855
1590.98664,0.06751
1592.91511,0.06778
1594.84358,0.06783
1596.77205,0.06561
1598.70052,0.06324
1600.62899,0.06254
1602.55746,0.06480
1604.48592,0.06812
1606.41439,0.06841
1608.34286,0.06469
1610.27133,0.05976
1612.19980,0.05835
1614.12827,0.06051
1616.05674,0.06170
1617.98521,0.06088
1619.91367,0.06319
1621.84214,0.06934
1623.77061,0.07459
1625.69908,0.07365
1627.62755,0.06891
1629.55602,0.06490
1631.48449,0.06548
1633.41295,0.07035
1635.34142,0.07613
1637.26989,0.07291
1639.19836,0.06532
1641.12683,0.06156
1643.05530,0.06249
1644.98377,0.06662
1646.91223,0.07056
1648.84070,0.07268
1650.76917,0.07557
1652.69764,0.07577
1654.62611,0.06802
1656.55458,0.06438
1658.48305,0.06260
1660.41152,0.05869
1662.33998,0.05560
1664.26845,0.06016
1666.19692,0.06851
1668.12539,0.07564
1670.05386,0.07773
1671.98233,0.07110
1673.91080,0.06239
1675.83926,0.05917
1677.76773,0.06296
1679.69620,0.06793
1681.62467,0.06971
1683.55314,0.06845
1685.48161,0.06925
1687.41008,0.07231
1689.33855,0.07314
1691.26701,0.07088
1693.19548,0.07031
1695.12395,0.07455
1697.05242,0.08085
1698.98089,0.08236
1700.90936,0.07702
1702.83783,0.07223
1704.76629,0.07050
1706.69476,0.06823
1708.62323,0.06527
1710.55170,0.06352
1712.48017,0.06261
1714.40864,0.06208
1716.33711,0.06317
1718.26558,0.06536
1720.19404,0.06530
1722.12251,0.06446
1724.05098,0.06388
1725.97945,0.06365
1727.90792,0.06473
1729.83639,0.06688
1731.76486,0.06957
1733.69332,0.07196
1735.62179,0.06952
1737.55026,0.06569
1739.47873,0.06585
1741.40720,0.06894
1743.33567,0.06844
1745.26414,0.06504
1747.19261,0.06532
1749.12107,0.06865
1751.04954,0.06731
1752.97801,0.06284
1754.90648,0.06066
1756.83495,0.06119
1758.76342,0.06312
1760.69189,0.06496
1762.62035,0.06512
1764.54882,0.06385
1766.47729,0.06398
1768.40576,0.06620
1770.33423,0.06888
1772.26270,0.07026
1774.19117,0.06961
1776.11964,0.06820
1778.04810,0.06753
1779.97657,0.06749
1781.90504,0.06656
1783.83351,0.06544
1785.76198,0.06522
1787.69045,0.06552
1789.61892,0.06603
1791.54738,0.06694
1793.47585,0.06657
1795.40432,0.06475
1797.33279,0.06396
1799.26126,0.06389
1801.18973,0.06350
1803.11820,0.06359
1805.04666,0.06467
1806.97513,0.06468
1808.90360,0.06246
1810.83207,0.06059
1812.76054,0.06040
1814.68901,0.06125
1816.61748,0.06462
1818.54595,0.07145
1820.47441,0.07651
1822.40288,0.07501
1824.33135,0.06981
1826.25982,0.06721
1828.18829,0.06871
1830.11676,0.06978
1832.04523,0.06810
1833.97369,0.06559
1835.90216,0.06374
1837.83063,0.06463
1839.75910,0.06757
1841.68757,0.06942
1843.61604,0.06981
1845.54451,0.06943
1847.47298,0.06843
1849.40144,0.06884
1851.32991,0.07015
1853.25838,0.06945
1855.18685,0.06725
1857.11532,0.06428
1859.04379,0.06048
1860.97226,0.05870
1862.90072,0.06015
1864.82919,0.06307
1866.75766,0.06659
1868.68613,0.06761
1870.61460,0.06397
1872.54307,0.06035
1874.47154,0.05908
1876.40001,0.05967
1878.32847,0.06114
1880.25694,0.06218
1882.18541,0.06237
1884.11388,0.06248
1886.04235,0.06335
1887.97082,0.06556
1889.89929,0.06690
1891.82775,0.06514
1893.75622,0.06495
1895.68469,0.06894
1897.61316,0.07190
1899.54163,0.07014
1901.47010,0.06660
1903.39857,0.06540
1905.32704,0.06628
1907.25550,0.06658
1909.18397,0.06535
1911.11244,0.06495
1913.04091,0.06711
1914.96938,0.06848
1916.89785,0.06624
1918.82632,0.06307
1920.75478,0.06134
1922.68325,0.06034
1924.61172,0.06106
1926.54019,0.06270
1928.46866,0.06297
1930.39713,0.06326
1932.32560,0.06407
1934.25407,0.06448
1936.18253,0.06531
1938.11100,0.06592
1940.03947,0.06544
1941.96794,0.06456
1943.89641,0.06494
1945.82488,0.06591
1947.75335,0.06467
1949.68181,0.06230
1951.61028,0.06079
1953.53875,0.06062
1955.46722,0.06259
1957.39569,0.06479
1959.32416,0.06412
1961.25263,0.06249
1963.18110,0.06343
1965.10956,0.06639
1967.03803,0.06917
1968.96650,0.06937
1970.89497,0.06624
1972.82344,0.06253
1974.75191,0.06067
1976.68038,0.06008
1978.60884,0.06015
1980.53731,0.06083
1982.46578,0.06050
1984.39425,0.05976
1986.32272,0.06053
1988.25119,0.06268
1990.17966,0.06533
1992.10812,0.06721
1994.03659,0.06847
1995.96506,0.06912
1997.89353,0.06808
1999.82200,0.06636
2001.75047,0.06642
2003.67894,0.06740
2005.60741,0.06584
2007.53587,0.06277
2009.46434,0.06185
2011.39281,0.06325
2013.32128,0.06418
2015.24975,0.06234
2017.17822,0.05934
2019.10669,0.05866
2021.03515,0.06050
2022.96362,0.06400
2024.89209,0.06812
2026.82056,0.06987
2028.74903,0.06899
2030.67750,0.06655
2032.60597,0.06266
2034.53444,0.06037
2036.46290,0.06111
2038.39137,0.06171
2040.31984,0.06038
2042.24831,0.05912
2044.17678,0.06058
2046.10525,0.06318
2048.03372,0.06320
2049.96218,0.06229
2051.89065,0.06301
2053.81912,0.06382
2055.74759,0.06475
2057.67606,0.06432
2059.60453,0.06130
2061.53300,0.06055
2063.46147,0.06224
2065.38993,0.06331
2067.31840,0.06672
2069.24687,0.07126
2071.17534,0.07156
2073.10381,0.06957
2075.03228,0.06928
2076.96075,0.07029
2078.88921,0.07137
2080.81768,0.07094
2082.74615,0.06830
2084.67462,0.06630
2086.60309,0.06720
2088.53156,0.06930
2090.46003,0.07002
2092.38850,0.06888
2094.31696,0.06653
2096.24543,0.06493
2098.17390,0.06588
2100.10237,0.06608
2102.03084,0.06370
2103.95931,0.06305
2105.88778,0.06505
2107.81624,0.06573
2109.74471,0.06358
2111.67318,0.06108
2113.60165,0.05979
2115.53012,0.06026
2117.45859,0.06325
2119.38706,0.06646
2121.31553,0.06635
2123.24399,0.06348
2125.17246,0.06195
2127.10093,0.06181
2129.02940,0.06106
2130.95787,0.06195
2132.88634,0.06453
2134.81481,0.06632
2136.74327,0.06773
2138.67174,0.06832
2140.60021,0.06718
2142.52868,0.06550
2144.45715,0.06411
2146.38562,0.06337
2148.31409,0.06349
2150.24255,0.06442
2152.17102,0.06602
2154.09949,0.06779
2156.02796,0.06974
2157.95643,0.07115
2159.88490,0.07092
2161.81337,0.06910
2163.74184,0.06859
2165.67030,0.07184
2167.59877,0.07427
2169.52724,0.07295
2171.45571,0.07133
2173.38418,0.07163
2175.31265,0.07279
2177.24112,0.07101
2179.16958,0.06649
2181.09805,0.06491
2183.02652,0.06623
2184.95499,0.06512
2186.88346,0.06287
2188.81193,0.06396
2190.74040,0.06536
2192.66887,0.06479
2194.59733,0.06522
2196.52580,0.06598
2198.45427,0.06544
2200.38274,0.06498
2202.31121,0.06603
2204.23968,0.06715
2206.16815,0.06637
2208.09661,0.06652
2210.02508,0.06807
2211.95355,0.06768
2213.88202,0.06655
2215.81049,0.06659
2217.73896,0.06797
2219.66743,0.06915
2221.59590,0.06779
2223.52436,0.06533
2225.45283,0.06494
2227.38130,0.06692
2229.30977,0.06843
2231.23824,0.06803
2233.16671,0.06778
2235.09518,0.06890
2237.02364,0.07005
2238.95211,0.06969
2240.88058,0.06741
2242.80905,0.06434
2244.73752,0.06289
2246.66599,0.06324
2248.59446,0.06271
2250.52293,0.06096
2252.45139,0.06200
2254.37986,0.06706
2256.30833,0.07042
2258.23680,0.06902
2260.16527,0.06771
2262.09374,0.06864
2264.02221,0.06731
2265.95067,0.06420
2267.87914,0.06330
2269.80761,0.06345
2271.73608,0.06395
2273.66455,0.06492
2275.59302,0.06460
2277.52149,0.06413
2279.44996,0.06494
2281.37842,0.06494
2283.30689,0.06358
2285.23536,0.06221
2287.16383,0.06161
2289.09230,0.06249
2291.02077,0.06290
2292.94924,0.06103
2294.87770,0.05952
2296.80617,0.06049
2298.73464,0.06356
2300.66311,0.06715
2302.59158,0.06859
2304.52005,0.06699
2306.44852,0.06342
2308.37699,0.06007
2310.30545,0.06037
2312.23392,0.06478
2314.16239,0.06876
2316.09086,0.07001
2318.01933,0.07176
2319.94780,0.07470
2321.87627,0.07571
2323.80473,0.07383
2325.73320,0.06949
2327.66167,0.06833
2329.59014,0.07218
2331.51861,0.06857
2333.44708,0.06049
2335.37555,0.06171
2337.30401,0.06632
2339.23248,0.06685
2341.16095,0.06166
2343.08942,0.05578
2345.01789,0.05588
2346.94636,0.05451
2348.87483,0.05097
2350.80330,0.04911
2352.73176,0.04792
2354.66023,0.04592
2356.58870,0.04434
2358.51717,0.05167
2360.44564,0.06980
2362.37411,0.07377
2364.30258,0.06152
2366.23104,0.05638
2368.15951,0.05750
2370.08798,0.05794
2372.01645,0.05850
2373.94492,0.05887
2375.87339,0.05886
2377.80186,0.06013
2379.73033,0.06183
2381.65879,0.06179
2383.58726,0.06138
2385.51573,0.06175
2387.44420,0.06294
2389.37267,0.06499
2391.30114,0.06739
2393.22961,0.06944
2395.15807,0.06972
2397.08654,0.06895
2399.01501,0.06786
2400.94348,0.06636
2402.87195,0.06793
2404.80042,0.07195
2406.72889,0.07325
2408.65736,0.07162
2410.58582,0.06941
2412.51429,0.06836
2414.44276,0.06945
2416.37123,0.07084
2418.29970,0.06983
2420.22817,0.06731
2422.15664,0.06620
2424.08510,0.06678
2426.01357,0.06748
2427.94204,0.06810
2429.87051,0.06966
2431.79898,0.07035
2433.72745,0.06793
2435.65592,0.06632
2437.58439,0.06803
2439.51285,0.07016
2441.44132,0.07062
2443.36979,0.06944
2445.29826,0.06908
2447.22673,0.07163
2449.15520,0.07540
2451.08367,0.07656
2453.01213,0.07343
2454.94060,0.06948
2456.86907,0.06840
2458.79754,0.06886
2460.72601,0.06784
2462.65448,0.06553
2464.58295,0.06447
2466.51142,0.06609
2468.43988,0.06869
2470.36835,0.06923
2472.29682,0.06884
2474.22529,0.06954
2476.15376,0.06941
2478.08223,0.06814
2480.01070,0.06624
2481.93916,0.06387
2483.86763,0.06361
2485.79610,0.06522
2487.72457,0.06572
2489.65304,0.06537
2491.58151,0.06711
2493.50998,0.07028
2495.43844,0.07160
2497.36691,0.07155
2499.29538,0.07029
2501.22385,0.06724
2503.15232,0.06438
2505.08079,0.06264
2507.00926,0.06297
2508.93773,0.06531
2510.86619,0.06780
2512.79466,0.07104
2514.72313,0.07286
2516.65160,0.06903
2518.58007,0.06454
2520.50854,0.06583
2522.43701,0.07037
2524.36547,0.07408
2526.29394,0.07636
2528.22241,0.07739
2530.15088,0.07639
2532.07935,0.07324
2534.00782,0.07023
2535.93629,0.06960
2537.86476,0.07044
2539.79322,0.07012
2541.72169,0.06853
2543.65016,0.06816
2545.57863,0.07040
2547.50710,0.07237
2549.43557,0.07163
2551.36404,0.07127
2553.29250,0.07204
2555.22097,0.07143
2557.14944,0.06985
2559.07791,0.06886
2561.00638,0.06898
2562.93485,0.06895
2564.86332,0.06887
2566.79179,0.06978
2568.72025,0.06969
2570.64872,0.06859
2572.57719,0.06843
2574.50566,0.06802
2576.43413,0.06640
2578.36260,0.06562
2580.29107,0.06740
2582.21953,0.06869
2584.14800,0.06618
2586.07647,0.06444
2588.00494,0.06579
2589.93341,0.06557
2591.86188,0.06458
2593.79035,0.06542
2595.71882,0.06656
2597.64728,0.06830
2599.57575,0.07018
2601.50422,0.07020
2603.43269,0.06918
2605.36116,0.06854
2607.28963,0.06820
2609.21810,0.06871
2611.14656,0.07088
2613.07503,0.07278
2615.00350,0.07280
2616.93197,0.07131
2618.86044,0.06906
2620.78891,0.06876
2622.71738,0.07116
2624.64585,0.07299
2626.57431,0.07261
2628.50278,0.07152
2630.43125,0.07099
2632.35972,0.07152
2634.28819,0.07312
2636.21666,0.07421
2638.14513,0.07383
2640.07359,0.07333
2642.00206,0.07400
2643.93053,0.07346
2645.85900,0.06940
2647.78747,0.06533
2649.71594,0.06483
2651.64441,0.06722
2653.57288,0.07029
2655.50134,0.07189
2657.42981,0.07105
2659.35828,0.06898
2661.28675,0.06764
2663.21522,0.06805
2665.14369,0.07044
2667.07216,0.07295
2669.00062,0.07422
2670.92909,0.07428
2672.85756,0.07239
2674.78603,0.07145
2676.71450,0.07344
2678.64297,0.07402
2680.57144,0.07207
2682.49990,0.07194
2684.42837,0.07300
2686.35684,0.07077
2688.28531,0.06679
2690.21378,0.06441
2692.14225,0.06337
2694.07072,0.06378
2695.99919,0.06625
2697.92765,0.06966
2699.85612,0.07106
2701.78459,0.06958
2703.71306,0.06824
2705.64153,0.06841
2707.57000,0.06984
2709.49847,0.07207
2711.42693,0.07279
2713.35540,0.07187
2715.28387,0.07238
2717.21234,0.07369
2719.14081,0.07333
2721.06928,0.07334
2722.99775,0.07514
2724.92622,0.07644
2726.85468,0.07588
2728.78315,0.07373
2730.71162,0.07084
2732.64009,0.06981
2734.56856,0.07266
2736.49703,0.07697
2738.42550,0.07819
2740.35396,0.07339
2742.28243,0.06561
2744.21090,0.06360
2746.13937,0.06788
2748.06784,0.07010
2749.99631,0.07039
2751.92478,0.07384
2753.85325,0.07649
2755.78171,0.07462
2757.71018,0.07296
2759.63865,0.07439
2761.56712,0.07565
2763.49559,0.07446
2765.42406,0.07450
2767.35253,0.07780
2769.28099,0.07916
2771.20946,0.07623
2773.13793,0.07206
2775.06640,0.06971
2776.99487,0.07104
2778.92334,0.07343
2780.85181,0.07412
2782.78028,0.07497
2784.70874,0.07617
2786.63721,0.07723
2788.56568,0.07896
2790.49415,0.08060
2792.42262,0.08192
2794.35109,0.08297
2796.27956,0.08272
2798.20802,0.07969
2800.13649,0.07424
2802.06496,0.07043
2803.99343,0.07162
2805.92190,0.07537
2807.85037,0.07653
2809.77884,0.07484
2811.70731,0.07502
2813.63577,0.07825
2815.56424,0.07896
2817.49271,0.07451
2819.42118,0.07032
2821.34965,0.06973
2823.27812,0.07078
2825.20659,0.07183
2827.13505,0.07248
2829.06352,0.07330
2830.99199,0.07379
2832.92046,0.07308
2834.84893,0.07236
2836.77740,0.07221
2838.70587,0.07365
2840.63433,0.07736
2842.56280,0.07936
2844.49127,0.07878
2846.41974,0.07937
2848.34821,0.08017
2850.27668,0.08131
2852.20515,0.08497
2854.13362,0.08626
2856.06208,0.08316
2857.99055,0.07980
2859.91902,0.07802
2861.84749,0.07929
2863.77596,0.08126
2865.70443,0.07993
2867.63290,0.07674
2869.56136,0.07545
2871.48983,0.07823
2873.41830,0.07896
2875.34677,0.07302
2877.27524,0.06981
2879.20371,0.07376
2881.13218,0.07664
2883.06065,0.07518
2884.98911,0.07299
2886.91758,0.07052
2888.84605,0.06866
2890.77452,0.07085
2892.70299,0.07350
2894.63146,0.07308
2896.55993,0.07361
2898.48839,0.07450
2900.41686,0.07290
2902.34533,0.06999
2904.27380,0.06734
2906.20227,0.06841
2908.13074,0.07178
2910.05921,0.07110
2911.98768,0.06959
2913.91614,0.07200
2915.84461,0.07429
2917.77308,0.07440
2919.70155,0.07338
2921.63002,0.07272
2923.55849,0.07435
2925.48696,0.07496
2927.41542,0.07179
2929.34389,0.06805
2931.27236,0.06815
2933.20083,0.07182
2935.12930,0.07316
2937.05777,0.07139
2938.98624,0.07218
2940.91471,0.07577
2942.84317,0.07743
2944.77164,0.07591
2946.70011,0.07437
2948.62858,0.07484
2950.55705,0.07519
2952.48552,0.07492
2954.41399,0.07522
2956.34245,0.07338
2958.27092,0.06997
2960.19939,0.07123
2962.12786,0.07747
2964.05633,0.08105
2965.98480,0.07712
2967.91327,0.07095
2969.84174,0.07027
2971.77020,0.07453
2973.69867,0.07683
2975.62714,0.07345
2977.55561,0.06911
2979.48408,0.06903
2981.41255,0.07243
2983.34102,0.07654
2985.26948,0.07949
2987.19795,0.08091
2989.12642,0.08213
2991.05489,0.08352
2992.98336,0.08296
2994.91183,0.08017
2996.84030,0.07597
2998.76877,0.07262
3000.69723,0.07460
3002.62570,0.07922
3004.55417,0.08054
3006.48264,0.07825
3008.41111,0.07615
3010.33958,0.07637
3012.26805,0.07485
3014.19651,0.06875
3016.12498,0.06188
3018.05345,0.06047
3019.98192,0.06493
3021.91039,0.06971
3023.83886,0.07263
3025.76733,0.07556
3027.69579,0.07892
3029.62426,0.07862
3031.55273,0.07338
3033.48120,0.06843
3035.40967,0.06762
3037.33814,0.06982
3039.26661,0.07216
3041.19508,0.07445
3043.12354,0.07526
3045.05201,0.07300
3046.98048,0.07114
3048.90895,0.07160
3050.83742,0.07281
3052.76589,0.07385
3054.69436,0.07311
3056.62282,0.07161
3058.55129,0.07436
3060.47976,0.07958
3062.40823,0.08242
3064.33670,0.08279
3066.26517,0.08003
3068.19364,0.07722
3070.12211,0.07912
3072.05057,0.08390
3073.97904,0.08508
3075.90751,0.07949
3077.83598,0.07352
3079.76445,0.07124
3081.69292,0.07211
3083.62139,0.07640
3085.54985,0.08150
3087.47832,0.08620
3089.40679,0.08643
3091.33526,0.07845
3093.26373,0.07157
3095.19220,0.07448
3097.12067,0.07982
3099.04914,0.07997
3100.97760,0.07782
3102.90607,0.07533
3104.83454,0.07443
3106.76301,0.07729
3108.69148,0.07898
3110.61995,0.07598
3112.54842,0.07373
3114.47688,0.07513
3116.40535,0.07721
3118.33382,0.07984
3120.26229,0.08174
3122.19076,0.08084
3124.11923,0.07852
3126.04770,0.07704
3127.97617,0.07807
3129.90463,0.07814
3131.83310,0.07442
3133.76157,0.07283
3135.69004,0.07685
3137.61851,0.08049
3139.54698,0.08077
3141.47545,0.08087
3143.40391,0.08056
3145.33238,0.07965
3147.26085,0.08028
3149.18932,0.08151
3151.11779,0.08210
3153.04626,0.08156
3154.97473,0.07878
3156.90320,0.07664
3158.83166,0.07815
3160.76013,0.07982
3162.68860,0.08003
3164.61707,0.08145
3166.54554,0.08205
3168.47401,0.07932
3170.40248,0.07681
3172.33094,0.07750
3174.25941,0.07738
3176.18788,0.07355
3178.11635,0.07039
3180.04482,0.07179
3181.97329,0.07666
3183.90176,0.08116
3185.83022,0.08349
3187.75869,0.08429
3189.68716,0.08322
3191.61563,0.08265
3193.54410,0.08505
3195.47257,0.08799
3197.40104,0.08773
3199.32951,0.08361
3201.25797,0.07895
3203.18644,0.07795
3205.11491,0.07947
3207.04338,0.07855
3208.97185,0.07515
3210.90032,0.07413
3212.82879,0.07913
3214.75725,0.08636
3216.68572,0.08802
3218.61419,0.08506
3220.54266,0.08508
3222.47113,0.08932
3224.39960,0.09176
3226.32807,0.08952
3228.25654,0.08475
3230.18500,0.08246
3232.11347,0.08435
3234.04194,0.08598
3235.97041,0.08529
3237.89888,0.08265
3239.82735,0.08147
3241.75582,0.08358
3243.68428,0.08364
3245.61275,0.08071
3247.54122,0.08110
3249.46969,0.08732
3251.39816,0.09233
3253.32663,0.08880
3255.25510,0.07986
3257.18357,0.07400
3259.11203,0.07528
3261.04050,0.07993
3262.96897,0.08121
3264.89744,0.07777
3266.82591,0.07461
3268.75438,0.07658
3270.68285,0.08236
3272.61131,0.08391
3274.53978,0.07895
3276.46825,0.07683
3278.39672,0.08033
3280.32519,0.08223
3282.25366,0.08112
3284.18213,0.08138
3286.11060,0.08321
3288.03906,0.08361
3289.96753,0.08355
3291.89600,0.08273
3293.82447,0.07910
3295.75294,0.07616
3297.68141,0.07508
3299.60988,0.07294
3301.53834,0.07183
3303.46681,0.07229
3305.39528,0.07142
3307.32375,0.07528
3309.25222,0.08511
3311.18069,0.08813
3313.10916,0.08234
3315.03763,0.07640
3316.96609,0.07397
3318.89456,0.07443
3320.82303,0.07479
3322.75150,0.07501
3324.67997,0.07655
3326.60844,0.07688
3328.53691,0.07619
3330.46537,0.07775
3332.39384,0.07983
3334.32231,0.07958
3336.25078,0.07848
3338.17925,0.07971
3340.10772,0.08427
3342.03619,0.08855
3343.96466,0.08815
3345.89312,0.08328
3347.82159,0.07796
3349.75006,0.07635
3351.67853,0.07947
3353.60700,0.08390
3355.53547,0.08513
3357.46394,0.08245
3359.39240,0.08142
3361.32087,0.08359
3363.24934,0.08046
3365.17781,0.07200
3367.10628,0.06824
3369.03475,0.07104
3370.96322,0.07526
3372.89168,0.07432
3374.82015,0.06824
3376.74862,0.06845
3378.67709,0.07785
3380.60556,0.08359
3382.53403,0.08091
3384.46250,0.08029
3386.39097,0.08483
3388.31943,0.08524
3390.24790,0.07855
3392.17637,0.07069
3394.10484,0.06784
3396.03331,0.07035
3397.96178,0.07444
3399.89025,0.07640
3401.81871,0.07545
3403.74718,0.07486
3405.67565,0.07274
3407.60412,0.06765
3409.53259,0.06708
3411.46106,0.07292
3413.38953,0.07876
3415.31800,0.08154
3417.24646,0.08224
3419.17493,0.08135
3421.10340,0.08120
3423.03187,0.08304
3424.96034,0.08207
3426.88881,0.07654
3428.81728,0.07248
3430.74574,0.07441
3432.67421,0.07639
3434.60268,0.07130
3436.53115,0.06528
3438.45962,0.06813
3440.38809,0.07893
3442.31656,0.08702
3444.24503,0.08412
3446.17349,0.07573
3448.10196,0.07175
3450.03043,0.07108
3451.95890,0.06880
3453.88737,0.06612
3455.81584,0.06725
3457.74431,0.07131
3459.67277,0.07143
3461.60124,0.06677
3463.52971,0.06323
3465.45818,0.06346
3467.38665,0.06652
3469.31512,0.06901
3471.24359,0.06943
3473.17206,0.07008
3475.10052,0.07055
3477.02899,0.07024
3478.95746,0.07066
3480.88593,0.07260
3482.81440,0.07438
3484.74287,0.07411
3486.67134,0.07266
3488.59980,0.06954
3490.52827,0.06573
3492.45674,0.06495
3494.38521,0.06699
3496.31368,0.06879
3498.24215,0.06963
3500.17062,0.07061
3502.09909,0.06910
3504.02755,0.06390
3505.95602,0.06146
3507.88449,0.06355
3509.81296,0.06610
3511.74143,0.06678
3513.66990,0.06463
3515.59837,0.06057
3517.52683,0.05675
3519.45530,0.05525
3521.38377,0.05668
3523.31224,0.05760
3525.24071,0.05768
3527.16918,0.05921
3529.09765,0.05794
3531.02611,0.05413
3532.95458,0.05499
3534.88305,0.05934
3536.81152,0.06051
3538.73999,0.05875
3540.66846,0.05845
3542.59693,0.05868
3544.52540,0.05830
3546.45386,0.06378
3548.38233,0.07594
3550.31080,0.08280
3552.23927,0.07783
3554.16774,0.06716
3556.09621,0.06075
3558.02468,0.06112
3559.95314,0.06227
3561.88161,0.05925
3563.81008,0.05706
3565.73855,0.05793
3567.66702,0.05721
3569.59549,0.05770
3571.52396,0.06115
3573.45243,0.06216
3575.38089,0.05950
3577.30936,0.05846
3579.23783,0.06057
3581.16630,0.06307
3583.09477,0.06285
3585.02324,0.05687
3586.95171,0.04863
3588.88017,0.04772
3590.80864,0.05199
3592.73711,0.05679
3594.66558,0.05994
3596.59405,0.05809
3598.52252,0.05481
3600.45099,0.05488
3602.37946,0.05683
3604.30792,0.05764
3606.23639,0.05772
3608.16486,0.05864
3610.09333,0.05975
3612.02180,0.05765
3613.95027,0.05433
3615.87874,0.05749
3617.80720,0.06496
3619.73567,0.06601
3621.66414,0.05898
3623.59261,0.05202
3625.52108,0.04833
3627.44955,0.04855
3629.37802,0.04929
3631.30649,0.04663
3633.23495,0.04641
3635.16342,0.05026
3637.09189,0.05319
3639.02036,0.05162
3640.94883,0.04908
3642.87730,0.04905
3644.80577,0.05042
3646.73423,0.05246
3648.66270,0.05075
3650.59117,0.04542
3652.51964,0.04619
3654.44811,0.04969
3656.37658,0.05180
3658.30505,0.05041
3660.23352,0.04704
3662.16198,0.04586
3664.09045,0.05024
3666.01892,0.05697
3667.94739,0.06219
3669.87586,0.06197
3671.80433,0.05471
3673.73280,0.05125
3675.66126,0.05515
3677.58973,0.05937
3679.51820,0.06016
3681.44667,0.05737
3683.37514,0.05366
3685.30361,0.05290
3687.23208,0.05234
3689.16055,0.05180
3691.08901,0.05474
3693.01748,0.05417
3694.94595,0.05135
3696.87442,0.05109
3698.80289,0.05361
3700.73136,0.05524
3702.65983,0.05208
3704.58829,0.04893
3706.51676,0.04922
3708.44523,0.05018
3710.37370,0.04888
3712.30217,0.04430
3714.23064,0.04197
3716.15911,0.04486
3718.08757,0.05136
3720.01604,0.05795
3721.94451,0.05979
3723.87298,0.05531
3725.80145,0.04898
3727.72992,0.04466
3729.65839,0.04320
3731.58686,0.04489
3733.51532,0.04907
3735.44379,0.05403
3737.37226,0.05620
3739.30073,0.05560
3741.22920,0.05401
3743.15767,0.04927
3745.08614,0.04194
3747.01460,0.04036
3748.94307,0.04382
3750.87154,0.04975
3752.80001,0.05512
3754.72848,0.05497
3756.65695,0.04965
3758.58542,0.04441
3760.51389,0.04493
3762.44235,0.05159
3764.37082,0.05874
3766.29929,0.05895
3768.22776,0.05446
3770.15623,0.04987
3772.08470,0.04615
3774.01317,0.04609
3775.94163,0.04928
3777.87010,0.05288
3779.79857,0.05322
3781.72704,0.05163
3783.65551,0.05323
3785.58398,0.05647
3787.51245,0.05709
3789.44092,0.05554
3791.36938,0.05275
3793.29785,0.05019
3795.22632,0.04929
3797.15479,0.04804
3799.08326,0.04732
3801.01173,0.04696
3802.94020,0.04231
3804.86866,0.03986
3806.79713,0.04342
3808.72560,0.04698
3810.65407,0.04733
3812.58254,0.04669
3814.51101,0.04795
3816.43948,0.05134
3818.36795,0.04869
3820.29641,0.04091
3822.22488,0.03862
3824.15335,0.04265
3826.08182,0.04716
3828.01029,0.04853
3829.93876,0.04443
3831.86723,0.03945
3833.79569,0.03957
3835.72416,0.04315
3837.65263,0.04904
3839.58110,0.05275
3841.50957,0.04659
3843.43804,0.04131
3845.36651,0.04484
3847.29498,0.04929
3849.22344,0.05059
3851.15191,0.05144
3853.08038,0.05350
3855.00885,0.05371
3856.93732,0.04945
3858.86579,0.04385
3860.79426,0.04123
3862.72272,0.04524
3864.65119,0.05206
3866.57966,0.05470
3868.50813,0.05626
3870.43660,0.05857
3872.36507,0.05925
3874.29354,0.05613
3876.22200,0.04982
3878.15047,0.04724
3880.07894,0.05051
3882.00741,0.05375
3883.93588,0.05649
3885.86435,0.05868
3887.79282,0.05582
3889.72129,0.05363
3891.64975,0.05351
3893.57822,0.05056
3895.50669,0.04502
3897.43516,0.03860
3899.36363,0.03635
3901.29210,0.04233
3903.22057,0.05037
3905.14903,0.04924
3907.07750,0.03993
3909.00597,0.03519
3910.93444,0.03883
3912.86291,0.04407
3914.79138,0.04421
3916.71985,0.04156
3918.64832,0.04235
3920.57678,0.04605
3922.50525,0.04897
3924.43372,0.04743
3926.36219,0.04004
3928.29066,0.03249
3930.21913,0.03115
3932.14760,0.03838
3934.07606,0.04782
3936.00453,0.04937
3937.93300,0.04298
3939.86147,0.03702
3941.78994,0.03585
3943.71841,0.03680
3945.64688,0.03774
3947.57535,0.03973
3949.50381,0.04114
3951.43228,0.03751
3953.36075,0.03372
3955.28922,0.03631
3957.21769,0.03991
3959.14616,0.04040
3961.07463,0.03938
3963.00309,0.03513
3964.93156,0.03047
3966.86003,0.03117
3968.78850,0.03714
3970.71697,0.04306
3972.64544,0.04429
3974.57391,0.04298
3976.50238,0.04253
3978.43084,0.04143
3980.35931,0.04053
3982.28778,0.04327
3984.21625,0.04684
3986.14472,0.04763
3988.07319,0.04638
3990.00166,0.04517
3991.93012,0.04504
3993.85859,0.04338
3995.78706,0.04067
3997.71553,0.03968
3999.64400,0.03889
4001.57247,0.03765
4003.50094,0.03917
4005.42941,0.04376
4007.35787,0.04424
4009.28634,0.03865
4011.21481,0.03504
4013.14328,0.03489
4015.07175,0.03312
4017.00022,0.03057
4018.92869,0.03133
4020.85715,0.03488
4022.78562,0.03906
4024.71409,0.04279
4026.64256,0.04346
4028.57103,0.04167
4030.49950,0.03955
4032.42797,0.03404
4034.35644,0.02797
4036.28490,0.03097
4038.21337,0.03974
4040.14184,0.04170
4042.07031,0.03391
4043.99878,0.02544
4045.92725,0.02390
4047.85572,0.02643
4049.78418,0.03054
4051.71265,0.03523
4053.64112,0.03899
4055.56959,0.04289
4057.49806,0.04373
4059.42653,0.03991
4061.35500,0.03509
4063.28346,0.03238
4065.21193,0.03372
4067.14040,0.03788
4069.06887,0.04256
4070.99734,0.04609
4072.92581,0.04680
4074.85428,0.04570
4076.78275,0.04759
4078.71121,0.05053
4080.63968,0.04510
4082.56815,0.03631
4084.49662,0.03486
4086.42509,0.03590
4088.35356,0.03397
4090.28203,0.03124
4092.21049,0.03000
4094.13896,0.02913
4096.06743,0.02539
4097.99590,0.02517
4099.92437,0.03213
4101.85284,0.03770
4103.78131,0.03972
4105.70978,0.03817
4107.63824,0.03251
4109.56671,0.02830
4111.49518,0.02699
4113.42365,0.02606
4115.35212,0.02636
4117.28059,0.03021
4119.20906,0.03407
4121.13752,0.03382
4123.06599,0.03437
4124.99446,0.03851
4126.92293,0.04095
4128.85140,0.03939
4130.77987,0.03831
4132.70834,0.03866
4134.63681,0.03592
4136.56527,0.03199
4138.49374,0.03205
4140.42221,0.03467
4142.35068,0.03463
4144.27915,0.03048
4146.20762,0.02662
4148.13609,0.02740
4150.06455,0.03369
4151.99302,0.03924
4153.92149,0.03726
4155.84996,0.03037
4157.77843,0.02419
4159.70690,0.02292
4161.63537,0.02698
4163.56384,0.03474
4165.49230,0.04263
4167.42077,0.04484
4169.34924,0.04161
4171.27771,0.03627
4173.20618,0.02897
4175.13465,0.02387
4177.06312,0.02919
4178.99158,0.03974
4180.92005,0.04119
4182.84852,0.03270
4184.77699,0.02404
4186.70546,0.02099
4188.63393,0.02383
4190.56240,0.03075
4192.49087,0.03472
4194.41933,0.03008
4196.34780,0.02235
4198.27627,0.01885
4200.20474,0.01797
4202.13321,0.01795
4204.06168,0.02343
4205.99015,0.03076
4207.91861,0.03203
4209.84708,0.03013
4211.77555,0.02891
4213.70402,0.02812
4215.63249,0.02831
4217.56096,0.02807
4219.48943,0.02696
4221.41789,0.02759
4223.34636,0.02867
4225.27483,0.02624
4227.20330,0.02228
4229.13177,0.02316
4231.06024,0.02814
4232.98871,0.02942
4234.91718,0.02568
4236.84564,0.02142
4238.77411,0.01846
4240.70258,0.01842
4242.63105,0.02402
4244.55952,0.03028
4246.48799,0.02839
4248.41646,0.02365
4250.34492,0.02571
4252.27339,0.02979
4254.20186,0.02666
4256.13033,0.01865
4258.05880,0.01798
4259.98727,0.02534
4261.91574,0.02877
4263.84421,0.02352
4265.77267,0.01512
4267.70114,0.01202
4269.62961,0.01575
4271.55808,0.02299
4273.48655,0.02990
4275.41502,0.03129
4277.34349,0.02965
4279.27195,0.02785
4281.20042,0.02315
4283.12889,0.02012
4285.05736,0.02388
4286.98583,0.02651
4288.91430,0.02215
4290.84277,0.01798
4292.77124,0.01581
4294.69970,0.01316
4296.62817,0.01340
4298.55664,0.01455
4300.48511,0.01336
4302.41358,0.01264
4304.34205,0.01642
4306.27052,0.02185
4308.19898,0.01722
4310.12745,0.00749
4312.05592,0.01064
4313.98439,0.02080
4315.91286,0.02514
4317.84133,0.02643
4319.76980,0.02282
4321.69827,0.01473
4323.62673,0.01314
4325.55520,0.01606
4327.48367,0.01720
4329.41214,0.02171
4331.34061,0.02837
4333.26908,0.02851
4335.19755,0.02457
4337.12601,0.02150
4339.05448,0.01785
4340.98295,0.01745
4342.91142,0.02168
4344.83989,0.02241
4346.76836,0.01859
4348.69683,0.01830
4350.62530,0.02489
4352.55376,0.03226
4354.48223,0.03289
4356.41070,0.02878
4358.33917,0.02244
4360.26764,0.01395
4362.19611,0.01410
4364.12458,0.02348
4366.05304,0.02743
4367.98151,0.02461
4369.90998,0.01993
4371.83845,0.01316
4373.76692,0.00774
4375.69539,0.01007
4377.62386,0.01637
4379.55232,0.01776
4381.48079,0.01735
4383.40926,0.01889
4385.33773,0.02091
4387.26620,0.02465
4389.19467,0.02910
4391.12314,0.03074
4393.05161,0.02571
4394.98007,0.01812
4396.90854,0.01891
4398.83701,0.02318
4400.76548,0.01973
4402.69395,0.01310
4404.62242,0.01282
4406.55089,0.01521
4408.47935,0.01234
4410.40782,0.00999
4412.33629,0.01266
4414.26476,0.01258
4416.19323,0.00896
4418.12170,0.00843
4420.05017,0.00810
4421.97864,0.00529
4423.90710,0.00715
4425.83557,0.01085
4427.76404,0.01048
4429.69251,0.01395
4431.62098,0.01784
4433.54945,0.01207
4435.47792,0.00611
4437.40638,0.00734
4439.33485,0.01176
4441.26332,0.01500
4443.19179,0.01219
4445.12026,0.00658
4447.04873,0.00461
4448.97720,0.00519
4450.90567,0.00531
4452.83413,0.00556
4454.76260,0.00763
4456.69107,0.01025
4458.61954,0.01236
4460.54801,0.01285
4462.47648,0.00863
4464.40495,0.00017
4466.33341,-0.00501
4468.26188,0.00028
4470.19035,0.01111
4472.11882,0.01593
4474.04729,0.01263
4475.97576,0.00695
4477.90423,0.00240
4479.83270,-0.00172
4481.76116,-0.00730
4483.68963,-0.01286
4485.61810,-0.01211
4487.54657,-0.00179
4489.47504,0.00833
4491.40351,0.00814
4493.33198,0.00615
4495.26044,0.00975
4497.18891,0.01186
4499.11738,0.01302
4501.04585,0.01834
4502.97432,0.02285
4504.90279,0.02130
4506.83126,0.01386
4508.75973,0.00447
4510.68819,-0.00092
4512.61666,0.00149
4514.54513,0.01041
4516.47360,0.01864
4518.40207,0.02045
4520.33054,0.01644
4522.25901,0.00934
4524.18747,0.00168
4526.11594,-0.00152
4528.04441,0.00151
4529.97288,0.00568
4531.90135,0.00829
4533.82982,0.01086
4535.75829,0.01420
4537.68676,0.01470
4539.61522,0.01110
4541.54369,0.00990
4543.47216,0.01215
4545.40063,0.01375
4547.32910,0.01279
4549.25757,0.00860
4551.18604,0.00572
4553.11450,0.00979
4555.04297,0.01518
4556.97144,0.01477
4558.89991,0.01431
4560.82838,0.01785
4562.75685,0.01942
4564.68532,0.01536
4566.61378,0.00909
4568.54225,0.00423
4570.47072,0.00064
4572.39919,-0.00059
4574.32766,0.00259
4576.25613,0.00682
4578.18460,0.00710
4580.11307,0.00699
4582.04153,0.01115
4583.97000,0.01288
4585.89847,0.01172
4587.82694,0.01339
4589.75541,0.01151
4591.68388,0.00681
4593.61235,0.00675
4595.54081,0.00598
4597.46928,0.00407
4599.39775,0.00352
4601.32622,-0.00092
4603.25469,-0.00476
4605.18316,-0.00368
4607.11163,-0.00381
4609.04010,-0.00228
4610.96856,0.00824
4612.89703,0.01818
4614.82550,0.01845
4616.75397,0.01724
4618.68244,0.01718
4620.61091,0.00999
4622.53938,0.00249
4624.46784,0.00476
4626.39631,0.00709
4628.32478,0.00318
4630.25325,0.00060
4632.18172,0.00135
4634.11019,-0.00094
4636.03866,-0.00585
4637.96713,-0.00492
4639.89559,-0.00007
4641.82406,0.00023
4643.75253,-0.00426
4645.68100,-0.00559
4647.60947,-0.00195
4649.53794,-0.00403
4651.46641,-0.01149
4653.39487,-0.01484
4655.32334,-0.01210
4657.25181,-0.00387
4659.18028,0.00176
4661.10875,-0.00314
4663.03722,-0.00404
4664.96569,0.00627
4666.89416,0.01284
4668.82262,0.01299
4670.75109,0.01150
4672.67956,0.00856
4674.60803,0.00796
4676.53650,0.00584
4678.46497,0.00251
4680.39344,0.00623
4682.32190,0.01417
4684.25037,0.01696
4686.17884,0.00599
4688.10731,-0.00968
4690.03578,-0.01238
4691.96425,-0.00419
4693.89272,0.00820
4695.82119,0.01638
4697.74965,0.00984
4699.67812,-0.00537
4701.60659,-0.00969
4703.53506,-0.00118
4705.46353,0.00364
4707.39200,-0.00061
4709.32047,-0.00069
4711.24893,0.00897
4713.17740,0.01913
4715.10587,0.02472
4717.03434,0.02214
4718.96281,0.01018
4720.89128,0.00383
4722.81975,0.00951
4724.74821,0.01338
4726.67668,0.01353
4728.60515,0.01330
4730.53362,0.00893
4732.46209,0.00255
4734.39056,0.00190
4736.31903,0.01050
4738.24750,0.01618
4740.17596,0.01199
4742.10443,0.00634
4744.03290,0.00129
4745.96137,0.00099
4747.88984,0.00495
4749.81831,0.00225
4751.74678,0.00092
4753.67524,0.01268
4755.60371,0.02505
4757.53218,0.02574
4759.46065,0.02132
4761.38912,0.01645
4763.31759,0.00996
4765.24606,0.00669
4767.17453,0.00594
4769.10299,0.00126
4771.03146,-0.00370
4772.95993,0.00000
4774.88840,0.01214
4776.81687,0.02101
4778.74534,0.01625
4780.67381,0.00166
4782.60227,-0.00448
4784.53074,0.00536
4786.45921,0.01351
4788.38768,0.01443
4790.31615,0.01674
4792.24462,0.01860
4794.17309,0.02134
4796.10156,0.02253
4798.03002,0.01205
4799.95849,-0.00691
4801.88696,-0.02116
4803.81543,-0.01608
4805.74390,0.00563
4807.67237,0.02219
4809.60084,0.03087
4811.52930,0.03590
4813.45777,0.02924
4815.38624,0.02046
4817.31471,0.02304
4819.24318,0.02836
4821.17165,0.02678
4823.10012,0.02206
4825.02859,0.01814
4826.95705,0.01705
4828.88552,0.01967
4830.81399,0.01863
4832.74246,0.00601
4834.67093,-0.01091
4836.59940,-0.01320
4838.52787,-0.00031
4840.45633,0.00766
4842.38480,0.00628
4844.31327,0.00584
4846.24174,0.00774
4848.17021,0.00877
4850.09868,0.00661
4852.02715,0.00313
4853.95562,0.00474
4855.88408,0.01047
4857.81255,0.01001
4859.74102,0.00351
4861.66949,0.00434
4863.59796,0.00950
4865.52643,0.00892
4867.45490,0.00594
4869.38336,0.00031
4871.31183,-0.00888
4873.24030,-0.01081
4875.16877,-0.00219
4877.09724,0.00777
4879.02571,0.01260
4880.95418,0.01102
4882.88265,0.01180
4884.81111,0.01504
4886.73958,0.01219
4888.66805,0.00910
4890.59652,0.00572
4892.52499,-0.00851
4894.45346,-0.02315
4896.38193,-0.01583
4898.31039,0.00520
4900.23886,0.01962
4902.16733,0.02916
4904.09580,0.02587
4906.02427,0.00985
4907.95274,0.00562
4909.88121,0.01305
4911.80967,0.01782
4913.73814,0.01040
4915.66661,-0.00726
4917.59508,-0.01570
4919.52355,-0.00939
4921.45202,-0.00156
4923.38049,-0.00041
4925.30896,-0.00217
4927.23742,0.00269
4929.16589,0.01224
4931.09436,0.02070
4933.02283,0.02763
4934.95130,0.02456
4936.87977,0.01122
4938.80824,0.00737
4940.73670,0.01354
4942.66517,0.00974
4944.59364,-0.00513
4946.52211,-0.01756
4948.45058,-0.02286
4950.37905,-0.01874
4952.30752,-0.00626
4954.23599,0.00842
4956.16445,0.01926
4958.09292,0.01939
4960.02139,0.00374
4961.94986,-0.02087
4963.87833,-0.03384
4965.80680,-0.02490
4967.73527,-0.00112
4969.66373,0.02654
4971.59220,0.03907
4973.52067,0.02450
4975.44914,0.00087
4977.37761,-0.00952
4979.30608,-0.00951
4981.23455,-0.00595
4983.16302,0.00610
4985.09148,0.02323
4987.01995,0.03384
4988.94842,0.04046
4990.87689,0.04692
4992.80536,0.03564
4994.73383,0.00956
4996.66230,-0.00125
4998.59076,-0.00017
5000.51923,0.00150
5002.44770,0.00654
5004.37617,0.01304
5006.30464,0.01395
5008.23311,0.00127
5010.16158,-0.01734
5012.09005,-0.01653
5014.01851,0.00839
5015.94698,0.03223
5017.87545,0.03577
5019.80392,0.02169
5021.73239,0.00093
5023.66086,-0.01334
5025.58933,-0.01781
5027.51779,-0.02216
5029.44626,-0.02648
5031.37473,-0.01153
5033.30320,0.01619
5035.23167,0.01720
5037.16014,0.00170
5039.08861,0.00691
5041.01708,0.02511
5042.94554,0.03465
5044.87401,0.02918
5046.80248,0.01082
5048.73095,0.00085
5050.65942,0.00989
5052.58789,0.01572
5054.51636,0.01082
5056.44482,0.00972
5058.37329,0.01610
5060.30176,0.02429
5062.23023,0.02582
5064.15870,0.02014
5066.08717,0.01845
5068.01564,0.01541
5069.94410,-0.00195
5071.87257,-0.01783
5073.80104,-0.01785
5075.72951,-0.01483
5077.65798,-0.01281
5079.58645,-0.00240
5081.51492,0.00935
5083.44339,0.01246
5085.37185,0.01208
5087.30032,0.01367
5089.22879,0.01998
5091.15726,0.03280
5093.08573,0.04684
5095.01420,0.05167
5096.94267,0.04608
5098.87113,0.03201
5100.79960,0.01236
5102.72807,0.00527
5104.65654,0.01036
5106.58501,0.01177
5108.51348,0.01348
5110.44195,0.02604
5112.37042,0.04178
5114.29888,0.03309
5116.22735,0.00638
5118.15582,0.00149
5120.08429,0.01777
5122.01276,0.02563
5123.94123,0.02243
5125.86970,0.01952
5127.79816,0.01118
5129.72663,-0.00599
5131.65510,-0.01130
5133.58357,0.00248
5135.51204,0.01432
5137.44051,0.01768
5139.36898,0.01768
5141.29745,0.01355
5143.22591,0.00701
5145.15438,0.00400
5147.08285,0.01205
5149.01132,0.02206
5150.93979,0.01483
5152.86826,-0.01104
5154.79673,-0.03773
5156.72519,-0.03868
5158.65366,-0.01213
5160.58213,0.00791
5162.51060,0.00893
5164.43907,0.01191
5166.36754,0.01901
5168.29601,0.01546
5170.22448,-0.00005
5172.15294,-0.01433
5174.08141,-0.01661
5176.00988,-0.01066
5177.93835,-0.00445
5179.86682,0.00288
5181.79529,0.02022
5183.72376,0.03819
5185.65222,0.04385
5187.58069,0.04505
5189.50916,0.04313
5191.43763,0.03218
5193.36610,0.01632
5195.29457,0.00785
5197.22304,0.00507
5199.15151,-0.00812
5201.07997,-0.02136
5203.00844,-0.01107
5204.93691,0.02020
5206.86538,0.04545
5208.79385,0.04379
5210.72232,0.03135
5212.65079,0.02980
5214.57925,0.03219
5216.50772,0.02319
5218.43619,0.01185
5220.36466,0.01268
5222.29313,0.01350
5224.22160,0.00485
5226.15007,0.00339
5228.07854,0.00631
5230.00700,0.00002
5231.93547,-0.00149
5233.86394,0.00691
5235.79241,0.01736
5237.72088,0.03251
5239.64935,0.04589
5241.57782,0.04014
5243.50628,0.02165
5245.43475,0.01266
5247.36322,0.01300
5249.29169,0.01718
5251.22016,0.02992
5253.14863,0.03891
5255.07710,0.02770
5257.00556,0.01463
5258.93403,0.02199
5260.86250,0.03785
5262.79097,0.03794
5264.71944,0.01346
5266.64791,-0.01503
5268.57638,-0.02367
5270.50485,-0.00706
5272.43331,0.02242
5274.36178,0.04916
5276.29025,0.06353
5278.21872,0.05440
5280.14719,0.02746
5282.07566,0.00607
5284.00413,0.00286
5285.93259,0.01863
5287.86106,0.03633
5289.78953,0.03976
5291.71800,0.03244
5293.64647,0.02067
5295.57494,0.01446
5297.50341,0.01572
5299.43188,0.01739
5301.36034,0.02333
5303.28881,0.02433
5305.21728,0.01592
5307.14575,0.01263
5309.07422,0.00774
5311.00269,0.00057
5312.93116,0.00812
5314.85962,0.02590
5316.78809,0.03261
5318.71656,0.02194
5320.64503,0.01240
5322.57350,0.01454
5324.50197,0.02049
5326.43044,0.02414
5328.35891,0.02376
5330.28737,0.02066
5332.21584,0.01404
5334.14431,-0.00140
5336.07278,-0.01865
5338.00125,-0.02010
5339.92972,-0.00834
5341.85819,-0.00248
5343.78665,0.00631
5345.71512,0.03415
5347.64359,0.05809
5349.57206,0.05967
5351.50053,0.05259
5353.42900,0.04765
5355.35747,0.04127
5357.28594,0.04160
5359.21440,0.05142
5361.14287,0.06149
5363.07134,0.06870
5364.99981,0.06830
5366.92828,0.05855
5368.85675,0.04987
5370.78522,0.04561
5372.71368,0.03889
5374.64215,0.03386
5376.57062,0.04109
5378.49909,0.04626
5380.42756,0.03878
5382.35603,0.03147
5384.28450,0.03814
5386.21297,0.05427
5388.14143,0.04910
5390.06990,0.02430
5391.99837,0.01841
5393.92684,0.03805
5395.85531,0.05251
5397.78378,0.05422
5399.71225,0.04600
5401.64071,0.03093
5403.56918,0.02055
5405.49765,0.02030
5407.42612,0.02544
5409.35459,0.02648
5411.28306,0.02454
5413.21153,0.02889
5415.13999,0.02537
5417.06846,0.00343
5418.99693,-0.01429
5420.92540,-0.01563
5422.85387,-0.01327
5424.78234,-0.01404
5426.71081,-0.00569
5428.63928,0.02065
5430.56774,0.03897
5432.49621,0.04077
5434.42468,0.04417
5436.35315,0.04623
5438.28162,0.04159
5440.21009,0.03341
5442.13856,0.02856
5444.06702,0.03164
5445.99549,0.03392
5447.92396,0.02641
5449.85243,0.02242
5451.78090,0.03182
5453.70937,0.03675
5455.63784,0.02875
5457.56631,0.01084
5459.49477,-0.02041
5461.42324,-0.03904
5463.35171,-0.01623
5465.28018,0.01223
5467.20865,0.01535
5469.13712,0.00503
5471.06559,-0.01379
5472.99405,-0.02423
5474.92252,-0.00379
5476.85099,0.03318
5478.77946,0.05329
5480.70793,0.03861
5482.63640,0.00504
5484.56487,-0.00211
5486.49334,0.02632
5488.42180,0.05624
5490.35027,0.06425
5492.27874,0.04941
5494.20721,0.02875
5496.13568,0.01703
5498.06415,0.00515
5499.99262,0.00211
5501.92108,0.01708
5503.84955,0.02127
5505.77802,0.00601
5507.70649,0.00336
5509.63496,0.01459
5511.56343,0.01228
5513.49190,0.00442
5515.42037,0.00985
5517.34883,0.02054
5519.27730,0.02735
5521.20577,0.03735
5523.13424,0.04911
5525.06271,0.05346
5526.99118,0.05004
5528.91965,0.04289
5530.84811,0.03973
5532.77658,0.03990
5534.70505,0.03399
5536.63352,0.01580
5538.56199,0.00506
5540.49046,0.02125
5542.41893,0.03867
5544.34740,0.03705
5546.27586,0.02237
5548.20433,0.00603
5550.13280,0.00366
5552.06127,0.00895
5553.98974,0.00219
5555.91821,-0.00988
5557.84668,0.00070
5559.77514,0.02392
5561.70361,0.03470
5563.63208,0.03642
5565.56055,0.02732
5567.48902,0.01249
5569.41749,0.00742
5571.34596,0.00056
5573.27443,-0.01627
5575.20289,-0.02596
5577.13136,-0.01640
5579.05983,0.00721
5580.98830,0.02185
5582.91677,0.01388
5584.84524,0.01369
5586.77371,0.03325
5588.70217,0.03798
5590.63064,0.01464
5592.55911,-0.00769
5594.48758,-0.00510
5596.41605,0.02157
5598.34452,0.04934
5600.27299,0.05762
5602.20145,0.05064
5604.12992,0.04525
5606.05839,0.05590
5607.98686,0.07991
5609.91533,0.09437
5611.84380,0.08620
5613.77227,0.05809
5615.70074,0.01991
5617.62920,-0.00962
5619.55767,-0.02186
5621.48614,-0.02001
5623.41461,-0.00882
5625.34308,0.00913
5627.27155,0.02789
5629.20002,0.03552
5631.12848,0.04736
5633.05695,0.06513
5634.98542,0.05554
5636.91389,0.02995
5638.84236,0.02803
5640.77083,0.03787
5642.69930,0.03217
5644.62777,0.01593
5646.55623,-0.00178
5648.48470,-0.01576
5650.41317,-0.01411
5652.34164,-0.00269
5654.27011,0.00954
5656.19858,0.02101
5658.12705,0.02848
5660.05551,0.03552
5661.98398,0.02261
5663.91245,-0.01928
5665.84092,-0.03186
5667.76939,0.00714
5669.69786,0.04055
5671.62633,0.04640
5673.55480,0.05681
5675.48326,0.07607
5677.41173,0.07048
5679.34020,0.03503
5681.26867,0.01586
5683.19714,0.02418
5685.12561,0.03266
5687.05408,0.03724
5688.98254,0.03088
5690.91101,0.00446
5692.83948,-0.02048
5694.76795,-0.01092
5696.69642,0.03026
5698.62489,0.06327
5700.55336,0.05888
5702.48183,0.02534
5704.41029,0.01388
5706.33876,0.03576
5708.26723,0.03843
5710.19570,0.01777
5712.12417,0.00773
5714.05264,0.00990
5715.98111,0.02265
5717.90957,0.03417
5719.83804,0.01508
5721.76651,-0.01169
5723.69498,-0.00479
5725.62345,0.02353
5727.55192,0.03814
5729.48039,0.03320
5731.40886,0.03664
5733.33732,0.05326
5735.26579,0.06348
5737.19426,0.05480
5739.12273,0.02144
5741.05120,-0.00469
5742.97967,0.00933
5744.90814,0.03389
5746.83660,0.04932
5748.76507,0.06819
5750.69354,0.06976
5752.62201,0.04254
5754.55048,0.02903
5756.47895,0.03913
5758.40742,0.05110
5760.33588,0.05709
5762.26435,0.04519
5764.19282,0.01729
5766.12129,-0.01122
5768.04976,-0.03046
5769.97823,-0.02391
5771.90670,0.00593
5773.83517,0.03585
5775.76363,0.05741
5777.69210,0.07121
5779.62057,0.07100
5781.54904,0.04346
5783.47751,0.00671
5785.40598,0.01099
5787.33445,0.05267
5789.26291,0.07260
5791.19138,0.06073
5793.11985,0.05295
5795.04832,0.04619
5796.97679,0.03522
5798.90526,0.04778
5800.83373,0.07117
5802.76220,0.08303
5804.69066,0.07840
5806.61913,0.04641
5808.54760,0.00717
5810.47607,-0.02342
5812.40454,-0.04750
5814.33301,-0.05071
5816.26148,-0.03546
5818.18994,-0.02734
5820.11841,-0.03473
5822.04688,-0.03312
5823.97535,-0.00633
5825.90382,0.02630
5827.83229,0.04332
5829.76076,0.03737
5831.68923,0.04057
5833.61769,0.07148
5835.54616,0.07478
5837.47463,0.05651
5839.40310,0.07350
5841.33157,0.09525
5843.26004,0.08372
5845.18851,0.06868
5847.11697,0.06985
5849.04544,0.05465
5850.97391,0.01602
5852.90238,0.00375
5854.83085,0.01688
5856.75932,0.02066
5858.68779,0.01790
5860.61626,0.01266
5862.54472,0.01128
5864.47319,0.02650
5866.40166,0.04598
5868.33013,0.06216
5870.25860,0.07339
5872.18707,0.09430
5874.11554,0.12482
5876.04400,0.12041
5877.97247,0.10131
5879.90094,0.11545
5881.82941,0.11451
5883.75788,0.07219
5885.68635,0.03693
5887.61482,0.03342
5889.54329,0.04668
5891.47175,0.04837
5893.40022,0.03883
5895.32869,0.04168
5897.25716,0.05940
5899.18563,0.07406
5901.11410,0.05754
5903.04257,0.00975
5904.97103,-0.01430
5906.89950,0.00217
5908.82797,0.01941
5910.75644,0.04101
5912.68491,0.08171
5914.61338,0.10756
5916.54185,0.11028
5918.47032,0.10403
5920.39878,0.08691
5922.32725,0.06263
5924.25572,0.06405
5926.18419,0.09670
5928.11266,0.10524
5930.04113,0.09034
5931.96960,0.09467
5933.89806,0.09073
5935.82653,0.04310
5937.75500,0.01635
5939.68347,0.05161
5941.61194,0.08123
5943.54041,0.05688
5945.46888,0.01880
5947.39734,0.02033
5949.32581,0.04876
5951.25428,0.04254
5953.18275,0.00907
5955.11122,-0.00719
5957.03969,-0.01100
5958.96816,-0.00728
5960.89663,0.00393
5962.82509,0.01173
5964.75356,0.02668
5966.68203,0.06392
5968.61050,0.10094
5970.53897,0.09999
5972.46744,0.08088
5974.39591,0.07349
5976.32437,0.05880
5978.25284,0.02737
5980.18131,0.00833
5982.10978,0.03507
5984.03825,0.08088
5985.96672,0.08048
5987.89519,0.03856
5989.82366,0.01669
5991.75212,0.01811
5993.68059,0.01022
5995.60906,0.00960
5997.53753,0.02073
5999.46600,0.01425
6001.39447,0.00939
6003.32294,0.02515
6005.25140,0.02339
6007.17987,-0.00207
6009.10834,-0.01179
6011.03681,-0.00862
6012.96528,-0.01987
6014.89375,-0.03906
6016.82222,-0.01331
6018.75069,0.07711
6020.67915,0.15707
6022.60762,0.16718
6024.53609,0.12129
6026.46456,0.05678
6028.39303,-0.00089
6030.32150,-0.03502
6032.24997,-0.04498
6034.17843,-0.06051
6036.10690,-0.08247
6038.03537,-0.06484
6039.96384,-0.00560
6041.89231,0.04185
6043.82078,0.05887
6045.74925,0.08331
6047.67772,0.10446
6049.60618,0.08920
6051.53465,0.07929
6053.46312,0.09526
6055.39159,0.08825
6057.32006,0.05230
6059.24853,0.04404
6061.17700,0.07720
6063.10546,0.09861
6065.03393,0.06992
6066.96240,0.03028
6068.89087,0.02518
6070.81934,0.06378
6072.74781,0.10015
6074.67628,0.08267
6076.60475,0.07555
6078.53321,0.11158
6080.46168,0.12404
6082.39015,0.11590
6084.31862,0.10223
6086.24709,0.08374
6088.17556,0.07890
6090.10403,0.05243
6092.03249,0.00175
6093.96096,-0.00699
6095.88943,0.03217
6097.81790,0.06434
6099.74637,0.05408
6101.67484,0.02012
6103.60331,0.01253
6105.53177,0.02885
6107.46024,0.03318
6109.38871,0.01705
6111.31718,-0.00241
6113.24565,-0.01180
6115.17412,-0.00874
6117.10259,0.00094
6119.03106,0.00206
6120.95952,0.01801
6122.88799,0.05481
6124.81646,0.07471
6126.74493,0.07883
6128.67340,0.07338
6130.60187,0.06480
6132.53034,0.07402
6134.45880,0.07295
6136.38727,0.03329
6138.31574,-0.01314
6140.24421,-0.02539
6142.17268,0.00689
6144.10115,0.06199
6146.02962,0.09514
6147.95809,0.08834
6149.88655,0.06430
6151.81502,0.08598
6153.74349,0.16085
6155.67196,0.18207
6157.60043,0.12057
6159.52890,0.05344
6161.45737,0.03290
6163.38583,0.05073
6165.31430,0.07050
6167.24277,0.06800
6169.17124,0.05350
6171.09971,0.05306
6173.02818,0.08670
6174.95665,0.11675
6176.88512,0.09274
6178.81358,0.06276
6180.74205,0.05096
6182.67052,0.00804
6184.59899,-0.05077
6186.52746,-0.07930
6188.45593,-0.07264
6190.38440,-0.05549
6192.31286,-0.03247
6194.24133,-0.01050
6196.16980,-0.00795
6198.09827,-0.02843
6200.02674,-0.05251
6201.95521,-0.05871
6203.88368,-0.05940
6205.81215,-0.05418
6207.74061,-0.02521
6209.66908,0.00441
6211.59755,0.01302
6213.52602,0.02761
6215.45449,0.04639
6217.38296,0.04742
6219.31143,0.04631
6221.23989,0.03627
6223.16836,0.01123
6225.09683,0.01196
6227.02530,0.04403
6228.95377,0.06051
6230.88224,0.05052
6232.81071,0.04467
6234.73918,0.04099
6236.66764,0.03418
6238.59611,0.05149
6240.52458,0.08133
6242.45305,0.09194
6244.38152,0.10591
6246.30999,0.14333
6248.23846,0.15012
6250.16692,0.07135
6252.09539,-0.04669
6254.02386,-0.11977
6255.95233,-0.12833
6257.88080,-0.08616
6259.80927,-0.01769
6261.73774,0.03939
6263.66621,0.03565
6265.59467,0.00959
6267.52314,0.03169
6269.45161,0.03336
6271.38008,0.01096
6273.30855,0.03843
6275.23702,0.07553
6277.16549,0.04052
6279.09395,-0.02675
6281.02242,-0.05207
6282.95089,-0.02916
6284.87936,0.00368
6286.80783,0.02049
6288.73630,0.03030
6290.66477,0.05902
6292.59323,0.08896
6294.52170,0.07082
6296.45017,0.01813
6298.37864,0.00380
6300.30711,0.06258
6302.23558,0.10297
6304.16405,0.05933
6306.09252,0.04506
6308.02098,0.09374
6309.94945,0.11794
6311.87792,0.08924
6313.80639,0.06238
6315.73486,0.07644
6317.66333,0.07515
6319.59180,0.05715
6321.52026,0.08515
6323.44873,0.11588
6325.37720,0.12256
6327.30567,0.12561
6329.23414,0.08710
6331.16261,0.00794
6333.09108,-0.03463
6335.01955,-0.02043
6336.94801,-0.00286
6338.87648,0.01102
6340.80495,0.04339
6342.73342,0.08746
6344.66189,0.11305
6346.59036,0.11425
6348.51883,0.10543
6350.44729,0.03530
6352.37576,-0.03360
6354.30423,-0.01289
6356.23270,-0.01068
6358.16117,-0.04380
6360.08964,-0.01726
6362.01811,0.03235
6363.94658,0.04075
6365.87504,0.05621
6367.80351,0.09665
6369.73198,0.10967
6371.66045,0.08430
6373.58892,0.03302
6375.51739,-0.01565
6377.44586,-0.05189
6379.37432,-0.06858
6381.30279,-0.04926
6383.23126,-0.03682
6385.15973,-0.04940
6387.08820,-0.02447
6389.01667,0.03730
6390.94514,0.10789
6392.87361,0.17114
6394.80207,0.15526
6396.73054,0.06890
6398.65901,0.01482
6400.58748,0.02739
6402.51595,0.07923
6404.44442,0.13820
6406.37289,0.16576
6408.30135,0.13679
6410.22982,0.06585
6412.15829,0.00361
6414.08676,0.03781
6416.01523,0.12601
6417.94370,0.11987
6419.87217,0.07228
6421.80064,0.10378
6423.72910,0.13450
6425.65757,0.11139
6427.58604,0.10525
6429.51451,0.13056
6431.44298,0.09272
6433.37145,-0.00461
6435.29992,-0.04921
6437.22838,-0.01928
6439.15685,0.03230
6441.08532,0.07516
6443.01379,0.10374
6444.94226,0.12284
6446.87073,0.14013
6448.79920,0.13960
6450.72766,0.11572
6452.65613,0.07578
6454.58460,0.04702
6456.51307,0.05476
6458.44154,0.09475
6460.37001,0.13750
6462.29848,0.12388
6464.22695,0.05386
6466.15541,0.00241
6468.08388,0.00323
6470.01235,0.01687
6471.94082,0.02569
6473.86929,0.04083
6475.79776,0.00906
6477.72623,-0.01518
6479.65469,0.05433
6481.58316,0.10265
6483.51163,0.07858
6485.44010,0.05454
6487.36857,0.03641
6489.29704,0.01177
6491.22551,0.00641
6493.15398,0.03219
6495.08244,0.06382
6497.01091,0.10373
6498.93938,0.15146
6500.86785,0.16791
6502.79632,0.14608
6504.72479,0.12481
6506.65326,0.09123
6508.58172,0.02681
6510.51019,-0.03006
6512.43866,-0.06336
6514.36713,-0.04892
6516.29560,0.01799
6518.22407,0.05827
6520.15254,0.04639
6522.08101,0.00698
6524.00947,-0.04942
6525.93794,-0.08148
6527.86641,-0.05941
6529.79488,-0.00047
6531.72335,0.07718
6533.65182,0.14107
6535.58029,0.11364
6537.50875,0.00791
6539.43722,-0.05340
6541.36569,-0.01888
6543.29416,0.04842
6545.22263,0.04585
6547.15110,-0.00156
6549.07957,-0.00203
6551.00804,0.03211
6552.93650,0.06334
6554.86497,0.09775
6556.79344,0.12077
6558.72191,0.11909
6560.65038,0.08319
6562.57885,0.02036
6564.50732,-0.02243
6566.43578,-0.02487
6568.36425,-0.02284
6570.29272,-0.02825
6572.22119,-0.02110
6574.14966,0.01789
6576.07813,0.05460
6578.00660,0.03479
6579.93507,0.01239
6581.86353,0.05560
6583.79200,0.11544
6585.72047,0.10841
6587.64894,0.03236
6589.57741,-0.01922
6591.50588,-0.01824
6593.43435,-0.00869
6595.36281,0.03219
6597.29128,0.07176
6599.21975,0.03160
6601.14822,-0.05592
6603.07669,-0.05433
6605.00516,0.03813
6606.93363,0.11096
6608.86210,0.16175
6610.79056,0.20730
6612.71903,0.18154
6614.64750,0.12062
6616.57597,0.09978
6618.50444,0.08948
6620.43291,0.08993
6622.36138,0.12112
6624.28984,0.12477
6626.21831,0.08702
6628.14678,0.07463
6630.07525,0.10920
6632.00372,0.15436
6633.93219,0.20386
6635.86066,0.24984
6637.78912,0.24421
6639.71759,0.16588
6641.64606,0.07102
6643.57453,0.04670
6645.50300,0.09271
6647.43147,0.10899
6649.35994,0.09024
6651.28841,0.10610
6653.21687,0.11635
6655.14534,0.05375
6657.07381,-0.00422
6659.00228,0.03616
6660.93075,0.09113
6662.85922,0.10609
6664.78769,0.10504
6666.71615,0.06490
6668.64462,-0.00408
6670.57309,-0.04969
6672.50156,-0.06973
6674.43003,-0.05165
6676.35850,0.00474
6678.28697,0.04561
6680.21544,0.05491
6682.14390,0.04555
6684.07237,0.00916
6686.00084,-0.01288
6687.92931,0.04050
6689.85778,0.09893
6691.78625,0.05561
6693.71472,-0.01550
6695.64318,-0.02130
6697.57165,0.02297
6699.50012,0.05117
6701.42859,0.06235
6703.35706,0.06196
6705.28553,0.02781
6707.21400,0.00688
6709.14247,0.01695
6711.07093,0.01007
6712.99940,0.00740
6714.92787,0.04491
6716.85634,0.07454
6718.78481,0.05540
6720.71328,0.03460
6722.64175,0.01142
6724.57021,-0.02209
6726.49868,0.00828
6728.42715,0.11785
6730.35562,0.19301
6732.28409,0.15469
6734.21256,0.07847
6736.14103,0.03572
6738.06950,0.01971
6739.99796,0.03459
6741.92643,0.06644
6743.85490,0.04935
6745.78337,-0.02970
6747.71184,-0.06735
6749.64031,0.00915
6751.56878,0.07956
6753.49724,0.07382
6755.42571,0.03385
6757.35418,-0.00519
6759.28265,0.00521
6761.21112,0.01437
6763.13959,-0.04501
6765.06806,-0.08051
6766.99653,-0.07221
6768.92499,-0.03534
6770.85346,0.06019
6772.78193,0.13030
6774.71040,0.11676
6776.63887,0.06954
6778.56734,0.01710
6780.49581,-0.02293
6782.42427,-0.02420
6784.35274,0.01578
6786.28121,0.05674
6788.20968,0.06641
6790.13815,0.05279
6792.06662,-0.00608
6793.99509,-0.06292
6795.92355,-0.05667
6797.85202,-0.07936
6799.78049,-0.12858
6801.70896,-0.10195
6803.63743,-0.08139
6805.56590,-0.08483
6807.49437,-0.01622
6809.42284,0.02545
6811.35130,-0.00854
6813.27977,0.01794
6815.20824,0.12798
6817.13671,0.18886
6819.06518,0.15248
6820.99365,0.10879
6822.92212,0.10108
6824.85058,0.06638
6826.77905,0.01275
6828.70752,0.01221
6830.63599,0.07470
6832.56446,0.10913
6834.49293,0.04303
6836.42140,-0.02403
6838.34987,0.00854
6840.27833,0.03233
6842.20680,0.01304
6844.13527,0.02337
6846.06374,0.06944
6847.99221,0.07846
6849.92068,0.02303
6851.84915,0.00619
6853.77761,0.02490
6855.70608,0.02049
6857.63455,0.05399
6859.56302,0.12516
6861.49149,0.12266
6863.41996,0.05226
6865.34843,0.02703
6867.27690,0.05809
6869.20536,0.07359
6871.13383,0.02779
6873.06230,-0.02594
6874.99077,-0.02603
6876.91924,-0.03418
6878.84771,-0.05296
6880.77618,-0.04168
6882.70464,-0.03984
6884.63311,-0.09494
6886.56158,-0.14314
6888.49005,-0.13892
6890.41852,-0.09694
6892.34699,-0.01709
6894.27546,0.05216
6896.20393,0.07407
6898.13239,0.09137
6900.06086,0.08515
6901.98933,0.02053
6903.91780,-0.05266
6905.84627,-0.02387
6907.77474,0.11021
6909.70321,0.17526
6911.63167,0.05491
6913.56014,-0.10837
6915.48861,-0.13660
6917.41708,-0.06519
6919.34555,-0.01380
6921.27402,0.01984
6923.20249,0.05170
6925.13096,0.04416
6927.05942,-0.00870
6928.98789,-0.04888
6930.91636,0.03445
6932.84483,0.17779
6934.77330,0.20315
6936.70177,0.16175
6938.63024,0.13064
6940.55870,0.09594
6942.48717,0.04998
6944.41564,0.01243
6946.34411,-0.02627
6948.27258,-0.04714
6950.20105,-0.00763
6952.12952,0.03682
6954.05799,0.05395
6955.98645,0.09267
6957.91492,0.10656
6959.84339,0.03103
6961.77186,-0.06560
6963.70033,-0.07658
6965.62880,0.00591
6967.55727,0.09500
6969.48573,0.11783
6971.41420,0.14475
6973.34267,0.14068
6975.27114,0.03888
6977.19961,-0.00411
6979.12808,-0.00858
6981.05655,-0.03583
6982.98501,-0.01974
6984.91348,0.01687
6986.84195,0.01646
6988.77042,-0.00243
6990.69889,-0.00047
6992.62736,0.04215
6994.55583,0.09949
6996.48430,0.13153
6998.41276,0.12252
7000.34123,0.11477
7002.26970,0.10909
7004.19817,0.04036
7006.12664,-0.04278
7008.05511,-0.05037
7009.98358,-0.02971
7011.91204,0.00436
7013.84051,0.02648
7015.76898,-0.07863
7017.69745,-0.20675
7019.62592,-0.15124
7021.55439,-0.00778
7023.48286,0.04833
7025.41133,0.05970
7027.33979,0.10320
7029.26826,0.22230
7031.19673,0.36339
7033.12520,0.35099
7035.05367,0.19044
7036.98214,0.06350
7038.91061,-0.06016
7040.83907,-0.15929
7042.76754,-0.05448
7044.69601,0.14185
7046.62448,0.13859
7048.55295,-0.00207
7050.48142,-0.05904
7052.40989,0.02336
7054.33836,0.16851
7056.26682,0.26260
7058.19529,0.27978
7060.12376,0.20207
7062.05223,0.03777
7063.98070,-0.04341
7065.90917,0.00909
7067.83764,0.02913
7069.76610,0.02882
7071.69457,0.08637
7073.62304,0.09658
7075.55151,0.06847
7077.47998,0.03921
7079.40845,-0.03227
7081.33692,-0.06489
7083.26539,-0.02540
7085.19385,-0.04167
7087.12232,-0.04486
7089.05079,0.06158
7090.97926,0.10979
7092.90773,0.02884
7094.83620,-0.00807
7096.76467,0.05614
7098.69313,0.12894
7100.62160,0.14080
7102.55007,0.09245
7104.47854,0.09519
7106.40701,0.21841
7108.33548,0.28053
7110.26395,0.19380
7112.19242,0.11498
7114.12088,0.15119
7116.04935,0.19763
7117.97782,0.12932
7119.90629,0.02442
7121.83476,0.02674
7123.76323,0.07018
7125.69170,0.01754
7127.62016,-0.11069
7129.54863,-0.15463
7131.47710,-0.06387
7133.40557,-0.01854
7135.33404,-0.08750
7137.26251,-0.12364
7139.19098,-0.09498
7141.11944,-0.06834
7143.04791,-0.05729
7144.97638,-0.04659
7146.90485,-0.04050
7148.83332,-0.01940
7150.76179,0.02341
7152.69026,0.00394
7154.61873,-0.08973
7156.54719,-0.08302
7158.47566,0.00088
7160.40413,0.03039
7162.33260,0.02005
7164.26107,-0.01067
7166.18954,-0.04870
7168.11801,-0.03740
7170.04647,0.00637
7171.97494,0.02738
7173.90341,0.10062
7175.83188,0.31315
7177.76035,0.48315
7179.68882,0.42749
7181.61729,0.26527
7183.54576,0.18611
7185.47422,0.14371
7187.40269,0.04792
7189.33116,-0.01752
7191.25963,-0.00478
7193.18810,0.03135
7195.11657,0.03947
7197.04504,0.05658
7198.97350,0.08752
7200.90197,0.05654
7202.83044,0.01874
7204.75891,0.06635
7206.68738,0.05091
7208.61585,-0.02930
7210.54432,-0.08733
7212.47279,-0.16333
7214.40125,-0.19508
7216.32972,-0.11047
7218.25819,-0.03028
7220.18666,-0.08452
7222.11513,-0.18945
7224.04360,-0.22960
7225.97207,-0.10479
7227.90053,0.10718
7229.82900,0.21914
7231.75747,0.21120
7233.68594,0.19549
7235.61441,0.21691
7237.54288,0.28047
7239.47135,0.30593
7241.39982,0.20195
7243.32828,0.11823
7245.25675,0.18052
7247.18522,0.14104
7249.11369,-0.02283
7251.04216,-0.03219
7252.97063,0.16884
7254.89910,0.22749
7256.82756,0.23546
7258.75603,0.36340
7260.68450,0.45115
7262.61297,0.36887
7264.54144,0.28590
7266.46991,0.26331
7268.39838,0.13952
7270.32685,-0.05801
7272.25531,-0.03960
7274.18378,0.13935
7276.11225,0.21072
7278.04072,0.21830
7279.96919,0.19892
7281.89766,0.03889
7283.82613,-0.22521
7285.75459,-0.33990
7287.68306,-0.23462
7289.61153,-0.08096
7291.54000,0.02591
7293.46847,0.07929
7295.39694,0.05659
7297.32541,0.06108
7299.25387,0.09696
7301.18234,0.05121
7303.11081,-0.01890
7305.03928,-0.03088
7306.96775,-0.03665
7308.89622,-0.03542
7310.82469,0.03889
7312.75316,0.12071
7314.68162,0.14942
7316.61009,0.13187
7318.53856,0.07974
7320.46703,0.03011
7322.39550,0.09139
7324.32397,0.18438
7326.25244,0.11515
7328.18090,-0.00507
7330.10937,0.03587
7332.03784,0.10396
7333.96631,0.07476
7335.89478,0.04835
7337.82325,0.02259
7339.75172,-0.02894
7341.68019,0.03365
7343.60865,0.15503
7345.53712,0.24736
7347.46559,0.29022
7349.39406,0.25940
7351.32253,0.20444
7353.25100,0.17107
7355.17947,0.19614
7357.10793,0.18510
7359.03640,0.02067
7360.96487,-0.02186
7362.89334,0.09142
7364.82181,0.12566
7366.75028,0.13645
7368.67875,0.13758
7370.60722,0.11790
7372.53568,0.22232
7374.46415,0.45509
7376.39262,0.50227
7378.32109,0.36266
7380.24956,0.28628
7382.17803,0.18587
7384.10650,-0.02093
7386.03496,-0.19726
7387.96343,-0.26119
7389.89190,-0.16532
7391.82037,-0.00891
7393.74884,0.04758
7395.67731,0.09099
7397.60578,0.10894
7399.53425,-0.02754
7401.46271,-0.20506
7403.39118,-0.22416
7405.31965,-0.05528
7407.24812,0.06003
7409.17659,0.01559
7411.10506,-0.10751
7413.03353,-0.14997
7414.96199,-0.06900
7416.89046,0.01496
7418.81893,0.04966
7420.74740,0.23422
7422.67587,0.44858
7424.60434,0.38749
7426.53281,0.15854
7428.46128,0.06574
7430.38974,0.14484
7432.31821,0.20526
7434.24668,0.25023
7436.17515,0.18456
7438.10362,-0.04655
7440.03209,-0.17332
7441.96056,-0.08492
7443.88902,0.00012
7445.81749,0.09462
7447.74596,0.33367
7449.67443,0.52884
7451.60290,0.42880
7453.53137,0.18724
7455.45984,0.08610
7457.38831,0.11456
7459.31677,0.14976
7461.24524,0.11357
7463.17371,-0.00632
7465.10218,-0.13742
7467.03065,-0.14719
7468.95912,-0.06548
7470.88759,0.03973
7472.81605,0.17358
7474.74452,0.21847
7476.67299,0.13847
7478.60146,0.13300
7480.52993,0.19807
7482.45840,0.08874
7484.38687,-0.12565
7486.31533,-0.17842
7488.24380,0.02348
7490.17227,0.20204
7492.10074,0.18227
7494.02921,0.14402
7495.95768,0.16017
7497.88615,0.17270
