399.19301,0.91748
401.12148,0.59443
403.04995,0.21597
404.97842,-0.08870
406.90689,-0.13939
408.83536,-0.08307
410.76382,-0.03862
412.69229,-0.05130
414.62076,-0.11509
416.54923,-0.13014
418.47770,-0.01109
420.40617,0.03495
422.33464,-0.01890
424.26311,0.02223
426.19157,0.14441
428.12004,0.24969
430.04851,0.30092
431.97698,0.23794
433.90545,0.09751
435.83392,0.00265
437.76239,-0.04208
439.69085,-0.05086
441.61932,-0.02178
443.54779,0.00836
445.47626,0.04786
447.40473,0.07556
449.33320,0.01857
451.26167,-0.06526
453.19013,-0.07735
455.11860,-0.02607
457.04707,0.01497
458.97554,-0.01732
460.90401,-0.05577
462.83248,-0.04900
464.76095,-0.06285
466.68942,-0.07736
468.61788,-0.01031
470.54635,0.13624
472.47482,0.31170
474.40329,0.30430
476.33176,0.14479
478.26023,0.07195
480.18870,-0.00222
482.11716,-0.08189
484.04563,-0.03160
485.97410,0.09559
487.90257,0.13957
489.83104,0.12016
491.75951,0.11861
493.68798,0.10759
495.61645,0.07535
497.54491,0.05337
499.47338,0.03208
501.40185,0.01227
503.33032,-0.01647
505.25879,-0.04972
507.18726,-0.03019
509.11573,0.02866
511.04419,0.04192
512.97266,0.00676
514.90113,-0.02030
516.82960,-0.01139
518.75807,0.02933
520.68654,0.07797
522.61501,0.08830
524.54348,0.04275
526.47194,0.00601
528.40041,0.01119
530.32888,0.03084
532.25735,0.05204
534.18582,0.05621
536.11429,0.04019
538.04276,0.03361
539.97122,0.02560
541.89969,-0.00784
543.82816,-0.01620
545.75663,0.03080
547.68510,0.08076
549.61357,0.15173
551.54204,0.39345
553.47051,0.63431
555.39897,0.49555
557.32744,0.17227
559.25591,0.04822
561.18438,0.04819
563.11285,0.04430
565.04132,0.04350
566.96979,0.04204
568.89825,0.02433
570.82672,0.02025
572.75519,0.03145
574.68366,0.03371
576.61213,0.04324
578.54060,0.04389
580.46907,0.01232
582.39754,0.00147
584.32600,0.03468
586.25447,0.03861
588.18294,0.00186
590.11141,-0.01653
592.03988,-0.01457
593.96835,-0.01026
595.89682,0.00494
597.82528,0.01699
599.75375,-0.00164
601.68222,-0.02956
603.61069,-0.01745
605.53916,0.02873
607.46763,0.05664
609.39610,0.05153
611.32456,0.03535
613.25303,0.03386
615.18150,0.04910
617.10997,0.04914
619.03844,0.02909
620.96691,0.01505
622.89538,0.01848
624.82385,0.03316
626.75231,0.04996
628.68078,0.06501
630.60925,0.08048
632.53772,0.08542
634.46619,0.05952
636.39466,0.02988
638.32313,0.03165
640.25159,0.04940
642.18006,0.05372
644.10853,0.04667
646.03700,0.04424
647.96547,0.04897
649.89394,0.05336
651.82241,0.03956
653.75088,0.00569
655.67934,-0.01019
657.60781,0.00412
659.53628,0.02060
661.46475,0.03118
663.39322,0.03955
665.32169,0.04999
667.25016,0.06690
669.17862,0.06448
671.10709,0.04302
673.03556,0.03459
674.96403,0.03725
676.89250,0.04282
678.82097,0.04608
680.74944,0.04396
682.67791,0.04474
684.60637,0.04695
686.53484,0.03720
688.46331,0.02943
690.39178,0.04163
692.32025,0.05362
694.24872,0.04430
696.17719,0.03097
698.10565,0.02864
700.03412,0.02908
701.96259,0.03193
703.89106,0.04060
705.81953,0.05023
707.74800,0.05484
709.67647,0.05393
711.60494,0.05410
713.53340,0.05531
715.46187,0.04682
717.39034,0.03285
719.31881,0.03122
721.24728,0.04636
723.17575,0.06216
725.10422,0.06204
727.03268,0.05106
728.96115,0.04156
730.88962,0.03516
732.81809,0.03108
734.74656,0.03015
736.67503,0.03175
738.60350,0.03665
740.53197,0.04304
742.46043,0.04301
744.38890,0.03482
746.31737,0.02573
748.24584,0.02700
750.17431,0.04148
752.10278,0.05389
754.03125,0.05296
755.95971,0.04793
757.88818,0.04726
759.81665,0.04441
761.74512,0.04135
763.67359,0.04339
765.60206,0.04161
767.53053,0.03769
769.45900,0.03884
771.38746,0.04200
773.31593,0.05001
775.24440,0.06326
777.17287,0.06924
779.10134,0.06382
781.02981,0.05500
782.95828,0.04560
784.88674,0.03433
786.81521,0.02509
788.74368,0.02664
790.67215,0.03920
792.60062,0.04289
794.52909,0.02941
796.45756,0.02541
798.38602,0.03684
800.31449,0.04586
802.24296,0.04985
804.17143,0.04541
806.09990,0.03540
808.02837,0.03076
809.95684,0.03044
811.88531,0.03220
813.81377,0.03441
815.74224,0.03133
817.67071,0.02736
819.59918,0.03126
821.52765,0.03522
823.45612,0.02824
825.38459,0.01888
827.31305,0.01985
829.24152,0.02485
831.16999,0.03003
833.09846,0.04025
835.02693,0.04727
836.95540,0.04774
838.88387,0.04610
840.81234,0.04032
842.74080,0.03863
844.66927,0.04623
846.59774,0.04854
848.52621,0.04158
850.45468,0.03497
852.38315,0.03385
854.31162,0.03887
856.24008,0.04333
858.16855,0.04458
860.09702,0.04266
862.02549,0.03672
863.95396,0.04096
865.88243,0.05701
867.81090,0.05866
869.73937,0.04125
871.66783,0.03083
873.59630,0.03404
875.52477,0.03653
877.45324,0.03423
879.38171,0.03041
881.31018,0.02537
883.23865,0.01891
885.16711,0.01823
887.09558,0.02896
889.02405,0.04046
890.95252,0.03992
892.88099,0.03640
894.80946,0.04347
896.73793,0.05077
898.66640,0.05410
900.59486,0.06124
902.52333,0.06208
904.45180,0.05501
906.38027,0.05570
908.30874,0.06209
910.23721,0.05990
912.16568,0.04727
914.09414,0.03612
916.02261,0.03727
917.95108,0.04651
919.87955,0.05117
921.80802,0.04879
923.73649,0.04903
925.66496,0.05504
927.59343,0.05786
929.52189,0.05002
931.45036,0.03890
933.37883,0.03742
935.30730,0.04024
937.23577,0.03992
939.16424,0.04077
941.09271,0.04201
943.02117,0.04192
944.94964,0.04125
946.87811,0.04067
948.80658,0.04188
950.73505,0.04727
952.66352,0.05478
954.59199,0.05431
956.52045,0.04686
958.44892,0.04519
960.37739,0.04928
962.30586,0.05111
964.23433,0.05397
966.16280,0.06051
968.09127,0.06005
970.01974,0.05040
971.94820,0.04632
973.87667,0.05187
975.80514,0.05130
977.73361,0.04564
979.66208,0.05159
981.59055,0.06055
983.51902,0.05856
985.44748,0.05464
987.37595,0.05397
989.30442,0.05075
991.23289,0.04397
993.16136,0.03618
995.08983,0.03393
997.01830,0.04036
998.94677,0.04740
1000.87523,0.04970
1002.80370,0.04860
1004.73217,0.04566
1006.66064,0.04531
1008.58911,0.05135
1010.51758,0.05613
1012.44605,0.05530
1014.37451,0.05802
1016.30298,0.06221
1018.23145,0.06010
1020.15992,0.05978
1022.08839,0.06615
1024.01686,0.06782
1025.94533,0.05988
1027.87380,0.04984
1029.80226,0.04202
1031.73073,0.03810
1033.65920,0.03704
1035.58767,0.03722
1037.51614,0.04338
1039.44461,0.05115
1041.37308,0.05117
1043.30154,0.05117
1045.23001,0.05815
1047.15848,0.06638
1049.08695,0.07480
1051.01542,0.07908
1052.94389,0.07168
1054.87236,0.06113
1056.80083,0.05510
1058.72929,0.05084
1060.65776,0.04869
1062.58623,0.04774
1064.51470,0.04476
1066.44317,0.04259
1068.37164,0.04545
1070.30011,0.04963
1072.22857,0.05172
1074.15704,0.05188
1076.08551,0.04832
1078.01398,0.04694
1079.94245,0.05403
1081.87092,0.06199
1083.79939,0.06247
1085.72786,0.06203
1087.65632,0.07017
1089.58479,0.07544
1091.51326,0.06485
1093.44173,0.04995
1095.37020,0.04373
1097.29867,0.04263
1099.22714,0.04043
1101.15560,0.03924
1103.08407,0.04507
1105.01254,0.05376
1106.94101,0.05508
1108.86948,0.05471
1110.79795,0.06020
1112.72642,0.06303
1114.65489,0.05951
1116.58335,0.05526
1118.51182,0.05575
1120.44029,0.06126
1122.36876,0.06040
1124.29723,0.04725
1126.22570,0.03680
1128.15417,0.04283
1130.08263,0.05485
1132.01110,0.05836
1133.93957,0.05566
1135.86804,0.05267
1137.79651,0.05182
1139.72498,0.05497
1141.65345,0.05750
1143.58191,0.05675
1145.51038,0.05820
1147.43885,0.06025
1149.36732,0.05857
1151.29579,0.05758
1153.22426,0.05986
1155.15273,0.06365
1157.08120,0.06754
1159.00966,0.06702
1160.93813,0.06066
1162.86660,0.05559
1164.79507,0.05399
1166.72354,0.05247
1168.65201,0.05276
1170.58048,0.05598
1172.50894,0.05660
1174.43741,0.05364
1176.36588,0.05316
1178.29435,0.05394
1180.22282,0.05282
1182.15129,0.05348
1184.07976,0.05704
1186.00823,0.05974
1187.93669,0.06050
1189.86516,0.06027
1191.79363,0.05832
1193.72210,0.05713
1195.65057,0.05872
1197.57904,0.06016
1199.50751,0.06011
1201.43597,0.05805
1203.36444,0.05385
1205.29291,0.05188
1207.22138,0.05512
1209.14985,0.05766
1211.07832,0.05551
1213.00679,0.05411
1214.93526,0.05490
1216.86372,0.05524
1218.79219,0.05659
1220.72066,0.05850
1222.64913,0.06042
1224.57760,0.06128
1226.50607,0.05711
1228.43454,0.05128
1230.36300,0.04986
1232.29147,0.05225
1234.21994,0.05416
1236.14841,0.05219
1238.07688,0.04967
1240.00535,0.05136
1241.93382,0.05397
1243.86229,0.05272
1245.79075,0.04979
1247.71922,0.04888
1249.64769,0.05040
1251.57616,0.05299
1253.50463,0.05319
1255.43310,0.04965
1257.36157,0.04639
1259.29003,0.04569
1261.21850,0.04655
1263.14697,0.04853
1265.07544,0.05025
1267.00391,0.04935
1268.93238,0.04630
1270.86085,0.04809
1272.78932,0.05611
1274.71778,0.05936
1276.64625,0.05612
1278.57472,0.05386
1280.50319,0.05178
1282.43166,0.05018
1284.36013,0.05238
1286.28860,0.05329
1288.21706,0.05249
1290.14553,0.05645
1292.07400,0.06030
1294.00247,0.05887
1295.93094,0.05692
1297.85941,0.05647
1299.78788,0.05498
1301.71634,0.04854
1303.64481,0.03877
1305.57328,0.03761
1307.50175,0.04923
1309.43022,0.06052
1311.35869,0.06154
1313.28716,0.05739
1315.21563,0.05566
1317.14409,0.05767
1319.07256,0.06076
1321.00103,0.06209
1322.92950,0.05995
1324.85797,0.05312
1326.78644,0.04765
1328.71491,0.04948
1330.64337,0.05209
1332.57184,0.05212
1334.50031,0.05336
1336.42878,0.05436
1338.35725,0.05224
1340.28572,0.04807
1342.21419,0.04862
1344.14266,0.05585
1346.07112,0.06153
1347.99959,0.06168
1349.92806,0.05930
1351.85653,0.05558
1353.78500,0.05158
1355.71347,0.04922
1357.64194,0.05035
1359.57040,0.05469
1361.49887,0.05799
1363.42734,0.05887
1365.35581,0.06136
1367.28428,0.06450
1369.21275,0.06410
1371.14122,0.06003
1373.06969,0.05631
1374.99815,0.05601
1376.92662,0.05692
1378.85509,0.05752
1380.78356,0.05873
1382.71203,0.05967
1384.64050,0.06096
1386.56897,0.06484
1388.49743,0.06677
1390.42590,0.06448
1392.35437,0.06720
1394.28284,0.07491
1396.21131,0.07581
1398.13978,0.07030
1400.06825,0.06425
1401.99672,0.06022
1403.92518,0.06042
1405.85365,0.06355
1407.78212,0.06531
1409.71059,0.06365
1411.63906,0.06030
1413.56753,0.05966
1415.49600,0.06282
1417.42446,0.06749
1419.35293,0.07090
1421.28140,0.06814
1423.20987,0.06121
1425.13834,0.05712
1427.06681,0.05923
1428.99528,0.06528
1430.92375,0.07118
1432.85221,0.07332
1434.78068,0.07216
1436.70915,0.06803
1438.63762,0.06167
1440.56609,0.05686
1442.49456,0.05761
1444.42303,0.06365
1446.35149,0.06855
1448.27996,0.06723
1450.20843,0.06158
1452.13690,0.05881
1454.06537,0.06305
1455.99384,0.07130
1457.92231,0.07229
1459.85077,0.06922
1461.77924,0.07052
1463.70771,0.07018
1465.63618,0.06462
1467.56465,0.06136
1469.49312,0.06251
1471.42159,0.06464
1473.35006,0.06246
1475.27852,0.05774
1477.20699,0.05815
1479.13546,0.05999
1481.06393,0.05952
1482.99240,0.05949
1484.92087,0.06230
1486.84934,0.06594
1488.77780,0.06618
1490.70627,0.06373
1492.63474,0.06460
1494.56321,0.06730
1496.49168,0.06629
1498.42015,0.05887
1500.34862,0.05180
1502.27709,0.04961
1504.20555,0.04925
1506.13402,0.05066
1508.06249,0.06171
1509.99096,0.06623
1511.91943,0.06490
1513.84790,0.06632
1515.77637,0.07069
1517.70483,0.07472
1519.63330,0.07784
1521.56177,0.07769
1523.49024,0.07153
1525.41871,0.06699
1527.34718,0.06397
1529.27565,0.06059
1531.20412,0.06084
1533.13258,0.06682
1535.06105,0.07136
1536.98952,0.06932
1538.91799,0.06397
1540.84646,0.06404
1542.77493,0.07027
1544.70340,0.06977
1546.63186,0.06619
1548.56033,0.06367
1550.48880,0.06204
1552.41727,0.06236
1554.34574,0.06348
1556.27421,0.06241
1558.20268,0.06038
1560.13115,0.05989
1562.05961,0.06044
1563.98808,0.06355
1565.91655,0.06873
1567.84502,0.07283
1569.77349,0.07412
1571.70196,0.07403
1573.63043,0.07346
1575.55889,0.06852
1577.48736,0.06201
1579.41583,0.06165
1581.34430,0.06230
1583.27277,0.05958
1585.20124,0.05644
1587.12971,0.05913
1589.05818,0.06556
1590.98664,0.06805
1592.91511,0.06617
1594.84358,0.06555
1596.77205,0.06712
1598.70052,0.06848
1600.62899,0.06952
1602.55746,0.06996
1604.48592,0.07030
1606.41439,0.07123
1608.34286,0.07105
1610.27133,0.06880
1612.19980,0.06649
1614.12827,0.06633
1616.05674,0.06855
1617.98521,0.06993
1619.91367,0.06945
1621.84214,0.06846
1623.77061,0.06621
1625.69908,0.06538
1627.62755,0.06670
1629.55602,0.06658
1631.48449,0.06651
1633.41295,0.06998
1635.34142,0.07324
1637.26989,0.06850
1639.19836,0.06434
1641.12683,0.06340
1643.05530,0.06288
1644.98377,0.06229
1646.91223,0.06209
1648.84070,0.06325
1650.76917,0.06562
1652.69764,0.06956
1654.62611,0.07011
1656.55458,0.06801
1658.48305,0.06494
1660.41152,0.05818
1662.33998,0.05577
1664.26845,0.06256
1666.19692,0.06484
1668.12539,0.06546
1670.05386,0.07200
1671.98233,0.07355
1673.91080,0.06863
1675.83926,0.06494
1677.76773,0.06466
1679.69620,0.06495
1681.62467,0.06609
1683.55314,0.06784
1685.48161,0.06732
1687.41008,0.06773
1689.33855,0.06847
1691.26701,0.06706
1693.19548,0.06478
1695.12395,0.06575
1697.05242,0.07107
1698.98089,0.07316
1700.90936,0.06786
1702.83783,0.06194
1704.76629,0.05936
1706.69476,0.05799
1708.62323,0.05768
1710.55170,0.06015
1712.48017,0.06365
1714.40864,0.06630
1716.33711,0.07061
1718.26558,0.07402
1720.19404,0.07225
1722.12251,0.06892
1724.05098,0.06510
1725.97945,0.06293
1727.90792,0.06340
1729.83639,0.06497
1731.76486,0.06740
1733.69332,0.06934
1735.62179,0.06707
1737.55026,0.06507
1739.47873,0.06642
1741.40720,0.06771
1743.33567,0.06643
1745.26414,0.06359
1747.19261,0.05995
1749.12107,0.05816
1751.04954,0.05935
1752.97801,0.06304
1754.90648,0.06817
1756.83495,0.06990
1758.76342,0.06589
1760.69189,0.06075
1762.62035,0.05821
1764.54882,0.05924
1766.47729,0.06234
1768.40576,0.06571
1770.33423,0.06803
1772.26270,0.06851
1774.19117,0.06519
1776.11964,0.06145
1778.04810,0.06135
1779.97657,0.06416
1781.90504,0.06643
1783.83351,0.06626
1785.76198,0.06450
1787.69045,0.06420
1789.61892,0.06708
1791.54738,0.06999
1793.47585,0.06836
1795.40432,0.06472
1797.33279,0.06252
1799.26126,0.06249
1801.18973,0.06383
1803.11820,0.06469
1805.04666,0.06357
1806.97513,0.06033
1808.90360,0.05810
1810.83207,0.05944
1812.76054,0.06197
1814.68901,0.06360
1816.61748,0.06551
1818.54595,0.06772
1820.47441,0.06626
1822.40288,0.06080
1824.33135,0.05848
1826.25982,0.06207
1828.18829,0.06698
1830.11676,0.07150
1832.04523,0.07303
1833.97369,0.07062
1835.90216,0.06734
1837.83063,0.06568
1839.75910,0.06434
1841.68757,0.06328
1843.61604,0.06406
1845.54451,0.06407
1847.47298,0.06253
1849.40144,0.06225
1851.32991,0.06403
1853.25838,0.06523
1855.18685,0.06420
1857.11532,0.06378
1859.04379,0.06518
1860.97226,0.06681
1862.90072,0.06723
1864.82919,0.06609
1866.75766,0.06475
1868.68613,0.06518
1870.61460,0.06640
1872.54307,0.06563
1874.47154,0.06343
1876.40001,0.06124
1878.32847,0.06000
1880.25694,0.05988
1882.18541,0.05972
1884.11388,0.05954
1886.04235,0.06042
1887.97082,0.06224
1889.89929,0.06398
1891.82775,0.06497
1893.75622,0.06525
1895.68469,0.06435
1897.61316,0.06241
1899.54163,0.06182
1901.47010,0.06429
1903.39857,0.06672
1905.32704,0.06554
1907.25550,0.06297
1909.18397,0.06142
1911.11244,0.06050
1913.04091,0.06070
1914.96938,0.06108
1916.89785,0.06051
1918.82632,0.06018
1920.75478,0.06061
1922.68325,0.06151
1924.61172,0.06248
1926.54019,0.06323
1928.46866,0.06327
1930.39713,0.06084
1932.32560,0.05729
1934.25407,0.05716
1936.18253,0.05998
1938.11100,0.06174
1940.03947,0.06251
1941.96794,0.06344
1943.89641,0.06337
1945.82488,0.06280
1947.75335,0.06422
1949.68181,0.06764
1951.61028,0.06984
1953.53875,0.06879
1955.46722,0.06564
1957.39569,0.06326
1959.32416,0.06395
1961.25263,0.06665
1963.18110,0.06846
1965.10956,0.06806
1967.03803,0.06575
1968.96650,0.06311
1970.89497,0.06163
1972.82344,0.06125
1974.75191,0.06253
1976.68038,0.06581
1978.60884,0.06853
1980.53731,0.06949
1982.46578,0.06912
1984.39425,0.06661
1986.32272,0.06330
1988.25119,0.06125
1990.17966,0.06094
1992.10812,0.06318
1994.03659,0.06685
1995.96506,0.06885
1997.89353,0.06746
1999.82200,0.06338
2001.75047,0.06031
2003.67894,0.06020
2005.60741,0.06130
2007.53587,0.06206
2009.46434,0.06310
2011.39281,0.06652
2013.32128,0.07081
2015.24975,0.07185
2017.17822,0.06947
2019.10669,0.06666
2021.03515,0.06604
2022.96362,0.06721
2024.89209,0.06623
2026.82056,0.06245
2028.74903,0.06039
2030.67750,0.06105
2032.60597,0.06245
2034.53444,0.06472
2036.46290,0.06714
2038.39137,0.06735
2040.31984,0.06539
2042.24831,0.06407
2044.17678,0.06372
2046.10525,0.06350
2048.03372,0.06444
2049.96218,0.06585
2051.89065,0.06586
2053.81912,0.06515
2055.74759,0.06563
2057.67606,0.06656
2059.60453,0.06649
2061.53300,0.06576
2063.46147,0.06565
2065.38993,0.06762
2067.31840,0.06994
2069.24687,0.06950
2071.17534,0.06762
2073.10381,0.06722
2075.03228,0.06817
2076.96075,0.06814
2078.88921,0.06664
2080.81768,0.06525
2082.74615,0.06436
2084.67462,0.06495
2086.60309,0.06775
2088.53156,0.06963
2090.46003,0.06795
2092.38850,0.06386
2094.31696,0.06122
2096.24543,0.06210
2098.17390,0.06304
2100.10237,0.06269
2102.03084,0.06432
2103.95931,0.06660
2105.88778,0.06631
2107.81624,0.06508
2109.74471,0.06449
2111.67318,0.06470
2113.60165,0.06577
2115.53012,0.06602
2117.45859,0.06499
2119.38706,0.06426
2121.31553,0.06400
2123.24399,0.06318
2125.17246,0.06221
2127.10093,0.06229
2129.02940,0.06279
2130.95787,0.06218
2132.88634,0.06148
2134.81481,0.06344
2136.74327,0.06638
2138.67174,0.06617
2140.60021,0.06420
2142.52868,0.06353
2144.45715,0.06313
2146.38562,0.06248
2148.31409,0.06243
2150.24255,0.06202
2152.17102,0.06253
2154.09949,0.06481
2156.02796,0.06616
2157.95643,0.06599
2159.88490,0.06516
2161.81337,0.06433
2163.74184,0.06432
2165.67030,0.06608
2167.59877,0.06985
2169.52724,0.07191
2171.45571,0.07003
2173.38418,0.06727
2175.31265,0.06591
2177.24112,0.06607
2179.16958,0.06712
2181.09805,0.06723
2183.02652,0.06669
2184.95499,0.06659
2186.88346,0.06613
2188.81193,0.06606
2190.74040,0.06591
2192.66887,0.06366
2194.59733,0.06136
2196.52580,0.06188
2198.45427,0.06310
2200.38274,0.06306
2202.31121,0.06408
2204.23968,0.06559
2206.16815,0.06638
2208.09661,0.06820
2210.02508,0.06967
2211.95355,0.07011
2213.88202,0.06971
2215.81049,0.06632
2217.73896,0.06280
2219.66743,0.06255
2221.59590,0.06309
2223.52436,0.06276
2225.45283,0.06209
2227.38130,0.06138
2229.30977,0.06114
2231.23824,0.06271
2233.16671,0.06506
2235.09518,0.06482
2237.02364,0.06322
2238.95211,0.06412
2240.88058,0.06700
2242.80905,0.06889
2244.73752,0.06851
2246.66599,0.06730
2248.59446,0.06825
2250.52293,0.06984
2252.45139,0.06770
2254.37986,0.06443
2256.30833,0.06415
2258.23680,0.06614
2260.16527,0.06917
2262.09374,0.06998
2264.02221,0.06713
2265.95067,0.06459
2267.87914,0.06334
2269.80761,0.06163
2271.73608,0.06085
2273.66455,0.06249
2275.59302,0.06564
2277.52149,0.06838
2279.44996,0.06889
2281.37842,0.06624
2283.30689,0.06237
2285.23536,0.06114
2287.16383,0.06356
2289.09230,0.06684
2291.02077,0.06811
2292.94924,0.06586
2294.87770,0.06206
2296.80617,0.06086
2298.73464,0.06002
2300.66311,0.05778
2302.59158,0.05670
2304.52005,0.05601
2306.44852,0.05778
2308.37699,0.06089
2310.30545,0.05821
2312.23392,0.05190
2314.16239,0.04934
2316.09086,0.05094
2318.01933,0.05217
2319.94780,0.05313
2321.87627,0.05511
2323.80473,0.05233
2325.73320,0.04205
2327.66167,0.03391
2329.59014,0.04002
2331.51861,0.05146
2333.44708,0.05428
2335.37555,0.05459
2337.30401,0.05171
2339.23248,0.04151
2341.16095,0.03198
2343.08942,0.02929
2345.01789,0.03711
2346.94636,0.04432
2348.87483,0.04122
2350.80330,0.03590
2352.73176,0.03272
2354.66023,0.02569
2356.58870,0.02065
2358.51717,0.02382
2360.44564,0.02803
2362.37411,0.03234
2364.30258,0.03549
2366.23104,0.03533
2368.15951,0.03476
2370.08798,0.03847
2372.01645,0.04483
2373.94492,0.05314
2375.87339,0.06027
2377.80186,0.06201
2379.73033,0.06296
2381.65879,0.06460
2383.58726,0.06299
2385.51573,0.06124
2387.44420,0.06317
2389.37267,0.06588
2391.30114,0.06567
2393.22961,0.06262
2395.15807,0.06148
2397.08654,0.06256
2399.01501,0.06077
2400.94348,0.05866
2402.87195,0.06048
2404.80042,0.06330
2406.72889,0.06464
2408.65736,0.06573
2410.58582,0.06728
2412.51429,0.06874
2414.44276,0.06918
2416.37123,0.06875
2418.29970,0.06842
2420.22817,0.06769
2422.15664,0.06660
2424.08510,0.06607
2426.01357,0.06631
2427.94204,0.06673
2429.87051,0.06543
2431.79898,0.06317
2433.72745,0.06363
2435.65592,0.06694
2437.58439,0.07012
2439.51285,0.07128
2441.44132,0.07010
2443.36979,0.06792
2445.29826,0.06736
2447.22673,0.06714
2449.15520,0.06425
2451.08367,0.06136
2453.01213,0.06131
2454.94060,0.06320
2456.86907,0.06555
2458.79754,0.06640
2460.72601,0.06611
2462.65448,0.06649
2464.58295,0.06703
2466.51142,0.06740
2468.43988,0.06787
2470.36835,0.06674
2472.29682,0.06455
2474.22529,0.06507
2476.15376,0.06701
2478.08223,0.06690
2480.01070,0.06784
2481.93916,0.07147
2483.86763,0.07209
2485.79610,0.06841
2487.72457,0.06633
2489.65304,0.06853
2491.58151,0.07160
2493.50998,0.07153
2495.43844,0.06857
2497.36691,0.06558
2499.29538,0.06433
2501.22385,0.06422
2503.15232,0.06451
2505.08079,0.06555
2507.00926,0.06535
2508.93773,0.06346
2510.86619,0.06424
2512.79466,0.06776
2514.72313,0.06930
2516.65160,0.06924
2518.58007,0.06982
2520.50854,0.06986
2522.43701,0.06959
2524.36547,0.06988
2526.29394,0.06992
2528.22241,0.07024
2530.15088,0.07129
2532.07935,0.07045
2534.00782,0.06663
2535.93629,0.06266
2537.86476,0.06130
2539.79322,0.06416
2541.72169,0.06877
2543.65016,0.07010
2545.57863,0.06804
2547.50710,0.06629
2549.43557,0.06577
2551.36404,0.06598
2553.29250,0.06918
2555.22097,0.07279
2557.14944,0.07085
2559.07791,0.06691
2561.00638,0.06783
2562.93485,0.07097
2564.86332,0.07062
2566.79179,0.06893
2568.72025,0.06912
2570.64872,0.06874
2572.57719,0.06700
2574.50566,0.06686
2576.43413,0.06889
2578.36260,0.07005
2580.29107,0.06995
2582.21953,0.07072
2584.14800,0.07274
2586.07647,0.07493
2588.00494,0.07539
2589.93341,0.07351
2591.86188,0.07090
2593.79035,0.06906
2595.71882,0.06839
2597.64728,0.06892
2599.57575,0.06989
2601.50422,0.06846
2603.43269,0.06430
2605.36116,0.06235
2607.28963,0.06452
2609.21810,0.06784
2611.14656,0.06987
2613.07503,0.06869
2615.00350,0.06593
2616.93197,0.06617
2618.86044,0.06842
2620.78891,0.06878
2622.71738,0.06879
2624.64585,0.07019
2626.57431,0.06979
2628.50278,0.06697
2630.43125,0.06505
2632.35972,0.06638
2634.28819,0.07029
2636.21666,0.07166
2638.14513,0.06778
2640.07359,0.06401
2642.00206,0.06585
2643.93053,0.07036
2645.85900,0.07226
2647.78747,0.07180
2649.71594,0.07089
2651.64441,0.06978
2653.57288,0.06793
2655.50134,0.06675
2657.42981,0.06837
2659.35828,0.06949
2661.28675,0.06731
2663.21522,0.06621
2665.14369,0.06899
2667.07216,0.07234
2669.00062,0.07396
2670.92909,0.07395
2672.85756,0.07236
2674.78603,0.07127
2676.71450,0.07189
2678.64297,0.07237
2680.57144,0.07213
2682.49990,0.07241
2684.42837,0.07445
2686.35684,0.07579
2688.28531,0.07363
2690.21378,0.07122
2692.14225,0.07090
2694.07072,0.07090
2695.99919,0.07047
2697.92765,0.07109
2699.85612,0.07236
2701.78459,0.07124
2703.71306,0.06979
2705.64153,0.07151
2707.57000,0.07366
2709.49847,0.07381
2711.42693,0.07249
2713.35540,0.07141
2715.28387,0.07358
2717.21234,0.07668
2719.14081,0.07453
2721.06928,0.06922
2722.99775,0.06805
2724.92622,0.07074
2726.85468,0.07203
2728.78315,0.07177
2730.71162,0.07218
2732.64009,0.07236
2734.56856,0.07180
2736.49703,0.07164
2738.42550,0.07235
2740.35396,0.07353
2742.28243,0.07424
2744.21090,0.07366
2746.13937,0.07265
2748.06784,0.07323
2749.99631,0.07535
2751.92478,0.07658
2753.85325,0.07559
2755.78171,0.07361
2757.71018,0.07290
2759.63865,0.07385
2761.56712,0.07576
2763.49559,0.07757
2765.42406,0.07677
2767.35253,0.07500
2769.28099,0.07569
2771.20946,0.07602
2773.13793,0.07424
2775.06640,0.07440
2776.99487,0.07665
2778.92334,0.07686
2780.85181,0.07469
2782.78028,0.07188
2784.70874,0.07087
2786.63721,0.07381
2788.56568,0.07836
2790.49415,0.07913
2792.42262,0.07617
2794.35109,0.07541
2796.27956,0.07717
2798.20802,0.07625
2800.13649,0.07126
2802.06496,0.06616
2803.99343,0.06416
2805.92190,0.06544
2807.85037,0.06839
2809.77884,0.06984
2811.70731,0.06897
2813.63577,0.06865
2815.56424,0.07146
2817.49271,0.07409
2819.42118,0.07324
2821.34965,0.07064
2823.27812,0.06790
2825.20659,0.06816
2827.13505,0.07168
2829.06352,0.07550
2830.99199,0.07787
2832.92046,0.07694
2834.84893,0.07470
2836.77740,0.07441
2838.70587,0.07510
2840.63433,0.07463
2842.56280,0.07430
2844.49127,0.07568
2846.41974,0.07600
2848.34821,0.07326
2850.27668,0.07120
2852.20515,0.07322
2854.13362,0.07576
2856.06208,0.07591
2857.99055,0.07638
2859.91902,0.07857
2861.84749,0.08076
2863.77596,0.08179
2865.70443,0.08183
2867.63290,0.07961
2869.56136,0.07352
2871.48983,0.06772
2873.41830,0.06747
2875.34677,0.07062
2877.27524,0.07418
2879.20371,0.07845
2881.13218,0.08092
2883.06065,0.07892
2884.98911,0.07604
2886.91758,0.07483
2888.84605,0.07229
2890.77452,0.06956
2892.70299,0.06962
2894.63146,0.06937
2896.55993,0.06895
2898.48839,0.07179
2900.41686,0.07398
2902.34533,0.07167
2904.27380,0.06810
2906.20227,0.06780
2908.13074,0.07113
2910.05921,0.07424
2911.98768,0.07490
2913.91614,0.07278
2915.84461,0.06833
2917.77308,0.06668
2919.70155,0.07028
2921.63002,0.07384
2923.55849,0.07282
2925.48696,0.06745
2927.41542,0.06514
2929.34389,0.07173
2931.27236,0.07895
2933.20083,0.07926
2935.12930,0.07426
2937.05777,0.06810
2938.98624,0.06615
2940.91471,0.06771
2942.84317,0.07021
2944.77164,0.07257
2946.70011,0.07099
2948.62858,0.06973
2950.55705,0.07440
2952.48552,0.07957
2954.41399,0.08046
2956.34245,0.07558
2958.27092,0.06799
2960.19939,0.06626
2962.12786,0.07126
2964.05633,0.07528
2965.98480,0.07195
2967.91327,0.06433
2969.84174,0.06121
2971.77020,0.06421
2973.69867,0.06763
2975.62714,0.06539
2977.55561,0.05889
2979.48408,0.05817
2981.41255,0.06612
2983.34102,0.07335
2985.26948,0.07349
2987.19795,0.06866
2989.12642,0.06538
2991.05489,0.06999
2992.98336,0.07922
2994.91183,0.08242
2996.84030,0.07974
2998.76877,0.08185
3000.69723,0.08857
3002.62570,0.08892
3004.55417,0.08009
3006.48264,0.07024
3008.41111,0.06587
3010.33958,0.06469
3012.26805,0.05861
3014.19651,0.04215
3016.12498,0.02560
3018.05345,0.03044
3019.98192,0.05710
3021.91039,0.07956
3023.83886,0.08563
3025.76733,0.08426
3027.69579,0.07970
3029.62426,0.07519
3031.55273,0.07660
3033.48120,0.08042
3035.40967,0.07894
3037.33814,0.07444
3039.26661,0.07475
3041.19508,0.07774
3043.12354,0.07802
3045.05201,0.07535
3046.98048,0.07221
3048.90895,0.07284
3050.83742,0.07484
3052.76589,0.07393
3054.69436,0.07122
3056.62282,0.06716
3058.55129,0.06627
3060.47976,0.07251
3062.40823,0.07810
3064.33670,0.07576
3066.26517,0.06906
3068.19364,0.06609
3070.12211,0.06921
3072.05057,0.07454
3073.97904,0.07817
3075.90751,0.07868
3077.83598,0.07866
3079.76445,0.07841
3081.69292,0.07579
3083.62139,0.07008
3085.54985,0.06389
3087.47832,0.06792
3089.40679,0.07943
3091.33526,0.07959
3093.26373,0.06829
3095.19220,0.06365
3097.12067,0.07093
3099.04914,0.08135
3100.97760,0.08764
3102.90607,0.08535
3104.83454,0.08042
3106.76301,0.08046
3108.69148,0.08194
3110.61995,0.07904
3112.54842,0.07099
3114.47688,0.06727
3116.40535,0.07218
3118.33382,0.07702
3120.26229,0.07596
3122.19076,0.07128
3124.11923,0.07001
3126.04770,0.07133
3127.97617,0.06879
3129.90463,0.06446
3131.83310,0.06451
3133.76157,0.06819
3135.69004,0.07062
3137.61851,0.06948
3139.54698,0.06606
3141.47545,0.06553
3143.40391,0.06991
3145.33238,0.07727
3147.26085,0.08486
3149.18932,0.08847
3151.11779,0.08726
3153.04626,0.08322
3154.97473,0.07630
3156.90320,0.06899
3158.83166,0.06842
3160.76013,0.07339
3162.68860,0.07677
3164.61707,0.07678
3166.54554,0.07461
3168.47401,0.07415
3170.40248,0.07702
3172.33094,0.07911
3174.25941,0.07795
3176.18788,0.07577
3178.11635,0.07370
3180.04482,0.07035
3181.97329,0.06601
3183.90176,0.06454
3185.83022,0.06941
3187.75869,0.07546
3189.68716,0.07812
3191.61563,0.07984
3193.54410,0.08140
3195.47257,0.08129
3197.40104,0.07980
3199.32951,0.07827
3201.25797,0.07456
3203.18644,0.06937
3205.11491,0.07000
3207.04338,0.07632
3208.97185,0.07816
3210.90032,0.07317
3212.82879,0.06953
3214.75725,0.07120
3216.68572,0.07606
3218.61419,0.07933
3220.54266,0.07930
3222.47113,0.07987
3224.39960,0.08156
3226.32807,0.08147
3228.25654,0.07907
3230.18500,0.07562
3232.11347,0.07231
3234.04194,0.07131
3235.97041,0.07489
3237.89888,0.08044
3239.82735,0.08255
3241.75582,0.08170
3243.68428,0.08169
3245.61275,0.08272
3247.54122,0.08165
3249.46969,0.07667
3251.39816,0.07407
3253.32663,0.07531
3255.25510,0.07367
3257.18357,0.07142
3259.11203,0.07008
3261.04050,0.06955
3262.96897,0.07622
3264.89744,0.08594
3266.82591,0.08646
3268.75438,0.07892
3270.68285,0.07469
3272.61131,0.07621
3274.53978,0.07732
3276.46825,0.07686
3278.39672,0.07659
3280.32519,0.07612
3282.25366,0.07802
3284.18213,0.08246
3286.11060,0.08414
3288.03906,0.08154
3289.96753,0.07775
3291.89600,0.07746
3293.82447,0.08067
3295.75294,0.08165
3297.68141,0.07697
3299.60988,0.06991
3301.53834,0.06865
3303.46681,0.07303
3305.39528,0.07528
3307.32375,0.07439
3309.25222,0.07534
3311.18069,0.07831
3313.10916,0.07981
3315.03763,0.08206
3316.96609,0.08375
3318.89456,0.07964
3320.82303,0.07666
3322.75150,0.07977
3324.67997,0.08205
3326.60844,0.08224
3328.53691,0.08165
3330.46537,0.07908
3332.39384,0.07802
3334.32231,0.08173
3336.25078,0.08644
3338.17925,0.08463
3340.10772,0.07774
3342.03619,0.07399
3343.96466,0.07408
3345.89312,0.07621
3347.82159,0.08055
3349.75006,0.08295
3351.67853,0.07990
3353.60700,0.07650
3355.53547,0.07797
3357.46394,0.08234
3359.39240,0.08428
3361.32087,0.08036
3363.24934,0.07427
3365.17781,0.07231
3367.10628,0.07324
3369.03475,0.07302
3370.96322,0.07297
3372.89168,0.07500
3374.82015,0.07799
3376.74862,0.07828
3378.67709,0.07363
3380.60556,0.07014
3382.53403,0.07213
3384.46250,0.07451
3386.39097,0.07582
3388.31943,0.07715
3390.24790,0.07463
3392.17637,0.07122
3394.10484,0.07316
3396.03331,0.07718
3397.96178,0.07800
3399.89025,0.07699
3401.81871,0.08028
3403.74718,0.08580
3405.67565,0.08568
3407.60412,0.08050
3409.53259,0.07379
3411.46106,0.06906
3413.38953,0.07006
3415.31800,0.07355
3417.24646,0.07649
3419.17493,0.07932
3421.10340,0.07981
3423.03187,0.07882
3424.96034,0.07766
3426.88881,0.07673
3428.81728,0.07869
3430.74574,0.08035
3432.67421,0.07689
3434.60268,0.07094
3436.53115,0.06897
3438.45962,0.07232
3440.38809,0.07671
3442.31656,0.07959
3444.24503,0.08236
3446.17349,0.08495
3448.10196,0.08346
3450.03043,0.07771
3451.95890,0.07151
3453.88737,0.07010
3455.81584,0.07426
3457.74431,0.07459
3459.67277,0.06946
3461.60124,0.06968
3463.52971,0.07604
3465.45818,0.07892
3467.38665,0.07467
3469.31512,0.06811
3471.24359,0.06747
3473.17206,0.07080
3475.10052,0.07042
3477.02899,0.06826
3478.95746,0.06611
3480.88593,0.06509
3482.81440,0.07024
3484.74287,0.07712
3486.67134,0.07778
3488.59980,0.07544
3490.52827,0.07235
3492.45674,0.06550
3494.38521,0.06073
3496.31368,0.06134
3498.24215,0.06355
3500.17062,0.06748
3502.09909,0.07074
3504.02755,0.07010
3505.95602,0.06793
3507.88449,0.06690
3509.81296,0.06712
3511.74143,0.06743
3513.66990,0.06685
3515.59837,0.06571
3517.52683,0.06721
3519.45530,0.07220
3521.38377,0.07598
3523.31224,0.07481
3525.24071,0.06932
3527.16918,0.06407
3529.09765,0.06241
3531.02611,0.06271
3532.95458,0.06155
3534.88305,0.05937
3536.81152,0.06121
3538.73999,0.06478
3540.66846,0.06123
3542.59693,0.05193
3544.52540,0.04660
3546.45386,0.05194
3548.38233,0.06227
3550.31080,0.06536
3552.23927,0.05967
3554.16774,0.05683
3556.09621,0.05917
3558.02468,0.05658
3559.95314,0.04961
3561.88161,0.04790
3563.81008,0.05455
3565.73855,0.06370
3567.66702,0.06711
3569.59549,0.06620
3571.52396,0.06504
3573.45243,0.06162
3575.38089,0.05707
3577.30936,0.05547
3579.23783,0.05363
3581.16630,0.04781
3583.09477,0.04342
3585.02324,0.04503
3586.95171,0.05241
3588.88017,0.06122
3590.80864,0.06529
3592.73711,0.06434
3594.66558,0.06016
3596.59405,0.05790
3598.52252,0.05940
3600.45099,0.05884
3602.37946,0.05550
3604.30792,0.05445
3606.23639,0.05519
3608.16486,0.05649
3610.09333,0.05564
3612.02180,0.05294
3613.95027,0.05476
3615.87874,0.05796
3617.80720,0.05833
3619.73567,0.05721
3621.66414,0.05527
3623.59261,0.05479
3625.52108,0.05489
3627.44955,0.05323
3629.37802,0.05053
3631.30649,0.05021
3633.23495,0.05193
3635.16342,0.05266
3637.09189,0.05194
3639.02036,0.05149
3640.94883,0.04948
3642.87730,0.04619
3644.80577,0.04559
3646.73423,0.05031
3648.66270,0.05975
3650.59117,0.06235
3652.51964,0.05824
3654.44811,0.05416
3656.37658,0.05012
3658.30505,0.04877
3660.23352,0.04960
3662.16198,0.04888
3664.09045,0.04741
3666.01892,0.04847
3667.94739,0.05211
3669.87586,0.05383
3671.80433,0.05204
3673.73280,0.05524
3675.66126,0.06220
3677.58973,0.05995
3679.51820,0.05272
3681.44667,0.04647
3683.37514,0.04392
3685.30361,0.04635
3687.23208,0.05160
3689.16055,0.05502
3691.08901,0.05311
3693.01748,0.05177
3694.94595,0.05324
3696.87442,0.05302
3698.80289,0.04925
3700.73136,0.04554
3702.65983,0.04520
3704.58829,0.04686
3706.51676,0.04718
3708.44523,0.04632
3710.37370,0.04950
3712.30217,0.05742
3714.23064,0.05818
3716.15911,0.05151
3718.08757,0.04294
3720.01604,0.03757
3721.94451,0.03948
3723.87298,0.04446
3725.80145,0.04321
3727.72992,0.03917
3729.65839,0.04184
3731.58686,0.04658
3733.51532,0.04326
3735.44379,0.03997
3737.37226,0.04818
3739.30073,0.05553
3741.22920,0.05589
3743.15767,0.05475
3745.08614,0.05834
3747.01460,0.06057
3748.94307,0.05749
3750.87154,0.04872
3752.80001,0.04194
3754.72848,0.04342
3756.65695,0.04864
3758.58542,0.05478
3760.51389,0.05798
3762.44235,0.05637
3764.37082,0.05349
3766.29929,0.05092
3768.22776,0.04833
3770.15623,0.04905
3772.08470,0.05380
3774.01317,0.05714
3775.94163,0.05589
3777.87010,0.05071
3779.79857,0.04669
3781.72704,0.04564
3783.65551,0.04441
3785.58398,0.04503
3787.51245,0.04679
3789.44092,0.04573
3791.36938,0.04308
3793.29785,0.04059
3795.22632,0.04049
3797.15479,0.04323
3799.08326,0.04560
3801.01173,0.04697
3802.94020,0.04216
3804.86866,0.03469
3806.79713,0.03566
3808.72560,0.04395
3810.65407,0.04752
3812.58254,0.04718
3814.51101,0.04791
3816.43948,0.04846
3818.36795,0.04483
3820.29641,0.03964
3822.22488,0.03652
3824.15335,0.03627
3826.08182,0.04044
3828.01029,0.04781
3829.93876,0.05087
3831.86723,0.04567
3833.79569,0.03826
3835.72416,0.03857
3837.65263,0.04437
3839.58110,0.04739
3841.50957,0.04622
3843.43804,0.04275
3845.36651,0.04023
3847.29498,0.04055
3849.22344,0.04480
3851.15191,0.05337
3853.08038,0.05686
3855.00885,0.04516
3856.93732,0.03894
3858.86579,0.03967
3860.79426,0.04095
3862.72272,0.03876
3864.65119,0.03590
3866.57966,0.04109
3868.50813,0.04974
3870.43660,0.04724
3872.36507,0.03632
3874.29354,0.03476
3876.22200,0.04225
3878.15047,0.04727
3880.07894,0.04418
3882.00741,0.03834
3883.93588,0.03772
3885.86435,0.04124
3887.79282,0.04467
3889.72129,0.04697
3891.64975,0.04812
3893.57822,0.04566
3895.50669,0.04298
3897.43516,0.04176
3899.36363,0.03955
3901.29210,0.03623
3903.22057,0.03064
3905.14903,0.02702
3907.07750,0.03130
3909.00597,0.03818
3910.93444,0.04441
3912.86291,0.04795
3914.79138,0.04638
3916.71985,0.04353
3918.64832,0.04325
3920.57678,0.04160
3922.50525,0.03831
3924.43372,0.03804
3926.36219,0.03957
3928.29066,0.04001
3930.21913,0.04151
3932.14760,0.04385
3934.07606,0.04475
3936.00453,0.04499
3937.93300,0.04619
3939.86147,0.04645
3941.78994,0.04412
3943.71841,0.04340
3945.64688,0.04323
3947.57535,0.03971
3949.50381,0.03653
3951.43228,0.03579
3953.36075,0.03588
3955.28922,0.03850
3957.21769,0.04359
3959.14616,0.04712
3961.07463,0.04659
3963.00309,0.04227
3964.93156,0.04023
3966.86003,0.04237
3968.78850,0.04023
3970.71697,0.03363
3972.64544,0.03127
3974.57391,0.03343
3976.50238,0.03497
3978.43084,0.03732
3980.35931,0.04003
3982.28778,0.03661
3984.21625,0.03194
3986.14472,0.03487
3988.07319,0.03994
3990.00166,0.04225
3991.93012,0.04529
3993.85859,0.04708
3995.78706,0.04636
3997.71553,0.04610
3999.64400,0.04308
4001.57247,0.03776
4003.50094,0.03688
4005.42941,0.04094
4007.35787,0.04576
4009.28634,0.04722
4011.21481,0.04429
4013.14328,0.04051
4015.07175,0.03765
4017.00022,0.03359
4018.92869,0.02820
4020.85715,0.02675
4022.78562,0.03123
4024.71409,0.03511
4026.64256,0.03517
4028.57103,0.03465
4030.49950,0.03602
4032.42797,0.03874
4034.35644,0.03995
4036.28490,0.03850
4038.21337,0.03542
4040.14184,0.03253
4042.07031,0.03188
4043.99878,0.03277
4045.92725,0.03398
4047.85572,0.03472
4049.78418,0.03322
4051.71265,0.03217
4053.64112,0.03414
4055.56959,0.03524
4057.49806,0.03464
4059.42653,0.03460
4061.35500,0.03470
4063.28346,0.03434
4065.21193,0.03383
4067.14040,0.03427
4069.06887,0.03498
4070.99734,0.03405
4072.92581,0.03400
4074.85428,0.03841
4076.78275,0.04387
4078.71121,0.04403
4080.63968,0.03837
4082.56815,0.03040
4084.49662,0.02425
4086.42509,0.02374
4088.35356,0.02629
4090.28203,0.02613
4092.21049,0.02479
4094.13896,0.02545
4096.06743,0.02678
4097.99590,0.02852
4099.92437,0.03226
4101.85284,0.03690
4103.78131,0.04028
4105.70978,0.04244
4107.63824,0.04175
4109.56671,0.03740
4111.49518,0.03458
4113.42365,0.03567
4115.35212,0.03575
4117.28059,0.03437
4119.20906,0.03819
4121.13752,0.04395
4123.06599,0.04095
4124.99446,0.03051
4126.92293,0.02268
4128.85140,0.02519
4130.77987,0.03491
4132.70834,0.04045
4134.63681,0.03744
4136.56527,0.03023
4138.49374,0.02435
4140.42221,0.02185
4142.35068,0.02212
4144.27915,0.02552
4146.20762,0.03106
4148.13609,0.03490
4150.06455,0.03474
4151.99302,0.03175
4153.92149,0.02860
4155.84996,0.02743
4157.77843,0.02857
4159.70690,0.03304
4161.63537,0.03746
4163.56384,0.03598
4165.49230,0.03318
4167.42077,0.03375
4169.34924,0.03482
4171.27771,0.03416
4173.20618,0.03232
4175.13465,0.03116
4177.06312,0.03133
4178.99158,0.03203
4180.92005,0.03144
4182.84852,0.03107
4184.77699,0.03402
4186.70546,0.03459
4188.63393,0.02910
4190.56240,0.02455
4192.49087,0.02426
4194.41933,0.02687
4196.34780,0.03142
4198.27627,0.03804
4200.20474,0.04390
4202.13321,0.04004
4204.06168,0.03028
4205.99015,0.02435
4207.91861,0.02259
4209.84708,0.02399
4211.77555,0.02427
4213.70402,0.02412
4215.63249,0.02606
4217.56096,0.02455
4219.48943,0.02104
4221.41789,0.02104
4223.34636,0.02188
4225.27483,0.02230
4227.20330,0.02451
4229.13177,0.02614
4231.06024,0.02666
4232.98871,0.02826
4234.91718,0.02824
4236.84564,0.02343
4238.77411,0.02262
4240.70258,0.03210
4242.63105,0.03591
4244.55952,0.02766
4246.48799,0.02186
4248.41646,0.02334
4250.34492,0.02793
4252.27339,0.03442
4254.20186,0.03680
4256.13033,0.03004
4258.05880,0.02201
4259.98727,0.01925
4261.91574,0.02012
4263.84421,0.02036
4265.77267,0.01568
4267.70114,0.00868
4269.62961,0.00494
4271.55808,0.00760
4273.48655,0.01458
4275.41502,0.01861
4277.34349,0.01913
4279.27195,0.01980
4281.20042,0.01895
4283.12889,0.01733
4285.05736,0.01665
4286.98583,0.01467
4288.91430,0.01332
4290.84277,0.01337
4292.77124,0.01126
4294.69970,0.01106
4296.62817,0.01690
4298.55664,0.01954
4300.48511,0.01339
4302.41358,0.01003
4304.34205,0.01491
4306.27052,0.01689
4308.19898,0.01134
4310.12745,0.00501
4312.05592,0.00261
4313.98439,0.00532
4315.91286,0.01114
4317.84133,0.01619
4319.76980,0.01990
4321.69827,0.02341
4323.62673,0.02577
4325.55520,0.02430
4327.48367,0.01860
4329.41214,0.01641
4331.34061,0.02361
4333.26908,0.03279
4335.19755,0.03442
4337.12601,0.02528
4339.05448,0.01407
4340.98295,0.01358
4342.91142,0.01934
4344.83989,0.02362
4346.76836,0.02631
4348.69683,0.02323
4350.62530,0.01630
4352.55376,0.01344
4354.48223,0.01587
4356.41070,0.02083
4358.33917,0.02317
4360.26764,0.01761
4362.19611,0.00687
4364.12458,0.00165
4366.05304,0.00777
4367.98151,0.01730
4369.90998,0.02036
4371.83845,0.01849
4373.76692,0.01773
4375.69539,0.01812
4377.62386,0.01980
4379.55232,0.02352
4381.48079,0.02435
4383.40926,0.02186
4385.33773,0.01834
4387.26620,0.01378
4389.19467,0.01399
4391.12314,0.01509
4393.05161,0.00923
4394.98007,0.00822
4396.90854,0.01573
4398.83701,0.02072
4400.76548,0.02288
4402.69395,0.02161
4404.62242,0.01355
4406.55089,0.00522
4408.47935,0.00491
4410.40782,0.01103
4412.33629,0.01740
4414.26476,0.02166
4416.19323,0.02105
4418.12170,0.01347
4420.05017,0.00402
4421.97864,0.00155
4423.90710,0.00548
4425.83557,0.01159
4427.76404,0.02033
4429.69251,0.02376
4431.62098,0.01516
4433.54945,0.00179
4435.47792,-0.00650
4437.40638,-0.00568
4439.33485,0.00393
4441.26332,0.01696
4443.19179,0.02197
4445.12026,0.01700
4447.04873,0.01249
4448.97720,0.00927
4450.90567,0.00305
4452.83413,-0.00033
4454.76260,0.00056
4456.69107,0.00115
4458.61954,0.00236
4460.54801,0.00602
4462.47648,0.01361
4464.40495,0.01796
4466.33341,0.01129
4468.26188,0.00180
4470.19035,-0.00451
4472.11882,-0.00913
4474.04729,-0.00903
4475.97576,-0.00130
4477.90423,0.00858
4479.83270,0.01115
4481.76116,0.00579
4483.68963,-0.00065
4485.61810,-0.00175
4487.54657,0.00540
4489.47504,0.01466
4491.40351,0.01771
4493.33198,0.01479
4495.26044,0.01141
4497.18891,0.01143
4499.11738,0.01239
4501.04585,0.01019
4502.97432,0.00542
4504.90279,0.00225
4506.83126,0.00623
4508.75973,0.01539
4510.68819,0.02009
4512.61666,0.01692
4514.54513,0.01309
4516.47360,0.01398
4518.40207,0.01817
4520.33054,0.02099
4522.25901,0.01598
4524.18747,0.00663
4526.11594,0.00271
4528.04441,0.00619
4529.97288,0.01182
4531.90135,0.01458
4533.82982,0.01583
4535.75829,0.01718
4537.68676,0.01832
4539.61522,0.01750
4541.54369,0.01499
4543.47216,0.01316
4545.40063,0.00817
4547.32910,0.00339
4549.25757,0.00622
4551.18604,0.01375
4553.11450,0.01873
4555.04297,0.01604
4556.97144,0.01166
4558.89991,0.01083
4560.82838,0.00976
4562.75685,0.00646
4564.68532,0.00250
4566.61378,0.00475
4568.54225,0.01415
4570.47072,0.01804
4572.39919,0.00974
4574.32766,0.00060
4576.25613,-0.00102
4578.18460,-0.00124
4580.11307,-0.00112
4582.04153,0.00247
4583.97000,0.00726
4585.89847,0.00970
4587.82694,0.00840
4589.75541,0.00754
4591.68388,0.00538
4593.61235,-0.00150
4595.54081,-0.00657
4597.46928,-0.01136
4599.39775,-0.01628
4601.32622,-0.01054
4603.25469,0.00246
4605.18316,0.01067
4607.11163,0.00951
4609.04010,-0.00280
4610.96856,-0.01481
4612.89703,-0.01063
4614.82550,-0.00055
4616.75397,0.00164
4618.68244,0.00365
4620.61091,0.00826
4622.53938,0.01111
4624.46784,0.01473
4626.39631,0.01311
4628.32478,0.00242
4630.25325,-0.00684
4632.18172,-0.00907
4634.11019,-0.00322
4636.03866,0.00580
4637.96713,0.00656
4639.89559,-0.00180
4641.82406,-0.01309
4643.75253,-0.01464
4645.68100,-0.00031
4647.60947,0.01285
4649.53794,0.01198
4651.46641,0.00464
4653.39487,0.00047
4655.32334,0.00308
4657.25181,0.01138
4659.18028,0.01784
4661.10875,0.01534
4663.03722,0.00876
4664.96569,0.01107
4666.89416,0.01821
4668.82262,0.01519
4670.75109,0.00726
4672.67956,0.00293
4674.60803,0.00147
4676.53650,0.00227
4678.46497,-0.00189
4680.39344,-0.00995
4682.32190,-0.01070
4684.25037,-0.00729
4686.17884,-0.00530
4688.10731,0.00055
4690.03578,0.00359
4691.96425,-0.00461
4693.89272,-0.00790
4695.82119,0.00036
4697.74965,0.00665
4699.67812,0.01246
4701.60659,0.01895
4703.53506,0.01683
4705.46353,0.01364
4707.39200,0.01624
4709.32047,0.01877
4711.24893,0.02171
4713.17740,0.02310
4715.10587,0.01635
4717.03434,0.00702
4718.96281,0.00609
4720.89128,0.01463
4722.81975,0.02745
4724.74821,0.03300
4726.67668,0.02008
4728.60515,0.00041
4730.53362,-0.00628
4732.46209,0.00334
4734.39056,0.01755
4736.31903,0.02514
4738.24750,0.02753
4740.17596,0.02593
4742.10443,0.01684
4744.03290,0.00488
4745.96137,-0.00077
4747.88984,-0.00303
4749.81831,-0.01046
4751.74678,-0.01632
4753.67524,-0.01215
4755.60371,-0.00349
4757.53218,0.00061
4759.46065,0.00014
4761.38912,0.00467
4763.31759,0.01514
4765.24606,0.01978
4767.17453,0.01661
4769.10299,0.00924
4771.03146,-0.00107
4772.95993,-0.00356
4774.88840,0.00456
4776.81687,0.00909
4778.74534,0.00269
4780.67381,-0.00440
4782.60227,-0.00262
4784.53074,-0.00045
4786.45921,-0.00632
4788.38768,-0.01260
4790.31615,-0.01163
4792.24462,-0.00316
4794.17309,0.00875
4796.10156,0.01727
4798.03002,0.01883
4799.95849,0.02151
4801.88696,0.03205
4803.81543,0.03797
4805.74390,0.02509
4807.67237,0.00567
4809.60084,-0.00166
4811.52930,-0.00171
4813.45777,-0.00009
4815.38624,0.00111
4817.31471,-0.00928
4819.24318,-0.02151
4821.17165,-0.02052
4823.10012,-0.01186
4825.02859,-0.00226
4826.95705,-0.00040
4828.88552,-0.00362
4830.81399,0.00070
4832.74246,0.00231
4834.67093,-0.00421
4836.59940,-0.00213
4838.52787,0.00480
4840.45633,0.00414
4842.38480,0.00627
4844.31327,0.01146
4846.24174,0.00766
4848.17021,0.00512
4850.09868,0.01175
4852.02715,0.01347
4853.95562,0.00597
4855.88408,0.00143
4857.81255,0.00503
4859.74102,0.01013
4861.66949,0.01430
4863.59796,0.01776
4865.52643,0.01437
4867.45490,0.00311
4869.38336,-0.00535
4871.31183,0.00059
4873.24030,0.01009
4875.16877,0.00547
4877.09724,-0.00146
4879.02571,0.00263
4880.95418,0.00586
4882.88265,0.00130
4884.81111,0.00046
4886.73958,0.00324
4888.66805,0.00158
4890.59652,-0.00305
4892.52499,-0.00805
4894.45346,-0.00737
4896.38193,0.00120
4898.31039,0.01180
4900.23886,0.02024
4902.16733,0.02552
4904.09580,0.02439
4906.02427,0.01492
4907.95274,0.00802
4909.88121,0.00713
4911.80967,0.00781
4913.73814,0.01093
4915.66661,0.00838
4917.59508,-0.00102
4919.52355,-0.00764
4921.45202,-0.01140
4923.38049,-0.00969
4925.30896,0.00042
4927.23742,0.01462
4929.16589,0.02543
4931.09436,0.01887
4933.02283,0.00159
4934.95130,-0.00532
4936.87977,-0.00511
4938.80824,-0.00176
4940.73670,0.00935
4942.66517,0.02137
4944.59364,0.02683
4946.52211,0.02690
4948.45058,0.01868
4950.37905,0.00248
4952.30752,-0.00341
4954.23599,0.00683
4956.16445,0.01669
4958.09292,0.01806
4960.02139,0.01282
4961.94986,0.00970
4963.87833,0.01530
4965.80680,0.01717
4967.73527,0.00486
4969.66373,-0.00784
4971.59220,-0.00809
4973.52067,-0.00072
4975.44914,0.00839
4977.37761,0.01633
4979.30608,0.02311
4981.23455,0.02558
4983.16302,0.01594
4985.09148,0.00189
4987.01995,-0.00421
4988.94842,-0.00668
4990.87689,-0.01443
4992.80536,-0.01923
4994.73383,-0.00558
4996.66230,0.01698
4998.59076,0.02413
5000.51923,0.01204
5002.44770,-0.00735
5004.37617,-0.02019
5006.30464,-0.01797
5008.23311,-0.00369
5010.16158,0.01473
5012.09005,0.02644
5014.01851,0.02326
5015.94698,0.01033
5017.87545,-0.00218
5019.80392,-0.00860
5021.73239,-0.00789
5023.66086,0.00296
5025.58933,0.02485
5027.51779,0.04546
5029.44626,0.05252
5031.37473,0.04402
5033.30320,0.02875
5035.23167,0.01374
5037.16014,-0.00652
5039.08861,-0.02702
5041.01708,-0.02764
5042.94554,-0.00937
5044.87401,0.00697
5046.80248,0.00837
5048.73095,-0.00446
5050.65942,-0.01572
5052.58789,-0.00618
5054.51636,0.01556
5056.44482,0.02447
5058.37329,0.01493
5060.30176,0.00048
5062.23023,-0.00383
5064.15870,0.00259
5066.08717,0.00658
5068.01564,0.00349
5069.94410,0.00317
5071.87257,0.01239
5073.80104,0.02499
5075.72951,0.02603
5077.65798,0.01316
5079.58645,-0.00153
5081.51492,-0.00773
5083.44339,-0.00272
5085.37185,-0.00192
5087.30032,-0.01073
5089.22879,-0.01117
5091.15726,-0.00402
5093.08573,-0.00413
5095.01420,-0.01072
5096.94267,-0.01408
5098.87113,-0.01045
5100.79960,-0.00415
5102.72807,0.00382
5104.65654,0.01654
5106.58501,0.03036
5108.51348,0.03651
5110.44195,0.02542
5112.37042,-0.00087
5114.29888,-0.01697
5116.22735,-0.00732
5118.15582,0.00895
5120.08429,0.00872
5122.01276,0.00046
5123.94123,0.00080
5125.86970,0.00526
5127.79816,0.01133
5129.72663,0.02154
5131.65510,0.02907
5133.58357,0.02721
5135.51204,0.01396
5137.44051,0.00042
5139.36898,0.00229
5141.29745,0.01330
5143.22591,0.01983
5145.15438,0.01814
5147.08285,0.00961
5149.01132,0.00622
5150.93979,0.01367
5152.86826,0.02021
5154.79673,0.01739
5156.72519,0.01644
5158.65366,0.02530
5160.58213,0.02613
5162.51060,0.01837
5164.43907,0.01318
5166.36754,0.00630
5168.29601,0.00603
5170.22448,0.01939
5172.15294,0.04152
5174.08141,0.06388
5176.00988,0.06907
5177.93835,0.05615
5179.86682,0.03955
5181.79529,0.02611
5183.72376,0.01707
5185.65222,0.01379
5187.58069,0.02141
5189.50916,0.03538
5191.43763,0.04509
5193.36610,0.04436
5195.29457,0.03293
5197.22304,0.02712
5199.15151,0.03324
5201.07997,0.03539
5203.00844,0.03035
5204.93691,0.02717
5206.86538,0.02390
5208.79385,0.01269
5210.72232,0.00262
5212.65079,0.00138
5214.57925,0.00774
5216.50772,0.00849
5218.43619,-0.00826
5220.36466,-0.02529
5222.29313,-0.02606
5224.22160,-0.01309
5226.15007,0.00320
5228.07854,0.00842
5230.00700,0.00218
5231.93547,-0.00127
5233.86394,0.01170
5235.79241,0.02942
5237.72088,0.03427
5239.64935,0.03303
5241.57782,0.03239
5243.50628,0.03134
5245.43475,0.03657
5247.36322,0.04243
5249.29169,0.04450
5251.22016,0.05135
5253.14863,0.04796
5255.07710,0.02408
5257.00556,0.00585
5258.93403,0.00732
5260.86250,0.01457
5262.79097,0.01334
5264.71944,0.00660
5266.64791,0.00605
5268.57638,0.01007
5270.50485,0.01621
5272.43331,0.02626
5274.36178,0.03027
5276.29025,0.01768
5278.21872,0.00106
5280.14719,-0.00824
5282.07566,-0.01253
5284.00413,-0.00520
5285.93259,0.00597
5287.86106,0.01546
5289.78953,0.03982
5291.71800,0.06046
5293.64647,0.04763
5295.57494,0.01713
5297.50341,-0.00253
5299.43188,-0.00848
5301.36034,-0.01049
5303.28881,0.00419
5305.21728,0.02274
5307.14575,0.01479
5309.07422,0.01213
5311.00269,0.03099
5312.93116,0.02721
5314.85962,0.00608
5316.78809,0.00696
5318.71656,0.02104
5320.64503,0.01720
5322.57350,0.00273
5324.50197,0.00919
5326.43044,0.02788
5328.35891,0.02779
5330.28737,0.02310
5332.21584,0.02655
5334.14431,0.01760
5336.07278,0.00420
5338.00125,0.01903
5339.92972,0.04485
5341.85819,0.04989
5343.78665,0.05542
5345.71512,0.06371
5347.64359,0.04655
5349.57206,0.02969
5351.50053,0.03555
5353.42900,0.03960
5355.35747,0.03346
5357.28594,0.02760
5359.21440,0.02846
5361.14287,0.04429
5363.07134,0.05192
5364.99981,0.03410
5366.92828,0.01598
5368.85675,0.01331
5370.78522,0.02350
5372.71368,0.03625
5374.64215,0.03497
5376.57062,0.01266
5378.49909,-0.00779
5380.42756,0.00465
5382.35603,0.03688
5384.28450,0.04863
5386.21297,0.03929
5388.14143,0.03494
5390.06990,0.02900
5391.99837,0.03063
5393.92684,0.05198
5395.85531,0.05778
5397.78378,0.04531
5399.71225,0.04335
5401.64071,0.03646
5403.56918,0.01358
5405.49765,0.00077
5407.42612,0.00042
5409.35459,-0.00410
5411.28306,0.00664
5413.21153,0.03795
5415.13999,0.05289
5417.06846,0.04356
5418.99693,0.02617
5420.92540,0.01358
5422.85387,0.00786
5424.78234,0.00162
5426.71081,-0.00793
5428.63928,-0.00533
5430.56774,0.02211
5432.49621,0.04384
5434.42468,0.03156
5436.35315,0.01171
5438.28162,0.00851
5440.21009,0.00335
5442.13856,-0.00219
5444.06702,0.00829
5445.99549,0.03232
5447.92396,0.05577
5449.85243,0.06243
5451.78090,0.05814
5453.70937,0.05632
5455.63784,0.04928
5457.56631,0.03876
5459.49477,0.04142
5461.42324,0.02929
5463.35171,-0.00172
5465.28018,-0.00027
5467.20865,0.03088
5469.13712,0.05851
5471.06559,0.06737
5472.99405,0.05359
5474.92252,0.03571
5476.85099,0.03929
5478.77946,0.04452
5480.70793,0.02506
5482.63640,0.00577
5484.56487,0.00907
5486.49334,0.01575
5488.42180,0.01323
5490.35027,0.00937
5492.27874,0.01160
5494.20721,0.02297
5496.13568,0.03768
5498.06415,0.04163
5499.99262,0.04475
5501.92108,0.05730
5503.84955,0.04593
5505.77802,0.00745
5507.70649,-0.00985
5509.63496,0.01123
5511.56343,0.03062
5513.49190,0.01155
5515.42037,-0.02373
5517.34883,-0.03248
5519.27730,-0.01975
5521.20577,-0.01383
5523.13424,-0.01178
5525.06271,0.00392
5526.99118,0.02346
5528.91965,0.03553
5530.84811,0.04838
5532.77658,0.05298
5534.70505,0.04198
5536.63352,0.04328
5538.56199,0.05276
5540.49046,0.03861
5542.41893,0.01318
5544.34740,0.00391
5546.27586,0.01695
5548.20433,0.03336
5550.13280,0.02817
5552.06127,0.02071
5553.98974,0.05188
5555.91821,0.09545
5557.84668,0.09582
5559.77514,0.07160
5561.70361,0.05372
5563.63208,0.05129
5565.56055,0.07757
5567.48902,0.10715
5569.41749,0.09534
5571.34596,0.04909
5573.27443,0.01048
5575.20289,-0.00494
5577.13136,-0.00594
5579.05983,0.00363
5580.98830,0.01194
5582.91677,0.02102
5584.84524,0.04443
5586.77371,0.05638
5588.70217,0.03458
5590.63064,0.00255
5592.55911,-0.01247
5594.48758,-0.01159
5596.41605,-0.00865
5598.34452,-0.00216
5600.27299,0.00684
5602.20145,0.01527
5604.12992,0.03267
5606.05839,0.05264
5607.98686,0.05638
5609.91533,0.03019
5611.84380,-0.01206
5613.77227,-0.03431
5615.70074,-0.02443
5617.62920,0.00643
5619.55767,0.03795
5621.48614,0.05226
5623.41461,0.05658
5625.34308,0.05996
5627.27155,0.04381
5629.20002,0.01577
5631.12848,0.00683
5633.05695,0.00561
5634.98542,0.00382
5636.91389,0.02147
5638.84236,0.05080
5640.77083,0.06739
5642.69930,0.06528
5644.62777,0.05105
5646.55623,0.04275
5648.48470,0.04012
5650.41317,0.02737
5652.34164,0.02109
5654.27011,0.03731
5656.19858,0.05365
5658.12705,0.05330
5660.05551,0.05776
5661.98398,0.06950
5663.91245,0.05251
5665.84092,0.02513
5667.76939,0.04097
5669.69786,0.08353
5671.62633,0.08832
5673.55480,0.04312
5675.48326,-0.00443
5677.41173,-0.01430
5679.34020,0.01435
5681.26867,0.04716
5683.19714,0.05519
5685.12561,0.05362
5687.05408,0.04962
5688.98254,0.02610
5690.91101,0.01168
5692.83948,0.04461
5694.76795,0.08917
5696.69642,0.08805
5698.62489,0.05433
5700.55336,0.04402
5702.48183,0.05046
5704.41029,0.04028
5706.33876,0.04255
5708.26723,0.07560
5710.19570,0.09701
5712.12417,0.07218
5714.05264,0.01461
5715.98111,-0.02978
5717.90957,-0.03600
5719.83804,-0.02481
5721.76651,-0.02545
5723.69498,-0.03526
5725.62345,-0.03449
5727.55192,-0.02358
5729.48039,-0.01001
5731.40886,0.02513
5733.33732,0.07805
5735.26579,0.10638
5737.19426,0.09396
5739.12273,0.06498
5741.05120,0.04262
5742.97967,0.03268
5744.90814,0.03838
5746.83660,0.05090
5748.76507,0.05245
5750.69354,0.04830
5752.62201,0.04209
5754.55048,0.03038
5756.47895,0.03132
5758.40742,0.05959
5760.33588,0.08756
5762.26435,0.07988
5764.19282,0.04947
5766.12129,0.04102
5768.04976,0.06273
5769.97823,0.07304
5771.90670,0.06120
5773.83517,0.04668
5775.76363,0.03737
5777.69210,0.04117
5779.62057,0.04801
5781.54904,0.04646
5783.47751,0.03858
5785.40598,0.02234
5787.33445,0.00658
5789.26291,0.00935
5791.19138,0.02038
5793.11985,0.01086
5795.04832,-0.01231
5796.97679,-0.01220
5798.90526,0.00746
5800.83373,0.01467
5802.76220,0.01547
5804.69066,0.02573
5806.61913,0.03492
5808.54760,0.03101
5810.47607,0.01816
5812.40454,0.01174
5814.33301,0.02863
5816.26148,0.05480
5818.18994,0.05541
5820.11841,0.03140
5822.04688,0.00219
5823.97535,-0.00992
5825.90382,-0.00058
5827.83229,0.00274
5829.76076,0.00394
5831.68923,0.03001
5833.61769,0.06870
5835.54616,0.06514
5837.47463,0.01564
5839.40310,-0.01445
5841.33157,0.00091
5843.26004,0.03798
5845.18851,0.06680
5847.11697,0.06966
5849.04544,0.05920
5850.97391,0.04410
5852.90238,0.01692
5854.83085,-0.00319
5856.75932,0.00559
5858.68779,0.02216
5860.61626,0.03166
5862.54472,0.03546
5864.47319,0.01188
5866.40166,-0.02031
5868.33013,-0.01955
5870.25860,0.00248
5872.18707,0.02344
5874.11554,0.02847
5876.04400,0.00672
5877.97247,-0.01585
5879.90094,0.00588
5881.82941,0.04913
5883.75788,0.05480
5885.68635,0.03133
5887.61482,0.01472
5889.54329,0.02541
5891.47175,0.04646
5893.40022,0.03143
5895.32869,-0.00354
5897.25716,-0.00237
5899.18563,0.02360
5901.11410,0.02885
5903.04257,0.02108
5904.97103,0.02750
5906.89950,0.04787
5908.82797,0.05199
5910.75644,0.03637
5912.68491,0.02309
5914.61338,0.02237
5916.54185,0.04935
5918.47032,0.05863
5920.39878,0.02204
5922.32725,0.01557
5924.25572,0.06268
5926.18419,0.10819
5928.11266,0.10510
5930.04113,0.05228
5931.96960,-0.00129
5933.89806,-0.00675
5935.82653,0.02702
5937.75500,0.05542
5939.68347,0.05623
5941.61194,0.04548
5943.54041,0.03804
5945.46888,0.03272
5947.39734,0.05599
5949.32581,0.09622
5951.25428,0.08973
5953.18275,0.04112
5955.11122,-0.00130
5957.03969,-0.00980
5958.96816,0.02418
5960.89663,0.06095
5962.82509,0.07565
5964.75356,0.07989
5966.68203,0.07694
5968.61050,0.08348
5970.53897,0.10921
5972.46744,0.10469
5974.39591,0.05256
5976.32437,0.00711
5978.25284,-0.02582
5980.18131,-0.06322
5982.10978,-0.08000
5984.03825,-0.05883
5985.96672,-0.00985
5987.89519,0.04227
5989.82366,0.05559
5991.75212,0.01358
5993.68059,-0.03392
5995.60906,-0.03877
5997.53753,-0.02987
5999.46600,-0.04699
6001.39447,-0.06038
6003.32294,-0.03196
6005.25140,0.00740
6007.17987,0.02416
6009.10834,0.04480
6011.03681,0.07333
6012.96528,0.07716
6014.89375,0.06388
6016.82222,0.05342
6018.75069,0.05029
6020.67915,0.08515
6022.60762,0.13144
6024.53609,0.12676
6026.46456,0.08682
6028.39303,0.04991
6030.32150,0.02666
6032.24997,0.02739
6034.17843,0.04543
6036.10690,0.03456
6038.03537,0.01805
6039.96384,0.04760
6041.89231,0.08202
6043.82078,0.09372
6045.74925,0.09903
6047.67772,0.09078
6049.60618,0.05023
6051.53465,0.01945
6053.46312,0.04739
6055.39159,0.06928
6057.32006,0.04182
6059.24853,0.03529
6061.17700,0.05859
6063.10546,0.07561
6065.03393,0.08089
6066.96240,0.07216
6068.89087,0.05788
6070.81934,0.03730
6072.74781,0.02166
6074.67628,0.02806
6076.60475,0.02073
6078.53321,-0.01702
6080.46168,-0.03213
6082.39015,0.01585
6084.31862,0.06721
6086.24709,0.06788
6088.17556,0.07229
6090.10403,0.09553
6092.03249,0.12092
6093.96096,0.13561
6095.88943,0.09577
6097.81790,0.03654
6099.74637,0.02127
6101.67484,0.03647
6103.60331,0.03632
6105.53177,0.01731
6107.46024,0.02834
6109.38871,0.06421
6111.31718,0.05372
6113.24565,-0.00303
6115.17412,-0.06541
6117.10259,-0.08340
6119.03106,-0.00740
6120.95952,0.08377
6122.88799,0.09642
6124.81646,0.05640
6126.74493,0.01607
6128.67340,0.00127
6130.60187,0.02318
6132.53034,0.07328
6134.45880,0.10662
6136.38727,0.10322
6138.31574,0.08789
6140.24421,0.07074
6142.17268,0.07305
6144.10115,0.10398
6146.02962,0.11072
6147.95809,0.09643
6149.88655,0.09881
6151.81502,0.10877
6153.74349,0.12223
6155.67196,0.13456
6157.60043,0.14214
6159.52890,0.15512
6161.45737,0.13536
6163.38583,0.07074
6165.31430,0.01378
6167.24277,-0.01425
6169.17124,-0.00852
6171.09971,0.01612
6173.02818,0.01838
6174.95665,0.00868
6176.88512,0.02781
6178.81358,0.07994
6180.74205,0.12143
6182.67052,0.11846
6184.59899,0.07612
6186.52746,0.01324
6188.45593,-0.01570
6190.38440,-0.00352
6192.31286,-0.01108
6194.24133,-0.01122
6196.16980,0.02137
6198.09827,0.02094
6200.02674,-0.00277
6201.95521,0.00309
6203.88368,0.00102
6205.81215,-0.01835
6207.74061,0.01171
6209.66908,0.09808
6211.59755,0.15514
6213.52602,0.13373
6215.45449,0.09395
6217.38296,0.07583
6219.31143,0.05745
6221.23989,0.03288
6223.16836,-0.00310
6225.09683,-0.04610
6227.02530,-0.03215
6228.95377,0.04756
6230.88224,0.11769
6232.81071,0.11668
6234.73918,0.07395
6236.66764,0.05431
6238.59611,0.05698
6240.52458,0.07274
6242.45305,0.08250
6244.38152,0.07007
6246.30999,0.06482
6248.23846,0.05805
6250.16692,0.06087
6252.09539,0.12049
6254.02386,0.19875
6255.95233,0.24127
6257.88080,0.20787
6259.80927,0.09938
6261.73774,0.02794
6263.66621,0.03913
6265.59467,0.02185
6267.52314,-0.02905
6269.45161,-0.03509
6271.38008,-0.01076
6273.30855,0.05202
6275.23702,0.14397
6277.16549,0.16463
6279.09395,0.09599
6281.02242,0.02116
6282.95089,-0.00271
6284.87936,0.00399
6286.80783,0.00465
6288.73630,0.01417
6290.66477,0.02336
6292.59323,0.01052
6294.52170,0.01638
6296.45017,0.05462
6298.37864,0.07992
6300.30711,0.05992
6302.23558,-0.00387
6304.16405,-0.04543
6306.09252,-0.03648
6308.02098,-0.01975
6309.94945,0.02771
6311.87792,0.11153
6313.80639,0.14632
6315.73486,0.09392
6317.66333,0.01766
6319.59180,-0.01534
6321.52026,-0.00994
6323.44873,0.03034
6325.37720,0.07405
6327.30567,0.10213
6329.23414,0.13301
6331.16261,0.10843
6333.09108,0.03980
6335.01955,0.02793
6336.94801,0.05694
6338.87648,0.05024
6340.80495,-0.00121
6342.73342,-0.02334
6344.66189,0.01792
6346.59036,0.04547
6348.51883,0.02547
6350.44729,0.03032
6352.37576,0.06535
6354.30423,0.07049
6356.23270,0.04711
6358.16117,0.02839
6360.08964,0.07681
6362.01811,0.14173
6363.94658,0.11520
6365.87504,0.05313
6367.80351,0.05201
6369.73198,0.04921
6371.66045,0.00703
6373.58892,-0.01713
6375.51739,-0.00707
6377.44586,0.02717
6379.37432,0.03262
6381.30279,0.00867
6383.23126,0.01683
6385.15973,0.02219
6387.08820,0.01548
6389.01667,0.03148
6390.94514,0.01197
6392.87361,-0.06802
6394.80207,-0.10888
6396.73054,-0.06879
6398.65901,0.01778
6400.58748,0.07996
6402.51595,0.05889
6404.44442,-0.01262
6406.37289,-0.06126
6408.30135,-0.04251
6410.22982,-0.00892
6412.15829,-0.02578
6414.08676,-0.07665
6416.01523,-0.07390
6417.94370,0.02147
6419.87217,0.08443
6421.80064,0.05313
6423.72910,0.02731
6425.65757,0.04902
6427.58604,0.05975
6429.51451,0.07238
6431.44298,0.10901
6433.37145,0.10584
6435.29992,0.08477
6437.22838,0.06449
6439.15685,0.02777
6441.08532,0.03692
6443.01379,0.08689
6444.94226,0.10119
6446.87073,0.08148
6448.79920,0.05841
6450.72766,0.05632
6452.65613,0.07193
6454.58460,0.06431
6456.51307,0.02519
6458.44154,0.00652
6460.37001,0.04491
6462.29848,0.08856
6464.22695,0.09518
6466.15541,0.05555
6468.08388,-0.02992
6470.01235,-0.08844
6471.94082,-0.08156
6473.86929,-0.02203
6475.79776,0.08495
6477.72623,0.14916
6479.65469,0.13581
6481.58316,0.13933
6483.51163,0.14857
6485.44010,0.07681
6487.36857,-0.03583
6489.29704,-0.10953
6491.22551,-0.12814
6493.15398,-0.09679
6495.08244,-0.03868
6497.01091,0.01452
6498.93938,0.03391
6500.86785,0.01429
6502.79632,-0.01173
6504.72479,-0.02516
6506.65326,-0.00890
6508.58172,0.01610
6510.51019,0.01199
6512.43866,0.02824
6514.36713,0.06692
6516.29560,0.07000
6518.22407,0.07834
6520.15254,0.10240
6522.08101,0.06081
6524.00947,-0.01969
6525.93794,-0.02770
6527.86641,0.01453
6529.79488,0.05627
6531.72335,0.05979
6533.65182,-0.01177
6535.58029,-0.03173
6537.50875,0.06908
6539.43722,0.11176
6541.36569,0.03411
6543.29416,-0.02047
6545.22263,0.00312
6547.15110,0.05768
6549.07957,0.06687
6551.00804,-0.00427
6552.93650,-0.05472
6554.86497,-0.02715
6556.79344,0.00691
6558.72191,-0.00252
6560.65038,-0.01790
6562.57885,-0.02069
6564.50732,-0.03589
6566.43578,-0.02299
6568.36425,0.05027
6570.29272,0.09708
6572.22119,0.07450
6574.14966,0.04367
6576.07813,0.04497
6578.00660,0.08457
6579.93507,0.11116
6581.86353,0.07017
6583.79200,-0.01129
6585.72047,-0.07680
6587.64894,-0.06132
6589.57741,0.02671
6591.50588,0.06100
6593.43435,-0.00906
6595.36281,-0.02605
6597.29128,0.07357
6599.21975,0.10903
6601.14822,0.02023
6603.07669,-0.02765
6605.00516,-0.01487
6606.93363,-0.00387
6608.86210,0.02382
6610.79056,0.07123
6612.71903,0.09855
6614.64750,0.09860
6616.57597,0.03816
6618.50444,-0.05427
6620.43291,-0.07605
6622.36138,-0.05648
6624.28984,-0.03860
6626.21831,-0.00729
6628.14678,0.03014
6630.07525,0.06242
6632.00372,0.06462
6633.93219,0.02882
6635.86066,0.00502
6637.78912,0.08156
6639.71759,0.16265
6641.64606,0.09760
6643.57453,-0.02020
6645.50300,-0.03816
6647.43147,0.01457
6649.35994,0.04944
6651.28841,0.05673
6653.21687,0.09969
6655.14534,0.17748
6657.07381,0.17359
6659.00228,0.05347
6660.93075,-0.04364
6662.85922,-0.03272
6664.78769,0.02152
6666.71615,0.02862
6668.64462,0.01087
6670.57309,0.06673
6672.50156,0.12695
6674.43003,0.10608
6676.35850,0.08557
6678.28697,0.07406
6680.21544,0.04689
6682.14390,0.00393
6684.07237,-0.04576
6686.00084,-0.02372
6687.92931,0.07758
6689.85778,0.11775
6691.78625,0.07766
6693.71472,0.07275
6695.64318,0.12981
6697.57165,0.18451
6699.50012,0.17208
6701.42859,0.11042
6703.35706,0.08228
6705.28553,0.14484
6707.21400,0.21545
6709.14247,0.18836
6711.07093,0.08765
6712.99940,-0.05078
6714.92787,-0.15697
6716.85634,-0.14474
6718.78481,-0.06864
6720.71328,-0.01240
6722.64175,0.03019
6724.57021,0.05258
6726.49868,0.02601
6728.42715,-0.01305
6730.35562,-0.04278
6732.28409,-0.07106
6734.21256,-0.06533
6736.14103,-0.03435
6738.06950,-0.04289
6739.99796,-0.07746
6741.92643,-0.06293
6743.85490,-0.00335
6745.78337,0.03822
6747.71184,0.05380
6749.64031,0.03131
6751.56878,-0.03453
6753.49724,-0.04838
6755.42571,0.01920
6757.35418,0.07764
6759.28265,0.14193
6761.21112,0.21956
6763.13959,0.18525
6765.06806,0.03897
6766.99653,-0.05314
6768.92499,-0.02883
6770.85346,-0.01338
6772.78193,-0.05892
6774.71040,-0.07078
6776.63887,-0.01138
6778.56734,0.02201
6780.49581,0.03806
6782.42427,0.09663
6784.35274,0.12237
6786.28121,0.06617
6788.20968,0.04432
6790.13815,0.13291
6792.06662,0.19093
6793.99509,0.12963
6795.92355,0.05069
6797.85202,-0.00622
6799.78049,-0.06665
6801.70896,-0.06711
6803.63743,0.01787
6805.56590,0.03336
6807.49437,-0.01897
6809.42284,-0.02032
6811.35130,0.05252
6813.27977,0.16396
6815.20824,0.21832
6817.13671,0.16299
6819.06518,0.06686
6820.99365,-0.00003
6822.92212,0.00592
6824.85058,0.06719
6826.77905,0.06953
6828.70752,0.00689
6830.63599,0.01754
6832.56446,0.10861
6834.49293,0.14873
6836.42140,0.07493
6838.34987,-0.01007
6840.27833,0.03364
6842.20680,0.13393
6844.13527,0.13237
6846.06374,0.06561
6847.99221,0.03682
6849.92068,0.02501
6851.84915,0.04971
6853.77761,0.13740
6855.70608,0.17204
6857.63455,0.08735
6859.56302,-0.00279
6861.49149,-0.05505
6863.41996,-0.09467
6865.34843,-0.08310
6867.27690,0.00228
6869.20536,0.07212
6871.13383,0.05767
6873.06230,0.04032
6874.99077,0.09691
6876.91924,0.09887
6878.84771,0.01460
6880.77618,0.02524
6882.70464,0.10753
6884.63311,0.09319
6886.56158,0.02715
6888.49005,-0.02532
6890.41852,-0.05166
6892.34699,-0.00871
6894.27546,0.04326
6896.20393,0.04959
6898.13239,0.05293
6900.06086,0.08737
6901.98933,0.11451
6903.91780,0.10762
6905.84627,0.09078
6907.77474,0.05324
6909.70321,0.03917
6911.63167,0.07193
6913.56014,0.04601
6915.48861,-0.00735
6917.41708,0.04063
6919.34555,0.12101
6921.27402,0.12070
6923.20249,0.08114
6925.13096,0.04612
6927.05942,0.04964
6928.98789,0.06858
6930.91636,0.07107
6932.84483,0.09714
6934.77330,0.15118
6936.70177,0.23277
6938.63024,0.28380
6940.55870,0.18061
6942.48717,0.03183
6944.41564,-0.03399
6946.34411,-0.07357
6948.27258,-0.04360
6950.20105,0.08659
6952.12952,0.20281
6954.05799,0.23890
6955.98645,0.21319
6957.91492,0.16495
6959.84339,0.11254
6961.77186,0.11393
6963.70033,0.13178
6965.62880,0.01987
6967.55727,-0.17773
6969.48573,-0.24739
6971.41420,-0.11565
6973.34267,0.09699
6975.27114,0.22939
6977.19961,0.17669
6979.12808,0.03520
6981.05655,-0.03940
6982.98501,-0.03016
6984.91348,-0.00253
6986.84195,0.00389
6988.77042,0.01548
6990.69889,0.02777
6992.62736,-0.02740
6994.55583,-0.08640
6996.48430,-0.04731
6998.41276,0.03928
7000.34123,0.11598
7002.26970,0.17335
7004.19817,0.15410
7006.12664,0.08397
7008.05511,0.03888
7009.98358,0.05297
7011.91204,0.11698
7013.84051,0.16609
7015.76898,0.17707
7017.69745,0.20253
7019.62592,0.22061
7021.55439,0.18080
7023.48286,0.07790
7025.41133,-0.01824
7027.33979,-0.04362
7029.26826,-0.01610
7031.19673,0.01914
7033.12520,0.03245
7035.05367,-0.01372
7036.98214,-0.10251
7038.91061,-0.15081
7040.83907,-0.10628
7042.76754,0.02125
7044.69601,0.10139
7046.62448,0.04907
7048.55295,-0.07497
7050.48142,-0.10087
7052.40989,-0.02458
7054.33836,-0.02903
7056.26682,-0.05071
7058.19529,0.07201
7060.12376,0.21275
7062.05223,0.26448
7063.98070,0.18915
7065.90917,0.08934
7067.83764,0.07574
7069.76610,0.08958
7071.69457,0.07329
7073.62304,0.03693
7075.55151,0.01152
7077.47998,0.02948
7079.40845,0.06526
7081.33692,0.06150
7083.26539,0.05405
7085.19385,0.09770
7087.12232,0.15073
7089.05079,0.13577
7090.97926,0.04760
7092.90773,-0.03513
7094.83620,-0.04889
7096.76467,0.00639
7098.69313,0.10287
7100.62160,0.13523
7102.55007,0.05126
7104.47854,-0.04775
7106.40701,-0.02752
7108.33548,0.04560
7110.26395,0.06056
7112.19242,0.15156
7114.12088,0.34825
7116.04935,0.40494
7117.97782,0.17432
7119.90629,-0.05043
7121.83476,-0.03806
7123.76323,0.06311
7125.69170,0.09934
7127.62016,0.08228
7129.54863,0.10102
7131.47710,0.12882
7133.40557,0.07247
7135.33404,-0.01890
7137.26251,-0.05405
7139.19098,-0.11009
7141.11944,-0.27623
7143.04791,-0.34486
7144.97638,-0.11104
7146.90485,0.15592
7148.83332,0.16553
7150.76179,0.06669
7152.69026,0.08192
7154.61873,0.22625
7156.54719,0.30780
7158.47566,0.28559
7160.40413,0.21394
7162.33260,0.12115
7164.26107,0.03761
7166.18954,-0.00597
7168.11801,0.03182
7170.04647,0.07159
7171.97494,-0.00688
7173.90341,-0.08508
7175.83188,-0.07504
7177.76035,-0.03697
7179.68882,0.01177
7181.61729,0.05796
7183.54576,0.11679
7185.47422,0.19491
7187.40269,0.25026
7189.33116,0.27401
7191.25963,0.19258
7193.18810,0.07569
7195.11657,0.05633
7197.04504,0.10436
7198.97350,0.23497
7200.90197,0.36072
7202.83044,0.30115
7204.75891,0.08138
7206.68738,0.01385
7208.61585,0.05942
7210.54432,0.04359
7212.47279,0.01362
7214.40125,0.06228
7216.32972,0.11610
7218.25819,-0.00656
7220.18666,-0.12954
7222.11513,-0.06333
7224.04360,0.01583
7225.97207,-0.06543
7227.90053,-0.15269
7229.82900,-0.06028
7231.75747,0.01330
7233.68594,-0.07172
7235.61441,-0.06886
7237.54288,0.08744
7239.47135,0.14393
7241.39982,0.03134
7243.32828,-0.06540
7245.25675,-0.10120
7247.18522,-0.12629
7249.11369,-0.08345
7251.04216,0.08986
7252.97063,0.27947
7254.89910,0.25100
7256.82756,0.13501
7258.75603,0.11774
7260.68450,0.20993
7262.61297,0.31405
7264.54144,0.33751
7266.46991,0.24250
7268.39838,0.10650
7270.32685,0.08622
7272.25531,0.18135
7274.18378,0.18427
7276.11225,0.12073
7278.04072,0.08012
7279.96919,0.11809
7281.89766,0.14881
7283.82613,0.10295
7285.75459,0.14149
7287.68306,0.27974
7289.61153,0.34152
7291.54000,0.19183
7293.46847,0.00720
7295.39694,-0.03162
7297.32541,-0.03911
7299.25387,-0.07323
7301.18234,-0.10087
7303.11081,-0.14056
7305.03928,-0.14241
7306.96775,-0.02532
7308.89622,0.05378
7310.82469,-0.04704
7312.75316,-0.09640
7314.68162,-0.11984
7316.61009,-0.25360
7318.53856,-0.27870
7320.46703,-0.17005
7322.39550,-0.10360
7324.32397,-0.01864
7326.25244,0.09340
7328.18090,0.15709
7330.10937,0.15666
7332.03784,0.12622
7333.96631,0.11233
7335.89478,0.05699
7337.82325,-0.06787
7339.75172,-0.23910
7341.68019,-0.33501
7343.60865,-0.26904
7345.53712,-0.18107
7347.46559,-0.16257
7349.39406,-0.10327
7351.32253,0.02315
7353.25100,0.13430
7355.17947,0.26927
7357.10793,0.39258
7359.03640,0.31842
7360.96487,0.16199
7362.89334,0.14159
7364.82181,0.13224
7366.75028,0.02560
7368.67875,-0.08584
7370.60722,-0.08600
7372.53568,0.05000
7374.46415,0.21679
7376.39262,0.15483
7378.32109,0.02786
7380.24956,0.02533
7382.17803,0.05146
7384.10650,0.00584
7386.03496,-0.00358
7387.96343,0.18898
7389.89190,0.39518
7391.82037,0.37114
7393.74884,0.16034
7395.67731,-0.02313
7397.60578,-0.04806
7399.53425,-0.00078
7401.46271,0.00914
7403.39118,-0.02450
7405.31965,0.01924
7407.24812,0.18797
7409.17659,0.30077
7411.10506,0.30337
7413.03353,0.28044
7414.96199,0.22913
7416.89046,0.15590
7418.81893,0.08168
7420.74740,0.08251
7422.67587,0.15351
7424.60434,0.14517
7426.53281,0.10617
7428.46128,0.14295
7430.38974,0.22402
7432.31821,0.30484
7434.24668,0.42821
7436.17515,0.51831
7438.10362,0.41815
7440.03209,0.19023
7441.96056,0.02177
7443.88902,-0.07537
7445.81749,-0.07300
7447.74596,0.09139
7449.67443,0.23213
7451.60290,0.03768
7453.53137,-0.26293
7455.45984,-0.30777
7457.38831,-0.21113
7459.31677,-0.02465
7461.24524,0.19521
7463.17371,0.21706
7465.10218,0.14555
7467.03065,0.12793
7468.95912,0.11961
7470.88759,0.16870
7472.81605,0.26090
7474.74452,0.32948
7476.67299,0.38959
7478.60146,0.30439
7480.52993,0.05865
7482.45840,-0.07640
7484.38687,-0.10537
7486.31533,-0.16099
7488.24380,-0.12563
7490.17227,0.04892
7492.10074,0.14351
7494.02921,0.06360
7495.95768,-0.02476
7497.88615,-0.02441
