399.19301,2.31522
401.12148,0.80274
403.04995,0.54870
404.97842,0.40303
406.90689,0.24494
408.83536,0.12787
410.76382,0.10044
412.69229,0.10672
414.62076,0.10556
416.54923,0.09055
418.47770,0.03889
420.40617,-0.02357
422.33464,-0.03909
424.26311,-0.04286
426.19157,-0.03792
428.12004,0.01473
430.04851,0.10912
431.97698,0.13010
433.90545,0.05103
435.83392,-0.00459
437.76239,-0.02296
439.69085,-0.04217
441.61932,-0.04181
443.54779,0.02906
445.47626,0.12457
447.40473,0.12595
449.33320,-0.01275
451.26167,-0.17431
453.19013,-0.23937
455.11860,-0.21989
457.04707,-0.15466
458.97554,-0.09621
460.90401,-0.09005
462.83248,-0.08262
464.76095,-0.04187
466.68942,-0.00628
468.61788,0.02606
470.54635,0.08819
472.47482,0.15084
474.40329,0.12888
476.33176,0.05677
478.26023,-0.00332
480.18870,-0.03969
482.11716,-0.00725
484.04563,0.06646
485.97410,0.09600
487.90257,0.07713
489.83104,0.04612
491.75951,0.03080
493.68798,0.03021
495.61645,0.04786
497.54491,0.09771
499.47338,0.13017
501.40185,0.09137
503.33032,0.02461
505.25879,-0.01481
507.18726,-0.02925
509.11573,-0.02182
511.04419,-0.00111
512.97266,0.02360
514.90113,0.01517
516.82960,-0.01587
518.75807,-0.00460
520.68654,0.00758
522.61501,-0.01107
524.54348,-0.02885
526.47194,-0.03912
528.40041,-0.03769
530.32888,-0.01779
532.25735,0.01368
534.18582,0.03963
536.11429,0.03605
538.04276,0.02530
539.97122,0.04827
541.89969,0.06807
543.82816,0.04268
545.75663,0.01178
547.68510,0.00995
549.61357,0.01920
551.54204,0.02926
553.47051,0.04097
555.39897,0.02677
557.32744,-0.01245
559.25591,-0.01287
561.18438,0.03591
563.11285,0.08039
565.04132,0.09661
566.96979,0.08197
568.89825,0.06045
570.82672,0.05609
572.75519,0.04530
574.68366,0.03416
576.61213,0.04749
578.54060,0.05988
580.46907,0.04221
582.39754,0.00055
584.32600,-0.02022
586.25447,0.01395
588.18294,0.05790
590.11141,0.04209
592.03988,-0.01217
593.96835,-0.02955
595.89682,-0.00318
597.82528,0.02666
599.75375,0.03539
601.68222,0.02322
603.61069,0.01167
605.53916,0.01926
607.46763,0.03361
609.39610,0.03004
611.32456,0.00863
613.25303,-0.00745
615.18150,0.00269
617.10997,0.02525
619.03844,0.03105
620.96691,0.03077
622.89538,0.04014
624.82385,0.04858
626.75231,0.05117
628.68078,0.04435
630.60925,0.02877
632.53772,0.02140
634.46619,0.01602
636.39466,0.00187
638.32313,-0.00618
640.25159,-0.00807
642.18006,-0.00742
644.10853,0.00352
646.03700,0.02565
647.96547,0.05048
649.89394,0.06287
651.82241,0.05713
653.75088,0.04012
655.67934,0.02177
657.60781,0.01098
659.53628,0.01733
661.46475,0.03233
663.39322,0.03480
665.32169,0.02382
667.25016,0.01866
669.17862,0.04498
671.10709,0.05992
673.03556,0.05392
674.96403,0.05017
676.89250,0.05345
678.82097,0.05609
680.74944,0.04940
682.67791,0.04934
684.60637,0.05931
686.53484,0.05433
688.46331,0.05122
690.39178,0.06488
692.32025,0.06320
694.24872,0.04641
696.17719,0.03515
698.10565,0.02617
700.03412,0.02065
701.96259,0.02175
703.89106,0.02684
705.81953,0.03660
707.74800,0.04639
709.67647,0.04940
711.60494,0.05092
713.53340,0.05756
715.46187,0.06465
717.39034,0.06325
719.31881,0.05252
721.24728,0.04626
723.17575,0.04649
725.10422,0.04154
727.03268,0.03718
728.96115,0.04073
730.88962,0.04834
732.81809,0.05331
734.74656,0.04629
736.67503,0.02757
738.60350,0.01438
740.53197,0.02145
742.46043,0.04028
744.38890,0.05221
746.31737,0.04892
748.24584,0.03834
750.17431,0.03854
752.10278,0.04699
754.03125,0.04458
755.95971,0.03612
757.88818,0.03603
759.81665,0.04369
761.74512,0.04685
763.67359,0.04043
765.60206,0.03873
767.53053,0.04263
769.45900,0.04027
771.38746,0.03336
773.31593,0.02838
775.24440,0.03263
777.17287,0.04336
779.10134,0.04674
781.02981,0.04487
782.95828,0.04495
784.88674,0.04426
786.81521,0.04484
788.74368,0.04751
790.67215,0.05034
792.60062,0.05539
794.52909,0.05781
796.45756,0.05484
798.38602,0.05079
800.31449,0.04466
802.24296,0.03604
804.17143,0.03173
806.09990,0.03950
808.02837,0.05187
809.95684,0.05117
811.88531,0.04194
813.81377,0.03697
815.74224,0.03422
817.67071,0.03213
819.59918,0.02719
821.52765,0.01913
823.45612,0.01724
825.38459,0.01849
827.31305,0.02001
829.24152,0.02712
831.16999,0.03650
833.09846,0.04439
835.02693,0.04959
836.95540,0.05298
838.88387,0.05287
840.81234,0.04521
842.74080,0.03642
844.66927,0.03100
846.59774,0.03123
848.52621,0.03645
850.45468,0.03390
852.38315,0.03091
854.31162,0.03862
856.24008,0.03924
858.16855,0.03034
860.09702,0.03098
862.02549,0.04345
863.95396,0.05508
865.88243,0.05466
867.81090,0.04831
869.73937,0.04707
871.66783,0.04260
873.59630,0.03559
875.52477,0.03693
877.45324,0.03907
879.38171,0.03806
881.31018,0.04037
883.23865,0.04719
885.16711,0.05286
887.09558,0.04925
889.02405,0.03995
890.95252,0.03557
892.88099,0.03524
894.80946,0.03154
896.73793,0.02858
898.66640,0.03251
900.59486,0.03802
902.52333,0.04358
904.45180,0.04947
906.38027,0.05112
908.30874,0.04913
910.23721,0.04508
912.16568,0.04187
914.09414,0.04511
916.02261,0.05123
917.95108,0.05345
919.87955,0.05334
921.80802,0.05135
923.73649,0.04761
925.66496,0.04734
927.59343,0.04760
929.52189,0.04495
931.45036,0.04529
933.37883,0.04843
935.30730,0.05018
937.23577,0.04999
939.16424,0.04970
941.09271,0.05346
943.02117,0.06179
944.94964,0.06653
946.87811,0.06013
948.80658,0.05067
950.73505,0.04903
952.66352,0.05261
954.59199,0.05433
956.52045,0.05239
958.44892,0.05014
960.37739,0.05009
962.30586,0.05007
964.23433,0.04855
966.16280,0.04985
968.09127,0.05367
970.01974,0.05541
971.94820,0.05528
973.87667,0.05342
975.80514,0.05071
977.73361,0.04626
979.66208,0.03969
981.59055,0.04100
983.51902,0.05147
985.44748,0.05617
987.37595,0.05276
989.30442,0.05146
991.23289,0.05461
993.16136,0.05895
995.08983,0.05752
997.01830,0.04955
998.94677,0.04582
1000.87523,0.04613
1002.80370,0.04023
1004.73217,0.03192
1006.66064,0.03209
1008.58911,0.04035
1010.51758,0.05184
1012.44605,0.05905
1014.37451,0.06149
1016.30298,0.06723
1018.23145,0.06827
1020.15992,0.05894
1022.08839,0.04979
1024.01686,0.04500
1025.94533,0.04351
1027.87380,0.04353
1029.80226,0.04164
1031.73073,0.03936
1033.65920,0.03922
1035.58767,0.03952
1037.51614,0.03955
1039.44461,0.03883
1041.37308,0.03703
1043.30154,0.03574
1045.23001,0.03438
1047.15848,0.03703
1049.08695,0.04730
1051.01542,0.05545
1052.94389,0.05362
1054.87236,0.04893
1056.80083,0.04815
1058.72929,0.04575
1060.65776,0.04365
1062.58623,0.04893
1064.51470,0.05141
1066.44317,0.05218
1068.37164,0.06472
1070.30011,0.07319
1072.22857,0.06410
1074.15704,0.05548
1076.08551,0.05592
1078.01398,0.05604
1079.94245,0.05320
1081.87092,0.04968
1083.79939,0.04765
1085.72786,0.04913
1087.65632,0.05079
1089.58479,0.05100
1091.51326,0.05261
1093.44173,0.05341
1095.37020,0.05160
1097.29867,0.04901
1099.22714,0.05028
1101.15560,0.06055
1103.08407,0.07032
1105.01254,0.06691
1106.94101,0.05547
1108.86948,0.04988
1110.79795,0.05258
1112.72642,0.05654
1114.65489,0.06254
1116.58335,0.06283
1118.51182,0.05253
1120.44029,0.04886
1122.36876,0.05237
1124.29723,0.05210
1126.22570,0.05179
1128.15417,0.05594
1130.08263,0.06034
1132.01110,0.05788
1133.93957,0.05110
1135.86804,0.04961
1137.79651,0.05272
1139.72498,0.05030
1141.65345,0.04414
1143.58191,0.04562
1145.51038,0.05191
1147.43885,0.05470
1149.36732,0.05784
1151.29579,0.06320
1153.22426,0.06301
1155.15273,0.05621
1157.08120,0.05024
1159.00966,0.04651
1160.93813,0.04367
1162.86660,0.04530
1164.79507,0.05133
1166.72354,0.05576
1168.65201,0.05426
1170.58048,0.04993
1172.50894,0.04867
1174.43741,0.05078
1176.36588,0.05472
1178.29435,0.05759
1180.22282,0.05600
1182.15129,0.05185
1184.07976,0.05018
1186.00823,0.05309
1187.93669,0.05612
1189.86516,0.05525
1191.79363,0.05279
1193.72210,0.05340
1195.65057,0.05591
1197.57904,0.05525
1199.50751,0.05369
1201.43597,0.05446
1203.36444,0.05526
1205.29291,0.05446
1207.22138,0.05234
1209.14985,0.05232
1211.07832,0.05752
1213.00679,0.06178
1214.93526,0.05971
1216.86372,0.05603
1218.79219,0.05311
1220.72066,0.05063
1222.64913,0.05216
1224.57760,0.05735
1226.50607,0.06057
1228.43454,0.05940
1230.36300,0.05518
1232.29147,0.05243
1234.21994,0.05533
1236.14841,0.05917
1238.07688,0.05880
1240.00535,0.05635
1241.93382,0.05417
1243.86229,0.05314
1245.79075,0.05409
1247.71922,0.05694
1249.64769,0.05939
1251.57616,0.05860
1253.50463,0.05655
1255.43310,0.05574
1257.36157,0.05297
1259.29003,0.04751
1261.21850,0.04490
1263.14697,0.04663
1265.07544,0.04823
1267.00391,0.04775
1268.93238,0.04753
1270.86085,0.05137
1272.78932,0.05765
1274.71778,0.05859
1276.64625,0.05438
1278.57472,0.05199
1280.50319,0.05145
1282.43166,0.05076
1284.36013,0.05178
1286.28860,0.05258
1288.21706,0.05181
1290.14553,0.05265
1292.07400,0.05456
1294.00247,0.05623
1295.93094,0.05556
1297.85941,0.05012
1299.78788,0.04245
1301.71634,0.03276
1303.64481,0.02442
1305.57328,0.02871
1307.50175,0.04335
1309.43022,0.05338
1311.35869,0.05661
1313.28716,0.05746
1315.21563,0.05576
1317.14409,0.05359
1319.07256,0.05251
1321.00103,0.05332
1322.92950,0.05539
1324.85797,0.05318
1326.78644,0.04605
1328.71491,0.04061
1330.64337,0.03958
1332.57184,0.04244
1334.50031,0.04668
1336.42878,0.04913
1338.35725,0.05134
1340.28572,0.05132
1342.21419,0.05032
1344.14266,0.05295
1346.07112,0.05393
1347.99959,0.05201
1349.92806,0.05202
1351.85653,0.05236
1353.78500,0.05095
1355.71347,0.04959
1357.64194,0.04823
1359.57040,0.04771
1361.49887,0.04972
1363.42734,0.05125
1365.35581,0.05174
1367.28428,0.05331
1369.21275,0.05572
1371.14122,0.05846
1373.06969,0.06103
1374.99815,0.06217
1376.92662,0.06244
1378.85509,0.06364
1380.78356,0.06340
1382.71203,0.06072
1384.64050,0.05975
1386.56897,0.06058
1388.49743,0.05839
1390.42590,0.05608
1392.35437,0.05788
1394.28284,0.06038
1396.21131,0.05881
1398.13978,0.05515
1400.06825,0.05410
1401.99672,0.05673
1403.92518,0.06190
1405.85365,0.06525
1407.78212,0.06343
1409.71059,0.06221
1411.63906,0.06333
1413.56753,0.06347
1415.49600,0.06420
1417.42446,0.06766
1419.35293,0.07010
1421.28140,0.06711
1423.20987,0.06172
1425.13834,0.05824
1427.06681,0.06088
1428.99528,0.06649
1430.92375,0.06547
1432.85221,0.05867
1434.78068,0.05680
1436.70915,0.06199
1438.63762,0.06267
1440.56609,0.05880
1442.49456,0.05709
1444.42303,0.05720
1446.35149,0.05862
1448.27996,0.06036
1450.20843,0.05980
1452.13690,0.06086
1454.06537,0.06608
1455.99384,0.06957
1457.92231,0.06416
1459.85077,0.05941
1461.77924,0.05889
1463.70771,0.06028
1465.63618,0.06281
1467.56465,0.06563
1469.49312,0.06790
1471.42159,0.06663
1473.35006,0.06056
1475.27852,0.05656
1477.20699,0.05615
1479.13546,0.05725
1481.06393,0.06023
1482.99240,0.06507
1484.92087,0.06985
1486.84934,0.07256
1488.77780,0.07116
1490.70627,0.06646
1492.63474,0.06471
1494.56321,0.06837
1496.49168,0.07202
1498.42015,0.06731
1500.34862,0.06110
1502.27709,0.06007
1504.20555,0.06321
1506.13402,0.07020
1508.06249,0.07585
1509.99096,0.07452
1511.91943,0.06996
1513.84790,0.06392
1515.77637,0.06161
1517.70483,0.06760
1519.63330,0.07486
1521.56177,0.07565
1523.49024,0.07121
1525.41871,0.06876
1527.34718,0.06791
1529.27565,0.06722
1531.20412,0.06821
1533.13258,0.06913
1535.06105,0.06834
1536.98952,0.06912
1538.91799,0.07414
1540.84646,0.07859
1542.77493,0.07237
1544.70340,0.06587
1546.63186,0.06261
1548.56033,0.06036
1550.48880,0.05959
1552.41727,0.06293
1554.34574,0.06783
1556.27421,0.06979
1558.20268,0.07217
1560.13115,0.07408
1562.05961,0.07040
1563.98808,0.06874
1565.91655,0.06992
1567.84502,0.07017
1569.77349,0.06976
1571.70196,0.07132
1573.63043,0.07336
1575.55889,0.07605
1577.48736,0.07530
1579.41583,0.06962
1581.34430,0.06490
1583.27277,0.06358
1585.20124,0.06455
1587.12971,0.06530
1589.05818,0.06616
1590.98664,0.06699
1592.91511,0.06616
1594.84358,0.06566
1596.77205,0.06636
1598.70052,0.06666
1600.62899,0.06626
1602.55746,0.06661
1604.48592,0.06818
1606.41439,0.06661
1608.34286,0.06083
1610.27133,0.05623
1612.19980,0.05745
1614.12827,0.06470
1616.05674,0.07184
1617.98521,0.06942
1619.91367,0.06389
1621.84214,0.06124
1623.77061,0.06202
1625.69908,0.06480
1627.62755,0.06585
1629.55602,0.06484
1631.48449,0.06463
1633.41295,0.06929
1635.34142,0.08012
1637.26989,0.08120
1639.19836,0.07417
1641.12683,0.07173
1643.05530,0.07244
1644.98377,0.07427
1646.91223,0.07672
1648.84070,0.07520
1650.76917,0.07297
1652.69764,0.07349
1654.62611,0.06928
1656.55458,0.06457
1658.48305,0.06531
1660.41152,0.06781
1662.33998,0.06622
1664.26845,0.06229
1666.19692,0.06233
1668.12539,0.06883
1670.05386,0.07811
1671.98233,0.07742
1673.91080,0.07374
1675.83926,0.07467
1677.76773,0.07390
1679.69620,0.07064
1681.62467,0.06934
1683.55314,0.07142
1685.48161,0.07224
1687.41008,0.07008
1689.33855,0.06812
1691.26701,0.06565
1693.19548,0.06353
1695.12395,0.06384
1697.05242,0.06585
1698.98089,0.06642
1700.90936,0.06444
1702.83783,0.06447
1704.76629,0.06653
1706.69476,0.06553
1708.62323,0.06211
1710.55170,0.05991
1712.48017,0.06055
1714.40864,0.06464
1716.33711,0.06796
1718.26558,0.06655
1720.19404,0.06556
1722.12251,0.06548
1724.05098,0.06441
1725.97945,0.06298
1727.90792,0.06266
1729.83639,0.06460
1731.76486,0.06861
1733.69332,0.06826
1735.62179,0.06146
1737.55026,0.05833
1739.47873,0.05924
1741.40720,0.06181
1743.33567,0.06280
1745.26414,0.06296
1747.19261,0.06538
1749.12107,0.06910
1751.04954,0.07209
1752.97801,0.07117
1754.90648,0.06612
1756.83495,0.06121
1758.76342,0.06023
1760.69189,0.06297
1762.62035,0.06495
1764.54882,0.06434
1766.47729,0.06540
1768.40576,0.06856
1770.33423,0.07215
1772.26270,0.07375
1774.19117,0.07011
1776.11964,0.06608
1778.04810,0.06388
1779.97657,0.06303
1781.90504,0.06387
1783.83351,0.06520
1785.76198,0.06551
1787.69045,0.06526
1789.61892,0.06630
1791.54738,0.06754
1793.47585,0.06434
1795.40432,0.06037
1797.33279,0.05964
1799.26126,0.06004
1801.18973,0.06029
1803.11820,0.06076
1805.04666,0.06141
1806.97513,0.06337
1808.90360,0.06633
1810.83207,0.06598
1812.76054,0.06261
1814.68901,0.06134
1816.61748,0.06271
1818.54595,0.06128
1820.47441,0.05450
1822.40288,0.05232
1824.33135,0.05897
1826.25982,0.06372
1828.18829,0.06449
1830.11676,0.06645
1832.04523,0.06825
1833.97369,0.06939
1835.90216,0.07028
1837.83063,0.06895
1839.75910,0.06663
1841.68757,0.06650
1843.61604,0.06726
1845.54451,0.06608
1847.47298,0.06328
1849.40144,0.06107
1851.32991,0.06182
1853.25838,0.06462
1855.18685,0.06573
1857.11532,0.06432
1859.04379,0.06228
1860.97226,0.06193
1862.90072,0.06463
1864.82919,0.06756
1866.75766,0.06855
1868.68613,0.06833
1870.61460,0.06615
1872.54307,0.06307
1874.47154,0.06180
1876.40001,0.06235
1878.32847,0.06215
1880.25694,0.06015
1882.18541,0.05843
1884.11388,0.05911
1886.04235,0.06115
1887.97082,0.06198
1889.89929,0.06079
1891.82775,0.05967
1893.75622,0.05965
1895.68469,0.05930
1897.61316,0.05949
1899.54163,0.06081
1901.47010,0.06190
1903.39857,0.06253
1905.32704,0.06323
1907.25550,0.06530
1909.18397,0.06782
1911.11244,0.06733
1913.04091,0.06351
1914.96938,0.05992
1916.89785,0.05990
1918.82632,0.06172
1920.75478,0.06175
1922.68325,0.06105
1924.61172,0.06036
1926.54019,0.05919
1928.46866,0.05967
1930.39713,0.06165
1932.32560,0.06141
1934.25407,0.06005
1936.18253,0.06116
1938.11100,0.06455
1940.03947,0.06765
1941.96794,0.06731
1943.89641,0.06440
1945.82488,0.06289
1947.75335,0.06239
1949.68181,0.06206
1951.61028,0.06300
1953.53875,0.06554
1955.46722,0.06835
1957.39569,0.06806
1959.32416,0.06423
1961.25263,0.06170
1963.18110,0.06244
1965.10956,0.06372
1967.03803,0.06386
1968.96650,0.06394
1970.89497,0.06469
1972.82344,0.06405
1974.75191,0.06209
1976.68038,0.06078
1978.60884,0.05981
1980.53731,0.05898
1982.46578,0.05787
1984.39425,0.05747
1986.32272,0.06068
1988.25119,0.06541
1990.17966,0.06729
1992.10812,0.06635
1994.03659,0.06356
1995.96506,0.06073
1997.89353,0.06094
1999.82200,0.06388
2001.75047,0.06721
2003.67894,0.06905
2005.60741,0.06767
2007.53587,0.06525
2009.46434,0.06550
2011.39281,0.06690
2013.32128,0.06659
2015.24975,0.06570
2017.17822,0.06522
2019.10669,0.06384
2021.03515,0.06267
2022.96362,0.06357
2024.89209,0.06527
2026.82056,0.06587
2028.74903,0.06384
2030.67750,0.06028
2032.60597,0.05909
2034.53444,0.05875
2036.46290,0.05616
2038.39137,0.05464
2040.31984,0.05680
2042.24831,0.06013
2044.17678,0.06166
2046.10525,0.06130
2048.03372,0.06136
2049.96218,0.06196
2051.89065,0.06072
2053.81912,0.05901
2055.74759,0.05878
2057.67606,0.05933
2059.60453,0.06123
2061.53300,0.06268
2063.46147,0.06123
2065.38993,0.06072
2067.31840,0.06335
2069.24687,0.06496
2071.17534,0.06389
2073.10381,0.06309
2075.03228,0.06475
2076.96075,0.06815
2078.88921,0.06971
2080.81768,0.06824
2082.74615,0.06823
2084.67462,0.07000
2086.60309,0.06921
2088.53156,0.06675
2090.46003,0.06417
2092.38850,0.06218
2094.31696,0.06293
2096.24543,0.06594
2098.17390,0.06921
2100.10237,0.06907
2102.03084,0.06430
2103.95931,0.06030
2105.88778,0.06007
2107.81624,0.06106
2109.74471,0.06122
2111.67318,0.06119
2113.60165,0.06233
2115.53012,0.06399
2117.45859,0.06412
2119.38706,0.06296
2121.31553,0.06217
2123.24399,0.06103
2125.17246,0.05831
2127.10093,0.05553
2129.02940,0.05526
2130.95787,0.05729
2132.88634,0.05884
2134.81481,0.05879
2136.74327,0.05915
2138.67174,0.06060
2140.60021,0.06104
2142.52868,0.06105
2144.45715,0.06240
2146.38562,0.06369
2148.31409,0.06285
2150.24255,0.06091
2152.17102,0.06027
2154.09949,0.06021
2156.02796,0.06023
2157.95643,0.06174
2159.88490,0.06416
2161.81337,0.06653
2163.74184,0.06798
2165.67030,0.06668
2167.59877,0.06436
2169.52724,0.06523
2171.45571,0.06883
2173.38418,0.07151
2175.31265,0.07203
2177.24112,0.07093
2179.16958,0.06916
2181.09805,0.06760
2183.02652,0.06659
2184.95499,0.06612
2186.88346,0.06600
2188.81193,0.06612
2190.74040,0.06602
2192.66887,0.06535
2194.59733,0.06453
2196.52580,0.06337
2198.45427,0.06149
2200.38274,0.06075
2202.31121,0.06224
2204.23968,0.06356
2206.16815,0.06434
2208.09661,0.06509
2210.02508,0.06460
2211.95355,0.06431
2213.88202,0.06567
2215.81049,0.06718
2217.73896,0.06743
2219.66743,0.06560
2221.59590,0.06257
2223.52436,0.06227
2225.45283,0.06543
2227.38130,0.06645
2229.30977,0.06382
2231.23824,0.06216
2233.16671,0.06267
2235.09518,0.06366
2237.02364,0.06545
2238.95211,0.06613
2240.88058,0.06315
2242.80905,0.06102
2244.73752,0.06295
2246.66599,0.06478
2248.59446,0.06319
2250.52293,0.05933
2252.45139,0.05635
2254.37986,0.05688
2256.30833,0.06093
2258.23680,0.06595
2260.16527,0.06877
2262.09374,0.06739
2264.02221,0.06312
2265.95067,0.06029
2267.87914,0.06085
2269.80761,0.06251
2271.73608,0.06305
2273.66455,0.06236
2275.59302,0.06089
2277.52149,0.05964
2279.44996,0.06098
2281.37842,0.06498
2283.30689,0.06797
2285.23536,0.06923
2287.16383,0.06917
2289.09230,0.06599
2291.02077,0.06159
2292.94924,0.05925
2294.87770,0.05929
2296.80617,0.06083
2298.73464,0.06346
2300.66311,0.06746
2302.59158,0.07099
2304.52005,0.07098
2306.44852,0.06872
2308.37699,0.06794
2310.30545,0.06743
2312.23392,0.06307
2314.16239,0.05583
2316.09086,0.05157
2318.01933,0.05228
2319.94780,0.05139
2321.87627,0.04093
2323.80473,0.02627
2325.73320,0.02246
2327.66167,0.03032
2329.59014,0.03940
2331.51861,0.04345
2333.44708,0.04001
2335.37555,0.03274
2337.30401,0.03475
2339.23248,0.04468
2341.16095,0.04399
2343.08942,0.03689
2345.01789,0.03726
2346.94636,0.04234
2348.87483,0.04799
2350.80330,0.05397
2352.73176,0.05900
2354.66023,0.05728
2356.58870,0.04050
2358.51717,0.01151
2360.44564,0.00243
2362.37411,0.02731
2364.30258,0.04560
2366.23104,0.03991
2368.15951,0.03419
2370.08798,0.03558
2372.01645,0.03957
2373.94492,0.04660
2375.87339,0.05413
2377.80186,0.05960
2379.73033,0.06186
2381.65879,0.05977
2383.58726,0.05628
2385.51573,0.05571
2387.44420,0.05840
2389.37267,0.06222
2391.30114,0.06392
2393.22961,0.06106
2395.15807,0.05726
2397.08654,0.05760
2399.01501,0.06058
2400.94348,0.06274
2402.87195,0.06454
2404.80042,0.06651
2406.72889,0.06605
2408.65736,0.06323
2410.58582,0.06241
2412.51429,0.06358
2414.44276,0.06393
2416.37123,0.06402
2418.29970,0.06345
2420.22817,0.06282
2422.15664,0.06478
2424.08510,0.06724
2426.01357,0.06771
2427.94204,0.06782
2429.87051,0.06740
2431.79898,0.06517
2433.72745,0.06428
2435.65592,0.06627
2437.58439,0.06695
2439.51285,0.06558
2441.44132,0.06448
2443.36979,0.06403
2445.29826,0.06570
2447.22673,0.06836
2449.15520,0.06783
2451.08367,0.06382
2453.01213,0.06063
2454.94060,0.06202
2456.86907,0.06534
2458.79754,0.06677
2460.72601,0.06852
2462.65448,0.07103
2464.58295,0.07137
2466.51142,0.07020
2468.43988,0.06817
2470.36835,0.06415
2472.29682,0.06095
2474.22529,0.06250
2476.15376,0.06663
2478.08223,0.06986
2480.01070,0.07289
2481.93916,0.07498
2483.86763,0.07420
2485.79610,0.07094
2487.72457,0.06680
2489.65304,0.06503
2491.58151,0.06573
2493.50998,0.06599
2495.43844,0.06700
2497.36691,0.06909
2499.29538,0.06843
2501.22385,0.06583
2503.15232,0.06418
2505.08079,0.06255
2507.00926,0.06207
2508.93773,0.06523
2510.86619,0.07005
2512.79466,0.07184
2514.72313,0.07047
2516.65160,0.06972
2518.58007,0.06945
2520.50854,0.06795
2522.43701,0.06583
2524.36547,0.06478
2526.29394,0.06563
2528.22241,0.06684
2530.15088,0.06764
2532.07935,0.06791
2534.00782,0.06702
2535.93629,0.06672
2537.86476,0.06729
2539.79322,0.06550
2541.72169,0.06317
2543.65016,0.06457
2545.57863,0.06670
2547.50710,0.06557
2549.43557,0.06336
2551.36404,0.06298
2553.29250,0.06380
2555.22097,0.06432
2557.14944,0.06579
2559.07791,0.06925
2561.00638,0.07143
2562.93485,0.07050
2564.86332,0.06843
2566.79179,0.06618
2568.72025,0.06463
2570.64872,0.06539
2572.57719,0.06859
2574.50566,0.07086
2576.43413,0.06836
2578.36260,0.06444
2580.29107,0.06380
2582.21953,0.06459
2584.14800,0.06531
2586.07647,0.06621
2588.00494,0.06672
2589.93341,0.06736
2591.86188,0.06806
2593.79035,0.06826
2595.71882,0.06883
2597.64728,0.06881
2599.57575,0.06698
2601.50422,0.06623
2603.43269,0.06743
2605.36116,0.06702
2607.28963,0.06507
2609.21810,0.06477
2611.14656,0.06666
2613.07503,0.06852
2615.00350,0.06822
2616.93197,0.06755
2618.86044,0.06893
2620.78891,0.07026
2622.71738,0.07095
2624.64585,0.07160
2626.57431,0.06983
2628.50278,0.06718
2630.43125,0.06728
2632.35972,0.06819
2634.28819,0.06769
2636.21666,0.06707
2638.14513,0.06679
2640.07359,0.06567
2642.00206,0.06384
2643.93053,0.06275
2645.85900,0.06269
2647.78747,0.06413
2649.71594,0.06724
2651.64441,0.06962
2653.57288,0.07065
2655.50134,0.07206
2657.42981,0.07328
2659.35828,0.07226
2661.28675,0.06995
2663.21522,0.06893
2665.14369,0.06953
2667.07216,0.07164
2669.00062,0.07439
2670.92909,0.07496
2672.85756,0.07289
2674.78603,0.07019
2676.71450,0.06678
2678.64297,0.06404
2680.57144,0.06504
2682.49990,0.06688
2684.42837,0.06629
2686.35684,0.06482
2688.28531,0.06404
2690.21378,0.06448
2692.14225,0.06566
2694.07072,0.06659
2695.99919,0.06758
2697.92765,0.06849
2699.85612,0.06875
2701.78459,0.06945
2703.71306,0.07022
2705.64153,0.07011
2707.57000,0.06961
2709.49847,0.06919
2711.42693,0.06882
2713.35540,0.06742
2715.28387,0.06605
2717.21234,0.06709
2719.14081,0.06951
2721.06928,0.07156
2722.99775,0.07259
2724.92622,0.07108
2726.85468,0.06883
2728.78315,0.06916
2730.71162,0.06937
2732.64009,0.06855
2734.56856,0.06812
2736.49703,0.06651
2738.42550,0.06494
2740.35396,0.06514
2742.28243,0.06653
2744.21090,0.06857
2746.13937,0.07127
2748.06784,0.07304
2749.99631,0.07106
2751.92478,0.06826
2753.85325,0.06860
2755.78171,0.07035
2757.71018,0.07189
2759.63865,0.07314
2761.56712,0.07249
2763.49559,0.06977
2765.42406,0.06840
2767.35253,0.06852
2769.28099,0.06790
2771.20946,0.06778
2773.13793,0.06851
2775.06640,0.07015
2776.99487,0.07281
2778.92334,0.07317
2780.85181,0.07077
2782.78028,0.07027
2784.70874,0.07293
2786.63721,0.07498
2788.56568,0.07503
2790.49415,0.07360
2792.42262,0.07097
2794.35109,0.06970
2796.27956,0.07013
2798.20802,0.07094
2800.13649,0.07352
2802.06496,0.07742
2803.99343,0.07827
2805.92190,0.07404
2807.85037,0.06912
2809.77884,0.06708
2811.70731,0.06685
2813.63577,0.06705
2815.56424,0.06773
2817.49271,0.06915
2819.42118,0.06931
2821.34965,0.07012
2823.27812,0.07506
2825.20659,0.07812
2827.13505,0.07634
2829.06352,0.07531
2830.99199,0.07457
2832.92046,0.07061
2834.84893,0.06660
2836.77740,0.06503
2838.70587,0.06353
2840.63433,0.06311
2842.56280,0.06629
2844.49127,0.07009
2846.41974,0.07106
2848.34821,0.07056
2850.27668,0.07267
2852.20515,0.07679
2854.13362,0.07659
2856.06208,0.07361
2857.99055,0.07461
2859.91902,0.07681
2861.84749,0.07549
2863.77596,0.07242
2865.70443,0.07037
2867.63290,0.07083
2869.56136,0.07374
2871.48983,0.07585
2873.41830,0.07377
2875.34677,0.06875
2877.27524,0.06680
2879.20371,0.07139
2881.13218,0.07829
2883.06065,0.08057
2884.98911,0.07849
2886.91758,0.07788
2888.84605,0.07784
2890.77452,0.07515
2892.70299,0.07151
2894.63146,0.06834
2896.55993,0.06600
2898.48839,0.06635
2900.41686,0.07108
2902.34533,0.07589
2904.27380,0.07597
2906.20227,0.07326
2908.13074,0.07043
2910.05921,0.06810
2911.98768,0.06707
2913.91614,0.06686
2915.84461,0.06654
2917.77308,0.06811
2919.70155,0.07162
2921.63002,0.07261
2923.55849,0.06817
2925.48696,0.06133
2927.41542,0.05829
2929.34389,0.06049
2931.27236,0.06688
2933.20083,0.07309
2935.12930,0.07060
2937.05777,0.06259
2938.98624,0.05975
2940.91471,0.05984
2942.84317,0.05757
2944.77164,0.05452
2946.70011,0.05183
2948.62858,0.05410
2950.55705,0.06311
2952.48552,0.06985
2954.41399,0.06790
2956.34245,0.06218
2958.27092,0.06145
2960.19939,0.06703
2962.12786,0.07265
2964.05633,0.07253
2965.98480,0.06800
2967.91327,0.06580
2969.84174,0.06809
2971.77020,0.07054
2973.69867,0.07207
2975.62714,0.07234
2977.55561,0.06771
2979.48408,0.06442
2981.41255,0.07032
2983.34102,0.07782
2985.26948,0.07708
2987.19795,0.07011
2989.12642,0.06572
2991.05489,0.06594
2992.98336,0.06719
2994.91183,0.06965
2996.84030,0.07217
2998.76877,0.07190
3000.69723,0.06977
3002.62570,0.06955
3004.55417,0.07200
3006.48264,0.07097
3008.41111,0.06430
3010.33958,0.05505
3012.26805,0.04254
3014.19651,0.02604
3016.12498,0.01487
3018.05345,0.02550
3019.98192,0.05316
3021.91039,0.07330
3023.83886,0.07675
3025.76733,0.07191
3027.69579,0.06892
3029.62426,0.07066
3031.55273,0.07428
3033.48120,0.07613
3035.40967,0.07307
3037.33814,0.07033
3039.26661,0.07340
3041.19508,0.07693
3043.12354,0.07920
3045.05201,0.08036
3046.98048,0.07613
3048.90895,0.07083
3050.83742,0.07020
3052.76589,0.07039
3054.69436,0.06557
3056.62282,0.05938
3058.55129,0.06176
3060.47976,0.06961
3062.40823,0.07275
3064.33670,0.06902
3066.26517,0.06266
3068.19364,0.06040
3070.12211,0.06296
3072.05057,0.06717
3073.97904,0.07079
3075.90751,0.06994
3077.83598,0.06769
3079.76445,0.07209
3081.69292,0.07792
3083.62139,0.07235
3085.54985,0.06268
3087.47832,0.06604
3089.40679,0.07653
3091.33526,0.07962
3093.26373,0.07451
3095.19220,0.06937
3097.12067,0.07204
3099.04914,0.07757
3100.97760,0.07501
3102.90607,0.06694
3104.83454,0.06540
3106.76301,0.07195
3108.69148,0.07828
3110.61995,0.07775
3112.54842,0.07160
3114.47688,0.07064
3116.40535,0.07562
3118.33382,0.07550
3120.26229,0.07022
3122.19076,0.06716
3124.11923,0.06843
3126.04770,0.07161
3127.97617,0.07527
3129.90463,0.07756
3131.83310,0.07773
3133.76157,0.07746
3135.69004,0.07535
3137.61851,0.06992
3139.54698,0.06453
3141.47545,0.06500
3143.40391,0.07116
3145.33238,0.07611
3147.26085,0.07507
3149.18932,0.07013
3151.11779,0.06749
3153.04626,0.07048
3154.97473,0.07659
3156.90320,0.08113
3158.83166,0.08277
3160.76013,0.08066
3162.68860,0.07420
3164.61707,0.06762
3166.54554,0.06683
3168.47401,0.07228
3170.40248,0.07872
3172.33094,0.08393
3174.25941,0.08594
3176.18788,0.08275
3178.11635,0.07900
3180.04482,0.07720
3181.97329,0.07650
3183.90176,0.07776
3185.83022,0.07902
3187.75869,0.07807
3189.68716,0.07731
3191.61563,0.07931
3193.54410,0.08246
3195.47257,0.08232
3197.40104,0.07717
3199.32951,0.07244
3201.25797,0.07204
3203.18644,0.07393
3205.11491,0.07619
3207.04338,0.07708
3208.97185,0.07621
3210.90032,0.07617
3212.82879,0.07833
3214.75725,0.08082
3216.68572,0.08045
3218.61419,0.07744
3220.54266,0.07648
3222.47113,0.07810
3224.39960,0.07774
3226.32807,0.07820
3228.25654,0.08266
3230.18500,0.08490
3232.11347,0.08211
3234.04194,0.07892
3235.97041,0.07919
3237.89888,0.08047
3239.82735,0.07996
3241.75582,0.08163
3243.68428,0.08398
3245.61275,0.08205
3247.54122,0.07976
3249.46969,0.07936
3251.39816,0.07764
3253.32663,0.07363
3255.25510,0.06957
3257.18357,0.06832
3259.11203,0.06922
3261.04050,0.07066
3262.96897,0.07378
3264.89744,0.07817
3266.82591,0.07970
3268.75438,0.07746
3270.68285,0.07622
3272.61131,0.07872
3274.53978,0.08244
3276.46825,0.08312
3278.39672,0.08205
3280.32519,0.08377
3282.25366,0.08648
3284.18213,0.08774
3286.11060,0.08724
3288.03906,0.08409
3289.96753,0.07979
3291.89600,0.07599
3293.82447,0.07394
3295.75294,0.07397
3297.68141,0.07504
3299.60988,0.07942
3301.53834,0.08772
3303.46681,0.09417
3305.39528,0.09746
3307.32375,0.10003
3309.25222,0.09887
3311.18069,0.09488
3313.10916,0.09090
3315.03763,0.08392
3316.96609,0.07786
3318.89456,0.07693
3320.82303,0.07549
3322.75150,0.07284
3324.67997,0.07280
3326.60844,0.07418
3328.53691,0.07380
3330.46537,0.06927
3332.39384,0.06230
3334.32231,0.05861
3336.25078,0.06182
3338.17925,0.06921
3340.10772,0.07513
3342.03619,0.07862
3343.96466,0.08270
3345.89312,0.08688
3347.82159,0.08675
3349.75006,0.08300
3351.67853,0.08243
3353.60700,0.08525
3355.53547,0.08421
3357.46394,0.07969
3359.39240,0.07779
3361.32087,0.07712
3363.24934,0.07442
3365.17781,0.07290
3367.10628,0.07685
3369.03475,0.08412
3370.96322,0.08773
3372.89168,0.08352
3374.82015,0.07489
3376.74862,0.07068
3378.67709,0.07477
3380.60556,0.07962
3382.53403,0.07878
3384.46250,0.07685
3386.39097,0.07824
3388.31943,0.08085
3390.24790,0.08242
3392.17637,0.08046
3394.10484,0.07538
3396.03331,0.07415
3397.96178,0.07672
3399.89025,0.07385
3401.81871,0.06818
3403.74718,0.06882
3405.67565,0.07146
3407.60412,0.07051
3409.53259,0.07166
3411.46106,0.07862
3413.38953,0.08456
3415.31800,0.08388
3417.24646,0.07863
3419.17493,0.07187
3421.10340,0.06818
3423.03187,0.07332
3424.96034,0.08114
3426.88881,0.08137
3428.81728,0.07860
3430.74574,0.07888
3432.67421,0.07757
3434.60268,0.07291
3436.53115,0.06824
3438.45962,0.06877
3440.38809,0.07494
3442.31656,0.07914
3444.24503,0.07871
3446.17349,0.07400
3448.10196,0.06642
3450.03043,0.06410
3451.95890,0.06859
3453.88737,0.07311
3455.81584,0.07334
3457.74431,0.07040
3459.67277,0.06719
3461.60124,0.06669
3463.52971,0.07172
3465.45818,0.07876
3467.38665,0.08139
3469.31512,0.07887
3471.24359,0.07406
3473.17206,0.06819
3475.10052,0.06231
3477.02899,0.05944
3478.95746,0.05883
3480.88593,0.05958
3482.81440,0.06418
3484.74287,0.06978
3486.67134,0.07190
3488.59980,0.06967
3490.52827,0.06524
3492.45674,0.06297
3494.38521,0.06436
3496.31368,0.06503
3498.24215,0.06097
3500.17062,0.05888
3502.09909,0.06607
3504.02755,0.07307
3505.95602,0.06897
3507.88449,0.06138
3509.81296,0.06192
3511.74143,0.07003
3513.66990,0.07535
3515.59837,0.07255
3517.52683,0.06603
3519.45530,0.06342
3521.38377,0.06501
3523.31224,0.06415
3525.24071,0.05979
3527.16918,0.05867
3529.09765,0.06102
3531.02611,0.06094
3532.95458,0.05910
3534.88305,0.05756
3536.81152,0.05582
3538.73999,0.05508
3540.66846,0.05635
3542.59693,0.05893
3544.52540,0.06256
3546.45386,0.06520
3548.38233,0.06429
3550.31080,0.06354
3552.23927,0.06608
3554.16774,0.06779
3556.09621,0.06475
3558.02468,0.06165
3559.95314,0.06321
3561.88161,0.06502
3563.81008,0.06426
3565.73855,0.06463
3567.66702,0.06640
3569.59549,0.06521
3571.52396,0.06260
3573.45243,0.06395
3575.38089,0.06854
3577.30936,0.06793
3579.23783,0.06143
3581.16630,0.05801
3583.09477,0.06034
3585.02324,0.06315
3586.95171,0.06043
3588.88017,0.05382
3590.80864,0.05123
3592.73711,0.05432
3594.66558,0.06245
3596.59405,0.06746
3598.52252,0.06456
3600.45099,0.05918
3602.37946,0.05533
3604.30792,0.05362
3606.23639,0.05278
3608.16486,0.05307
3610.09333,0.05602
3612.02180,0.05752
3613.95027,0.05656
3615.87874,0.05965
3617.80720,0.06392
3619.73567,0.06097
3621.66414,0.05618
3623.59261,0.05419
3625.52108,0.05212
3627.44955,0.04896
3629.37802,0.04699
3631.30649,0.05105
3633.23495,0.05748
3635.16342,0.06064
3637.09189,0.05913
3639.02036,0.05602
3640.94883,0.05447
3642.87730,0.05410
3644.80577,0.05214
3646.73423,0.05056
3648.66270,0.05471
3650.59117,0.05605
3652.51964,0.04970
3654.44811,0.04514
3656.37658,0.04529
3658.30505,0.04884
3660.23352,0.05255
3662.16198,0.05410
3664.09045,0.05233
3666.01892,0.04972
3667.94739,0.04988
3669.87586,0.05351
3671.80433,0.06020
3673.73280,0.06755
3675.66126,0.06590
3677.58973,0.05470
3679.51820,0.04836
3681.44667,0.04901
3683.37514,0.05341
3685.30361,0.05508
3687.23208,0.05298
3689.16055,0.05200
3691.08901,0.05192
3693.01748,0.05013
3694.94595,0.04913
3696.87442,0.04967
3698.80289,0.05079
3700.73136,0.05171
3702.65983,0.05150
3704.58829,0.04982
3706.51676,0.04807
3708.44523,0.04910
3710.37370,0.05552
3712.30217,0.05774
3714.23064,0.05079
3716.15911,0.04652
3718.08757,0.04573
3720.01604,0.04570
3721.94451,0.04841
3723.87298,0.05274
3725.80145,0.05464
3727.72992,0.05502
3729.65839,0.05556
3731.58686,0.05468
3733.51532,0.05534
3735.44379,0.06152
3737.37226,0.06151
3739.30073,0.05264
3741.22920,0.04662
3743.15767,0.05117
3745.08614,0.05945
3747.01460,0.05753
3748.94307,0.05344
3750.87154,0.05247
3752.80001,0.05206
3754.72848,0.05203
3756.65695,0.05309
3758.58542,0.05324
3760.51389,0.05221
3762.44235,0.05140
3764.37082,0.04992
3766.29929,0.04662
3768.22776,0.04324
3770.15623,0.04140
3772.08470,0.03939
3774.01317,0.03880
3775.94163,0.04204
3777.87010,0.04626
3779.79857,0.04891
3781.72704,0.05138
3783.65551,0.05031
3785.58398,0.04372
3787.51245,0.04019
3789.44092,0.04342
3791.36938,0.04744
3793.29785,0.04821
3795.22632,0.04533
3797.15479,0.04154
3799.08326,0.04325
3801.01173,0.05264
3802.94020,0.06011
3804.86866,0.05994
3806.79713,0.05862
3808.72560,0.05490
3810.65407,0.04729
3812.58254,0.04126
3814.51101,0.04190
3816.43948,0.04624
3818.36795,0.04492
3820.29641,0.04104
3822.22488,0.04255
3824.15335,0.04785
3826.08182,0.05265
3828.01029,0.05459
3829.93876,0.05216
3831.86723,0.04539
3833.79569,0.03883
3835.72416,0.03691
3837.65263,0.03952
3839.58110,0.04398
3841.50957,0.04366
3843.43804,0.04143
3845.36651,0.04057
3847.29498,0.03842
3849.22344,0.03698
3851.15191,0.03994
3853.08038,0.04640
3855.00885,0.04760
3856.93732,0.04610
3858.86579,0.04804
3860.79426,0.05209
3862.72272,0.05344
3864.65119,0.04841
3866.57966,0.04243
3868.50813,0.04033
3870.43660,0.03972
3872.36507,0.03996
3874.29354,0.04032
3876.22200,0.03707
3878.15047,0.03431
3880.07894,0.04046
3882.00741,0.05119
3883.93588,0.05184
3885.86435,0.04511
3887.79282,0.04330
3889.72129,0.04617
3891.64975,0.04756
3893.57822,0.04552
3895.50669,0.04470
3897.43516,0.04717
3899.36363,0.04742
3901.29210,0.04030
3903.22057,0.03249
3905.14903,0.03081
3907.07750,0.03293
3909.00597,0.03569
3910.93444,0.03730
3912.86291,0.03816
3914.79138,0.04210
3916.71985,0.04670
3918.64832,0.04653
3920.57678,0.04697
3922.50525,0.05002
3924.43372,0.04902
3926.36219,0.04365
3928.29066,0.03854
3930.21913,0.03432
3932.14760,0.03296
3934.07606,0.03288
3936.00453,0.02950
3937.93300,0.02764
3939.86147,0.03180
3941.78994,0.03812
3943.71841,0.04260
3945.64688,0.04443
3947.57535,0.04291
3949.50381,0.03778
3951.43228,0.03260
3953.36075,0.03381
3955.28922,0.04185
3957.21769,0.04702
3959.14616,0.04487
3961.07463,0.04274
3963.00309,0.04286
3964.93156,0.04264
3966.86003,0.04304
3968.78850,0.04481
3970.71697,0.04581
3972.64544,0.04400
3974.57391,0.03950
3976.50238,0.03350
3978.43084,0.03133
3980.35931,0.03454
3982.28778,0.03692
3984.21625,0.03859
3986.14472,0.04188
3988.07319,0.04444
3990.00166,0.04616
3991.93012,0.04691
3993.85859,0.04355
3995.78706,0.03735
3997.71553,0.03344
3999.64400,0.03315
4001.57247,0.03596
4003.50094,0.03930
4005.42941,0.03912
4007.35787,0.03732
4009.28634,0.03726
4011.21481,0.03740
4013.14328,0.03707
4015.07175,0.03701
4017.00022,0.03651
4018.92869,0.03619
4020.85715,0.03786
4022.78562,0.04006
4024.71409,0.03991
4026.64256,0.04045
4028.57103,0.04245
4030.49950,0.04104
4032.42797,0.03716
4034.35644,0.03359
4036.28490,0.03249
4038.21337,0.03572
4040.14184,0.04095
4042.07031,0.04346
4043.99878,0.04047
4045.92725,0.03711
4047.85572,0.03589
4049.78418,0.03140
4051.71265,0.02603
4053.64112,0.02561
4055.56959,0.02640
4057.49806,0.02550
4059.42653,0.02827
4061.35500,0.03192
4063.28346,0.02781
4065.21193,0.02250
4067.14040,0.02757
4069.06887,0.03894
4070.99734,0.04424
4072.92581,0.04219
4074.85428,0.04082
4076.78275,0.04199
4078.71121,0.04108
4080.63968,0.03793
4082.56815,0.03487
4084.49662,0.03020
4086.42509,0.02691
4088.35356,0.03039
4090.28203,0.03457
4092.21049,0.03329
4094.13896,0.03269
4096.06743,0.03434
4097.99590,0.03252
4099.92437,0.02949
4101.85284,0.02731
4103.78131,0.02627
4105.70978,0.02956
4107.63824,0.03250
4109.56671,0.03112
4111.49518,0.03203
4113.42365,0.03711
4115.35212,0.04012
4117.28059,0.04049
4119.20906,0.03769
4121.13752,0.03030
4123.06599,0.02624
4124.99446,0.02633
4126.92293,0.02416
4128.85140,0.02325
4130.77987,0.02460
4132.70834,0.02426
4134.63681,0.02376
4136.56527,0.02388
4138.49374,0.02657
4140.42221,0.03211
4142.35068,0.03453
4144.27915,0.03231
4146.20762,0.02762
4148.13609,0.02687
4150.06455,0.03259
4151.99302,0.03174
4153.92149,0.02137
4155.84996,0.01559
4157.77843,0.01901
4159.70690,0.02817
4161.63537,0.03606
4163.56384,0.03448
4165.49230,0.02717
4167.42077,0.02078
4169.34924,0.01848
4171.27771,0.02109
4173.20618,0.02362
4175.13465,0.02773
4177.06312,0.03498
4178.99158,0.03526
4180.92005,0.02954
4182.84852,0.02933
4184.77699,0.03232
4186.70546,0.03250
4188.63393,0.03156
4190.56240,0.03117
4192.49087,0.03111
4194.41933,0.02974
4196.34780,0.02744
4198.27627,0.02661
4200.20474,0.02843
4202.13321,0.03138
4204.06168,0.03074
4205.99015,0.02734
4207.91861,0.02638
4209.84708,0.02700
4211.77555,0.02793
4213.70402,0.02780
4215.63249,0.02324
4217.56096,0.02040
4219.48943,0.02444
4221.41789,0.02850
4223.34636,0.02834
4225.27483,0.02480
4227.20330,0.02183
4229.13177,0.02506
4231.06024,0.02877
4232.98871,0.02728
4234.91718,0.02869
4236.84564,0.03217
4238.77411,0.03043
4240.70258,0.02964
4242.63105,0.02966
4244.55952,0.02455
4246.48799,0.02148
4248.41646,0.02431
4250.34492,0.02793
4252.27339,0.03068
4254.20186,0.02931
4256.13033,0.02190
4258.05880,0.01484
4259.98727,0.01501
4261.91574,0.02314
4263.84421,0.03067
4265.77267,0.03049
4267.70114,0.02710
4269.62961,0.02660
4271.55808,0.02919
4273.48655,0.03091
4275.41502,0.02748
4277.34349,0.02252
4279.27195,0.02136
4281.20042,0.02160
4283.12889,0.02344
4285.05736,0.02745
4286.98583,0.02870
4288.91430,0.02297
4290.84277,0.01046
4292.77124,0.00106
4294.69970,0.00119
4296.62817,0.00604
4298.55664,0.01061
4300.48511,0.01332
4302.41358,0.01640
4304.34205,0.01928
4306.27052,0.02057
4308.19898,0.02463
4310.12745,0.02859
4312.05592,0.02499
4313.98439,0.01938
4315.91286,0.01735
4317.84133,0.01615
4319.76980,0.01702
4321.69827,0.01922
4323.62673,0.02015
4325.55520,0.02345
4327.48367,0.02977
4329.41214,0.03094
4331.34061,0.02255
4333.26908,0.01354
4335.19755,0.01262
4337.12601,0.01618
4339.05448,0.01766
4340.98295,0.01598
4342.91142,0.01207
4344.83989,0.00791
4346.76836,0.00584
4348.69683,0.00868
4350.62530,0.01472
4352.55376,0.01583
4354.48223,0.01462
4356.41070,0.01797
4358.33917,0.02084
4360.26764,0.01939
4362.19611,0.01618
4364.12458,0.01431
4366.05304,0.01604
4367.98151,0.02016
4369.90998,0.02321
4371.83845,0.02398
4373.76692,0.02153
4375.69539,0.01257
4377.62386,0.00229
4379.55232,0.00208
4381.48079,0.00571
4383.40926,0.00195
4385.33773,-0.00093
4387.26620,0.00356
4389.19467,0.01044
4391.12314,0.01674
4393.05161,0.02132
4394.98007,0.02410
4396.90854,0.02425
4398.83701,0.02146
4400.76548,0.01992
4402.69395,0.01840
4404.62242,0.01139
4406.55089,0.00500
4408.47935,0.00780
4410.40782,0.01555
4412.33629,0.01817
4414.26476,0.01628
4416.19323,0.01821
4418.12170,0.02195
4420.05017,0.01917
4421.97864,0.01003
4423.90710,0.00571
4425.83557,0.00839
4427.76404,0.00786
4429.69251,0.00777
4431.62098,0.01527
4433.54945,0.02269
4435.47792,0.02282
4437.40638,0.02119
4439.33485,0.02391
4441.26332,0.02511
4443.19179,0.02068
4445.12026,0.01378
4447.04873,0.00918
4448.97720,0.01072
4450.90567,0.01019
4452.83413,0.00347
4454.76260,0.00353
4456.69107,0.00937
4458.61954,0.01043
4460.54801,0.01059
4462.47648,0.01456
4464.40495,0.01919
4466.33341,0.02053
4468.26188,0.01836
4470.19035,0.01641
4472.11882,0.01739
4474.04729,0.01779
4475.97576,0.01348
4477.90423,0.00963
4479.83270,0.01327
4481.76116,0.02081
4483.68963,0.02033
4485.61810,0.01191
4487.54657,0.00717
4489.47504,0.00516
4491.40351,0.00437
4493.33198,0.00875
4495.26044,0.01295
4497.18891,0.01494
4499.11738,0.01817
4501.04585,0.02036
4502.97432,0.01882
4504.90279,0.01541
4506.83126,0.01157
4508.75973,0.00658
4510.68819,0.00338
4512.61666,0.00440
4514.54513,0.00797
4516.47360,0.00959
4518.40207,0.00289
4520.33054,-0.00562
4522.25901,-0.00145
4524.18747,0.01162
4526.11594,0.01685
4528.04441,0.01191
4529.97288,0.00797
4531.90135,0.00960
4533.82982,0.01214
4535.75829,0.01042
4537.68676,0.00918
4539.61522,0.01414
4541.54369,0.01853
4543.47216,0.01975
4545.40063,0.01966
4547.32910,0.01517
4549.25757,0.00974
4551.18604,0.00804
4553.11450,0.00618
4555.04297,0.00168
4556.97144,-0.00311
4558.89991,-0.00337
4560.82838,0.00174
4562.75685,0.00523
4564.68532,0.00360
4566.61378,0.00225
4568.54225,0.00850
4570.47072,0.01340
4572.39919,0.00421
4574.32766,-0.00762
4576.25613,-0.00723
4578.18460,0.00217
4580.11307,0.00511
4582.04153,-0.00464
4583.97000,-0.01300
4585.89847,-0.01242
4587.82694,-0.00636
4589.75541,0.00515
4591.68388,0.01477
4593.61235,0.01316
4595.54081,0.00765
4597.46928,0.00673
4599.39775,0.00906
4601.32622,0.00994
4603.25469,0.00841
4605.18316,0.01086
4607.11163,0.01494
4609.04010,0.01337
4610.96856,0.00808
4612.89703,0.00207
4614.82550,-0.00236
4616.75397,-0.00431
4618.68244,-0.00435
4620.61091,-0.00252
4622.53938,-0.00189
4624.46784,0.00051
4626.39631,0.00829
4628.32478,0.01162
4630.25325,0.00757
4632.18172,0.00712
4634.11019,0.01227
4636.03866,0.01516
4637.96713,0.01790
4639.89559,0.02333
4641.82406,0.02413
4643.75253,0.01923
4645.68100,0.01272
4647.60947,0.00606
4649.53794,0.00378
4651.46641,0.01089
4653.39487,0.01823
4655.32334,0.01696
4657.25181,0.01497
4659.18028,0.01042
4661.10875,-0.00118
4663.03722,-0.01196
4664.96569,-0.01782
4666.89416,-0.01754
4668.82262,-0.01064
4670.75109,0.00044
4672.67956,0.00925
4674.60803,0.01046
4676.53650,0.00481
4678.46497,0.00015
4680.39344,0.00255
4682.32190,0.00635
4684.25037,0.00798
4686.17884,0.00869
4688.10731,0.00820
4690.03578,0.00990
4691.96425,0.01672
4693.89272,0.02395
4695.82119,0.02385
4697.74965,0.01597
4699.67812,0.00681
4701.60659,-0.00332
4703.53506,-0.01085
4705.46353,-0.00457
4707.39200,0.00644
4709.32047,0.00574
4711.24893,-0.00278
4713.17740,-0.00388
4715.10587,0.00605
4717.03434,0.01038
4718.96281,0.00104
4720.89128,-0.00934
4722.81975,-0.01296
4724.74821,-0.01195
4726.67668,-0.00619
4728.60515,0.00226
4730.53362,0.00532
4732.46209,0.00323
4734.39056,0.00371
4736.31903,0.00522
4738.24750,0.00480
4740.17596,0.00878
4742.10443,0.01313
4744.03290,0.00690
4745.96137,-0.00024
4747.88984,0.00055
4749.81831,0.00306
4751.74678,0.00824
4753.67524,0.01404
4755.60371,0.01303
4757.53218,0.00915
4759.46065,0.00964
4761.38912,0.00852
4763.31759,0.00199
4765.24606,0.00522
4767.17453,0.01556
4769.10299,0.01307
4771.03146,0.00203
4772.95993,-0.00427
4774.88840,-0.00448
4776.81687,0.00282
4778.74534,0.01482
4780.67381,0.02061
4782.60227,0.01770
4784.53074,0.01218
4786.45921,0.01065
4788.38768,0.01226
4790.31615,0.00996
4792.24462,0.00477
4794.17309,0.00131
4796.10156,0.00664
4798.03002,0.02125
4799.95849,0.02678
4801.88696,0.01649
4803.81543,0.00710
4805.74390,0.01060
4807.67237,0.02113
4809.60084,0.02348
4811.52930,0.01550
4813.45777,0.00878
4815.38624,0.00273
4817.31471,-0.00429
4819.24318,-0.00510
4821.17165,-0.00212
4823.10012,0.00239
4825.02859,0.00720
4826.95705,0.00541
4828.88552,0.00164
4830.81399,-0.00199
4832.74246,-0.00942
4834.67093,-0.01187
4836.59940,-0.00500
4838.52787,0.00114
4840.45633,0.00326
4842.38480,0.00781
4844.31327,0.01714
4846.24174,0.02617
4848.17021,0.02552
4850.09868,0.01555
4852.02715,0.00921
4853.95562,0.01009
4855.88408,0.00832
4857.81255,0.00116
4859.74102,-0.00410
4861.66949,-0.00779
4863.59796,-0.00534
4865.52643,0.01180
4867.45490,0.02800
4869.38336,0.02203
4871.31183,0.00164
4873.24030,-0.00511
4875.16877,0.00907
4877.09724,0.02134
4879.02571,0.01670
4880.95418,0.00848
4882.88265,0.01245
4884.81111,0.01931
4886.73958,0.01485
4888.66805,0.00754
4890.59652,0.01370
4892.52499,0.02457
4894.45346,0.02285
4896.38193,0.00847
4898.31039,-0.00961
4900.23886,-0.01756
4902.16733,-0.01299
4904.09580,-0.00555
4906.02427,0.00514
4907.95274,0.01420
4909.88121,0.00834
4911.80967,-0.00409
4913.73814,-0.00985
4915.66661,-0.00938
4917.59508,-0.00097
4919.52355,0.01015
4921.45202,0.01216
4923.38049,0.00778
4925.30896,0.00691
4927.23742,0.01189
4929.16589,0.01735
4931.09436,0.01617
4933.02283,0.00772
4934.95130,-0.00319
4936.87977,-0.00930
4938.80824,-0.00170
4940.73670,0.01373
4942.66517,0.01617
4944.59364,0.00613
4946.52211,0.00279
4948.45058,0.00227
4950.37905,0.00173
4952.30752,0.01466
4954.23599,0.02645
4956.16445,0.01523
4958.09292,-0.00426
4960.02139,-0.00491
4961.94986,0.01412
4963.87833,0.02565
4965.80680,0.01290
4967.73527,-0.00555
4969.66373,-0.00900
4971.59220,-0.00334
4973.52067,0.00113
4975.44914,0.00570
4977.37761,0.00255
4979.30608,-0.00414
4981.23455,-0.00540
4983.16302,-0.00270
4985.09148,0.01010
4987.01995,0.03444
4988.94842,0.05391
4990.87689,0.05052
4992.80536,0.02324
4994.73383,-0.00525
4996.66230,-0.01481
4998.59076,-0.00827
5000.51923,0.00205
5002.44770,0.00453
5004.37617,0.00219
5006.30464,0.00202
5008.23311,0.00351
5010.16158,0.00219
5012.09005,0.00121
5014.01851,0.00727
5015.94698,0.01385
5017.87545,0.01846
5019.80392,0.01918
5021.73239,0.00896
5023.66086,-0.00147
5025.58933,-0.00427
5027.51779,-0.01196
5029.44626,-0.02418
5031.37473,-0.02033
5033.30320,0.00245
5035.23167,0.01733
5037.16014,0.00772
5039.08861,-0.00860
5041.01708,-0.01009
5042.94554,-0.00055
5044.87401,0.00804
5046.80248,0.00911
5048.73095,-0.00143
5050.65942,-0.01789
5052.58789,-0.02603
5054.51636,-0.01732
5056.44482,0.00568
5058.37329,0.02961
5060.30176,0.04143
5062.23023,0.04004
5064.15870,0.03145
5066.08717,0.02408
5068.01564,0.01852
5069.94410,0.00669
5071.87257,-0.00199
5073.80104,0.00885
5075.72951,0.02601
5077.65798,0.02385
5079.58645,0.00033
5081.51492,-0.01972
5083.44339,-0.01744
5085.37185,-0.00026
5087.30032,0.01435
5089.22879,0.01483
5091.15726,0.01097
5093.08573,0.01696
5095.01420,0.02279
5096.94267,0.01632
5098.87113,0.01187
5100.79960,0.02140
5102.72807,0.02742
5104.65654,0.01931
5106.58501,0.00575
5108.51348,0.00008
5110.44195,0.00553
5112.37042,0.00798
5114.29888,0.00407
5116.22735,-0.00267
5118.15582,-0.01423
5120.08429,-0.01478
5122.01276,-0.00043
5123.94123,0.00246
5125.86970,-0.00197
5127.79816,0.00811
5129.72663,0.02134
5131.65510,0.02455
5133.58357,0.01557
5135.51204,0.00304
5137.44051,0.00903
5139.36898,0.02879
5141.29745,0.03522
5143.22591,0.02348
5145.15438,0.00949
5147.08285,0.00386
5149.01132,0.00441
5150.93979,0.00546
5152.86826,0.00543
5154.79673,0.00415
5156.72519,-0.00072
5158.65366,-0.00925
5160.58213,-0.01366
5162.51060,-0.00426
5164.43907,0.00890
5166.36754,0.00976
5168.29601,0.00965
5170.22448,0.01680
5172.15294,0.02006
5174.08141,0.01360
5176.00988,0.00563
5177.93835,0.00842
5179.86682,0.01142
5181.79529,0.00788
5183.72376,0.01323
5185.65222,0.01703
5187.58069,0.00511
5189.50916,-0.00059
5191.43763,0.01269
5193.36610,0.02691
5195.29457,0.03250
5197.22304,0.03297
5199.15151,0.02151
5201.07997,0.00327
5203.00844,-0.00421
5204.93691,0.00318
5206.86538,0.01849
5208.79385,0.02715
5210.72232,0.02345
5212.65079,0.01628
5214.57925,0.01090
5216.50772,0.01336
5218.43619,0.02547
5220.36466,0.02817
5222.29313,0.01913
5224.22160,0.01907
5226.15007,0.03033
5228.07854,0.03485
5230.00700,0.02793
5231.93547,0.02319
5233.86394,0.02549
5235.79241,0.02441
5237.72088,0.01044
5239.64935,-0.01044
5241.57782,-0.01320
5243.50628,0.01350
5245.43475,0.03911
5247.36322,0.03553
5249.29169,0.02759
5251.22016,0.03648
5253.14863,0.04276
5255.07710,0.04396
5257.00556,0.04554
5258.93403,0.03561
5260.86250,0.02145
5262.79097,0.01349
5264.71944,0.00350
5266.64791,0.00563
5268.57638,0.02523
5270.50485,0.03776
5272.43331,0.03831
5274.36178,0.02856
5276.29025,0.00610
5278.21872,-0.00776
5280.14719,0.00415
5282.07566,0.03063
5284.00413,0.04772
5285.93259,0.04381
5287.86106,0.02997
5289.78953,0.01748
5291.71800,0.01594
5293.64647,0.01992
5295.57494,0.01826
5297.50341,0.01839
5299.43188,0.01806
5301.36034,0.01354
5303.28881,0.01488
5305.21728,0.01858
5307.14575,0.01703
5309.07422,0.01346
5311.00269,0.01116
5312.93116,0.01563
5314.85962,0.02306
5316.78809,0.01736
5318.71656,0.00696
5320.64503,0.00454
5322.57350,-0.00216
5324.50197,-0.00710
5326.43044,0.00708
5328.35891,0.01751
5330.28737,0.01096
5332.21584,0.01919
5334.14431,0.03913
5336.07278,0.03897
5338.00125,0.01883
5339.92972,0.00592
5341.85819,0.02076
5343.78665,0.04223
5345.71512,0.03902
5347.64359,0.02313
5349.57206,0.01336
5351.50053,0.01907
5353.42900,0.03745
5355.35747,0.04068
5357.28594,0.03166
5359.21440,0.03435
5361.14287,0.04924
5363.07134,0.06273
5364.99981,0.05727
5366.92828,0.03381
5368.85675,0.01668
5370.78522,0.01848
5372.71368,0.02900
5374.64215,0.02695
5376.57062,0.01478
5378.49909,0.01813
5380.42756,0.02523
5382.35603,0.02239
5384.28450,0.02920
5386.21297,0.05323
5388.14143,0.06182
5390.06990,0.04648
5391.99837,0.02608
5393.92684,-0.00442
5395.85531,-0.03659
5397.78378,-0.03366
5399.71225,-0.02450
5401.64071,-0.04157
5403.56918,-0.03882
5405.49765,0.00742
5407.42612,0.04518
5409.35459,0.04642
5411.28306,0.03692
5413.21153,0.03036
5415.13999,0.03136
5417.06846,0.04311
5418.99693,0.05333
5420.92540,0.05260
5422.85387,0.04365
5424.78234,0.03831
5426.71081,0.03515
5428.63928,0.03109
5430.56774,0.03476
5432.49621,0.03413
5434.42468,0.01386
5436.35315,-0.00597
5438.28162,-0.00083
5440.21009,0.01733
5442.13856,0.03178
5444.06702,0.04078
5445.99549,0.04191
5447.92396,0.03388
5449.85243,0.02248
5451.78090,0.01246
5453.70937,0.00453
5455.63784,-0.00355
5457.56631,-0.00373
5459.49477,0.01129
5461.42324,0.02120
5463.35171,0.01758
5465.28018,0.01828
5467.20865,0.01806
5469.13712,0.00541
5471.06559,0.00659
5472.99405,0.04194
5474.92252,0.07996
5476.85099,0.08307
5478.77946,0.06600
5480.70793,0.04536
5482.63640,0.02167
5484.56487,0.00753
5486.49334,0.02121
5488.42180,0.05111
5490.35027,0.06303
5492.27874,0.05470
5494.20721,0.04115
5496.13568,0.03564
5498.06415,0.05569
5499.99262,0.07306
5501.92108,0.04685
5503.84955,0.02196
5505.77802,0.03651
5507.70649,0.05192
5509.63496,0.04467
5511.56343,0.02757
5513.49190,0.00759
5515.42037,-0.00836
5517.34883,-0.01087
5519.27730,0.00048
5521.20577,0.02301
5523.13424,0.05154
5525.06271,0.05871
5526.99118,0.05070
5528.91965,0.06073
5530.84811,0.07044
5532.77658,0.05396
5534.70505,0.02903
5536.63352,0.01904
5538.56199,0.02963
5540.49046,0.04673
5542.41893,0.04897
5544.34740,0.05483
5546.27586,0.07548
5548.20433,0.07108
5550.13280,0.04215
5552.06127,0.02740
5553.98974,0.03304
5555.91821,0.02752
5557.84668,0.00790
5559.77514,0.00477
5561.70361,0.01241
5563.63208,0.01584
5565.56055,0.01635
5567.48902,0.02336
5569.41749,0.03647
5571.34596,0.02899
5573.27443,-0.00479
5575.20289,-0.01683
5577.13136,0.01916
5579.05983,0.05559
5580.98830,0.04362
5582.91677,0.01590
5584.84524,0.03086
5586.77371,0.05569
5588.70217,0.04172
5590.63064,0.02324
5592.55911,0.02329
5594.48758,0.01417
5596.41605,0.01090
5598.34452,0.03142
5600.27299,0.04140
5602.20145,0.03288
5604.12992,0.02532
5606.05839,0.02254
5607.98686,0.02885
5609.91533,0.03286
5611.84380,0.01976
5613.77227,0.00564
5615.70074,-0.00576
5617.62920,-0.02407
5619.55767,-0.02403
5621.48614,-0.00171
5623.41461,0.01585
5625.34308,0.03115
5627.27155,0.04253
5629.20002,0.03654
5631.12848,0.02548
5633.05695,0.01893
5634.98542,0.00884
5636.91389,-0.00092
5638.84236,0.00140
5640.77083,0.01650
5642.69930,0.05010
5644.62777,0.08441
5646.55623,0.07645
5648.48470,0.04214
5650.41317,0.02968
5652.34164,0.02732
5654.27011,0.01194
5656.19858,-0.00144
5658.12705,-0.00116
5660.05551,0.01639
5661.98398,0.05156
5663.91245,0.08331
5665.84092,0.09980
5667.76939,0.10420
5669.69786,0.09204
5671.62633,0.06245
5673.55480,0.02968
5675.48326,0.02219
5677.41173,0.03980
5679.34020,0.04095
5681.26867,0.02235
5683.19714,0.01015
5685.12561,0.01161
5687.05408,0.03680
5688.98254,0.07436
5690.91101,0.08380
5692.83948,0.06722
5694.76795,0.04861
5696.69642,0.02921
5698.62489,0.01385
5700.55336,0.01311
5702.48183,0.01951
5704.41029,0.02046
5706.33876,0.02052
5708.26723,0.01914
5710.19570,0.00826
5712.12417,-0.00120
5714.05264,-0.01111
5715.98111,-0.02190
5717.90957,0.00243
5719.83804,0.04249
5721.76651,0.05274
5723.69498,0.06655
5725.62345,0.09691
5727.55192,0.09870
5729.48039,0.07161
5731.40886,0.05466
5733.33732,0.04463
5735.26579,0.02680
5737.19426,0.01414
5739.12273,0.01280
5741.05120,0.02250
5742.97967,0.03749
5744.90814,0.04784
5746.83660,0.05960
5748.76507,0.06658
5750.69354,0.05437
5752.62201,0.03413
5754.55048,0.01831
5756.47895,0.01166
5758.40742,0.02562
5760.33588,0.06044
5762.26435,0.09162
5764.19282,0.07313
5766.12129,0.01570
5768.04976,-0.00638
5769.97823,-0.00110
5771.90670,-0.00048
5773.83517,0.03359
5775.76363,0.07242
5777.69210,0.05832
5779.62057,0.04106
5781.54904,0.05308
5783.47751,0.04601
5785.40598,0.01310
5787.33445,-0.00459
5789.26291,0.00431
5791.19138,0.01669
5793.11985,0.02317
5795.04832,0.03482
5796.97679,0.04437
5798.90526,0.03690
5800.83373,0.02442
5802.76220,0.02452
5804.69066,0.04241
5806.61913,0.05683
5808.54760,0.03807
5810.47607,-0.00017
5812.40454,-0.02913
5814.33301,-0.03767
5816.26148,-0.02293
5818.18994,0.01159
5820.11841,0.05078
5822.04688,0.05881
5823.97535,0.04544
5825.90382,0.06126
5827.83229,0.08875
5829.76076,0.10399
5831.68923,0.11350
5833.61769,0.08236
5835.54616,0.02895
5837.47463,0.02243
5839.40310,0.04580
5841.33157,0.06084
5843.26004,0.06221
5845.18851,0.04683
5847.11697,0.02994
5849.04544,0.02452
5850.97391,0.00905
5852.90238,-0.02800
5854.83085,-0.04911
5856.75932,-0.00973
5858.68779,0.05794
5860.61626,0.08044
5862.54472,0.05924
5864.47319,0.02613
5866.40166,-0.00351
5868.33013,-0.00538
5870.25860,0.01399
5872.18707,0.03084
5874.11554,0.03941
5876.04400,0.03925
5877.97247,0.03311
5879.90094,0.03281
5881.82941,0.04646
5883.75788,0.04309
5885.68635,0.01449
5887.61482,0.01815
5889.54329,0.05658
5891.47175,0.06075
5893.40022,0.04565
5895.32869,0.06308
5897.25716,0.07842
5899.18563,0.05497
5901.11410,0.01959
5903.04257,0.00801
5904.97103,0.00146
5906.89950,-0.02983
5908.82797,-0.04182
5910.75644,-0.00782
5912.68491,0.03217
5914.61338,0.05152
5916.54185,0.05062
5918.47032,0.04013
5920.39878,0.02768
5922.32725,0.03147
5924.25572,0.05753
5926.18419,0.05859
5928.11266,0.01743
5930.04113,-0.00658
5931.96960,0.00852
5933.89806,0.02853
5935.82653,0.03670
5937.75500,0.04425
5939.68347,0.05675
5941.61194,0.07246
5943.54041,0.09629
5945.46888,0.11033
5947.39734,0.09886
5949.32581,0.08278
5951.25428,0.06007
5953.18275,0.01402
5955.11122,-0.03150
5957.03969,-0.03945
5958.96816,0.00025
5960.89663,0.04245
5962.82509,0.05016
5964.75356,0.04457
5966.68203,0.03363
5968.61050,0.02122
5970.53897,0.02748
5972.46744,0.04131
5974.39591,0.04357
5976.32437,0.05018
5978.25284,0.08192
5980.18131,0.12583
5982.10978,0.13638
5984.03825,0.09478
5985.96672,0.04409
5987.89519,0.03015
5989.82366,0.04782
5991.75212,0.05950
5993.68059,0.05141
5995.60906,0.03918
5997.53753,0.02406
5999.46600,0.00941
6001.39447,0.01733
6003.32294,0.04478
6005.25140,0.07272
6007.17987,0.10841
6009.10834,0.13470
6011.03681,0.11585
6012.96528,0.07457
6014.89375,0.04076
6016.82222,0.00453
6018.75069,-0.02062
6020.67915,-0.00337
6022.60762,0.03009
6024.53609,0.04430
6026.46456,0.04313
6028.39303,0.03874
6030.32150,0.02774
6032.24997,0.01120
6034.17843,0.00692
6036.10690,0.01901
6038.03537,0.02979
6039.96384,0.03433
6041.89231,0.04343
6043.82078,0.02834
6045.74925,-0.02444
6047.67772,-0.06018
6049.60618,-0.05119
6051.53465,-0.01063
6053.46312,0.03704
6055.39159,0.04829
6057.32006,0.02473
6059.24853,-0.00396
6061.17700,-0.03705
6063.10546,-0.04522
6065.03393,-0.00470
6066.96240,0.04757
6068.89087,0.08135
6070.81934,0.08483
6072.74781,0.07976
6074.67628,0.09763
6076.60475,0.09797
6078.53321,0.07160
6080.46168,0.08421
6082.39015,0.11210
6084.31862,0.08660
6086.24709,0.03990
6088.17556,0.02722
6090.10403,0.03834
6092.03249,0.06926
6093.96096,0.10710
6095.88943,0.11348
6097.81790,0.10081
6099.74637,0.10430
6101.67484,0.12425
6103.60331,0.12303
6105.53177,0.07210
6107.46024,0.03171
6109.38871,0.05282
6111.31718,0.07475
6113.24565,0.04999
6115.17412,-0.00316
6117.10259,-0.01308
6119.03106,0.04551
6120.95952,0.09673
6122.88799,0.12248
6124.81646,0.14084
6126.74493,0.16906
6128.67340,0.19728
6130.60187,0.15029
6132.53034,0.05062
6134.45880,0.00814
6136.38727,0.03137
6138.31574,0.05898
6140.24421,0.06026
6142.17268,0.03703
6144.10115,0.04034
6146.02962,0.07251
6147.95809,0.07248
6149.88655,0.04386
6151.81502,0.03759
6153.74349,0.07471
6155.67196,0.09723
6157.60043,0.07329
6159.52890,0.06210
6161.45737,0.09535
6163.38583,0.10585
6165.31430,0.03195
6167.24277,-0.06689
6169.17124,-0.10477
6171.09971,-0.06531
6173.02818,-0.00146
6174.95665,0.03389
6176.88512,0.03493
6178.81358,0.00692
6180.74205,-0.01193
6182.67052,0.03283
6184.59899,0.09815
6186.52746,0.08716
6188.45593,0.00563
6190.38440,-0.03388
6192.31286,-0.00229
6194.24133,0.03109
6196.16980,0.03247
6198.09827,0.01444
6200.02674,-0.01327
6201.95521,-0.01917
6203.88368,-0.00327
6205.81215,-0.00704
6207.74061,-0.01455
6209.66908,-0.00680
6211.59755,-0.00273
6213.52602,0.00516
6215.45449,0.01415
6217.38296,0.00782
6219.31143,0.00538
6221.23989,0.01290
6223.16836,0.00258
6225.09683,-0.01517
6227.02530,0.00765
6228.95377,0.03801
6230.88224,0.02853
6232.81071,0.04162
6234.73918,0.10377
6236.66764,0.13301
6238.59611,0.12167
6240.52458,0.10026
6242.45305,0.03561
6244.38152,-0.01160
6246.30999,0.02109
6248.23846,0.04459
6250.16692,0.03555
6252.09539,0.02563
6254.02386,-0.00149
6255.95233,-0.02538
6257.88080,-0.01200
6259.80927,0.01911
6261.73774,0.04451
6263.66621,0.06482
6265.59467,0.05385
6267.52314,0.02427
6269.45161,0.02526
6271.38008,0.03066
6273.30855,0.02119
6275.23702,0.04314
6277.16549,0.08480
6279.09395,0.08302
6281.02242,0.06137
6282.95089,0.04564
6284.87936,0.02810
6286.80783,0.01782
6288.73630,-0.00615
6290.66477,-0.04256
6292.59323,-0.04423
6294.52170,-0.02178
6296.45017,-0.00377
6298.37864,0.00783
6300.30711,-0.01830
6302.23558,-0.07892
6304.16405,-0.08203
6306.09252,-0.01612
6308.02098,0.03532
6309.94945,0.02806
6311.87792,0.00472
6313.80639,0.00647
6315.73486,0.01701
6317.66333,0.02397
6319.59180,0.03106
6321.52026,0.05738
6323.44873,0.09740
6325.37720,0.10328
6327.30567,0.06405
6329.23414,0.02246
6331.16261,0.04669
6333.09108,0.09841
6335.01955,0.08465
6336.94801,0.04957
6338.87648,0.04392
6340.80495,0.03532
6342.73342,0.02465
6344.66189,0.03972
6346.59036,0.05480
6348.51883,0.05579
6350.44729,0.06747
6352.37576,0.07561
6354.30423,0.08363
6356.23270,0.08861
6358.16117,0.04319
6360.08964,-0.02089
6362.01811,-0.01678
6363.94658,0.01675
6365.87504,0.01326
6367.80351,0.01674
6369.73198,0.03966
6371.66045,0.05267
6373.58892,0.06074
6375.51739,0.06827
6377.44586,0.06895
6379.37432,0.05990
6381.30279,0.03517
6383.23126,-0.00112
6385.15973,0.00921
6387.08820,0.08274
6389.01667,0.13618
6390.94514,0.11897
6392.87361,0.08622
6394.80207,0.06758
6396.73054,0.04726
6398.65901,0.02509
6400.58748,-0.01592
6402.51595,-0.02148
6404.44442,0.03926
6406.37289,0.06080
6408.30135,0.01836
6410.22982,-0.00286
6412.15829,-0.02749
6414.08676,-0.08061
6416.01523,-0.11184
6417.94370,-0.08849
6419.87217,-0.00740
6421.80064,0.03410
6423.72910,-0.01771
6425.65757,-0.05014
6427.58604,0.01164
6429.51451,0.08356
6431.44298,0.07456
6433.37145,0.02644
6435.29992,0.03438
6437.22838,0.07567
6439.15685,0.05279
6441.08532,-0.01855
6443.01379,-0.05607
6444.94226,-0.04094
6446.87073,0.02461
6448.79920,0.10542
6450.72766,0.11692
6452.65613,0.09161
6454.58460,0.08643
6456.51307,0.06102
6458.44154,0.03134
6460.37001,0.04695
6462.29848,0.06363
6464.22695,0.03690
6466.15541,0.02533
6468.08388,0.05487
6470.01235,0.05312
6471.94082,0.01451
6473.86929,0.03579
6475.79776,0.12968
6477.72623,0.15217
6479.65469,0.06341
6481.58316,-0.01847
6483.51163,-0.05147
6485.44010,-0.04041
6487.36857,0.01138
6489.29704,0.06912
6491.22551,0.08027
6493.15398,0.02176
6495.08244,-0.02532
6497.01091,0.01604
6498.93938,0.09158
6500.86785,0.08403
6502.79632,-0.00505
6504.72479,-0.06654
6506.65326,-0.07955
6508.58172,-0.03426
6510.51019,0.06437
6512.43866,0.10430
6514.36713,0.06213
6516.29560,0.03470
6518.22407,0.00042
6520.15254,-0.05492
6522.08101,-0.02802
6524.00947,0.06140
6525.93794,0.09270
6527.86641,0.10298
6529.79488,0.14489
6531.72335,0.17002
6533.65182,0.14012
6535.58029,0.07189
6537.50875,0.02580
6539.43722,0.03635
6541.36569,0.04898
6543.29416,0.02714
6545.22263,0.02951
6547.15110,0.06412
6549.07957,0.10365
6551.00804,0.15918
6552.93650,0.18972
6554.86497,0.15224
6556.79344,0.11213
6558.72191,0.08432
6560.65038,0.02295
6562.57885,-0.00624
6564.50732,0.07634
6566.43578,0.20356
6568.36425,0.24112
6570.29272,0.17219
6572.22119,0.06820
6574.14966,-0.01633
6576.07813,-0.03455
6578.00660,0.03903
6579.93507,0.12295
6581.86353,0.13218
6583.79200,0.08174
6585.72047,0.06223
6587.64894,0.10853
6589.57741,0.17545
6591.50588,0.20353
6593.43435,0.12541
6595.36281,0.00009
6597.29128,-0.05190
6599.21975,-0.05566
6601.14822,-0.02896
6603.07669,0.03716
6605.00516,0.09250
6606.93363,0.07842
6608.86210,0.03183
6610.79056,0.02989
6612.71903,0.02978
6614.64750,0.00149
6616.57597,-0.00102
6618.50444,0.01415
6620.43291,0.04760
6622.36138,0.09902
6624.28984,0.09968
6626.21831,0.07723
6628.14678,0.08588
6630.07525,0.08683
6632.00372,0.04209
6633.93219,-0.03725
6635.86066,-0.06129
6637.78912,0.02294
6639.71759,0.11232
6641.64606,0.12939
6643.57453,0.09343
6645.50300,0.07147
6647.43147,0.09732
6649.35994,0.11513
6651.28841,0.06692
6653.21687,-0.02652
6655.14534,-0.13143
6657.07381,-0.21182
6659.00228,-0.16902
6660.93075,-0.00912
6662.85922,0.09645
6664.78769,0.08902
6666.71615,0.05893
6668.64462,0.05069
6670.57309,0.05561
6672.50156,0.03941
6674.43003,0.01680
6676.35850,0.07168
6678.28697,0.16679
6680.21544,0.20628
6682.14390,0.18266
6684.07237,0.11448
6686.00084,0.01178
6687.92931,-0.06917
6689.85778,-0.05705
6691.78625,-0.00713
6693.71472,0.02745
6695.64318,0.06108
6697.57165,0.05215
6699.50012,-0.00060
6701.42859,-0.02311
6703.35706,-0.03201
6705.28553,-0.05923
6707.21400,-0.10474
6709.14247,-0.14406
6711.07093,-0.08643
6712.99940,0.01254
6714.92787,0.03793
6716.85634,-0.00174
6718.78481,-0.04631
6720.71328,-0.04137
6722.64175,-0.01037
6724.57021,-0.03706
6726.49868,-0.07596
6728.42715,0.00697
6730.35562,0.17138
6732.28409,0.18995
6734.21256,0.06665
6736.14103,-0.00595
6738.06950,-0.01985
6739.99796,-0.03760
6741.92643,-0.00464
6743.85490,0.07437
6745.78337,0.11740
6747.71184,0.11374
6749.64031,0.11692
6751.56878,0.15898
6753.49724,0.19129
6755.42571,0.15840
6757.35418,0.06057
6759.28265,-0.03360
6761.21112,-0.02113
6763.13959,0.06448
6765.06806,0.12596
6766.99653,0.12037
6768.92499,0.06187
6770.85346,0.01365
6772.78193,0.02370
6774.71040,0.09304
6776.63887,0.15349
6778.56734,0.13731
6780.49581,0.07239
6782.42427,-0.00042
6784.35274,-0.02156
6786.28121,0.01623
6788.20968,0.02288
6790.13815,0.00186
6792.06662,0.02288
6793.99509,0.04037
6795.92355,-0.00807
6797.85202,-0.06776
6799.78049,-0.07651
6801.70896,-0.08973
6803.63743,-0.11133
6805.56590,-0.05609
6807.49437,0.00063
6809.42284,-0.01562
6811.35130,-0.01775
6813.27977,0.06942
6815.20824,0.13082
6817.13671,0.11878
6819.06518,0.12999
6820.99365,0.16731
6822.92212,0.21644
6824.85058,0.25607
6826.77905,0.21591
6828.70752,0.10775
6830.63599,0.02018
6832.56446,-0.01083
6834.49293,-0.02746
6836.42140,-0.00404
6838.34987,0.07881
6840.27833,0.11229
6842.20680,0.09831
6844.13527,0.13935
6846.06374,0.20878
6847.99221,0.20464
6849.92068,0.12397
6851.84915,0.03691
6853.77761,-0.03179
6855.70608,-0.02776
6857.63455,0.02874
6859.56302,0.03822
6861.49149,-0.00088
6863.41996,-0.03716
6865.34843,-0.04445
6867.27690,-0.03459
6869.20536,-0.00447
6871.13383,0.06257
6873.06230,0.13583
6874.99077,0.13824
6876.91924,0.11540
6878.84771,0.15798
6880.77618,0.19454
6882.70464,0.15830
6884.63311,0.11596
6886.56158,0.08015
6888.49005,0.04482
6890.41852,0.02271
6892.34699,-0.00656
6894.27546,-0.07341
6896.20393,-0.14131
6898.13239,-0.12574
6900.06086,-0.02657
6901.98933,0.04113
6903.91780,0.03615
6905.84627,0.03816
6907.77474,0.07624
6909.70321,0.08278
6911.63167,0.03174
6913.56014,-0.03077
6915.48861,-0.03614
6917.41708,-0.00151
6919.34555,-0.01100
6921.27402,-0.02281
6923.20249,0.01886
6925.13096,0.02161
6927.05942,-0.02315
6928.98789,-0.02255
6930.91636,0.03475
6932.84483,0.09056
6934.77330,0.14585
6936.70177,0.13643
6938.63024,0.02326
6940.55870,-0.02599
6942.48717,0.05036
6944.41564,0.09468
6946.34411,0.07374
6948.27258,-0.00913
6950.20105,-0.08582
6952.12952,-0.08190
6954.05799,-0.04409
6955.98645,-0.02447
6957.91492,0.01535
6959.84339,0.07352
6961.77186,0.09332
6963.70033,0.08612
6965.62880,0.05462
6967.55727,-0.04039
6969.48573,-0.10062
6971.41420,-0.04341
6973.34267,0.07458
6975.27114,0.19409
6977.19961,0.17139
6979.12808,0.03108
6981.05655,-0.02820
6982.98501,0.02890
6984.91348,0.08974
6986.84195,0.14386
6988.77042,0.16123
6990.69889,0.07458
6992.62736,-0.02336
6994.55583,-0.07473
6996.48430,-0.05828
6998.41276,0.09538
7000.34123,0.24040
7002.26970,0.17243
7004.19817,0.03524
7006.12664,0.06071
7008.05511,0.18501
7009.98358,0.18130
7011.91204,0.06718
7013.84051,0.00429
7015.76898,0.04360
7017.69745,0.05737
7019.62592,0.03270
7021.55439,0.06513
7023.48286,0.13515
7025.41133,0.19724
7027.33979,0.22194
7029.26826,0.16149
7031.19673,0.08784
7033.12520,0.06890
7035.05367,0.09340
7036.98214,0.05812
7038.91061,-0.01806
7040.83907,0.02944
7042.76754,0.17590
7044.69601,0.23299
7046.62448,0.19639
7048.55295,0.10892
7050.48142,0.05136
7052.40989,0.12492
7054.33836,0.23667
7056.26682,0.20741
7058.19529,0.10617
7060.12376,0.10367
7062.05223,0.09062
7063.98070,-0.04083
7065.90917,-0.13662
7067.83764,-0.09621
7069.76610,-0.00586
7071.69457,-0.01244
7073.62304,-0.10295
7075.55151,-0.15488
7077.47998,-0.15087
7079.40845,-0.09848
7081.33692,0.03662
7083.26539,0.18183
7085.19385,0.22604
7087.12232,0.14514
7089.05079,0.01721
7090.97926,-0.02971
7092.90773,0.00369
7094.83620,0.09735
7096.76467,0.22367
7098.69313,0.25606
7100.62160,0.15483
7102.55007,0.03376
7104.47854,-0.07912
7106.40701,-0.11597
7108.33548,-0.01427
7110.26395,0.08128
7112.19242,0.07678
7114.12088,0.07939
7116.04935,0.09421
7117.97782,0.00562
7119.90629,-0.04182
7121.83476,0.01088
7123.76323,-0.02678
7125.69170,-0.12947
7127.62016,-0.12726
7129.54863,-0.08084
7131.47710,-0.09958
7133.40557,-0.08670
7135.33404,-0.03864
7137.26251,-0.06675
7139.19098,-0.11275
7141.11944,-0.09409
7143.04791,-0.01243
7144.97638,0.12323
7146.90485,0.15381
7148.83332,0.02002
7150.76179,-0.06881
7152.69026,0.04009
7154.61873,0.18027
7156.54719,0.16055
7158.47566,0.08708
7160.40413,0.05772
7162.33260,0.09417
7164.26107,0.12887
7166.18954,0.12347
7168.11801,0.14412
7170.04647,0.12301
7171.97494,-0.00589
7173.90341,-0.11211
7175.83188,-0.07280
7177.76035,0.11423
7179.68882,0.22720
7181.61729,0.14259
7183.54576,0.06069
7185.47422,0.13187
7187.40269,0.22136
7189.33116,0.28332
7191.25963,0.32739
7193.18810,0.24994
7195.11657,0.10263
7197.04504,0.06682
7198.97350,0.10334
7200.90197,0.14793
7202.83044,0.28753
7204.75891,0.43785
7206.68738,0.29008
7208.61585,0.04889
7210.54432,-0.01191
7212.47279,0.07942
7214.40125,0.20305
7216.32972,0.33496
7218.25819,0.38525
7220.18666,0.21557
7222.11513,0.04272
7224.04360,-0.05295
7225.97207,-0.11094
7227.90053,-0.03052
7229.82900,0.15233
7231.75747,0.27714
7233.68594,0.25616
7235.61441,0.18459
7237.54288,0.19992
7239.47135,0.20143
7241.39982,0.05039
7243.32828,-0.05743
7245.25675,-0.00035
7247.18522,0.07511
7249.11369,0.20743
7251.04216,0.34172
7252.97063,0.25534
7254.89910,0.03650
7256.82756,-0.02889
7258.75603,0.03266
7260.68450,0.07279
7262.61297,-0.01595
7264.54144,-0.13168
7266.46991,-0.19252
7268.39838,-0.18712
7270.32685,-0.13006
7272.25531,-0.05594
7274.18378,0.03652
7276.11225,0.10349
7278.04072,0.12599
7279.96919,0.18399
7281.89766,0.32235
7283.82613,0.36914
7285.75459,0.19615
7287.68306,-0.04183
7289.61153,-0.12512
7291.54000,-0.04717
7293.46847,0.06327
7295.39694,0.10397
7297.32541,0.01447
7299.25387,-0.11672
7301.18234,-0.13572
7303.11081,-0.04834
7305.03928,0.06174
7306.96775,0.23583
7308.89622,0.29812
7310.82469,0.15727
7312.75316,0.09194
7314.68162,0.01856
7316.61009,-0.09554
7318.53856,-0.02042
7320.46703,0.12219
7322.39550,0.11573
7324.32397,0.02688
7326.25244,-0.00582
7328.18090,-0.02416
7330.10937,0.01696
7332.03784,0.20519
7333.96631,0.34912
7335.89478,0.29869
7337.82325,0.10752
7339.75172,-0.04576
7341.68019,0.06380
7343.60865,0.12854
7345.53712,0.05856
7347.46559,0.03728
7349.39406,0.03418
7351.32253,-0.11339
7353.25100,-0.30474
7355.17947,-0.34073
7357.10793,-0.13686
7359.03640,0.10965
7360.96487,0.01364
7362.89334,-0.15467
7364.82181,-0.02183
7366.75028,0.23887
7368.67875,0.34792
7370.60722,0.27771
7372.53568,0.19799
7374.46415,0.10473
7376.39262,0.02444
7378.32109,0.10690
7380.24956,0.15600
7382.17803,0.07873
7384.10650,0.05266
7386.03496,0.03014
7387.96343,-0.06873
7389.89190,-0.04829
7391.82037,0.12165
7393.74884,0.28184
7395.67731,0.27137
7397.60578,0.16810
7399.53425,0.08703
7401.46271,-0.01631
7403.39118,-0.08854
7405.31965,-0.05372
7407.24812,-0.01950
7409.17659,-0.10278
7411.10506,-0.20430
7413.03353,-0.17213
7414.96199,-0.04402
7416.89046,0.18437
7418.81893,0.43865
7420.74740,0.36728
7422.67587,0.13918
7424.60434,0.04997
7426.53281,0.08154
7428.46128,0.15202
7430.38974,0.18370
7432.31821,0.08948
7434.24668,-0.05671
7436.17515,-0.03815
7438.10362,0.16980
7440.03209,0.31137
7441.96056,0.20730
7443.88902,0.00800
7445.81749,-0.07038
7447.74596,-0.09733
7449.67443,-0.16412
7451.60290,-0.17860
7453.53137,-0.08876
7455.45984,-0.00508
7457.38831,0.00786
7459.31677,-0.00403
7461.24524,0.07599
7463.17371,0.19603
7465.10218,0.21263
7467.03065,0.15111
7468.95912,0.12307
7470.88759,0.05164
7472.81605,-0.08488
7474.74452,-0.13004
7476.67299,-0.11750
7478.60146,-0.13443
7480.52993,-0.03044
7482.45840,0.26822
7484.38687,0.49787
7486.31533,0.48523
7488.24380,0.24873
7490.17227,0.02738
7492.10074,-0.05781
7494.02921,-0.11021
7495.95768,-0.09157
7497.88615,0.10293
