399.19301,2.36628
401.12148,-0.54978
403.04995,-0.31099
404.97842,-0.03923
406.90689,0.22286
408.83536,0.36962
410.76382,0.34403
412.69229,0.21952
414.62076,0.08056
416.54923,0.03962
418.47770,0.16107
420.40617,0.25975
422.33464,0.16497
424.26311,-0.08361
426.19157,-0.26501
428.12004,-0.22700
430.04851,-0.10243
431.97698,-0.04479
433.90545,-0.02558
435.83392,0.02471
437.76239,0.07738
439.69085,0.15992
441.61932,0.28011
443.54779,0.27233
445.47626,0.12724
447.40473,0.06066
449.33320,0.06426
451.26167,0.01910
453.19013,-0.01138
455.11860,0.01561
457.04707,0.01956
458.97554,-0.00264
460.90401,0.02175
462.83248,0.05199
464.76095,0.07819
466.68942,0.13535
468.61788,0.15064
470.54635,0.08284
472.47482,-0.05080
474.40329,-0.20967
476.33176,-0.21291
478.26023,-0.07841
480.18870,0.06367
482.11716,0.11400
484.04563,0.11183
485.97410,0.12000
487.90257,0.08125
489.83104,0.01711
491.75951,0.01344
493.68798,0.07147
495.61645,0.10371
497.54491,0.06948
499.47338,0.03101
501.40185,0.00395
503.33032,-0.02169
505.25879,-0.02204
507.18726,-0.02435
509.11573,-0.03228
511.04419,0.00559
512.97266,0.05574
514.90113,0.05386
516.82960,0.02086
518.75807,0.00829
520.68654,0.02697
522.61501,0.08587
524.54348,0.14943
526.47194,0.13840
528.40041,0.08553
530.32888,0.04811
532.25735,0.02141
534.18582,0.00872
536.11429,0.01667
538.04276,0.02165
539.97122,0.01775
541.89969,0.03021
543.82816,0.04266
545.75663,0.03660
547.68510,0.04377
549.61357,0.05959
551.54204,0.04537
553.47051,0.02351
555.39897,0.02737
557.32744,0.03765
559.25591,0.04255
561.18438,0.04789
563.11285,0.03982
565.04132,0.02953
566.96979,0.05717
568.89825,0.09287
570.82672,0.06920
572.75519,0.02073
574.68366,0.02450
576.61213,0.06038
578.54060,0.06650
580.46907,0.05910
582.39754,0.06422
584.32600,0.05290
586.25447,0.01759
588.18294,-0.00600
590.11141,0.00651
592.03988,0.03804
593.96835,0.04984
595.89682,0.03857
597.82528,0.02649
599.75375,0.03036
601.68222,0.05521
603.61069,0.07541
605.53916,0.05887
607.46763,0.02331
609.39610,0.01215
611.32456,0.02460
613.25303,0.04164
615.18150,0.06535
617.10997,0.07826
619.03844,0.06945
620.96691,0.05963
622.89538,0.05062
624.82385,0.03315
626.75231,0.01532
628.68078,0.01663
630.60925,0.03020
632.53772,0.03764
634.46619,0.04920
636.39466,0.05902
638.32313,0.04677
640.25159,0.02798
642.18006,0.02378
644.10853,0.02301
646.03700,0.02870
647.96547,0.04441
649.89394,0.04334
651.82241,0.03262
653.75088,0.02909
655.67934,0.01932
657.60781,0.01285
659.53628,0.03204
661.46475,0.05774
663.39322,0.06262
665.32169,0.05950
667.25016,0.06101
669.17862,0.05516
671.10709,0.04880
673.03556,0.05131
674.96403,0.05708
676.89250,0.05189
678.82097,0.03552
680.74944,0.03335
682.67791,0.04363
684.60637,0.04499
686.53484,0.04226
688.46331,0.04383
690.39178,0.05073
692.32025,0.06256
694.24872,0.06520
696.17719,0.04989
698.10565,0.03302
700.03412,0.03577
701.96259,0.05247
703.89106,0.05936
705.81953,0.05424
707.74800,0.05012
709.67647,0.05209
711.60494,0.06637
713.53340,0.07615
715.46187,0.05807
717.39034,0.03720
719.31881,0.03790
721.24728,0.04273
723.17575,0.04188
725.10422,0.04937
727.03268,0.05879
728.96115,0.05375
730.88962,0.04477
732.81809,0.04313
734.74656,0.04187
736.67503,0.03728
738.60350,0.03693
740.53197,0.04849
742.46043,0.06138
744.38890,0.05774
746.31737,0.04677
748.24584,0.04592
750.17431,0.04552
752.10278,0.03578
754.03125,0.02913
755.95971,0.03758
757.88818,0.05151
759.81665,0.05160
761.74512,0.04049
763.67359,0.03201
765.60206,0.02728
767.53053,0.03031
769.45900,0.03842
771.38746,0.03824
773.31593,0.03595
775.24440,0.03769
777.17287,0.03760
779.10134,0.03567
781.02981,0.03623
782.95828,0.04034
784.88674,0.03936
786.81521,0.03631
788.74368,0.04274
790.67215,0.05456
792.60062,0.06467
794.52909,0.06481
796.45756,0.05286
798.38602,0.04035
800.31449,0.03302
802.24296,0.03339
804.17143,0.04232
806.09990,0.04954
808.02837,0.04853
809.95684,0.04208
811.88531,0.03704
813.81377,0.03697
815.74224,0.03590
817.67071,0.03410
819.59918,0.03606
821.52765,0.03968
823.45612,0.03810
825.38459,0.03022
827.31305,0.03103
829.24152,0.04274
831.16999,0.04738
833.09846,0.03993
835.02693,0.03120
836.95540,0.02891
838.88387,0.03073
840.81234,0.02871
842.74080,0.02537
844.66927,0.03093
846.59774,0.04004
848.52621,0.04623
850.45468,0.05011
852.38315,0.05104
854.31162,0.05572
856.24008,0.06263
858.16855,0.06116
860.09702,0.05516
862.02549,0.05101
863.95396,0.04605
865.88243,0.03900
867.81090,0.03108
869.73937,0.02854
871.66783,0.03486
873.59630,0.04166
875.52477,0.04717
877.45324,0.05465
879.38171,0.05781
881.31018,0.05458
883.23865,0.05071
885.16711,0.04701
887.09558,0.04299
889.02405,0.04095
890.95252,0.04061
892.88099,0.04124
894.80946,0.04435
896.73793,0.04851
898.66640,0.04951
900.59486,0.05051
902.52333,0.05488
904.45180,0.05769
906.38027,0.05823
908.30874,0.05700
910.23721,0.05204
912.16568,0.04716
914.09414,0.04692
916.02261,0.05001
917.95108,0.04927
919.87955,0.04209
921.80802,0.03577
923.73649,0.03583
925.66496,0.03888
927.59343,0.03856
929.52189,0.03500
931.45036,0.03468
933.37883,0.04122
935.30730,0.05077
937.23577,0.05367
939.16424,0.04762
941.09271,0.04536
943.02117,0.05017
944.94964,0.05036
946.87811,0.04720
948.80658,0.04682
950.73505,0.04519
952.66352,0.04052
954.59199,0.04023
956.52045,0.04851
958.44892,0.05500
960.37739,0.05037
962.30586,0.03899
964.23433,0.03460
966.16280,0.04199
968.09127,0.04910
970.01974,0.04970
971.94820,0.04614
973.87667,0.04314
975.80514,0.04549
977.73361,0.04739
979.66208,0.04350
981.59055,0.03798
983.51902,0.03619
985.44748,0.03810
987.37595,0.03921
989.30442,0.04056
991.23289,0.04372
993.16136,0.04643
995.08983,0.04804
997.01830,0.04557
998.94677,0.04261
1000.87523,0.04779
1002.80370,0.05757
1004.73217,0.05992
1006.66064,0.04863
1008.58911,0.03675
1010.51758,0.04204
1012.44605,0.05727
1014.37451,0.06447
1016.30298,0.06066
1018.23145,0.05446
1020.15992,0.05234
1022.08839,0.05056
1024.01686,0.04374
1025.94533,0.03685
1027.87380,0.03705
1029.80226,0.04065
1031.73073,0.04044
1033.65920,0.03722
1035.58767,0.03534
1037.51614,0.03418
1039.44461,0.03080
1041.37308,0.03004
1043.30154,0.03583
1045.23001,0.03950
1047.15848,0.03594
1049.08695,0.03556
1051.01542,0.04366
1052.94389,0.04592
1054.87236,0.03868
1056.80083,0.04266
1058.72929,0.06344
1060.65776,0.07901
1062.58623,0.07507
1064.51470,0.05859
1066.44317,0.04494
1068.37164,0.04418
1070.30011,0.05108
1072.22857,0.05589
1074.15704,0.05874
1076.08551,0.05977
1078.01398,0.05504
1079.94245,0.04905
1081.87092,0.05025
1083.79939,0.05737
1085.72786,0.06400
1087.65632,0.06452
1089.58479,0.05607
1091.51326,0.04370
1093.44173,0.03583
1095.37020,0.03738
1097.29867,0.04897
1099.22714,0.06461
1101.15560,0.07725
1103.08407,0.08338
1105.01254,0.08198
1106.94101,0.07652
1108.86948,0.06910
1110.79795,0.05855
1112.72642,0.04653
1114.65489,0.03785
1116.58335,0.03912
1118.51182,0.04891
1120.44029,0.05545
1122.36876,0.05475
1124.29723,0.05351
1126.22570,0.05252
1128.15417,0.04968
1130.08263,0.04958
1132.01110,0.05115
1133.93957,0.04783
1135.86804,0.04339
1137.79651,0.04368
1139.72498,0.04454
1141.65345,0.04486
1143.58191,0.04616
1145.51038,0.04537
1147.43885,0.04474
1149.36732,0.04790
1151.29579,0.05168
1153.22426,0.05140
1155.15273,0.04926
1157.08120,0.05143
1159.00966,0.05488
1160.93813,0.05619
1162.86660,0.06112
1164.79507,0.06717
1166.72354,0.06327
1168.65201,0.05147
1170.58048,0.04409
1172.50894,0.04439
1174.43741,0.04710
1176.36588,0.04896
1178.29435,0.04983
1180.22282,0.04844
1182.15129,0.04669
1184.07976,0.05004
1186.00823,0.05722
1187.93669,0.06239
1189.86516,0.06405
1191.79363,0.06321
1193.72210,0.05896
1195.65057,0.05328
1197.57904,0.05205
1199.50751,0.05480
1201.43597,0.05667
1203.36444,0.05686
1205.29291,0.05556
1207.22138,0.05268
1209.14985,0.05110
1211.07832,0.05291
1213.00679,0.05592
1214.93526,0.05757
1216.86372,0.05620
1218.79219,0.05305
1220.72066,0.05277
1222.64913,0.05622
1224.57760,0.05963
1226.50607,0.06011
1228.43454,0.05893
1230.36300,0.06003
1232.29147,0.06328
1234.21994,0.06292
1236.14841,0.05711
1238.07688,0.05172
1240.00535,0.05049
1241.93382,0.05122
1243.86229,0.05078
1245.79075,0.04972
1247.71922,0.05170
1249.64769,0.05465
1251.57616,0.05505
1253.50463,0.05692
1255.43310,0.06110
1257.36157,0.06193
1259.29003,0.05864
1261.21850,0.05586
1263.14697,0.05322
1265.07544,0.04892
1267.00391,0.04758
1268.93238,0.04901
1270.86085,0.04861
1272.78932,0.04796
1274.71778,0.05073
1276.64625,0.05688
1278.57472,0.06097
1280.50319,0.05826
1282.43166,0.05380
1284.36013,0.05366
1286.28860,0.05412
1288.21706,0.05278
1290.14553,0.05336
1292.07400,0.05417
1294.00247,0.05232
1295.93094,0.05000
1297.85941,0.04761
1299.78788,0.04201
1301.71634,0.03246
1303.64481,0.02597
1305.57328,0.03107
1307.50175,0.04362
1309.43022,0.05148
1311.35869,0.05327
1313.28716,0.05551
1315.21563,0.05855
1317.14409,0.06008
1319.07256,0.05941
1321.00103,0.05804
1322.92950,0.06043
1324.85797,0.06257
1326.78644,0.05838
1328.71491,0.05332
1330.64337,0.05070
1332.57184,0.04941
1334.50031,0.05046
1336.42878,0.05194
1338.35725,0.05120
1340.28572,0.04737
1342.21419,0.04558
1344.14266,0.04936
1346.07112,0.05085
1347.99959,0.04639
1349.92806,0.04214
1351.85653,0.03939
1353.78500,0.03949
1355.71347,0.04660
1357.64194,0.05546
1359.57040,0.05930
1361.49887,0.05917
1363.42734,0.05690
1365.35581,0.05487
1367.28428,0.05725
1369.21275,0.06332
1371.14122,0.06842
1373.06969,0.07052
1374.99815,0.06779
1376.92662,0.06298
1378.85509,0.06038
1380.78356,0.05819
1382.71203,0.05640
1384.64050,0.05637
1386.56897,0.05741
1388.49743,0.05929
1390.42590,0.06068
1392.35437,0.06241
1394.28284,0.06665
1396.21131,0.07063
1398.13978,0.07004
1400.06825,0.06439
1401.99672,0.05832
1403.92518,0.05727
1405.85365,0.05879
1407.78212,0.05753
1409.71059,0.05465
1411.63906,0.05167
1413.56753,0.05103
1415.49600,0.05377
1417.42446,0.05680
1419.35293,0.05755
1421.28140,0.05585
1423.20987,0.05557
1425.13834,0.05983
1427.06681,0.06563
1428.99528,0.06820
1430.92375,0.06777
1432.85221,0.06756
1434.78068,0.06638
1436.70915,0.06230
1438.63762,0.05901
1440.56609,0.05954
1442.49456,0.06241
1444.42303,0.06358
1446.35149,0.06131
1448.27996,0.06116
1450.20843,0.06719
1452.13690,0.07215
1454.06537,0.07085
1455.99384,0.06741
1457.92231,0.06705
1459.85077,0.06727
1461.77924,0.06659
1463.70771,0.06560
1465.63618,0.06546
1467.56465,0.06572
1469.49312,0.06636
1471.42159,0.06937
1473.35006,0.07222
1475.27852,0.06877
1477.20699,0.06306
1479.13546,0.06030
1481.06393,0.06039
1482.99240,0.06157
1484.92087,0.06336
1486.84934,0.06651
1488.77780,0.06973
1490.70627,0.06651
1492.63474,0.06071
1494.56321,0.06049
1496.49168,0.06743
1498.42015,0.07257
1500.34862,0.06799
1502.27709,0.06217
1504.20555,0.06032
1506.13402,0.06062
1508.06249,0.05967
1509.99096,0.05809
1511.91943,0.05793
1513.84790,0.06131
1515.77637,0.06670
1517.70483,0.06927
1519.63330,0.06986
1521.56177,0.06888
1523.49024,0.06727
1525.41871,0.07043
1527.34718,0.07064
1529.27565,0.06386
1531.20412,0.05835
1533.13258,0.05850
1535.06105,0.06313
1536.98952,0.06983
1538.91799,0.07976
1540.84646,0.08143
1542.77493,0.07253
1544.70340,0.06984
1546.63186,0.06681
1548.56033,0.06241
1550.48880,0.06028
1552.41727,0.06276
1554.34574,0.07268
1556.27421,0.08797
1558.20268,0.09242
1560.13115,0.07029
1562.05961,0.06127
1563.98808,0.06081
1565.91655,0.05955
1567.84502,0.05958
1569.77349,0.06439
1571.70196,0.06948
1573.63043,0.07117
1575.55889,0.07028
1577.48736,0.06938
1579.41583,0.06964
1581.34430,0.06767
1583.27277,0.06339
1585.20124,0.05996
1587.12971,0.05957
1589.05818,0.06177
1590.98664,0.06391
1592.91511,0.06353
1594.84358,0.06108
1596.77205,0.06031
1598.70052,0.06243
1600.62899,0.06406
1602.55746,0.06319
1604.48592,0.06156
1606.41439,0.06051
1608.34286,0.05992
1610.27133,0.05965
1612.19980,0.05970
1614.12827,0.06281
1616.05674,0.07114
1617.98521,0.07714
1619.91367,0.07696
1621.84214,0.07460
1623.77061,0.07026
1625.69908,0.06646
1627.62755,0.06372
1629.55602,0.06204
1631.48449,0.06239
1633.41295,0.06441
1635.34142,0.06966
1637.26989,0.07295
1639.19836,0.06902
1641.12683,0.06514
1643.05530,0.06517
1644.98377,0.06727
1646.91223,0.06774
1648.84070,0.06766
1650.76917,0.06827
1652.69764,0.06694
1654.62611,0.06754
1656.55458,0.06951
1658.48305,0.06919
1660.41152,0.06947
1662.33998,0.07204
1664.26845,0.07230
1666.19692,0.06954
1668.12539,0.06774
1670.05386,0.06999
1671.98233,0.07530
1673.91080,0.07840
1675.83926,0.07550
1677.76773,0.07044
1679.69620,0.06942
1681.62467,0.07160
1683.55314,0.07043
1685.48161,0.06517
1687.41008,0.06513
1689.33855,0.06594
1691.26701,0.06477
1693.19548,0.06500
1695.12395,0.06961
1697.05242,0.07638
1698.98089,0.08124
1700.90936,0.08266
1702.83783,0.07893
1704.76629,0.07276
1706.69476,0.06820
1708.62323,0.06716
1710.55170,0.06606
1712.48017,0.06436
1714.40864,0.06345
1716.33711,0.06470
1718.26558,0.06701
1720.19404,0.06487
1722.12251,0.06119
1724.05098,0.06048
1725.97945,0.06268
1727.90792,0.06410
1729.83639,0.06460
1731.76486,0.06697
1733.69332,0.06770
1735.62179,0.06358
1737.55026,0.06265
1739.47873,0.06429
1741.40720,0.06403
1743.33567,0.06293
1745.26414,0.06372
1747.19261,0.06473
1749.12107,0.06436
1751.04954,0.06392
1752.97801,0.06385
1754.90648,0.06352
1756.83495,0.06145
1758.76342,0.05835
1760.69189,0.05890
1762.62035,0.06389
1764.54882,0.06672
1766.47729,0.06593
1768.40576,0.06486
1770.33423,0.06493
1772.26270,0.06619
1774.19117,0.06607
1776.11964,0.06422
1778.04810,0.06348
1779.97657,0.06323
1781.90504,0.06292
1783.83351,0.06377
1785.76198,0.06469
1787.69045,0.06525
1789.61892,0.06703
1791.54738,0.07039
1793.47585,0.07147
1795.40432,0.06833
1797.33279,0.06580
1799.26126,0.06624
1801.18973,0.06671
1803.11820,0.06550
1805.04666,0.06313
1806.97513,0.05964
1808.90360,0.05681
1810.83207,0.05690
1812.76054,0.05976
1814.68901,0.06269
1816.61748,0.06439
1818.54595,0.06586
1820.47441,0.06784
1822.40288,0.06887
1824.33135,0.06638
1826.25982,0.06386
1828.18829,0.06520
1830.11676,0.06490
1832.04523,0.06216
1833.97369,0.06154
1835.90216,0.06252
1837.83063,0.06471
1839.75910,0.06728
1841.68757,0.06843
1843.61604,0.06806
1845.54451,0.06771
1847.47298,0.06915
1849.40144,0.07053
1851.32991,0.06792
1853.25838,0.06324
1855.18685,0.06169
1857.11532,0.06208
1859.04379,0.06220
1860.97226,0.06355
1862.90072,0.06489
1864.82919,0.06410
1866.75766,0.06303
1868.68613,0.06386
1870.61460,0.06359
1872.54307,0.06080
1874.47154,0.05947
1876.40001,0.06051
1878.32847,0.06095
1880.25694,0.06015
1882.18541,0.05974
1884.11388,0.05936
1886.04235,0.05880
1887.97082,0.06093
1889.89929,0.06389
1891.82775,0.06328
1893.75622,0.06155
1895.68469,0.06021
1897.61316,0.05919
1899.54163,0.05952
1901.47010,0.06086
1903.39857,0.06240
1905.32704,0.06439
1907.25550,0.06499
1909.18397,0.06232
1911.11244,0.06009
1913.04091,0.06071
1914.96938,0.06355
1916.89785,0.06760
1918.82632,0.06892
1920.75478,0.06651
1922.68325,0.06387
1924.61172,0.06305
1926.54019,0.06253
1928.46866,0.06040
1930.39713,0.05751
1932.32560,0.05554
1934.25407,0.05635
1936.18253,0.05973
1938.11100,0.06211
1940.03947,0.06284
1941.96794,0.06403
1943.89641,0.06357
1945.82488,0.06078
1947.75335,0.06033
1949.68181,0.06235
1951.61028,0.06357
1953.53875,0.06417
1955.46722,0.06605
1957.39569,0.06886
1959.32416,0.07048
1961.25263,0.06955
1963.18110,0.06572
1965.10956,0.06148
1967.03803,0.06118
1968.96650,0.06479
1970.89497,0.06742
1972.82344,0.06587
1974.75191,0.06293
1976.68038,0.06244
1978.60884,0.06264
1980.53731,0.06145
1982.46578,0.05975
1984.39425,0.05847
1986.32272,0.05838
1988.25119,0.05860
1990.17966,0.05719
1992.10812,0.05606
1994.03659,0.05716
1995.96506,0.05812
1997.89353,0.05869
1999.82200,0.05988
2001.75047,0.06088
2003.67894,0.06324
2005.60741,0.06730
2007.53587,0.06928
2009.46434,0.06767
2011.39281,0.06422
2013.32128,0.06167
2015.24975,0.06151
2017.17822,0.06260
2019.10669,0.06317
2021.03515,0.06271
2022.96362,0.06293
2024.89209,0.06484
2026.82056,0.06503
2028.74903,0.06121
2030.67750,0.05750
2032.60597,0.05684
2034.53444,0.05628
2036.46290,0.05517
2038.39137,0.05704
2040.31984,0.06113
2042.24831,0.06286
2044.17678,0.06152
2046.10525,0.06096
2048.03372,0.06468
2049.96218,0.06956
2051.89065,0.06977
2053.81912,0.06630
2055.74759,0.06391
2057.67606,0.06596
2059.60453,0.07048
2061.53300,0.07074
2063.46147,0.06713
2065.38993,0.06640
2067.31840,0.06750
2069.24687,0.06635
2071.17534,0.06671
2073.10381,0.07050
2075.03228,0.07233
2076.96075,0.06965
2078.88921,0.06643
2080.81768,0.06618
2082.74615,0.06713
2084.67462,0.06730
2086.60309,0.06749
2088.53156,0.06686
2090.46003,0.06549
2092.38850,0.06640
2094.31696,0.06884
2096.24543,0.06894
2098.17390,0.06716
2100.10237,0.06750
2102.03084,0.06806
2103.95931,0.06409
2105.88778,0.06005
2107.81624,0.06063
2109.74471,0.06160
2111.67318,0.06084
2113.60165,0.06170
2115.53012,0.06467
2117.45859,0.06636
2119.38706,0.06501
2121.31553,0.06351
2123.24399,0.06442
2125.17246,0.06619
2127.10093,0.06698
2129.02940,0.06625
2130.95787,0.06460
2132.88634,0.06284
2134.81481,0.06197
2136.74327,0.06389
2138.67174,0.06730
2140.60021,0.06814
2142.52868,0.06617
2144.45715,0.06394
2146.38562,0.06341
2148.31409,0.06580
2150.24255,0.06892
2152.17102,0.06994
2154.09949,0.06930
2156.02796,0.06827
2157.95643,0.06836
2159.88490,0.06897
2161.81337,0.06770
2163.74184,0.06561
2165.67030,0.06553
2167.59877,0.06725
2169.52724,0.06996
2171.45571,0.07276
2173.38418,0.07255
2175.31265,0.07047
2177.24112,0.07052
2179.16958,0.07101
2181.09805,0.06928
2183.02652,0.06719
2184.95499,0.06593
2186.88346,0.06478
2188.81193,0.06494
2190.74040,0.06607
2192.66887,0.06563
2194.59733,0.06345
2196.52580,0.06136
2198.45427,0.06073
2200.38274,0.06072
2202.31121,0.06108
2204.23968,0.06233
2206.16815,0.06310
2208.09661,0.06324
2210.02508,0.06481
2211.95355,0.06804
2213.88202,0.06960
2215.81049,0.06774
2217.73896,0.06559
2219.66743,0.06540
2221.59590,0.06552
2223.52436,0.06461
2225.45283,0.06483
2227.38130,0.06707
2229.30977,0.06850
2231.23824,0.06863
2233.16671,0.06895
2235.09518,0.06995
2237.02364,0.07018
2238.95211,0.06756
2240.88058,0.06456
2242.80905,0.06394
2244.73752,0.06465
2246.66599,0.06503
2248.59446,0.06463
2250.52293,0.06504
2252.45139,0.06574
2254.37986,0.06554
2256.30833,0.06593
2258.23680,0.06643
2260.16527,0.06593
2262.09374,0.06508
2264.02221,0.06441
2265.95067,0.06416
2267.87914,0.06484
2269.80761,0.06648
2271.73608,0.06791
2273.66455,0.06879
2275.59302,0.06909
2277.52149,0.06727
2279.44996,0.06338
2281.37842,0.06064
2283.30689,0.06129
2285.23536,0.06338
2287.16383,0.06328
2289.09230,0.06129
2291.02077,0.06102
2292.94924,0.06209
2294.87770,0.06231
2296.80617,0.06189
2298.73464,0.06075
2300.66311,0.06062
2302.59158,0.06286
2304.52005,0.06493
2306.44852,0.06637
2308.37699,0.06871
2310.30545,0.06847
2312.23392,0.06215
2314.16239,0.05588
2316.09086,0.05542
2318.01933,0.05547
2319.94780,0.05140
2321.87627,0.04657
2323.80473,0.04572
2325.73320,0.04982
2327.66167,0.05200
2329.59014,0.05156
2331.51861,0.05640
2333.44708,0.05729
2335.37555,0.04817
2337.30401,0.04235
2339.23248,0.04169
2341.16095,0.03734
2343.08942,0.03044
2345.01789,0.03014
2346.94636,0.03837
2348.87483,0.04368
2350.80330,0.04399
2352.73176,0.05190
2354.66023,0.06522
2356.58870,0.05268
2358.51717,0.02698
2360.44564,0.02451
2362.37411,0.03485
2364.30258,0.04267
2366.23104,0.04633
2368.15951,0.04446
2370.08798,0.04245
2372.01645,0.04480
2373.94492,0.04840
2375.87339,0.05047
2377.80186,0.05162
2379.73033,0.05210
2381.65879,0.05355
2383.58726,0.05845
2385.51573,0.06375
2387.44420,0.06406
2389.37267,0.06120
2391.30114,0.06228
2393.22961,0.06790
2395.15807,0.07169
2397.08654,0.07109
2399.01501,0.06881
2400.94348,0.06672
2402.87195,0.06524
2404.80042,0.06559
2406.72889,0.06737
2408.65736,0.06818
2410.58582,0.06816
2412.51429,0.06800
2414.44276,0.06648
2416.37123,0.06556
2418.29970,0.06652
2420.22817,0.06631
2422.15664,0.06631
2424.08510,0.06795
2426.01357,0.06769
2427.94204,0.06621
2429.87051,0.06665
2431.79898,0.06843
2433.72745,0.06968
2435.65592,0.06834
2437.58439,0.06480
2439.51285,0.06387
2441.44132,0.06595
2443.36979,0.06620
2445.29826,0.06391
2447.22673,0.06160
2449.15520,0.06099
2451.08367,0.06202
2453.01213,0.06277
2454.94060,0.06129
2456.86907,0.05808
2458.79754,0.05681
2460.72601,0.05959
2462.65448,0.06300
2464.58295,0.06400
2466.51142,0.06481
2468.43988,0.06678
2470.36835,0.06699
2472.29682,0.06503
2474.22529,0.06383
2476.15376,0.06269
2478.08223,0.06104
2480.01070,0.06130
2481.93916,0.06335
2483.86763,0.06541
2485.79610,0.06648
2487.72457,0.06761
2489.65304,0.06848
2491.58151,0.06687
2493.50998,0.06600
2495.43844,0.06886
2497.36691,0.07096
2499.29538,0.06996
2501.22385,0.06752
2503.15232,0.06409
2505.08079,0.06272
2507.00926,0.06445
2508.93773,0.06530
2510.86619,0.06404
2512.79466,0.06250
2514.72313,0.06319
2516.65160,0.06541
2518.58007,0.06488
2520.50854,0.06219
2522.43701,0.06080
2524.36547,0.06034
2526.29394,0.06096
2528.22241,0.06360
2530.15088,0.06684
2532.07935,0.06862
2534.00782,0.06841
2535.93629,0.06832
2537.86476,0.06842
2539.79322,0.06745
2541.72169,0.06595
2543.65016,0.06518
2545.57863,0.06638
2547.50710,0.06870
2549.43557,0.07092
2551.36404,0.07339
2553.29250,0.07562
2555.22097,0.07544
2557.14944,0.07288
2559.07791,0.06995
2561.00638,0.06783
2562.93485,0.06814
2564.86332,0.06989
2566.79179,0.07032
2568.72025,0.07004
2570.64872,0.07013
2572.57719,0.07041
2574.50566,0.06986
2576.43413,0.06747
2578.36260,0.06550
2580.29107,0.06475
2582.21953,0.06299
2584.14800,0.06207
2586.07647,0.06420
2588.00494,0.06679
2589.93341,0.06834
2591.86188,0.07032
2593.79035,0.07090
2595.71882,0.06857
2597.64728,0.06676
2599.57575,0.06758
2601.50422,0.06969
2603.43269,0.07067
2605.36116,0.07105
2607.28963,0.07223
2609.21810,0.07231
2611.14656,0.07051
2613.07503,0.06894
2615.00350,0.06940
2616.93197,0.07184
2618.86044,0.07522
2620.78891,0.07695
2622.71738,0.07503
2624.64585,0.07049
2626.57431,0.06657
2628.50278,0.06565
2630.43125,0.06609
2632.35972,0.06695
2634.28819,0.06864
2636.21666,0.06898
2638.14513,0.06777
2640.07359,0.06868
2642.00206,0.07132
2643.93053,0.07199
2645.85900,0.07053
2647.78747,0.06810
2649.71594,0.06629
2651.64441,0.06674
2653.57288,0.06796
2655.50134,0.06720
2657.42981,0.06665
2659.35828,0.06922
2661.28675,0.07204
2663.21522,0.07184
2665.14369,0.06880
2667.07216,0.06670
2669.00062,0.06796
2670.92909,0.07018
2672.85756,0.07022
2674.78603,0.06828
2676.71450,0.06712
2678.64297,0.06604
2680.57144,0.06398
2682.49990,0.06401
2684.42837,0.06680
2686.35684,0.06947
2688.28531,0.07226
2690.21378,0.07538
2692.14225,0.07515
2694.07072,0.07158
2695.99919,0.06936
2697.92765,0.07087
2699.85612,0.07352
2701.78459,0.07465
2703.71306,0.07423
2705.64153,0.07259
2707.57000,0.07134
2709.49847,0.07172
2711.42693,0.07221
2713.35540,0.07181
2715.28387,0.07240
2717.21234,0.07349
2719.14081,0.07329
2721.06928,0.07361
2722.99775,0.07442
2724.92622,0.07408
2726.85468,0.07298
2728.78315,0.07246
2730.71162,0.07257
2732.64009,0.07142
2734.56856,0.07060
2736.49703,0.07186
2738.42550,0.07215
2740.35396,0.07091
2742.28243,0.07050
2744.21090,0.07049
2746.13937,0.06958
2748.06784,0.06939
2749.99631,0.07004
2751.92478,0.06985
2753.85325,0.07061
2755.78171,0.07303
2757.71018,0.07454
2759.63865,0.07470
2761.56712,0.07407
2763.49559,0.07178
2765.42406,0.06908
2767.35253,0.06778
2769.28099,0.06759
2771.20946,0.06842
2773.13793,0.06949
2775.06640,0.07043
2776.99487,0.07179
2778.92334,0.07225
2780.85181,0.07104
2782.78028,0.07092
2784.70874,0.07356
2786.63721,0.07503
2788.56568,0.07313
2790.49415,0.07072
2792.42262,0.06932
2794.35109,0.06810
2796.27956,0.06774
2798.20802,0.06990
2800.13649,0.07289
2802.06496,0.07365
2803.99343,0.07246
2805.92190,0.07176
2807.85037,0.07278
2809.77884,0.07406
2811.70731,0.07407
2813.63577,0.07330
2815.56424,0.07222
2817.49271,0.07147
2819.42118,0.07260
2821.34965,0.07418
2823.27812,0.07372
2825.20659,0.07218
2827.13505,0.07220
2829.06352,0.07498
2830.99199,0.07752
2832.92046,0.07728
2834.84893,0.07619
2836.77740,0.07529
2838.70587,0.07528
2840.63433,0.07631
2842.56280,0.07514
2844.49127,0.07270
2846.41974,0.07190
2848.34821,0.07076
2850.27668,0.06896
2852.20515,0.06899
2854.13362,0.07269
2856.06208,0.07807
2857.99055,0.07866
2859.91902,0.07452
2861.84749,0.07322
2863.77596,0.07640
2865.70443,0.07870
2867.63290,0.07700
2869.56136,0.07351
2871.48983,0.07171
2873.41830,0.07128
2875.34677,0.07083
2877.27524,0.07229
2879.20371,0.07550
2881.13218,0.07785
2883.06065,0.07797
2884.98911,0.07385
2886.91758,0.06964
2888.84605,0.07213
2890.77452,0.07605
2892.70299,0.07463
2894.63146,0.07143
2896.55993,0.06969
2898.48839,0.06850
2900.41686,0.06900
2902.34533,0.07099
2904.27380,0.07145
2906.20227,0.07015
2908.13074,0.06916
2910.05921,0.06931
2911.98768,0.07018
2913.91614,0.07005
2915.84461,0.06702
2917.77308,0.06520
2919.70155,0.06730
2921.63002,0.06942
2923.55849,0.07053
2925.48696,0.06925
2927.41542,0.06584
2929.34389,0.06460
2931.27236,0.06537
2933.20083,0.06697
2935.12930,0.06879
2937.05777,0.06939
2938.98624,0.07151
2940.91471,0.07693
2942.84317,0.07964
2944.77164,0.07203
2946.70011,0.05884
2948.62858,0.05664
2950.55705,0.06587
2952.48552,0.07222
2954.41399,0.07184
2956.34245,0.06557
2958.27092,0.06009
2960.19939,0.06305
2962.12786,0.06668
2964.05633,0.06568
2965.98480,0.06580
2967.91327,0.06800
2969.84174,0.06991
2971.77020,0.07029
2973.69867,0.06844
2975.62714,0.06397
2977.55561,0.05752
2979.48408,0.05727
2981.41255,0.06642
2983.34102,0.07457
2985.26948,0.07477
2987.19795,0.06892
2989.12642,0.06340
2991.05489,0.06311
2992.98336,0.06704
2994.91183,0.07177
2996.84030,0.07558
2998.76877,0.07956
3000.69723,0.08285
3002.62570,0.08114
3004.55417,0.07435
3006.48264,0.06858
3008.41111,0.06637
3010.33958,0.06188
3012.26805,0.04939
3014.19651,0.03196
3016.12498,0.02275
3018.05345,0.03342
3019.98192,0.05589
3021.91039,0.07296
3023.83886,0.07979
3025.76733,0.07949
3027.69579,0.07694
3029.62426,0.07662
3031.55273,0.07910
3033.48120,0.08307
3035.40967,0.08543
3037.33814,0.08119
3039.26661,0.07156
3041.19508,0.06462
3043.12354,0.06438
3045.05201,0.06649
3046.98048,0.06555
3048.90895,0.06522
3050.83742,0.06921
3052.76589,0.07329
3054.69436,0.07336
3056.62282,0.06887
3058.55129,0.06797
3060.47976,0.07299
3062.40823,0.07271
3064.33670,0.06473
3066.26517,0.05882
3068.19364,0.06411
3070.12211,0.07544
3072.05057,0.07967
3073.97904,0.07452
3075.90751,0.06736
3077.83598,0.06574
3079.76445,0.06982
3081.69292,0.07265
3083.62139,0.06761
3085.54985,0.05935
3087.47832,0.06037
3089.40679,0.06997
3091.33526,0.07678
3093.26373,0.07490
3095.19220,0.07061
3097.12067,0.07160
3099.04914,0.07500
3100.97760,0.07689
3102.90607,0.07511
3104.83454,0.07234
3106.76301,0.07137
3108.69148,0.07028
3110.61995,0.07055
3112.54842,0.07190
3114.47688,0.07429
3116.40535,0.07610
3118.33382,0.07298
3120.26229,0.06591
3122.19076,0.06044
3124.11923,0.06339
3126.04770,0.07177
3127.97617,0.07582
3129.90463,0.07217
3131.83310,0.06675
3133.76157,0.06573
3135.69004,0.06852
3137.61851,0.07325
3139.54698,0.07686
3141.47545,0.07825
3143.40391,0.07723
3145.33238,0.07340
3147.26085,0.06990
3149.18932,0.06827
3151.11779,0.06893
3153.04626,0.07179
3154.97473,0.07476
3156.90320,0.07636
3158.83166,0.07712
3160.76013,0.07707
3162.68860,0.07470
3164.61707,0.07228
3166.54554,0.07283
3168.47401,0.07330
3170.40248,0.07102
3172.33094,0.06905
3174.25941,0.07065
3176.18788,0.07605
3178.11635,0.08265
3180.04482,0.08620
3181.97329,0.08709
3183.90176,0.08891
3185.83022,0.08780
3187.75869,0.08055
3189.68716,0.07614
3191.61563,0.07898
3193.54410,0.08181
3195.47257,0.08084
3197.40104,0.08007
3199.32951,0.08122
3201.25797,0.08110
3203.18644,0.07984
3205.11491,0.08000
3207.04338,0.08223
3208.97185,0.08562
3210.90032,0.08600
3212.82879,0.08130
3214.75725,0.07588
3216.68572,0.07156
3218.61419,0.06964
3220.54266,0.07390
3222.47113,0.07879
3224.39960,0.07751
3226.32807,0.07290
3228.25654,0.06888
3230.18500,0.06901
3232.11347,0.07537
3234.04194,0.08119
3235.97041,0.08173
3237.89888,0.08347
3239.82735,0.08856
3241.75582,0.08997
3243.68428,0.08663
3245.61275,0.08331
3247.54122,0.07851
3249.46969,0.07132
3251.39816,0.06851
3253.32663,0.07105
3255.25510,0.07344
3257.18357,0.07619
3259.11203,0.07996
3261.04050,0.07934
3262.96897,0.07264
3264.89744,0.06724
3266.82591,0.06885
3268.75438,0.07306
3270.68285,0.07481
3272.61131,0.07549
3274.53978,0.07726
3276.46825,0.07836
3278.39672,0.07839
3280.32519,0.07919
3282.25366,0.07853
3284.18213,0.07507
3286.11060,0.06993
3288.03906,0.06836
3289.96753,0.07619
3291.89600,0.08513
3293.82447,0.08472
3295.75294,0.07925
3297.68141,0.07556
3299.60988,0.07355
3301.53834,0.07359
3303.46681,0.07441
3305.39528,0.07111
3307.32375,0.06797
3309.25222,0.07263
3311.18069,0.07924
3313.10916,0.07832
3315.03763,0.07531
3316.96609,0.07860
3318.89456,0.08389
3320.82303,0.08399
3322.75150,0.08072
3324.67997,0.07905
3326.60844,0.07770
3328.53691,0.07739
3330.46537,0.07996
3332.39384,0.08048
3334.32231,0.07862
3336.25078,0.07948
3338.17925,0.08217
3340.10772,0.08314
3342.03619,0.08312
3343.96466,0.08298
3345.89312,0.08147
3347.82159,0.08066
3349.75006,0.08250
3351.67853,0.08446
3353.60700,0.08390
3355.53547,0.08078
3357.46394,0.07831
3359.39240,0.07970
3361.32087,0.08374
3363.24934,0.08485
3365.17781,0.08121
3367.10628,0.07934
3369.03475,0.08017
3370.96322,0.07771
3372.89168,0.07257
3374.82015,0.07202
3376.74862,0.07690
3378.67709,0.07891
3380.60556,0.07617
3382.53403,0.07557
3384.46250,0.07903
3386.39097,0.08046
3388.31943,0.07744
3390.24790,0.07430
3392.17637,0.07473
3394.10484,0.07823
3396.03331,0.07881
3397.96178,0.07549
3399.89025,0.07477
3401.81871,0.07582
3403.74718,0.07669
3405.67565,0.08087
3407.60412,0.08376
3409.53259,0.08067
3411.46106,0.07800
3413.38953,0.07703
3415.31800,0.07308
3417.24646,0.06842
3419.17493,0.06828
3421.10340,0.07301
3423.03187,0.07711
3424.96034,0.07633
3426.88881,0.07371
3428.81728,0.07264
3430.74574,0.07190
3432.67421,0.06949
3434.60268,0.06692
3436.53115,0.06764
3438.45962,0.07109
3440.38809,0.07405
3442.31656,0.07401
3444.24503,0.07338
3446.17349,0.07485
3448.10196,0.07402
3450.03043,0.07187
3451.95890,0.07336
3453.88737,0.07512
3455.81584,0.07261
3457.74431,0.07028
3459.67277,0.07427
3461.60124,0.08115
3463.52971,0.08340
3465.45818,0.08172
3467.38665,0.08238
3469.31512,0.08375
3471.24359,0.08074
3473.17206,0.07505
3475.10052,0.07081
3477.02899,0.06996
3478.95746,0.07189
3480.88593,0.07527
3482.81440,0.07699
3484.74287,0.07426
3486.67134,0.06872
3488.59980,0.06441
3490.52827,0.06339
3492.45674,0.06505
3494.38521,0.06775
3496.31368,0.06894
3498.24215,0.07004
3500.17062,0.07404
3502.09909,0.07731
3504.02755,0.07412
3505.95602,0.06882
3507.88449,0.06963
3509.81296,0.07542
3511.74143,0.07833
3513.66990,0.07531
3515.59837,0.07002
3517.52683,0.06375
3519.45530,0.05786
3521.38377,0.05756
3523.31224,0.06085
3525.24071,0.06247
3527.16918,0.06419
3529.09765,0.06591
3531.02611,0.06558
3532.95458,0.06415
3534.88305,0.06297
3536.81152,0.06384
3538.73999,0.06622
3540.66846,0.06622
3542.59693,0.06247
3544.52540,0.05899
3546.45386,0.05802
3548.38233,0.05792
3550.31080,0.06047
3552.23927,0.06546
3554.16774,0.06622
3556.09621,0.06022
3558.02468,0.05524
3559.95314,0.05691
3561.88161,0.06190
3563.81008,0.06614
3565.73855,0.06829
3567.66702,0.06939
3569.59549,0.06943
3571.52396,0.06502
3573.45243,0.05763
3575.38089,0.05199
3577.30936,0.04968
3579.23783,0.05123
3581.16630,0.05499
3583.09477,0.05592
3585.02324,0.05370
3586.95171,0.05250
3588.88017,0.05441
3590.80864,0.05616
3592.73711,0.05902
3594.66558,0.06414
3596.59405,0.06590
3598.52252,0.06371
3600.45099,0.06091
3602.37946,0.05915
3604.30792,0.06013
3606.23639,0.06328
3608.16486,0.06413
3610.09333,0.05818
3612.02180,0.05036
3613.95027,0.04662
3615.87874,0.04616
3617.80720,0.04912
3619.73567,0.05540
3621.66414,0.05473
3623.59261,0.04837
3625.52108,0.04526
3627.44955,0.04669
3629.37802,0.04803
3631.30649,0.04746
3633.23495,0.04652
3635.16342,0.04570
3637.09189,0.04792
3639.02036,0.05359
3640.94883,0.05972
3642.87730,0.06294
3644.80577,0.06093
3646.73423,0.05708
3648.66270,0.05989
3650.59117,0.06198
3652.51964,0.05691
3654.44811,0.05393
3656.37658,0.05110
3658.30505,0.04800
3660.23352,0.04894
3662.16198,0.04930
3664.09045,0.04692
3666.01892,0.04712
3667.94739,0.05193
3669.87586,0.05946
3671.80433,0.06410
3673.73280,0.06482
3675.66126,0.06340
3677.58973,0.06074
3679.51820,0.05812
3681.44667,0.05393
3683.37514,0.04826
3685.30361,0.04271
3687.23208,0.03960
3689.16055,0.04621
3691.08901,0.05713
3693.01748,0.05648
3694.94595,0.05127
3696.87442,0.05060
3698.80289,0.05314
3700.73136,0.05300
3702.65983,0.04947
3704.58829,0.04721
3706.51676,0.04796
3708.44523,0.04861
3710.37370,0.04698
3712.30217,0.04689
3714.23064,0.04659
3716.15911,0.04387
3718.08757,0.04203
3720.01604,0.04062
3721.94451,0.03564
3723.87298,0.03140
3725.80145,0.03484
3727.72992,0.03934
3729.65839,0.03949
3731.58686,0.03914
3733.51532,0.04226
3735.44379,0.04871
3737.37226,0.04961
3739.30073,0.04608
3741.22920,0.04637
3743.15767,0.05221
3745.08614,0.05743
3747.01460,0.05652
3748.94307,0.05763
3750.87154,0.05907
3752.80001,0.05339
3754.72848,0.04845
3756.65695,0.04351
3758.58542,0.03783
3760.51389,0.03866
3762.44235,0.04448
3764.37082,0.04963
3766.29929,0.05069
3768.22776,0.04808
3770.15623,0.04789
3772.08470,0.04953
3774.01317,0.04873
3775.94163,0.04749
3777.87010,0.04825
3779.79857,0.04971
3781.72704,0.04963
3783.65551,0.04715
3785.58398,0.04395
3787.51245,0.04359
3789.44092,0.04441
3791.36938,0.04564
3793.29785,0.05010
3795.22632,0.05608
3797.15479,0.05653
3799.08326,0.05263
3801.01173,0.05296
3802.94020,0.05520
3804.86866,0.05533
3806.79713,0.05533
3808.72560,0.05213
3810.65407,0.04772
3812.58254,0.04673
3814.51101,0.05031
3816.43948,0.05792
3818.36795,0.06517
3820.29641,0.06620
3822.22488,0.05658
3824.15335,0.04630
3826.08182,0.04115
3828.01029,0.04028
3829.93876,0.04255
3831.86723,0.04690
3833.79569,0.05193
3835.72416,0.05286
3837.65263,0.04532
3839.58110,0.03786
3841.50957,0.04067
3843.43804,0.04677
3845.36651,0.04711
3847.29498,0.04185
3849.22344,0.03794
3851.15191,0.04128
3853.08038,0.05300
3855.00885,0.05669
3856.93732,0.05240
3858.86579,0.05292
3860.79426,0.05758
3862.72272,0.05784
3864.65119,0.05174
3866.57966,0.05132
3868.50813,0.05642
3870.43660,0.05398
3872.36507,0.04543
3874.29354,0.04460
3876.22200,0.04556
3878.15047,0.04260
3880.07894,0.04143
3882.00741,0.04402
3883.93588,0.04581
3885.86435,0.04434
3887.79282,0.04335
3889.72129,0.04654
3891.64975,0.04972
3893.57822,0.04705
3895.50669,0.04169
3897.43516,0.03971
3899.36363,0.04162
3901.29210,0.03980
3903.22057,0.03385
3905.14903,0.03250
3907.07750,0.03622
3909.00597,0.04076
3910.93444,0.04261
3912.86291,0.04076
3914.79138,0.03949
3916.71985,0.04028
3918.64832,0.03955
3920.57678,0.03733
3922.50525,0.03838
3924.43372,0.04293
3926.36219,0.04362
3928.29066,0.04120
3930.21913,0.04121
3932.14760,0.03991
3934.07606,0.03749
3936.00453,0.03923
3937.93300,0.03973
3939.86147,0.03640
3941.78994,0.03855
3943.71841,0.04853
3945.64688,0.05394
3947.57535,0.04998
3949.50381,0.04229
3951.43228,0.03507
3953.36075,0.03180
3955.28922,0.03542
3957.21769,0.04037
3959.14616,0.04176
3961.07463,0.04269
3963.00309,0.04458
3964.93156,0.04515
3966.86003,0.04395
3968.78850,0.04321
3970.71697,0.04290
3972.64544,0.04118
3974.57391,0.03813
3976.50238,0.03373
3978.43084,0.03079
3980.35931,0.03463
3982.28778,0.04290
3984.21625,0.04664
3986.14472,0.04317
3988.07319,0.03775
3990.00166,0.03536
3991.93012,0.03649
3993.85859,0.03961
3995.78706,0.04228
3997.71553,0.04053
3999.64400,0.03363
4001.57247,0.02863
4003.50094,0.03203
4005.42941,0.03672
4007.35787,0.03337
4009.28634,0.02775
4011.21481,0.03004
4013.14328,0.03647
4015.07175,0.03738
4017.00022,0.03400
4018.92869,0.03211
4020.85715,0.03348
4022.78562,0.03640
4024.71409,0.03772
4026.64256,0.03695
4028.57103,0.03573
4030.49950,0.03677
4032.42797,0.03898
4034.35644,0.03887
4036.28490,0.03796
4038.21337,0.03822
4040.14184,0.03985
4042.07031,0.04095
4043.99878,0.03949
4045.92725,0.03682
4047.85572,0.03450
4049.78418,0.03471
4051.71265,0.03543
4053.64112,0.03346
4055.56959,0.03554
4057.49806,0.04080
4059.42653,0.03962
4061.35500,0.03603
4063.28346,0.03723
4065.21193,0.04099
4067.14040,0.04178
4069.06887,0.03957
4070.99734,0.03984
4072.92581,0.03993
4074.85428,0.03373
4076.78275,0.02684
4078.71121,0.02691
4080.63968,0.03112
4082.56815,0.03420
4084.49662,0.03562
4086.42509,0.03822
4088.35356,0.04000
4090.28203,0.03519
4092.21049,0.02829
4094.13896,0.02442
4096.06743,0.02081
4097.99590,0.01692
4099.92437,0.01508
4101.85284,0.01857
4103.78131,0.02642
4105.70978,0.03012
4107.63824,0.02874
4109.56671,0.03033
4111.49518,0.03401
4113.42365,0.03543
4115.35212,0.03684
4117.28059,0.03787
4119.20906,0.03434
4121.13752,0.02793
4123.06599,0.02570
4124.99446,0.02848
4126.92293,0.03102
4128.85140,0.03306
4130.77987,0.03592
4132.70834,0.03705
4134.63681,0.03482
4136.56527,0.03139
4138.49374,0.03203
4140.42221,0.03566
4142.35068,0.03517
4144.27915,0.03259
4146.20762,0.03493
4148.13609,0.03869
4150.06455,0.03660
4151.99302,0.03365
4153.92149,0.03393
4155.84996,0.03225
4157.77843,0.02833
4159.70690,0.02347
4161.63537,0.02054
4163.56384,0.02499
4165.49230,0.03325
4167.42077,0.03814
4169.34924,0.03785
4171.27771,0.03443
4173.20618,0.03057
4175.13465,0.02515
4177.06312,0.01924
4178.99158,0.02018
4180.92005,0.02784
4182.84852,0.03419
4184.77699,0.03472
4186.70546,0.03146
4188.63393,0.02998
4190.56240,0.03023
4192.49087,0.02581
4194.41933,0.02014
4196.34780,0.02519
4198.27627,0.03343
4200.20474,0.02916
4202.13321,0.02034
4204.06168,0.02014
4205.99015,0.02608
4207.91861,0.02943
4209.84708,0.02980
4211.77555,0.03055
4213.70402,0.02783
4215.63249,0.02154
4217.56096,0.02069
4219.48943,0.02920
4221.41789,0.03789
4223.34636,0.03696
4225.27483,0.03073
4227.20330,0.02502
4229.13177,0.01983
4231.06024,0.01856
4232.98871,0.02137
4234.91718,0.02660
4236.84564,0.03260
4238.77411,0.03275
4240.70258,0.02645
4242.63105,0.02046
4244.55952,0.01985
4246.48799,0.02333
4248.41646,0.02809
4250.34492,0.03428
4252.27339,0.03635
4254.20186,0.03105
4256.13033,0.02697
4258.05880,0.02642
4259.98727,0.02290
4261.91574,0.01972
4263.84421,0.02158
4265.77267,0.02199
4267.70114,0.01962
4269.62961,0.02150
4271.55808,0.02737
4273.48655,0.03087
4275.41502,0.02875
4277.34349,0.02451
4279.27195,0.02152
4281.20042,0.01688
4283.12889,0.01251
4285.05736,0.01576
4286.98583,0.02322
4288.91430,0.02571
4290.84277,0.02497
4292.77124,0.02229
4294.69970,0.01406
4296.62817,0.00798
4298.55664,0.01367
4300.48511,0.02627
4302.41358,0.03423
4304.34205,0.03336
4306.27052,0.02886
4308.19898,0.02773
4310.12745,0.02831
4312.05592,0.02689
4313.98439,0.02764
4315.91286,0.02600
4317.84133,0.01828
4319.76980,0.01515
4321.69827,0.01767
4323.62673,0.02024
4325.55520,0.02280
4327.48367,0.02427
4329.41214,0.02161
4331.34061,0.01607
4333.26908,0.01621
4335.19755,0.01959
4337.12601,0.01539
4339.05448,0.00854
4340.98295,0.00610
4342.91142,0.00734
4344.83989,0.01260
4346.76836,0.01995
4348.69683,0.02703
4350.62530,0.03047
4352.55376,0.02679
4354.48223,0.02100
4356.41070,0.02007
4358.33917,0.02298
4360.26764,0.02386
4362.19611,0.02224
4364.12458,0.02226
4366.05304,0.02304
4367.98151,0.02317
4369.90998,0.02575
4371.83845,0.02933
4373.76692,0.03065
4375.69539,0.03167
4377.62386,0.02853
4379.55232,0.01584
4381.48079,0.00497
4383.40926,0.00703
4385.33773,0.01699
4387.26620,0.02776
4389.19467,0.03164
4391.12314,0.02630
4393.05161,0.02212
4394.98007,0.02021
4396.90854,0.01479
4398.83701,0.00921
4400.76548,0.00447
4402.69395,0.00277
4404.62242,0.00922
4406.55089,0.01669
4408.47935,0.01522
4410.40782,0.00912
4412.33629,0.00732
4414.26476,0.00781
4416.19323,0.00959
4418.12170,0.01273
4420.05017,0.01167
4421.97864,0.00682
4423.90710,0.00261
4425.83557,0.00293
4427.76404,0.00706
4429.69251,0.00819
4431.62098,0.00687
4433.54945,0.01140
4435.47792,0.01584
4437.40638,0.00860
4439.33485,-0.00143
4441.26332,-0.00370
4443.19179,-0.00021
4445.12026,0.00390
4447.04873,0.00543
4448.97720,0.00662
4450.90567,0.00931
4452.83413,0.01006
4454.76260,0.00890
4456.69107,0.01352
4458.61954,0.02174
4460.54801,0.02129
4462.47648,0.01062
4464.40495,0.00177
4466.33341,-0.00006
4468.26188,-0.00173
4470.19035,-0.00054
4472.11882,0.00641
4474.04729,0.01288
4475.97576,0.01782
4477.90423,0.02148
4479.83270,0.02273
4481.76116,0.02088
4483.68963,0.01525
4485.61810,0.00493
4487.54657,-0.00569
4489.47504,-0.00756
4491.40351,-0.00396
4493.33198,-0.00116
4495.26044,0.00239
4497.18891,0.00405
4499.11738,0.00404
4501.04585,0.00552
4502.97432,0.00393
4504.90279,0.00070
4506.83126,0.00454
4508.75973,0.01057
4510.68819,0.01058
4512.61666,0.00997
4514.54513,0.01030
4516.47360,0.01203
4518.40207,0.01935
4520.33054,0.02181
4522.25901,0.01354
4524.18747,0.00712
4526.11594,0.00676
4528.04441,0.00514
4529.97288,0.00095
4531.90135,-0.00171
4533.82982,-0.00188
4535.75829,0.00004
4537.68676,0.00302
4539.61522,0.00132
4541.54369,-0.00664
4543.47216,-0.01019
4545.40063,-0.00464
4547.32910,-0.00023
4549.25757,0.00115
4551.18604,0.00726
4553.11450,0.01552
4555.04297,0.02110
4556.97144,0.02237
4558.89991,0.01544
4560.82838,0.00627
4562.75685,0.00327
4564.68532,0.00279
4566.61378,0.00171
4568.54225,0.00109
4570.47072,-0.00001
4572.39919,-0.00050
4574.32766,0.00198
4576.25613,0.00476
4578.18460,0.00282
4580.11307,-0.00012
4582.04153,-0.00109
4583.97000,-0.00450
4585.89847,-0.00495
4587.82694,0.00179
4589.75541,0.00797
4591.68388,0.01133
4593.61235,0.01337
4595.54081,0.00777
4597.46928,-0.00574
4599.39775,-0.01293
4601.32622,-0.00637
4603.25469,0.00788
4605.18316,0.01747
4607.11163,0.01301
4609.04010,0.00385
4610.96856,0.00546
4612.89703,0.01140
4614.82550,0.00908
4616.75397,0.00667
4618.68244,0.01047
4620.61091,0.01518
4622.53938,0.01574
4624.46784,0.00957
4626.39631,0.00775
4628.32478,0.01572
4630.25325,0.02045
4632.18172,0.01517
4634.11019,0.00583
4636.03866,0.00024
4637.96713,-0.00075
4639.89559,-0.00040
4641.82406,-0.00095
4643.75253,0.00088
4645.68100,0.01011
4647.60947,0.02099
4649.53794,0.02685
4651.46641,0.02557
4653.39487,0.01659
4655.32334,0.00661
4657.25181,0.00178
4659.18028,0.00115
4661.10875,-0.00067
4663.03722,-0.00343
4664.96569,-0.00046
4666.89416,0.00681
4668.82262,0.01226
4670.75109,0.01420
4672.67956,0.01022
4674.60803,0.00053
4676.53650,-0.00817
4678.46497,-0.00924
4680.39344,-0.00251
4682.32190,0.00487
4684.25037,0.00633
4686.17884,0.00411
4688.10731,0.00494
4690.03578,0.00773
4691.96425,0.01102
4693.89272,0.01286
4695.82119,0.01002
4697.74965,0.00569
4699.67812,0.00685
4701.60659,0.00946
4703.53506,0.00665
4705.46353,0.00547
4707.39200,0.01343
4709.32047,0.02340
4711.24893,0.02635
4713.17740,0.02303
4715.10587,0.01823
4717.03434,0.01519
4718.96281,0.01110
4720.89128,0.00258
4722.81975,-0.00325
4724.74821,0.00004
4726.67668,0.00602
4728.60515,0.00971
4730.53362,0.01402
4732.46209,0.01489
4734.39056,0.01157
4736.31903,0.01208
4738.24750,0.01377
4740.17596,0.01173
4742.10443,0.00913
4744.03290,0.00804
4745.96137,0.00812
4747.88984,0.00811
4749.81831,0.00634
4751.74678,0.00494
4753.67524,0.00469
4755.60371,-0.00044
4757.53218,-0.00688
4759.46065,-0.00105
4761.38912,0.01158
4763.31759,0.01644
4765.24606,0.01827
4767.17453,0.02137
4769.10299,0.02205
4771.03146,0.02446
4772.95993,0.02884
4774.88840,0.02701
4776.81687,0.01658
4778.74534,0.00443
4780.67381,-0.00270
4782.60227,-0.00224
4784.53074,0.00479
4786.45921,0.00671
4788.38768,-0.00131
4790.31615,-0.00147
4792.24462,0.00971
4794.17309,0.01274
4796.10156,0.00451
4798.03002,-0.00435
4799.95849,-0.00953
4801.88696,-0.00807
4803.81543,0.00247
4805.74390,0.01145
4807.67237,0.00761
4809.60084,-0.00141
4811.52930,-0.01129
4813.45777,-0.01560
4815.38624,-0.00387
4817.31471,0.00694
4819.24318,0.00882
4821.17165,0.01651
4823.10012,0.02290
4825.02859,0.02041
4826.95705,0.01850
4828.88552,0.00961
4830.81399,-0.00560
4832.74246,-0.00626
4834.67093,0.00553
4836.59940,0.01262
4838.52787,0.00935
4840.45633,0.00421
4842.38480,0.00737
4844.31327,0.01274
4846.24174,0.01003
4848.17021,0.00484
4850.09868,0.00488
4852.02715,0.00379
4853.95562,-0.00223
4855.88408,-0.00909
4857.81255,-0.01123
4859.74102,-0.01019
4861.66949,-0.01074
4863.59796,-0.00548
4865.52643,0.00527
4867.45490,0.01040
4869.38336,0.00956
4871.31183,0.00656
4873.24030,0.00461
4875.16877,0.00848
4877.09724,0.00901
4879.02571,-0.00323
4880.95418,-0.01329
4882.88265,-0.01157
4884.81111,-0.00732
4886.73958,-0.00588
4888.66805,-0.01194
4890.59652,-0.02371
4892.52499,-0.02538
4894.45346,-0.02036
4896.38193,-0.02088
4898.31039,-0.01355
4900.23886,0.00608
4902.16733,0.02215
4904.09580,0.02640
4906.02427,0.01606
4907.95274,0.00100
4909.88121,-0.00259
4911.80967,0.00106
4913.73814,-0.00157
4915.66661,-0.00124
4917.59508,0.00584
4919.52355,0.00391
4921.45202,-0.00715
4923.38049,-0.01572
4925.30896,-0.01613
4927.23742,-0.00789
4929.16589,0.00165
4931.09436,0.01105
4933.02283,0.02143
4934.95130,0.02612
4936.87977,0.02017
4938.80824,0.00271
4940.73670,-0.00919
4942.66517,0.00143
4944.59364,0.01597
4946.52211,0.01231
4948.45058,0.00277
4950.37905,0.00599
4952.30752,0.01604
4954.23599,0.01910
4956.16445,0.01286
4958.09292,0.00775
4960.02139,0.01302
4961.94986,0.01704
4963.87833,0.01440
4965.80680,0.01425
4967.73527,0.01561
4969.66373,0.01810
4971.59220,0.01682
4973.52067,0.00383
4975.44914,-0.00558
4977.37761,0.00492
4979.30608,0.01875
4981.23455,0.01878
4983.16302,0.01098
4985.09148,0.00148
4987.01995,-0.00301
4988.94842,0.00152
4990.87689,0.00443
4992.80536,0.00493
4994.73383,0.01639
4996.66230,0.02975
4998.59076,0.03138
5000.51923,0.03185
5002.44770,0.02987
5004.37617,0.02105
5006.30464,0.01777
5008.23311,0.01724
5010.16158,0.00911
5012.09005,0.00367
5014.01851,0.01258
5015.94698,0.02138
5017.87545,0.01439
5019.80392,-0.00042
5021.73239,-0.01065
5023.66086,-0.01123
5025.58933,-0.00857
5027.51779,-0.01012
5029.44626,-0.00944
5031.37473,-0.00029
5033.30320,0.01803
5035.23167,0.03344
5037.16014,0.02769
5039.08861,0.00910
5041.01708,-0.00313
5042.94554,0.00019
5044.87401,0.00847
5046.80248,-0.00153
5048.73095,-0.02401
5050.65942,-0.03020
5052.58789,-0.01521
5054.51636,-0.00103
5056.44482,-0.00345
5058.37329,-0.01848
5060.30176,-0.02539
5062.23023,-0.01126
5064.15870,0.00335
5066.08717,0.00519
5068.01564,0.00367
5069.94410,0.00769
5071.87257,0.00955
5073.80104,0.00191
5075.72951,0.00017
5077.65798,0.01519
5079.58645,0.02332
5081.51492,0.00943
5083.44339,-0.00281
5085.37185,0.00399
5087.30032,0.01372
5089.22879,0.00876
5091.15726,0.00342
5093.08573,0.01147
5095.01420,0.01901
5096.94267,0.02015
5098.87113,0.02268
5100.79960,0.02525
5102.72807,0.02021
5104.65654,0.00859
5106.58501,0.00221
5108.51348,0.01071
5110.44195,0.03278
5112.37042,0.04311
5114.29888,0.02701
5116.22735,0.01287
5118.15582,0.01121
5120.08429,0.01286
5122.01276,0.02012
5123.94123,0.02358
5125.86970,0.02275
5127.79816,0.02818
5129.72663,0.03163
5131.65510,0.02877
5133.58357,0.02322
5135.51204,0.02038
5137.44051,0.02616
5139.36898,0.03346
5141.29745,0.03784
5143.22591,0.03558
5145.15438,0.01838
5147.08285,-0.00386
5149.01132,-0.00868
5150.93979,0.01000
5152.86826,0.02599
5154.79673,0.01669
5156.72519,0.00097
5158.65366,0.00049
5160.58213,0.01015
5162.51060,0.02129
5164.43907,0.01900
5166.36754,0.00420
5168.29601,-0.00142
5170.22448,0.00363
5172.15294,0.01379
5174.08141,0.02727
5176.00988,0.03204
5177.93835,0.02758
5179.86682,0.02781
5181.79529,0.02660
5183.72376,0.01017
5185.65222,-0.00214
5187.58069,0.00632
5189.50916,0.01555
5191.43763,0.01706
5193.36610,0.01696
5195.29457,0.01305
5197.22304,0.01630
5199.15151,0.03487
5201.07997,0.04597
5203.00844,0.03975
5204.93691,0.02319
5206.86538,0.00345
5208.79385,0.00662
5210.72232,0.02654
5212.65079,0.02759
5214.57925,0.01915
5216.50772,0.02220
5218.43619,0.02267
5220.36466,0.01480
5222.29313,0.00792
5224.22160,0.00178
5226.15007,-0.00064
5228.07854,0.00976
5230.00700,0.02607
5231.93547,0.02560
5233.86394,0.01781
5235.79241,0.02514
5237.72088,0.02906
5239.64935,0.02203
5241.57782,0.02829
5243.50628,0.04996
5245.43475,0.06201
5247.36322,0.05376
5249.29169,0.03107
5251.22016,0.00775
5253.14863,0.00535
5255.07710,0.02049
5257.00556,0.02590
5258.93403,0.01910
5260.86250,0.01470
5262.79097,0.01657
5264.71944,0.02281
5266.64791,0.02717
5268.57638,0.03213
5270.50485,0.04333
5272.43331,0.04319
5274.36178,0.03276
5276.29025,0.03306
5278.21872,0.03632
5280.14719,0.03551
5282.07566,0.03423
5284.00413,0.03161
5285.93259,0.03607
5287.86106,0.04455
5289.78953,0.04188
5291.71800,0.02899
5293.64647,0.02080
5295.57494,0.01939
5297.50341,0.01317
5299.43188,0.00485
5301.36034,0.01453
5303.28881,0.03761
5305.21728,0.04714
5307.14575,0.04443
5309.07422,0.04375
5311.00269,0.04462
5312.93116,0.05196
5314.85962,0.06231
5316.78809,0.06528
5318.71656,0.06865
5320.64503,0.07094
5322.57350,0.05692
5324.50197,0.03280
5326.43044,0.01582
5328.35891,-0.00163
5330.28737,-0.03106
5332.21584,-0.04701
5334.14431,-0.02785
5336.07278,-0.00035
5338.00125,0.01155
5339.92972,0.01411
5341.85819,0.02579
5343.78665,0.04614
5345.71512,0.04288
5347.64359,0.02510
5349.57206,0.02441
5351.50053,0.02327
5353.42900,0.00599
5355.35747,-0.00124
5357.28594,0.00898
5359.21440,0.01487
5361.14287,0.01853
5363.07134,0.03157
5364.99981,0.04569
5366.92828,0.05067
5368.85675,0.04933
5370.78522,0.04629
5372.71368,0.03314
5374.64215,0.00553
5376.57062,-0.01215
5378.49909,-0.00424
5380.42756,0.00350
5382.35603,0.00346
5384.28450,0.01123
5386.21297,0.02249
5388.14143,0.03326
5390.06990,0.04801
5391.99837,0.05189
5393.92684,0.03732
5395.85531,0.01864
5397.78378,0.01299
5399.71225,0.02032
5401.64071,0.01876
5403.56918,0.00575
5405.49765,0.00073
5407.42612,0.00688
5409.35459,0.02533
5411.28306,0.04168
5413.21153,0.03573
5415.13999,0.02409
5417.06846,0.01675
5418.99693,0.01438
5420.92540,0.02536
5422.85387,0.04587
5424.78234,0.05200
5426.71081,0.03489
5428.63928,0.02166
5430.56774,0.02298
5432.49621,0.02446
5434.42468,0.01789
5436.35315,0.00697
5438.28162,-0.00573
5440.21009,-0.01879
5442.13856,-0.00527
5444.06702,0.02173
5445.99549,0.02127
5447.92396,0.01066
5449.85243,0.01817
5451.78090,0.02860
5453.70937,0.03003
5455.63784,0.03361
5457.56631,0.03932
5459.49477,0.03735
5461.42324,0.04039
5463.35171,0.06588
5465.28018,0.09362
5467.20865,0.08961
5469.13712,0.06059
5471.06559,0.04116
5472.99405,0.03796
5474.92252,0.03543
5476.85099,0.03956
5478.77946,0.04634
5480.70793,0.03213
5482.63640,0.00967
5484.56487,0.00271
5486.49334,0.00522
5488.42180,0.00951
5490.35027,0.02971
5492.27874,0.05536
5494.20721,0.03723
5496.13568,-0.00155
5498.06415,0.00246
5499.99262,0.03904
5501.92108,0.05832
5503.84955,0.05315
5505.77802,0.04082
5507.70649,0.03501
5509.63496,0.02788
5511.56343,0.01065
5513.49190,0.00409
5515.42037,0.01470
5517.34883,0.03050
5519.27730,0.04714
5521.20577,0.05669
5523.13424,0.05469
5525.06271,0.04586
5526.99118,0.04398
5528.91965,0.05233
5530.84811,0.04917
5532.77658,0.03415
5534.70505,0.03208
5536.63352,0.03024
5538.56199,0.00420
5540.49046,-0.01530
5542.41893,-0.00105
5544.34740,0.02451
5546.27586,0.04276
5548.20433,0.04920
5550.13280,0.05206
5552.06127,0.05981
5553.98974,0.06611
5555.91821,0.07311
5557.84668,0.07400
5559.77514,0.05738
5561.70361,0.03448
5563.63208,0.00841
5565.56055,-0.00663
5567.48902,0.00609
5569.41749,0.00805
5571.34596,-0.00271
5573.27443,0.01294
5575.20289,0.03513
5577.13136,0.04623
5579.05983,0.06445
5580.98830,0.08032
5582.91677,0.07051
5584.84524,0.05777
5586.77371,0.05848
5588.70217,0.04532
5590.63064,0.02587
5592.55911,0.03110
5594.48758,0.04966
5596.41605,0.05365
5598.34452,0.04781
5600.27299,0.04741
5602.20145,0.03810
5604.12992,0.02486
5606.05839,0.03072
5607.98686,0.03978
5609.91533,0.03425
5611.84380,0.03091
5613.77227,0.03125
5615.70074,0.02613
5617.62920,0.03487
5619.55767,0.06057
5621.48614,0.07480
5623.41461,0.05280
5625.34308,0.01499
5627.27155,0.01916
5629.20002,0.04009
5631.12848,0.02043
5633.05695,-0.00048
5634.98542,0.00144
5636.91389,0.00639
5638.84236,0.02767
5640.77083,0.04540
5642.69930,0.02455
5644.62777,-0.00124
5646.55623,0.01382
5648.48470,0.04802
5650.41317,0.05861
5652.34164,0.04273
5654.27011,0.01823
5656.19858,0.01890
5658.12705,0.05638
5660.05551,0.08865
5661.98398,0.08103
5663.91245,0.05448
5665.84092,0.04226
5667.76939,0.03341
5669.69786,0.02173
5671.62633,0.03080
5673.55480,0.04383
5675.48326,0.03501
5677.41173,0.02911
5679.34020,0.03689
5681.26867,0.03937
5683.19714,0.03339
5685.12561,0.01809
5687.05408,0.00941
5688.98254,0.02301
5690.91101,0.03203
5692.83948,0.01762
5694.76795,0.00115
5696.69642,-0.00553
5698.62489,-0.00617
5700.55336,0.01491
5702.48183,0.04769
5704.41029,0.05776
5706.33876,0.04384
5708.26723,0.02479
5710.19570,0.02083
5712.12417,0.02746
5714.05264,0.03144
5715.98111,0.04597
5717.90957,0.06363
5719.83804,0.06026
5721.76651,0.03307
5723.69498,-0.00850
5725.62345,-0.03638
5727.55192,-0.03593
5729.48039,-0.01751
5731.40886,-0.00257
5733.33732,-0.01145
5735.26579,-0.00648
5737.19426,0.03467
5739.12273,0.05340
5741.05120,0.05257
5742.97967,0.06037
5744.90814,0.04543
5746.83660,0.01054
5748.76507,0.00194
5750.69354,0.01500
5752.62201,0.00496
5754.55048,-0.02218
5756.47895,-0.01908
5758.40742,0.01810
5760.33588,0.04209
5762.26435,0.02917
5764.19282,0.00263
5766.12129,-0.00404
5768.04976,0.01419
5769.97823,0.02759
5771.90670,0.02368
5773.83517,0.01296
5775.76363,0.00192
5777.69210,0.00411
5779.62057,0.02507
5781.54904,0.04982
5783.47751,0.06462
5785.40598,0.06440
5787.33445,0.05523
5789.26291,0.05112
5791.19138,0.05447
5793.11985,0.07081
5795.04832,0.09773
5796.97679,0.10114
5798.90526,0.07687
5800.83373,0.04363
5802.76220,0.00891
5804.69066,0.00315
5806.61913,0.03263
5808.54760,0.05766
5810.47607,0.05563
5812.40454,0.03781
5814.33301,0.02295
5816.26148,0.00483
5818.18994,-0.00814
5820.11841,0.01542
5822.04688,0.05324
5823.97535,0.06572
5825.90382,0.05611
5827.83229,0.03055
5829.76076,0.02408
5831.68923,0.06158
5833.61769,0.07540
5835.54616,0.03306
5837.47463,-0.00893
5839.40310,-0.02235
5841.33157,0.00709
5843.26004,0.06661
5845.18851,0.08296
5847.11697,0.05415
5849.04544,0.05142
5850.97391,0.07357
5852.90238,0.08748
5854.83085,0.09982
5856.75932,0.10310
5858.68779,0.08954
5860.61626,0.06202
5862.54472,0.04372
5864.47319,0.06207
5866.40166,0.07790
5868.33013,0.06286
5870.25860,0.04060
5872.18707,0.01666
5874.11554,0.00264
5876.04400,0.00932
5877.97247,0.02978
5879.90094,0.05394
5881.82941,0.05317
5883.75788,0.02623
5885.68635,0.01300
5887.61482,0.03774
5889.54329,0.07218
5891.47175,0.07971
5893.40022,0.06412
5895.32869,0.03685
5897.25716,0.03120
5899.18563,0.06214
5901.11410,0.06986
5903.04257,0.03064
5904.97103,-0.00932
5906.89950,-0.01650
5908.82797,0.01841
5910.75644,0.05614
5912.68491,0.05563
5914.61338,0.02692
5916.54185,0.01405
5918.47032,0.03270
5920.39878,0.02327
5922.32725,-0.00165
5924.25572,0.01962
5926.18419,0.02583
5928.11266,-0.01996
5930.04113,-0.05296
5931.96960,-0.05168
5933.89806,-0.04009
5935.82653,-0.02904
5937.75500,0.00410
5939.68347,0.05507
5941.61194,0.05760
5943.54041,0.01189
5945.46888,-0.00219
5947.39734,0.02115
5949.32581,0.03005
5951.25428,0.00645
5953.18275,-0.01812
5955.11122,-0.01310
5957.03969,0.02591
5958.96816,0.06964
5960.89663,0.06238
5962.82509,0.02585
5964.75356,0.01894
5966.68203,0.03490
5968.61050,0.04563
5970.53897,0.04994
5972.46744,0.05529
5974.39591,0.05973
5976.32437,0.06196
5978.25284,0.05366
5980.18131,0.03704
5982.10978,0.04008
5984.03825,0.06714
5985.96672,0.08161
5987.89519,0.06209
5989.82366,0.03613
5991.75212,0.03536
5993.68059,0.05274
5995.60906,0.04827
5997.53753,0.00565
5999.46600,-0.03105
6001.39447,-0.02621
6003.32294,0.00496
6005.25140,0.02894
6007.17987,0.03681
6009.10834,0.04206
6011.03681,0.04247
6012.96528,0.03100
6014.89375,0.03787
6016.82222,0.07080
6018.75069,0.08228
6020.67915,0.05175
6022.60762,0.03017
6024.53609,0.05018
6026.46456,0.07853
6028.39303,0.11075
6030.32150,0.12959
6032.24997,0.09091
6034.17843,0.03457
6036.10690,0.00300
6038.03537,-0.01963
6039.96384,-0.04633
6041.89231,-0.05575
6043.82078,-0.02188
6045.74925,0.02728
6047.67772,0.05330
6049.60618,0.06930
6051.53465,0.08181
6053.46312,0.04382
6055.39159,-0.03134
6057.32006,-0.06600
6059.24853,-0.06405
6061.17700,-0.05511
6063.10546,-0.00360
6065.03393,0.05127
6066.96240,0.03617
6068.89087,0.01421
6070.81934,0.04051
6072.74781,0.06071
6074.67628,0.03044
6076.60475,-0.01889
6078.53321,-0.03010
6080.46168,0.00803
6082.39015,0.04835
6084.31862,0.06529
6086.24709,0.08993
6088.17556,0.11747
6090.10403,0.11614
6092.03249,0.09080
6093.96096,0.08095
6095.88943,0.10874
6097.81790,0.12243
6099.74637,0.08838
6101.67484,0.03366
6103.60331,0.00998
6105.53177,0.04619
6107.46024,0.09909
6109.38871,0.13151
6111.31718,0.15883
6113.24565,0.15926
6115.17412,0.12378
6117.10259,0.09226
6119.03106,0.06079
6120.95952,0.01807
6122.88799,-0.01224
6124.81646,-0.01973
6126.74493,-0.00963
6128.67340,-0.00695
6130.60187,-0.01810
6132.53034,-0.02219
6134.45880,-0.01373
6136.38727,0.02000
6138.31574,0.08769
6140.24421,0.13732
6142.17268,0.11917
6144.10115,0.06405
6146.02962,0.01447
6147.95809,-0.00990
6149.88655,-0.00323
6151.81502,0.01738
6153.74349,0.01626
6155.67196,-0.01187
6157.60043,-0.01635
6159.52890,0.01533
6161.45737,0.03887
6163.38583,0.05334
6165.31430,0.06508
6167.24277,0.04177
6169.17124,0.00797
6171.09971,0.01970
6173.02818,0.06934
6174.95665,0.10275
6176.88512,0.10696
6178.81358,0.10947
6180.74205,0.11063
6182.67052,0.11595
6184.59899,0.10426
6186.52746,0.03201
6188.45593,-0.03501
6190.38440,-0.03227
6192.31286,-0.00937
6194.24133,-0.00250
6196.16980,0.01198
6198.09827,0.04525
6200.02674,0.05782
6201.95521,0.05254
6203.88368,0.06043
6205.81215,0.07435
6207.74061,0.06992
6209.66908,0.05448
6211.59755,0.06139
6213.52602,0.08878
6215.45449,0.08462
6217.38296,0.01636
6219.31143,-0.04811
6221.23989,-0.02156
6223.16836,0.08196
6225.09683,0.14949
6227.02530,0.10109
6228.95377,-0.00817
6230.88224,-0.06347
6232.81071,-0.04054
6234.73918,-0.01900
6236.66764,-0.00879
6238.59611,0.01404
6240.52458,0.01618
6242.45305,0.01218
6244.38152,0.02964
6246.30999,0.02102
6248.23846,-0.00418
6250.16692,-0.00947
6252.09539,-0.01002
6254.02386,-0.01446
6255.95233,-0.01106
6257.88080,0.02379
6259.80927,0.05998
6261.73774,0.05317
6263.66621,0.03689
6265.59467,0.05678
6267.52314,0.07135
6269.45161,0.04580
6271.38008,0.02691
6273.30855,0.03455
6275.23702,0.06704
6277.16549,0.09521
6279.09395,0.09767
6281.02242,0.11997
6282.95089,0.15171
6284.87936,0.14948
6286.80783,0.12893
6288.73630,0.11675
6290.66477,0.11475
6292.59323,0.13877
6294.52170,0.18723
6296.45017,0.18315
6298.37864,0.12104
6300.30711,0.07646
6302.23558,0.04589
6304.16405,0.00126
6306.09252,-0.02808
6308.02098,-0.04361
6309.94945,-0.06580
6311.87792,-0.06587
6313.80639,-0.01804
6315.73486,0.03529
6317.66333,0.04960
6319.59180,0.04504
6321.52026,0.02931
6323.44873,0.01303
6325.37720,0.03264
6327.30567,0.06567
6329.23414,0.09419
6331.16261,0.11013
6333.09108,0.08177
6335.01955,0.02303
6336.94801,-0.01861
6338.87648,-0.03069
6340.80495,-0.02368
6342.73342,0.00337
6344.66189,0.03562
6346.59036,0.03145
6348.51883,-0.00759
6350.44729,-0.01238
6352.37576,0.03458
6354.30423,0.06975
6356.23270,0.07381
6358.16117,0.07429
6360.08964,0.10101
6362.01811,0.13840
6363.94658,0.13290
6365.87504,0.07951
6367.80351,0.06091
6369.73198,0.10264
6371.66045,0.11739
6373.58892,0.07903
6375.51739,0.05827
6377.44586,0.06424
6379.37432,0.04383
6381.30279,0.01216
6383.23126,0.03388
6385.15973,0.08461
6387.08820,0.09378
6389.01667,0.09332
6390.94514,0.12827
6392.87361,0.13760
6394.80207,0.08398
6396.73054,0.06806
6398.65901,0.10225
6400.58748,0.09750
6402.51595,0.05408
6404.44442,0.03134
6406.37289,0.00496
6408.30135,-0.01722
6410.22982,0.00555
6412.15829,0.02346
6414.08676,-0.00999
6416.01523,-0.06904
6417.94370,-0.07756
6419.87217,0.01615
6421.80064,0.12534
6423.72910,0.14455
6425.65757,0.08575
6427.58604,0.05742
6429.51451,0.08514
6431.44298,0.12045
6433.37145,0.15006
6435.29992,0.12508
6437.22838,0.02952
6439.15685,0.00777
6441.08532,0.11033
6443.01379,0.19219
6444.94226,0.15864
6446.87073,0.10503
6448.79920,0.08539
6450.72766,0.05311
6452.65613,0.02879
6454.58460,0.05094
6456.51307,0.09119
6458.44154,0.11141
6460.37001,0.09794
6462.29848,0.05072
6464.22695,0.01179
6466.15541,0.04739
6468.08388,0.13975
6470.01235,0.14577
6471.94082,0.01560
6473.86929,-0.07722
6475.79776,-0.05897
6477.72623,-0.02756
6479.65469,-0.03467
6481.58316,-0.03633
6483.51163,0.00126
6485.44010,0.02869
6487.36857,0.02053
6489.29704,0.01762
6491.22551,0.03366
6493.15398,0.03427
6495.08244,0.01710
6497.01091,0.01850
6498.93938,0.04219
6500.86785,0.07693
6502.79632,0.10108
6504.72479,0.06179
6506.65326,-0.00219
6508.58172,0.00475
6510.51019,0.03801
6512.43866,0.02512
6514.36713,0.01661
6516.29560,0.02787
6518.22407,0.02596
6520.15254,0.02497
6522.08101,0.04560
6524.00947,0.08042
6525.93794,0.11620
6527.86641,0.12026
6529.79488,0.08021
6531.72335,0.04329
6533.65182,0.03244
6535.58029,0.03879
6537.50875,0.06036
6539.43722,0.07847
6541.36569,0.07627
6543.29416,0.04441
6545.22263,0.00724
6547.15110,0.00330
6549.07957,0.01144
6551.00804,0.02501
6552.93650,0.05298
6554.86497,0.07544
6556.79344,0.08181
6558.72191,0.03881
6560.65038,-0.01691
6562.57885,0.01104
6564.50732,0.05844
6566.43578,0.03886
6568.36425,0.01596
6570.29272,0.00431
6572.22119,-0.03023
6574.14966,-0.02733
6576.07813,0.06244
6578.00660,0.11005
6579.93507,0.01542
6581.86353,-0.06306
6583.79200,-0.03399
6585.72047,-0.02158
6587.64894,-0.05936
6589.57741,-0.04884
6591.50588,-0.00200
6593.43435,-0.03901
6595.36281,-0.09456
6597.29128,-0.04354
6599.21975,0.01064
6601.14822,0.01427
6603.07669,0.05659
6605.00516,0.10889
6606.93363,0.10437
6608.86210,0.04385
6610.79056,-0.03318
6612.71903,-0.04334
6614.64750,0.00362
6616.57597,0.04330
6618.50444,0.10800
6620.43291,0.12584
6622.36138,0.03587
6624.28984,-0.01645
6626.21831,0.04643
6628.14678,0.13142
6630.07525,0.12955
6632.00372,0.02544
6633.93219,-0.09942
6635.86066,-0.13014
6637.78912,-0.06174
6639.71759,-0.05325
6641.64606,-0.09436
6643.57453,-0.06394
6645.50300,0.02492
6647.43147,0.09214
6649.35994,0.12966
6651.28841,0.15066
6653.21687,0.17076
6655.14534,0.20372
6657.07381,0.18502
6659.00228,0.13607
6660.93075,0.14747
6662.85922,0.13094
6664.78769,0.02442
6666.71615,-0.06908
6668.64462,-0.07048
6670.57309,-0.05015
6672.50156,-0.05502
6674.43003,-0.05964
6676.35850,-0.03564
6678.28697,0.03005
6680.21544,0.08356
6682.14390,0.09355
6684.07237,0.06123
6686.00084,0.02663
6687.92931,0.07110
6689.85778,0.14423
6691.78625,0.15069
6693.71472,0.13383
6695.64318,0.12313
6697.57165,0.12729
6699.50012,0.14131
6701.42859,0.10996
6703.35706,0.03655
6705.28553,-0.00944
6707.21400,0.02843
6709.14247,0.08897
6711.07093,0.07370
6712.99940,0.01924
6714.92787,-0.02395
6716.85634,-0.06287
6718.78481,-0.11539
6720.71328,-0.14877
6722.64175,-0.12611
6724.57021,-0.09572
6726.49868,-0.07703
6728.42715,-0.03977
6730.35562,0.00794
6732.28409,0.03903
6734.21256,0.01814
6736.14103,-0.02762
6738.06950,0.01778
6739.99796,0.12218
6741.92643,0.13626
6743.85490,0.08788
6745.78337,0.06222
6747.71184,0.01295
6749.64031,-0.04332
6751.56878,-0.04965
6753.49724,-0.04442
6755.42571,-0.04228
6757.35418,0.00643
6759.28265,0.11823
6761.21112,0.17277
6763.13959,0.13122
6765.06806,0.12882
6766.99653,0.16483
6768.92499,0.17272
6770.85346,0.13771
6772.78193,0.09995
6774.71040,0.12138
6776.63887,0.11022
6778.56734,-0.00031
6780.49581,-0.05733
6782.42427,-0.00914
6784.35274,0.04473
6786.28121,0.05772
6788.20968,0.05038
6790.13815,0.06485
6792.06662,0.11526
6793.99509,0.16547
6795.92355,0.17561
6797.85202,0.16317
6799.78049,0.12952
6801.70896,0.03638
6803.63743,-0.03371
6805.56590,-0.01950
6807.49437,0.01868
6809.42284,0.09479
6811.35130,0.17041
6813.27977,0.12409
6815.20824,0.03969
6817.13671,0.02529
6819.06518,0.01195
6820.99365,-0.02695
6822.92212,-0.03912
6824.85058,-0.01877
6826.77905,0.00222
6828.70752,0.03560
6830.63599,0.03697
6832.56446,-0.06900
6834.49293,-0.16249
6836.42140,-0.10236
6838.34987,-0.02955
6840.27833,-0.07201
6842.20680,-0.12002
6844.13527,-0.05996
6846.06374,0.07643
6847.99221,0.15315
6849.92068,0.10567
6851.84915,0.07125
6853.77761,0.13508
6855.70608,0.18983
6857.63455,0.12842
6859.56302,0.02566
6861.49149,-0.05398
6863.41996,-0.06975
6865.34843,-0.03081
6867.27690,0.00236
6869.20536,0.06503
6871.13383,0.17296
6873.06230,0.19069
6874.99077,0.13352
6876.91924,0.12605
6878.84771,0.09331
6880.77618,0.03888
6882.70464,0.04641
6884.63311,0.04370
6886.56158,0.03323
6888.49005,0.06253
6890.41852,0.06849
6892.34699,0.05351
6894.27546,0.04016
6896.20393,-0.03660
6898.13239,-0.08971
6900.06086,-0.04563
6901.98933,-0.00156
6903.91780,-0.00059
6905.84627,-0.03127
6907.77474,-0.05066
6909.70321,-0.06385
6911.63167,-0.04844
6913.56014,-0.00758
6915.48861,0.01350
6917.41708,0.09639
6919.34555,0.23945
6921.27402,0.27254
6923.20249,0.17782
6925.13096,0.08667
6927.05942,0.10039
6928.98789,0.19272
6930.91636,0.19834
6932.84483,0.07670
6934.77330,0.01481
6936.70177,0.02848
6938.63024,0.03311
6940.55870,0.03788
6942.48717,0.07530
6944.41564,0.13141
6946.34411,0.17080
6948.27258,0.06884
6950.20105,-0.09266
6952.12952,-0.11266
6954.05799,-0.00434
6955.98645,0.07002
6957.91492,0.05803
6959.84339,0.03644
6961.77186,0.03514
6963.70033,0.04959
6965.62880,0.07469
6967.55727,0.03599
6969.48573,-0.11582
6971.41420,-0.20472
6973.34267,-0.07848
6975.27114,0.14338
6977.19961,0.21594
6979.12808,0.07745
6981.05655,-0.06422
6982.98501,-0.04638
6984.91348,0.02329
6986.84195,0.01700
6988.77042,-0.03959
6990.69889,-0.08522
6992.62736,-0.07204
6994.55583,0.01085
6996.48430,0.10018
6998.41276,0.12117
7000.34123,0.10847
7002.26970,0.15287
7004.19817,0.24315
7006.12664,0.31820
7008.05511,0.34355
7009.98358,0.27658
7011.91204,0.15487
7013.84051,0.09107
7015.76898,0.12916
7017.69745,0.20669
7019.62592,0.22068
7021.55439,0.15918
7023.48286,0.14710
7025.41133,0.16633
7027.33979,0.06691
7029.26826,-0.07436
7031.19673,-0.08609
7033.12520,-0.12136
7035.05367,-0.26746
7036.98214,-0.28517
7038.91061,-0.17652
7040.83907,-0.10233
7042.76754,-0.00483
7044.69601,0.15148
7046.62448,0.23337
7048.55295,0.17150
7050.48142,0.07896
7052.40989,0.06935
7054.33836,0.13170
7056.26682,0.24542
7058.19529,0.30794
7060.12376,0.18020
7062.05223,0.01371
7063.98070,-0.06157
7065.90917,-0.08992
7067.83764,-0.05017
7069.76610,0.05241
7071.69457,0.09937
7073.62304,0.05572
7075.55151,0.02969
7077.47998,0.09122
7079.40845,0.18875
7081.33692,0.21579
7083.26539,0.13678
7085.19385,0.03847
7087.12232,0.02612
7089.05079,0.11656
7090.97926,0.14013
7092.90773,0.02065
7094.83620,-0.07639
7096.76467,-0.03101
7098.69313,0.04724
7100.62160,0.07710
7102.55007,0.14578
7104.47854,0.23584
7106.40701,0.26824
7108.33548,0.22266
7110.26395,0.07937
7112.19242,-0.12339
7114.12088,-0.27395
7116.04935,-0.27179
7117.97782,-0.07251
7119.90629,0.13855
7121.83476,0.20277
7123.76323,0.15691
7125.69170,0.04921
7127.62016,-0.06843
7129.54863,-0.12002
7131.47710,-0.12014
7133.40557,-0.09891
7135.33404,-0.02589
7137.26251,0.04676
7139.19098,0.10635
7141.11944,0.16444
7143.04791,0.13786
7144.97638,0.12824
7146.90485,0.25729
7148.83332,0.29408
7150.76179,0.15688
7152.69026,0.03432
7154.61873,0.00911
7156.54719,0.01708
7158.47566,0.05879
7160.40413,0.07601
7162.33260,0.01978
7164.26107,-0.01578
7166.18954,0.01009
7168.11801,0.00567
7170.04647,-0.03897
7171.97494,-0.07314
7173.90341,-0.09566
7175.83188,-0.07149
7177.76035,-0.02093
7179.68882,0.01206
7181.61729,0.07946
7183.54576,0.21434
7185.47422,0.32744
7187.40269,0.35856
7189.33116,0.36458
7191.25963,0.30984
7193.18810,0.16586
7195.11657,0.12080
7197.04504,0.15568
7198.97350,0.06106
7200.90197,-0.10095
7202.83044,-0.07848
7204.75891,0.19993
7206.68738,0.31593
7208.61585,0.17135
7210.54432,0.07649
7212.47279,0.15091
7214.40125,0.23978
7216.32972,0.15852
7218.25819,0.01130
7220.18666,-0.02224
7222.11513,-0.02299
7224.04360,-0.01846
7225.97207,0.01769
7227.90053,0.07074
7229.82900,0.08678
7231.75747,0.08305
7233.68594,0.13570
7235.61441,0.22112
7237.54288,0.30829
7239.47135,0.37089
7241.39982,0.32370
7243.32828,0.12144
7245.25675,-0.06935
7247.18522,-0.20455
7249.11369,-0.27003
7251.04216,-0.16119
7252.97063,0.02390
7254.89910,0.00291
7256.82756,-0.08358
7258.75603,-0.02924
7260.68450,0.10379
7262.61297,0.20009
7264.54144,0.39619
7266.46991,0.51311
7268.39838,0.31221
7270.32685,0.05128
7272.25531,0.08554
7274.18378,0.12608
7276.11225,-0.00919
7278.04072,-0.04997
7279.96919,-0.00464
7281.89766,-0.09595
7283.82613,-0.20021
7285.75459,-0.17906
7287.68306,-0.06183
7289.61153,0.13221
7291.54000,0.26316
7293.46847,0.18053
7295.39694,0.00022
7297.32541,-0.15738
7299.25387,-0.24133
7301.18234,-0.20582
7303.11081,-0.10321
7305.03928,-0.01720
7306.96775,0.10617
7308.89622,0.22590
7310.82469,0.10314
7312.75316,-0.05237
7314.68162,0.04188
7316.61009,0.21852
7318.53856,0.22891
7320.46703,0.19255
7322.39550,0.14616
7324.32397,0.09080
7326.25244,0.10261
7328.18090,0.19543
7330.10937,0.31780
7332.03784,0.30731
7333.96631,0.11867
7335.89478,-0.00710
7337.82325,0.04248
7339.75172,0.09338
7341.68019,0.07046
7343.60865,0.04961
7345.53712,-0.04336
7347.46559,-0.02935
7349.39406,0.11110
7351.32253,0.10916
7353.25100,0.05058
7355.17947,0.06516
7357.10793,0.04013
7359.03640,-0.08654
7360.96487,-0.18564
7362.89334,-0.12294
7364.82181,0.06580
7366.75028,0.21314
7368.67875,0.23319
7370.60722,0.17296
7372.53568,0.14766
7374.46415,0.19486
7376.39262,0.15792
7378.32109,0.08244
7380.24956,0.16817
7382.17803,0.29009
7384.10650,0.23228
7386.03496,0.11789
7387.96343,0.12152
7389.89190,0.08894
7391.82037,-0.06564
7393.74884,-0.19085
7395.67731,-0.23241
7397.60578,-0.23057
7399.53425,-0.23500
7401.46271,-0.24250
7403.39118,-0.12036
7405.31965,0.03748
7407.24812,-0.01666
7409.17659,-0.14098
7411.10506,-0.16691
7413.03353,-0.12573
7414.96199,-0.05856
7416.89046,-0.00019
7418.81893,0.07860
7420.74740,0.27039
7422.67587,0.36425
7424.60434,0.25526
7426.53281,0.05647
7428.46128,-0.01206
7430.38974,0.17026
7432.31821,0.31645
7434.24668,0.29662
7436.17515,0.19055
7438.10362,0.09575
7440.03209,0.11700
7441.96056,0.14335
7443.88902,0.01888
7445.81749,-0.20596
7447.74596,-0.36041
7449.67443,-0.30699
7451.60290,-0.17104
7453.53137,-0.16896
7455.45984,-0.11823
7457.38831,0.09386
7459.31677,0.29149
7461.24524,0.22496
7463.17371,-0.01678
7465.10218,-0.21275
7467.03065,-0.23493
7468.95912,-0.17108
7470.88759,-0.13584
7472.81605,-0.03870
7474.74452,0.10951
7476.67299,0.06706
7478.60146,-0.13789
7480.52993,-0.14482
7482.45840,0.01574
7484.38687,0.08938
7486.31533,0.11422
7488.24380,0.17756
7490.17227,0.29358
7492.10074,0.36295
7494.02921,0.38339
7495.95768,0.47210
7497.88615,0.55258
