399.19301,1.51353
401.12148,0.91602
403.04995,0.12174
404.97842,-0.05174
406.90689,0.05018
408.83536,0.13291
410.76382,0.19394
412.69229,0.26237
414.62076,0.30922
416.54923,0.24085
418.47770,0.02432
420.40617,-0.10940
422.33464,-0.08689
424.26311,-0.04613
426.19157,-0.00263
428.12004,0.07284
430.04851,0.16058
431.97698,0.18095
433.90545,0.13763
435.83392,0.11748
437.76239,0.11366
439.69085,0.09808
441.61932,0.06929
443.54779,0.06190
445.47626,0.02957
447.40473,-0.06228
449.33320,-0.09795
451.26167,-0.06173
453.19013,-0.00504
455.11860,0.09790
457.04707,0.21175
458.97554,0.19870
460.90401,0.08876
462.83248,0.05330
464.76095,0.07861
466.68942,0.04381
468.61788,0.00321
470.54635,0.02524
472.47482,0.06842
474.40329,0.10831
476.33176,0.09961
478.26023,0.04857
480.18870,0.02333
482.11716,0.02465
484.04563,0.00881
485.97410,0.00854
487.90257,0.05198
489.83104,0.07934
491.75951,0.07827
493.68798,0.08984
495.61645,0.09151
497.54491,0.07656
499.47338,0.09885
501.40185,0.12536
503.33032,0.10428
505.25879,0.05712
507.18726,0.00754
509.11573,0.00043
511.04419,0.06618
512.97266,0.14696
514.90113,0.16015
516.82960,0.12438
518.75807,0.12163
520.68654,0.14339
522.61501,0.13311
524.54348,0.08484
526.47194,0.03464
528.40041,0.00291
530.32888,-0.00415
532.25735,0.02040
534.18582,0.05231
536.11429,0.06581
538.04276,0.07048
539.97122,0.08233
541.89969,0.08546
543.82816,0.05770
545.75663,0.02540
547.68510,0.00429
549.61357,-0.02615
551.54204,-0.09272
553.47051,-0.15328
555.39897,-0.10708
557.32744,-0.00421
559.25591,0.05095
561.18438,0.07343
563.11285,0.07295
565.04132,0.05483
566.96979,0.04560
568.89825,0.05442
570.82672,0.06066
572.75519,0.03692
574.68366,0.00777
576.61213,0.01849
578.54060,0.05107
580.46907,0.05686
582.39754,0.02946
584.32600,0.00340
586.25447,0.00216
588.18294,0.01017
590.11141,0.00306
592.03988,-0.01082
593.96835,-0.01431
595.89682,-0.00540
597.82528,0.01998
599.75375,0.05046
601.68222,0.06178
603.61069,0.05643
605.53916,0.05281
607.46763,0.05330
609.39610,0.04733
611.32456,0.03769
613.25303,0.04088
615.18150,0.04991
617.10997,0.04695
619.03844,0.04187
620.96691,0.04146
622.89538,0.03727
624.82385,0.03934
626.75231,0.05235
628.68078,0.05462
630.60925,0.03534
632.53772,0.02052
634.46619,0.03099
636.39466,0.03985
638.32313,0.03309
640.25159,0.03823
642.18006,0.05836
644.10853,0.06078
646.03700,0.04788
647.96547,0.04862
649.89394,0.04623
651.82241,0.01737
653.75088,-0.00230
655.67934,0.01486
657.60781,0.04747
659.53628,0.06811
661.46475,0.05808
663.39322,0.02388
665.32169,0.00680
667.25016,0.03430
669.17862,0.05260
671.10709,0.02244
673.03556,0.00800
674.96403,0.02117
676.89250,0.04653
678.82097,0.05883
680.74944,0.04796
682.67791,0.04038
684.60637,0.04701
686.53484,0.04096
688.46331,0.02571
690.39178,0.02335
692.32025,0.02216
694.24872,0.02184
696.17719,0.03064
698.10565,0.03377
700.03412,0.02967
701.96259,0.03341
703.89106,0.04301
705.81953,0.04723
707.74800,0.04744
709.67647,0.04963
711.60494,0.04993
713.53340,0.04041
715.46187,0.02929
717.39034,0.03011
719.31881,0.03654
721.24728,0.03774
723.17575,0.03602
725.10422,0.03903
727.03268,0.04301
728.96115,0.03530
730.88962,0.02668
732.81809,0.03476
734.74656,0.04242
736.67503,0.04039
738.60350,0.04124
740.53197,0.03509
742.46043,0.02053
744.38890,0.01678
746.31737,0.02286
748.24584,0.02825
750.17431,0.02944
752.10278,0.02635
754.03125,0.02726
755.95971,0.03334
757.88818,0.03815
759.81665,0.04650
761.74512,0.05653
763.67359,0.05963
765.60206,0.05914
767.53053,0.06021
769.45900,0.05860
771.38746,0.04825
773.31593,0.04071
775.24440,0.04729
777.17287,0.05345
779.10134,0.04598
781.02981,0.03519
782.95828,0.03384
784.88674,0.03780
786.81521,0.04026
788.74368,0.04209
790.67215,0.03822
792.60062,0.02492
794.52909,0.01866
796.45756,0.03111
798.38602,0.04519
800.31449,0.04873
802.24296,0.04548
804.17143,0.04116
806.09990,0.03839
808.02837,0.03027
809.95684,0.02221
811.88531,0.02762
813.81377,0.03295
815.74224,0.03082
817.67071,0.03254
819.59918,0.03692
821.52765,0.04365
823.45612,0.04707
825.38459,0.04222
827.31305,0.04023
829.24152,0.03958
831.16999,0.03498
833.09846,0.03467
835.02693,0.04019
836.95540,0.04126
838.88387,0.03620
840.81234,0.03567
842.74080,0.04460
844.66927,0.05306
846.59774,0.05129
848.52621,0.04367
850.45468,0.03540
852.38315,0.03158
854.31162,0.03386
856.24008,0.03398
858.16855,0.03424
860.09702,0.03724
862.02549,0.03566
863.95396,0.03418
865.88243,0.03736
867.81090,0.03995
869.73937,0.04211
871.66783,0.04305
873.59630,0.03888
875.52477,0.03342
877.45324,0.03597
879.38171,0.04528
881.31018,0.04832
883.23865,0.04378
885.16711,0.04240
887.09558,0.04626
889.02405,0.04906
890.95252,0.04937
892.88099,0.04952
894.80946,0.04792
896.73793,0.04435
898.66640,0.04367
900.59486,0.04664
902.52333,0.04632
904.45180,0.04258
906.38027,0.04414
908.30874,0.05099
910.23721,0.05441
912.16568,0.05209
914.09414,0.05092
916.02261,0.05421
917.95108,0.05775
919.87955,0.05621
921.80802,0.04910
923.73649,0.04288
925.66496,0.04422
927.59343,0.04963
929.52189,0.05144
931.45036,0.05328
933.37883,0.05508
935.30730,0.04861
937.23577,0.03889
939.16424,0.03535
941.09271,0.03976
943.02117,0.04499
944.94964,0.04261
946.87811,0.03958
948.80658,0.04353
950.73505,0.04961
952.66352,0.05213
954.59199,0.05077
956.52045,0.05192
958.44892,0.05619
960.37739,0.05833
962.30586,0.05748
964.23433,0.05345
966.16280,0.04807
968.09127,0.04354
970.01974,0.04002
971.94820,0.03780
973.87667,0.03860
975.80514,0.04125
977.73361,0.04058
979.66208,0.03654
981.59055,0.03253
983.51902,0.03266
985.44748,0.03822
987.37595,0.04223
989.30442,0.04065
991.23289,0.04300
993.16136,0.05238
995.08983,0.05456
997.01830,0.04889
998.94677,0.04748
1000.87523,0.04955
1002.80370,0.04978
1004.73217,0.05034
1006.66064,0.05288
1008.58911,0.05353
1010.51758,0.05546
1012.44605,0.06113
1014.37451,0.06085
1016.30298,0.05528
1018.23145,0.05259
1020.15992,0.04912
1022.08839,0.04554
1024.01686,0.04641
1025.94533,0.05047
1027.87380,0.05485
1029.80226,0.04994
1031.73073,0.04312
1033.65920,0.04923
1035.58767,0.05678
1037.51614,0.06017
1039.44461,0.06777
1041.37308,0.07234
1043.30154,0.06529
1045.23001,0.05862
1047.15848,0.06051
1049.08695,0.05796
1051.01542,0.04887
1052.94389,0.04773
1054.87236,0.05603
1056.80083,0.06071
1058.72929,0.05557
1060.65776,0.04999
1062.58623,0.04925
1064.51470,0.04707
1066.44317,0.04571
1068.37164,0.04845
1070.30011,0.04852
1072.22857,0.04429
1074.15704,0.04115
1076.08551,0.04197
1078.01398,0.04432
1079.94245,0.04350
1081.87092,0.03833
1083.79939,0.03554
1085.72786,0.03916
1087.65632,0.04382
1089.58479,0.04985
1091.51326,0.05654
1093.44173,0.06053
1095.37020,0.06720
1097.29867,0.07441
1099.22714,0.07392
1101.15560,0.06248
1103.08407,0.04524
1105.01254,0.03843
1106.94101,0.04518
1108.86948,0.05516
1110.79795,0.06310
1112.72642,0.06399
1114.65489,0.05774
1116.58335,0.05372
1118.51182,0.05455
1120.44029,0.05302
1122.36876,0.04954
1124.29723,0.05215
1126.22570,0.05898
1128.15417,0.05919
1130.08263,0.05159
1132.01110,0.04730
1133.93957,0.05085
1135.86804,0.05515
1137.79651,0.05438
1139.72498,0.05021
1141.65345,0.04764
1143.58191,0.04682
1145.51038,0.04689
1147.43885,0.05098
1149.36732,0.05671
1151.29579,0.05848
1153.22426,0.05519
1155.15273,0.04901
1157.08120,0.04738
1159.00966,0.05493
1160.93813,0.06075
1162.86660,0.05560
1164.79507,0.04866
1166.72354,0.04571
1168.65201,0.04359
1170.58048,0.04504
1172.50894,0.04976
1174.43741,0.05259
1176.36588,0.05210
1178.29435,0.05030
1180.22282,0.05125
1182.15129,0.05664
1184.07976,0.06161
1186.00823,0.05980
1187.93669,0.05507
1189.86516,0.05417
1191.79363,0.05196
1193.72210,0.04771
1195.65057,0.04929
1197.57904,0.05233
1199.50751,0.05301
1201.43597,0.05693
1203.36444,0.05772
1205.29291,0.04874
1207.22138,0.04098
1209.14985,0.04400
1211.07832,0.05189
1213.00679,0.05542
1214.93526,0.05430
1216.86372,0.05291
1218.79219,0.05484
1220.72066,0.05872
1222.64913,0.05959
1224.57760,0.05959
1226.50607,0.06272
1228.43454,0.06518
1230.36300,0.06394
1232.29147,0.06087
1234.21994,0.05806
1236.14841,0.05771
1238.07688,0.05942
1240.00535,0.05952
1241.93382,0.05746
1243.86229,0.05511
1245.79075,0.05217
1247.71922,0.04990
1249.64769,0.05206
1251.57616,0.05684
1253.50463,0.05868
1255.43310,0.05707
1257.36157,0.05549
1259.29003,0.05567
1261.21850,0.05588
1263.14697,0.05373
1265.07544,0.04925
1267.00391,0.04602
1268.93238,0.04739
1270.86085,0.05190
1272.78932,0.05540
1274.71778,0.05504
1276.64625,0.05234
1278.57472,0.05129
1280.50319,0.05230
1282.43166,0.05549
1284.36013,0.06106
1286.28860,0.06180
1288.21706,0.05666
1290.14553,0.05490
1292.07400,0.05631
1294.00247,0.05598
1295.93094,0.05484
1297.85941,0.05281
1299.78788,0.04761
1301.71634,0.03990
1303.64481,0.03466
1305.57328,0.03796
1307.50175,0.04869
1309.43022,0.05754
1311.35869,0.06015
1313.28716,0.06018
1315.21563,0.05963
1317.14409,0.05834
1319.07256,0.05755
1321.00103,0.05563
1322.92950,0.05079
1324.85797,0.04679
1326.78644,0.04660
1328.71491,0.04810
1330.64337,0.04735
1332.57184,0.04599
1334.50031,0.04632
1336.42878,0.04509
1338.35725,0.04473
1340.28572,0.04727
1342.21419,0.04824
1344.14266,0.04800
1346.07112,0.04712
1347.99959,0.04677
1349.92806,0.04797
1351.85653,0.04838
1353.78500,0.04804
1355.71347,0.04916
1357.64194,0.05136
1359.57040,0.05366
1361.49887,0.05670
1363.42734,0.05878
1365.35581,0.05882
1367.28428,0.05978
1369.21275,0.06295
1371.14122,0.06529
1373.06969,0.06414
1374.99815,0.06325
1376.92662,0.06422
1378.85509,0.06192
1380.78356,0.05912
1382.71203,0.06140
1384.64050,0.06524
1386.56897,0.06533
1388.49743,0.06230
1390.42590,0.06310
1392.35437,0.07046
1394.28284,0.07633
1396.21131,0.07102
1398.13978,0.06087
1400.06825,0.05507
1401.99672,0.05364
1403.92518,0.05419
1405.85365,0.05519
1407.78212,0.05467
1409.71059,0.05411
1411.63906,0.05593
1413.56753,0.05827
1415.49600,0.05883
1417.42446,0.05973
1419.35293,0.06141
1421.28140,0.05909
1423.20987,0.05616
1425.13834,0.05755
1427.06681,0.06069
1428.99528,0.06300
1430.92375,0.06532
1432.85221,0.06508
1434.78068,0.06333
1436.70915,0.06453
1438.63762,0.06546
1440.56609,0.06543
1442.49456,0.06611
1444.42303,0.06494
1446.35149,0.06432
1448.27996,0.06746
1450.20843,0.06814
1452.13690,0.06490
1454.06537,0.06470
1455.99384,0.07098
1457.92231,0.07454
1459.85077,0.07068
1461.77924,0.07067
1463.70771,0.07321
1465.63618,0.07175
1467.56465,0.06664
1469.49312,0.06380
1471.42159,0.06696
1473.35006,0.07477
1475.27852,0.07841
1477.20699,0.07670
1479.13546,0.06990
1481.06393,0.06228
1482.99240,0.06106
1484.92087,0.06340
1486.84934,0.06285
1488.77780,0.06018
1490.70627,0.06031
1492.63474,0.06370
1494.56321,0.06747
1496.49168,0.06892
1498.42015,0.06607
1500.34862,0.06291
1502.27709,0.06230
1504.20555,0.06385
1506.13402,0.06802
1508.06249,0.06866
1509.99096,0.06245
1511.91943,0.05813
1513.84790,0.05847
1515.77637,0.06082
1517.70483,0.06274
1519.63330,0.06553
1521.56177,0.06693
1523.49024,0.06517
1525.41871,0.06316
1527.34718,0.05914
1529.27565,0.05538
1531.20412,0.05683
1533.13258,0.06334
1535.06105,0.06849
1536.98952,0.06951
1538.91799,0.06845
1540.84646,0.06609
1542.77493,0.06707
1544.70340,0.06922
1546.63186,0.06770
1548.56033,0.06352
1550.48880,0.05998
1552.41727,0.05957
1554.34574,0.06237
1556.27421,0.06492
1558.20268,0.06347
1560.13115,0.06125
1562.05961,0.06182
1563.98808,0.06185
1565.91655,0.05991
1567.84502,0.05683
1569.77349,0.05736
1571.70196,0.06193
1573.63043,0.06525
1575.55889,0.06725
1577.48736,0.06482
1579.41583,0.05960
1581.34430,0.05717
1583.27277,0.05773
1585.20124,0.05985
1587.12971,0.06274
1589.05818,0.06665
1590.98664,0.06948
1592.91511,0.06795
1594.84358,0.06446
1596.77205,0.06164
1598.70052,0.05935
1600.62899,0.05967
1602.55746,0.06322
1604.48592,0.06630
1606.41439,0.06581
1608.34286,0.06284
1610.27133,0.06128
1612.19980,0.06124
1614.12827,0.06022
1616.05674,0.06171
1617.98521,0.06809
1619.91367,0.07035
1621.84214,0.06944
1623.77061,0.06979
1625.69908,0.07005
1627.62755,0.06968
1629.55602,0.06886
1631.48449,0.06764
1633.41295,0.06969
1635.34142,0.07304
1637.26989,0.06833
1639.19836,0.06376
1641.12683,0.06210
1643.05530,0.06119
1644.98377,0.06131
1646.91223,0.06362
1648.84070,0.07021
1650.76917,0.07713
1652.69764,0.07961
1654.62611,0.07147
1656.55458,0.06546
1658.48305,0.06392
1660.41152,0.06298
1662.33998,0.06189
1664.26845,0.06417
1666.19692,0.06923
1668.12539,0.07402
1670.05386,0.07071
1671.98233,0.05898
1673.91080,0.05314
1675.83926,0.05878
1677.76773,0.06585
1679.69620,0.06703
1681.62467,0.06447
1683.55314,0.06194
1685.48161,0.06605
1687.41008,0.07001
1689.33855,0.06961
1691.26701,0.06597
1693.19548,0.06214
1695.12395,0.06258
1697.05242,0.06653
1698.98089,0.06655
1700.90936,0.06352
1702.83783,0.06267
1704.76629,0.06482
1706.69476,0.06838
1708.62323,0.06886
1710.55170,0.06590
1712.48017,0.06337
1714.40864,0.06401
1716.33711,0.06474
1718.26558,0.06204
1720.19404,0.06181
1722.12251,0.06365
1724.05098,0.06421
1725.97945,0.06223
1727.90792,0.05995
1729.83639,0.05997
1731.76486,0.05989
1733.69332,0.05774
1735.62179,0.05774
1737.55026,0.05864
1739.47873,0.05744
1741.40720,0.05587
1743.33567,0.05649
1745.26414,0.05981
1747.19261,0.06530
1749.12107,0.06968
1751.04954,0.06874
1752.97801,0.06409
1754.90648,0.06173
1756.83495,0.06402
1758.76342,0.06765
1760.69189,0.06833
1762.62035,0.06506
1764.54882,0.06184
1766.47729,0.06140
1768.40576,0.06225
1770.33423,0.06337
1772.26270,0.06443
1774.19117,0.06356
1776.11964,0.06221
1778.04810,0.06237
1779.97657,0.06238
1781.90504,0.06187
1783.83351,0.06335
1785.76198,0.06538
1787.69045,0.06514
1789.61892,0.06410
1791.54738,0.06361
1793.47585,0.06247
1795.40432,0.06226
1797.33279,0.06601
1799.26126,0.07210
1801.18973,0.07270
1803.11820,0.06765
1805.04666,0.06570
1806.97513,0.06695
1808.90360,0.06695
1810.83207,0.06488
1812.76054,0.06464
1814.68901,0.06504
1816.61748,0.05501
1818.54595,0.03633
1820.47441,0.03104
1822.40288,0.04477
1824.33135,0.05967
1826.25982,0.06524
1828.18829,0.06764
1830.11676,0.06825
1832.04523,0.06715
1833.97369,0.06737
1835.90216,0.06637
1837.83063,0.06377
1839.75910,0.06409
1841.68757,0.06787
1843.61604,0.06932
1845.54451,0.06623
1847.47298,0.06394
1849.40144,0.06328
1851.32991,0.06475
1853.25838,0.06577
1855.18685,0.06247
1857.11532,0.05924
1859.04379,0.05971
1860.97226,0.06135
1862.90072,0.06277
1864.82919,0.06391
1866.75766,0.06410
1868.68613,0.06326
1870.61460,0.06157
1872.54307,0.05958
1874.47154,0.05839
1876.40001,0.05839
1878.32847,0.05902
1880.25694,0.06019
1882.18541,0.06160
1884.11388,0.06225
1886.04235,0.06248
1887.97082,0.06287
1889.89929,0.06171
1891.82775,0.06088
1893.75622,0.06350
1895.68469,0.06630
1897.61316,0.06637
1899.54163,0.06457
1901.47010,0.06209
1903.39857,0.06136
1905.32704,0.06318
1907.25550,0.06407
1909.18397,0.06297
1911.11244,0.06267
1913.04091,0.06276
1914.96938,0.06260
1916.89785,0.06291
1918.82632,0.06304
1920.75478,0.06246
1922.68325,0.06046
1924.61172,0.05841
1926.54019,0.05894
1928.46866,0.06187
1930.39713,0.06456
1932.32560,0.06465
1934.25407,0.06341
1936.18253,0.06258
1938.11100,0.06245
1940.03947,0.06292
1941.96794,0.06182
1943.89641,0.05918
1945.82488,0.05776
1947.75335,0.05759
1949.68181,0.05931
1951.61028,0.06266
1953.53875,0.06520
1955.46722,0.06576
1957.39569,0.06452
1959.32416,0.06342
1961.25263,0.06310
1963.18110,0.06223
1965.10956,0.06153
1967.03803,0.06226
1968.96650,0.06381
1970.89497,0.06414
1972.82344,0.06261
1974.75191,0.06182
1976.68038,0.06269
1978.60884,0.06221
1980.53731,0.06123
1982.46578,0.06264
1984.39425,0.06462
1986.32272,0.06458
1988.25119,0.06424
1990.17966,0.06703
1992.10812,0.07014
1994.03659,0.06823
1995.96506,0.06306
1997.89353,0.05896
1999.82200,0.05848
2001.75047,0.06230
2003.67894,0.06635
2005.60741,0.06559
2007.53587,0.06192
2009.46434,0.05920
2011.39281,0.05940
2013.32128,0.06346
2015.24975,0.06716
2017.17822,0.06682
2019.10669,0.06571
2021.03515,0.06612
2022.96362,0.06629
2024.89209,0.06578
2026.82056,0.06629
2028.74903,0.06768
2030.67750,0.06733
2032.60597,0.06545
2034.53444,0.06463
2036.46290,0.06533
2038.39137,0.06617
2040.31984,0.06580
2042.24831,0.06444
2044.17678,0.06269
2046.10525,0.06067
2048.03372,0.05988
2049.96218,0.06110
2051.89065,0.06115
2053.81912,0.05922
2055.74759,0.05976
2057.67606,0.06367
2059.60453,0.06623
2061.53300,0.06468
2063.46147,0.06320
2065.38993,0.06585
2067.31840,0.06938
2069.24687,0.06963
2071.17534,0.06806
2073.10381,0.06835
2075.03228,0.06967
2076.96075,0.06886
2078.88921,0.06730
2080.81768,0.06795
2082.74615,0.06971
2084.67462,0.06990
2086.60309,0.06883
2088.53156,0.06929
2090.46003,0.07075
2092.38850,0.07014
2094.31696,0.06865
2096.24543,0.06746
2098.17390,0.06542
2100.10237,0.06291
2102.03084,0.06135
2103.95931,0.06253
2105.88778,0.06535
2107.81624,0.06517
2109.74471,0.06255
2111.67318,0.06191
2113.60165,0.06149
2115.53012,0.05957
2117.45859,0.05931
2119.38706,0.06171
2121.31553,0.06489
2123.24399,0.06729
2125.17246,0.06854
2127.10093,0.06847
2129.02940,0.06756
2130.95787,0.06702
2132.88634,0.06696
2134.81481,0.06686
2136.74327,0.06680
2138.67174,0.06661
2140.60021,0.06634
2142.52868,0.06635
2144.45715,0.06557
2146.38562,0.06374
2148.31409,0.06199
2150.24255,0.06118
2152.17102,0.06211
2154.09949,0.06385
2156.02796,0.06430
2157.95643,0.06437
2159.88490,0.06616
2161.81337,0.06815
2163.74184,0.06847
2165.67030,0.06914
2167.59877,0.07041
2169.52724,0.06905
2171.45571,0.06766
2173.38418,0.06972
2175.31265,0.07207
2177.24112,0.07249
2179.16958,0.07102
2181.09805,0.06863
2183.02652,0.06710
2184.95499,0.06603
2186.88346,0.06430
2188.81193,0.06286
2190.74040,0.06244
2192.66887,0.06130
2194.59733,0.05956
2196.52580,0.05874
2198.45427,0.05884
2200.38274,0.05935
2202.31121,0.05944
2204.23968,0.05901
2206.16815,0.06014
2208.09661,0.06388
2210.02508,0.06741
2211.95355,0.06935
2213.88202,0.06990
2215.81049,0.06839
2217.73896,0.06683
2219.66743,0.06662
2221.59590,0.06680
2223.52436,0.06835
2225.45283,0.07124
2227.38130,0.07177
2229.30977,0.06828
2231.23824,0.06432
2233.16671,0.06404
2235.09518,0.06637
2237.02364,0.06716
2238.95211,0.06668
2240.88058,0.06714
2242.80905,0.06722
2244.73752,0.06608
2246.66599,0.06541
2248.59446,0.06561
2250.52293,0.06594
2252.45139,0.06558
2254.37986,0.06381
2256.30833,0.06298
2258.23680,0.06541
2260.16527,0.06830
2262.09374,0.06873
2264.02221,0.06759
2265.95067,0.06604
2267.87914,0.06458
2269.80761,0.06315
2271.73608,0.06125
2273.66455,0.06040
2275.59302,0.06266
2277.52149,0.06546
2279.44996,0.06512
2281.37842,0.06368
2283.30689,0.06428
2285.23536,0.06688
2287.16383,0.06964
2289.09230,0.07017
2291.02077,0.06856
2292.94924,0.06535
2294.87770,0.06105
2296.80617,0.05861
2298.73464,0.05906
2300.66311,0.06025
2302.59158,0.06037
2304.52005,0.05951
2306.44852,0.06043
2308.37699,0.06320
2310.30545,0.06259
2312.23392,0.05820
2314.16239,0.05366
2316.09086,0.04770
2318.01933,0.04347
2319.94780,0.04788
2321.87627,0.05239
2323.80473,0.04975
2325.73320,0.04965
2327.66167,0.04628
2329.59014,0.03129
2331.51861,0.02165
2333.44708,0.02942
2335.37555,0.04599
2337.30401,0.05923
2339.23248,0.05674
2341.16095,0.04291
2343.08942,0.03533
2345.01789,0.03366
2346.94636,0.03802
2348.87483,0.04957
2350.80330,0.06070
2352.73176,0.06420
2354.66023,0.05833
2356.58870,0.04531
2358.51717,0.02485
2360.44564,0.00805
2362.37411,0.01278
2364.30258,0.03039
2366.23104,0.03852
2368.15951,0.04107
2370.08798,0.04596
2372.01645,0.04826
2373.94492,0.04910
2375.87339,0.05262
2377.80186,0.05838
2379.73033,0.06276
2381.65879,0.06322
2383.58726,0.06084
2385.51573,0.05901
2387.44420,0.05937
2389.37267,0.06048
2391.30114,0.06218
2393.22961,0.06475
2395.15807,0.06547
2397.08654,0.06296
2399.01501,0.06144
2400.94348,0.06380
2402.87195,0.06668
2404.80042,0.06734
2406.72889,0.06593
2408.65736,0.06350
2410.58582,0.06220
2412.51429,0.06293
2414.44276,0.06483
2416.37123,0.06670
2418.29970,0.06600
2420.22817,0.06368
2422.15664,0.06499
2424.08510,0.06832
2426.01357,0.06788
2427.94204,0.06532
2429.87051,0.06475
2431.79898,0.06517
2433.72745,0.06525
2435.65592,0.06622
2437.58439,0.06736
2439.51285,0.06750
2441.44132,0.06766
2443.36979,0.06802
2445.29826,0.06966
2447.22673,0.07269
2449.15520,0.07104
2451.08367,0.06381
2453.01213,0.06015
2454.94060,0.06296
2456.86907,0.06663
2458.79754,0.06898
2460.72601,0.07087
2462.65448,0.07048
2464.58295,0.06769
2466.51142,0.06661
2468.43988,0.06795
2470.36835,0.06842
2472.29682,0.06738
2474.22529,0.06751
2476.15376,0.06982
2478.08223,0.07084
2480.01070,0.06938
2481.93916,0.06844
2483.86763,0.06852
2485.79610,0.06926
2487.72457,0.07045
2489.65304,0.06970
2491.58151,0.06709
2493.50998,0.06538
2495.43844,0.06522
2497.36691,0.06517
2499.29538,0.06491
2501.22385,0.06613
2503.15232,0.06887
2505.08079,0.07066
2507.00926,0.07083
2508.93773,0.07043
2510.86619,0.06914
2512.79466,0.06669
2514.72313,0.06474
2516.65160,0.06486
2518.58007,0.06627
2520.50854,0.06721
2522.43701,0.06664
2524.36547,0.06491
2526.29394,0.06411
2528.22241,0.06575
2530.15088,0.06728
2532.07935,0.06559
2534.00782,0.06352
2535.93629,0.06551
2537.86476,0.06929
2539.79322,0.06986
2541.72169,0.06881
2543.65016,0.06881
2545.57863,0.06817
2547.50710,0.06770
2549.43557,0.06808
2551.36404,0.06720
2553.29250,0.06568
2555.22097,0.06486
2557.14944,0.06507
2559.07791,0.06751
2561.00638,0.07021
2562.93485,0.06963
2564.86332,0.06847
2566.79179,0.06808
2568.72025,0.06635
2570.64872,0.06550
2572.57719,0.06615
2574.50566,0.06614
2576.43413,0.06540
2578.36260,0.06443
2580.29107,0.06446
2582.21953,0.06670
2584.14800,0.07022
2586.07647,0.07247
2588.00494,0.07168
2589.93341,0.06897
2591.86188,0.06670
2593.79035,0.06654
2595.71882,0.06954
2597.64728,0.07435
2599.57575,0.07706
2601.50422,0.07496
2603.43269,0.07019
2605.36116,0.06817
2607.28963,0.06926
2609.21810,0.06909
2611.14656,0.06837
2613.07503,0.06910
2615.00350,0.06852
2616.93197,0.06729
2618.86044,0.06852
2620.78891,0.06986
2622.71738,0.06880
2624.64585,0.06799
2626.57431,0.06939
2628.50278,0.07125
2630.43125,0.07195
2632.35972,0.07105
2634.28819,0.06992
2636.21666,0.07051
2638.14513,0.07171
2640.07359,0.07148
2642.00206,0.06959
2643.93053,0.06830
2645.85900,0.06858
2647.78747,0.06870
2649.71594,0.06919
2651.64441,0.06934
2653.57288,0.06671
2655.50134,0.06409
2657.42981,0.06566
2659.35828,0.07039
2661.28675,0.07363
2663.21522,0.07299
2665.14369,0.07124
2667.07216,0.07053
2669.00062,0.07043
2670.92909,0.07213
2672.85756,0.07425
2674.78603,0.07305
2676.71450,0.07024
2678.64297,0.07020
2680.57144,0.07316
2682.49990,0.07524
2684.42837,0.07524
2686.35684,0.07526
2688.28531,0.07405
2690.21378,0.06971
2692.14225,0.06500
2694.07072,0.06393
2695.99919,0.06569
2697.92765,0.06689
2699.85612,0.06710
2701.78459,0.06709
2703.71306,0.06818
2705.64153,0.07142
2707.57000,0.07452
2709.49847,0.07476
2711.42693,0.07224
2713.35540,0.06861
2715.28387,0.06589
2717.21234,0.06536
2719.14081,0.06658
2721.06928,0.06862
2722.99775,0.07058
2724.92622,0.07095
2726.85468,0.06986
2728.78315,0.06969
2730.71162,0.07045
2732.64009,0.07082
2734.56856,0.07251
2736.49703,0.07504
2738.42550,0.07415
2740.35396,0.07100
2742.28243,0.07025
2744.21090,0.07207
2746.13937,0.07401
2748.06784,0.07380
2749.99631,0.07280
2751.92478,0.07370
2753.85325,0.07484
2755.78171,0.07481
2757.71018,0.07374
2759.63865,0.07331
2761.56712,0.07348
2763.49559,0.07193
2765.42406,0.07099
2767.35253,0.07171
2769.28099,0.07254
2771.20946,0.07299
2773.13793,0.07270
2775.06640,0.07356
2776.99487,0.07609
2778.92334,0.07838
2780.85181,0.07899
2782.78028,0.07746
2784.70874,0.07519
2786.63721,0.07370
2788.56568,0.07358
2790.49415,0.07561
2792.42262,0.07757
2794.35109,0.07567
2796.27956,0.07256
2798.20802,0.07092
2800.13649,0.06777
2802.06496,0.06538
2803.99343,0.06844
2805.92190,0.07294
2807.85037,0.07518
2809.77884,0.07721
2811.70731,0.07806
2813.63577,0.07673
2815.56424,0.07595
2817.49271,0.07616
2819.42118,0.07534
2821.34965,0.07396
2823.27812,0.07415
2825.20659,0.07548
2827.13505,0.07524
2829.06352,0.07335
2830.99199,0.07298
2832.92046,0.07439
2834.84893,0.07649
2836.77740,0.07839
2838.70587,0.07750
2840.63433,0.07504
2842.56280,0.07396
2844.49127,0.07344
2846.41974,0.07398
2848.34821,0.07754
2850.27668,0.08121
2852.20515,0.08128
2854.13362,0.07905
2856.06208,0.07647
2857.99055,0.07582
2859.91902,0.07846
2861.84749,0.08186
2863.77596,0.08269
2865.70443,0.07886
2867.63290,0.07295
2869.56136,0.06997
2871.48983,0.07100
2873.41830,0.07352
2875.34677,0.07493
2877.27524,0.07390
2879.20371,0.07061
2881.13218,0.06723
2883.06065,0.06436
2884.98911,0.06159
2886.91758,0.06279
2888.84605,0.06919
2890.77452,0.07393
2892.70299,0.07248
2894.63146,0.06899
2896.55993,0.06935
2898.48839,0.07205
2900.41686,0.07220
2902.34533,0.07066
2904.27380,0.06923
2906.20227,0.06960
2908.13074,0.07293
2910.05921,0.07357
2911.98768,0.07014
2913.91614,0.06744
2915.84461,0.06640
2917.77308,0.06711
2919.70155,0.06885
2921.63002,0.07079
2923.55849,0.07315
2925.48696,0.07261
2927.41542,0.06961
2929.34389,0.06991
2931.27236,0.07339
2933.20083,0.07487
2935.12930,0.07185
2937.05777,0.06675
2938.98624,0.06436
2940.91471,0.06641
2942.84317,0.06968
2944.77164,0.06895
2946.70011,0.06436
2948.62858,0.06317
2950.55705,0.06684
2952.48552,0.06879
2954.41399,0.06678
2956.34245,0.06311
2958.27092,0.06114
2960.19939,0.06460
2962.12786,0.07350
2964.05633,0.08208
2965.98480,0.08083
2967.91327,0.07183
2969.84174,0.06925
2971.77020,0.07329
2973.69867,0.07472
2975.62714,0.07229
2977.55561,0.06649
2979.48408,0.06157
2981.41255,0.06462
2983.34102,0.07211
2985.26948,0.07330
2987.19795,0.06743
2989.12642,0.06448
2991.05489,0.06743
2992.98336,0.07159
2994.91183,0.07567
2996.84030,0.07831
2998.76877,0.07915
3000.69723,0.08092
3002.62570,0.08035
3004.55417,0.07385
3006.48264,0.06697
3008.41111,0.06517
3010.33958,0.06342
3012.26805,0.05144
3014.19651,0.03248
3016.12498,0.02421
3018.05345,0.03641
3019.98192,0.05898
3021.91039,0.07204
3023.83886,0.06983
3025.76733,0.06482
3027.69579,0.06506
3029.62426,0.06909
3031.55273,0.07603
3033.48120,0.08211
3035.40967,0.08209
3037.33814,0.07963
3039.26661,0.08072
3041.19508,0.08264
3043.12354,0.08159
3045.05201,0.07849
3046.98048,0.07555
3048.90895,0.07572
3050.83742,0.07908
3052.76589,0.08233
3054.69436,0.08117
3056.62282,0.07289
3058.55129,0.06426
3060.47976,0.06481
3062.40823,0.07171
3064.33670,0.07570
3066.26517,0.07362
3068.19364,0.06769
3070.12211,0.06645
3072.05057,0.07449
3073.97904,0.07850
3075.90751,0.07249
3077.83598,0.07028
3079.76445,0.07594
3081.69292,0.07881
3083.62139,0.07292
3085.54985,0.06858
3087.47832,0.07777
3089.40679,0.09037
3091.33526,0.09065
3093.26373,0.08226
3095.19220,0.07883
3097.12067,0.08261
3099.04914,0.08360
3100.97760,0.07635
3102.90607,0.06542
3104.83454,0.06132
3106.76301,0.06614
3108.69148,0.07177
3110.61995,0.07246
3112.54842,0.06748
3114.47688,0.06560
3116.40535,0.07082
3118.33382,0.07390
3120.26229,0.06992
3122.19076,0.06528
3124.11923,0.06958
3126.04770,0.07864
3127.97617,0.08036
3129.90463,0.07482
3131.83310,0.07175
3133.76157,0.07393
3135.69004,0.07539
3137.61851,0.07336
3139.54698,0.06991
3141.47545,0.07022
3143.40391,0.07378
3145.33238,0.07538
3147.26085,0.07672
3149.18932,0.08006
3151.11779,0.08519
3153.04626,0.08891
3154.97473,0.08590
3156.90320,0.08025
3158.83166,0.07836
3160.76013,0.07743
3162.68860,0.07487
3164.61707,0.07404
3166.54554,0.07765
3168.47401,0.08172
3170.40248,0.08143
3172.33094,0.07897
3174.25941,0.07794
3176.18788,0.07963
3178.11635,0.08220
3180.04482,0.08369
3181.97329,0.08712
3183.90176,0.09112
3185.83022,0.09108
3187.75869,0.08844
3189.68716,0.08441
3191.61563,0.07906
3193.54410,0.07633
3195.47257,0.07683
3197.40104,0.07599
3199.32951,0.07458
3201.25797,0.07634
3203.18644,0.07835
3205.11491,0.07699
3207.04338,0.07599
3208.97185,0.07727
3210.90032,0.07693
3212.82879,0.07686
3214.75725,0.08095
3216.68572,0.08413
3218.61419,0.08197
3220.54266,0.07795
3222.47113,0.07643
3224.39960,0.07807
3226.32807,0.08077
3228.25654,0.08151
3230.18500,0.07850
3232.11347,0.07342
3234.04194,0.06906
3235.97041,0.06847
3237.89888,0.07497
3239.82735,0.08299
3241.75582,0.08329
3243.68428,0.08013
3245.61275,0.08064
3247.54122,0.08142
3249.46969,0.07990
3251.39816,0.07741
3253.32663,0.07612
3255.25510,0.07767
3257.18357,0.08071
3259.11203,0.08334
3261.04050,0.08170
3262.96897,0.07605
3264.89744,0.07326
3266.82591,0.07395
3268.75438,0.07559
3270.68285,0.07629
3272.61131,0.07246
3274.53978,0.06815
3276.46825,0.06921
3278.39672,0.07503
3280.32519,0.08341
3282.25366,0.08911
3284.18213,0.08895
3286.11060,0.08561
3288.03906,0.08089
3289.96753,0.07616
3291.89600,0.07412
3293.82447,0.07606
3295.75294,0.07968
3297.68141,0.08041
3299.60988,0.07623
3301.53834,0.07097
3303.46681,0.07047
3305.39528,0.07541
3307.32375,0.08117
3309.25222,0.08480
3311.18069,0.08492
3313.10916,0.07975
3315.03763,0.07396
3316.96609,0.07297
3318.89456,0.07367
3320.82303,0.07471
3322.75150,0.07985
3324.67997,0.08561
3326.60844,0.08629
3328.53691,0.08346
3330.46537,0.07756
3332.39384,0.07197
3334.32231,0.07429
3336.25078,0.07948
3338.17925,0.07867
3340.10772,0.07496
3342.03619,0.07412
3343.96466,0.07751
3345.89312,0.08334
3347.82159,0.08677
3349.75006,0.08391
3351.67853,0.07725
3353.60700,0.07529
3355.53547,0.07946
3357.46394,0.08142
3359.39240,0.08046
3361.32087,0.08107
3363.24934,0.08170
3365.17781,0.08022
3367.10628,0.07793
3369.03475,0.07905
3370.96322,0.08277
3372.89168,0.08282
3374.82015,0.08036
3376.74862,0.07631
3378.67709,0.07034
3380.60556,0.07218
3382.53403,0.08266
3384.46250,0.08715
3386.39097,0.07937
3388.31943,0.07022
3390.24790,0.07045
3392.17637,0.07770
3394.10484,0.08538
3396.03331,0.08955
3397.96178,0.08763
3399.89025,0.08038
3401.81871,0.07294
3403.74718,0.07198
3405.67565,0.07681
3407.60412,0.07775
3409.53259,0.07277
3411.46106,0.06880
3413.38953,0.06866
3415.31800,0.07246
3417.24646,0.07888
3419.17493,0.08449
3421.10340,0.08795
3423.03187,0.08839
3424.96034,0.08288
3426.88881,0.07550
3428.81728,0.07626
3430.74574,0.08115
3432.67421,0.07901
3434.60268,0.07213
3436.53115,0.06726
3438.45962,0.06550
3440.38809,0.06775
3442.31656,0.07305
3444.24503,0.07608
3446.17349,0.07316
3448.10196,0.06652
3450.03043,0.06402
3451.95890,0.06703
3453.88737,0.07049
3455.81584,0.07210
3457.74431,0.07273
3459.67277,0.07509
3461.60124,0.07555
3463.52971,0.07070
3465.45818,0.06671
3467.38665,0.06836
3469.31512,0.07427
3471.24359,0.07677
3473.17206,0.07228
3475.10052,0.06908
3477.02899,0.06973
3478.95746,0.06721
3480.88593,0.06087
3482.81440,0.05780
3484.74287,0.06327
3486.67134,0.07196
3488.59980,0.07221
3490.52827,0.06434
3492.45674,0.06026
3494.38521,0.06368
3496.31368,0.06781
3498.24215,0.06890
3500.17062,0.06902
3502.09909,0.06992
3504.02755,0.07000
3505.95602,0.06558
3507.88449,0.06000
3509.81296,0.05860
3511.74143,0.06107
3513.66990,0.06482
3515.59837,0.06800
3517.52683,0.07078
3519.45530,0.07315
3521.38377,0.07482
3523.31224,0.07427
3525.24071,0.06898
3527.16918,0.06287
3529.09765,0.06245
3531.02611,0.06557
3532.95458,0.06513
3534.88305,0.06115
3536.81152,0.05756
3538.73999,0.05686
3540.66846,0.06082
3542.59693,0.06750
3544.52540,0.07176
3546.45386,0.07048
3548.38233,0.06538
3550.31080,0.06026
3552.23927,0.05778
3554.16774,0.05668
3556.09621,0.05404
3558.02468,0.05209
3559.95314,0.05444
3561.88161,0.05848
3563.81008,0.05841
3565.73855,0.05515
3567.66702,0.05626
3569.59549,0.06101
3571.52396,0.06100
3573.45243,0.05508
3575.38089,0.04919
3577.30936,0.05007
3579.23783,0.05483
3581.16630,0.05602
3583.09477,0.05613
3585.02324,0.06145
3586.95171,0.06812
3588.88017,0.06347
3590.80864,0.05290
3592.73711,0.04714
3594.66558,0.04574
3596.59405,0.04491
3598.52252,0.04247
3600.45099,0.04316
3602.37946,0.04983
3604.30792,0.05396
3606.23639,0.05367
3608.16486,0.05717
3610.09333,0.06340
3612.02180,0.06360
3613.95027,0.06025
3615.87874,0.05833
3617.80720,0.05929
3619.73567,0.06442
3621.66414,0.06622
3623.59261,0.06105
3625.52108,0.05325
3627.44955,0.04709
3629.37802,0.05025
3631.30649,0.05859
3633.23495,0.05883
3635.16342,0.05408
3637.09189,0.05353
3639.02036,0.05545
3640.94883,0.05489
3642.87730,0.05431
3644.80577,0.05386
3646.73423,0.05039
3648.66270,0.04606
3650.59117,0.04916
3652.51964,0.05539
3654.44811,0.05779
3656.37658,0.05273
3658.30505,0.04409
3660.23352,0.04022
3662.16198,0.04078
3664.09045,0.04248
3666.01892,0.04330
3667.94739,0.04320
3669.87586,0.04074
3671.80433,0.03491
3673.73280,0.03075
3675.66126,0.03393
3677.58973,0.03951
3679.51820,0.04122
3681.44667,0.04311
3683.37514,0.04581
3685.30361,0.04790
3687.23208,0.04852
3689.16055,0.04849
3691.08901,0.04685
3693.01748,0.04273
3694.94595,0.04134
3696.87442,0.04387
3698.80289,0.04515
3700.73136,0.04450
3702.65983,0.04620
3704.58829,0.04754
3706.51676,0.04442
3708.44523,0.03792
3710.37370,0.03308
3712.30217,0.03773
3714.23064,0.04424
3716.15911,0.04326
3718.08757,0.04131
3720.01604,0.04631
3721.94451,0.04991
3723.87298,0.04422
3725.80145,0.03791
3727.72992,0.03655
3729.65839,0.03832
3731.58686,0.04118
3733.51532,0.04358
3735.44379,0.04242
3737.37226,0.03828
3739.30073,0.03685
3741.22920,0.03816
3743.15767,0.04427
3745.08614,0.05723
3747.01460,0.06232
3748.94307,0.05840
3750.87154,0.05465
3752.80001,0.05322
3754.72848,0.05006
3756.65695,0.04557
3758.58542,0.04129
3760.51389,0.03928
3762.44235,0.04162
3764.37082,0.04661
3766.29929,0.05285
3768.22776,0.05759
3770.15623,0.05233
3772.08470,0.04297
3774.01317,0.04207
3775.94163,0.04536
3777.87010,0.04593
3779.79857,0.04312
3781.72704,0.04224
3783.65551,0.04484
3785.58398,0.04721
3787.51245,0.04587
3789.44092,0.04362
3791.36938,0.04385
3793.29785,0.04415
3795.22632,0.04352
3797.15479,0.04354
3799.08326,0.04211
3801.01173,0.03852
3802.94020,0.03857
3804.86866,0.04013
3806.79713,0.03951
3808.72560,0.04193
3810.65407,0.04644
3812.58254,0.04909
3814.51101,0.05432
3816.43948,0.06506
3818.36795,0.07142
3820.29641,0.06933
3822.22488,0.06071
3824.15335,0.05672
3826.08182,0.05603
3828.01029,0.04898
3829.93876,0.04000
3831.86723,0.03740
3833.79569,0.04013
3835.72416,0.04604
3837.65263,0.05262
3839.58110,0.04984
3841.50957,0.04335
3843.43804,0.04490
3845.36651,0.04846
3847.29498,0.04797
3849.22344,0.04674
3851.15191,0.04662
3853.08038,0.04388
3855.00885,0.04366
3856.93732,0.04896
3858.86579,0.05150
3860.79426,0.05190
3862.72272,0.05396
3864.65119,0.05435
3866.57966,0.04831
3868.50813,0.04015
3870.43660,0.03596
3872.36507,0.03906
3874.29354,0.04378
3876.22200,0.04359
3878.15047,0.04080
3880.07894,0.03856
3882.00741,0.03788
3883.93588,0.04176
3885.86435,0.04593
3887.79282,0.04515
3889.72129,0.04559
3891.64975,0.04730
3893.57822,0.04510
3895.50669,0.04300
3897.43516,0.04203
3899.36363,0.03869
3901.29210,0.03531
3903.22057,0.03893
3905.14903,0.04673
3907.07750,0.04988
3909.00597,0.04821
3910.93444,0.04328
3912.86291,0.03781
3914.79138,0.03602
3916.71985,0.03742
3918.64832,0.03936
3920.57678,0.04047
3922.50525,0.04071
3924.43372,0.04003
3926.36219,0.03801
3928.29066,0.03839
3930.21913,0.04307
3932.14760,0.04751
3934.07606,0.04731
3936.00453,0.04219
3937.93300,0.03718
3939.86147,0.03730
3941.78994,0.04060
3943.71841,0.04384
3945.64688,0.04423
3947.57535,0.03907
3949.50381,0.03236
3951.43228,0.03448
3953.36075,0.04354
3955.28922,0.04584
3957.21769,0.03989
3959.14616,0.03533
3961.07463,0.03491
3963.00309,0.03700
3964.93156,0.03974
3966.86003,0.04269
3968.78850,0.04533
3970.71697,0.04358
3972.64544,0.03904
3974.57391,0.03866
3976.50238,0.04126
3978.43084,0.04002
3980.35931,0.03683
3982.28778,0.03841
3984.21625,0.04189
3986.14472,0.04125
3988.07319,0.03811
3990.00166,0.03544
3991.93012,0.03508
3993.85859,0.03771
3995.78706,0.03704
3997.71553,0.03065
3999.64400,0.02652
4001.57247,0.02715
4003.50094,0.03012
4005.42941,0.03435
4007.35787,0.03698
4009.28634,0.03683
4011.21481,0.03552
4013.14328,0.03556
4015.07175,0.03734
4017.00022,0.03969
4018.92869,0.04262
4020.85715,0.04415
4022.78562,0.04194
4024.71409,0.03744
4026.64256,0.03399
4028.57103,0.03251
4030.49950,0.03225
4032.42797,0.03128
4034.35644,0.03146
4036.28490,0.03780
4038.21337,0.04287
4040.14184,0.04066
4042.07031,0.04013
4043.99878,0.04446
4045.92725,0.04643
4047.85572,0.04321
4049.78418,0.03909
4051.71265,0.03615
4053.64112,0.03374
4055.56959,0.03235
4057.49806,0.03063
4059.42653,0.02779
4061.35500,0.02745
4063.28346,0.03251
4065.21193,0.04027
4067.14040,0.04633
4069.06887,0.04983
4070.99734,0.04935
4072.92581,0.04297
4074.85428,0.03592
4076.78275,0.03379
4078.71121,0.03477
4080.63968,0.03385
4082.56815,0.02916
4084.49662,0.02712
4086.42509,0.03130
4088.35356,0.03589
4090.28203,0.03974
4092.21049,0.04302
4094.13896,0.04023
4096.06743,0.03373
4097.99590,0.03010
4099.92437,0.02856
4101.85284,0.03032
4103.78131,0.03466
4105.70978,0.03381
4107.63824,0.02809
4109.56671,0.02562
4111.49518,0.02914
4113.42365,0.03338
4115.35212,0.03387
4117.28059,0.03446
4119.20906,0.03636
4121.13752,0.03390
4123.06599,0.02960
4124.99446,0.02786
4126.92293,0.02359
4128.85140,0.01915
4130.77987,0.02379
4132.70834,0.03330
4134.63681,0.03733
4136.56527,0.03550
4138.49374,0.03357
4140.42221,0.03353
4142.35068,0.03258
4144.27915,0.03057
4146.20762,0.03255
4148.13609,0.03882
4150.06455,0.04450
4151.99302,0.04617
4153.92149,0.04086
4155.84996,0.03190
4157.77843,0.02867
4159.70690,0.03428
4161.63537,0.04105
4163.56384,0.04116
4165.49230,0.03640
4167.42077,0.03251
4169.34924,0.03174
4171.27771,0.02968
4173.20618,0.02229
4175.13465,0.01695
4177.06312,0.02004
4178.99158,0.02650
4180.92005,0.03020
4182.84852,0.03175
4184.77699,0.03426
4186.70546,0.03571
4188.63393,0.03339
4190.56240,0.02866
4192.49087,0.02260
4194.41933,0.01576
4196.34780,0.00935
4198.27627,0.00535
4200.20474,0.00654
4202.13321,0.01519
4204.06168,0.02738
4205.99015,0.03377
4207.91861,0.03403
4209.84708,0.03217
4211.77555,0.02680
4213.70402,0.02257
4215.63249,0.02438
4217.56096,0.02807
4219.48943,0.02925
4221.41789,0.02836
4223.34636,0.02834
4225.27483,0.02451
4227.20330,0.01712
4229.13177,0.01809
4231.06024,0.02398
4232.98871,0.02421
4234.91718,0.02170
4236.84564,0.02151
4238.77411,0.02164
4240.70258,0.02109
4242.63105,0.02324
4244.55952,0.02572
4246.48799,0.02725
4248.41646,0.03144
4250.34492,0.03265
4252.27339,0.02482
4254.20186,0.01384
4256.13033,0.01050
4258.05880,0.01627
4259.98727,0.01942
4261.91574,0.01460
4263.84421,0.01175
4265.77267,0.01385
4267.70114,0.01223
4269.62961,0.00816
4271.55808,0.00928
4273.48655,0.01439
4275.41502,0.01987
4277.34349,0.02217
4279.27195,0.02011
4281.20042,0.02055
4283.12889,0.02445
4285.05736,0.02383
4286.98583,0.02476
4288.91430,0.03396
4290.84277,0.03534
4292.77124,0.02414
4294.69970,0.01674
4296.62817,0.01724
4298.55664,0.02011
4300.48511,0.02349
4302.41358,0.02585
4304.34205,0.02568
4306.27052,0.02150
4308.19898,0.01394
4310.12745,0.01015
4312.05592,0.01333
4313.98439,0.01720
4315.91286,0.01733
4317.84133,0.01604
4319.76980,0.01684
4321.69827,0.01722
4323.62673,0.01637
4325.55520,0.01910
4327.48367,0.02235
4329.41214,0.01881
4331.34061,0.00972
4333.26908,0.00653
4335.19755,0.01476
4337.12601,0.02146
4339.05448,0.01836
4340.98295,0.01544
4342.91142,0.01926
4344.83989,0.02538
4346.76836,0.02674
4348.69683,0.02044
4350.62530,0.01472
4352.55376,0.01382
4354.48223,0.01137
4356.41070,0.00972
4358.33917,0.01222
4360.26764,0.01471
4362.19611,0.01336
4364.12458,0.01003
4366.05304,0.01369
4367.98151,0.01982
4369.90998,0.01918
4371.83845,0.01884
4373.76692,0.01895
4375.69539,0.01402
4377.62386,0.01175
4379.55232,0.01623
4381.48079,0.02325
4383.40926,0.02939
4385.33773,0.03014
4387.26620,0.02473
4389.19467,0.01547
4391.12314,0.00674
4393.05161,0.00685
4394.98007,0.01175
4396.90854,0.01016
4398.83701,0.00505
4400.76548,0.00170
4402.69395,0.00081
4404.62242,0.00635
4406.55089,0.01406
4408.47935,0.01484
4410.40782,0.01401
4412.33629,0.01607
4414.26476,0.01246
4416.19323,0.00563
4418.12170,0.00562
4420.05017,0.00715
4421.97864,0.00338
4423.90710,-0.00144
4425.83557,-0.00243
4427.76404,-0.00112
4429.69251,-0.00163
4431.62098,-0.00385
4433.54945,-0.00361
4435.47792,0.00221
4437.40638,0.01061
4439.33485,0.01652
4441.26332,0.01672
4443.19179,0.01065
4445.12026,0.00903
4447.04873,0.01670
4448.97720,0.01892
4450.90567,0.01256
4452.83413,0.00906
4454.76260,0.00798
4456.69107,0.00577
4458.61954,0.00833
4460.54801,0.01498
4462.47648,0.01928
4464.40495,0.02020
4466.33341,0.01530
4468.26188,0.01011
4470.19035,0.01154
4472.11882,0.01247
4474.04729,0.01255
4475.97576,0.01325
4477.90423,0.00766
4479.83270,0.00165
4481.76116,0.00286
4483.68963,0.00508
4485.61810,0.00305
4487.54657,-0.00222
4489.47504,-0.00547
4491.40351,-0.00126
4493.33198,0.00467
4495.26044,0.00633
4497.18891,0.00631
4499.11738,0.00128
4501.04585,-0.00817
4502.97432,-0.00806
4504.90279,0.00261
4506.83126,0.00800
4508.75973,0.00601
4510.68819,0.00634
4512.61666,0.00704
4514.54513,0.00631
4516.47360,0.00865
4518.40207,0.01011
4520.33054,0.00924
4522.25901,0.00651
4524.18747,-0.00131
4526.11594,-0.00613
4528.04441,-0.00133
4529.97288,0.00685
4531.90135,0.01157
4533.82982,0.01086
4535.75829,0.01123
4537.68676,0.01349
4539.61522,0.00505
4541.54369,-0.00931
4543.47216,-0.01031
4545.40063,0.00153
4547.32910,0.01187
4549.25757,0.01736
4551.18604,0.02191
4553.11450,0.02072
4555.04297,0.01458
4556.97144,0.01057
4558.89991,0.00380
4560.82838,-0.00349
4562.75685,0.00070
4564.68532,0.00769
4566.61378,0.00211
4568.54225,-0.00688
4570.47072,-0.00700
4572.39919,-0.00225
4574.32766,0.00385
4576.25613,0.01084
4578.18460,0.01523
4580.11307,0.01792
4582.04153,0.01987
4583.97000,0.01819
4585.89847,0.01085
4587.82694,0.00083
4589.75541,0.00020
4591.68388,0.00862
4593.61235,0.01163
4595.54081,0.00844
4597.46928,0.00602
4599.39775,0.00781
4601.32622,0.01278
4603.25469,0.01598
4605.18316,0.01697
4607.11163,0.01658
4609.04010,0.01268
4610.96856,0.00767
4612.89703,0.00130
4614.82550,-0.00341
4616.75397,-0.00075
4618.68244,0.00133
4620.61091,0.00162
4622.53938,0.00479
4624.46784,0.00561
4626.39631,0.00627
4628.32478,0.01194
4630.25325,0.01596
4632.18172,0.01636
4634.11019,0.02015
4636.03866,0.02311
4637.96713,0.01756
4639.89559,0.00563
4641.82406,-0.00245
4643.75253,0.00408
4645.68100,0.01668
4647.60947,0.01564
4649.53794,0.00372
4651.46641,-0.00625
4653.39487,-0.01450
4655.32334,-0.01767
4657.25181,-0.01309
4659.18028,-0.00274
4661.10875,0.01551
4663.03722,0.02898
4664.96569,0.02346
4666.89416,0.01083
4668.82262,0.00301
4670.75109,-0.00273
4672.67956,-0.00260
4674.60803,0.00730
4676.53650,0.01634
4678.46497,0.01652
4680.39344,0.01451
4682.32190,0.01288
4684.25037,0.00777
4686.17884,0.00346
4688.10731,0.00210
4690.03578,-0.00241
4691.96425,-0.01020
4693.89272,-0.00688
4695.82119,0.00230
4697.74965,0.00487
4699.67812,0.00882
4701.60659,0.02357
4703.53506,0.03263
4705.46353,0.02177
4707.39200,0.00782
4709.32047,-0.00405
4711.24893,-0.01865
4713.17740,-0.01982
4715.10587,-0.00504
4717.03434,0.00674
4718.96281,0.01027
4720.89128,0.01093
4722.81975,0.01209
4724.74821,0.01529
4726.67668,0.01299
4728.60515,0.00136
4730.53362,-0.01227
4732.46209,-0.01746
4734.39056,-0.01259
4736.31903,-0.00450
4738.24750,0.00153
4740.17596,0.00599
4742.10443,0.00918
4744.03290,0.00572
4745.96137,0.00287
4747.88984,0.01132
4749.81831,0.02030
4751.74678,0.01907
4753.67524,0.01363
4755.60371,0.01062
4757.53218,0.00774
4759.46065,0.00607
4761.38912,0.00882
4763.31759,0.00531
4765.24606,-0.00475
4767.17453,-0.00334
4769.10299,0.00628
4771.03146,0.00921
4772.95993,0.00892
4774.88840,0.01013
4776.81687,0.01082
4778.74534,0.01377
4780.67381,0.01706
4782.60227,0.01634
4784.53074,0.01063
4786.45921,-0.00533
4788.38768,-0.01940
4790.31615,-0.01194
4792.24462,0.00667
4794.17309,0.01564
4796.10156,0.01262
4798.03002,0.00608
4799.95849,-0.00272
4801.88696,-0.00970
4803.81543,-0.00423
4805.74390,0.01077
4807.67237,0.01987
4809.60084,0.01484
4811.52930,0.00176
4813.45777,-0.00751
4815.38624,-0.00475
4817.31471,0.00737
4819.24318,0.02048
4821.17165,0.03224
4823.10012,0.03956
4825.02859,0.03597
4826.95705,0.02706
4828.88552,0.01960
4830.81399,0.00843
4832.74246,-0.00238
4834.67093,-0.00263
4836.59940,0.00314
4838.52787,0.00943
4840.45633,0.01157
4842.38480,0.00407
4844.31327,0.00102
4846.24174,0.00881
4848.17021,0.01245
4850.09868,0.01227
4852.02715,0.01819
4853.95562,0.01949
4855.88408,0.01166
4857.81255,0.00780
4859.74102,0.00362
4861.66949,-0.00186
4863.59796,0.00169
4865.52643,0.00854
4867.45490,0.01611
4869.38336,0.02047
4871.31183,0.01444
4873.24030,0.01244
4875.16877,0.02358
4877.09724,0.03078
4879.02571,0.02415
4880.95418,0.01101
4882.88265,0.00249
4884.81111,0.00362
4886.73958,0.01215
4888.66805,0.01975
4890.59652,0.01797
4892.52499,0.01017
4894.45346,-0.00089
4896.38193,-0.01601
4898.31039,-0.02847
4900.23886,-0.03002
4902.16733,-0.01829
4904.09580,-0.00068
4906.02427,0.01495
4907.95274,0.02453
4909.88121,0.02446
4911.80967,0.02241
4913.73814,0.02443
4915.66661,0.02341
4917.59508,0.01768
4919.52355,0.01228
4921.45202,0.01114
4923.38049,0.01381
4925.30896,0.00926
4927.23742,-0.00427
4929.16589,-0.01002
4931.09436,-0.00363
4933.02283,0.00422
4934.95130,0.00371
4936.87977,-0.00506
4938.80824,-0.00533
4940.73670,0.00670
4942.66517,0.01404
4944.59364,0.01376
4946.52211,0.01744
4948.45058,0.02339
4950.37905,0.02012
4952.30752,0.01191
4954.23599,0.01068
4956.16445,0.01004
4958.09292,0.00441
4960.02139,0.00370
4961.94986,0.00354
4963.87833,0.00015
4965.80680,0.00599
4967.73527,0.01640
4969.66373,0.02171
4971.59220,0.01571
4973.52067,-0.00161
4975.44914,-0.01115
4977.37761,-0.01007
4979.30608,-0.01085
4981.23455,-0.01111
4983.16302,-0.01059
4985.09148,-0.01377
4987.01995,-0.01724
4988.94842,-0.01397
4990.87689,-0.00481
4992.80536,0.00087
4994.73383,0.01139
4996.66230,0.03224
4998.59076,0.04072
5000.51923,0.03054
5002.44770,0.01917
5004.37617,0.01573
5006.30464,0.01478
5008.23311,0.01565
5010.16158,0.02283
5012.09005,0.02580
5014.01851,0.01108
5015.94698,-0.00777
5017.87545,-0.00567
5019.80392,0.00560
5021.73239,0.00466
5023.66086,0.00252
5025.58933,0.00596
5027.51779,0.00424
5029.44626,-0.00177
5031.37473,-0.00059
5033.30320,0.00734
5035.23167,0.01099
5037.16014,0.01248
5039.08861,0.02232
5041.01708,0.02900
5042.94554,0.01893
5044.87401,0.00492
5046.80248,-0.00625
5048.73095,-0.01077
5050.65942,0.00371
5052.58789,0.02341
5054.51636,0.02865
5056.44482,0.02278
5058.37329,0.01354
5060.30176,0.01028
5062.23023,0.01738
5064.15870,0.02561
5066.08717,0.03022
5068.01564,0.03303
5069.94410,0.03209
5071.87257,0.02310
5073.80104,0.01047
5075.72951,0.00926
5077.65798,0.01720
5079.58645,0.01869
5081.51492,0.01484
5083.44339,0.00542
5085.37185,-0.01026
5087.30032,-0.00906
5089.22879,0.00843
5091.15726,0.01206
5093.08573,0.00756
5095.01420,0.00706
5096.94267,0.00628
5098.87113,0.00767
5100.79960,-0.00043
5102.72807,-0.01695
5104.65654,-0.01751
5106.58501,-0.01041
5108.51348,-0.01379
5110.44195,-0.01251
5112.37042,0.00115
5114.29888,0.00830
5116.22735,-0.00002
5118.15582,-0.01031
5120.08429,-0.00604
5122.01276,0.01150
5123.94123,0.02794
5125.86970,0.03217
5127.79816,0.02113
5129.72663,0.00504
5131.65510,0.00100
5133.58357,0.00510
5135.51204,0.00613
5137.44051,0.00835
5139.36898,0.01387
5141.29745,0.03004
5143.22591,0.05124
5145.15438,0.05497
5147.08285,0.04581
5149.01132,0.02938
5150.93979,0.01019
5152.86826,0.00519
5154.79673,0.00657
5156.72519,0.00417
5158.65366,0.00638
5160.58213,0.00622
5162.51060,0.00013
5164.43907,0.00975
5166.36754,0.03348
5168.29601,0.04180
5170.22448,0.03539
5172.15294,0.03074
5174.08141,0.02258
5176.00988,0.01855
5177.93835,0.03246
5179.86682,0.04668
5181.79529,0.03944
5183.72376,0.01323
5185.65222,-0.00507
5187.58069,0.00205
5189.50916,0.01163
5191.43763,0.00778
5193.36610,0.00882
5195.29457,0.02404
5197.22304,0.03080
5199.15151,0.02190
5201.07997,0.01951
5203.00844,0.02329
5204.93691,0.02316
5206.86538,0.02399
5208.79385,0.03379
5210.72232,0.04197
5212.65079,0.02908
5214.57925,0.01693
5216.50772,0.03162
5218.43619,0.04893
5220.36466,0.04249
5222.29313,0.02257
5224.22160,0.01509
5226.15007,0.02553
5228.07854,0.03102
5230.00700,0.02627
5231.93547,0.02016
5233.86394,0.01429
5235.79241,0.01275
5237.72088,0.01660
5239.64935,0.02106
5241.57782,0.02482
5243.50628,0.02210
5245.43475,0.01007
5247.36322,0.00095
5249.29169,0.00714
5251.22016,0.02711
5253.14863,0.04352
5255.07710,0.04137
5257.00556,0.02609
5258.93403,0.01768
5260.86250,0.02647
5262.79097,0.03910
5264.71944,0.03619
5266.64791,0.02024
5268.57638,0.00438
5270.50485,0.00868
5272.43331,0.03482
5274.36178,0.04959
5276.29025,0.03922
5278.21872,0.02597
5280.14719,0.02914
5282.07566,0.03906
5284.00413,0.04249
5285.93259,0.03511
5287.86106,0.02157
5289.78953,0.01918
5291.71800,0.02223
5293.64647,0.01619
5295.57494,0.00968
5297.50341,0.01313
5299.43188,0.01878
5301.36034,0.00456
5303.28881,-0.01142
5305.21728,0.00587
5307.14575,0.03086
5309.07422,0.03162
5311.00269,0.03051
5312.93116,0.03605
5314.85962,0.03034
5316.78809,0.01803
5318.71656,0.02028
5320.64503,0.02957
5322.57350,0.02220
5324.50197,0.00930
5326.43044,0.00600
5328.35891,0.01012
5330.28737,0.02923
5332.21584,0.05442
5334.14431,0.06060
5336.07278,0.04112
5338.00125,0.01179
5339.92972,0.00423
5341.85819,0.01952
5343.78665,0.02545
5345.71512,0.00741
5347.64359,-0.01118
5349.57206,-0.00241
5351.50053,0.03543
5353.42900,0.06435
5355.35747,0.05593
5357.28594,0.03472
5359.21440,0.01082
5361.14287,-0.02141
5363.07134,-0.03414
5364.99981,-0.00872
5366.92828,0.02061
5368.85675,0.02959
5370.78522,0.03172
5372.71368,0.04189
5374.64215,0.04876
5376.57062,0.03406
5378.49909,0.01396
5380.42756,0.01151
5382.35603,0.01866
5384.28450,0.01922
5386.21297,0.01780
5388.14143,0.02349
5390.06990,0.02909
5391.99837,0.02704
5393.92684,0.01882
5395.85531,0.01356
5397.78378,0.01168
5399.71225,0.01693
5401.64071,0.03867
5403.56918,0.05924
5405.49765,0.05331
5407.42612,0.02402
5409.35459,-0.01301
5411.28306,-0.02299
5413.21153,0.01319
5415.13999,0.04113
5417.06846,0.03772
5418.99693,0.03118
5420.92540,0.02250
5422.85387,0.01317
5424.78234,0.02137
5426.71081,0.03089
5428.63928,0.01486
5430.56774,-0.00835
5432.49621,-0.01814
5434.42468,-0.01537
5436.35315,-0.00226
5438.28162,0.00552
5440.21009,-0.00178
5442.13856,-0.00456
5444.06702,0.01494
5445.99549,0.03588
5447.92396,0.03664
5449.85243,0.03087
5451.78090,0.03299
5453.70937,0.04784
5455.63784,0.06416
5457.56631,0.05048
5459.49477,0.03203
5461.42324,0.04928
5463.35171,0.06044
5465.28018,0.02759
5467.20865,-0.00857
5469.13712,-0.00520
5471.06559,0.02370
5472.99405,0.05023
5474.92252,0.06551
5476.85099,0.07032
5478.77946,0.07094
5480.70793,0.07160
5482.63640,0.06367
5484.56487,0.03104
5486.49334,-0.00456
5488.42180,-0.01416
5490.35027,-0.00491
5492.27874,0.01545
5494.20721,0.02937
5496.13568,0.02500
5498.06415,0.02590
5499.99262,0.03575
5501.92108,0.03107
5503.84955,0.00848
5505.77802,-0.01465
5507.70649,-0.01439
5509.63496,0.00406
5511.56343,0.01077
5513.49190,0.00983
5515.42037,0.01974
5517.34883,0.03400
5519.27730,0.04146
5521.20577,0.05131
5523.13424,0.06856
5525.06271,0.08039
5526.99118,0.08449
5528.91965,0.07705
5530.84811,0.05508
5532.77658,0.03482
5534.70505,0.02145
5536.63352,0.01184
5538.56199,0.01125
5540.49046,0.02375
5542.41893,0.04090
5544.34740,0.04160
5546.27586,0.02504
5548.20433,0.00693
5550.13280,-0.00890
5552.06127,-0.00593
5553.98974,0.01874
5555.91821,0.02847
5557.84668,0.01890
5559.77514,0.02474
5561.70361,0.04051
5563.63208,0.04524
5565.56055,0.05919
5567.48902,0.08204
5569.41749,0.08216
5571.34596,0.06392
5573.27443,0.04447
5575.20289,0.02342
5577.13136,0.00681
5579.05983,0.01181
5580.98830,0.02790
5582.91677,0.02809
5584.84524,0.01379
5586.77371,0.00629
5588.70217,0.02454
5590.63064,0.05151
5592.55911,0.05385
5594.48758,0.04089
5596.41605,0.03504
5598.34452,0.02543
5600.27299,0.00572
5602.20145,-0.00488
5604.12992,-0.00126
5606.05839,0.00226
5607.98686,0.00296
5609.91533,0.01078
5611.84380,0.01934
5613.77227,0.03003
5615.70074,0.04372
5617.62920,0.03947
5619.55767,0.01175
5621.48614,-0.02361
5623.41461,-0.03420
5625.34308,-0.00844
5627.27155,0.01892
5629.20002,0.01692
5631.12848,0.01354
5633.05695,0.04727
5634.98542,0.08393
5636.91389,0.07952
5638.84236,0.05599
5640.77083,0.03582
5642.69930,0.01995
5644.62777,0.01281
5646.55623,0.01884
5648.48470,0.03162
5650.41317,0.02627
5652.34164,0.00154
5654.27011,-0.01423
5656.19858,-0.01158
5658.12705,0.01016
5660.05551,0.03412
5661.98398,0.03354
5663.91245,0.03793
5665.84092,0.07707
5667.76939,0.09183
5669.69786,0.04604
5671.62633,0.01326
5673.55480,0.03215
5675.48326,0.05130
5677.41173,0.04700
5679.34020,0.04165
5681.26867,0.03904
5683.19714,0.03006
5685.12561,0.02549
5687.05408,0.03856
5688.98254,0.05552
5690.91101,0.04643
5692.83948,0.02092
5694.76795,0.02190
5696.69642,0.04528
5698.62489,0.03794
5700.55336,-0.00556
5702.48183,-0.02036
5704.41029,0.02180
5706.33876,0.05742
5708.26723,0.03597
5710.19570,-0.00596
5712.12417,-0.01962
5714.05264,-0.00301
5715.98111,0.02825
5717.90957,0.05421
5719.83804,0.04615
5721.76651,0.01977
5723.69498,0.02240
5725.62345,0.05126
5727.55192,0.07153
5729.48039,0.06523
5731.40886,0.04473
5733.33732,0.03369
5735.26579,0.03274
5737.19426,0.02976
5739.12273,0.02560
5741.05120,0.01686
5742.97967,0.00008
5744.90814,-0.01613
5746.83660,-0.02265
5748.76507,-0.01591
5750.69354,-0.00748
5752.62201,0.00330
5754.55048,0.03394
5756.47895,0.05858
5758.40742,0.05936
5760.33588,0.06688
5762.26435,0.08234
5764.19282,0.08169
5766.12129,0.06392
5768.04976,0.03604
5769.97823,0.01383
5771.90670,0.00825
5773.83517,0.01283
5775.76363,0.02400
5777.69210,0.03149
5779.62057,0.02719
5781.54904,0.03021
5783.47751,0.04595
5785.40598,0.05232
5787.33445,0.04183
5789.26291,0.02827
5791.19138,0.01927
5793.11985,0.00313
5795.04832,-0.00446
5796.97679,0.02243
5798.90526,0.05175
5800.83373,0.05678
5802.76220,0.04872
5804.69066,0.03674
5806.61913,0.02064
5808.54760,0.00513
5810.47607,0.00091
5812.40454,0.00911
5814.33301,0.02732
5816.26148,0.04176
5818.18994,0.03256
5820.11841,0.01276
5822.04688,0.01027
5823.97535,0.02426
5825.90382,0.03857
5827.83229,0.04471
5829.76076,0.04290
5831.68923,0.03850
5833.61769,0.03681
5835.54616,0.04478
5837.47463,0.05868
5839.40310,0.06670
5841.33157,0.06549
5843.26004,0.05895
5845.18851,0.05974
5847.11697,0.06800
5849.04544,0.05811
5850.97391,0.03655
5852.90238,0.03663
5854.83085,0.04400
5856.75932,0.03947
5858.68779,0.03555
5860.61626,0.03301
5862.54472,0.02799
5864.47319,0.03076
5866.40166,0.03154
5868.33013,0.02279
5870.25860,0.02731
5872.18707,0.03351
5874.11554,0.01438
5876.04400,0.00224
5877.97247,0.02952
5879.90094,0.05957
5881.82941,0.05788
5883.75788,0.03717
5885.68635,0.01436
5887.61482,0.00787
5889.54329,0.03395
5891.47175,0.06704
5893.40022,0.07620
5895.32869,0.05486
5897.25716,0.00522
5899.18563,-0.03859
5901.11410,-0.05134
5903.04257,-0.05609
5904.97103,-0.04893
5906.89950,-0.01075
5908.82797,0.03649
5910.75644,0.06375
5912.68491,0.05071
5914.61338,0.01388
5916.54185,0.01091
5918.47032,0.03298
5920.39878,0.03365
5922.32725,0.02713
5924.25572,0.03278
5926.18419,0.04119
5928.11266,0.05446
5930.04113,0.07438
5931.96960,0.07319
5933.89806,0.03889
5935.82653,0.01037
5937.75500,0.02007
5939.68347,0.06026
5941.61194,0.09872
5943.54041,0.11503
5945.46888,0.10946
5947.39734,0.08207
5949.32581,0.05553
5951.25428,0.03807
5953.18275,0.01762
5955.11122,0.03371
5957.03969,0.09734
5958.96816,0.14835
5960.89663,0.15798
5962.82509,0.12931
5964.75356,0.06392
5966.68203,0.00280
5968.61050,-0.00677
5970.53897,0.02699
5972.46744,0.05439
5974.39591,0.04767
5976.32437,0.01810
5978.25284,-0.00112
5980.18131,0.02606
5982.10978,0.07191
5984.03825,0.07456
5985.96672,0.04044
5987.89519,0.03334
5989.82366,0.05435
5991.75212,0.03784
5993.68059,0.00141
5995.60906,0.00641
5997.53753,0.02248
5999.46600,0.01121
6001.39447,-0.01440
6003.32294,-0.04235
6005.25140,-0.05563
6007.17987,-0.02879
6009.10834,0.03077
6011.03681,0.07811
6012.96528,0.08033
6014.89375,0.06983
6016.82222,0.08791
6018.75069,0.09292
6020.67915,0.05312
6022.60762,0.02299
6024.53609,0.01761
6026.46456,0.01724
6028.39303,0.05197
6030.32150,0.10937
6032.24997,0.10413
6034.17843,0.04905
6036.10690,0.03813
6038.03537,0.07459
6039.96384,0.08919
6041.89231,0.07203
6043.82078,0.05531
6045.74925,0.05840
6047.67772,0.07652
6049.60618,0.06830
6051.53465,0.04566
6053.46312,0.06449
6055.39159,0.07831
6057.32006,0.03162
6059.24853,-0.02175
6061.17700,-0.02977
6063.10546,0.00814
6065.03393,0.03547
6066.96240,0.02137
6068.89087,0.02415
6070.81934,0.04389
6072.74781,0.04524
6074.67628,0.04658
6076.60475,0.02295
6078.53321,-0.03750
6080.46168,-0.07066
6082.39015,-0.04000
6084.31862,0.01451
6086.24709,0.05973
6088.17556,0.10078
6090.10403,0.11291
6092.03249,0.08984
6093.96096,0.07665
6095.88943,0.10227
6097.81790,0.11974
6099.74637,0.08337
6101.67484,0.05373
6103.60331,0.05545
6105.53177,0.04394
6107.46024,0.02981
6109.38871,0.01595
6111.31718,-0.00559
6113.24565,0.00618
6115.17412,0.04496
6117.10259,0.07298
6119.03106,0.08824
6120.95952,0.08904
6122.88799,0.05855
6124.81646,0.00139
6126.74493,-0.02355
6128.67340,0.00425
6130.60187,0.04431
6132.53034,0.08619
6134.45880,0.08387
6136.38727,0.01693
6138.31574,-0.04756
6140.24421,-0.06285
6142.17268,-0.03062
6144.10115,0.00620
6146.02962,0.01618
6147.95809,0.03669
6149.88655,0.07059
6151.81502,0.05518
6153.74349,-0.01318
6155.67196,-0.06066
6157.60043,-0.03963
6159.52890,-0.00228
6161.45737,-0.01732
6163.38583,-0.02192
6165.31430,0.02007
6167.24277,0.05180
6169.17124,0.06590
6171.09971,0.04203
6173.02818,-0.03309
6174.95665,-0.07970
6176.88512,-0.02981
6178.81358,0.09152
6180.74205,0.17843
6182.67052,0.14025
6184.59899,0.02903
6186.52746,-0.04188
6188.45593,-0.01219
6190.38440,0.08058
6192.31286,0.12397
6194.24133,0.08818
6196.16980,0.04383
6198.09827,0.04544
6200.02674,0.09763
6201.95521,0.12959
6203.88368,0.07701
6205.81215,0.02018
6207.74061,0.03735
6209.66908,0.08001
6211.59755,0.08421
6213.52602,0.04594
6215.45449,0.00090
6217.38296,-0.00507
6219.31143,0.02679
6221.23989,0.05186
6223.16836,0.05783
6225.09683,0.04634
6227.02530,0.00682
6228.95377,-0.03382
6230.88224,-0.02109
6232.81071,0.06046
6234.73918,0.13171
6236.66764,0.12810
6238.59611,0.07797
6240.52458,0.03205
6242.45305,0.02042
6244.38152,0.02933
6246.30999,0.02080
6248.23846,0.00210
6250.16692,-0.01976
6252.09539,-0.04323
6254.02386,-0.03677
6255.95233,-0.00157
6257.88080,0.03716
6259.80927,0.05252
6261.73774,0.03761
6263.66621,0.02871
6265.59467,0.04282
6267.52314,0.04403
6269.45161,0.00423
6271.38008,-0.04855
6273.30855,-0.06362
6275.23702,-0.01397
6277.16549,0.05970
6279.09395,0.08397
6281.02242,0.08019
6282.95089,0.10133
6284.87936,0.11092
6286.80783,0.08103
6288.73630,0.04364
6290.66477,0.01859
6292.59323,0.00691
6294.52170,0.03190
6296.45017,0.06783
6298.37864,0.03352
6300.30711,-0.03672
6302.23558,-0.03382
6304.16405,0.02984
6306.09252,0.06786
6308.02098,0.03114
6309.94945,-0.03973
6311.87792,-0.06198
6313.80639,-0.03216
6315.73486,0.04989
6317.66333,0.13733
6319.59180,0.11402
6321.52026,0.02941
6323.44873,0.03075
6325.37720,0.09375
6327.30567,0.13069
6329.23414,0.16039
6331.16261,0.19679
6333.09108,0.17877
6335.01955,0.11349
6336.94801,0.07223
6338.87648,0.07266
6340.80495,0.08898
6342.73342,0.09262
6344.66189,0.04731
6346.59036,-0.03051
6348.51883,-0.03897
6350.44729,0.04781
6352.37576,0.10771
6354.30423,0.07583
6356.23270,0.03654
6358.16117,0.04808
6360.08964,0.07892
6362.01811,0.09607
6363.94658,0.09997
6365.87504,0.07338
6367.80351,0.01730
6369.73198,-0.02322
6371.66045,-0.02476
6373.58892,-0.00935
6375.51739,-0.02301
6377.44586,-0.04873
6379.37432,-0.03033
6381.30279,0.01782
6383.23126,0.03356
6385.15973,0.01268
6387.08820,0.00152
6389.01667,0.01310
6390.94514,0.01907
6392.87361,0.00680
6394.80207,0.04257
6396.73054,0.11393
6398.65901,0.13698
6400.58748,0.09106
6402.51595,0.01089
6404.44442,-0.04581
6406.37289,-0.03870
6408.30135,0.02983
6410.22982,0.09425
6412.15829,0.10296
6414.08676,0.08150
6416.01523,0.04411
6417.94370,0.02933
6419.87217,0.09812
6421.80064,0.16354
6423.72910,0.14272
6425.65757,0.09209
6427.58604,0.08288
6429.51451,0.11326
6431.44298,0.14299
6433.37145,0.15090
6435.29992,0.12164
6437.22838,0.06153
6439.15685,0.09062
6441.08532,0.20922
6443.01379,0.22679
6444.94226,0.11343
6446.87073,0.01911
6448.79920,-0.04679
6450.72766,-0.10160
6452.65613,-0.13010
6454.58460,-0.14179
6456.51307,-0.10809
6458.44154,-0.02015
6460.37001,0.07710
6462.29848,0.12004
6464.22695,0.07011
6466.15541,0.00070
6468.08388,-0.00515
6470.01235,0.01302
6471.94082,0.00698
6473.86929,0.01516
6475.79776,0.01752
6477.72623,0.00036
6479.65469,0.02439
6481.58316,0.06659
6483.51163,0.07072
6485.44010,0.03984
6487.36857,0.00680
6489.29704,0.02165
6491.22551,0.09680
6493.15398,0.14894
6495.08244,0.12350
6497.01091,0.09181
6498.93938,0.08982
6500.86785,0.04670
6502.79632,-0.03398
6504.72479,-0.02893
6506.65326,0.03630
6508.58172,0.06371
6510.51019,0.05960
6512.43866,0.01403
6514.36713,-0.06578
6516.29560,-0.08600
6518.22407,-0.05106
6520.15254,-0.04684
6522.08101,-0.06177
6524.00947,-0.03978
6525.93794,0.00026
6527.86641,0.02802
6529.79488,0.07027
6531.72335,0.11064
6533.65182,0.11103
6535.58029,0.10284
6537.50875,0.11102
6539.43722,0.11993
6541.36569,0.10651
6543.29416,0.03573
6545.22263,-0.04448
6547.15110,-0.03640
6549.07957,0.05291
6551.00804,0.12085
6552.93650,0.08810
6554.86497,0.00268
6556.79344,-0.03456
6558.72191,-0.02292
6560.65038,-0.04275
6562.57885,-0.07307
6564.50732,-0.02994
6566.43578,0.06630
6568.36425,0.12148
6570.29272,0.07699
6572.22119,-0.02099
6574.14966,-0.02984
6576.07813,0.07599
6578.00660,0.12911
6579.93507,0.03517
6581.86353,-0.07958
6583.79200,-0.10797
6585.72047,-0.08231
6587.64894,-0.05352
6589.57741,-0.01579
6591.50588,0.01859
6593.43435,-0.00038
6595.36281,0.00201
6597.29128,0.04041
6599.21975,-0.00059
6601.14822,-0.05822
6603.07669,-0.00358
6605.00516,0.07493
6606.93363,0.12372
6608.86210,0.14705
6610.79056,0.13230
6612.71903,0.08024
6614.64750,0.07830
6616.57597,0.14222
6618.50444,0.14536
6620.43291,0.07013
6622.36138,0.02536
6624.28984,0.06696
6626.21831,0.12555
6628.14678,0.10226
6630.07525,0.02114
6632.00372,-0.00515
6633.93219,0.04480
6635.86066,0.08232
6637.78912,0.03779
6639.71759,-0.02470
6641.64606,-0.06498
6643.57453,-0.06032
6645.50300,0.01689
6647.43147,0.09019
6649.35994,0.09922
6651.28841,0.07406
6653.21687,0.00620
6655.14534,-0.06809
6657.07381,-0.03201
6659.00228,0.10820
6660.93075,0.24211
6662.85922,0.27553
6664.78769,0.18671
6666.71615,0.07519
6668.64462,0.03041
6670.57309,0.03985
6672.50156,0.05040
6674.43003,0.05375
6676.35850,0.06247
6678.28697,0.05419
6680.21544,0.03349
6682.14390,0.02892
6684.07237,0.05013
6686.00084,0.09234
6687.92931,0.13741
6689.85778,0.13092
6691.78625,0.05255
6693.71472,-0.03269
6695.64318,-0.07928
6697.57165,-0.08294
6699.50012,-0.02563
6701.42859,0.11353
6703.35706,0.22978
6705.28553,0.21776
6707.21400,0.13659
6709.14247,0.03837
6711.07093,-0.06345
6712.99940,-0.13701
6714.92787,-0.19730
6716.85634,-0.22071
6718.78481,-0.12341
6720.71328,0.00366
6722.64175,0.03897
6724.57021,0.03387
6726.49868,0.03855
6728.42715,0.06461
6730.35562,0.02916
6732.28409,-0.05637
6734.21256,-0.09436
6736.14103,-0.04715
6738.06950,0.03965
6739.99796,0.06271
6741.92643,0.02250
6743.85490,0.03499
6745.78337,0.06186
6747.71184,-0.00668
6749.64031,-0.11984
6751.56878,-0.12144
6753.49724,0.00822
6755.42571,0.11782
6757.35418,0.11719
6759.28265,0.11096
6761.21112,0.16632
6763.13959,0.18756
6765.06806,0.18374
6766.99653,0.16747
6768.92499,0.07678
6770.85346,-0.00582
6772.78193,0.05856
6774.71040,0.19344
6776.63887,0.22702
6778.56734,0.16984
6780.49581,0.11721
6782.42427,0.07379
6784.35274,0.03302
6786.28121,0.01915
6788.20968,0.00975
6790.13815,-0.01994
6792.06662,-0.04746
6793.99509,-0.07133
6795.92355,-0.08255
6797.85202,-0.02180
6799.78049,0.01891
6801.70896,-0.01883
6803.63743,-0.02344
6805.56590,-0.00525
6807.49437,-0.02174
6809.42284,-0.05759
6811.35130,-0.08055
6813.27977,-0.09691
6815.20824,-0.14259
6817.13671,-0.12163
6819.06518,-0.01827
6820.99365,0.04183
6822.92212,0.04562
6824.85058,0.06453
6826.77905,0.12981
6828.70752,0.25653
6830.63599,0.34488
6832.56446,0.30464
6834.49293,0.18980
6836.42140,0.06817
6838.34987,0.04134
6840.27833,0.11735
6842.20680,0.20890
6844.13527,0.24373
6846.06374,0.22035
6847.99221,0.19473
6849.92068,0.13330
6851.84915,0.03800
6853.77761,0.04955
6855.70608,0.15622
6857.63455,0.17880
6859.56302,0.09472
6861.49149,0.01879
6863.41996,0.02672
6865.34843,0.00809
6867.27690,-0.09731
6869.20536,-0.10970
6871.13383,-0.00150
6873.06230,0.04293
6874.99077,-0.04810
6876.91924,-0.12946
6878.84771,-0.07871
6880.77618,0.03917
6882.70464,0.08348
6884.63311,0.04411
6886.56158,-0.02154
6888.49005,-0.04060
6890.41852,-0.02765
6892.34699,-0.04930
6894.27546,-0.09880
6896.20393,-0.10403
6898.13239,-0.01833
6900.06086,0.06820
6901.98933,0.12167
6903.91780,0.18865
6905.84627,0.19213
6907.77474,0.09572
6909.70321,0.04023
6911.63167,0.04918
6913.56014,0.01058
6915.48861,-0.04856
6917.41708,0.01519
6919.34555,0.17452
6921.27402,0.20162
6923.20249,0.10199
6925.13096,0.05720
6927.05942,0.08716
6928.98789,0.09491
6930.91636,0.07220
6932.84483,0.11755
6934.77330,0.15720
6936.70177,0.10311
6938.63024,0.01593
6940.55870,-0.01429
6942.48717,0.02029
6944.41564,0.03891
6946.34411,0.04563
6948.27258,0.11065
6950.20105,0.22389
6952.12952,0.30227
6954.05799,0.29142
6955.98645,0.22537
6957.91492,0.13652
6959.84339,0.02916
6961.77186,-0.04154
6963.70033,-0.04084
6965.62880,-0.01606
6967.55727,-0.00406
6969.48573,0.01387
6971.41420,0.01453
6973.34267,-0.02475
6975.27114,-0.06436
6977.19961,-0.05616
6979.12808,-0.02322
6981.05655,-0.08233
6982.98501,-0.18403
6984.91348,-0.12991
6986.84195,0.05112
6988.77042,0.17801
6990.69889,0.17685
6992.62736,0.12280
6994.55583,0.07816
6996.48430,0.00903
6998.41276,-0.10928
7000.34123,-0.17261
7002.26970,-0.10005
7004.19817,0.04028
7006.12664,0.12862
7008.05511,0.10263
7009.98358,0.03040
7011.91204,0.01789
7013.84051,0.08953
7015.76898,0.09024
7017.69745,0.03721
7019.62592,0.11546
7021.55439,0.25031
7023.48286,0.22636
7025.41133,0.03362
7027.33979,-0.08862
7029.26826,0.02028
7031.19673,0.10320
7033.12520,-0.00780
7035.05367,-0.10918
7036.98214,-0.08026
7038.91061,-0.01382
7040.83907,0.02569
7042.76754,0.02260
7044.69601,0.00681
7046.62448,-0.03051
7048.55295,-0.09919
7050.48142,-0.16307
7052.40989,-0.15909
7054.33836,-0.12620
7056.26682,-0.12772
7058.19529,-0.04112
7060.12376,0.04192
7062.05223,-0.00789
7063.98070,-0.05009
7065.90917,-0.02892
7067.83764,-0.03953
7069.76610,-0.08825
7071.69457,-0.04097
7073.62304,0.05382
7075.55151,0.07288
7077.47998,0.07284
7079.40845,0.08202
7081.33692,0.06360
7083.26539,0.04323
7085.19385,0.03479
7087.12232,0.07035
7089.05079,0.20745
7090.97926,0.29058
7092.90773,0.22442
7094.83620,0.15749
7096.76467,0.16795
7098.69313,0.16782
7100.62160,0.11702
7102.55007,0.09588
7104.47854,0.12283
7106.40701,0.14453
7108.33548,0.14358
7110.26395,0.12867
7112.19242,0.10160
7114.12088,0.06891
7116.04935,0.00365
7117.97782,-0.09391
7119.90629,-0.07507
7121.83476,-0.00517
7123.76323,-0.00978
7125.69170,0.02337
7127.62016,0.08731
7129.54863,0.04793
7131.47710,-0.00946
7133.40557,0.02534
7135.33404,0.01530
7137.26251,-0.06449
7139.19098,0.01697
7141.11944,0.21546
7143.04791,0.25072
7144.97638,0.10322
7146.90485,-0.03650
7148.83332,-0.03705
7150.76179,0.04127
7152.69026,0.10597
7154.61873,0.10911
7156.54719,0.02386
7158.47566,-0.05921
7160.40413,-0.06611
7162.33260,-0.11706
7164.26107,-0.20493
7166.18954,-0.14571
7168.11801,-0.01396
7170.04647,-0.00574
7171.97494,-0.08808
7173.90341,-0.10258
7175.83188,-0.04209
7177.76035,-0.00150
7179.68882,0.00406
7181.61729,0.01204
7183.54576,0.00533
7185.47422,-0.00595
7187.40269,0.07563
7189.33116,0.23612
7191.25963,0.27951
7193.18810,0.17210
7195.11657,0.10152
7197.04504,0.03957
7198.97350,-0.04169
7200.90197,-0.04506
7202.83044,-0.00600
7204.75891,-0.05500
7206.68738,-0.08911
7208.61585,0.01734
7210.54432,0.12745
7212.47279,0.15524
7214.40125,0.10828
7216.32972,0.00822
7218.25819,-0.03643
7220.18666,0.02466
7222.11513,0.10023
7224.04360,0.14442
7225.97207,0.15788
7227.90053,0.11509
7229.82900,-0.01627
7231.75747,-0.08394
7233.68594,0.03375
7235.61441,0.13654
7237.54288,0.12638
7239.47135,0.11685
7241.39982,0.15186
7243.32828,0.17127
7245.25675,0.15429
7247.18522,0.08826
7249.11369,0.04532
7251.04216,0.12862
7252.97063,0.27490
7254.89910,0.29494
7256.82756,0.22336
7258.75603,0.11984
7260.68450,-0.00982
7262.61297,0.02367
7264.54144,0.16444
7266.46991,0.15882
7268.39838,0.12111
7270.32685,0.16534
7272.25531,0.21394
7274.18378,0.18621
7276.11225,0.13365
7278.04072,0.04409
7279.96919,-0.07411
7281.89766,-0.07351
7283.82613,0.00942
7285.75459,0.03623
7287.68306,0.01177
7289.61153,0.00163
7291.54000,-0.00762
7293.46847,-0.04038
7295.39694,-0.02689
7297.32541,0.06073
7299.25387,0.16736
7301.18234,0.24259
7303.11081,0.21821
7305.03928,0.16053
7306.96775,0.15997
7308.89622,-0.00242
7310.82469,-0.17250
7312.75316,-0.00003
7314.68162,0.21145
7316.61009,0.11291
7318.53856,-0.10373
7320.46703,-0.11328
7322.39550,0.03992
7324.32397,0.22870
7326.25244,0.29208
7328.18090,0.18170
7330.10937,0.03774
7332.03784,0.02202
7333.96631,0.06471
7335.89478,0.01853
7337.82325,-0.05071
7339.75172,-0.00402
7341.68019,-0.15112
7343.60865,-0.33406
7345.53712,-0.11130
7347.46559,0.20089
7349.39406,0.20138
7351.32253,0.08301
7353.25100,0.10780
7355.17947,0.29423
7357.10793,0.41498
7359.03640,0.25259
7360.96487,0.08709
7362.89334,0.14417
7364.82181,0.23312
7366.75028,0.18463
7368.67875,0.07455
7370.60722,0.10320
7372.53568,0.21863
7374.46415,0.18304
7376.39262,-0.02353
7378.32109,-0.08883
7380.24956,-0.02537
7382.17803,0.04532
7384.10650,0.04408
7386.03496,-0.02403
7387.96343,-0.10719
7389.89190,-0.13623
7391.82037,-0.05158
7393.74884,0.13166
7395.67731,0.24101
7397.60578,0.19120
7399.53425,0.15468
7401.46271,0.12012
7403.39118,-0.06370
7405.31965,-0.17746
7407.24812,-0.03788
7409.17659,0.11757
7411.10506,0.14448
7413.03353,0.12568
7414.96199,0.22177
7416.89046,0.40084
7418.81893,0.34299
7420.74740,0.04756
7422.67587,-0.12090
7424.60434,-0.16166
7426.53281,-0.05194
7428.46128,0.13184
7430.38974,0.12437
7432.31821,-0.02611
7434.24668,-0.03824
7436.17515,0.11763
7438.10362,0.28864
7440.03209,0.29111
7441.96056,0.04898
7443.88902,-0.19647
7445.81749,-0.20045
7447.74596,-0.12987
7449.67443,-0.20666
7451.60290,-0.34195
7453.53137,-0.32339
7455.45984,-0.25591
7457.38831,-0.24121
7459.31677,-0.22948
7461.24524,-0.18074
7463.17371,-0.17385
7465.10218,-0.15169
7467.03065,-0.05464
7468.95912,-0.03228
7470.88759,-0.06014
7472.81605,-0.01287
7474.74452,0.06053
7476.67299,0.12115
7478.60146,0.14779
7480.52993,0.12045
7482.45840,0.04511
7484.38687,-0.04983
7486.31533,-0.06526
7488.24380,0.07427
7490.17227,0.23815
7492.10074,0.17272
7494.02921,-0.03279
7495.95768,-0.10566
7497.88615,0.03425
