399.19301,1.10234
401.12148,0.82167
403.04995,0.44662
404.97842,0.38453
406.90689,0.39807
408.83536,0.42783
410.76382,0.40596
412.69229,0.29626
414.62076,0.15902
416.54923,0.03865
418.47770,-0.00441
420.40617,0.10791
422.33464,0.20280
424.26311,0.16582
426.19157,0.03743
428.12004,-0.05161
430.04851,-0.06584
431.97698,-0.06885
433.90545,-0.07409
435.83392,-0.04862
437.76239,-0.01701
439.69085,-0.00141
441.61932,-0.01267
443.54779,-0.01515
445.47626,0.07099
447.40473,0.16359
449.33320,0.14676
451.26167,0.06832
453.19013,0.03354
455.11860,0.07720
457.04707,0.12863
458.97554,0.10989
460.90401,0.05432
462.83248,0.00381
464.76095,-0.02866
466.68942,-0.03065
468.61788,-0.01912
470.54635,0.01810
472.47482,0.09910
474.40329,0.13082
476.33176,0.11172
478.26023,0.11906
480.18870,0.12590
482.11716,0.11839
484.04563,0.09780
485.97410,0.05100
487.90257,-0.00552
489.83104,-0.01592
491.75951,-0.00850
493.68798,-0.01654
495.61645,0.00379
497.54491,0.03878
499.47338,0.04218
501.40185,0.05792
503.33032,0.12203
505.25879,0.16813
507.18726,0.14720
509.11573,0.10801
511.04419,0.09425
512.97266,0.09520
514.90113,0.11478
516.82960,0.12906
518.75807,0.11566
520.68654,0.11220
522.61501,0.11582
524.54348,0.10799
526.47194,0.09935
528.40041,0.09995
530.32888,0.10718
532.25735,0.10448
534.18582,0.10574
536.11429,0.11705
538.04276,0.09318
539.97122,0.04858
541.89969,0.03279
543.82816,0.05121
545.75663,0.09235
547.68510,0.13533
549.61357,0.17545
551.54204,0.27097
553.47051,0.36851
555.39897,0.30362
557.32744,0.13703
559.25591,0.06664
561.18438,0.09087
563.11285,0.10902
565.04132,0.10135
566.96979,0.09273
568.89825,0.07947
570.82672,0.07025
572.75519,0.07536
574.68366,0.07827
576.61213,0.07870
578.54060,0.09035
580.46907,0.10995
582.39754,0.11782
584.32600,0.11296
586.25447,0.11310
588.18294,0.12267
590.11141,0.13937
592.03988,0.15626
593.96835,0.14457
595.89682,0.11259
597.82528,0.10120
599.75375,0.09999
601.68222,0.09006
603.61069,0.08694
605.53916,0.09264
607.46763,0.09933
609.39610,0.10701
611.32456,0.10227
613.25303,0.08525
615.18150,0.08338
617.10997,0.09589
619.03844,0.10612
620.96691,0.11710
622.89538,0.12643
624.82385,0.12651
626.75231,0.11896
628.68078,0.11236
630.60925,0.11593
632.53772,0.12764
634.46619,0.14405
636.39466,0.16117
638.32313,0.16279
640.25159,0.14724
642.18006,0.12921
644.10853,0.11361
646.03700,0.10241
647.96547,0.09876
649.89394,0.10297
651.82241,0.10965
653.75088,0.11194
655.67934,0.10840
657.60781,0.10179
659.53628,0.10378
661.46475,0.11705
663.39322,0.11938
665.32169,0.10199
667.25016,0.08313
669.17862,0.09510
671.10709,0.11262
673.03556,0.10890
674.96403,0.09863
676.89250,0.09819
678.82097,0.10769
680.74944,0.11254
682.67791,0.11132
684.60637,0.11313
686.53484,0.11583
688.46331,0.12077
690.39178,0.12852
692.32025,0.13169
694.24872,0.13421
696.17719,0.13985
698.10565,0.13843
700.03412,0.13174
701.96259,0.12994
703.89106,0.12481
705.81953,0.11564
707.74800,0.11942
709.67647,0.12786
711.60494,0.12273
713.53340,0.11789
715.46187,0.12652
717.39034,0.13556
719.31881,0.13584
721.24728,0.13551
723.17575,0.13799
725.10422,0.13373
727.03268,0.12765
728.96115,0.13125
730.88962,0.13816
732.81809,0.13979
734.74656,0.13483
736.67503,0.12508
738.60350,0.11934
740.53197,0.12220
742.46043,0.12637
744.38890,0.13126
746.31737,0.13500
748.24584,0.13359
750.17431,0.13811
752.10278,0.14754
754.03125,0.14796
755.95971,0.14020
757.88818,0.13217
759.81665,0.12905
761.74512,0.12953
763.67359,0.13102
765.60206,0.13426
767.53053,0.13479
769.45900,0.12775
771.38746,0.11728
773.31593,0.11526
775.24440,0.12537
777.17287,0.13223
779.10134,0.12668
781.02981,0.12020
782.95828,0.12635
784.88674,0.14031
786.81521,0.14326
788.74368,0.13744
790.67215,0.13751
792.60062,0.13996
794.52909,0.13843
796.45756,0.13785
798.38602,0.14239
800.31449,0.14315
802.24296,0.13288
804.17143,0.12014
806.09990,0.11491
808.02837,0.11672
809.95684,0.11955
811.88531,0.11905
813.81377,0.11215
815.74224,0.10372
817.67071,0.10234
819.59918,0.10758
821.52765,0.11576
823.45612,0.12567
825.38459,0.13016
827.31305,0.12362
829.24152,0.12307
831.16999,0.13912
833.09846,0.15456
835.02693,0.15672
836.95540,0.14743
838.88387,0.13093
840.81234,0.12080
842.74080,0.12393
844.66927,0.12319
846.59774,0.11475
848.52621,0.11569
850.45468,0.12712
852.38315,0.13880
854.31162,0.14407
856.24008,0.14337
858.16855,0.13869
860.09702,0.12907
862.02549,0.12627
863.95396,0.13322
865.88243,0.13041
867.81090,0.12043
869.73937,0.12160
871.66783,0.13219
873.59630,0.14025
875.52477,0.14252
877.45324,0.14716
879.38171,0.15457
881.31018,0.15567
883.23865,0.15200
885.16711,0.14740
887.09558,0.14154
889.02405,0.13847
890.95252,0.13787
892.88099,0.13344
894.80946,0.12974
896.73793,0.13427
898.66640,0.14041
900.59486,0.14091
902.52333,0.13825
904.45180,0.13873
906.38027,0.14281
908.30874,0.13978
910.23721,0.12721
912.16568,0.12095
914.09414,0.12679
916.02261,0.13330
917.95108,0.13458
919.87955,0.13225
921.80802,0.13106
923.73649,0.13405
925.66496,0.13727
927.59343,0.14057
929.52189,0.14550
931.45036,0.14890
933.37883,0.14866
935.30730,0.14455
937.23577,0.13872
939.16424,0.13325
941.09271,0.13069
943.02117,0.13373
944.94964,0.13743
946.87811,0.13577
948.80658,0.13127
950.73505,0.12913
952.66352,0.12987
954.59199,0.12959
956.52045,0.12661
958.44892,0.12568
960.37739,0.13012
962.30586,0.13591
964.23433,0.13822
966.16280,0.13733
968.09127,0.13331
970.01974,0.12888
971.94820,0.13006
973.87667,0.13480
975.80514,0.13845
977.73361,0.13823
979.66208,0.13356
981.59055,0.13055
983.51902,0.13124
985.44748,0.13161
987.37595,0.13361
989.30442,0.13755
991.23289,0.13540
993.16136,0.12954
995.08983,0.13134
997.01830,0.14016
998.94677,0.14829
1000.87523,0.15207
1002.80370,0.14764
1004.73217,0.13852
1006.66064,0.13798
1008.58911,0.14540
1010.51758,0.14773
1012.44605,0.14364
1014.37451,0.13982
1016.30298,0.13670
1018.23145,0.13551
1020.15992,0.13964
1022.08839,0.14593
1024.01686,0.14712
1025.94533,0.15360
1027.87380,0.17540
1029.80226,0.17322
1031.73073,0.14044
1033.65920,0.12803
1035.58767,0.13379
1037.51614,0.13835
1039.44461,0.14572
1041.37308,0.15296
1043.30154,0.15704
1045.23001,0.15620
1047.15848,0.15388
1049.08695,0.15241
1051.01542,0.15314
1052.94389,0.15805
1054.87236,0.16298
1056.80083,0.16559
1058.72929,0.16608
1060.65776,0.16400
1062.58623,0.16111
1064.51470,0.16158
1066.44317,0.16474
1068.37164,0.16429
1070.30011,0.15829
1072.22857,0.15554
1074.15704,0.16189
1076.08551,0.16967
1078.01398,0.16948
1079.94245,0.16195
1081.87092,0.15666
1083.79939,0.15690
1085.72786,0.15673
1087.65632,0.15341
1089.58479,0.15275
1091.51326,0.15644
1093.44173,0.15819
1095.37020,0.15919
1097.29867,0.16103
1099.22714,0.15580
1101.15560,0.14783
1103.08407,0.14990
1105.01254,0.15740
1106.94101,0.16105
1108.86948,0.16025
1110.79795,0.15965
1112.72642,0.16246
1114.65489,0.16490
1116.58335,0.16484
1118.51182,0.16435
1120.44029,0.16271
1122.36876,0.15732
1124.29723,0.15130
1126.22570,0.14746
1128.15417,0.14297
1130.08263,0.13854
1132.01110,0.13882
1133.93957,0.14071
1135.86804,0.13935
1137.79651,0.14055
1139.72498,0.14642
1141.65345,0.15365
1143.58191,0.16005
1145.51038,0.16285
1147.43885,0.16430
1149.36732,0.16510
1151.29579,0.16397
1153.22426,0.16436
1155.15273,0.16747
1157.08120,0.16927
1159.00966,0.16795
1160.93813,0.16332
1162.86660,0.15684
1164.79507,0.15490
1166.72354,0.15827
1168.65201,0.15930
1170.58048,0.15601
1172.50894,0.15404
1174.43741,0.15368
1176.36588,0.15157
1178.29435,0.14978
1180.22282,0.15163
1182.15129,0.15622
1184.07976,0.15890
1186.00823,0.15839
1187.93669,0.15891
1189.86516,0.16225
1191.79363,0.16485
1193.72210,0.16359
1195.65057,0.16119
1197.57904,0.16188
1199.50751,0.16432
1201.43597,0.16467
1203.36444,0.16173
1205.29291,0.15796
1207.22138,0.15569
1209.14985,0.15381
1211.07832,0.15504
1213.00679,0.16229
1214.93526,0.16991
1216.86372,0.17237
1218.79219,0.16953
1220.72066,0.16456
1222.64913,0.16349
1224.57760,0.16600
1226.50607,0.16630
1228.43454,0.16673
1230.36300,0.16906
1232.29147,0.16871
1234.21994,0.16620
1236.14841,0.16543
1238.07688,0.16601
1240.00535,0.16561
1241.93382,0.16549
1243.86229,0.16628
1245.79075,0.16554
1247.71922,0.16359
1249.64769,0.16124
1251.57616,0.15829
1253.50463,0.15745
1255.43310,0.15961
1257.36157,0.16235
1259.29003,0.16534
1261.21850,0.16809
1263.14697,0.16993
1265.07544,0.17098
1267.00391,0.17152
1268.93238,0.17168
1270.86085,0.16954
1272.78932,0.16642
1274.71778,0.16606
1276.64625,0.16797
1278.57472,0.17040
1280.50319,0.17199
1282.43166,0.17210
1284.36013,0.17233
1286.28860,0.17259
1288.21706,0.17240
1290.14553,0.17294
1292.07400,0.17280
1294.00247,0.17107
1295.93094,0.16929
1297.85941,0.16836
1299.78788,0.16852
1301.71634,0.16908
1303.64481,0.16851
1305.57328,0.16736
1307.50175,0.16774
1309.43022,0.16900
1311.35869,0.17169
1313.28716,0.17711
1315.21563,0.18171
1317.14409,0.18397
1319.07256,0.18374
1321.00103,0.17942
1322.92950,0.17411
1324.85797,0.17101
1326.78644,0.17051
1328.71491,0.17165
1330.64337,0.17097
1332.57184,0.16860
1334.50031,0.16880
1336.42878,0.17351
1338.35725,0.18084
1340.28572,0.18257
1342.21419,0.17629
1344.14266,0.17141
1346.07112,0.17024
1347.99959,0.16835
1349.92806,0.16626
1351.85653,0.16840
1353.78500,0.17397
1355.71347,0.17672
1357.64194,0.17668
1359.57040,0.18080
1361.49887,0.18899
1363.42734,0.19027
1365.35581,0.18480
1367.28428,0.18263
1369.21275,0.18246
1371.14122,0.18442
1373.06969,0.18984
1374.99815,0.18726
1376.92662,0.17563
1378.85509,0.16944
1380.78356,0.17088
1382.71203,0.17364
1384.64050,0.17628
1386.56897,0.18025
1388.49743,0.18139
1390.42590,0.17914
1392.35437,0.18241
1394.28284,0.19388
1396.21131,0.20259
1398.13978,0.19967
1400.06825,0.18808
1401.99672,0.18109
1403.92518,0.18487
1405.85365,0.18801
1407.78212,0.18478
1409.71059,0.18213
1411.63906,0.18049
1413.56753,0.18059
1415.49600,0.18728
1417.42446,0.19986
1419.35293,0.20283
1421.28140,0.19259
1423.20987,0.18626
1425.13834,0.18312
1427.06681,0.18311
1428.99528,0.18958
1430.92375,0.19289
1432.85221,0.19155
1434.78068,0.19806
1436.70915,0.20418
1438.63762,0.19340
1440.56609,0.18298
1442.49456,0.18085
1444.42303,0.18313
1446.35149,0.18787
1448.27996,0.19115
1450.20843,0.19010
1452.13690,0.19098
1454.06537,0.20353
1455.99384,0.23379
1457.92231,0.24821
1459.85077,0.22050
1461.77924,0.20019
1463.70771,0.19492
1465.63618,0.19062
1467.56465,0.18735
1469.49312,0.19910
1471.42159,0.22593
1473.35006,0.23886
1475.27852,0.22084
1477.20699,0.20066
1479.13546,0.19181
1481.06393,0.19202
1482.99240,0.19262
1484.92087,0.19553
1486.84934,0.20927
1488.77780,0.22636
1490.70627,0.22061
1492.63474,0.20574
1494.56321,0.20690
1496.49168,0.21790
1498.42015,0.21908
1500.34862,0.21148
1502.27709,0.20784
1504.20555,0.22052
1506.13402,0.26078
1508.06249,0.27089
1509.99096,0.23793
1511.91943,0.21849
1513.84790,0.21832
1515.77637,0.23591
1517.70483,0.25632
1519.63330,0.27001
1521.56177,0.27408
1523.49024,0.25483
1525.41871,0.23410
1527.34718,0.22016
1529.27565,0.21278
1531.20412,0.21958
1533.13258,0.23175
1535.06105,0.22919
1536.98952,0.23384
1538.91799,0.27232
1540.84646,0.30987
1542.77493,0.28243
1544.70340,0.24093
1546.63186,0.21309
1548.56033,0.20529
1550.48880,0.20700
1552.41727,0.21166
1554.34574,0.22718
1556.27421,0.26045
1558.20268,0.30235
1560.13115,0.26568
1562.05961,0.21791
1563.98808,0.20527
1565.91655,0.20604
1567.84502,0.21313
1569.77349,0.21615
1571.70196,0.20740
1573.63043,0.20760
1575.55889,0.21887
1577.48736,0.21437
1579.41583,0.19926
1581.34430,0.19315
1583.27277,0.19307
1585.20124,0.19125
1587.12971,0.18672
1589.05818,0.18437
1590.98664,0.18465
1592.91511,0.18480
1594.84358,0.18483
1596.77205,0.18353
1598.70052,0.18178
1600.62899,0.18343
1602.55746,0.18616
1604.48592,0.18673
1606.41439,0.18921
1608.34286,0.19321
1610.27133,0.19325
1612.19980,0.19288
1614.12827,0.20142
1616.05674,0.21810
1617.98521,0.21968
1619.91367,0.21249
1621.84214,0.21517
1623.77061,0.21720
1625.69908,0.21246
1627.62755,0.20782
1629.55602,0.20256
1631.48449,0.20298
1633.41295,0.21789
1635.34142,0.24318
1637.26989,0.23812
1639.19836,0.21460
1641.12683,0.20481
1643.05530,0.21124
1644.98377,0.23614
1646.91223,0.26424
1648.84070,0.25979
1650.76917,0.26194
1652.69764,0.28856
1654.62611,0.26436
1656.55458,0.22289
1658.48305,0.20893
1660.41152,0.21374
1662.33998,0.22119
1664.26845,0.21754
1666.19692,0.21790
1668.12539,0.23154
1670.05386,0.23907
1671.98233,0.23060
1673.91080,0.22728
1675.83926,0.22564
1677.76773,0.22132
1679.69620,0.22518
1681.62467,0.24256
1683.55314,0.26570
1685.48161,0.25490
1687.41008,0.22970
1689.33855,0.21682
1691.26701,0.21035
1693.19548,0.21361
1695.12395,0.23262
1697.05242,0.25810
1698.98089,0.27331
1700.90936,0.26342
1702.83783,0.24379
1704.76629,0.23669
1706.69476,0.22739
1708.62323,0.21109
1710.55170,0.20236
1712.48017,0.20792
1714.40864,0.22815
1716.33711,0.25071
1718.26558,0.23986
1720.19404,0.21212
1722.12251,0.19950
1724.05098,0.19488
1725.97945,0.19175
1727.90792,0.19636
1729.83639,0.20834
1731.76486,0.22315
1733.69332,0.23327
1735.62179,0.22316
1737.55026,0.21461
1739.47873,0.21702
1741.40720,0.22098
1743.33567,0.22175
1745.26414,0.22216
1747.19261,0.22657
1749.12107,0.23187
1751.04954,0.22574
1752.97801,0.21345
1754.90648,0.20918
1756.83495,0.20966
1758.76342,0.20826
1760.69189,0.20919
1762.62035,0.20722
1764.54882,0.20045
1766.47729,0.20078
1768.40576,0.21061
1770.33423,0.22677
1772.26270,0.23622
1774.19117,0.22416
1776.11964,0.20981
1778.04810,0.20525
1779.97657,0.20460
1781.90504,0.20089
1783.83351,0.19687
1785.76198,0.19330
1787.69045,0.19136
1789.61892,0.19928
1791.54738,0.21287
1793.47585,0.21205
1795.40432,0.20257
1797.33279,0.19999
1799.26126,0.20442
1801.18973,0.20727
1803.11820,0.20123
1805.04666,0.19382
1806.97513,0.19346
1808.90360,0.19920
1810.83207,0.20346
1812.76054,0.20077
1814.68901,0.19683
1816.61748,0.19613
1818.54595,0.19555
1820.47441,0.19450
1822.40288,0.19735
1824.33135,0.20351
1826.25982,0.20820
1828.18829,0.21241
1830.11676,0.21130
1832.04523,0.20087
1833.97369,0.19426
1835.90216,0.19511
1837.83063,0.19565
1839.75910,0.19511
1841.68757,0.20084
1843.61604,0.21041
1845.54451,0.20936
1847.47298,0.20073
1849.40144,0.19446
1851.32991,0.19134
1853.25838,0.19075
1855.18685,0.19021
1857.11532,0.18807
1859.04379,0.18636
1860.97226,0.18748
1862.90072,0.19114
1864.82919,0.19721
1866.75766,0.20631
1868.68613,0.21040
1870.61460,0.20161
1872.54307,0.19117
1874.47154,0.18634
1876.40001,0.18558
1878.32847,0.18720
1880.25694,0.18967
1882.18541,0.19256
1884.11388,0.19540
1886.04235,0.19740
1887.97082,0.20066
1889.89929,0.20148
1891.82775,0.19621
1893.75622,0.19245
1895.68469,0.19221
1897.61316,0.19148
1899.54163,0.19021
1901.47010,0.18918
1903.39857,0.18829
1905.32704,0.18776
1907.25550,0.18936
1909.18397,0.19294
1911.11244,0.19337
1913.04091,0.19030
1914.96938,0.19006
1916.89785,0.19464
1918.82632,0.19841
1920.75478,0.19881
1922.68325,0.19790
1924.61172,0.19560
1926.54019,0.19363
1928.46866,0.19300
1930.39713,0.19269
1932.32560,0.19125
1934.25407,0.18881
1936.18253,0.18824
1938.11100,0.18970
1940.03947,0.19357
1941.96794,0.19884
1943.89641,0.19824
1945.82488,0.19290
1947.75335,0.18964
1949.68181,0.18884
1951.61028,0.18944
1953.53875,0.19112
1955.46722,0.19235
1957.39569,0.19227
1959.32416,0.19231
1961.25263,0.19283
1963.18110,0.19401
1965.10956,0.19690
1967.03803,0.19846
1968.96650,0.19552
1970.89497,0.19192
1972.82344,0.19123
1974.75191,0.19110
1976.68038,0.19017
1978.60884,0.18949
1980.53731,0.18833
1982.46578,0.18841
1984.39425,0.19185
1986.32272,0.19622
1988.25119,0.19875
1990.17966,0.19894
1992.10812,0.19600
1994.03659,0.19096
1995.96506,0.18904
1997.89353,0.19060
1999.82200,0.19088
2001.75047,0.18957
2003.67894,0.18905
2005.60741,0.18954
2007.53587,0.19079
2009.46434,0.19136
2011.39281,0.19075
2013.32128,0.19193
2015.24975,0.19532
2017.17822,0.19637
2019.10669,0.19329
2021.03515,0.18999
2022.96362,0.18922
2024.89209,0.18947
2026.82056,0.18881
2028.74903,0.18883
2030.67750,0.19114
2032.60597,0.19308
2034.53444,0.19271
2036.46290,0.19251
2038.39137,0.19400
2040.31984,0.19420
2042.24831,0.19199
2044.17678,0.19109
2046.10525,0.19153
2048.03372,0.19186
2049.96218,0.19306
2051.89065,0.19316
2053.81912,0.19256
2055.74759,0.19404
2057.67606,0.19459
2059.60453,0.19090
2061.53300,0.18682
2063.46147,0.18697
2065.38993,0.18854
2067.31840,0.18854
2069.24687,0.18986
2071.17534,0.19281
2073.10381,0.19438
2075.03228,0.19392
2076.96075,0.19226
2078.88921,0.19019
2080.81768,0.18994
2082.74615,0.19331
2084.67462,0.19700
2086.60309,0.19787
2088.53156,0.19764
2090.46003,0.19606
2092.38850,0.19305
2094.31696,0.19191
2096.24543,0.19205
2098.17390,0.19073
2100.10237,0.18993
2102.03084,0.19133
2103.95931,0.19151
2105.88778,0.19040
2107.81624,0.19192
2109.74471,0.19400
2111.67318,0.19281
2113.60165,0.19146
2115.53012,0.19438
2117.45859,0.19818
2119.38706,0.19742
2121.31553,0.19452
2123.24399,0.19315
2125.17246,0.19281
2127.10093,0.19337
2129.02940,0.19413
2130.95787,0.19349
2132.88634,0.19191
2134.81481,0.19051
2136.74327,0.19039
2138.67174,0.19224
2140.60021,0.19413
2142.52868,0.19367
2144.45715,0.19194
2146.38562,0.19225
2148.31409,0.19392
2150.24255,0.19287
2152.17102,0.19076
2154.09949,0.19179
2156.02796,0.19375
2157.95643,0.19367
2159.88490,0.19348
2161.81337,0.19422
2163.74184,0.19406
2165.67030,0.19471
2167.59877,0.19714
2169.52724,0.19689
2171.45571,0.19398
2173.38418,0.19208
2175.31265,0.19152
2177.24112,0.19256
2179.16958,0.19421
2181.09805,0.19394
2183.02652,0.19242
2184.95499,0.19110
2186.88346,0.18993
2188.81193,0.19073
2190.74040,0.19410
2192.66887,0.19674
2194.59733,0.19739
2196.52580,0.19699
2198.45427,0.19490
2200.38274,0.19200
2202.31121,0.19099
2204.23968,0.19239
2206.16815,0.19402
2208.09661,0.19413
2210.02508,0.19247
2211.95355,0.19028
2213.88202,0.19026
2215.81049,0.19234
2217.73896,0.19365
2219.66743,0.19331
2221.59590,0.19254
2223.52436,0.19240
2225.45283,0.19277
2227.38130,0.19381
2229.30977,0.19601
2231.23824,0.19783
2233.16671,0.19734
2235.09518,0.19593
2237.02364,0.19472
2238.95211,0.19183
2240.88058,0.18834
2242.80905,0.18792
2244.73752,0.19120
2246.66599,0.19489
2248.59446,0.19603
2250.52293,0.19653
2252.45139,0.19751
2254.37986,0.19640
2256.30833,0.19419
2258.23680,0.19436
2260.16527,0.19559
2262.09374,0.19462
2264.02221,0.19303
2265.95067,0.19259
2267.87914,0.19120
2269.80761,0.19004
2271.73608,0.19182
2273.66455,0.19412
2275.59302,0.19517
2277.52149,0.19570
2279.44996,0.19538
2281.37842,0.19507
2283.30689,0.19567
2285.23536,0.19613
2287.16383,0.19670
2289.09230,0.19832
2291.02077,0.19838
2292.94924,0.19552
2294.87770,0.19340
2296.80617,0.19374
2298.73464,0.19536
2300.66311,0.19667
2302.59158,0.19745
2304.52005,0.19995
2306.44852,0.20355
2308.37699,0.20672
2310.30545,0.20829
2312.23392,0.20507
2314.16239,0.19996
2316.09086,0.19970
2318.01933,0.20575
2319.94780,0.21555
2321.87627,0.22247
2323.80473,0.22002
2325.73320,0.21359
2327.66167,0.21029
2329.59014,0.20978
2331.51861,0.21392
2333.44708,0.21623
2335.37555,0.21120
2337.30401,0.21306
2339.23248,0.22371
2341.16095,0.22513
2343.08942,0.21776
2345.01789,0.21286
2346.94636,0.20982
2348.87483,0.20952
2350.80330,0.21340
2352.73176,0.21818
2354.66023,0.22300
2356.58870,0.23100
2358.51717,0.22728
2360.44564,0.21312
2362.37411,0.21791
2364.30258,0.23280
2366.23104,0.23937
2368.15951,0.23599
2370.08798,0.22167
2372.01645,0.20785
2373.94492,0.20417
2375.87339,0.20443
2377.80186,0.20301
2379.73033,0.20185
2381.65879,0.20135
2383.58726,0.20090
2385.51573,0.19928
2387.44420,0.19581
2389.37267,0.19463
2391.30114,0.19647
2393.22961,0.19705
2395.15807,0.19705
2397.08654,0.19845
2399.01501,0.19815
2400.94348,0.19452
2402.87195,0.19165
2404.80042,0.19177
2406.72889,0.19235
2408.65736,0.19274
2410.58582,0.19406
2412.51429,0.19588
2414.44276,0.19699
2416.37123,0.19648
2418.29970,0.19568
2420.22817,0.19560
2422.15664,0.19507
2424.08510,0.19297
2426.01357,0.19041
2427.94204,0.19067
2429.87051,0.19353
2431.79898,0.19584
2433.72745,0.19630
2435.65592,0.19540
2437.58439,0.19399
2439.51285,0.19255
2441.44132,0.19196
2443.36979,0.19195
2445.29826,0.19193
2447.22673,0.19286
2449.15520,0.19423
2451.08367,0.19471
2453.01213,0.19501
2454.94060,0.19594
2456.86907,0.19623
2458.79754,0.19582
2460.72601,0.19612
2462.65448,0.19637
2464.58295,0.19694
2466.51142,0.19892
2468.43988,0.19893
2470.36835,0.19552
2472.29682,0.19303
2474.22529,0.19244
2476.15376,0.19211
2478.08223,0.19224
2480.01070,0.19219
2481.93916,0.19276
2483.86763,0.19476
2485.79610,0.19631
2487.72457,0.19711
2489.65304,0.19748
2491.58151,0.19673
2493.50998,0.19670
2495.43844,0.19881
2497.36691,0.20063
2499.29538,0.20030
2501.22385,0.19763
2503.15232,0.19534
2505.08079,0.19619
2507.00926,0.19764
2508.93773,0.19853
2510.86619,0.19924
2512.79466,0.19853
2514.72313,0.19790
2516.65160,0.19758
2518.58007,0.19699
2520.50854,0.19794
2522.43701,0.19888
2524.36547,0.19694
2526.29394,0.19319
2528.22241,0.19181
2530.15088,0.19462
2532.07935,0.19734
2534.00782,0.19728
2535.93629,0.19709
2537.86476,0.19924
2539.79322,0.20174
2541.72169,0.20146
2543.65016,0.20105
2545.57863,0.20197
2547.50710,0.20002
2549.43557,0.19525
2551.36404,0.19277
2553.29250,0.19336
2555.22097,0.19371
2557.14944,0.19352
2559.07791,0.19392
2561.00638,0.19484
2562.93485,0.19538
2564.86332,0.19487
2566.79179,0.19510
2568.72025,0.19696
2570.64872,0.19847
2572.57719,0.19877
2574.50566,0.19900
2576.43413,0.19855
2578.36260,0.19734
2580.29107,0.19835
2582.21953,0.20101
2584.14800,0.20215
2586.07647,0.20224
2588.00494,0.20219
2589.93341,0.20060
2591.86188,0.19749
2593.79035,0.19537
2595.71882,0.19555
2597.64728,0.19708
2599.57575,0.19863
2601.50422,0.19833
2603.43269,0.19669
2605.36116,0.19723
2607.28963,0.19922
2609.21810,0.20007
2611.14656,0.20047
2613.07503,0.20097
2615.00350,0.20063
2616.93197,0.19898
2618.86044,0.19871
2620.78891,0.20210
2622.71738,0.20528
2624.64585,0.20390
2626.57431,0.20109
2628.50278,0.20152
2630.43125,0.20262
2632.35972,0.20152
2634.28819,0.20045
2636.21666,0.20035
2638.14513,0.19911
2640.07359,0.19771
2642.00206,0.19889
2643.93053,0.20046
2645.85900,0.20000
2647.78747,0.19948
2649.71594,0.20002
2651.64441,0.20130
2653.57288,0.20173
2655.50134,0.19987
2657.42981,0.19944
2659.35828,0.20246
2661.28675,0.20450
2663.21522,0.20284
2665.14369,0.19957
2667.07216,0.19908
2669.00062,0.20214
2670.92909,0.20362
2672.85756,0.20275
2674.78603,0.20363
2676.71450,0.20609
2678.64297,0.20740
2680.57144,0.20692
2682.49990,0.20571
2684.42837,0.20393
2686.35684,0.20261
2688.28531,0.20300
2690.21378,0.20361
2692.14225,0.20371
2694.07072,0.20405
2695.99919,0.20561
2697.92765,0.20742
2699.85612,0.20704
2701.78459,0.20609
2703.71306,0.20628
2705.64153,0.20587
2707.57000,0.20496
2709.49847,0.20543
2711.42693,0.20672
2713.35540,0.20749
2715.28387,0.20905
2717.21234,0.21094
2719.14081,0.21035
2721.06928,0.20865
2722.99775,0.20731
2724.92622,0.20511
2726.85468,0.20419
2728.78315,0.20439
2730.71162,0.20237
2732.64009,0.20147
2734.56856,0.20531
2736.49703,0.20888
2738.42550,0.20872
2740.35396,0.20848
2742.28243,0.21001
2744.21090,0.21088
2746.13937,0.20905
2748.06784,0.20603
2749.99631,0.20423
2751.92478,0.20325
2753.85325,0.20250
2755.78171,0.20333
2757.71018,0.20714
2759.63865,0.21145
2761.56712,0.21190
2763.49559,0.20959
2765.42406,0.20914
2767.35253,0.21090
2769.28099,0.21219
2771.20946,0.21306
2773.13793,0.21419
2775.06640,0.21499
2776.99487,0.21498
2778.92334,0.21322
2780.85181,0.21132
2782.78028,0.21185
2784.70874,0.21258
2786.63721,0.21305
2788.56568,0.21563
2790.49415,0.21703
2792.42262,0.21403
2794.35109,0.21037
2796.27956,0.20940
2798.20802,0.20946
2800.13649,0.20886
2802.06496,0.20902
2803.99343,0.21087
2805.92190,0.21202
2807.85037,0.21150
2809.77884,0.21211
2811.70731,0.21512
2813.63577,0.21889
2815.56424,0.22060
2817.49271,0.21943
2819.42118,0.21724
2821.34965,0.21311
2823.27812,0.20774
2825.20659,0.20639
2827.13505,0.20991
2829.06352,0.21262
2830.99199,0.21013
2832.92046,0.20712
2834.84893,0.20935
2836.77740,0.21440
2838.70587,0.21714
2840.63433,0.21547
2842.56280,0.21356
2844.49127,0.21493
2846.41974,0.21591
2848.34821,0.21367
2850.27668,0.21074
2852.20515,0.20986
2854.13362,0.21003
2856.06208,0.20989
2857.99055,0.20923
2859.91902,0.20847
2861.84749,0.21009
2863.77596,0.21347
2865.70443,0.21420
2867.63290,0.21357
2869.56136,0.21459
2871.48983,0.21383
2873.41830,0.21152
2875.34677,0.21210
2877.27524,0.21397
2879.20371,0.21461
2881.13218,0.21521
2883.06065,0.21547
2884.98911,0.21462
2886.91758,0.21475
2888.84605,0.21482
2890.77452,0.21204
2892.70299,0.20890
2894.63146,0.20777
2896.55993,0.20691
2898.48839,0.20625
2900.41686,0.20698
2902.34533,0.20881
2904.27380,0.21176
2906.20227,0.21412
2908.13074,0.21277
2910.05921,0.20801
2911.98768,0.20509
2913.91614,0.20779
2915.84461,0.21150
2917.77308,0.21099
2919.70155,0.20856
2921.63002,0.20824
2923.55849,0.20913
2925.48696,0.20822
2927.41542,0.20604
2929.34389,0.20461
2931.27236,0.20480
2933.20083,0.20610
2935.12930,0.20810
2937.05777,0.21179
2938.98624,0.21609
2940.91471,0.21749
2942.84317,0.21512
2944.77164,0.21215
2946.70011,0.21150
2948.62858,0.21247
2950.55705,0.21306
2952.48552,0.21343
2954.41399,0.21338
2956.34245,0.21229
2958.27092,0.21146
2960.19939,0.21035
2962.12786,0.20964
2964.05633,0.21320
2965.98480,0.21767
2967.91327,0.21775
2969.84174,0.21685
2971.77020,0.21784
2973.69867,0.21810
2975.62714,0.21687
2977.55561,0.21701
2979.48408,0.21822
2981.41255,0.21805
2983.34102,0.21617
2985.26948,0.21243
2987.19795,0.20990
2989.12642,0.21222
2991.05489,0.21733
2992.98336,0.22089
2994.91183,0.22066
2996.84030,0.21823
2998.76877,0.21616
3000.69723,0.21608
3002.62570,0.21935
3004.55417,0.22331
3006.48264,0.22292
3008.41111,0.21995
3010.33958,0.21975
3012.26805,0.22027
3014.19651,0.21791
3016.12498,0.21580
3018.05345,0.21598
3019.98192,0.21678
3021.91039,0.21721
3023.83886,0.21745
3025.76733,0.21935
3027.69579,0.22381
3029.62426,0.22784
3031.55273,0.22660
3033.48120,0.22107
3035.40967,0.21787
3037.33814,0.21809
3039.26661,0.21960
3041.19508,0.22133
3043.12354,0.22150
3045.05201,0.22110
3046.98048,0.22180
3048.90895,0.22257
3050.83742,0.22209
3052.76589,0.22058
3054.69436,0.21838
3056.62282,0.21603
3058.55129,0.21504
3060.47976,0.21632
3062.40823,0.21996
3064.33670,0.22429
3066.26517,0.22547
3068.19364,0.22213
3070.12211,0.21844
3072.05057,0.21786
3073.97904,0.21797
3075.90751,0.21618
3077.83598,0.21469
3079.76445,0.21474
3081.69292,0.21456
3083.62139,0.21563
3085.54985,0.21823
3087.47832,0.21884
3089.40679,0.21712
3091.33526,0.21589
3093.26373,0.21721
3095.19220,0.21827
3097.12067,0.21865
3099.04914,0.22307
3100.97760,0.22868
3102.90607,0.22859
3104.83454,0.22307
3106.76301,0.21827
3108.69148,0.21924
3110.61995,0.22287
3112.54842,0.22304
3114.47688,0.22154
3116.40535,0.22371
3118.33382,0.22751
3120.26229,0.22704
3122.19076,0.22276
3124.11923,0.21750
3126.04770,0.21262
3127.97617,0.21006
3129.90463,0.21069
3131.83310,0.21551
3133.76157,0.22057
3135.69004,0.22031
3137.61851,0.21820
3139.54698,0.21772
3141.47545,0.21853
3143.40391,0.22014
3145.33238,0.22084
3147.26085,0.21958
3149.18932,0.21823
3151.11779,0.21938
3153.04626,0.22255
3154.97473,0.22531
3156.90320,0.22537
3158.83166,0.22305
3160.76013,0.22198
3162.68860,0.22319
3164.61707,0.22384
3166.54554,0.22465
3168.47401,0.22839
3170.40248,0.23205
3172.33094,0.23030
3174.25941,0.22345
3176.18788,0.21796
3178.11635,0.21714
3180.04482,0.21958
3181.97329,0.22429
3183.90176,0.22864
3185.83022,0.23035
3187.75869,0.23020
3189.68716,0.22943
3191.61563,0.22798
3193.54410,0.22620
3195.47257,0.22552
3197.40104,0.22488
3199.32951,0.22394
3201.25797,0.22522
3203.18644,0.22554
3205.11491,0.22205
3207.04338,0.22040
3208.97185,0.22173
3210.90032,0.22243
3212.82879,0.22283
3214.75725,0.22275
3216.68572,0.22136
3218.61419,0.21845
3220.54266,0.21409
3222.47113,0.21172
3224.39960,0.21496
3226.32807,0.22046
3228.25654,0.22342
3230.18500,0.22613
3232.11347,0.22979
3234.04194,0.23016
3235.97041,0.22643
3237.89888,0.22189
3239.82735,0.21837
3241.75582,0.21644
3243.68428,0.21628
3245.61275,0.21695
3247.54122,0.21723
3249.46969,0.21771
3251.39816,0.21915
3253.32663,0.22038
3255.25510,0.21937
3257.18357,0.21593
3259.11203,0.21523
3261.04050,0.21829
3262.96897,0.21748
3264.89744,0.21348
3266.82591,0.21194
3268.75438,0.21273
3270.68285,0.21572
3272.61131,0.21684
3274.53978,0.21394
3276.46825,0.21361
3278.39672,0.21544
3280.32519,0.21573
3282.25366,0.21880
3284.18213,0.22613
3286.11060,0.23084
3288.03906,0.22752
3289.96753,0.22046
3291.89600,0.21710
3293.82447,0.21727
3295.75294,0.21873
3297.68141,0.22096
3299.60988,0.22079
3301.53834,0.21912
3303.46681,0.22078
3305.39528,0.22451
3307.32375,0.22540
3309.25222,0.22433
3311.18069,0.22531
3313.10916,0.22497
3315.03763,0.21944
3316.96609,0.21596
3318.89456,0.22078
3320.82303,0.22610
3322.75150,0.22521
3324.67997,0.22230
3326.60844,0.22071
3328.53691,0.22189
3330.46537,0.22684
3332.39384,0.23118
3334.32231,0.23103
3336.25078,0.22905
3338.17925,0.22768
3340.10772,0.22666
3342.03619,0.22539
3343.96466,0.22461
3345.89312,0.22618
3347.82159,0.22646
3349.75006,0.22277
3351.67853,0.21901
3353.60700,0.21821
3355.53547,0.21938
3357.46394,0.21929
3359.39240,0.21810
3361.32087,0.21828
3363.24934,0.22075
3365.17781,0.22307
3367.10628,0.22113
3369.03475,0.21725
3370.96322,0.21436
3372.89168,0.21116
3374.82015,0.21239
3376.74862,0.22035
3378.67709,0.22420
3380.60556,0.21874
3382.53403,0.21369
3384.46250,0.21327
3386.39097,0.21175
3388.31943,0.21254
3390.24790,0.21950
3392.17637,0.22462
3394.10484,0.22639
3396.03331,0.22942
3397.96178,0.23017
3399.89025,0.22526
3401.81871,0.21963
3403.74718,0.21737
3405.67565,0.21746
3407.60412,0.22019
3409.53259,0.22185
3411.46106,0.21909
3413.38953,0.21915
3415.31800,0.22338
3417.24646,0.22442
3419.17493,0.22309
3421.10340,0.22254
3423.03187,0.22049
3424.96034,0.21744
3426.88881,0.21622
3428.81728,0.21620
3430.74574,0.21484
3432.67421,0.21496
3434.60268,0.21811
3436.53115,0.21843
3438.45962,0.21615
3440.38809,0.21576
3442.31656,0.21650
3444.24503,0.21775
3446.17349,0.21652
3448.10196,0.20800
3450.03043,0.19967
3451.95890,0.19970
3453.88737,0.20253
3455.81584,0.19952
3457.74431,0.19124
3459.67277,0.18632
3461.60124,0.18851
3463.52971,0.19334
3465.45818,0.19560
3467.38665,0.19544
3469.31512,0.19822
3471.24359,0.20296
3473.17206,0.20392
3475.10052,0.20210
3477.02899,0.20288
3478.95746,0.20705
3480.88593,0.20904
3482.81440,0.20536
3484.74287,0.19988
3486.67134,0.19662
3488.59980,0.19374
3490.52827,0.18949
3492.45674,0.18727
3494.38521,0.18886
3496.31368,0.19288
3498.24215,0.19857
3500.17062,0.20386
3502.09909,0.20453
3504.02755,0.19773
3505.95602,0.19029
3507.88449,0.19116
3509.81296,0.19546
3511.74143,0.19407
3513.66990,0.18821
3515.59837,0.18409
3517.52683,0.18557
3519.45530,0.18967
3521.38377,0.19238
3523.31224,0.19363
3525.24071,0.19383
3527.16918,0.19222
3529.09765,0.18668
3531.02611,0.18016
3532.95458,0.17931
3534.88305,0.18286
3536.81152,0.18367
3538.73999,0.18287
3540.66846,0.18381
3542.59693,0.18289
3544.52540,0.18209
3546.45386,0.18430
3548.38233,0.18395
3550.31080,0.18152
3552.23927,0.18025
3554.16774,0.17736
3556.09621,0.17185
3558.02468,0.16870
3559.95314,0.17315
3561.88161,0.18336
3563.81008,0.19641
3565.73855,0.21177
3567.66702,0.21333
3569.59549,0.19630
3571.52396,0.18317
3573.45243,0.17875
3575.38089,0.17767
3577.30936,0.17608
3579.23783,0.17195
3581.16630,0.16846
3583.09477,0.17190
3585.02324,0.18278
3586.95171,0.19134
3588.88017,0.18323
3590.80864,0.16946
3592.73711,0.16384
3594.66558,0.16477
3596.59405,0.16585
3598.52252,0.16546
3600.45099,0.16348
3602.37946,0.15952
3604.30792,0.15929
3606.23639,0.16699
3608.16486,0.17498
3610.09333,0.17296
3612.02180,0.16985
3613.95027,0.17343
3615.87874,0.17839
3617.80720,0.18292
3619.73567,0.18230
3621.66414,0.17157
3623.59261,0.16198
3625.52108,0.16383
3627.44955,0.17850
3629.37802,0.18316
3631.30649,0.16785
3633.23495,0.15919
3635.16342,0.15688
3637.09189,0.15499
3639.02036,0.15148
3640.94883,0.14659
3642.87730,0.14562
3644.80577,0.15416
3646.73423,0.17696
3648.66270,0.20361
3650.59117,0.19315
3652.51964,0.16756
3654.44811,0.15544
3656.37658,0.14854
3658.30505,0.14019
3660.23352,0.13647
3662.16198,0.13679
3664.09045,0.13839
3666.01892,0.14457
3667.94739,0.15718
3669.87586,0.16935
3671.80433,0.17277
3673.73280,0.17842
3675.66126,0.18096
3677.58973,0.16604
3679.51820,0.15364
3681.44667,0.14783
3683.37514,0.14334
3685.30361,0.14337
3687.23208,0.15293
3689.16055,0.16642
3691.08901,0.16386
3693.01748,0.14922
3694.94595,0.13996
3696.87442,0.13803
3698.80289,0.13832
3700.73136,0.13981
3702.65983,0.14250
3704.58829,0.14416
3706.51676,0.14688
3708.44523,0.15549
3710.37370,0.16837
3712.30217,0.16766
3714.23064,0.15232
3716.15911,0.14250
3718.08757,0.14187
3720.01604,0.14628
3721.94451,0.15389
3723.87298,0.15993
3725.80145,0.15653
3727.72992,0.14689
3729.65839,0.14544
3731.58686,0.15881
3733.51532,0.18034
3735.44379,0.19032
3737.37226,0.17730
3739.30073,0.16294
3741.22920,0.16186
3743.15767,0.17303
3745.08614,0.18295
3747.01460,0.18291
3748.94307,0.18903
3750.87154,0.19390
3752.80001,0.17816
3754.72848,0.16191
3756.65695,0.15600
3758.58542,0.15813
3760.51389,0.15874
3762.44235,0.15367
3764.37082,0.14954
3766.29929,0.14817
3768.22776,0.14781
3770.15623,0.14437
3772.08470,0.13724
3774.01317,0.13546
3775.94163,0.14039
3777.87010,0.14529
3779.79857,0.14325
3781.72704,0.13755
3783.65551,0.13688
3785.58398,0.13802
3787.51245,0.13297
3789.44092,0.12707
3791.36938,0.12962
3793.29785,0.13846
3795.22632,0.14760
3797.15479,0.15435
3799.08326,0.16119
3801.01173,0.16824
3802.94020,0.16357
3804.86866,0.15730
3806.79713,0.15400
3808.72560,0.14360
3810.65407,0.13441
3812.58254,0.13334
3814.51101,0.13983
3816.43948,0.15002
3818.36795,0.15922
3820.29641,0.16843
3822.22488,0.16132
3824.15335,0.14259
3826.08182,0.13228
3828.01029,0.13121
3829.93876,0.13664
3831.86723,0.14465
3833.79569,0.15046
3835.72416,0.15684
3837.65263,0.16583
3839.58110,0.16611
3841.50957,0.15676
3843.43804,0.14889
3845.36651,0.14221
3847.29498,0.13571
3849.22344,0.13454
3851.15191,0.14388
3853.08038,0.16091
3855.00885,0.15537
3856.93732,0.14012
3858.86579,0.13593
3860.79426,0.14034
3862.72272,0.14782
3864.65119,0.14979
3866.57966,0.14580
3868.50813,0.14727
3870.43660,0.15305
3872.36507,0.15003
3874.29354,0.13755
3876.22200,0.12656
3878.15047,0.12965
3880.07894,0.14446
3882.00741,0.15178
3883.93588,0.14593
3885.86435,0.13279
3887.79282,0.12485
3889.72129,0.13130
3891.64975,0.13887
3893.57822,0.13113
3895.50669,0.12057
3897.43516,0.12175
3899.36363,0.13705
3901.29210,0.15384
3903.22057,0.15763
3905.14903,0.14772
3907.07750,0.13269
3909.00597,0.12176
3910.93444,0.11838
3912.86291,0.11867
3914.79138,0.11664
3916.71985,0.11388
3918.64832,0.11445
3920.57678,0.11824
3922.50525,0.12646
3924.43372,0.13348
3926.36219,0.13119
3928.29066,0.12817
3930.21913,0.12980
3932.14760,0.12811
3934.07606,0.12142
3936.00453,0.11617
3937.93300,0.11432
3939.86147,0.11546
3941.78994,0.11895
3943.71841,0.12011
3945.64688,0.11776
3947.57535,0.11834
3949.50381,0.12103
3951.43228,0.11985
3953.36075,0.11631
3955.28922,0.11235
3957.21769,0.10736
3959.14616,0.10468
3961.07463,0.10692
3963.00309,0.10987
3964.93156,0.10925
3966.86003,0.10440
3968.78850,0.09835
3970.71697,0.09756
3972.64544,0.10171
3974.57391,0.10657
3976.50238,0.11296
3978.43084,0.11902
3980.35931,0.11971
3982.28778,0.11509
3984.21625,0.10822
3986.14472,0.10285
3988.07319,0.10398
3990.00166,0.11002
3991.93012,0.11467
3993.85859,0.11689
3995.78706,0.11580
3997.71553,0.11005
3999.64400,0.10430
4001.57247,0.10355
4003.50094,0.10461
4005.42941,0.10317
4007.35787,0.10289
4009.28634,0.10439
4011.21481,0.10324
4013.14328,0.10094
4015.07175,0.10079
4017.00022,0.10270
4018.92869,0.10459
4020.85715,0.10669
4022.78562,0.11037
4024.71409,0.11114
4026.64256,0.10703
4028.57103,0.10192
4030.49950,0.09910
4032.42797,0.10008
4034.35644,0.10141
4036.28490,0.10249
4038.21337,0.10489
4040.14184,0.10433
4042.07031,0.09913
4043.99878,0.09448
4045.92725,0.09512
4047.85572,0.09723
4049.78418,0.09659
4051.71265,0.09722
4053.64112,0.09988
4055.56959,0.09882
4057.49806,0.09499
4059.42653,0.09294
4061.35500,0.09136
4063.28346,0.09045
4065.21193,0.09120
4067.14040,0.09303
4069.06887,0.09752
4070.99734,0.10347
4072.92581,0.10646
4074.85428,0.10504
4076.78275,0.10079
4078.71121,0.09680
4080.63968,0.09585
4082.56815,0.09571
4084.49662,0.09420
4086.42509,0.09213
4088.35356,0.08907
4090.28203,0.08516
4092.21049,0.08168
4094.13896,0.08085
4096.06743,0.08361
4097.99590,0.08774
4099.92437,0.08969
4101.85284,0.09009
4103.78131,0.09457
4105.70978,0.10081
4107.63824,0.10192
4109.56671,0.09803
4111.49518,0.09201
4113.42365,0.08767
4115.35212,0.08785
4117.28059,0.09036
4119.20906,0.09288
4121.13752,0.09439
4123.06599,0.09211
4124.99446,0.08817
4126.92293,0.08808
4128.85140,0.09074
4130.77987,0.09197
4132.70834,0.08886
4134.63681,0.08385
4136.56527,0.08625
4138.49374,0.09382
4140.42221,0.09371
4142.35068,0.08791
4144.27915,0.08553
4146.20762,0.08481
4148.13609,0.08310
4150.06455,0.08236
4151.99302,0.08117
4153.92149,0.07924
4155.84996,0.08067
4157.77843,0.08371
4159.70690,0.08385
4161.63537,0.08093
4163.56384,0.07689
4165.49230,0.07537
4167.42077,0.07698
4169.34924,0.07784
4171.27771,0.07487
4173.20618,0.06919
4175.13465,0.06662
4177.06312,0.07168
4178.99158,0.07781
4180.92005,0.07579
4182.84852,0.07126
4184.77699,0.07193
4186.70546,0.07586
4188.63393,0.08062
4190.56240,0.08445
4192.49087,0.08706
4194.41933,0.08959
4196.34780,0.09011
4198.27627,0.08689
4200.20474,0.08318
4202.13321,0.08253
4204.06168,0.08351
4205.99015,0.08051
4207.91861,0.07285
4209.84708,0.06977
4211.77555,0.07156
4213.70402,0.06944
4215.63249,0.06818
4217.56096,0.07422
4219.48943,0.07959
4221.41789,0.07678
4223.34636,0.06946
4225.27483,0.06535
4227.20330,0.06582
4229.13177,0.06584
4231.06024,0.06445
4232.98871,0.06548
4234.91718,0.06878
4236.84564,0.07073
4238.77411,0.07296
4240.70258,0.07851
4242.63105,0.08186
4244.55952,0.07890
4246.48799,0.07462
4248.41646,0.07392
4250.34492,0.07448
4252.27339,0.07198
4254.20186,0.06659
4256.13033,0.06130
4258.05880,0.06000
4259.98727,0.06161
4261.91574,0.06167
4263.84421,0.06029
4265.77267,0.05852
4267.70114,0.05772
4269.62961,0.06224
4271.55808,0.07025
4273.48655,0.07092
4275.41502,0.06299
4277.34349,0.05698
4279.27195,0.05470
4281.20042,0.05303
4283.12889,0.05378
4285.05736,0.05476
4286.98583,0.05522
4288.91430,0.05836
4290.84277,0.05757
4292.77124,0.04895
4294.69970,0.04214
4296.62817,0.04405
4298.55664,0.05144
4300.48511,0.05698
4302.41358,0.05794
4304.34205,0.05660
4306.27052,0.05576
4308.19898,0.05749
4310.12745,0.06030
4312.05592,0.06100
4313.98439,0.06021
4315.91286,0.06039
4317.84133,0.06117
4319.76980,0.05929
4321.69827,0.05303
4323.62673,0.04781
4325.55520,0.04781
4327.48367,0.04810
4329.41214,0.04736
4331.34061,0.04955
4333.26908,0.05393
4335.19755,0.05681
4337.12601,0.05452
4339.05448,0.04771
4340.98295,0.04192
4342.91142,0.03878
4344.83989,0.03628
4346.76836,0.03716
4348.69683,0.04286
4350.62530,0.04709
4352.55376,0.04798
4354.48223,0.04880
4356.41070,0.04821
4358.33917,0.04539
4360.26764,0.04297
4362.19611,0.04212
4364.12458,0.04259
4366.05304,0.04202
4367.98151,0.03936
4369.90998,0.03766
4371.83845,0.03428
4373.76692,0.02740
4375.69539,0.02798
4377.62386,0.03752
4379.55232,0.04056
4381.48079,0.03484
4383.40926,0.03235
4385.33773,0.03431
4387.26620,0.03381
4389.19467,0.03256
4391.12314,0.03513
4393.05161,0.03989
4394.98007,0.04274
4396.90854,0.04084
4398.83701,0.03644
4400.76548,0.03177
4402.69395,0.02687
4404.62242,0.02735
4406.55089,0.03253
4408.47935,0.03067
4410.40782,0.02278
4412.33629,0.02072
4414.26476,0.02265
4416.19323,0.02451
4418.12170,0.03074
4420.05017,0.03852
4421.97864,0.04118
4423.90710,0.03797
4425.83557,0.03182
4427.76404,0.02684
4429.69251,0.02578
4431.62098,0.02573
4433.54945,0.02380
4435.47792,0.02512
4437.40638,0.02929
4439.33485,0.02773
4441.26332,0.02069
4443.19179,0.01488
4445.12026,0.01297
4447.04873,0.01424
4448.97720,0.01737
4450.90567,0.02361
4452.83413,0.03194
4454.76260,0.03540
4456.69107,0.03369
4458.61954,0.03310
4460.54801,0.03559
4462.47648,0.03799
4464.40495,0.03423
4466.33341,0.02524
4468.26188,0.01740
4470.19035,0.01132
4472.11882,0.01149
4474.04729,0.02016
4475.97576,0.02654
4477.90423,0.02631
4479.83270,0.02370
4481.76116,0.01987
4483.68963,0.01556
4485.61810,0.01289
4487.54657,0.01417
4489.47504,0.02015
4491.40351,0.02585
4493.33198,0.02331
4495.26044,0.01739
4497.18891,0.01760
4499.11738,0.02002
4501.04585,0.01717
4502.97432,0.01186
4504.90279,0.01176
4506.83126,0.01382
4508.75973,0.00976
4510.68819,0.00374
4512.61666,0.00389
4514.54513,0.00635
4516.47360,0.00737
4518.40207,0.00995
4520.33054,0.00945
4522.25901,0.00499
4524.18747,0.00402
4526.11594,0.00682
4528.04441,0.00781
4529.97288,0.00432
4531.90135,0.00354
4533.82982,0.00886
4535.75829,0.01314
4537.68676,0.01381
4539.61522,0.01349
4541.54369,0.01324
4543.47216,0.01174
4545.40063,0.01015
4547.32910,0.01089
4549.25757,0.01311
4551.18604,0.01455
4553.11450,0.01311
4555.04297,0.00927
4556.97144,0.00527
4558.89991,0.00642
4560.82838,0.01531
4562.75685,0.02282
4564.68532,0.01932
4566.61378,0.00945
4568.54225,0.00729
4570.47072,0.01298
4572.39919,0.01361
4574.32766,0.01124
4576.25613,0.01616
4578.18460,0.02283
4580.11307,0.02237
4582.04153,0.01825
4583.97000,0.01520
4585.89847,0.01169
4587.82694,0.00652
4589.75541,0.00112
4591.68388,-0.00312
4593.61235,-0.00198
4595.54081,0.00672
4597.46928,0.01412
4599.39775,0.01320
4601.32622,0.01050
4603.25469,0.01123
4605.18316,0.01088
4607.11163,0.00917
4609.04010,0.00794
4610.96856,0.00420
4612.89703,-0.00006
4614.82550,-0.00370
4616.75397,-0.00677
4618.68244,-0.00765
4620.61091,-0.00945
4622.53938,-0.01019
4624.46784,-0.00911
4626.39631,-0.01075
4628.32478,-0.01006
4630.25325,-0.00292
4632.18172,0.00499
4634.11019,0.00466
4636.03866,-0.00131
4637.96713,-0.00120
4639.89559,0.00481
4641.82406,0.00940
4643.75253,0.00571
4645.68100,-0.00418
4647.60947,-0.00599
4649.53794,0.00111
4651.46641,0.00772
4653.39487,0.01449
4655.32334,0.02249
4657.25181,0.02376
4659.18028,0.01493
4661.10875,0.00613
4663.03722,0.00468
4664.96569,0.00602
4666.89416,0.00305
4668.82262,-0.00134
4670.75109,0.00051
4672.67956,0.00350
4674.60803,0.00437
4676.53650,0.00804
4678.46497,0.00934
4680.39344,0.00372
4682.32190,0.00021
4684.25037,0.00349
4686.17884,0.00327
4688.10731,-0.00131
4690.03578,0.00424
4691.96425,0.01472
4693.89272,0.01131
4695.82119,0.00120
4697.74965,0.00020
4699.67812,0.00179
4701.60659,-0.00050
4703.53506,-0.00214
4705.46353,-0.00507
4707.39200,-0.00767
4709.32047,0.00059
4711.24893,0.01484
4713.17740,0.01906
4715.10587,0.01261
4717.03434,0.00227
4718.96281,-0.00389
4720.89128,0.00145
4722.81975,0.00772
4724.74821,0.00351
4726.67668,-0.00160
4728.60515,0.00280
4730.53362,0.01110
4732.46209,0.01566
4734.39056,0.01699
4736.31903,0.01450
4738.24750,0.00544
4740.17596,-0.00356
4742.10443,-0.00214
4744.03290,0.00353
4745.96137,0.00248
4747.88984,-0.00090
4749.81831,-0.00314
4751.74678,-0.00662
4753.67524,-0.01038
4755.60371,-0.01089
4757.53218,-0.00614
4759.46065,-0.00076
4761.38912,0.00023
4763.31759,-0.00215
4765.24606,-0.00722
4767.17453,-0.01428
4769.10299,-0.01654
4771.03146,-0.01251
4772.95993,-0.00938
4774.88840,-0.00538
4776.81687,0.00062
4778.74534,-0.00020
4780.67381,-0.01032
4782.60227,-0.01690
4784.53074,-0.00868
4786.45921,0.00579
4788.38768,0.01507
4790.31615,0.01778
4792.24462,0.01633
4794.17309,0.01548
4796.10156,0.01944
4798.03002,0.02310
4799.95849,0.01886
4801.88696,0.01036
4803.81543,0.00701
4805.74390,0.01249
4807.67237,0.01633
4809.60084,0.01165
4811.52930,0.00880
4813.45777,0.00949
4815.38624,0.00872
4817.31471,0.00581
4819.24318,-0.00450
4821.17165,-0.01292
4823.10012,-0.00389
4825.02859,0.00494
4826.95705,-0.00007
4828.88552,-0.00167
4830.81399,0.00348
4832.74246,0.01029
4834.67093,0.01628
4836.59940,0.01407
4838.52787,0.00862
4840.45633,0.00524
4842.38480,0.00102
4844.31327,-0.00192
4846.24174,-0.00297
4848.17021,-0.00688
4850.09868,-0.01278
4852.02715,-0.01466
4853.95562,-0.00815
4855.88408,0.00424
4857.81255,0.00990
4859.74102,0.00613
4861.66949,0.00385
4863.59796,0.00745
4865.52643,0.01221
4867.45490,0.00424
4869.38336,-0.01586
4871.31183,-0.01869
4873.24030,-0.00042
4875.16877,0.00781
4877.09724,0.00343
4879.02571,0.00663
4880.95418,0.01729
4882.88265,0.02156
4884.81111,0.01731
4886.73958,0.01184
4888.66805,0.00974
4890.59652,0.01166
4892.52499,0.01605
4894.45346,0.01888
4896.38193,0.01649
4898.31039,0.01106
4900.23886,0.00274
4902.16733,-0.00686
4904.09580,-0.00695
4906.02427,0.00166
4907.95274,0.00821
4909.88121,0.00724
4911.80967,-0.00151
4913.73814,-0.00687
4915.66661,-0.00746
4917.59508,-0.01192
4919.52355,-0.01143
4921.45202,-0.00279
4923.38049,0.00101
4925.30896,0.00089
4927.23742,-0.00072
4929.16589,-0.00530
4931.09436,-0.00671
4933.02283,-0.00832
4934.95130,-0.00852
4936.87977,-0.00041
4938.80824,0.00350
4940.73670,0.00252
4942.66517,0.00611
4944.59364,0.01169
4946.52211,0.01794
4948.45058,0.02320
4950.37905,0.02058
4952.30752,0.00730
4954.23599,-0.00541
4956.16445,-0.00376
4958.09292,0.00583
4960.02139,0.01140
4961.94986,0.01205
4963.87833,0.00871
4965.80680,0.00624
4967.73527,0.01072
4969.66373,0.02004
4971.59220,0.02854
4973.52067,0.02781
4975.44914,0.01890
4977.37761,0.01073
4979.30608,0.00569
4981.23455,0.00895
4983.16302,0.01473
4985.09148,0.00422
4987.01995,-0.01404
4988.94842,-0.01297
4990.87689,0.00421
4992.80536,0.01165
4994.73383,0.00820
4996.66230,0.01381
4998.59076,0.02427
5000.51923,0.02128
5002.44770,0.01304
5004.37617,0.01616
5006.30464,0.02899
5008.23311,0.03906
5010.16158,0.03753
5012.09005,0.02563
5014.01851,0.01095
5015.94698,0.00352
5017.87545,0.00151
5019.80392,-0.00095
5021.73239,0.00430
5023.66086,0.01489
5025.58933,0.01416
5027.51779,0.00553
5029.44626,0.00260
5031.37473,0.00225
5033.30320,0.00417
5035.23167,0.01234
5037.16014,0.02301
5039.08861,0.02666
5041.01708,0.01648
5042.94554,0.00519
5044.87401,-0.00065
5046.80248,-0.00249
5048.73095,0.00654
5050.65942,0.02134
5052.58789,0.02805
5054.51636,0.01935
5056.44482,0.00817
5058.37329,0.01174
5060.30176,0.02170
5062.23023,0.02827
5064.15870,0.03635
5066.08717,0.04461
5068.01564,0.04423
5069.94410,0.03678
5071.87257,0.03042
5073.80104,0.02375
5075.72951,0.01491
5077.65798,0.00689
5079.58645,0.00441
5081.51492,0.00859
5083.44339,0.00582
5085.37185,0.00219
5087.30032,0.01178
5089.22879,0.01412
5091.15726,0.00999
5093.08573,0.01945
5095.01420,0.03013
5096.94267,0.03223
5098.87113,0.03090
5100.79960,0.02976
5102.72807,0.02941
5104.65654,0.02400
5106.58501,0.01867
5108.51348,0.02735
5110.44195,0.04093
5112.37042,0.04323
5114.29888,0.03771
5116.22735,0.03084
5118.15582,0.02594
5120.08429,0.02312
5122.01276,0.02156
5123.94123,0.02555
5125.86970,0.02952
5127.79816,0.02489
5129.72663,0.02051
5131.65510,0.02764
5133.58357,0.04167
5135.51204,0.04546
5137.44051,0.03409
5139.36898,0.02187
5141.29745,0.01336
5143.22591,0.00733
5145.15438,0.00453
5147.08285,-0.00001
5149.01132,0.00010
5150.93979,0.01492
5152.86826,0.03914
5154.79673,0.05086
5156.72519,0.04132
5158.65366,0.03308
5160.58213,0.02941
5162.51060,0.01799
5164.43907,0.00191
5166.36754,-0.01181
5168.29601,-0.01367
5170.22448,-0.00237
5172.15294,0.01788
5174.08141,0.03943
5176.00988,0.04476
5177.93835,0.03567
5179.86682,0.02404
5181.79529,0.01633
5183.72376,0.02252
5185.65222,0.03418
5187.58069,0.03639
5189.50916,0.03153
5191.43763,0.02583
5193.36610,0.02750
5195.29457,0.04060
5197.22304,0.05940
5199.15151,0.06875
5201.07997,0.05580
5203.00844,0.03323
5204.93691,0.02311
5206.86538,0.02277
5208.79385,0.02451
5210.72232,0.03482
5212.65079,0.04117
5214.57925,0.03149
5216.50772,0.01705
5218.43619,0.01091
5220.36466,0.01471
5222.29313,0.02051
5224.22160,0.02629
5226.15007,0.03769
5228.07854,0.04388
5230.00700,0.03631
5231.93547,0.03049
5233.86394,0.03482
5235.79241,0.04164
5237.72088,0.05251
5239.64935,0.06770
5241.57782,0.07111
5243.50628,0.05758
5245.43475,0.04459
5247.36322,0.03692
5249.29169,0.02838
5251.22016,0.03490
5253.14863,0.06007
5255.07710,0.06875
5257.00556,0.04546
5258.93403,0.02809
5260.86250,0.04031
5262.79097,0.06116
5264.71944,0.06815
5266.64791,0.06755
5268.57638,0.06860
5270.50485,0.06517
5272.43331,0.05284
5274.36178,0.04702
5276.29025,0.05578
5278.21872,0.06083
5280.14719,0.05600
5282.07566,0.04821
5284.00413,0.03262
5285.93259,0.01779
5287.86106,0.01905
5289.78953,0.02933
5291.71800,0.03188
5293.64647,0.02869
5295.57494,0.03799
5297.50341,0.05966
5299.43188,0.08054
5301.36034,0.09644
5303.28881,0.10209
5305.21728,0.08764
5307.14575,0.05685
5309.07422,0.03168
5311.00269,0.02496
5312.93116,0.03275
5314.85962,0.04172
5316.78809,0.04383
5318.71656,0.04962
5320.64503,0.05357
5322.57350,0.04345
5324.50197,0.03078
5326.43044,0.02602
5328.35891,0.02612
5330.28737,0.03501
5332.21584,0.05139
5334.14431,0.06387
5336.07278,0.07099
5338.00125,0.05999
5339.92972,0.02200
5341.85819,-0.00881
5343.78665,-0.00323
5345.71512,0.02952
5347.64359,0.05758
5349.57206,0.07666
5351.50053,0.08640
5353.42900,0.08587
5355.35747,0.08468
5357.28594,0.07935
5359.21440,0.05651
5361.14287,0.03632
5363.07134,0.04631
5364.99981,0.05990
5366.92828,0.05664
5368.85675,0.05590
5370.78522,0.06260
5372.71368,0.06749
5374.64215,0.07467
5376.57062,0.09042
5378.49909,0.09004
5380.42756,0.07716
5382.35603,0.07736
5384.28450,0.07424
5386.21297,0.05506
5388.14143,0.04362
5390.06990,0.04164
5391.99837,0.03891
5393.92684,0.03352
5395.85531,0.02750
5397.78378,0.01786
5399.71225,0.00250
5401.64071,0.00024
5403.56918,0.01776
5405.49765,0.03736
5407.42612,0.05415
5409.35459,0.06419
5411.28306,0.06483
5413.21153,0.06644
5415.13999,0.07426
5417.06846,0.08862
5418.99693,0.09605
5420.92540,0.08400
5422.85387,0.07037
5424.78234,0.07609
5426.71081,0.09637
5428.63928,0.11353
5430.56774,0.11621
5432.49621,0.10754
5434.42468,0.09428
5436.35315,0.08425
5438.28162,0.08325
5440.21009,0.08133
5442.13856,0.07403
5444.06702,0.07969
5445.99549,0.09473
5447.92396,0.10183
5449.85243,0.09908
5451.78090,0.08497
5453.70937,0.07735
5455.63784,0.09856
5457.56631,0.12420
5459.49477,0.11660
5461.42324,0.09964
5463.35171,0.10097
5465.28018,0.09768
5467.20865,0.08523
5469.13712,0.08226
5471.06559,0.07430
5472.99405,0.05354
5474.92252,0.04208
5476.85099,0.05366
5478.77946,0.06826
5480.70793,0.06844
5482.63640,0.06610
5484.56487,0.06931
5486.49334,0.07556
5488.42180,0.07746
5490.35027,0.06222
5492.27874,0.05500
5494.20721,0.07813
5496.13568,0.10127
5498.06415,0.10903
5499.99262,0.10698
5501.92108,0.09471
5503.84955,0.07789
5505.77802,0.07006
5507.70649,0.07025
5509.63496,0.06873
5511.56343,0.06327
5513.49190,0.04851
5515.42037,0.02890
5517.34883,0.03017
5519.27730,0.05566
5521.20577,0.07412
5523.13424,0.06825
5525.06271,0.05289
5526.99118,0.05152
5528.91965,0.06406
5530.84811,0.07487
5532.77658,0.08005
5534.70505,0.08487
5536.63352,0.09031
5538.56199,0.09046
5540.49046,0.08052
5542.41893,0.05904
5544.34740,0.03920
5546.27586,0.03681
5548.20433,0.04047
5550.13280,0.04498
5552.06127,0.06229
5553.98974,0.08032
5555.91821,0.07473
5557.84668,0.04814
5559.77514,0.03272
5561.70361,0.04890
5563.63208,0.07046
5565.56055,0.07155
5567.48902,0.07104
5569.41749,0.07543
5571.34596,0.06907
5573.27443,0.05738
5575.20289,0.05514
5577.13136,0.06049
5579.05983,0.07031
5580.98830,0.08622
5582.91677,0.09578
5584.84524,0.09570
5586.77371,0.09284
5588.70217,0.07937
5590.63064,0.05388
5592.55911,0.03507
5594.48758,0.04015
5596.41605,0.06986
5598.34452,0.10850
5600.27299,0.13755
5602.20145,0.14974
5604.12992,0.13966
5606.05839,0.11519
5607.98686,0.10343
5609.91533,0.11415
5611.84380,0.11927
5613.77227,0.09780
5615.70074,0.08323
5617.62920,0.09147
5619.55767,0.09717
5621.48614,0.08714
5623.41461,0.06571
5625.34308,0.04795
5627.27155,0.04627
5629.20002,0.06482
5631.12848,0.08350
5633.05695,0.07644
5634.98542,0.05053
5636.91389,0.02665
5638.84236,0.02500
5640.77083,0.04435
5642.69930,0.05334
5644.62777,0.04939
5646.55623,0.05535
5648.48470,0.05387
5650.41317,0.03938
5652.34164,0.06015
5654.27011,0.10453
5656.19858,0.11334
5658.12705,0.09816
5660.05551,0.09368
5661.98398,0.09366
5663.91245,0.09258
5665.84092,0.09809
5667.76939,0.10131
5669.69786,0.08810
5671.62633,0.06865
5673.55480,0.06020
5675.48326,0.06800
5677.41173,0.07961
5679.34020,0.07460
5681.26867,0.06927
5683.19714,0.08813
5685.12561,0.11972
5687.05408,0.12974
5688.98254,0.10757
5690.91101,0.08275
5692.83948,0.06046
5694.76795,0.03899
5696.69642,0.04566
5698.62489,0.06738
5700.55336,0.06039
5702.48183,0.04198
5704.41029,0.04379
5706.33876,0.04986
5708.26723,0.06273
5710.19570,0.09990
5712.12417,0.13128
5714.05264,0.13945
5715.98111,0.13920
5717.90957,0.11171
5719.83804,0.07287
5721.76651,0.07792
5723.69498,0.10832
5725.62345,0.11565
5727.55192,0.09797
5729.48039,0.07619
5731.40886,0.06506
5733.33732,0.06397
5735.26579,0.06926
5737.19426,0.07392
5739.12273,0.06444
5741.05120,0.05295
5742.97967,0.06647
5744.90814,0.10929
5746.83660,0.13830
5748.76507,0.10911
5750.69354,0.06446
5752.62201,0.04881
5754.55048,0.04111
5756.47895,0.03973
5758.40742,0.06003
5760.33588,0.10667
5762.26435,0.15409
5764.19282,0.15778
5766.12129,0.10451
5768.04976,0.04131
5769.97823,0.03012
5771.90670,0.04932
5773.83517,0.05573
5775.76363,0.07315
5777.69210,0.08372
5779.62057,0.04120
5781.54904,-0.01724
5783.47751,-0.03365
5785.40598,-0.00322
5787.33445,0.04536
5789.26291,0.08515
5791.19138,0.10081
5793.11985,0.07994
5795.04832,0.04638
5796.97679,0.05835
5798.90526,0.10101
5800.83373,0.09448
5802.76220,0.04317
5804.69066,0.02330
5806.61913,0.03944
5808.54760,0.04289
5810.47607,0.03000
5812.40454,0.02700
5814.33301,0.04715
5816.26148,0.06212
5818.18994,0.04690
5820.11841,0.04440
5822.04688,0.08122
5823.97535,0.10402
5825.90382,0.08553
5827.83229,0.06664
5829.76076,0.08681
5831.68923,0.11780
5833.61769,0.10988
5835.54616,0.08489
5837.47463,0.08881
5839.40310,0.10769
5841.33157,0.11141
5843.26004,0.09153
5845.18851,0.05995
5847.11697,0.03853
5849.04544,0.03275
5850.97391,0.03451
5852.90238,0.04179
5854.83085,0.05373
5856.75932,0.05563
5858.68779,0.04587
5860.61626,0.05877
5862.54472,0.10206
5864.47319,0.12216
5866.40166,0.10184
5868.33013,0.07621
5870.25860,0.05664
5872.18707,0.05556
5874.11554,0.06735
5876.04400,0.07086
5877.97247,0.08820
5879.90094,0.11162
5881.82941,0.11009
5883.75788,0.10050
5885.68635,0.09330
5887.61482,0.08003
5889.54329,0.05410
5891.47175,0.03276
5893.40022,0.04018
5895.32869,0.05919
5897.25716,0.06743
5899.18563,0.07254
5901.11410,0.08571
5903.04257,0.08391
5904.97103,0.05158
5906.89950,0.02900
5908.82797,0.03883
5910.75644,0.06066
5912.68491,0.08185
5914.61338,0.09908
5916.54185,0.11162
5918.47032,0.11956
5920.39878,0.11084
5922.32725,0.08752
5924.25572,0.07728
5926.18419,0.08556
5928.11266,0.08392
5930.04113,0.05622
5931.96960,0.02622
5933.89806,0.03582
5935.82653,0.08868
5937.75500,0.11805
5939.68347,0.08020
5941.61194,0.03507
5943.54041,0.04843
5945.46888,0.08352
5947.39734,0.10807
5949.32581,0.15118
5951.25428,0.18618
5953.18275,0.15210
5955.11122,0.08339
5957.03969,0.04294
5958.96816,0.02800
5960.89663,0.01377
5962.82509,0.02332
5964.75356,0.06637
5966.68203,0.09237
5968.61050,0.09320
5970.53897,0.09432
5972.46744,0.08238
5974.39591,0.07892
5976.32437,0.09677
5978.25284,0.09964
5980.18131,0.08630
5982.10978,0.08352
5984.03825,0.09811
5985.96672,0.10604
5987.89519,0.08819
5989.82366,0.06090
5991.75212,0.06302
5993.68059,0.10813
5995.60906,0.14557
5997.53753,0.12083
5999.46600,0.06601
6001.39447,0.04800
6003.32294,0.06956
6005.25140,0.08656
6007.17987,0.09029
6009.10834,0.08262
6011.03681,0.06454
6012.96528,0.05460
6014.89375,0.04967
6016.82222,0.04706
6018.75069,0.05757
6020.67915,0.06437
6022.60762,0.06019
6024.53609,0.04892
6026.46456,0.03248
6028.39303,0.02809
6030.32150,0.03829
6032.24997,0.07200
6034.17843,0.11873
6036.10690,0.11665
6038.03537,0.07775
6039.96384,0.06547
6041.89231,0.07011
6043.82078,0.06625
6045.74925,0.05582
6047.67772,0.04224
6049.60618,0.03354
6051.53465,0.03728
6053.46312,0.06207
6055.39159,0.10360
6057.32006,0.12643
6059.24853,0.10622
6061.17700,0.05789
6063.10546,0.03087
6065.03393,0.04438
6066.96240,0.06485
6068.89087,0.08642
6070.81934,0.10668
6072.74781,0.11624
6074.67628,0.14586
6076.60475,0.16842
6078.53321,0.12499
6080.46168,0.07196
6082.39015,0.06035
6084.31862,0.06612
6086.24709,0.07973
6088.17556,0.08504
6090.10403,0.06272
6092.03249,0.04494
6093.96096,0.06162
6095.88943,0.06759
6097.81790,0.04916
6099.74637,0.05992
6101.67484,0.08053
6103.60331,0.07525
6105.53177,0.08514
6107.46024,0.12015
6109.38871,0.13873
6111.31718,0.11913
6113.24565,0.07425
6115.17412,0.04399
6117.10259,0.05214
6119.03106,0.08172
6120.95952,0.08899
6122.88799,0.06195
6124.81646,0.03514
6126.74493,0.02747
6128.67340,0.03486
6130.60187,0.05689
6132.53034,0.08205
6134.45880,0.09252
6136.38727,0.09493
6138.31574,0.12425
6140.24421,0.17182
6142.17268,0.16560
6144.10115,0.10155
6146.02962,0.06220
6147.95809,0.06919
6149.88655,0.08176
6151.81502,0.09398
6153.74349,0.12196
6155.67196,0.14164
6157.60043,0.13883
6159.52890,0.12478
6161.45737,0.11938
6163.38583,0.12776
6165.31430,0.10930
6167.24277,0.07271
6169.17124,0.07933
6171.09971,0.11492
6173.02818,0.10091
6174.95665,0.04938
6176.88512,0.04982
6178.81358,0.08215
6180.74205,0.06397
6182.67052,0.03853
6184.59899,0.07084
6186.52746,0.11529
6188.45593,0.11137
6190.38440,0.09263
6192.31286,0.09702
6194.24133,0.09310
6196.16980,0.08029
6198.09827,0.09135
6200.02674,0.11269
6201.95521,0.13118
6203.88368,0.14002
6205.81215,0.11033
6207.74061,0.05606
6209.66908,0.02713
6211.59755,0.05450
6213.52602,0.10076
6215.45449,0.10971
6217.38296,0.08968
6219.31143,0.08667
6221.23989,0.10834
6223.16836,0.12481
6225.09683,0.11774
6227.02530,0.12938
6228.95377,0.17288
6230.88224,0.17039
6232.81071,0.11632
6234.73918,0.09130
6236.66764,0.07523
6238.59611,0.05130
6240.52458,0.06398
6242.45305,0.10692
6244.38152,0.12548
6246.30999,0.10282
6248.23846,0.10281
6250.16692,0.12501
6252.09539,0.08839
6254.02386,0.02535
6255.95233,0.00074
6257.88080,0.02079
6259.80927,0.06740
6261.73774,0.11553
6263.66621,0.13159
6265.59467,0.08926
6267.52314,0.03179
6269.45161,0.02085
6271.38008,0.04952
6273.30855,0.05078
6275.23702,-0.00971
6277.16549,-0.04574
6279.09395,-0.00720
6281.02242,0.05814
6282.95089,0.08919
6284.87936,0.06900
6286.80783,0.05326
6288.73630,0.09182
6290.66477,0.15492
6292.59323,0.16633
6294.52170,0.14320
6296.45017,0.13240
6298.37864,0.10702
6300.30711,0.07755
6302.23558,0.09061
6304.16405,0.11426
6306.09252,0.10665
6308.02098,0.08119
6309.94945,0.05585
6311.87792,0.06323
6313.80639,0.12023
6315.73486,0.17137
6317.66333,0.16764
6319.59180,0.11541
6321.52026,0.06461
6323.44873,0.05675
6325.37720,0.08436
6327.30567,0.09622
6329.23414,0.03940
6331.16261,0.00284
6333.09108,0.06468
6335.01955,0.12646
6336.94801,0.14143
6338.87648,0.12667
6340.80495,0.07739
6342.73342,0.03954
6344.66189,0.02757
6346.59036,0.01945
6348.51883,0.05464
6350.44729,0.10495
6352.37576,0.12742
6354.30423,0.16129
6356.23270,0.17816
6358.16117,0.16237
6360.08964,0.12846
6362.01811,0.07134
6363.94658,0.04147
6365.87504,0.04756
6367.80351,0.01660
6369.73198,-0.01971
6371.66045,0.02398
6373.58892,0.10432
6375.51739,0.14190
6377.44586,0.13653
6379.37432,0.09443
6381.30279,0.02554
6383.23126,-0.02451
6385.15973,-0.01137
6387.08820,0.00429
6389.01667,-0.01540
6390.94514,-0.00113
6392.87361,0.05227
6394.80207,0.07058
6396.73054,0.07757
6398.65901,0.09257
6400.58748,0.08599
6402.51595,0.08168
6404.44442,0.09831
6406.37289,0.11630
6408.30135,0.11504
6410.22982,0.08609
6412.15829,0.07665
6414.08676,0.10029
6416.01523,0.08512
6417.94370,0.00595
6419.87217,-0.05238
6421.80064,-0.04423
6423.72910,-0.02465
6425.65757,-0.01953
6427.58604,0.00051
6429.51451,0.03307
6431.44298,0.03075
6433.37145,0.00488
6435.29992,0.02432
6437.22838,0.09131
6439.15685,0.13612
6441.08532,0.13601
6443.01379,0.12300
6444.94226,0.10705
6446.87073,0.07172
6448.79920,0.03853
6450.72766,0.04408
6452.65613,0.04485
6454.58460,0.01826
6456.51307,0.01525
6458.44154,0.02927
6460.37001,0.04717
6462.29848,0.08286
6464.22695,0.07896
6466.15541,0.03665
6468.08388,0.05066
6470.01235,0.11235
6471.94082,0.14016
6473.86929,0.11375
6475.79776,0.04613
6477.72623,0.00391
6479.65469,0.02827
6481.58316,0.06014
6483.51163,0.07129
6485.44010,0.07804
6487.36857,0.07983
6489.29704,0.08709
6491.22551,0.08550
6493.15398,0.05534
6495.08244,0.05224
6497.01091,0.07307
6498.93938,0.05018
6500.86785,0.01013
6502.79632,0.00629
6504.72479,-0.00338
6506.65326,-0.02834
6508.58172,-0.02102
6510.51019,0.02969
6512.43866,0.10450
6514.36713,0.15286
6516.29560,0.15456
6518.22407,0.14802
6520.15254,0.14048
6522.08101,0.12942
6524.00947,0.11337
6525.93794,0.06861
6527.86641,0.01212
6529.79488,-0.01662
6531.72335,0.00313
6533.65182,0.05079
6535.58029,0.06105
6537.50875,0.02927
6539.43722,0.02444
6541.36569,0.04286
6543.29416,0.02306
6545.22263,-0.02639
6547.15110,-0.04201
6549.07957,-0.02342
6551.00804,-0.02555
6552.93650,-0.00778
6554.86497,0.04443
6556.79344,0.07591
6558.72191,0.09356
6560.65038,0.08496
6562.57885,0.08199
6564.50732,0.09913
6566.43578,0.06245
6568.36425,-0.00362
6570.29272,-0.02572
6572.22119,0.00017
6574.14966,0.03890
6576.07813,0.06642
6578.00660,0.07333
6579.93507,0.06999
6581.86353,0.06980
6583.79200,0.06854
6585.72047,0.05573
6587.64894,0.02294
6589.57741,-0.01593
6591.50588,-0.02945
6593.43435,-0.01499
6595.36281,-0.02620
6597.29128,-0.07164
6599.21975,-0.08121
6601.14822,-0.01569
6603.07669,0.04350
6605.00516,0.04591
6606.93363,0.07109
6608.86210,0.15304
6610.79056,0.21624
6612.71903,0.17594
6614.64750,0.05828
6616.57597,-0.03130
6618.50444,-0.04902
6620.43291,-0.02328
6622.36138,0.01875
6624.28984,0.06021
6626.21831,0.08384
6628.14678,0.07459
6630.07525,0.02257
6632.00372,-0.04263
6633.93219,-0.06775
6635.86066,-0.02473
6637.78912,0.03698
6639.71759,0.04828
6641.64606,0.04134
6643.57453,0.03831
6645.50300,-0.00055
6647.43147,-0.03266
6649.35994,-0.00729
6651.28841,0.03993
6653.21687,0.09098
6655.14534,0.10797
6657.07381,0.09541
6659.00228,0.14782
6660.93075,0.21791
6662.85922,0.22727
6664.78769,0.20339
6666.71615,0.17407
6668.64462,0.16614
6670.57309,0.17210
6672.50156,0.14950
6674.43003,0.11212
6676.35850,0.07790
6678.28697,0.04850
6680.21544,0.07158
6682.14390,0.12427
6684.07237,0.11640
6686.00084,0.05038
6687.92931,-0.00879
6689.85778,-0.02140
6691.78625,0.01722
6693.71472,0.07005
6695.64318,0.06813
6697.57165,0.01784
6699.50012,0.02822
6701.42859,0.08715
6703.35706,0.12270
6705.28553,0.15254
6707.21400,0.17957
6709.14247,0.16552
6711.07093,0.12061
6712.99940,0.08375
6714.92787,0.07226
6716.85634,0.07498
6718.78481,0.05349
6720.71328,0.00850
6722.64175,-0.00586
6724.57021,0.01644
6726.49868,0.03930
6728.42715,0.05467
6730.35562,0.08407
6732.28409,0.07581
6734.21256,-0.03173
6736.14103,-0.11355
6738.06950,-0.07683
6739.99796,-0.01862
6741.92643,0.02220
6743.85490,0.06566
6745.78337,0.08720
6747.71184,0.10674
6749.64031,0.14624
6751.56878,0.12890
6753.49724,0.02336
6755.42571,-0.04294
6757.35418,0.01941
6759.28265,0.13585
6761.21112,0.16827
6763.13959,0.13125
6765.06806,0.14845
6766.99653,0.19237
6768.92499,0.17024
6770.85346,0.12447
6772.78193,0.11705
6774.71040,0.10355
6776.63887,0.06519
6778.56734,0.03245
6780.49581,0.01663
6782.42427,0.04480
6784.35274,0.06788
6786.28121,0.02603
6788.20968,-0.00857
6790.13815,0.03963
6792.06662,0.12674
6793.99509,0.15824
6795.92355,0.12863
6797.85202,0.07019
6799.78049,-0.01155
6801.70896,-0.09532
6803.63743,-0.09428
6805.56590,0.00141
6807.49437,0.09790
6809.42284,0.17815
6811.35130,0.22311
6813.27977,0.19995
6815.20824,0.15369
6817.13671,0.10246
6819.06518,0.04103
6820.99365,-0.02022
6822.92212,-0.05205
6824.85058,0.01366
6826.77905,0.11809
6828.70752,0.12826
6830.63599,0.05700
6832.56446,-0.00689
6834.49293,-0.01133
6836.42140,0.04647
6838.34987,0.06254
6840.27833,0.05035
6842.20680,0.05916
6844.13527,0.03540
6846.06374,-0.02752
6847.99221,-0.05402
6849.92068,-0.04194
6851.84915,-0.05519
6853.77761,-0.04657
6855.70608,0.00864
6857.63455,0.09219
6859.56302,0.18433
6861.49149,0.22785
6863.41996,0.16961
6865.34843,0.04394
6867.27690,-0.02729
6869.20536,0.02342
6871.13383,0.13127
6873.06230,0.17504
6874.99077,0.09447
6876.91924,0.04804
6878.84771,0.13467
6880.77618,0.17813
6882.70464,0.05284
6884.63311,-0.07089
6886.56158,-0.08639
6888.49005,-0.06969
6890.41852,-0.04873
6892.34699,0.00273
6894.27546,0.04702
6896.20393,0.09030
6898.13239,0.10036
6900.06086,0.02765
6901.98933,-0.03426
6903.91780,-0.04976
6905.84627,-0.08201
6907.77474,-0.10452
6909.70321,-0.07351
6911.63167,-0.01871
6913.56014,0.01549
6915.48861,-0.00480
6917.41708,-0.03883
6919.34555,-0.03402
6921.27402,-0.04762
6923.20249,-0.07988
6925.13096,-0.05069
6927.05942,-0.02638
6928.98789,-0.07042
6930.91636,-0.04307
6932.84483,0.11096
6934.77330,0.17045
6936.70177,0.07963
6938.63024,-0.02098
6940.55870,-0.05096
6942.48717,-0.03668
6944.41564,0.02230
6946.34411,0.06391
6948.27258,0.01973
6950.20105,-0.03435
6952.12952,-0.06578
6954.05799,-0.10808
6955.98645,-0.06834
6957.91492,0.09325
6959.84339,0.20048
6961.77186,0.15318
6963.70033,0.06905
6965.62880,0.05039
6967.55727,0.06903
6969.48573,0.07410
6971.41420,0.04690
6973.34267,0.02977
6975.27114,0.08867
6977.19961,0.13267
6979.12808,0.07433
6981.05655,0.03270
6982.98501,0.09376
6984.91348,0.12439
6986.84195,0.04829
6988.77042,0.00720
6990.69889,0.08941
6992.62736,0.18313
6994.55583,0.17512
6996.48430,0.07672
6998.41276,0.01193
7000.34123,0.05361
7002.26970,0.09574
7004.19817,0.06717
7006.12664,0.00851
7008.05511,0.02136
7009.98358,0.10803
7011.91204,0.12109
7013.84051,0.03949
7015.76898,0.00110
7017.69745,-0.02103
7019.62592,-0.07093
7021.55439,-0.04243
7023.48286,0.07737
7025.41133,0.13670
7027.33979,0.02798
7029.26826,-0.13986
7031.19673,-0.16549
7033.12520,-0.09691
7035.05367,0.01201
7036.98214,0.09876
7038.91061,0.09303
7040.83907,0.04620
7042.76754,0.05148
7044.69601,0.16362
7046.62448,0.25848
7048.55295,0.23256
7050.48142,0.16601
7052.40989,0.13633
7054.33836,0.16412
7056.26682,0.15352
7058.19529,0.04455
7060.12376,-0.02202
7062.05223,-0.01470
7063.98070,-0.01090
7065.90917,-0.00599
7067.83764,0.07300
7069.76610,0.21442
7071.69457,0.26843
7073.62304,0.17448
7075.55151,0.06620
7077.47998,0.04483
7079.40845,0.09679
7081.33692,0.14517
7083.26539,0.15077
7085.19385,0.13522
7087.12232,0.09408
7089.05079,0.08670
7090.97926,0.12385
7092.90773,0.09055
7094.83620,0.02902
7096.76467,0.05716
7098.69313,0.12331
7100.62160,0.10606
7102.55007,0.02335
7104.47854,-0.01359
7106.40701,0.03641
7108.33548,0.09363
7110.26395,0.11908
7112.19242,0.09912
7114.12088,0.05649
7116.04935,0.04880
7117.97782,0.06407
7119.90629,0.08040
7121.83476,0.07065
7123.76323,0.01888
7125.69170,-0.02439
7127.62016,-0.01114
7129.54863,0.05948
7131.47710,0.09576
7133.40557,0.05038
7135.33404,0.03276
7137.26251,0.07831
7139.19098,0.10447
7141.11944,0.07052
7143.04791,-0.01060
7144.97638,-0.13388
7146.90485,-0.19382
7148.83332,-0.13973
7150.76179,-0.08912
7152.69026,-0.05795
7154.61873,0.02936
7156.54719,0.12666
7158.47566,0.13008
7160.40413,0.06648
7162.33260,0.07537
7164.26107,0.15454
7166.18954,0.13850
7168.11801,0.00461
7170.04647,-0.07639
7171.97494,0.01293
7173.90341,0.15880
7175.83188,0.19480
7177.76035,0.14228
7179.68882,0.16312
7181.61729,0.24872
7183.54576,0.25183
7185.47422,0.14523
7187.40269,0.00262
7189.33116,-0.12779
7191.25963,-0.09748
7193.18810,0.07862
7195.11657,0.12479
7197.04504,0.06959
7198.97350,0.08879
7200.90197,0.12631
7202.83044,0.07771
7204.75891,-0.06216
7206.68738,-0.15706
7208.61585,-0.13326
7210.54432,-0.03209
7212.47279,0.04681
7214.40125,0.03894
7216.32972,-0.00043
7218.25819,-0.07217
7220.18666,-0.14632
7222.11513,-0.14261
7224.04360,-0.07416
7225.97207,0.03629
7227.90053,0.11026
7229.82900,0.12988
7231.75747,0.12048
7233.68594,0.07343
7235.61441,0.06358
7237.54288,0.10833
7239.47135,0.13913
7241.39982,0.17091
7243.32828,0.21734
7245.25675,0.19656
7247.18522,0.07233
7249.11369,-0.09260
7251.04216,-0.19479
7252.97063,-0.12008
7254.89910,0.11910
7256.82756,0.21282
7258.75603,0.14140
7260.68450,0.06724
7262.61297,0.02245
7264.54144,0.09643
7266.46991,0.25826
7268.39838,0.24572
7270.32685,0.12447
7272.25531,0.07512
7274.18378,0.01592
7276.11225,-0.11626
7278.04072,-0.23204
7279.96919,-0.18985
7281.89766,-0.01494
7283.82613,0.09680
7285.75459,0.08696
7287.68306,-0.02992
7289.61153,-0.08995
7291.54000,0.01875
7293.46847,0.14324
7295.39694,0.20792
7297.32541,0.25385
7299.25387,0.28935
7301.18234,0.26639
7303.11081,0.13204
7305.03928,0.00262
7306.96775,0.07127
7308.89622,0.26194
7310.82469,0.26392
7312.75316,0.14044
7314.68162,0.04214
7316.61009,-0.08120
7318.53856,-0.17804
7320.46703,-0.11576
7322.39550,0.03055
7324.32397,0.09833
7326.25244,0.12785
7328.18090,0.26623
7330.10937,0.41351
7332.03784,0.35860
7333.96631,0.23170
7335.89478,0.14512
7337.82325,0.03988
7339.75172,-0.07399
7341.68019,0.02549
7343.60865,0.27969
7345.53712,0.41926
7347.46559,0.24367
7349.39406,-0.06061
7351.32253,-0.12476
7353.25100,-0.02923
7355.17947,-0.07034
7357.10793,-0.11064
7359.03640,0.06143
7360.96487,0.10593
7362.89334,-0.01490
7364.82181,-0.02689
7366.75028,0.03598
7368.67875,0.10116
7370.60722,0.16819
7372.53568,0.23707
7374.46415,0.30533
7376.39262,0.30079
7378.32109,0.24838
7380.24956,0.19963
7382.17803,0.14024
7384.10650,0.09399
7386.03496,0.13049
7387.96343,0.18258
7389.89190,0.10393
7391.82037,-0.03701
7393.74884,-0.12933
7395.67731,-0.16280
7397.60578,-0.14227
7399.53425,-0.05289
7401.46271,0.03858
7403.39118,0.05749
7405.31965,0.01542
7407.24812,0.00919
7409.17659,0.13113
7411.10506,0.25827
7413.03353,0.25586
7414.96199,0.19149
7416.89046,0.03419
7418.81893,-0.22316
7420.74740,-0.25880
7422.67587,-0.09738
7424.60434,-0.02032
7426.53281,-0.02622
7428.46128,-0.00303
7430.38974,0.02491
7432.31821,-0.00669
7434.24668,0.01365
7436.17515,0.08034
7438.10362,0.05982
7440.03209,0.04704
7441.96056,0.10018
7443.88902,0.05517
7445.81749,-0.03063
7447.74596,-0.00737
7449.67443,0.09066
7451.60290,0.13849
7453.53137,0.14574
7455.45984,0.18792
7457.38831,0.16670
7459.31677,0.05740
7461.24524,0.07833
7463.17371,0.20234
7465.10218,0.21483
7467.03065,0.17578
7468.95912,0.22439
7470.88759,0.30797
7472.81605,0.27462
7474.74452,0.13623
7476.67299,0.04110
7478.60146,0.01771
7480.52993,0.00450
7482.45840,0.05673
7484.38687,0.14857
7486.31533,0.13340
7488.24380,0.00308
7490.17227,-0.07386
7492.10074,-0.01923
7494.02921,0.04304
7495.95768,0.01774
7497.88615,-0.06492
