399.19301,0.61449
401.12148,0.54499
403.04995,0.24703
404.97842,0.11271
406.90689,0.06578
408.83536,0.05381
410.76382,0.07758
412.69229,0.11413
414.62076,0.13932
416.54923,0.14168
418.47770,0.17886
420.40617,0.19957
422.33464,0.10374
424.26311,0.01714
426.19157,0.00940
428.12004,0.02203
430.04851,0.02957
431.97698,0.02215
433.90545,0.00202
435.83392,0.00386
437.76239,0.01479
439.69085,0.04058
441.61932,0.13134
443.54779,0.21813
445.47626,0.20353
447.40473,0.17506
449.33320,0.17226
451.26167,0.13173
453.19013,0.07199
455.11860,0.07500
457.04707,0.14376
458.97554,0.17671
460.90401,0.14332
462.83248,0.10113
464.76095,0.05985
466.68942,0.02689
468.61788,0.02956
470.54635,0.04368
472.47482,0.03129
474.40329,0.03139
476.33176,0.07815
478.26023,0.12449
480.18870,0.14958
482.11716,0.13636
484.04563,0.09672
485.97410,0.07358
487.90257,0.07695
489.83104,0.09727
491.75951,0.13575
493.68798,0.16124
495.61645,0.14814
497.54491,0.13256
499.47338,0.11928
501.40185,0.08057
503.33032,0.05876
505.25879,0.07454
507.18726,0.06588
509.11573,0.02640
511.04419,0.01831
512.97266,0.03791
514.90113,0.05154
516.82960,0.07261
518.75807,0.09236
520.68654,0.08160
522.61501,0.06920
524.54348,0.08822
526.47194,0.12902
528.40041,0.14555
530.32888,0.11356
532.25735,0.07748
534.18582,0.08828
536.11429,0.13102
538.04276,0.16159
539.97122,0.15782
541.89969,0.11834
543.82816,0.07225
545.75663,0.06696
547.68510,0.10144
549.61357,0.11261
551.54204,-0.00039
553.47051,-0.16311
555.39897,-0.15002
557.32744,-0.00483
559.25591,0.06830
561.18438,0.08353
563.11285,0.10482
565.04132,0.11046
566.96979,0.08948
568.89825,0.07031
570.82672,0.06405
572.75519,0.05535
574.68366,0.04575
576.61213,0.05553
578.54060,0.08180
580.46907,0.09818
582.39754,0.10248
584.32600,0.11030
586.25447,0.11781
588.18294,0.11366
590.11141,0.11195
592.03988,0.12411
593.96835,0.12305
595.89682,0.10097
597.82528,0.08451
599.75375,0.08853
601.68222,0.10387
603.61069,0.11020
605.53916,0.10199
607.46763,0.09579
609.39610,0.10453
611.32456,0.11759
613.25303,0.11391
615.18150,0.09637
617.10997,0.08965
619.03844,0.09329
620.96691,0.09223
622.89538,0.09306
624.82385,0.10148
626.75231,0.11286
628.68078,0.12175
630.60925,0.12325
632.53772,0.11920
634.46619,0.11668
636.39466,0.11870
638.32313,0.12083
640.25159,0.11776
642.18006,0.11358
644.10853,0.11778
646.03700,0.12785
647.96547,0.13443
649.89394,0.13416
651.82241,0.12722
653.75088,0.12820
655.67934,0.14436
657.60781,0.14436
659.53628,0.11983
661.46475,0.10631
663.39322,0.11239
665.32169,0.11792
667.25016,0.11300
669.17862,0.11068
671.10709,0.11687
673.03556,0.11987
674.96403,0.11939
676.89250,0.11789
678.82097,0.11895
680.74944,0.11842
682.67791,0.11842
684.60637,0.12978
686.53484,0.14905
688.46331,0.16004
690.39178,0.15145
692.32025,0.12897
694.24872,0.11075
696.17719,0.10756
698.10565,0.11515
700.03412,0.12562
701.96259,0.12970
703.89106,0.12422
705.81953,0.11924
707.74800,0.11909
709.67647,0.11944
711.60494,0.11911
713.53340,0.12011
715.46187,0.12328
717.39034,0.12697
719.31881,0.12553
721.24728,0.11717
723.17575,0.11161
725.10422,0.11280
727.03268,0.11968
728.96115,0.13280
730.88962,0.14535
732.81809,0.14840
734.74656,0.14187
736.67503,0.13129
738.60350,0.11768
740.53197,0.10880
742.46043,0.11681
744.38890,0.13349
746.31737,0.14231
748.24584,0.14019
750.17431,0.13203
752.10278,0.12317
754.03125,0.11574
755.95971,0.11199
757.88818,0.11340
759.81665,0.11648
761.74512,0.11879
763.67359,0.12054
765.60206,0.12645
767.53053,0.13308
769.45900,0.13009
771.38746,0.12304
773.31593,0.12078
775.24440,0.12366
777.17287,0.12824
779.10134,0.13055
781.02981,0.13171
782.95828,0.13213
784.88674,0.12954
786.81521,0.12435
788.74368,0.12257
790.67215,0.12536
792.60062,0.12663
794.52909,0.12636
796.45756,0.12712
798.38602,0.13012
800.31449,0.13353
802.24296,0.13102
804.17143,0.12749
806.09990,0.12838
808.02837,0.12204
809.95684,0.10847
811.88531,0.10365
813.81377,0.10981
815.74224,0.12224
817.67071,0.13356
819.59918,0.13261
821.52765,0.12368
823.45612,0.11781
825.38459,0.11724
827.31305,0.12053
829.24152,0.12522
831.16999,0.12938
833.09846,0.13486
835.02693,0.14102
836.95540,0.13922
838.88387,0.13095
840.81234,0.12691
842.74080,0.12435
844.66927,0.12124
846.59774,0.12457
848.52621,0.13070
850.45468,0.13346
852.38315,0.13451
854.31162,0.13079
856.24008,0.12405
858.16855,0.12575
860.09702,0.13180
862.02549,0.13307
863.95396,0.13440
865.88243,0.13676
867.81090,0.13748
869.73937,0.13795
871.66783,0.13781
873.59630,0.14002
875.52477,0.14520
877.45324,0.14718
879.38171,0.14610
881.31018,0.14569
883.23865,0.14415
885.16711,0.13855
887.09558,0.13172
889.02405,0.12921
890.95252,0.13350
892.88099,0.14234
894.80946,0.14787
896.73793,0.14757
898.66640,0.14663
900.59486,0.14523
902.52333,0.13982
904.45180,0.13339
906.38027,0.13095
908.30874,0.12954
910.23721,0.12990
912.16568,0.13487
914.09414,0.13758
916.02261,0.13640
917.95108,0.13730
919.87955,0.14004
921.80802,0.14010
923.73649,0.13936
925.66496,0.14213
927.59343,0.14456
929.52189,0.14196
931.45036,0.13802
933.37883,0.13656
935.30730,0.13587
937.23577,0.13719
939.16424,0.14129
941.09271,0.14281
943.02117,0.14099
944.94964,0.14018
946.87811,0.14074
948.80658,0.14076
950.73505,0.13846
952.66352,0.13253
954.59199,0.12961
956.52045,0.13333
958.44892,0.13442
960.37739,0.13313
962.30586,0.13666
964.23433,0.14026
966.16280,0.13864
968.09127,0.13603
970.01974,0.13569
971.94820,0.13673
973.87667,0.13928
975.80514,0.14088
977.73361,0.14011
979.66208,0.14115
981.59055,0.14373
983.51902,0.14308
985.44748,0.14044
987.37595,0.14058
989.30442,0.14327
991.23289,0.14477
993.16136,0.14342
995.08983,0.14072
997.01830,0.13936
998.94677,0.14227
1000.87523,0.15073
1002.80370,0.15883
1004.73217,0.15805
1006.66064,0.15071
1008.58911,0.14540
1010.51758,0.14231
1012.44605,0.14027
1014.37451,0.14369
1016.30298,0.15001
1018.23145,0.15303
1020.15992,0.15263
1022.08839,0.14867
1024.01686,0.14330
1025.94533,0.15111
1027.87380,0.17618
1029.80226,0.18751
1031.73073,0.17037
1033.65920,0.15326
1035.58767,0.14947
1037.51614,0.14801
1039.44461,0.14657
1041.37308,0.14928
1043.30154,0.15241
1045.23001,0.14952
1047.15848,0.14355
1049.08695,0.14144
1051.01542,0.14428
1052.94389,0.14755
1054.87236,0.14843
1056.80083,0.14806
1058.72929,0.14723
1060.65776,0.15079
1062.58623,0.15968
1064.51470,0.16275
1066.44317,0.15815
1068.37164,0.15848
1070.30011,0.16640
1072.22857,0.17179
1074.15704,0.16833
1076.08551,0.16154
1078.01398,0.15908
1079.94245,0.15795
1081.87092,0.15442
1083.79939,0.15237
1085.72786,0.15218
1087.65632,0.15006
1089.58479,0.14455
1091.51326,0.14199
1093.44173,0.14587
1095.37020,0.14836
1097.29867,0.14920
1099.22714,0.15233
1101.15560,0.15586
1103.08407,0.15869
1105.01254,0.15863
1106.94101,0.15530
1108.86948,0.15362
1110.79795,0.15872
1112.72642,0.16632
1114.65489,0.16761
1116.58335,0.16291
1118.51182,0.15539
1120.44029,0.14728
1122.36876,0.14302
1124.29723,0.14227
1126.22570,0.14391
1128.15417,0.14918
1130.08263,0.15517
1132.01110,0.15878
1133.93957,0.15672
1135.86804,0.15014
1137.79651,0.14646
1139.72498,0.14793
1141.65345,0.15126
1143.58191,0.15229
1145.51038,0.15247
1147.43885,0.15648
1149.36732,0.16120
1151.29579,0.15965
1153.22426,0.15322
1155.15273,0.15152
1157.08120,0.15691
1159.00966,0.16174
1160.93813,0.16191
1162.86660,0.16023
1164.79507,0.15868
1166.72354,0.15601
1168.65201,0.15515
1170.58048,0.15836
1172.50894,0.15950
1174.43741,0.15808
1176.36588,0.15945
1178.29435,0.16187
1180.22282,0.16228
1182.15129,0.15966
1184.07976,0.15448
1186.00823,0.14987
1187.93669,0.15018
1189.86516,0.15579
1191.79363,0.16048
1193.72210,0.16128
1195.65057,0.15995
1197.57904,0.15806
1199.50751,0.15710
1201.43597,0.15769
1203.36444,0.16022
1205.29291,0.16251
1207.22138,0.16115
1209.14985,0.15780
1211.07832,0.15576
1213.00679,0.15530
1214.93526,0.15696
1216.86372,0.16021
1218.79219,0.16240
1220.72066,0.16307
1222.64913,0.16321
1224.57760,0.16376
1226.50607,0.16453
1228.43454,0.16474
1230.36300,0.16491
1232.29147,0.16450
1234.21994,0.16149
1236.14841,0.15817
1238.07688,0.15906
1240.00535,0.16248
1241.93382,0.16414
1243.86229,0.16374
1245.79075,0.16321
1247.71922,0.16355
1249.64769,0.16486
1251.57616,0.16535
1253.50463,0.16369
1255.43310,0.16285
1257.36157,0.16426
1259.29003,0.16596
1261.21850,0.16655
1263.14697,0.16605
1265.07544,0.16703
1267.00391,0.17103
1268.93238,0.17414
1270.86085,0.17397
1272.78932,0.17308
1274.71778,0.17314
1276.64625,0.17345
1278.57472,0.17177
1280.50319,0.16914
1282.43166,0.16984
1284.36013,0.17285
1286.28860,0.17416
1288.21706,0.17245
1290.14553,0.17019
1292.07400,0.16948
1294.00247,0.16881
1295.93094,0.16845
1297.85941,0.16904
1299.78788,0.16942
1301.71634,0.17040
1303.64481,0.17106
1305.57328,0.16836
1307.50175,0.16490
1309.43022,0.16629
1311.35869,0.17147
1313.28716,0.17555
1315.21563,0.17706
1317.14409,0.17618
1319.07256,0.17329
1321.00103,0.17064
1322.92950,0.17008
1324.85797,0.17097
1326.78644,0.17215
1328.71491,0.17303
1330.64337,0.17329
1332.57184,0.17296
1334.50031,0.17335
1336.42878,0.17776
1338.35725,0.18416
1340.28572,0.18319
1342.21419,0.17628
1344.14266,0.17091
1346.07112,0.16780
1347.99959,0.16866
1349.92806,0.17285
1351.85653,0.17484
1353.78500,0.17391
1355.71347,0.17263
1357.64194,0.17239
1359.57040,0.17722
1361.49887,0.18628
1363.42734,0.18659
1365.35581,0.17919
1367.28428,0.17645
1369.21275,0.17644
1371.14122,0.17772
1373.06969,0.18334
1374.99815,0.18756
1376.92662,0.18628
1378.85509,0.18418
1380.78356,0.18223
1382.71203,0.18023
1384.64050,0.18114
1386.56897,0.18422
1388.49743,0.18274
1390.42590,0.17962
1392.35437,0.18410
1394.28284,0.19482
1396.21131,0.20158
1398.13978,0.20124
1400.06825,0.19487
1401.99672,0.18770
1403.92518,0.18545
1405.85365,0.18380
1407.78212,0.18082
1409.71059,0.18140
1411.63906,0.18413
1413.56753,0.18648
1415.49600,0.19357
1417.42446,0.20724
1419.35293,0.21042
1421.28140,0.19948
1423.20987,0.19280
1425.13834,0.18809
1427.06681,0.18514
1428.99528,0.18759
1430.92375,0.18848
1432.85221,0.18832
1434.78068,0.19405
1436.70915,0.19733
1438.63762,0.18967
1440.56609,0.18299
1442.49456,0.18124
1444.42303,0.18448
1446.35149,0.19217
1448.27996,0.19488
1450.20843,0.19002
1452.13690,0.19021
1454.06537,0.20437
1455.99384,0.23790
1457.92231,0.25356
1459.85077,0.22163
1461.77924,0.20136
1463.70771,0.20227
1465.63618,0.20393
1467.56465,0.19953
1469.49312,0.20590
1471.42159,0.22563
1473.35006,0.23696
1475.27852,0.22597
1477.20699,0.21051
1479.13546,0.20050
1481.06393,0.19602
1482.99240,0.19449
1484.92087,0.19990
1486.84934,0.21603
1488.77780,0.23249
1490.70627,0.22492
1492.63474,0.20812
1494.56321,0.20791
1496.49168,0.22067
1498.42015,0.22210
1500.34862,0.21083
1502.27709,0.20834
1504.20555,0.22810
1506.13402,0.27817
1508.06249,0.28883
1509.99096,0.24635
1511.91943,0.22068
1513.84790,0.22019
1515.77637,0.23796
1517.70483,0.25497
1519.63330,0.26845
1521.56177,0.27797
1523.49024,0.26232
1525.41871,0.24380
1527.34718,0.23061
1529.27565,0.21809
1531.20412,0.21731
1533.13258,0.22645
1535.06105,0.22840
1536.98952,0.23889
1538.91799,0.28156
1540.84646,0.31617
1542.77493,0.28286
1544.70340,0.24087
1546.63186,0.21391
1548.56033,0.20647
1550.48880,0.20926
1552.41727,0.21404
1554.34574,0.22547
1556.27421,0.25174
1558.20268,0.29140
1560.13115,0.26591
1562.05961,0.22229
1563.98808,0.20872
1565.91655,0.20882
1567.84502,0.21555
1569.77349,0.21827
1571.70196,0.20927
1573.63043,0.20991
1575.55889,0.22346
1577.48736,0.22001
1579.41583,0.20197
1581.34430,0.19038
1583.27277,0.18511
1585.20124,0.18422
1587.12971,0.18667
1589.05818,0.19004
1590.98664,0.19172
1592.91511,0.19186
1594.84358,0.19110
1596.77205,0.18814
1598.70052,0.18678
1600.62899,0.18976
1602.55746,0.19144
1604.48592,0.18955
1606.41439,0.19016
1608.34286,0.19463
1610.27133,0.19622
1612.19980,0.19673
1614.12827,0.20708
1616.05674,0.22451
1617.98521,0.22261
1619.91367,0.21195
1621.84214,0.21406
1623.77061,0.21852
1625.69908,0.21560
1627.62755,0.21191
1629.55602,0.20599
1631.48449,0.20286
1633.41295,0.21558
1635.34142,0.24291
1637.26989,0.23960
1639.19836,0.21466
1641.12683,0.20301
1643.05530,0.20892
1644.98377,0.23515
1646.91223,0.26610
1648.84070,0.26222
1650.76917,0.26167
1652.69764,0.28579
1654.62611,0.26292
1656.55458,0.22162
1658.48305,0.20689
1660.41152,0.21258
1662.33998,0.22177
1664.26845,0.21575
1666.19692,0.21186
1668.12539,0.22547
1670.05386,0.23928
1671.98233,0.23625
1673.91080,0.23224
1675.83926,0.22438
1677.76773,0.21513
1679.69620,0.21924
1681.62467,0.24143
1683.55314,0.27181
1685.48161,0.26189
1687.41008,0.23354
1689.33855,0.21875
1691.26701,0.21131
1693.19548,0.21695
1695.12395,0.24178
1697.05242,0.26725
1698.98089,0.27499
1700.90936,0.26192
1702.83783,0.24328
1704.76629,0.23597
1706.69476,0.22672
1708.62323,0.21262
1710.55170,0.20639
1712.48017,0.21291
1714.40864,0.23357
1716.33711,0.25782
1718.26558,0.24700
1720.19404,0.21739
1722.12251,0.20413
1724.05098,0.20013
1725.97945,0.19655
1727.90792,0.19915
1729.83639,0.21101
1731.76486,0.22818
1733.69332,0.24004
1735.62179,0.22836
1737.55026,0.21717
1739.47873,0.21742
1741.40720,0.21754
1743.33567,0.21444
1745.26414,0.21491
1747.19261,0.22324
1749.12107,0.23320
1751.04954,0.22672
1752.97801,0.21034
1754.90648,0.20302
1756.83495,0.20259
1758.76342,0.20319
1760.69189,0.20734
1762.62035,0.20749
1764.54882,0.20097
1766.47729,0.20265
1768.40576,0.21602
1770.33423,0.23259
1772.26270,0.23760
1774.19117,0.22165
1776.11964,0.20406
1778.04810,0.19718
1779.97657,0.19888
1781.90504,0.20028
1783.83351,0.19920
1785.76198,0.19740
1787.69045,0.19652
1789.61892,0.20416
1791.54738,0.21830
1793.47585,0.21940
1795.40432,0.21073
1797.33279,0.20825
1799.26126,0.21133
1801.18973,0.21048
1803.11820,0.20175
1805.04666,0.19426
1806.97513,0.19412
1808.90360,0.19853
1810.83207,0.19992
1812.76054,0.19467
1814.68901,0.18828
1816.61748,0.18422
1818.54595,0.18535
1820.47441,0.18988
1822.40288,0.19358
1824.33135,0.20044
1826.25982,0.20704
1828.18829,0.20912
1830.11676,0.20660
1832.04523,0.19742
1833.97369,0.19137
1835.90216,0.19181
1837.83063,0.19302
1839.75910,0.19398
1841.68757,0.20052
1843.61604,0.21126
1845.54451,0.21084
1847.47298,0.20087
1849.40144,0.19364
1851.32991,0.19071
1853.25838,0.18979
1855.18685,0.19006
1857.11532,0.19188
1859.04379,0.19411
1860.97226,0.19456
1862.90072,0.19351
1864.82919,0.19586
1866.75766,0.20463
1868.68613,0.21100
1870.61460,0.20449
1872.54307,0.19488
1874.47154,0.19049
1876.40001,0.18967
1878.32847,0.18931
1880.25694,0.18880
1882.18541,0.18914
1884.11388,0.18925
1886.04235,0.18967
1887.97082,0.19361
1889.89929,0.19760
1891.82775,0.19733
1893.75622,0.19629
1895.68469,0.19474
1897.61316,0.19139
1899.54163,0.18902
1901.47010,0.18995
1903.39857,0.19337
1905.32704,0.19558
1907.25550,0.19557
1909.18397,0.19457
1911.11244,0.19241
1913.04091,0.19081
1914.96938,0.19267
1916.89785,0.19703
1918.82632,0.19850
1920.75478,0.19820
1922.68325,0.19948
1924.61172,0.19846
1926.54019,0.19567
1928.46866,0.19350
1930.39713,0.19100
1932.32560,0.18873
1934.25407,0.18757
1936.18253,0.18792
1938.11100,0.18970
1940.03947,0.19353
1941.96794,0.19810
1943.89641,0.19826
1945.82488,0.19460
1947.75335,0.19064
1949.68181,0.18842
1951.61028,0.19002
1953.53875,0.19318
1955.46722,0.19453
1957.39569,0.19366
1959.32416,0.19235
1961.25263,0.19246
1963.18110,0.19404
1965.10956,0.19626
1967.03803,0.19655
1968.96650,0.19412
1970.89497,0.19215
1972.82344,0.19177
1974.75191,0.19147
1976.68038,0.19019
1978.60884,0.18892
1980.53731,0.18892
1982.46578,0.18966
1984.39425,0.19116
1986.32272,0.19283
1988.25119,0.19337
1990.17966,0.19422
1992.10812,0.19535
1994.03659,0.19371
1995.96506,0.19012
1997.89353,0.18775
1999.82200,0.18733
2001.75047,0.18794
2003.67894,0.18918
2005.60741,0.19030
2007.53587,0.19052
2009.46434,0.19035
2011.39281,0.19059
2013.32128,0.19199
2015.24975,0.19430
2017.17822,0.19543
2019.10669,0.19462
2021.03515,0.19333
2022.96362,0.19153
2024.89209,0.18935
2026.82056,0.18893
2028.74903,0.19023
2030.67750,0.19049
2032.60597,0.18989
2034.53444,0.19080
2036.46290,0.19182
2038.39137,0.19137
2040.31984,0.19166
2042.24831,0.19317
2044.17678,0.19335
2046.10525,0.19258
2048.03372,0.19321
2049.96218,0.19421
2051.89065,0.19435
2053.81912,0.19503
2055.74759,0.19613
2057.67606,0.19550
2059.60453,0.19414
2061.53300,0.19503
2063.46147,0.19645
2065.38993,0.19505
2067.31840,0.19279
2069.24687,0.19235
2071.17534,0.19228
2073.10381,0.19184
2075.03228,0.19194
2076.96075,0.19155
2078.88921,0.19035
2080.81768,0.19002
2082.74615,0.19043
2084.67462,0.19063
2086.60309,0.19239
2088.53156,0.19536
2090.46003,0.19543
2092.38850,0.19320
2094.31696,0.19223
2096.24543,0.19279
2098.17390,0.19393
2100.10237,0.19482
2102.03084,0.19484
2103.95931,0.19416
2105.88778,0.19391
2107.81624,0.19441
2109.74471,0.19524
2111.67318,0.19658
2113.60165,0.19727
2115.53012,0.19656
2117.45859,0.19483
2119.38706,0.19294
2121.31553,0.19291
2123.24399,0.19425
2125.17246,0.19475
2127.10093,0.19372
2129.02940,0.19214
2130.95787,0.19222
2132.88634,0.19425
2134.81481,0.19546
2136.74327,0.19453
2138.67174,0.19432
2140.60021,0.19588
2142.52868,0.19606
2144.45715,0.19359
2146.38562,0.19124
2148.31409,0.19106
2150.24255,0.19171
2152.17102,0.19303
2154.09949,0.19451
2156.02796,0.19432
2157.95643,0.19436
2159.88490,0.19644
2161.81337,0.19867
2163.74184,0.19891
2165.67030,0.19790
2167.59877,0.19709
2169.52724,0.19612
2171.45571,0.19533
2173.38418,0.19537
2175.31265,0.19524
2177.24112,0.19425
2179.16958,0.19400
2181.09805,0.19488
2183.02652,0.19436
2184.95499,0.19267
2186.88346,0.19186
2188.81193,0.19238
2190.74040,0.19450
2192.66887,0.19655
2194.59733,0.19664
2196.52580,0.19646
2198.45427,0.19691
2200.38274,0.19665
2202.31121,0.19643
2204.23968,0.19703
2206.16815,0.19733
2208.09661,0.19649
2210.02508,0.19486
2211.95355,0.19409
2213.88202,0.19400
2215.81049,0.19295
2217.73896,0.19195
2219.66743,0.19190
2221.59590,0.19186
2223.52436,0.19190
2225.45283,0.19278
2227.38130,0.19383
2229.30977,0.19382
2231.23824,0.19272
2233.16671,0.19135
2235.09518,0.19147
2237.02364,0.19404
2238.95211,0.19586
2240.88058,0.19396
2242.80905,0.19188
2244.73752,0.19349
2246.66599,0.19619
2248.59446,0.19682
2250.52293,0.19643
2252.45139,0.19618
2254.37986,0.19569
2256.30833,0.19459
2258.23680,0.19325
2260.16527,0.19313
2262.09374,0.19400
2264.02221,0.19366
2265.95067,0.19347
2267.87914,0.19513
2269.80761,0.19585
2271.73608,0.19549
2273.66455,0.19624
2275.59302,0.19629
2277.52149,0.19490
2279.44996,0.19390
2281.37842,0.19410
2283.30689,0.19580
2285.23536,0.19750
2287.16383,0.19723
2289.09230,0.19581
2291.02077,0.19484
2292.94924,0.19575
2294.87770,0.19829
2296.80617,0.19989
2298.73464,0.20055
2300.66311,0.20033
2302.59158,0.19808
2304.52005,0.19735
2306.44852,0.19979
2308.37699,0.20114
2310.30545,0.20062
2312.23392,0.20042
2314.16239,0.20060
2316.09086,0.20175
2318.01933,0.20376
2319.94780,0.20526
2321.87627,0.20655
2323.80473,0.20866
2325.73320,0.21473
2327.66167,0.22318
2329.59014,0.22193
2331.51861,0.21218
2333.44708,0.21139
2335.37555,0.21720
2337.30401,0.21592
2339.23248,0.21102
2341.16095,0.21111
2343.08942,0.21204
2345.01789,0.21167
2346.94636,0.21339
2348.87483,0.21571
2350.80330,0.21819
2352.73176,0.22002
2354.66023,0.21952
2356.58870,0.22657
2358.51717,0.24137
2360.44564,0.24169
2362.37411,0.22973
2364.30258,0.22317
2366.23104,0.22042
2368.15951,0.21460
2370.08798,0.21059
2372.01645,0.21101
2373.94492,0.20999
2375.87339,0.20533
2377.80186,0.20203
2379.73033,0.20186
2381.65879,0.20059
2383.58726,0.19773
2385.51573,0.19689
2387.44420,0.19774
2389.37267,0.19752
2391.30114,0.19611
2393.22961,0.19401
2395.15807,0.19231
2397.08654,0.19336
2399.01501,0.19606
2400.94348,0.19772
2402.87195,0.19789
2404.80042,0.19659
2406.72889,0.19472
2408.65736,0.19408
2410.58582,0.19483
2412.51429,0.19528
2414.44276,0.19517
2416.37123,0.19513
2418.29970,0.19379
2420.22817,0.19239
2422.15664,0.19374
2424.08510,0.19522
2426.01357,0.19416
2427.94204,0.19334
2429.87051,0.19517
2431.79898,0.19780
2433.72745,0.19763
2435.65592,0.19514
2437.58439,0.19496
2439.51285,0.19694
2441.44132,0.19639
2443.36979,0.19447
2445.29826,0.19498
2447.22673,0.19624
2449.15520,0.19791
2451.08367,0.20279
2453.01213,0.20697
2454.94060,0.20448
2456.86907,0.19818
2458.79754,0.19456
2460.72601,0.19450
2462.65448,0.19534
2464.58295,0.19604
2466.51142,0.19670
2468.43988,0.19627
2470.36835,0.19449
2472.29682,0.19439
2474.22529,0.19671
2476.15376,0.19834
2478.08223,0.19883
2480.01070,0.19912
2481.93916,0.19931
2483.86763,0.19880
2485.79610,0.19740
2487.72457,0.19681
2489.65304,0.19680
2491.58151,0.19609
2493.50998,0.19518
2495.43844,0.19502
2497.36691,0.19545
2499.29538,0.19565
2501.22385,0.19514
2503.15232,0.19457
2505.08079,0.19592
2507.00926,0.19738
2508.93773,0.19590
2510.86619,0.19395
2512.79466,0.19422
2514.72313,0.19565
2516.65160,0.19649
2518.58007,0.19620
2520.50854,0.19537
2522.43701,0.19561
2524.36547,0.19709
2526.29394,0.19767
2528.22241,0.19770
2530.15088,0.19829
2532.07935,0.19795
2534.00782,0.19743
2535.93629,0.19800
2537.86476,0.19833
2539.79322,0.19845
2541.72169,0.19887
2543.65016,0.19919
2545.57863,0.20043
2547.50710,0.20346
2549.43557,0.20612
2551.36404,0.20546
2553.29250,0.20336
2555.22097,0.20337
2557.14944,0.20325
2559.07791,0.20032
2561.00638,0.19704
2562.93485,0.19560
2564.86332,0.19652
2566.79179,0.19795
2568.72025,0.19732
2570.64872,0.19663
2572.57719,0.19706
2574.50566,0.19717
2576.43413,0.19648
2578.36260,0.19566
2580.29107,0.19737
2582.21953,0.20097
2584.14800,0.20173
2586.07647,0.19998
2588.00494,0.19922
2589.93341,0.19907
2591.86188,0.19868
2593.79035,0.19854
2595.71882,0.19842
2597.64728,0.19839
2599.57575,0.19908
2601.50422,0.20056
2603.43269,0.20156
2605.36116,0.20111
2607.28963,0.20082
2609.21810,0.20178
2611.14656,0.20085
2613.07503,0.19829
2615.00350,0.19801
2616.93197,0.19818
2618.86044,0.19742
2620.78891,0.19809
2622.71738,0.19927
2624.64585,0.19851
2626.57431,0.19704
2628.50278,0.19805
2630.43125,0.20006
2632.35972,0.19966
2634.28819,0.19838
2636.21666,0.19881
2638.14513,0.20014
2640.07359,0.20044
2642.00206,0.20000
2643.93053,0.20028
2645.85900,0.20111
2647.78747,0.20250
2649.71594,0.20408
2651.64441,0.20297
2653.57288,0.19956
2655.50134,0.19796
2657.42981,0.19948
2659.35828,0.20212
2661.28675,0.20331
2663.21522,0.20319
2665.14369,0.20383
2667.07216,0.20430
2669.00062,0.20316
2670.92909,0.20126
2672.85756,0.19957
2674.78603,0.20058
2676.71450,0.20476
2678.64297,0.20755
2680.57144,0.20749
2682.49990,0.20625
2684.42837,0.20353
2686.35684,0.20123
2688.28531,0.20239
2690.21378,0.20519
2692.14225,0.20701
2694.07072,0.20834
2695.99919,0.20898
2697.92765,0.20753
2699.85612,0.20421
2701.78459,0.20094
2703.71306,0.19986
2705.64153,0.20114
2707.57000,0.20263
2709.49847,0.20428
2711.42693,0.20669
2713.35540,0.20744
2715.28387,0.20659
2717.21234,0.20698
2719.14081,0.20856
2721.06928,0.20982
2722.99775,0.21004
2724.92622,0.20866
2726.85468,0.20668
2728.78315,0.20624
2730.71162,0.20774
2732.64009,0.20925
2734.56856,0.20869
2736.49703,0.20719
2738.42550,0.20704
2740.35396,0.20758
2742.28243,0.20707
2744.21090,0.20615
2746.13937,0.20631
2748.06784,0.20625
2749.99631,0.20531
2751.92478,0.20554
2753.85325,0.20675
2755.78171,0.20654
2757.71018,0.20563
2759.63865,0.20573
2761.56712,0.20632
2763.49559,0.20744
2765.42406,0.20854
2767.35253,0.20848
2769.28099,0.20848
2771.20946,0.20972
2773.13793,0.21072
2775.06640,0.21087
2776.99487,0.21256
2778.92334,0.21469
2780.85181,0.21465
2782.78028,0.21393
2784.70874,0.21403
2786.63721,0.21363
2788.56568,0.21162
2790.49415,0.21048
2792.42262,0.21082
2794.35109,0.20999
2796.27956,0.20944
2798.20802,0.21124
2800.13649,0.21323
2802.06496,0.21309
2803.99343,0.21185
2805.92190,0.21167
2807.85037,0.21254
2809.77884,0.21273
2811.70731,0.21178
2813.63577,0.21189
2815.56424,0.21416
2817.49271,0.21654
2819.42118,0.21737
2821.34965,0.21584
2823.27812,0.21335
2825.20659,0.21425
2827.13505,0.21620
2829.06352,0.21266
2830.99199,0.20762
2832.92046,0.20876
2834.84893,0.21354
2836.77740,0.21554
2838.70587,0.21395
2840.63433,0.21181
2842.56280,0.21237
2844.49127,0.21440
2846.41974,0.21440
2848.34821,0.21348
2850.27668,0.21265
2852.20515,0.20982
2854.13362,0.20734
2856.06208,0.20951
2857.99055,0.21306
2859.91902,0.21457
2861.84749,0.21610
2863.77596,0.21655
2865.70443,0.21449
2867.63290,0.21383
2869.56136,0.21484
2871.48983,0.21417
2873.41830,0.21389
2875.34677,0.21610
2877.27524,0.21743
2879.20371,0.21578
2881.13218,0.21427
2883.06065,0.21400
2884.98911,0.21146
2886.91758,0.20845
2888.84605,0.20923
2890.77452,0.21200
2892.70299,0.21394
2894.63146,0.21523
2896.55993,0.21658
2898.48839,0.21680
2900.41686,0.21499
2902.34533,0.21188
2904.27380,0.20907
2906.20227,0.20897
2908.13074,0.21090
2910.05921,0.21250
2911.98768,0.21475
2913.91614,0.21637
2915.84461,0.21464
2917.77308,0.21249
2919.70155,0.21294
2921.63002,0.21440
2923.55849,0.21450
2925.48696,0.21463
2927.41542,0.21746
2929.34389,0.22006
2931.27236,0.21826
2933.20083,0.21399
2935.12930,0.21135
2937.05777,0.20965
2938.98624,0.20743
2940.91471,0.20676
2942.84317,0.20815
2944.77164,0.21097
2946.70011,0.21476
2948.62858,0.21603
2950.55705,0.21428
2952.48552,0.21423
2954.41399,0.21500
2956.34245,0.21323
2958.27092,0.21162
2960.19939,0.21190
2962.12786,0.21364
2964.05633,0.21592
2965.98480,0.21664
2967.91327,0.21722
2969.84174,0.21894
2971.77020,0.22017
2973.69867,0.21989
2975.62714,0.21842
2977.55561,0.21798
2979.48408,0.22019
2981.41255,0.22267
2983.34102,0.22265
2985.26948,0.22203
2987.19795,0.22174
2989.12642,0.21915
2991.05489,0.21653
2992.98336,0.21689
2994.91183,0.21726
2996.84030,0.21651
2998.76877,0.21769
3000.69723,0.21958
3002.62570,0.21836
3004.55417,0.21703
3006.48264,0.21912
3008.41111,0.22076
3010.33958,0.21961
3012.26805,0.21890
3014.19651,0.22014
3016.12498,0.22086
3018.05345,0.22050
3019.98192,0.22205
3021.91039,0.22498
3023.83886,0.22484
3025.76733,0.22195
3027.69579,0.22019
3029.62426,0.22012
3031.55273,0.21999
3033.48120,0.21885
3035.40967,0.21774
3037.33814,0.21780
3039.26661,0.21845
3041.19508,0.21888
3043.12354,0.21952
3045.05201,0.21969
3046.98048,0.21842
3048.90895,0.21739
3050.83742,0.21805
3052.76589,0.22008
3054.69436,0.22300
3056.62282,0.22434
3058.55129,0.22231
3060.47976,0.22126
3062.40823,0.22330
3064.33670,0.22376
3066.26517,0.22105
3068.19364,0.21950
3070.12211,0.22219
3072.05057,0.22369
3073.97904,0.22039
3075.90751,0.21881
3077.83598,0.22145
3079.76445,0.22321
3081.69292,0.22136
3083.62139,0.21794
3085.54985,0.21551
3087.47832,0.21598
3089.40679,0.21823
3091.33526,0.21861
3093.26373,0.21772
3095.19220,0.21715
3097.12067,0.21774
3099.04914,0.22101
3100.97760,0.22325
3102.90607,0.22072
3104.83454,0.21768
3106.76301,0.21805
3108.69148,0.21916
3110.61995,0.21810
3112.54842,0.21586
3114.47688,0.21347
3116.40535,0.21207
3118.33382,0.21507
3120.26229,0.22085
3122.19076,0.22385
3124.11923,0.22426
3126.04770,0.22431
3127.97617,0.22329
3129.90463,0.22181
3131.83310,0.22163
3133.76157,0.22059
3135.69004,0.21801
3137.61851,0.21755
3139.54698,0.21910
3141.47545,0.22016
3143.40391,0.22067
3145.33238,0.22026
3147.26085,0.21825
3149.18932,0.21733
3151.11779,0.21972
3153.04626,0.22249
3154.97473,0.22321
3156.90320,0.22196
3158.83166,0.21951
3160.76013,0.21858
3162.68860,0.22067
3164.61707,0.22469
3166.54554,0.22837
3168.47401,0.22906
3170.40248,0.22881
3172.33094,0.23038
3174.25941,0.23141
3176.18788,0.23175
3178.11635,0.23220
3180.04482,0.23080
3181.97329,0.22902
3183.90176,0.22918
3185.83022,0.22731
3187.75869,0.22163
3189.68716,0.21829
3191.61563,0.21950
3193.54410,0.22397
3195.47257,0.22901
3197.40104,0.22735
3199.32951,0.22154
3201.25797,0.22124
3203.18644,0.22448
3205.11491,0.22427
3207.04338,0.22113
3208.97185,0.21866
3210.90032,0.21747
3212.82879,0.21900
3214.75725,0.22332
3216.68572,0.22527
3218.61419,0.22273
3220.54266,0.21947
3222.47113,0.21877
3224.39960,0.21901
3226.32807,0.21857
3228.25654,0.21963
3230.18500,0.22058
3232.11347,0.21969
3234.04194,0.22016
3235.97041,0.22133
3237.89888,0.22215
3239.82735,0.22583
3241.75582,0.23074
3243.68428,0.23213
3245.61275,0.22955
3247.54122,0.22692
3249.46969,0.22670
3251.39816,0.22588
3253.32663,0.22379
3255.25510,0.22316
3257.18357,0.22304
3259.11203,0.22212
3261.04050,0.22162
3262.96897,0.22148
3264.89744,0.21956
3266.82591,0.21783
3268.75438,0.21939
3270.68285,0.22076
3272.61131,0.22136
3274.53978,0.22530
3276.46825,0.22834
3278.39672,0.22461
3280.32519,0.21851
3282.25366,0.21667
3284.18213,0.21952
3286.11060,0.22234
3288.03906,0.22251
3289.96753,0.22287
3291.89600,0.22347
3293.82447,0.22049
3295.75294,0.21614
3297.68141,0.21578
3299.60988,0.21772
3301.53834,0.21714
3303.46681,0.21335
3305.39528,0.20966
3307.32375,0.20966
3309.25222,0.21265
3311.18069,0.21529
3313.10916,0.21645
3315.03763,0.21689
3316.96609,0.21708
3318.89456,0.21894
3320.82303,0.22286
3322.75150,0.22379
3324.67997,0.21913
3326.60844,0.21409
3328.53691,0.21452
3330.46537,0.21814
3332.39384,0.22133
3334.32231,0.22489
3336.25078,0.22682
3338.17925,0.22670
3340.10772,0.22792
3342.03619,0.22949
3343.96466,0.22807
3345.89312,0.22374
3347.82159,0.22065
3349.75006,0.22169
3351.67853,0.22332
3353.60700,0.22132
3355.53547,0.21895
3357.46394,0.22081
3359.39240,0.22434
3361.32087,0.22514
3363.24934,0.22495
3365.17781,0.22686
3367.10628,0.22936
3369.03475,0.23025
3370.96322,0.22838
3372.89168,0.22484
3374.82015,0.22327
3376.74862,0.22360
3378.67709,0.22296
3380.60556,0.22157
3382.53403,0.22015
3384.46250,0.21746
3386.39097,0.21559
3388.31943,0.21884
3390.24790,0.22500
3392.17637,0.22673
3394.10484,0.22318
3396.03331,0.22081
3397.96178,0.22077
3399.89025,0.22037
3401.81871,0.22033
3403.74718,0.22121
3405.67565,0.22314
3407.60412,0.22486
3409.53259,0.22345
3411.46106,0.22144
3413.38953,0.22172
3415.31800,0.22161
3417.24646,0.22064
3419.17493,0.22189
3421.10340,0.22505
3423.03187,0.22482
3424.96034,0.21972
3426.88881,0.21412
3428.81728,0.21095
3430.74574,0.21113
3432.67421,0.21296
3434.60268,0.21444
3436.53115,0.21611
3438.45962,0.21632
3440.38809,0.21367
3442.31656,0.21208
3444.24503,0.21523
3446.17349,0.21826
3448.10196,0.21476
3450.03043,0.20810
3451.95890,0.20343
3453.88737,0.20142
3455.81584,0.20113
3457.74431,0.20214
3459.67277,0.20448
3461.60124,0.20529
3463.52971,0.20287
3465.45818,0.20012
3467.38665,0.19895
3469.31512,0.20001
3471.24359,0.20339
3473.17206,0.20584
3475.10052,0.20499
3477.02899,0.20264
3478.95746,0.20084
3480.88593,0.19859
3482.81440,0.19546
3484.74287,0.19540
3486.67134,0.19621
3488.59980,0.19208
3490.52827,0.18793
3492.45674,0.18785
3494.38521,0.18894
3496.31368,0.19032
3498.24215,0.19213
3500.17062,0.19566
3502.09909,0.19977
3504.02755,0.19993
3505.95602,0.19851
3507.88449,0.19732
3509.81296,0.19291
3511.74143,0.18714
3513.66990,0.18319
3515.59837,0.18030
3517.52683,0.17926
3519.45530,0.18215
3521.38377,0.18773
3523.31224,0.19235
3525.24071,0.19401
3527.16918,0.19214
3529.09765,0.18614
3531.02611,0.17983
3532.95458,0.17715
3534.88305,0.17677
3536.81152,0.17710
3538.73999,0.17597
3540.66846,0.17343
3542.59693,0.17533
3544.52540,0.18252
3546.45386,0.18703
3548.38233,0.18664
3550.31080,0.18632
3552.23927,0.18524
3554.16774,0.18120
3556.09621,0.17823
3558.02468,0.18106
3559.95314,0.18688
3561.88161,0.18922
3563.81008,0.19339
3565.73855,0.20265
3567.66702,0.19880
3569.59549,0.18265
3571.52396,0.17486
3573.45243,0.17450
3575.38089,0.17421
3577.30936,0.17104
3579.23783,0.16687
3581.16630,0.16528
3583.09477,0.16837
3585.02324,0.17706
3586.95171,0.18479
3588.88017,0.18033
3590.80864,0.17368
3592.73711,0.17213
3594.66558,0.17092
3596.59405,0.17028
3598.52252,0.17338
3600.45099,0.17540
3602.37946,0.17174
3604.30792,0.16806
3606.23639,0.17109
3608.16486,0.17757
3610.09333,0.18054
3612.02180,0.18220
3613.95027,0.18091
3615.87874,0.17777
3617.80720,0.17886
3619.73567,0.17644
3621.66414,0.16788
3623.59261,0.16537
3625.52108,0.17204
3627.44955,0.18367
3629.37802,0.18274
3631.30649,0.16857
3633.23495,0.16029
3635.16342,0.15457
3637.09189,0.15161
3639.02036,0.15378
3640.94883,0.15573
3642.87730,0.15657
3644.80577,0.16404
3646.73423,0.18387
3648.66270,0.20572
3650.59117,0.19747
3652.51964,0.17471
3654.44811,0.16211
3656.37658,0.15672
3658.30505,0.15077
3660.23352,0.14504
3662.16198,0.14222
3664.09045,0.14430
3666.01892,0.15085
3667.94739,0.16111
3669.87586,0.16850
3671.80433,0.16430
3673.73280,0.16817
3675.66126,0.18000
3677.58973,0.17102
3679.51820,0.15459
3681.44667,0.14441
3683.37514,0.14156
3685.30361,0.14672
3687.23208,0.15925
3689.16055,0.17090
3691.08901,0.16555
3693.01748,0.15264
3694.94595,0.14537
3696.87442,0.14271
3698.80289,0.14202
3700.73136,0.14342
3702.65983,0.14317
3704.58829,0.13967
3706.51676,0.14099
3708.44523,0.15385
3710.37370,0.17358
3712.30217,0.17459
3714.23064,0.15773
3716.15911,0.14957
3718.08757,0.15214
3720.01604,0.15831
3721.94451,0.16363
3723.87298,0.16291
3725.80145,0.15619
3727.72992,0.15075
3729.65839,0.15367
3731.58686,0.16991
3733.51532,0.19357
3735.44379,0.19875
3737.37226,0.17907
3739.30073,0.16340
3741.22920,0.16575
3743.15767,0.18554
3745.08614,0.19873
3747.01460,0.19008
3748.94307,0.19227
3750.87154,0.19969
3752.80001,0.17977
3754.72848,0.15971
3756.65695,0.15634
3758.58542,0.15805
3760.51389,0.14954
3762.44235,0.13921
3764.37082,0.13872
3766.29929,0.14266
3768.22776,0.14408
3770.15623,0.14128
3772.08470,0.13401
3774.01317,0.12957
3775.94163,0.13231
3777.87010,0.13981
3779.79857,0.14330
3781.72704,0.14167
3783.65551,0.14211
3785.58398,0.14034
3787.51245,0.13379
3789.44092,0.12849
3791.36938,0.12745
3793.29785,0.13140
3795.22632,0.13984
3797.15479,0.14751
3799.08326,0.15399
3801.01173,0.16287
3802.94020,0.16040
3804.86866,0.15285
3806.79713,0.15010
3808.72560,0.14239
3810.65407,0.13434
3812.58254,0.13416
3814.51101,0.14225
3816.43948,0.15433
3818.36795,0.16228
3820.29641,0.16401
3822.22488,0.15421
3824.15335,0.14451
3826.08182,0.14154
3828.01029,0.13985
3829.93876,0.13898
3831.86723,0.14066
3833.79569,0.14627
3835.72416,0.15576
3837.65263,0.16573
3839.58110,0.16574
3841.50957,0.15386
3843.43804,0.14095
3845.36651,0.13311
3847.29498,0.13344
3849.22344,0.14182
3851.15191,0.15618
3853.08038,0.17096
3855.00885,0.16205
3856.93732,0.14421
3858.86579,0.13478
3860.79426,0.13437
3862.72272,0.14069
3864.65119,0.14489
3866.57966,0.14585
3868.50813,0.15147
3870.43660,0.15538
3872.36507,0.15041
3874.29354,0.14332
3876.22200,0.13799
3878.15047,0.13918
3880.07894,0.14328
3882.00741,0.14216
3883.93588,0.14153
3885.86435,0.13751
3887.79282,0.12818
3889.72129,0.12725
3891.64975,0.13192
3893.57822,0.12949
3895.50669,0.12712
3897.43516,0.13280
3899.36363,0.14105
3901.29210,0.14304
3903.22057,0.14123
3905.14903,0.13584
3907.07750,0.12489
3909.00597,0.11603
3910.93444,0.11331
3912.86291,0.11549
3914.79138,0.12079
3916.71985,0.12487
3918.64832,0.12467
3920.57678,0.12407
3922.50525,0.12553
3924.43372,0.12516
3926.36219,0.11966
3928.29066,0.11593
3930.21913,0.12020
3932.14760,0.12543
3934.07606,0.12216
3936.00453,0.11488
3937.93300,0.11038
3939.86147,0.10983
3941.78994,0.11168
3943.71841,0.11411
3945.64688,0.11766
3947.57535,0.12301
3949.50381,0.12574
3951.43228,0.12198
3953.36075,0.11651
3955.28922,0.11467
3957.21769,0.11441
3959.14616,0.11272
3961.07463,0.11168
3963.00309,0.11033
3964.93156,0.10765
3966.86003,0.10875
3968.78850,0.11412
3970.71697,0.11726
3972.64544,0.11681
3974.57391,0.11512
3976.50238,0.11145
3978.43084,0.10863
3980.35931,0.10814
3982.28778,0.10743
3984.21625,0.10905
3986.14472,0.11258
3988.07319,0.11161
3990.00166,0.10691
3991.93012,0.10583
3993.85859,0.10854
3995.78706,0.10885
3997.71553,0.10550
3999.64400,0.10289
4001.57247,0.10414
4003.50094,0.10760
4005.42941,0.10894
4007.35787,0.10606
4009.28634,0.10330
4011.21481,0.10357
4013.14328,0.10443
4015.07175,0.10612
4017.00022,0.10860
4018.92869,0.10808
4020.85715,0.10315
4022.78562,0.09837
4024.71409,0.09817
4026.64256,0.09971
4028.57103,0.09830
4030.49950,0.09738
4032.42797,0.10105
4034.35644,0.10440
4036.28490,0.10320
4038.21337,0.09996
4040.14184,0.09755
4042.07031,0.09711
4043.99878,0.09772
4045.92725,0.09720
4047.85572,0.09614
4049.78418,0.09546
4051.71265,0.09297
4053.64112,0.08964
4055.56959,0.08974
4057.49806,0.09244
4059.42653,0.09439
4061.35500,0.09431
4063.28346,0.09208
4065.21193,0.09159
4067.14040,0.09569
4069.06887,0.09915
4070.99734,0.09837
4072.92581,0.09683
4074.85428,0.09482
4076.78275,0.09056
4078.71121,0.08789
4080.63968,0.08836
4082.56815,0.09020
4084.49662,0.09266
4086.42509,0.09379
4088.35356,0.09378
4090.28203,0.09377
4092.21049,0.09370
4094.13896,0.09334
4096.06743,0.09133
4097.99590,0.08830
4099.92437,0.08797
4101.85284,0.09125
4103.78131,0.09389
4105.70978,0.09366
4107.63824,0.09339
4109.56671,0.09379
4111.49518,0.09072
4113.42365,0.08534
4115.35212,0.08497
4117.28059,0.08781
4119.20906,0.08861
4121.13752,0.09045
4123.06599,0.09449
4124.99446,0.09579
4126.92293,0.09143
4128.85140,0.08501
4130.77987,0.08336
4132.70834,0.08538
4134.63681,0.08439
4136.56527,0.08166
4138.49374,0.08105
4140.42221,0.08195
4142.35068,0.08389
4144.27915,0.08639
4146.20762,0.08868
4148.13609,0.09039
4150.06455,0.08969
4151.99302,0.08579
4153.92149,0.08280
4155.84996,0.08371
4157.77843,0.08670
4159.70690,0.08778
4161.63537,0.08264
4163.56384,0.07661
4165.49230,0.07846
4167.42077,0.08314
4169.34924,0.08085
4171.27771,0.07455
4173.20618,0.07398
4175.13465,0.07800
4177.06312,0.07988
4178.99158,0.07974
4180.92005,0.07948
4182.84852,0.08007
4184.77699,0.08128
4186.70546,0.08068
4188.63393,0.07737
4190.56240,0.07351
4192.49087,0.07337
4194.41933,0.07709
4196.34780,0.07952
4198.27627,0.07876
4200.20474,0.07577
4202.13321,0.07238
4204.06168,0.07162
4205.99015,0.07496
4207.91861,0.08000
4209.84708,0.08159
4211.77555,0.07878
4213.70402,0.07359
4215.63249,0.06840
4217.56096,0.06731
4219.48943,0.06931
4221.41789,0.07133
4223.34636,0.07204
4225.27483,0.06896
4227.20330,0.06425
4229.13177,0.06386
4231.06024,0.06806
4232.98871,0.07140
4234.91718,0.07075
4236.84564,0.06876
4238.77411,0.06810
4240.70258,0.06767
4242.63105,0.06668
4244.55952,0.06596
4246.48799,0.06573
4248.41646,0.06730
4250.34492,0.06999
4252.27339,0.06900
4254.20186,0.06443
4256.13033,0.06105
4258.05880,0.06019
4259.98727,0.06076
4261.91574,0.06182
4263.84421,0.06301
4265.77267,0.06296
4267.70114,0.06041
4269.62961,0.05960
4271.55808,0.06310
4273.48655,0.06530
4275.41502,0.06450
4277.34349,0.06412
4279.27195,0.06238
4281.20042,0.06041
4283.12889,0.06180
4285.05736,0.06238
4286.98583,0.06097
4288.91430,0.06055
4290.84277,0.05850
4292.77124,0.05444
4294.69970,0.05362
4296.62817,0.05895
4298.55664,0.06628
4300.48511,0.06724
4302.41358,0.06155
4304.34205,0.05793
4306.27052,0.05813
4308.19898,0.05527
4310.12745,0.05019
4312.05592,0.05208
4313.98439,0.06165
4315.91286,0.06873
4317.84133,0.06608
4319.76980,0.05646
4321.69827,0.04838
4323.62673,0.04544
4325.55520,0.04562
4327.48367,0.04952
4329.41214,0.05476
4331.34061,0.05566
4333.26908,0.05501
4335.19755,0.05600
4337.12601,0.05453
4339.05448,0.05139
4340.98295,0.04959
4342.91142,0.04719
4344.83989,0.04525
4346.76836,0.04470
4348.69683,0.04383
4350.62530,0.04178
4352.55376,0.03947
4354.48223,0.04160
4356.41070,0.04422
4358.33917,0.03865
4360.26764,0.03109
4362.19611,0.03034
4364.12458,0.03541
4366.05304,0.04158
4367.98151,0.04256
4369.90998,0.03594
4371.83845,0.02940
4373.76692,0.03020
4375.69539,0.03520
4377.62386,0.03655
4379.55232,0.03354
4381.48079,0.03343
4383.40926,0.03856
4385.33773,0.04333
4387.26620,0.04551
4389.19467,0.04545
4391.12314,0.04121
4393.05161,0.03416
4394.98007,0.02745
4396.90854,0.02336
4398.83701,0.02431
4400.76548,0.02834
4402.69395,0.03117
4404.62242,0.03391
4406.55089,0.03967
4408.47935,0.04320
4410.40782,0.03930
4412.33629,0.03346
4414.26476,0.03095
4416.19323,0.02985
4418.12170,0.02689
4420.05017,0.02352
4421.97864,0.02193
4423.90710,0.01955
4425.83557,0.01693
4427.76404,0.01904
4429.69251,0.02334
4431.62098,0.02696
4433.54945,0.03292
4435.47792,0.03374
4437.40638,0.02453
4439.33485,0.01781
4441.26332,0.01998
4443.19179,0.02382
4445.12026,0.02346
4447.04873,0.02111
4448.97720,0.02068
4450.90567,0.02086
4452.83413,0.02174
4454.76260,0.02457
4456.69107,0.02509
4458.61954,0.02181
4460.54801,0.01830
4462.47648,0.01568
4464.40495,0.01421
4466.33341,0.01669
4468.26188,0.02454
4470.19035,0.03202
4472.11882,0.03131
4474.04729,0.02423
4475.97576,0.02028
4477.90423,0.02314
4479.83270,0.02733
4481.76116,0.02774
4483.68963,0.02401
4485.61810,0.02053
4487.54657,0.02141
4489.47504,0.02122
4491.40351,0.01430
4493.33198,0.00784
4495.26044,0.00875
4497.18891,0.01491
4499.11738,0.02117
4501.04585,0.02171
4502.97432,0.01811
4504.90279,0.01662
4506.83126,0.01677
4508.75973,0.01459
4510.68819,0.01218
4512.61666,0.01361
4514.54513,0.01386
4516.47360,0.00947
4518.40207,0.00681
4520.33054,0.00868
4522.25901,0.01272
4524.18747,0.01541
4526.11594,0.01407
4528.04441,0.01147
4529.97288,0.01075
4531.90135,0.01304
4533.82982,0.01692
4535.75829,0.01781
4537.68676,0.01434
4539.61522,0.00932
4541.54369,0.00655
4543.47216,0.00618
4545.40063,0.00687
4547.32910,0.00937
4549.25757,0.01195
4551.18604,0.01371
4553.11450,0.01321
4555.04297,0.00837
4556.97144,0.00356
4558.89991,0.00484
4560.82838,0.00953
4562.75685,0.01091
4564.68532,0.01058
4566.61378,0.01206
4568.54225,0.01330
4570.47072,0.01323
4572.39919,0.01391
4574.32766,0.01511
4576.25613,0.01263
4578.18460,0.00605
4580.11307,0.00257
4582.04153,0.00675
4583.97000,0.01091
4585.89847,0.00955
4587.82694,0.00758
4589.75541,0.00708
4591.68388,0.00741
4593.61235,0.00886
4595.54081,0.01098
4597.46928,0.01289
4599.39775,0.01085
4601.32622,0.00449
4603.25469,0.00225
4605.18316,0.00804
4607.11163,0.01398
4609.04010,0.01313
4610.96856,0.00652
4612.89703,0.00064
4614.82550,-0.00069
4616.75397,0.00114
4618.68244,0.00545
4620.61091,0.01127
4622.53938,0.01419
4624.46784,0.01087
4626.39631,0.00681
4628.32478,0.00811
4630.25325,0.00834
4632.18172,0.00228
4634.11019,-0.00154
4636.03866,0.00188
4637.96713,0.00446
4639.89559,0.00062
4641.82406,-0.00491
4643.75253,-0.00430
4645.68100,0.00474
4647.60947,0.01422
4649.53794,0.01222
4651.46641,0.00182
4653.39487,-0.00201
4655.32334,0.00346
4657.25181,0.00724
4659.18028,0.00359
4661.10875,-0.00091
4663.03722,-0.00139
4664.96569,0.00112
4666.89416,0.00858
4668.82262,0.01903
4670.75109,0.02583
4672.67956,0.02558
4674.60803,0.01792
4676.53650,0.00947
4678.46497,0.00725
4680.39344,0.00625
4682.32190,0.00285
4684.25037,0.00329
4686.17884,0.00736
4688.10731,0.00651
4690.03578,0.00005
4691.96425,-0.00405
4693.89272,-0.00341
4695.82119,-0.00282
4697.74965,-0.00368
4699.67812,-0.00437
4701.60659,-0.00533
4703.53506,-0.00358
4705.46353,0.00508
4707.39200,0.01327
4709.32047,0.00936
4711.24893,-0.00208
4713.17740,-0.00480
4715.10587,0.00432
4717.03434,0.01223
4718.96281,0.01076
4720.89128,0.00662
4722.81975,0.00529
4724.74821,0.00393
4726.67668,0.00386
4728.60515,0.00605
4730.53362,0.00646
4732.46209,0.00855
4734.39056,0.01438
4736.31903,0.01542
4738.24750,0.00989
4740.17596,0.00323
4742.10443,-0.00037
4744.03290,0.00333
4745.96137,0.01099
4747.88984,0.01439
4749.81831,0.01469
4751.74678,0.01775
4753.67524,0.02239
4755.60371,0.02097
4757.53218,0.00929
4759.46065,-0.00359
4761.38912,-0.00745
4763.31759,-0.00474
4765.24606,-0.00297
4767.17453,-0.00401
4769.10299,-0.00381
4771.03146,-0.00103
4772.95993,0.00219
4774.88840,0.00325
4776.81687,0.00336
4778.74534,0.00709
4780.67381,0.01003
4782.60227,0.00620
4784.53074,0.00140
4786.45921,0.00205
4788.38768,0.00174
4790.31615,-0.00191
4792.24462,-0.00197
4794.17309,0.00153
4796.10156,0.00449
4798.03002,0.00326
4799.95849,-0.00229
4801.88696,-0.00155
4803.81543,0.00759
4805.74390,0.00932
4807.67237,-0.00190
4809.60084,-0.01206
4811.52930,-0.01054
4813.45777,-0.00221
4815.38624,0.00381
4817.31471,0.00395
4819.24318,0.00182
4821.17165,0.00397
4823.10012,0.01182
4825.02859,0.01513
4826.95705,0.00424
4828.88552,-0.00821
4830.81399,-0.00849
4832.74246,-0.00231
4834.67093,0.00135
4836.59940,-0.00052
4838.52787,-0.00457
4840.45633,-0.00460
4842.38480,-0.00004
4844.31327,0.00515
4846.24174,0.01058
4848.17021,0.01480
4850.09868,0.01741
4852.02715,0.02073
4853.95562,0.02147
4855.88408,0.01396
4857.81255,0.00020
4859.74102,-0.00555
4861.66949,0.00284
4863.59796,0.00869
4865.52643,0.00430
4867.45490,0.00274
4869.38336,0.00748
4871.31183,0.00380
4873.24030,-0.00903
4875.16877,-0.01534
4877.09724,-0.01258
4879.02571,-0.00671
4880.95418,-0.00005
4882.88265,0.00647
4884.81111,0.01124
4886.73958,0.01177
4888.66805,0.00580
4890.59652,-0.00274
4892.52499,-0.00338
4894.45346,0.00029
4896.38193,-0.00006
4898.31039,0.00218
4900.23886,0.00816
4902.16733,0.00832
4904.09580,0.00226
4906.02427,-0.00136
4907.95274,0.00068
4909.88121,0.00483
4911.80967,0.00884
4913.73814,0.01038
4915.66661,0.00792
4917.59508,0.00669
4919.52355,0.00780
4921.45202,0.00502
4923.38049,0.00090
4925.30896,0.00122
4927.23742,0.00396
4929.16589,0.00738
4931.09436,0.01390
4933.02283,0.01863
4934.95130,0.01475
4936.87977,0.01005
4938.80824,0.01144
4940.73670,0.01441
4942.66517,0.01198
4944.59364,0.00456
4946.52211,0.00358
4948.45058,0.00718
4950.37905,0.00387
4952.30752,-0.00021
4954.23599,0.00326
4956.16445,0.00934
4958.09292,0.01278
4960.02139,0.01474
4961.94986,0.01588
4963.87833,0.01574
4965.80680,0.01621
4967.73527,0.01698
4969.66373,0.01688
4971.59220,0.01421
4973.52067,0.00900
4975.44914,0.00750
4977.37761,0.00991
4979.30608,0.00752
4981.23455,-0.00116
4983.16302,-0.00522
4985.09148,-0.00000
4987.01995,0.00627
4988.94842,0.01005
4990.87689,0.01223
4992.80536,0.00819
4994.73383,-0.00221
4996.66230,-0.00982
4998.59076,-0.01069
5000.51923,-0.00637
5002.44770,0.00095
5004.37617,0.00396
5006.30464,0.00115
5008.23311,0.00048
5010.16158,0.00526
5012.09005,0.00941
5014.01851,0.01071
5015.94698,0.01301
5017.87545,0.01407
5019.80392,0.01460
5021.73239,0.01687
5023.66086,0.01459
5025.58933,0.00467
5027.51779,-0.00601
5029.44626,-0.00347
5031.37473,0.01034
5033.30320,0.01359
5035.23167,0.00844
5037.16014,0.00709
5039.08861,0.00116
5041.01708,-0.00423
5042.94554,0.00467
5044.87401,0.02267
5046.80248,0.03552
5048.73095,0.03315
5050.65942,0.02181
5052.58789,0.01553
5054.51636,0.01447
5056.44482,0.01223
5058.37329,0.01337
5060.30176,0.02130
5062.23023,0.02789
5064.15870,0.02657
5066.08717,0.02155
5068.01564,0.02062
5069.94410,0.02050
5071.87257,0.01966
5073.80104,0.02227
5075.72951,0.02451
5077.65798,0.02661
5079.58645,0.02776
5081.51492,0.02112
5083.44339,0.01355
5085.37185,0.01373
5087.30032,0.01621
5089.22879,0.01651
5091.15726,0.01815
5093.08573,0.02590
5095.01420,0.03532
5096.94267,0.03812
5098.87113,0.03875
5100.79960,0.03851
5102.72807,0.03230
5104.65654,0.02163
5106.58501,0.01208
5108.51348,0.01374
5110.44195,0.02655
5112.37042,0.03545
5114.29888,0.02917
5116.22735,0.01487
5118.15582,0.01224
5120.08429,0.02647
5122.01276,0.03495
5123.94123,0.02568
5125.86970,0.01881
5127.79816,0.02196
5129.72663,0.02341
5131.65510,0.02705
5133.58357,0.03678
5135.51204,0.03898
5137.44051,0.02997
5139.36898,0.02152
5141.29745,0.01932
5143.22591,0.02490
5145.15438,0.03290
5147.08285,0.03391
5149.01132,0.03370
5150.93979,0.03725
5152.86826,0.03885
5154.79673,0.03632
5156.72519,0.03118
5158.65366,0.03050
5160.58213,0.03310
5162.51060,0.02539
5164.43907,0.01022
5166.36754,0.00344
5168.29601,0.01252
5170.22448,0.03021
5172.15294,0.03544
5174.08141,0.02285
5176.00988,0.01367
5177.93835,0.02196
5179.86682,0.03440
5181.79529,0.03400
5183.72376,0.02297
5185.65222,0.02066
5187.58069,0.03388
5189.50916,0.04226
5191.43763,0.04057
5193.36610,0.04015
5195.29457,0.04231
5197.22304,0.04441
5199.15151,0.04294
5201.07997,0.03788
5203.00844,0.03584
5204.93691,0.03474
5206.86538,0.02884
5208.79385,0.02853
5210.72232,0.03913
5212.65079,0.04782
5214.57925,0.04481
5216.50772,0.03569
5218.43619,0.03286
5220.36466,0.03279
5222.29313,0.02940
5224.22160,0.03503
5226.15007,0.05062
5228.07854,0.05811
5230.00700,0.05618
5231.93547,0.05196
5233.86394,0.04137
5235.79241,0.02813
5237.72088,0.03178
5239.64935,0.05038
5241.57782,0.05757
5243.50628,0.04436
5245.43475,0.02668
5247.36322,0.02265
5249.29169,0.03421
5251.22016,0.04532
5253.14863,0.04798
5255.07710,0.05179
5257.00556,0.05662
5258.93403,0.05441
5260.86250,0.05385
5262.79097,0.06275
5264.71944,0.06719
5266.64791,0.05921
5268.57638,0.04598
5270.50485,0.03494
5272.43331,0.03081
5274.36178,0.02848
5276.29025,0.03053
5278.21872,0.04529
5280.14719,0.05800
5282.07566,0.05018
5284.00413,0.03881
5285.93259,0.04644
5287.86106,0.06040
5289.78953,0.06639
5291.71800,0.06838
5293.64647,0.07219
5295.57494,0.07278
5297.50341,0.06373
5299.43188,0.05354
5301.36034,0.04697
5303.28881,0.03985
5305.21728,0.03513
5307.14575,0.03544
5309.07422,0.03652
5311.00269,0.03626
5312.93116,0.04254
5314.85962,0.05548
5316.78809,0.06065
5318.71656,0.05723
5320.64503,0.05372
5322.57350,0.05219
5324.50197,0.05821
5326.43044,0.06492
5328.35891,0.06009
5330.28737,0.05233
5332.21584,0.04776
5334.14431,0.05110
5336.07278,0.06936
5338.00125,0.08635
5339.92972,0.08123
5341.85819,0.06870
5343.78665,0.06535
5345.71512,0.06960
5347.64359,0.06908
5349.57206,0.05389
5351.50053,0.03637
5353.42900,0.03996
5355.35747,0.06047
5357.28594,0.07309
5359.21440,0.06539
5361.14287,0.05118
5363.07134,0.05951
5364.99981,0.07466
5366.92828,0.05861
5368.85675,0.02984
5370.78522,0.02186
5372.71368,0.02967
5374.64215,0.04052
5376.57062,0.05279
5378.49909,0.06071
5380.42756,0.06386
5382.35603,0.06386
5384.28450,0.06473
5386.21297,0.07322
5388.14143,0.07296
5390.06990,0.05855
5391.99837,0.05014
5393.92684,0.05101
5395.85531,0.04759
5397.78378,0.04090
5399.71225,0.04128
5401.64071,0.05279
5403.56918,0.06839
5405.49765,0.07417
5407.42612,0.06694
5409.35459,0.06527
5411.28306,0.07845
5413.21153,0.08738
5415.13999,0.08337
5417.06846,0.07637
5418.99693,0.06727
5420.92540,0.05782
5422.85387,0.05931
5424.78234,0.07581
5426.71081,0.10015
5428.63928,0.11431
5430.56774,0.09872
5432.49621,0.07396
5434.42468,0.06888
5436.35315,0.06977
5438.28162,0.05719
5440.21009,0.05046
5442.13856,0.06737
5444.06702,0.08967
5445.99549,0.09522
5447.92396,0.08602
5449.85243,0.07196
5451.78090,0.05729
5453.70937,0.04984
5455.63784,0.05680
5457.56631,0.08191
5459.49477,0.11154
5461.42324,0.11996
5463.35171,0.10363
5465.28018,0.07760
5467.20865,0.05535
5469.13712,0.04496
5471.06559,0.04739
5472.99405,0.05736
5474.92252,0.06243
5476.85099,0.05652
5478.77946,0.05488
5480.70793,0.06334
5482.63640,0.07281
5484.56487,0.07886
5486.49334,0.08912
5488.42180,0.10569
5490.35027,0.10695
5492.27874,0.08955
5494.20721,0.08083
5496.13568,0.08055
5498.06415,0.08004
5499.99262,0.08260
5501.92108,0.08316
5503.84955,0.07649
5505.77802,0.06909
5507.70649,0.07489
5509.63496,0.08824
5511.56343,0.08683
5513.49190,0.07125
5515.42037,0.06381
5517.34883,0.06738
5519.27730,0.06245
5521.20577,0.05211
5523.13424,0.05358
5525.06271,0.05964
5526.99118,0.06137
5528.91965,0.06482
5530.84811,0.06837
5532.77658,0.06841
5534.70505,0.07036
5536.63352,0.08420
5538.56199,0.10642
5540.49046,0.11140
5542.41893,0.09245
5544.34740,0.07901
5546.27586,0.08644
5548.20433,0.09126
5550.13280,0.07407
5552.06127,0.05331
5553.98974,0.04877
5555.91821,0.05499
5557.84668,0.06461
5559.77514,0.07418
5561.70361,0.08068
5563.63208,0.08346
5565.56055,0.07835
5567.48902,0.05993
5569.41749,0.03880
5571.34596,0.03856
5573.27443,0.05391
5575.20289,0.05944
5577.13136,0.06291
5579.05983,0.07706
5580.98830,0.08757
5582.91677,0.08558
5584.84524,0.08537
5586.77371,0.08842
5588.70217,0.08281
5590.63064,0.07927
5592.55911,0.09087
5594.48758,0.10860
5596.41605,0.11732
5598.34452,0.11071
5600.27299,0.09653
5602.20145,0.07814
5604.12992,0.05690
5606.05839,0.04582
5607.98686,0.04421
5609.91533,0.04226
5611.84380,0.04640
5613.77227,0.05520
5615.70074,0.06093
5617.62920,0.06453
5619.55767,0.05548
5621.48614,0.04068
5623.41461,0.04469
5625.34308,0.06017
5627.27155,0.07200
5629.20002,0.08334
5631.12848,0.08897
5633.05695,0.08099
5634.98542,0.07062
5636.91389,0.07092
5638.84236,0.07227
5640.77083,0.06862
5642.69930,0.07029
5644.62777,0.07085
5646.55623,0.05334
5648.48470,0.03125
5650.41317,0.03720
5652.34164,0.06829
5654.27011,0.09097
5656.19858,0.09122
5658.12705,0.06713
5660.05551,0.02904
5661.98398,0.02022
5663.91245,0.05368
5665.84092,0.08204
5667.76939,0.07680
5669.69786,0.06350
5671.62633,0.07489
5673.55480,0.09533
5675.48326,0.09157
5677.41173,0.07388
5679.34020,0.07067
5681.26867,0.08663
5683.19714,0.10067
5685.12561,0.09303
5687.05408,0.07477
5688.98254,0.06177
5690.91101,0.05329
5692.83948,0.04667
5694.76795,0.05054
5696.69642,0.07559
5698.62489,0.09863
5700.55336,0.09131
5702.48183,0.07642
5704.41029,0.07012
5706.33876,0.06780
5708.26723,0.08323
5710.19570,0.10575
5712.12417,0.10951
5714.05264,0.09965
5715.98111,0.09024
5717.90957,0.08905
5719.83804,0.09698
5721.76651,0.09838
5723.69498,0.08032
5725.62345,0.06016
5727.55192,0.05835
5729.48039,0.06748
5731.40886,0.08716
5733.33732,0.11457
5735.26579,0.11677
5737.19426,0.09553
5739.12273,0.08006
5741.05120,0.06486
5742.97967,0.05356
5744.90814,0.06118
5746.83660,0.08131
5748.76507,0.09296
5750.69354,0.09044
5752.62201,0.08445
5754.55048,0.07561
5756.47895,0.07071
5758.40742,0.07194
5760.33588,0.07070
5762.26435,0.08419
5764.19282,0.11271
5766.12129,0.10825
5768.04976,0.07651
5769.97823,0.07349
5771.90670,0.08904
5773.83517,0.08189
5775.76363,0.07285
5777.69210,0.08316
5779.62057,0.09671
5781.54904,0.10198
5783.47751,0.08977
5785.40598,0.07589
5787.33445,0.09173
5789.26291,0.11889
5791.19138,0.12644
5793.11985,0.11825
5795.04832,0.09976
5796.97679,0.06024
5798.90526,0.02958
5800.83373,0.04909
5802.76220,0.08243
5804.69066,0.08525
5806.61913,0.07686
5808.54760,0.07862
5810.47607,0.07695
5812.40454,0.06221
5814.33301,0.06289
5816.26148,0.08626
5818.18994,0.08937
5820.11841,0.06173
5822.04688,0.04534
5823.97535,0.06224
5825.90382,0.08802
5827.83229,0.09206
5829.76076,0.08014
5831.68923,0.07601
5833.61769,0.08088
5835.54616,0.08109
5837.47463,0.06410
5839.40310,0.04277
5841.33157,0.04197
5843.26004,0.05669
5845.18851,0.06795
5847.11697,0.06985
5849.04544,0.07220
5850.97391,0.07748
5852.90238,0.08041
5854.83085,0.08418
5856.75932,0.07840
5858.68779,0.06818
5860.61626,0.08200
5862.54472,0.11530
5864.47319,0.12592
5866.40166,0.09285
5868.33013,0.05785
5870.25860,0.05130
5872.18707,0.05680
5874.11554,0.06647
5876.04400,0.08042
5877.97247,0.10283
5879.90094,0.12186
5881.82941,0.10462
5883.75788,0.07827
5885.68635,0.08711
5887.61482,0.10402
5889.54329,0.10196
5891.47175,0.09130
5893.40022,0.07620
5895.32869,0.06713
5897.25716,0.06978
5899.18563,0.07258
5901.11410,0.07388
5903.04257,0.07943
5904.97103,0.09059
5906.89950,0.09691
5908.82797,0.07867
5910.75644,0.05636
5912.68491,0.06562
5914.61338,0.07721
5916.54185,0.06932
5918.47032,0.06471
5920.39878,0.05927
5922.32725,0.04680
5924.25572,0.04356
5926.18419,0.06482
5928.11266,0.09218
5930.04113,0.09399
5931.96960,0.09019
5933.89806,0.10093
5935.82653,0.10073
5937.75500,0.09292
5939.68347,0.10273
5941.61194,0.10637
5943.54041,0.08985
5945.46888,0.07992
5947.39734,0.09251
5949.32581,0.11778
5951.25428,0.10955
5953.18275,0.06963
5955.11122,0.05076
5957.03969,0.06038
5958.96816,0.08077
5960.89663,0.08227
5962.82509,0.05772
5964.75356,0.05075
5966.68203,0.08657
5968.61050,0.13386
5970.53897,0.14660
5972.46744,0.12249
5974.39591,0.09963
5976.32437,0.08879
5978.25284,0.07964
5980.18131,0.08551
5982.10978,0.10220
5984.03825,0.10471
5985.96672,0.08512
5987.89519,0.06188
5989.82366,0.05262
5991.75212,0.05176
5993.68059,0.06345
5995.60906,0.09231
5997.53753,0.11086
5999.46600,0.10605
6001.39447,0.10016
6003.32294,0.10463
6005.25140,0.10505
6007.17987,0.10031
6009.10834,0.09830
6011.03681,0.08932
6012.96528,0.06766
6014.89375,0.04274
6016.82222,0.04122
6018.75069,0.07874
6020.67915,0.11616
6022.60762,0.12303
6024.53609,0.10244
6026.46456,0.06855
6028.39303,0.05061
6030.32150,0.05170
6032.24997,0.05267
6034.17843,0.05129
6036.10690,0.05314
6038.03537,0.06775
6039.96384,0.09954
6041.89231,0.12393
6043.82078,0.11690
6045.74925,0.10244
6047.67772,0.10037
6049.60618,0.09617
6051.53465,0.09113
6053.46312,0.10084
6055.39159,0.09833
6057.32006,0.06846
6059.24853,0.05485
6061.17700,0.06143
6063.10546,0.06359
6065.03393,0.05897
6066.96240,0.05619
6068.89087,0.06318
6070.81934,0.07217
6072.74781,0.07715
6074.67628,0.07961
6076.60475,0.08872
6078.53321,0.11422
6080.46168,0.11964
6082.39015,0.07175
6084.31862,0.02414
6086.24709,0.03748
6088.17556,0.07963
6090.10403,0.08532
6092.03249,0.05581
6093.96096,0.03988
6095.88943,0.05008
6097.81790,0.06252
6099.74637,0.06471
6101.67484,0.06579
6103.60331,0.08425
6105.53177,0.11931
6107.46024,0.12720
6109.38871,0.07679
6111.31718,0.04128
6113.24565,0.07081
6115.17412,0.10200
6117.10259,0.09902
6119.03106,0.09944
6120.95952,0.10708
6122.88799,0.09661
6124.81646,0.09286
6126.74493,0.10524
6128.67340,0.11621
6130.60187,0.11826
6132.53034,0.11098
6134.45880,0.10918
6136.38727,0.10209
6138.31574,0.06194
6140.24421,0.01666
6142.17268,0.02601
6144.10115,0.06980
6146.02962,0.08457
6147.95809,0.06854
6149.88655,0.03766
6151.81502,0.01139
6153.74349,0.02003
6155.67196,0.03936
6157.60043,0.03879
6159.52890,0.04593
6161.45737,0.06577
6163.38583,0.06159
6165.31430,0.03552
6167.24277,0.04719
6169.17124,0.10696
6171.09971,0.13254
6173.02818,0.08910
6174.95665,0.04496
6176.88512,0.04496
6178.81358,0.06205
6180.74205,0.07078
6182.67052,0.09057
6184.59899,0.12086
6186.52746,0.12918
6188.45593,0.10744
6190.38440,0.08378
6192.31286,0.06654
6194.24133,0.06560
6196.16980,0.08960
6198.09827,0.11503
6200.02674,0.12267
6201.95521,0.10908
6203.88368,0.09341
6205.81215,0.08102
6207.74061,0.05498
6209.66908,0.03558
6211.59755,0.03762
6213.52602,0.04375
6215.45449,0.05728
6217.38296,0.06273
6219.31143,0.03457
6221.23989,0.00978
6223.16836,0.02659
6225.09683,0.05469
6227.02530,0.05640
6228.95377,0.06179
6230.88224,0.09872
6232.81071,0.11372
6234.73918,0.07029
6236.66764,0.02195
6238.59611,0.02076
6240.52458,0.06889
6242.45305,0.12194
6244.38152,0.13520
6246.30999,0.12702
6248.23846,0.12109
6250.16692,0.08901
6252.09539,0.04936
6254.02386,0.05651
6255.95233,0.08334
6257.88080,0.08617
6259.80927,0.09355
6261.73774,0.12317
6263.66621,0.11578
6265.59467,0.05015
6267.52314,0.02390
6269.45161,0.06824
6271.38008,0.09912
6273.30855,0.09131
6275.23702,0.07318
6277.16549,0.06163
6279.09395,0.06834
6281.02242,0.09548
6282.95089,0.12275
6284.87936,0.10427
6286.80783,0.05781
6288.73630,0.04563
6290.66477,0.05860
6292.59323,0.06577
6294.52170,0.08201
6296.45017,0.09676
6298.37864,0.08406
6300.30711,0.06865
6302.23558,0.07390
6304.16405,0.07873
6306.09252,0.06244
6308.02098,0.04212
6309.94945,0.04889
6311.87792,0.06763
6313.80639,0.06691
6315.73486,0.05350
6317.66333,0.05502
6319.59180,0.08327
6321.52026,0.11784
6323.44873,0.11727
6325.37720,0.09215
6327.30567,0.08561
6329.23414,0.08801
6331.16261,0.10014
6333.09108,0.12427
6335.01955,0.11551
6336.94801,0.08687
6338.87648,0.07667
6340.80495,0.07093
6342.73342,0.05708
6344.66189,0.05199
6346.59036,0.06851
6348.51883,0.09636
6350.44729,0.10786
6352.37576,0.08418
6354.30423,0.05868
6356.23270,0.06896
6358.16117,0.09988
6360.08964,0.11930
6362.01811,0.12162
6363.94658,0.11211
6365.87504,0.10732
6367.80351,0.11357
6369.73198,0.09789
6371.66045,0.05267
6373.58892,0.03297
6375.51739,0.04766
6377.44586,0.05496
6379.37432,0.08161
6381.30279,0.13512
6383.23126,0.15130
6385.15973,0.11026
6387.08820,0.06938
6389.01667,0.06203
6390.94514,0.08922
6392.87361,0.11718
6394.80207,0.08935
6396.73054,0.04066
6398.65901,0.03833
6400.58748,0.07219
6402.51595,0.09220
6404.44442,0.07955
6406.37289,0.05580
6408.30135,0.05504
6410.22982,0.06275
6412.15829,0.03525
6414.08676,0.00533
6416.01523,0.01513
6417.94370,0.04564
6419.87217,0.06257
6421.80064,0.05364
6423.72910,0.04183
6425.65757,0.04380
6427.58604,0.03169
6429.51451,0.00222
6431.44298,0.00795
6433.37145,0.06411
6435.29992,0.12301
6437.22838,0.12469
6439.15685,0.07022
6441.08532,0.03452
6443.01379,0.03623
6444.94226,0.06669
6446.87073,0.11765
6448.79920,0.15239
6450.72766,0.14692
6452.65613,0.12400
6454.58460,0.10372
6456.51307,0.09140
6458.44154,0.10477
6460.37001,0.13276
6462.29848,0.15393
6464.22695,0.15197
6466.15541,0.11825
6468.08388,0.09161
6470.01235,0.09030
6471.94082,0.09107
6473.86929,0.08426
6475.79776,0.04752
6477.72623,0.00889
6479.65469,0.03282
6481.58316,0.06439
6483.51163,0.03663
6485.44010,-0.00406
6487.36857,-0.01989
6489.29704,-0.00006
6491.22551,0.07265
6493.15398,0.15922
6495.08244,0.18574
6497.01091,0.16112
6498.93938,0.13082
6500.86785,0.12808
6502.79632,0.15377
6504.72479,0.14313
6506.65326,0.08544
6508.58172,0.04317
6510.51019,0.01512
6512.43866,-0.02928
6514.36713,-0.03360
6516.29560,0.01507
6518.22407,0.02966
6520.15254,0.01094
6522.08101,0.02448
6524.00947,0.06575
6525.93794,0.11090
6527.86641,0.13276
6529.79488,0.08994
6531.72335,0.02671
6533.65182,0.01900
6535.58029,0.03520
6537.50875,0.04612
6539.43722,0.08667
6541.36569,0.12110
6543.29416,0.11151
6545.22263,0.09773
6547.15110,0.10785
6549.07957,0.13126
6551.00804,0.11437
6552.93650,0.06668
6554.86497,0.07737
6556.79344,0.12036
6558.72191,0.11659
6560.65038,0.08968
6562.57885,0.08549
6564.50732,0.07132
6566.43578,0.02185
6568.36425,-0.00784
6570.29272,0.02526
6572.22119,0.09550
6574.14966,0.13811
6576.07813,0.13696
6578.00660,0.12962
6579.93507,0.10587
6581.86353,0.06598
6583.79200,0.07471
6585.72047,0.11083
6587.64894,0.11124
6589.57741,0.07793
6591.50588,0.04412
6593.43435,0.03503
6595.36281,0.04286
6597.29128,0.05500
6599.21975,0.08021
6601.14822,0.12181
6603.07669,0.14575
6605.00516,0.13382
6606.93363,0.12680
6608.86210,0.14744
6610.79056,0.15078
6612.71903,0.08495
6614.64750,-0.02422
6616.57597,-0.08365
6618.50444,-0.03406
6620.43291,0.07794
6622.36138,0.14814
6624.28984,0.11437
6626.21831,0.05795
6628.14678,0.04366
6630.07525,0.03175
6632.00372,0.03359
6633.93219,0.07654
6635.86066,0.08899
6637.78912,0.02888
6639.71759,0.01060
6641.64606,0.07755
6643.57453,0.13104
6645.50300,0.13126
6647.43147,0.12572
6649.35994,0.09930
6651.28841,0.03494
6653.21687,-0.01416
6655.14534,-0.00745
6657.07381,0.03107
6659.00228,0.05332
6660.93075,0.06321
6662.85922,0.08929
6664.78769,0.09937
6666.71615,0.06470
6668.64462,0.02844
6670.57309,0.01483
6672.50156,0.01767
6674.43003,0.06497
6676.35850,0.11335
6678.28697,0.09887
6680.21544,0.07626
6682.14390,0.08365
6684.07237,0.08636
6686.00084,0.10392
6687.92931,0.14585
6689.85778,0.13273
6691.78625,0.05461
6693.71472,-0.01627
6695.64318,-0.04700
6697.57165,-0.01661
6699.50012,0.04474
6701.42859,0.05143
6703.35706,0.02707
6705.28553,0.02373
6707.21400,0.00246
6709.14247,-0.01923
6711.07093,-0.01943
6712.99940,-0.02009
6714.92787,-0.00473
6716.85634,0.04919
6718.78481,0.09035
6720.71328,0.05776
6722.64175,0.01089
6724.57021,-0.01263
6726.49868,-0.02115
6728.42715,0.03242
6730.35562,0.11979
6732.28409,0.13908
6734.21256,0.09759
6736.14103,0.05432
6738.06950,0.01340
6739.99796,-0.00207
6741.92643,0.02266
6743.85490,0.04231
6745.78337,0.05713
6747.71184,0.06410
6749.64031,0.06456
6751.56878,0.08295
6753.49724,0.07772
6755.42571,0.05875
6757.35418,0.08389
6759.28265,0.13098
6761.21112,0.15082
6763.13959,0.13240
6765.06806,0.09470
6766.99653,0.05228
6768.92499,0.02997
6770.85346,0.04372
6772.78193,0.06633
6774.71040,0.05568
6776.63887,0.02176
6778.56734,0.02381
6780.49581,0.04066
6782.42427,0.04043
6784.35274,0.05341
6786.28121,0.08587
6788.20968,0.11522
6790.13815,0.10339
6792.06662,0.04977
6793.99509,0.02673
6795.92355,0.02497
6797.85202,-0.00878
6799.78049,-0.06502
6801.70896,-0.09483
6803.63743,-0.05809
6805.56590,0.00179
6807.49437,0.01520
6809.42284,-0.00567
6811.35130,-0.01638
6813.27977,-0.00588
6815.20824,0.01931
6817.13671,0.06648
6819.06518,0.10454
6820.99365,0.11219
6822.92212,0.10757
6824.85058,0.11129
6826.77905,0.10655
6828.70752,0.06400
6830.63599,0.03494
6832.56446,0.06240
6834.49293,0.08677
6836.42140,0.09990
6838.34987,0.15119
6840.27833,0.18724
6842.20680,0.14516
6844.13527,0.08236
6846.06374,0.05651
6847.99221,0.06704
6849.92068,0.08320
6851.84915,0.06083
6853.77761,0.04404
6855.70608,0.07911
6857.63455,0.10444
6859.56302,0.05490
6861.49149,-0.02959
6863.41996,-0.05042
6865.34843,0.00283
6867.27690,0.07026
6869.20536,0.09485
6871.13383,0.06362
6873.06230,0.02348
6874.99077,0.01400
6876.91924,0.00124
6878.84771,-0.03313
6880.77618,-0.03112
6882.70464,0.04899
6884.63311,0.13439
6886.56158,0.14636
6888.49005,0.12929
6890.41852,0.14756
6892.34699,0.15345
6894.27546,0.12794
6896.20393,0.10357
6898.13239,0.09276
6900.06086,0.10050
6901.98933,0.12418
6903.91780,0.15119
6905.84627,0.14543
6907.77474,0.09953
6909.70321,0.04937
6911.63167,0.03852
6913.56014,0.09461
6915.48861,0.17465
6917.41708,0.21845
6919.34555,0.22352
6921.27402,0.19328
6923.20249,0.12133
6925.13096,0.04684
6927.05942,-0.00410
6928.98789,0.01532
6930.91636,0.14104
6932.84483,0.20016
6934.77330,0.10284
6936.70177,0.01307
6938.63024,0.00102
6940.55870,0.02957
6942.48717,0.03478
6944.41564,0.02256
6946.34411,0.06535
6948.27258,0.12866
6950.20105,0.07918
6952.12952,-0.03963
6954.05799,-0.06542
6955.98645,-0.01724
6957.91492,-0.02249
6959.84339,-0.02591
6961.77186,0.03073
6963.70033,0.07404
6965.62880,0.06206
6967.55727,0.04145
6969.48573,0.04768
6971.41420,0.06966
6973.34267,0.08733
6975.27114,0.06858
6977.19961,0.00018
6979.12808,-0.09155
6981.05655,-0.10334
6982.98501,-0.00134
6984.91348,0.06559
6986.84195,0.08003
6988.77042,0.11019
6990.69889,0.09952
6992.62736,0.06390
6994.55583,0.06362
6996.48430,0.08732
6998.41276,0.08860
7000.34123,0.03749
7002.26970,-0.02948
7004.19817,-0.05887
7006.12664,-0.03563
7008.05511,0.00029
7009.98358,0.00992
7011.91204,0.02402
7013.84051,0.02334
7015.76898,0.01289
7017.69745,0.03494
7019.62592,0.04713
7021.55439,0.06191
7023.48286,0.07789
7025.41133,0.02924
7027.33979,-0.01456
7029.26826,0.00666
7031.19673,0.04884
7033.12520,0.15094
7035.05367,0.26422
7036.98214,0.22351
7038.91061,0.08606
7040.83907,-0.00363
7042.76754,0.03944
7044.69601,0.16433
7046.62448,0.25867
7048.55295,0.26633
7050.48142,0.18394
7052.40989,0.08825
7054.33836,0.02496
7056.26682,-0.03056
7058.19529,-0.04144
7060.12376,0.00289
7062.05223,0.01568
7063.98070,-0.02076
7065.90917,-0.06419
7067.83764,-0.06820
7069.76610,0.02235
7071.69457,0.14642
7073.62304,0.10803
7075.55151,-0.04564
7077.47998,-0.09667
7079.40845,-0.01632
7081.33692,0.04603
7083.26539,0.05739
7085.19385,0.06870
7087.12232,0.05701
7089.05079,0.06249
7090.97926,0.12793
7092.90773,0.15327
7094.83620,0.03642
7096.76467,-0.13331
7098.69313,-0.18571
7100.62160,-0.09617
7102.55007,0.02852
7104.47854,0.12195
7106.40701,0.13892
7108.33548,0.10093
7110.26395,0.05404
7112.19242,0.00914
7114.12088,-0.02256
7116.04935,-0.03973
7117.97782,-0.01999
7119.90629,0.05632
7121.83476,0.09379
7123.76323,0.05695
7125.69170,0.03049
7127.62016,0.03145
7129.54863,0.00895
7131.47710,-0.04464
7133.40557,-0.07595
7135.33404,-0.02925
7137.26251,0.03627
7139.19098,0.05100
7141.11944,0.06445
7143.04791,0.09140
7144.97638,0.08111
7146.90485,0.04366
7148.83332,-0.01280
7150.76179,-0.08186
7152.69026,-0.10449
7154.61873,-0.02511
7156.54719,0.05558
7158.47566,0.06340
7160.40413,0.09028
7162.33260,0.13277
7164.26107,0.07800
7166.18954,-0.01419
7168.11801,0.07920
7170.04647,0.28183
7171.97494,0.22105
7173.90341,-0.03933
7175.83188,-0.14803
7177.76035,-0.07384
7179.68882,-0.00937
7181.61729,0.03338
7183.54576,0.10413
7185.47422,0.17608
7187.40269,0.22550
7189.33116,0.26471
7191.25963,0.26328
7193.18810,0.15961
7195.11657,0.04755
7197.04504,0.00318
7198.97350,-0.01479
7200.90197,-0.02474
7202.83044,-0.03889
7204.75891,-0.07503
7206.68738,-0.05204
7208.61585,0.05519
7210.54432,0.13921
7212.47279,0.13318
7214.40125,0.11551
7216.32972,0.16344
7218.25819,0.18609
7220.18666,0.15471
7222.11513,0.14345
7224.04360,0.09859
7225.97207,0.04237
7227.90053,0.07473
7229.82900,0.09298
7231.75747,-0.01653
7233.68594,-0.10803
7235.61441,-0.10261
7237.54288,-0.01750
7239.47135,0.10558
7241.39982,0.15016
7243.32828,0.07470
7245.25675,0.04586
7247.18522,0.09220
7249.11369,0.09837
7251.04216,0.09301
7252.97063,0.17307
7254.89910,0.24204
7256.82756,0.22858
7258.75603,0.19773
7260.68450,0.19312
7262.61297,0.17936
7264.54144,0.10713
7266.46991,0.06139
7268.39838,0.11040
7270.32685,0.21774
7272.25531,0.26742
7274.18378,0.19722
7276.11225,0.12172
7278.04072,0.08601
7279.96919,0.09551
7281.89766,0.13681
7283.82613,0.11135
7285.75459,-0.00330
7287.68306,-0.08062
7289.61153,-0.04858
7291.54000,-0.00560
7293.46847,-0.01053
7295.39694,0.00594
7297.32541,-0.00238
7299.25387,-0.07996
7301.18234,-0.13405
7303.11081,-0.10582
7305.03928,-0.04003
7306.96775,0.04607
7308.89622,0.13437
7310.82469,0.13088
7312.75316,0.07847
7314.68162,0.04450
7316.61009,-0.00504
7318.53856,-0.05191
7320.46703,-0.02131
7322.39550,0.05635
7324.32397,0.11172
7326.25244,0.10679
7328.18090,0.07345
7330.10937,0.06235
7332.03784,0.03858
7333.96631,0.01401
7335.89478,0.02380
7337.82325,0.01738
7339.75172,-0.00128
7341.68019,0.01216
7343.60865,-0.05557
7345.53712,-0.14636
7347.46559,-0.10680
7349.39406,0.01898
7351.32253,0.12296
7353.25100,0.13479
7355.17947,0.03416
7357.10793,-0.04441
7359.03640,0.07362
7360.96487,0.19030
7362.89334,0.16733
7364.82181,0.15155
7366.75028,0.14633
7368.67875,0.05885
7370.60722,-0.07271
7372.53568,-0.12246
7374.46415,-0.09487
7376.39262,-0.01699
7378.32109,0.14182
7380.24956,0.25435
7382.17803,0.18047
7384.10650,0.01128
7386.03496,-0.09827
7387.96343,-0.03891
7389.89190,0.11169
7391.82037,0.13968
7393.74884,0.10420
7395.67731,0.17434
7397.60578,0.21641
7399.53425,0.16592
7401.46271,0.14318
7403.39118,0.13140
7405.31965,0.05083
7407.24812,-0.02028
7409.17659,-0.00752
7411.10506,0.03146
7413.03353,0.05308
7414.96199,0.10079
7416.89046,0.16564
7418.81893,0.17416
7420.74740,0.10092
7422.67587,-0.00529
7424.60434,-0.05189
7426.53281,-0.00944
7428.46128,0.06882
7430.38974,0.09505
7432.31821,0.05774
7434.24668,0.10694
7436.17515,0.22079
7438.10362,0.19676
7440.03209,0.08160
7441.96056,0.07284
7443.88902,0.09792
7445.81749,0.04703
7447.74596,0.01790
7449.67443,0.04681
7451.60290,0.04473
7453.53137,0.03428
7455.45984,0.02543
7457.38831,-0.05798
7459.31677,-0.14001
7461.24524,-0.07545
7463.17371,-0.00056
7465.10218,0.01755
7467.03065,0.09874
7468.95912,0.21414
7470.88759,0.22668
7472.81605,0.13042
7474.74452,0.04469
7476.67299,0.01468
7478.60146,-0.02610
7480.52993,-0.17222
7482.45840,-0.24928
7484.38687,-0.13713
7486.31533,0.00279
7488.24380,0.09947
7490.17227,0.13371
7492.10074,0.08874
7494.02921,0.01802
7495.95768,-0.04544
7497.88615,-0.05543
