399.19301,0.91049
401.12148,0.86723
403.04995,0.39136
404.97842,0.08981
406.90689,-0.03275
408.83536,-0.01270
410.76382,0.11067
412.69229,0.14276
414.62076,0.03660
416.54923,-0.03318
418.47770,0.09275
420.40617,0.20689
422.33464,0.08752
424.26311,-0.00239
426.19157,0.04099
428.12004,0.08678
430.04851,0.13516
431.97698,0.21993
433.90545,0.22580
435.83392,0.17922
437.76239,0.21252
439.69085,0.30548
441.61932,0.31823
443.54779,0.22876
445.47626,0.16570
447.40473,0.12379
449.33320,0.08438
451.26167,0.09994
453.19013,0.12175
455.11860,0.09120
457.04707,0.06633
458.97554,0.09497
460.90401,0.11076
462.83248,0.09194
464.76095,0.06407
466.68942,0.02311
468.61788,-0.02237
470.54635,-0.02526
472.47482,0.03036
474.40329,0.01541
476.33176,-0.04291
478.26023,0.00667
480.18870,0.09054
482.11716,0.13790
484.04563,0.13180
485.97410,0.08142
487.90257,0.02995
489.83104,0.02061
491.75951,0.03918
493.68798,0.04152
495.61645,0.03331
497.54491,0.07705
499.47338,0.17294
501.40185,0.23406
503.33032,0.20908
505.25879,0.14804
507.18726,0.10034
509.11573,0.08280
511.04419,0.09045
512.97266,0.08467
514.90113,0.04710
516.82960,0.03632
518.75807,0.09075
520.68654,0.14142
522.61501,0.13422
524.54348,0.09144
526.47194,0.06275
528.40041,0.05634
530.32888,0.05283
532.25735,0.04949
534.18582,0.05380
536.11429,0.06887
538.04276,0.09374
539.97122,0.12428
541.89969,0.13332
543.82816,0.10522
545.75663,0.08118
547.68510,0.07337
549.61357,0.04499
551.54204,-0.08449
553.47051,-0.25130
555.39897,-0.20263
557.32744,0.00589
559.25591,0.10566
561.18438,0.12088
563.11285,0.15145
565.04132,0.17411
566.96979,0.15454
568.89825,0.12298
570.82672,0.11091
572.75519,0.10077
574.68366,0.08712
576.61213,0.07752
578.54060,0.09171
580.46907,0.12976
582.39754,0.14826
584.32600,0.13266
586.25447,0.10692
588.18294,0.08901
590.11141,0.08629
592.03988,0.09661
593.96835,0.10391
595.89682,0.09329
597.82528,0.07769
599.75375,0.08167
601.68222,0.10394
603.61069,0.12584
605.53916,0.12782
607.46763,0.11450
609.39610,0.11470
611.32456,0.12866
613.25303,0.13426
615.18150,0.12522
617.10997,0.11351
619.03844,0.11011
620.96691,0.11078
622.89538,0.11047
624.82385,0.10988
626.75231,0.10869
628.68078,0.10697
630.60925,0.11629
632.53772,0.13629
634.46619,0.12983
636.39466,0.10242
638.32313,0.10003
640.25159,0.11438
642.18006,0.11549
644.10853,0.11024
646.03700,0.10885
647.96547,0.10503
649.89394,0.10209
651.82241,0.11364
653.75088,0.12747
655.67934,0.12564
657.60781,0.11851
659.53628,0.11950
661.46475,0.12578
663.39322,0.12953
665.32169,0.12784
667.25016,0.11900
669.17862,0.11328
671.10709,0.12954
673.03556,0.13971
674.96403,0.12299
676.89250,0.10135
678.82097,0.10087
680.74944,0.11223
682.67791,0.12144
684.60637,0.12586
686.53484,0.11857
688.46331,0.09922
690.39178,0.09777
692.32025,0.12429
694.24872,0.13985
696.17719,0.12447
698.10565,0.10450
700.03412,0.10244
701.96259,0.11273
703.89106,0.12727
705.81953,0.14066
707.74800,0.13608
709.67647,0.11266
711.60494,0.09815
713.53340,0.10694
715.46187,0.12404
717.39034,0.13170
719.31881,0.12953
721.24728,0.12669
723.17575,0.12929
725.10422,0.13165
727.03268,0.12247
728.96115,0.11308
730.88962,0.12333
732.81809,0.14117
734.74656,0.14321
736.67503,0.13577
738.60350,0.13633
740.53197,0.14408
742.46043,0.15025
744.38890,0.14512
746.31737,0.12690
748.24584,0.11573
750.17431,0.12383
752.10278,0.13650
754.03125,0.14115
755.95971,0.13813
757.88818,0.13072
759.81665,0.12664
761.74512,0.12784
763.67359,0.12675
765.60206,0.11864
767.53053,0.10895
769.45900,0.10890
771.38746,0.11583
773.31593,0.12035
775.24440,0.12521
777.17287,0.13003
779.10134,0.12890
781.02981,0.12626
782.95828,0.13081
784.88674,0.14044
786.81521,0.14212
788.74368,0.13227
790.67215,0.12735
792.60062,0.13234
794.52909,0.13522
796.45756,0.13590
798.38602,0.13327
800.31449,0.12461
802.24296,0.12632
804.17143,0.14127
806.09990,0.14774
808.02837,0.13522
809.95684,0.12251
811.88531,0.13404
813.81377,0.15256
815.74224,0.14840
817.67071,0.13715
819.59918,0.13455
821.52765,0.13111
823.45612,0.12638
825.38459,0.12433
827.31305,0.11669
829.24152,0.10264
831.16999,0.10387
833.09846,0.12120
835.02693,0.13037
836.95540,0.12988
838.88387,0.12877
840.81234,0.12818
842.74080,0.13263
844.66927,0.14161
846.59774,0.14146
848.52621,0.12736
850.45468,0.11800
852.38315,0.12797
854.31162,0.14616
856.24008,0.15288
858.16855,0.14563
860.09702,0.13900
862.02549,0.14135
863.95396,0.14485
865.88243,0.13810
867.81090,0.12587
869.73937,0.12329
871.66783,0.12948
873.59630,0.13410
875.52477,0.13152
877.45324,0.12369
879.38171,0.12170
881.31018,0.12556
883.23865,0.12807
885.16711,0.13012
887.09558,0.12911
889.02405,0.12446
890.95252,0.12515
892.88099,0.13347
894.80946,0.14118
896.73793,0.14665
898.66640,0.14870
900.59486,0.14129
902.52333,0.13528
904.45180,0.13816
906.38027,0.13796
908.30874,0.13473
910.23721,0.13537
912.16568,0.13736
914.09414,0.13869
916.02261,0.13963
917.95108,0.13902
919.87955,0.13538
921.80802,0.13443
923.73649,0.14054
925.66496,0.14190
927.59343,0.13305
929.52189,0.12599
931.45036,0.12607
933.37883,0.12861
935.30730,0.13039
937.23577,0.13020
939.16424,0.12862
941.09271,0.12896
943.02117,0.13391
944.94964,0.13917
946.87811,0.13854
948.80658,0.13625
950.73505,0.14118
952.66352,0.15100
954.59199,0.15393
956.52045,0.14979
958.44892,0.14576
960.37739,0.14020
962.30586,0.13833
964.23433,0.14479
966.16280,0.14815
968.09127,0.14282
970.01974,0.13719
971.94820,0.13627
973.87667,0.13842
975.80514,0.14342
977.73361,0.14799
979.66208,0.14805
981.59055,0.14705
983.51902,0.14759
985.44748,0.14413
987.37595,0.13605
989.30442,0.13527
991.23289,0.14117
993.16136,0.13964
995.08983,0.13644
997.01830,0.14315
998.94677,0.14906
1000.87523,0.14639
1002.80370,0.14489
1004.73217,0.14739
1006.66064,0.14509
1008.58911,0.13761
1010.51758,0.13378
1012.44605,0.13489
1014.37451,0.13956
1016.30298,0.14791
1018.23145,0.15290
1020.15992,0.14950
1022.08839,0.14552
1024.01686,0.15149
1025.94533,0.16192
1027.87380,0.16446
1029.80226,0.15495
1031.73073,0.14417
1033.65920,0.14710
1035.58767,0.15610
1037.51614,0.15815
1039.44461,0.15592
1041.37308,0.15395
1043.30154,0.15337
1045.23001,0.15234
1047.15848,0.14839
1049.08695,0.14429
1051.01542,0.14358
1052.94389,0.14566
1054.87236,0.15046
1056.80083,0.15575
1058.72929,0.15415
1060.65776,0.14597
1062.58623,0.14448
1064.51470,0.15395
1066.44317,0.15943
1068.37164,0.15481
1070.30011,0.15040
1072.22857,0.14942
1074.15704,0.14854
1076.08551,0.15106
1078.01398,0.15553
1079.94245,0.15352
1081.87092,0.15020
1083.79939,0.15435
1085.72786,0.15715
1087.65632,0.14931
1089.58479,0.13900
1091.51326,0.13914
1093.44173,0.14999
1095.37020,0.16149
1097.29867,0.16758
1099.22714,0.16675
1101.15560,0.16400
1103.08407,0.16567
1105.01254,0.16471
1106.94101,0.15797
1108.86948,0.15417
1110.79795,0.15468
1112.72642,0.15444
1114.65489,0.15391
1116.58335,0.15467
1118.51182,0.15524
1120.44029,0.15504
1122.36876,0.15447
1124.29723,0.15677
1126.22570,0.15893
1128.15417,0.15338
1130.08263,0.14572
1132.01110,0.14234
1133.93957,0.14400
1135.86804,0.15102
1137.79651,0.15585
1139.72498,0.15443
1141.65345,0.15350
1143.58191,0.15578
1145.51038,0.15770
1147.43885,0.15711
1149.36732,0.15538
1151.29579,0.15517
1153.22426,0.15547
1155.15273,0.15539
1157.08120,0.15864
1159.00966,0.16334
1160.93813,0.16157
1162.86660,0.15572
1164.79507,0.15401
1166.72354,0.15325
1168.65201,0.15177
1170.58048,0.15516
1172.50894,0.15893
1174.43741,0.15887
1176.36588,0.15939
1178.29435,0.16075
1180.22282,0.15989
1182.15129,0.15813
1184.07976,0.15752
1186.00823,0.15592
1187.93669,0.15544
1189.86516,0.15802
1191.79363,0.15844
1193.72210,0.15796
1195.65057,0.16081
1197.57904,0.16342
1199.50751,0.16319
1201.43597,0.16376
1203.36444,0.16647
1205.29291,0.16660
1207.22138,0.16276
1209.14985,0.15953
1211.07832,0.15846
1213.00679,0.15749
1214.93526,0.15698
1216.86372,0.15791
1218.79219,0.15970
1220.72066,0.16227
1222.64913,0.16446
1224.57760,0.16447
1226.50607,0.16223
1228.43454,0.15956
1230.36300,0.15892
1232.29147,0.15919
1234.21994,0.15833
1236.14841,0.15954
1238.07688,0.16277
1240.00535,0.16214
1241.93382,0.15932
1243.86229,0.15901
1245.79075,0.15918
1247.71922,0.15895
1249.64769,0.15858
1251.57616,0.15634
1253.50463,0.15448
1255.43310,0.15797
1257.36157,0.16468
1259.29003,0.16738
1261.21850,0.16672
1263.14697,0.16812
1265.07544,0.17088
1267.00391,0.17212
1268.93238,0.17372
1270.86085,0.17518
1272.78932,0.17181
1274.71778,0.16707
1276.64625,0.16781
1278.57472,0.17193
1280.50319,0.17277
1282.43166,0.16946
1284.36013,0.16803
1286.28860,0.16976
1288.21706,0.17108
1290.14553,0.17238
1292.07400,0.17257
1294.00247,0.17081
1295.93094,0.17132
1297.85941,0.17304
1299.78788,0.17033
1301.71634,0.16425
1303.64481,0.16092
1305.57328,0.16258
1307.50175,0.16715
1309.43022,0.17244
1311.35869,0.17570
1313.28716,0.17547
1315.21563,0.17507
1317.14409,0.17833
1319.07256,0.18167
1321.00103,0.17947
1322.92950,0.17500
1324.85797,0.17094
1326.78644,0.16622
1328.71491,0.16402
1330.64337,0.16415
1332.57184,0.16292
1334.50031,0.16295
1336.42878,0.16933
1338.35725,0.18077
1340.28572,0.18359
1342.21419,0.17340
1344.14266,0.16475
1346.07112,0.16343
1347.99959,0.16622
1349.92806,0.16923
1351.85653,0.16941
1353.78500,0.16844
1355.71347,0.16969
1357.64194,0.17345
1359.57040,0.17946
1361.49887,0.18707
1363.42734,0.18823
1365.35581,0.18172
1367.28428,0.17703
1369.21275,0.17511
1371.14122,0.17736
1373.06969,0.18491
1374.99815,0.18727
1376.92662,0.18271
1378.85509,0.17997
1380.78356,0.17699
1382.71203,0.17412
1384.64050,0.17753
1386.56897,0.18314
1388.49743,0.18208
1390.42590,0.18126
1392.35437,0.18821
1394.28284,0.19802
1396.21131,0.20388
1398.13978,0.20385
1400.06825,0.19574
1401.99672,0.18718
1403.92518,0.18589
1405.85365,0.18627
1407.78212,0.18355
1409.71059,0.18153
1411.63906,0.18052
1413.56753,0.18175
1415.49600,0.19190
1417.42446,0.20970
1419.35293,0.21382
1421.28140,0.20047
1423.20987,0.19120
1425.13834,0.18678
1427.06681,0.18643
1428.99528,0.19123
1430.92375,0.19383
1432.85221,0.19306
1434.78068,0.19874
1436.70915,0.20514
1438.63762,0.19505
1440.56609,0.18240
1442.49456,0.17785
1444.42303,0.18041
1446.35149,0.18706
1448.27996,0.19098
1450.20843,0.19031
1452.13690,0.19159
1454.06537,0.20304
1455.99384,0.23253
1457.92231,0.24917
1459.85077,0.22519
1461.77924,0.20804
1463.70771,0.20644
1465.63618,0.20459
1467.56465,0.19778
1469.49312,0.20280
1471.42159,0.22420
1473.35006,0.23944
1475.27852,0.23040
1477.20699,0.21515
1479.13546,0.20330
1481.06393,0.19571
1482.99240,0.19164
1484.92087,0.19562
1486.84934,0.21323
1488.77780,0.23620
1490.70627,0.23263
1492.63474,0.21330
1494.56321,0.21077
1496.49168,0.22388
1498.42015,0.22598
1500.34862,0.21295
1502.27709,0.21005
1504.20555,0.23197
1506.13402,0.27939
1508.06249,0.28410
1509.99096,0.24538
1511.91943,0.22156
1513.84790,0.21876
1515.77637,0.23584
1517.70483,0.25751
1519.63330,0.27557
1521.56177,0.28289
1523.49024,0.26219
1525.41871,0.24093
1527.34718,0.22569
1529.27565,0.21426
1531.20412,0.21856
1533.13258,0.23263
1535.06105,0.23421
1536.98952,0.24411
1538.91799,0.29216
1540.84646,0.33381
1542.77493,0.29544
1544.70340,0.24595
1546.63186,0.21745
1548.56033,0.21252
1550.48880,0.21576
1552.41727,0.21819
1554.34574,0.22985
1556.27421,0.26119
1558.20268,0.30804
1560.13115,0.28059
1562.05961,0.22869
1563.98808,0.20826
1565.91655,0.20619
1567.84502,0.21699
1569.77349,0.22442
1571.70196,0.21424
1573.63043,0.21032
1575.55889,0.21802
1577.48736,0.21154
1579.41583,0.19633
1581.34430,0.19006
1583.27277,0.18875
1585.20124,0.18793
1587.12971,0.18868
1589.05818,0.19060
1590.98664,0.19151
1592.91511,0.19276
1594.84358,0.19375
1596.77205,0.19007
1598.70052,0.18667
1600.62899,0.18991
1602.55746,0.19459
1604.48592,0.19390
1606.41439,0.19136
1608.34286,0.19300
1610.27133,0.19452
1612.19980,0.19399
1614.12827,0.20085
1616.05674,0.21539
1617.98521,0.21479
1619.91367,0.20734
1621.84214,0.21399
1623.77061,0.22099
1625.69908,0.21397
1627.62755,0.20630
1629.55602,0.20248
1631.48449,0.20472
1633.41295,0.22155
1635.34142,0.24957
1637.26989,0.24588
1639.19836,0.22249
1641.12683,0.21162
1643.05530,0.21742
1644.98377,0.24362
1646.91223,0.27401
1648.84070,0.26831
1650.76917,0.26303
1652.69764,0.28046
1654.62611,0.25981
1656.55458,0.22109
1658.48305,0.20355
1660.41152,0.20272
1662.33998,0.21046
1664.26845,0.21363
1666.19692,0.21517
1668.12539,0.22890
1670.05386,0.24375
1671.98233,0.23917
1673.91080,0.23316
1675.83926,0.22663
1677.76773,0.21929
1679.69620,0.22415
1681.62467,0.24478
1683.55314,0.26723
1685.48161,0.25009
1687.41008,0.22473
1689.33855,0.21467
1691.26701,0.20945
1693.19548,0.21276
1695.12395,0.23421
1697.05242,0.26389
1698.98089,0.27602
1700.90936,0.26147
1702.83783,0.24280
1704.76629,0.23402
1706.69476,0.22174
1708.62323,0.20826
1710.55170,0.20515
1712.48017,0.21441
1714.40864,0.23668
1716.33711,0.26071
1718.26558,0.24844
1720.19404,0.21811
1722.12251,0.20299
1724.05098,0.19644
1725.97945,0.19263
1727.90792,0.19643
1729.83639,0.20845
1731.76486,0.22574
1733.69332,0.23993
1735.62179,0.23176
1737.55026,0.22195
1739.47873,0.22087
1741.40720,0.21896
1743.33567,0.21573
1745.26414,0.21656
1747.19261,0.22451
1749.12107,0.23442
1751.04954,0.22842
1752.97801,0.21232
1754.90648,0.20613
1756.83495,0.20778
1758.76342,0.20967
1760.69189,0.21342
1762.62035,0.21166
1764.54882,0.20248
1766.47729,0.20088
1768.40576,0.21198
1770.33423,0.23025
1772.26270,0.23939
1774.19117,0.22596
1776.11964,0.20982
1778.04810,0.20503
1779.97657,0.20855
1781.90504,0.20904
1783.83351,0.20380
1785.76198,0.19742
1787.69045,0.19556
1789.61892,0.20375
1791.54738,0.21543
1793.47585,0.21454
1795.40432,0.20791
1797.33279,0.20737
1799.26126,0.21001
1801.18973,0.20839
1803.11820,0.20087
1805.04666,0.19400
1806.97513,0.19365
1808.90360,0.19970
1810.83207,0.20384
1812.76054,0.20044
1814.68901,0.19585
1816.61748,0.18885
1818.54595,0.17514
1820.47441,0.16916
1822.40288,0.18386
1824.33135,0.20446
1826.25982,0.21080
1828.18829,0.21268
1830.11676,0.21394
1832.04523,0.20520
1833.97369,0.19758
1835.90216,0.19548
1837.83063,0.19303
1839.75910,0.19293
1841.68757,0.20226
1843.61604,0.21420
1845.54451,0.21144
1847.47298,0.20127
1849.40144,0.19601
1851.32991,0.19439
1853.25838,0.19256
1855.18685,0.18943
1857.11532,0.18779
1859.04379,0.18945
1860.97226,0.19222
1862.90072,0.19424
1864.82919,0.19817
1866.75766,0.20684
1868.68613,0.21285
1870.61460,0.20626
1872.54307,0.19700
1874.47154,0.19354
1876.40001,0.19310
1878.32847,0.19223
1880.25694,0.19217
1882.18541,0.19480
1884.11388,0.19648
1886.04235,0.19581
1887.97082,0.19769
1889.89929,0.19936
1891.82775,0.19711
1893.75622,0.19564
1895.68469,0.19359
1897.61316,0.19009
1899.54163,0.18983
1901.47010,0.19191
1903.39857,0.19282
1905.32704,0.19322
1907.25550,0.19575
1909.18397,0.19888
1911.11244,0.19802
1913.04091,0.19437
1914.96938,0.19396
1916.89785,0.19744
1918.82632,0.19864
1920.75478,0.19855
1922.68325,0.19925
1924.61172,0.19515
1926.54019,0.18959
1928.46866,0.18853
1930.39713,0.18922
1932.32560,0.19001
1934.25407,0.19225
1936.18253,0.19384
1938.11100,0.19360
1940.03947,0.19645
1941.96794,0.20377
1943.89641,0.20609
1945.82488,0.19931
1947.75335,0.19139
1949.68181,0.18871
1951.61028,0.19061
1953.53875,0.19252
1955.46722,0.19248
1957.39569,0.19123
1959.32416,0.18988
1961.25263,0.19000
1963.18110,0.19267
1965.10956,0.19700
1967.03803,0.19822
1968.96650,0.19483
1970.89497,0.19224
1972.82344,0.19096
1974.75191,0.19092
1976.68038,0.19527
1978.60884,0.19837
1980.53731,0.19422
1982.46578,0.18867
1984.39425,0.18783
1986.32272,0.19053
1988.25119,0.19415
1990.17966,0.19748
1992.10812,0.19844
1994.03659,0.19618
1995.96506,0.19379
1997.89353,0.19241
1999.82200,0.19115
2001.75047,0.19111
2003.67894,0.19294
2005.60741,0.19415
2007.53587,0.19295
2009.46434,0.19079
2011.39281,0.18947
2013.32128,0.19062
2015.24975,0.19432
2017.17822,0.19674
2019.10669,0.19505
2021.03515,0.19217
2022.96362,0.19105
2024.89209,0.19126
2026.82056,0.19247
2028.74903,0.19419
2030.67750,0.19503
2032.60597,0.19496
2034.53444,0.19418
2036.46290,0.19308
2038.39137,0.19342
2040.31984,0.19570
2042.24831,0.19727
2044.17678,0.19567
2046.10525,0.19290
2048.03372,0.19229
2049.96218,0.19266
2051.89065,0.19235
2053.81912,0.19268
2055.74759,0.19272
2057.67606,0.19109
2059.60453,0.19017
2061.53300,0.19182
2063.46147,0.19437
2065.38993,0.19545
2067.31840,0.19493
2069.24687,0.19370
2071.17534,0.19259
2073.10381,0.19345
2075.03228,0.19557
2076.96075,0.19545
2078.88921,0.19389
2080.81768,0.19482
2082.74615,0.19664
2084.67462,0.19518
2086.60309,0.19251
2088.53156,0.19206
2090.46003,0.19257
2092.38850,0.19228
2094.31696,0.19206
2096.24543,0.19309
2098.17390,0.19311
2100.10237,0.19109
2102.03084,0.19090
2103.95931,0.19300
2105.88778,0.19455
2107.81624,0.19494
2109.74471,0.19477
2111.67318,0.19498
2113.60165,0.19545
2115.53012,0.19541
2117.45859,0.19526
2119.38706,0.19513
2121.31553,0.19403
2123.24399,0.19240
2125.17246,0.19230
2127.10093,0.19384
2129.02940,0.19512
2130.95787,0.19485
2132.88634,0.19550
2134.81481,0.19926
2136.74327,0.20182
2138.67174,0.19988
2140.60021,0.19714
2142.52868,0.19668
2144.45715,0.19625
2146.38562,0.19435
2148.31409,0.19370
2150.24255,0.19500
2152.17102,0.19599
2154.09949,0.19646
2156.02796,0.19640
2157.95643,0.19518
2159.88490,0.19417
2161.81337,0.19506
2163.74184,0.19720
2165.67030,0.19893
2167.59877,0.19901
2169.52724,0.19718
2171.45571,0.19581
2173.38418,0.19641
2175.31265,0.19704
2177.24112,0.19713
2179.16958,0.19762
2181.09805,0.19688
2183.02652,0.19407
2184.95499,0.19251
2186.88346,0.19326
2188.81193,0.19359
2190.74040,0.19284
2192.66887,0.19225
2194.59733,0.19255
2196.52580,0.19303
2198.45427,0.19240
2200.38274,0.19092
2202.31121,0.19005
2204.23968,0.19119
2206.16815,0.19345
2208.09661,0.19409
2210.02508,0.19261
2211.95355,0.19179
2213.88202,0.19433
2215.81049,0.19854
2217.73896,0.19990
2219.66743,0.19776
2221.59590,0.19510
2223.52436,0.19337
2225.45283,0.19302
2227.38130,0.19393
2229.30977,0.19454
2231.23824,0.19473
2233.16671,0.19580
2235.09518,0.19751
2237.02364,0.19825
2238.95211,0.19797
2240.88058,0.19778
2242.80905,0.19764
2244.73752,0.19799
2246.66599,0.19859
2248.59446,0.19816
2250.52293,0.19708
2252.45139,0.19711
2254.37986,0.19853
2256.30833,0.19885
2258.23680,0.19793
2260.16527,0.19707
2262.09374,0.19537
2264.02221,0.19305
2265.95067,0.19203
2267.87914,0.19383
2269.80761,0.19646
2271.73608,0.19769
2273.66455,0.19922
2275.59302,0.20062
2277.52149,0.19878
2279.44996,0.19530
2281.37842,0.19451
2283.30689,0.19558
2285.23536,0.19569
2287.16383,0.19664
2289.09230,0.19855
2291.02077,0.19838
2292.94924,0.19879
2294.87770,0.20139
2296.80617,0.20111
2298.73464,0.19896
2300.66311,0.19943
2302.59158,0.20031
2304.52005,0.20067
2306.44852,0.20356
2308.37699,0.20798
2310.30545,0.20864
2312.23392,0.20505
2314.16239,0.20392
2316.09086,0.20787
2318.01933,0.21251
2319.94780,0.21600
2321.87627,0.21849
2323.80473,0.21490
2325.73320,0.20719
2327.66167,0.20709
2329.59014,0.21596
2331.51861,0.22665
2333.44708,0.23056
2335.37555,0.22346
2337.30401,0.21485
2339.23248,0.20998
2341.16095,0.20650
2343.08942,0.20965
2345.01789,0.21405
2346.94636,0.21207
2348.87483,0.21041
2350.80330,0.21087
2352.73176,0.21114
2354.66023,0.21343
2356.58870,0.21826
2358.51717,0.21752
2360.44564,0.21196
2362.37411,0.20870
2364.30258,0.20845
2366.23104,0.21719
2368.15951,0.22639
2370.08798,0.22062
2372.01645,0.21065
2373.94492,0.20699
2375.87339,0.20685
2377.80186,0.20623
2379.73033,0.20325
2381.65879,0.19921
2383.58726,0.19595
2385.51573,0.19406
2387.44420,0.19403
2389.37267,0.19502
2391.30114,0.19578
2393.22961,0.19608
2395.15807,0.19481
2397.08654,0.19364
2399.01501,0.19593
2400.94348,0.19831
2402.87195,0.19716
2404.80042,0.19520
2406.72889,0.19513
2408.65736,0.19582
2410.58582,0.19503
2412.51429,0.19410
2414.44276,0.19542
2416.37123,0.19685
2418.29970,0.19638
2420.22817,0.19572
2422.15664,0.19531
2424.08510,0.19501
2426.01357,0.19637
2427.94204,0.19844
2429.87051,0.19837
2431.79898,0.19687
2433.72745,0.19656
2435.65592,0.19718
2437.58439,0.19673
2439.51285,0.19470
2441.44132,0.19307
2443.36979,0.19324
2445.29826,0.19459
2447.22673,0.19636
2449.15520,0.19665
2451.08367,0.19584
2453.01213,0.19649
2454.94060,0.19710
2456.86907,0.19710
2458.79754,0.19782
2460.72601,0.19853
2462.65448,0.19859
2464.58295,0.19711
2466.51142,0.19516
2468.43988,0.19414
2470.36835,0.19341
2472.29682,0.19393
2474.22529,0.19471
2476.15376,0.19464
2478.08223,0.19526
2480.01070,0.19602
2481.93916,0.19562
2483.86763,0.19431
2485.79610,0.19448
2487.72457,0.19692
2489.65304,0.19837
2491.58151,0.19805
2493.50998,0.19877
2495.43844,0.19970
2497.36691,0.19804
2499.29538,0.19607
2501.22385,0.19526
2503.15232,0.19394
2505.08079,0.19348
2507.00926,0.19434
2508.93773,0.19440
2510.86619,0.19405
2512.79466,0.19548
2514.72313,0.19805
2516.65160,0.19898
2518.58007,0.19897
2520.50854,0.19958
2522.43701,0.19812
2524.36547,0.19489
2526.29394,0.19452
2528.22241,0.19665
2530.15088,0.19792
2532.07935,0.19794
2534.00782,0.19838
2535.93629,0.20001
2537.86476,0.20052
2539.79322,0.19825
2541.72169,0.19556
2543.65016,0.19432
2545.57863,0.19454
2547.50710,0.19601
2549.43557,0.19762
2551.36404,0.19835
2553.29250,0.19874
2555.22097,0.19973
2557.14944,0.20096
2559.07791,0.20142
2561.00638,0.20072
2562.93485,0.19967
2564.86332,0.19931
2566.79179,0.19830
2568.72025,0.19588
2570.64872,0.19467
2572.57719,0.19642
2574.50566,0.19817
2576.43413,0.19817
2578.36260,0.19968
2580.29107,0.20149
2582.21953,0.19977
2584.14800,0.19711
2586.07647,0.19637
2588.00494,0.19694
2589.93341,0.19792
2591.86188,0.19768
2593.79035,0.19575
2595.71882,0.19485
2597.64728,0.19580
2599.57575,0.19602
2601.50422,0.19554
2603.43269,0.19634
2605.36116,0.19836
2607.28963,0.20088
2609.21810,0.20383
2611.14656,0.20652
2613.07503,0.20711
2615.00350,0.20486
2616.93197,0.20213
2618.86044,0.20160
2620.78891,0.20204
2622.71738,0.20096
2624.64585,0.20026
2626.57431,0.20176
2628.50278,0.20313
2630.43125,0.20360
2632.35972,0.20391
2634.28819,0.20248
2636.21666,0.20007
2638.14513,0.20009
2640.07359,0.20235
2642.00206,0.20370
2643.93053,0.20291
2645.85900,0.20193
2647.78747,0.20288
2649.71594,0.20490
2651.64441,0.20651
2653.57288,0.20732
2655.50134,0.20596
2657.42981,0.20241
2659.35828,0.20108
2661.28675,0.20339
2663.21522,0.20396
2665.14369,0.20106
2667.07216,0.19920
2669.00062,0.19988
2670.92909,0.20113
2672.85756,0.20280
2674.78603,0.20533
2676.71450,0.20708
2678.64297,0.20653
2680.57144,0.20528
2682.49990,0.20546
2684.42837,0.20623
2686.35684,0.20512
2688.28531,0.20234
2690.21378,0.20202
2692.14225,0.20524
2694.07072,0.20696
2695.99919,0.20608
2697.92765,0.20644
2699.85612,0.20691
2701.78459,0.20605
2703.71306,0.20648
2705.64153,0.20713
2707.57000,0.20632
2709.49847,0.20694
2711.42693,0.20961
2713.35540,0.21015
2715.28387,0.20719
2717.21234,0.20450
2719.14081,0.20473
2721.06928,0.20624
2722.99775,0.20551
2724.92622,0.20348
2726.85468,0.20399
2728.78315,0.20658
2730.71162,0.20863
2732.64009,0.20964
2734.56856,0.20923
2736.49703,0.20739
2738.42550,0.20701
2740.35396,0.20910
2742.28243,0.21118
2744.21090,0.21146
2746.13937,0.21115
2748.06784,0.21185
2749.99631,0.21229
2751.92478,0.21109
2753.85325,0.20782
2755.78171,0.20419
2757.71018,0.20460
2759.63865,0.20822
2761.56712,0.20962
2763.49559,0.20874
2765.42406,0.20770
2767.35253,0.20635
2769.28099,0.20601
2771.20946,0.20677
2773.13793,0.20867
2775.06640,0.21162
2776.99487,0.21176
2778.92334,0.20860
2780.85181,0.20624
2782.78028,0.20652
2784.70874,0.20857
2786.63721,0.21117
2788.56568,0.21265
2790.49415,0.21285
2792.42262,0.21312
2794.35109,0.21270
2796.27956,0.21115
2798.20802,0.21111
2800.13649,0.21344
2802.06496,0.21437
2803.99343,0.21259
2805.92190,0.21081
2807.85037,0.20914
2809.77884,0.20757
2811.70731,0.20792
2813.63577,0.20822
2815.56424,0.20750
2817.49271,0.20982
2819.42118,0.21399
2821.34965,0.21489
2823.27812,0.21390
2825.20659,0.21470
2827.13505,0.21533
2829.06352,0.21364
2830.99199,0.21308
2832.92046,0.21622
2834.84893,0.21908
2836.77740,0.21785
2838.70587,0.21525
2840.63433,0.21366
2842.56280,0.21339
2844.49127,0.21491
2846.41974,0.21529
2848.34821,0.21412
2850.27668,0.21531
2852.20515,0.21803
2854.13362,0.21858
2856.06208,0.21719
2857.99055,0.21580
2859.91902,0.21433
2861.84749,0.21263
2863.77596,0.21240
2865.70443,0.21381
2867.63290,0.21426
2869.56136,0.21407
2871.48983,0.21420
2873.41830,0.21324
2875.34677,0.21206
2877.27524,0.21241
2879.20371,0.21281
2881.13218,0.21108
2883.06065,0.20813
2884.98911,0.20623
2886.91758,0.20630
2888.84605,0.20821
2890.77452,0.21089
2892.70299,0.21266
2894.63146,0.21235
2896.55993,0.21086
2898.48839,0.21003
2900.41686,0.21039
2902.34533,0.21144
2904.27380,0.21222
2906.20227,0.21255
2908.13074,0.21251
2910.05921,0.21220
2911.98768,0.21340
2913.91614,0.21445
2915.84461,0.21157
2917.77308,0.20799
2919.70155,0.20867
2921.63002,0.21114
2923.55849,0.21141
2925.48696,0.21121
2927.41542,0.21116
2929.34389,0.21008
2931.27236,0.21083
2933.20083,0.21410
2935.12930,0.21534
2937.05777,0.21199
2938.98624,0.20817
2940.91471,0.20728
2942.84317,0.20811
2944.77164,0.20936
2946.70011,0.20882
2948.62858,0.20769
2950.55705,0.20958
2952.48552,0.21264
2954.41399,0.21416
2956.34245,0.21352
2958.27092,0.21136
2960.19939,0.21128
2962.12786,0.21392
2964.05633,0.21597
2965.98480,0.21605
2967.91327,0.21460
2969.84174,0.21409
2971.77020,0.21660
2973.69867,0.22073
2975.62714,0.22136
2977.55561,0.21597
2979.48408,0.21118
2981.41255,0.21149
2983.34102,0.21388
2985.26948,0.21489
2987.19795,0.21383
2989.12642,0.21457
2991.05489,0.21907
2992.98336,0.22262
2994.91183,0.22170
2996.84030,0.21882
2998.76877,0.21850
3000.69723,0.22061
3002.62570,0.22205
3004.55417,0.22139
3006.48264,0.21947
3008.41111,0.21950
3010.33958,0.21999
3012.26805,0.21464
3014.19651,0.20269
3016.12498,0.19343
3018.05345,0.19830
3019.98192,0.21240
3021.91039,0.22214
3023.83886,0.22583
3025.76733,0.22539
3027.69579,0.22138
3029.62426,0.21930
3031.55273,0.22263
3033.48120,0.22554
3035.40967,0.22386
3037.33814,0.22258
3039.26661,0.22241
3041.19508,0.21948
3043.12354,0.21658
3045.05201,0.21567
3046.98048,0.21475
3048.90895,0.21470
3050.83742,0.21641
3052.76589,0.21830
3054.69436,0.21788
3056.62282,0.21558
3058.55129,0.21593
3060.47976,0.21974
3062.40823,0.22115
3064.33670,0.21746
3066.26517,0.21506
3068.19364,0.21769
3070.12211,0.22130
3072.05057,0.22337
3073.97904,0.22066
3075.90751,0.21284
3077.83598,0.21067
3079.76445,0.21681
3081.69292,0.21928
3083.62139,0.21498
3085.54985,0.21306
3087.47832,0.21557
3089.40679,0.21632
3091.33526,0.21535
3093.26373,0.21476
3095.19220,0.21502
3097.12067,0.21852
3099.04914,0.22245
3100.97760,0.22083
3102.90607,0.21413
3104.83454,0.20971
3106.76301,0.21055
3108.69148,0.21328
3110.61995,0.21571
3112.54842,0.21753
3114.47688,0.21931
3116.40535,0.21930
3118.33382,0.21742
3120.26229,0.21675
3122.19076,0.21754
3124.11923,0.21983
3126.04770,0.22324
3127.97617,0.22495
3129.90463,0.22435
3131.83310,0.22468
3133.76157,0.22604
3135.69004,0.22581
3137.61851,0.22382
3139.54698,0.22068
3141.47545,0.21768
3143.40391,0.21652
3145.33238,0.21830
3147.26085,0.22135
3149.18932,0.22431
3151.11779,0.22744
3153.04626,0.22806
3154.97473,0.22677
3156.90320,0.22642
3158.83166,0.22612
3160.76013,0.22455
3162.68860,0.22129
3164.61707,0.21973
3166.54554,0.22201
3168.47401,0.22386
3170.40248,0.22406
3172.33094,0.22482
3174.25941,0.22666
3176.18788,0.22793
3178.11635,0.22576
3180.04482,0.22154
3181.97329,0.21992
3183.90176,0.22344
3185.83022,0.22743
3187.75869,0.22629
3189.68716,0.22439
3191.61563,0.22545
3193.54410,0.22775
3195.47257,0.23039
3197.40104,0.23095
3199.32951,0.22748
3201.25797,0.22300
3203.18644,0.22286
3205.11491,0.22632
3207.04338,0.22648
3208.97185,0.22479
3210.90032,0.22750
3212.82879,0.23007
3214.75725,0.22773
3216.68572,0.22623
3218.61419,0.22897
3220.54266,0.23097
3222.47113,0.22821
3224.39960,0.22376
3226.32807,0.22275
3228.25654,0.22421
3230.18500,0.22382
3232.11347,0.22156
3234.04194,0.22026
3235.97041,0.22069
3237.89888,0.22061
3239.82735,0.21948
3241.75582,0.21948
3243.68428,0.22002
3245.61275,0.21977
3247.54122,0.22016
3249.46969,0.22326
3251.39816,0.22739
3253.32663,0.22862
3255.25510,0.22672
3257.18357,0.22253
3259.11203,0.21801
3261.04050,0.21636
3262.96897,0.21693
3264.89744,0.21700
3266.82591,0.21600
3268.75438,0.21637
3270.68285,0.21881
3272.61131,0.22042
3274.53978,0.21988
3276.46825,0.21804
3278.39672,0.21670
3280.32519,0.21657
3282.25366,0.21777
3284.18213,0.22141
3286.11060,0.22565
3288.03906,0.22733
3289.96753,0.22593
3291.89600,0.22246
3293.82447,0.21867
3295.75294,0.21699
3297.68141,0.21750
3299.60988,0.21758
3301.53834,0.21765
3303.46681,0.21916
3305.39528,0.22208
3307.32375,0.22691
3309.25222,0.23196
3311.18069,0.23235
3313.10916,0.22672
3315.03763,0.22056
3316.96609,0.21785
3318.89456,0.21754
3320.82303,0.21745
3322.75150,0.21792
3324.67997,0.22027
3326.60844,0.22339
3328.53691,0.22600
3330.46537,0.22736
3332.39384,0.22773
3334.32231,0.22732
3336.25078,0.22673
3338.17925,0.22832
3340.10772,0.23078
3342.03619,0.23113
3343.96466,0.23069
3345.89312,0.23080
3347.82159,0.22935
3349.75006,0.22640
3351.67853,0.22415
3353.60700,0.22392
3355.53547,0.22577
3357.46394,0.22596
3359.39240,0.22320
3361.32087,0.22161
3363.24934,0.22251
3365.17781,0.22472
3367.10628,0.22691
3369.03475,0.22820
3370.96322,0.22917
3372.89168,0.22883
3374.82015,0.22738
3376.74862,0.22568
3378.67709,0.22268
3380.60556,0.21992
3382.53403,0.21943
3384.46250,0.22118
3386.39097,0.22344
3388.31943,0.22577
3390.24790,0.22916
3392.17637,0.22942
3394.10484,0.22511
3396.03331,0.22112
3397.96178,0.21870
3399.89025,0.21886
3401.81871,0.22047
3403.74718,0.21817
3405.67565,0.21503
3407.60412,0.21699
3409.53259,0.22013
3411.46106,0.21833
3413.38953,0.21330
3415.31800,0.21147
3417.24646,0.21550
3419.17493,0.22090
3421.10340,0.22145
3423.03187,0.21760
3424.96034,0.21391
3426.88881,0.21155
3428.81728,0.21021
3430.74574,0.21042
3432.67421,0.21058
3434.60268,0.20880
3436.53115,0.20851
3438.45962,0.21024
3440.38809,0.20958
3442.31656,0.20909
3444.24503,0.21413
3446.17349,0.22105
3448.10196,0.22228
3450.03043,0.21726
3451.95890,0.21024
3453.88737,0.20474
3455.81584,0.20397
3457.74431,0.20718
3459.67277,0.20764
3461.60124,0.20270
3463.52971,0.19749
3465.45818,0.19535
3467.38665,0.19616
3469.31512,0.19853
3471.24359,0.20104
3473.17206,0.20377
3475.10052,0.20529
3477.02899,0.20391
3478.95746,0.20285
3480.88593,0.20358
3482.81440,0.20122
3484.74287,0.19800
3486.67134,0.19974
3488.59980,0.20061
3490.52827,0.19535
3492.45674,0.19061
3494.38521,0.19101
3496.31368,0.19271
3498.24215,0.19320
3500.17062,0.19513
3502.09909,0.19837
3504.02755,0.19729
3505.95602,0.19297
3507.88449,0.19384
3509.81296,0.19923
3511.74143,0.19885
3513.66990,0.19022
3515.59837,0.18323
3517.52683,0.18439
3519.45530,0.18848
3521.38377,0.19009
3523.31224,0.18967
3525.24071,0.19098
3527.16918,0.19533
3529.09765,0.19609
3531.02611,0.18959
3532.95458,0.18079
3534.88305,0.17650
3536.81152,0.17904
3538.73999,0.18224
3540.66846,0.18227
3542.59693,0.18423
3544.52540,0.19167
3546.45386,0.19497
3548.38233,0.18949
3550.31080,0.18685
3552.23927,0.18660
3554.16774,0.18166
3556.09621,0.17670
3558.02468,0.17450
3559.95314,0.17226
3561.88161,0.17195
3563.81008,0.18026
3565.73855,0.19812
3567.66702,0.20472
3569.59549,0.18765
3571.52396,0.17178
3573.45243,0.16801
3575.38089,0.16920
3577.30936,0.16835
3579.23783,0.16712
3581.16630,0.16770
3583.09477,0.17172
3585.02324,0.18143
3586.95171,0.19041
3588.88017,0.18726
3590.80864,0.17968
3592.73711,0.17607
3594.66558,0.17603
3596.59405,0.17726
3598.52252,0.17729
3600.45099,0.17454
3602.37946,0.16857
3604.30792,0.16378
3606.23639,0.16644
3608.16486,0.17525
3610.09333,0.18276
3612.02180,0.18711
3613.95027,0.18710
3615.87874,0.18677
3617.80720,0.19009
3619.73567,0.18484
3621.66414,0.17090
3623.59261,0.16508
3625.52108,0.17022
3627.44955,0.18267
3629.37802,0.18682
3631.30649,0.17499
3633.23495,0.16412
3635.16342,0.15653
3637.09189,0.15153
3639.02036,0.14798
3640.94883,0.14682
3642.87730,0.15152
3644.80577,0.16484
3646.73423,0.18999
3648.66270,0.21454
3650.59117,0.20013
3652.51964,0.17173
3654.44811,0.15972
3656.37658,0.15699
3658.30505,0.15052
3660.23352,0.14353
3662.16198,0.14125
3664.09045,0.14277
3666.01892,0.14762
3667.94739,0.15858
3669.87586,0.17198
3671.80433,0.17704
3673.73280,0.18729
3675.66126,0.19637
3677.58973,0.17739
3679.51820,0.15662
3681.44667,0.14650
3683.37514,0.14285
3685.30361,0.14577
3687.23208,0.15838
3689.16055,0.17545
3691.08901,0.17321
3693.01748,0.15542
3694.94595,0.14241
3696.87442,0.13793
3698.80289,0.14015
3700.73136,0.14633
3702.65983,0.14769
3704.58829,0.14366
3706.51676,0.14421
3708.44523,0.15346
3710.37370,0.16702
3712.30217,0.16518
3714.23064,0.14949
3716.15911,0.14200
3718.08757,0.14526
3720.01604,0.15057
3721.94451,0.15166
3723.87298,0.15272
3725.80145,0.15462
3727.72992,0.15330
3729.65839,0.15377
3731.58686,0.16207
3733.51532,0.17726
3735.44379,0.18207
3737.37226,0.16950
3739.30073,0.16250
3741.22920,0.16639
3743.15767,0.17593
3745.08614,0.18011
3747.01460,0.17856
3748.94307,0.18628
3750.87154,0.19092
3752.80001,0.17244
3754.72848,0.15436
3756.65695,0.14901
3758.58542,0.14903
3760.51389,0.14183
3762.44235,0.13391
3764.37082,0.13476
3766.29929,0.14056
3768.22776,0.14658
3770.15623,0.14747
3772.08470,0.13747
3774.01317,0.12785
3775.94163,0.12948
3777.87010,0.14030
3779.79857,0.14521
3781.72704,0.13988
3783.65551,0.13716
3785.58398,0.13580
3787.51245,0.13165
3789.44092,0.12904
3791.36938,0.12834
3793.29785,0.12921
3795.22632,0.13439
3797.15479,0.14129
3799.08326,0.14832
3801.01173,0.15738
3802.94020,0.15612
3804.86866,0.15016
3806.79713,0.14881
3808.72560,0.14423
3810.65407,0.13813
3812.58254,0.13740
3814.51101,0.14337
3816.43948,0.14963
3818.36795,0.15453
3820.29641,0.16527
3822.22488,0.16399
3824.15335,0.14879
3826.08182,0.13728
3828.01029,0.13040
3829.93876,0.13039
3831.86723,0.13762
3833.79569,0.14602
3835.72416,0.15420
3837.65263,0.16238
3839.58110,0.16298
3841.50957,0.15624
3843.43804,0.14843
3845.36651,0.14130
3847.29498,0.13780
3849.22344,0.14432
3851.15191,0.16492
3853.08038,0.18475
3855.00885,0.16644
3856.93732,0.14072
3858.86579,0.12813
3860.79426,0.12858
3862.72272,0.13822
3864.65119,0.14216
3866.57966,0.13942
3868.50813,0.14421
3870.43660,0.14877
3872.36507,0.14261
3874.29354,0.13606
3876.22200,0.13144
3878.15047,0.13013
3880.07894,0.13394
3882.00741,0.13924
3883.93588,0.14348
3885.86435,0.14033
3887.79282,0.13164
3889.72129,0.13161
3891.64975,0.13691
3893.57822,0.13352
3895.50669,0.12981
3897.43516,0.13750
3899.36363,0.14981
3901.29210,0.15344
3903.22057,0.14985
3905.14903,0.13843
3907.07750,0.12352
3909.00597,0.11612
3910.93444,0.11574
3912.86291,0.11777
3914.79138,0.12089
3916.71985,0.12201
3918.64832,0.11838
3920.57678,0.11504
3922.50525,0.11666
3924.43372,0.12191
3926.36219,0.12496
3928.29066,0.12357
3930.21913,0.12287
3932.14760,0.12406
3934.07606,0.12243
3936.00453,0.11960
3937.93300,0.11783
3939.86147,0.11821
3941.78994,0.12265
3943.71841,0.12562
3945.64688,0.12448
3947.57535,0.12334
3949.50381,0.12272
3951.43228,0.12247
3953.36075,0.11976
3955.28922,0.11397
3957.21769,0.10894
3959.14616,0.10602
3961.07463,0.10744
3963.00309,0.11130
3964.93156,0.11079
3966.86003,0.10801
3968.78850,0.10880
3970.71697,0.11257
3972.64544,0.11508
3974.57391,0.11223
3976.50238,0.10695
3978.43084,0.10602
3980.35931,0.10771
3982.28778,0.10772
3984.21625,0.10627
3986.14472,0.10500
3988.07319,0.10505
3990.00166,0.10502
3991.93012,0.10407
3993.85859,0.10463
3995.78706,0.10640
3997.71553,0.10645
3999.64400,0.10563
4001.57247,0.10740
4003.50094,0.11052
4005.42941,0.10922
4007.35787,0.10408
4009.28634,0.10137
4011.21481,0.10180
4013.14328,0.10273
4015.07175,0.10354
4017.00022,0.10411
4018.92869,0.10391
4020.85715,0.10339
4022.78562,0.10516
4024.71409,0.10874
4026.64256,0.10947
4028.57103,0.10635
4030.49950,0.10367
4032.42797,0.10418
4034.35644,0.10449
4036.28490,0.10195
4038.21337,0.09914
4040.14184,0.09863
4042.07031,0.10035
4043.99878,0.10080
4045.92725,0.09942
4047.85572,0.09921
4049.78418,0.09942
4051.71265,0.10066
4053.64112,0.10277
4055.56959,0.10268
4057.49806,0.10213
4059.42653,0.10224
4061.35500,0.10147
4063.28346,0.09992
4065.21193,0.09672
4067.14040,0.09243
4069.06887,0.09144
4070.99734,0.09595
4072.92581,0.10100
4074.85428,0.10106
4076.78275,0.09813
4078.71121,0.09565
4080.63968,0.09537
4082.56815,0.09711
4084.49662,0.09626
4086.42509,0.09324
4088.35356,0.09392
4090.28203,0.09689
4092.21049,0.09644
4094.13896,0.09468
4096.06743,0.09591
4097.99590,0.09708
4099.92437,0.09650
4101.85284,0.09666
4103.78131,0.09630
4105.70978,0.09315
4107.63824,0.08894
4109.56671,0.08668
4111.49518,0.08733
4113.42365,0.09102
4115.35212,0.09676
4117.28059,0.09813
4119.20906,0.09211
4121.13752,0.08707
4123.06599,0.08683
4124.99446,0.08618
4126.92293,0.08555
4128.85140,0.08957
4130.77987,0.09546
4132.70834,0.09690
4134.63681,0.09369
4136.56527,0.08902
4138.49374,0.08639
4140.42221,0.08730
4142.35068,0.08983
4144.27915,0.09283
4146.20762,0.09603
4148.13609,0.09726
4150.06455,0.09270
4151.99302,0.08515
4153.92149,0.08282
4155.84996,0.08432
4157.77843,0.08411
4159.70690,0.08352
4161.63537,0.08345
4163.56384,0.08112
4165.49230,0.07730
4167.42077,0.07656
4169.34924,0.07842
4171.27771,0.07754
4173.20618,0.07374
4175.13465,0.07099
4177.06312,0.07145
4178.99158,0.07425
4180.92005,0.07646
4182.84852,0.07652
4184.77699,0.07621
4186.70546,0.07881
4188.63393,0.08224
4190.56240,0.08310
4192.49087,0.08515
4194.41933,0.08913
4196.34780,0.09057
4198.27627,0.08637
4200.20474,0.07829
4202.13321,0.07286
4204.06168,0.06938
4205.99015,0.06560
4207.91861,0.06593
4209.84708,0.07057
4211.77555,0.07442
4213.70402,0.07490
4215.63249,0.07421
4217.56096,0.07205
4219.48943,0.06857
4221.41789,0.06916
4223.34636,0.07257
4225.27483,0.07470
4227.20330,0.07640
4229.13177,0.07759
4231.06024,0.07763
4232.98871,0.07569
4234.91718,0.07252
4236.84564,0.07026
4238.77411,0.06769
4240.70258,0.06586
4242.63105,0.06768
4244.55952,0.06965
4246.48799,0.06609
4248.41646,0.05943
4250.34492,0.05708
4252.27339,0.05845
4254.20186,0.06070
4256.13033,0.06286
4258.05880,0.06206
4259.98727,0.06180
4261.91574,0.06622
4263.84421,0.07216
4265.77267,0.07446
4267.70114,0.07035
4269.62961,0.06228
4271.55808,0.05403
4273.48655,0.04893
4275.41502,0.04756
4277.34349,0.04931
4279.27195,0.05675
4281.20042,0.06431
4283.12889,0.06363
4285.05736,0.06080
4286.98583,0.06334
4288.91430,0.06573
4290.84277,0.06130
4292.77124,0.05438
4294.69970,0.05127
4296.62817,0.05175
4298.55664,0.05374
4300.48511,0.05509
4302.41358,0.05558
4304.34205,0.05667
4306.27052,0.05659
4308.19898,0.05301
4310.12745,0.04809
4312.05592,0.04755
4313.98439,0.05248
4315.91286,0.05436
4317.84133,0.04958
4319.76980,0.04616
4321.69827,0.04791
4323.62673,0.05053
4325.55520,0.04988
4327.48367,0.04644
4329.41214,0.04409
4331.34061,0.04470
4333.26908,0.04857
4335.19755,0.05278
4337.12601,0.05119
4339.05448,0.04440
4340.98295,0.04055
4342.91142,0.04028
4344.83989,0.03916
4346.76836,0.04050
4348.69683,0.04572
4350.62530,0.05036
4352.55376,0.04992
4354.48223,0.04487
4356.41070,0.04152
4358.33917,0.04011
4360.26764,0.03799
4362.19611,0.03687
4364.12458,0.03758
4366.05304,0.03858
4367.98151,0.03689
4369.90998,0.03304
4371.83845,0.03113
4373.76692,0.03186
4375.69539,0.03336
4377.62386,0.03382
4379.55232,0.03390
4381.48079,0.03723
4383.40926,0.04200
4385.33773,0.04227
4387.26620,0.03735
4389.19467,0.03171
4391.12314,0.03047
4393.05161,0.03339
4394.98007,0.03504
4396.90854,0.03267
4398.83701,0.03050
4400.76548,0.03123
4402.69395,0.02885
4404.62242,0.02599
4406.55089,0.03273
4408.47935,0.04056
4410.40782,0.03791
4412.33629,0.03294
4414.26476,0.03169
4416.19323,0.02868
4418.12170,0.02737
4420.05017,0.03193
4421.97864,0.03403
4423.90710,0.03139
4425.83557,0.02975
4427.76404,0.02968
4429.69251,0.02858
4431.62098,0.02439
4433.54945,0.02113
4435.47792,0.02358
4437.40638,0.02703
4439.33485,0.02790
4441.26332,0.02556
4443.19179,0.01886
4445.12026,0.01396
4447.04873,0.01531
4448.97720,0.01537
4450.90567,0.01109
4452.83413,0.01122
4454.76260,0.01741
4456.69107,0.02179
4458.61954,0.01995
4460.54801,0.01465
4462.47648,0.01369
4464.40495,0.01834
4466.33341,0.02084
4468.26188,0.01900
4470.19035,0.01604
4472.11882,0.01306
4474.04729,0.01013
4475.97576,0.00537
4477.90423,0.00214
4479.83270,0.00732
4481.76116,0.01455
4483.68963,0.01643
4485.61810,0.01747
4487.54657,0.02038
4489.47504,0.02246
4491.40351,0.02091
4493.33198,0.01382
4495.26044,0.00584
4497.18891,0.00440
4499.11738,0.00815
4501.04585,0.01228
4502.97432,0.01623
4504.90279,0.01987
4506.83126,0.02131
4508.75973,0.01753
4510.68819,0.01157
4512.61666,0.01068
4514.54513,0.01197
4516.47360,0.00773
4518.40207,0.00021
4520.33054,-0.00295
4522.25901,-0.00023
4524.18747,0.00259
4526.11594,0.00342
4528.04441,0.00575
4529.97288,0.00831
4531.90135,0.00892
4533.82982,0.01015
4535.75829,0.01332
4537.68676,0.01590
4539.61522,0.01474
4541.54369,0.01181
4543.47216,0.00908
4545.40063,0.00637
4547.32910,0.00781
4549.25757,0.01162
4551.18604,0.01110
4553.11450,0.00783
4555.04297,0.00403
4556.97144,-0.00010
4558.89991,0.00157
4560.82838,0.00730
4562.75685,0.00564
4564.68532,0.00171
4566.61378,0.00741
4568.54225,0.01461
4570.47072,0.01312
4572.39919,0.01018
4574.32766,0.01153
4576.25613,0.00833
4578.18460,0.00090
4580.11307,0.00080
4582.04153,0.00518
4583.97000,0.00590
4585.89847,0.00596
4587.82694,0.00703
4589.75541,0.00774
4591.68388,0.01050
4593.61235,0.01165
4595.54081,0.00625
4597.46928,0.00189
4599.39775,0.00406
4601.32622,0.00806
4603.25469,0.01307
4605.18316,0.01550
4607.11163,0.00887
4609.04010,0.00258
4610.96856,0.00557
4612.89703,0.00876
4614.82550,0.00683
4616.75397,0.00603
4618.68244,0.00801
4620.61091,0.01071
4622.53938,0.01062
4624.46784,0.00454
4626.39631,-0.00393
4628.32478,-0.01066
4630.25325,-0.01218
4632.18172,-0.00809
4634.11019,-0.00433
4636.03866,-0.00169
4637.96713,0.00247
4639.89559,0.00511
4641.82406,0.00256
4643.75253,-0.00394
4645.68100,-0.00684
4647.60947,-0.00303
4649.53794,-0.00047
4651.46641,-0.00074
4653.39487,-0.00074
4655.32334,-0.00035
4657.25181,0.00379
4659.18028,0.01251
4661.10875,0.01627
4663.03722,0.01030
4664.96569,0.00304
4666.89416,-0.00021
4668.82262,0.00410
4670.75109,0.01145
4672.67956,0.01003
4674.60803,0.00484
4676.53650,0.00307
4678.46497,0.00213
4680.39344,-0.00133
4682.32190,-0.00595
4684.25037,-0.00683
4686.17884,-0.00511
4688.10731,-0.00273
4690.03578,0.00042
4691.96425,0.00175
4693.89272,0.00170
4695.82119,0.00358
4697.74965,0.00418
4699.67812,0.00408
4701.60659,0.00962
4703.53506,0.01187
4705.46353,0.00242
4707.39200,-0.00852
4709.32047,-0.01281
4711.24893,-0.00844
4713.17740,0.00090
4715.10587,0.00348
4717.03434,-0.00114
4718.96281,-0.00072
4720.89128,0.00598
4722.81975,0.01161
4724.74821,0.01406
4726.67668,0.01316
4728.60515,0.00999
4730.53362,0.00424
4732.46209,-0.00083
4734.39056,0.00011
4736.31903,0.00151
4738.24750,0.00374
4740.17596,0.00929
4742.10443,0.00819
4744.03290,0.00184
4745.96137,0.00132
4747.88984,0.00645
4749.81831,0.00825
4751.74678,0.00149
4753.67524,-0.00455
4755.60371,0.00099
4757.53218,0.01126
4759.46065,0.01501
4761.38912,0.01419
4763.31759,0.01122
4765.24606,0.00528
4767.17453,0.00153
4769.10299,-0.00011
4771.03146,-0.00631
4772.95993,-0.01173
4774.88840,-0.00881
4776.81687,-0.00265
4778.74534,0.00191
4780.67381,0.00340
4782.60227,0.00410
4784.53074,0.01036
4786.45921,0.01494
4788.38768,0.00772
4790.31615,0.00092
4792.24462,0.00370
4794.17309,0.00371
4796.10156,-0.00401
4798.03002,-0.00818
4799.95849,-0.00348
4801.88696,0.00153
4803.81543,0.00292
4805.74390,0.00716
4807.67237,0.01341
4809.60084,0.01348
4811.52930,0.00384
4813.45777,-0.00927
4815.38624,-0.01371
4817.31471,-0.00706
4819.24318,-0.00082
4821.17165,0.00123
4823.10012,0.00379
4825.02859,0.00637
4826.95705,0.01019
4828.88552,0.01310
4830.81399,0.01044
4832.74246,0.00530
4834.67093,0.00250
4836.59940,0.00386
4838.52787,0.00457
4840.45633,0.00331
4842.38480,0.00532
4844.31327,0.00799
4846.24174,0.00625
4848.17021,0.00186
4850.09868,0.00062
4852.02715,0.00330
4853.95562,0.00496
4855.88408,0.00112
4857.81255,-0.00629
4859.74102,-0.00956
4861.66949,-0.00239
4863.59796,0.00956
4865.52643,0.01485
4867.45490,0.01341
4869.38336,0.01192
4871.31183,0.01096
4873.24030,0.00989
4875.16877,0.00935
4877.09724,0.00832
4879.02571,0.00622
4880.95418,0.00223
4882.88265,0.00101
4884.81111,0.00041
4886.73958,-0.00545
4888.66805,-0.00798
4890.59652,-0.00320
4892.52499,-0.00042
4894.45346,-0.00099
4896.38193,-0.00044
4898.31039,-0.00064
4900.23886,-0.00436
4902.16733,-0.00715
4904.09580,-0.00455
4906.02427,-0.00007
4907.95274,0.00446
4909.88121,0.00981
4911.80967,0.01249
4913.73814,0.01138
4915.66661,0.01434
4917.59508,0.02121
4919.52355,0.02061
4921.45202,0.01316
4923.38049,0.01030
4925.30896,0.01060
4927.23742,0.00800
4929.16589,0.00158
4931.09436,-0.00750
4933.02283,-0.01304
4934.95130,-0.00992
4936.87977,0.00036
4938.80824,0.01108
4940.73670,0.01245
4942.66517,0.00031
4944.59364,-0.00970
4946.52211,-0.00361
4948.45058,0.00452
4950.37905,0.00298
4952.30752,-0.00463
4954.23599,-0.01347
4956.16445,-0.01540
4958.09292,-0.01082
4960.02139,-0.00594
4961.94986,0.00193
4963.87833,0.01025
4965.80680,0.01033
4967.73527,0.00449
4969.66373,0.00105
4971.59220,0.00047
4973.52067,0.00246
4975.44914,0.00568
4977.37761,0.00280
4979.30608,-0.00000
4981.23455,0.00538
4983.16302,0.01187
4985.09148,0.01922
4987.01995,0.02471
4988.94842,0.02163
4990.87689,0.01693
4992.80536,0.01447
4994.73383,0.01057
4996.66230,0.00698
4998.59076,0.00846
5000.51923,0.01458
5002.44770,0.01985
5004.37617,0.02118
5006.30464,0.02187
5008.23311,0.01866
5010.16158,0.00433
5012.09005,-0.00879
5014.01851,-0.00785
5015.94698,0.00205
5017.87545,0.01596
5019.80392,0.02575
5021.73239,0.02316
5023.66086,0.01561
5025.58933,0.01042
5027.51779,0.00393
5029.44626,-0.00221
5031.37473,0.00156
5033.30320,0.01174
5035.23167,0.01202
5037.16014,0.00419
5039.08861,0.00580
5041.01708,0.02075
5042.94554,0.03737
5044.87401,0.04384
5046.80248,0.03996
5048.73095,0.03297
5050.65942,0.02410
5052.58789,0.01646
5054.51636,0.01460
5056.44482,0.01424
5058.37329,0.01073
5060.30176,0.00687
5062.23023,0.00629
5064.15870,0.00883
5066.08717,0.01138
5068.01564,0.01271
5069.94410,0.01911
5071.87257,0.02866
5073.80104,0.02944
5075.72951,0.02645
5077.65798,0.03027
5079.58645,0.03476
5081.51492,0.03314
5083.44339,0.02758
5085.37185,0.02483
5087.30032,0.02865
5089.22879,0.03083
5091.15726,0.02518
5093.08573,0.01976
5095.01420,0.02167
5096.94267,0.02288
5098.87113,0.01846
5100.79960,0.01883
5102.72807,0.02520
5104.65654,0.02735
5106.58501,0.02156
5108.51348,0.01503
5110.44195,0.01702
5112.37042,0.02282
5114.29888,0.02325
5116.22735,0.02376
5118.15582,0.03056
5120.08429,0.03610
5122.01276,0.03859
5123.94123,0.04532
5125.86970,0.04863
5127.79816,0.03951
5129.72663,0.02779
5131.65510,0.02062
5133.58357,0.01812
5135.51204,0.02535
5137.44051,0.03905
5139.36898,0.04194
5141.29745,0.02637
5143.22591,0.01004
5145.15438,0.00945
5147.08285,0.02045
5149.01132,0.03396
5150.93979,0.04210
5152.86826,0.03882
5154.79673,0.02762
5156.72519,0.02462
5158.65366,0.03278
5160.58213,0.03485
5162.51060,0.03088
5164.43907,0.02736
5166.36754,0.02173
5168.29601,0.02178
5170.22448,0.03292
5172.15294,0.04236
5174.08141,0.04209
5176.00988,0.03849
5177.93835,0.03586
5179.86682,0.03440
5181.79529,0.03508
5183.72376,0.03869
5185.65222,0.04579
5187.58069,0.04939
5189.50916,0.03791
5191.43763,0.02407
5193.36610,0.02510
5195.29457,0.02625
5197.22304,0.02221
5199.15151,0.02816
5201.07997,0.04178
5203.00844,0.04757
5204.93691,0.03899
5206.86538,0.02634
5208.79385,0.01719
5210.72232,0.01435
5212.65079,0.02571
5214.57925,0.04340
5216.50772,0.05228
5218.43619,0.04782
5220.36466,0.03577
5222.29313,0.03056
5224.22160,0.03966
5226.15007,0.05464
5228.07854,0.05848
5230.00700,0.05200
5231.93547,0.05454
5233.86394,0.06230
5235.79241,0.05810
5237.72088,0.05132
5239.64935,0.05106
5241.57782,0.04808
5243.50628,0.03943
5245.43475,0.03636
5247.36322,0.04089
5249.29169,0.04820
5251.22016,0.05610
5253.14863,0.05480
5255.07710,0.04285
5257.00556,0.03386
5258.93403,0.03847
5260.86250,0.05114
5262.79097,0.05709
5264.71944,0.05434
5266.64791,0.04908
5268.57638,0.04204
5270.50485,0.03658
5272.43331,0.03416
5274.36178,0.02757
5276.29025,0.01948
5278.21872,0.02217
5280.14719,0.03179
5282.07566,0.03646
5284.00413,0.04088
5285.93259,0.05047
5287.86106,0.05685
5289.78953,0.05625
5291.71800,0.05261
5293.64647,0.05133
5295.57494,0.05282
5297.50341,0.04922
5299.43188,0.04099
5301.36034,0.04140
5303.28881,0.05125
5305.21728,0.06069
5307.14575,0.06698
5309.07422,0.06334
5311.00269,0.04775
5312.93116,0.02969
5314.85962,0.01887
5316.78809,0.02771
5318.71656,0.05175
5320.64503,0.06845
5322.57350,0.06932
5324.50197,0.05774
5326.43044,0.04219
5328.35891,0.03711
5330.28737,0.04361
5332.21584,0.04914
5334.14431,0.04641
5336.07278,0.05241
5338.00125,0.07795
5339.92972,0.08437
5341.85819,0.06707
5343.78665,0.06462
5345.71512,0.07001
5347.64359,0.06316
5349.57206,0.06444
5351.50053,0.08076
5353.42900,0.08986
5355.35747,0.08166
5357.28594,0.07038
5359.21440,0.06140
5361.14287,0.05320
5363.07134,0.05002
5364.99981,0.05625
5366.92828,0.05768
5368.85675,0.04354
5370.78522,0.03674
5372.71368,0.05072
5374.64215,0.05840
5376.57062,0.04518
5378.49909,0.04144
5380.42756,0.05042
5382.35603,0.04827
5384.28450,0.03849
5386.21297,0.03525
5388.14143,0.03946
5390.06990,0.05319
5391.99837,0.06775
5393.92684,0.06772
5395.85531,0.05969
5397.78378,0.06000
5399.71225,0.06227
5401.64071,0.06012
5403.56918,0.06355
5405.49765,0.07083
5407.42612,0.07271
5409.35459,0.07170
5411.28306,0.07034
5413.21153,0.06232
5415.13999,0.05572
5417.06846,0.06567
5418.99693,0.07868
5420.92540,0.07318
5422.85387,0.05338
5424.78234,0.04412
5426.71081,0.05463
5428.63928,0.07096
5430.56774,0.08086
5432.49621,0.09103
5434.42468,0.10627
5436.35315,0.10978
5438.28162,0.09780
5440.21009,0.08025
5442.13856,0.06021
5444.06702,0.04932
5445.99549,0.04914
5447.92396,0.04696
5449.85243,0.04609
5451.78090,0.05302
5453.70937,0.06218
5455.63784,0.06735
5457.56631,0.06751
5459.49477,0.06648
5461.42324,0.06229
5463.35171,0.05751
5465.28018,0.06357
5467.20865,0.07201
5469.13712,0.06643
5471.06559,0.06591
5472.99405,0.08551
5474.92252,0.09576
5476.85099,0.08387
5478.77946,0.07305
5480.70793,0.06765
5482.63640,0.07462
5484.56487,0.09902
5486.49334,0.10754
5488.42180,0.08286
5490.35027,0.07268
5492.27874,0.09275
5494.20721,0.09213
5496.13568,0.07447
5498.06415,0.07534
5499.99262,0.07551
5501.92108,0.05188
5503.84955,0.03929
5505.77802,0.05629
5507.70649,0.06541
5509.63496,0.05000
5511.56343,0.04365
5513.49190,0.06524
5515.42037,0.09304
5517.34883,0.10262
5519.27730,0.08849
5521.20577,0.06397
5523.13424,0.05292
5525.06271,0.06096
5526.99118,0.07000
5528.91965,0.06606
5530.84811,0.05154
5532.77658,0.04361
5534.70505,0.04580
5536.63352,0.04620
5538.56199,0.05608
5540.49046,0.07742
5542.41893,0.08179
5544.34740,0.06779
5546.27586,0.05005
5548.20433,0.03852
5550.13280,0.04519
5552.06127,0.05636
5553.98974,0.06231
5555.91821,0.07202
5557.84668,0.08116
5559.77514,0.09182
5561.70361,0.10474
5563.63208,0.10432
5565.56055,0.09558
5567.48902,0.09466
5569.41749,0.09564
5571.34596,0.08258
5573.27443,0.06348
5575.20289,0.06573
5577.13136,0.08952
5579.05983,0.10442
5580.98830,0.08590
5582.91677,0.06020
5584.84524,0.06506
5586.77371,0.06975
5588.70217,0.05243
5590.63064,0.04978
5592.55911,0.05830
5594.48758,0.05554
5596.41605,0.06105
5598.34452,0.07573
5600.27299,0.07940
5602.20145,0.07769
5604.12992,0.07794
5606.05839,0.07137
5607.98686,0.06355
5609.91533,0.06534
5611.84380,0.06518
5613.77227,0.06404
5615.70074,0.06742
5617.62920,0.05857
5619.55767,0.05306
5621.48614,0.07219
5623.41461,0.09082
5625.34308,0.09426
5627.27155,0.09522
5629.20002,0.09490
5631.12848,0.08251
5633.05695,0.06904
5634.98542,0.07610
5636.91389,0.09947
5638.84236,0.11589
5640.77083,0.10584
5642.69930,0.07985
5644.62777,0.06739
5646.55623,0.07640
5648.48470,0.08166
5650.41317,0.06978
5652.34164,0.05887
5654.27011,0.05482
5656.19858,0.06827
5658.12705,0.09577
5660.05551,0.10486
5661.98398,0.09612
5663.91245,0.08217
5665.84092,0.06962
5667.76939,0.06633
5669.69786,0.06570
5671.62633,0.06648
5673.55480,0.06830
5675.48326,0.06445
5677.41173,0.06473
5679.34020,0.07716
5681.26867,0.07968
5683.19714,0.06717
5685.12561,0.06795
5687.05408,0.08892
5688.98254,0.11680
5690.91101,0.13486
5692.83948,0.11517
5694.76795,0.06757
5696.69642,0.04663
5698.62489,0.06211
5700.55336,0.07879
5702.48183,0.08510
5704.41029,0.08338
5706.33876,0.07907
5708.26723,0.07772
5710.19570,0.07031
5712.12417,0.06103
5714.05264,0.07125
5715.98111,0.08807
5717.90957,0.08345
5719.83804,0.07115
5721.76651,0.07067
5723.69498,0.06721
5725.62345,0.05405
5727.55192,0.04362
5729.48039,0.04900
5731.40886,0.06827
5733.33732,0.07982
5735.26579,0.07749
5737.19426,0.08278
5739.12273,0.11337
5741.05120,0.14371
5742.97967,0.14037
5744.90814,0.11855
5746.83660,0.10609
5748.76507,0.11288
5750.69354,0.11579
5752.62201,0.09454
5754.55048,0.07262
5756.47895,0.06871
5758.40742,0.08395
5760.33588,0.10541
5762.26435,0.11579
5764.19282,0.11416
5766.12129,0.11131
5768.04976,0.12051
5769.97823,0.12658
5771.90670,0.09773
5773.83517,0.05864
5775.76363,0.05964
5777.69210,0.08314
5779.62057,0.08805
5781.54904,0.08093
5783.47751,0.06752
5785.40598,0.04194
5787.33445,0.02638
5789.26291,0.04346
5791.19138,0.08585
5793.11985,0.12052
5795.04832,0.12606
5796.97679,0.11375
5798.90526,0.09578
5800.83373,0.08683
5802.76220,0.09507
5804.69066,0.10174
5806.61913,0.08480
5808.54760,0.05588
5810.47607,0.06235
5812.40454,0.10901
5814.33301,0.14028
5816.26148,0.12826
5818.18994,0.09476
5820.11841,0.06792
5822.04688,0.04966
5823.97535,0.04255
5825.90382,0.04581
5827.83229,0.05241
5829.76076,0.07303
5831.68923,0.10209
5833.61769,0.12042
5835.54616,0.12223
5837.47463,0.10139
5839.40310,0.06022
5841.33157,0.03939
5843.26004,0.05947
5845.18851,0.08070
5847.11697,0.08328
5849.04544,0.07790
5850.97391,0.07409
5852.90238,0.07941
5854.83085,0.08335
5856.75932,0.07907
5858.68779,0.07875
5860.61626,0.07571
5862.54472,0.05927
5864.47319,0.05003
5866.40166,0.05771
5868.33013,0.06655
5870.25860,0.06965
5872.18707,0.07108
5874.11554,0.07580
5876.04400,0.08863
5877.97247,0.10734
5879.90094,0.11701
5881.82941,0.11715
5883.75788,0.11706
5885.68635,0.12100
5887.61482,0.13120
5889.54329,0.13185
5891.47175,0.10966
5893.40022,0.07478
5895.32869,0.05729
5897.25716,0.06541
5899.18563,0.06082
5901.11410,0.03958
5903.04257,0.03942
5904.97103,0.05356
5906.89950,0.05591
5908.82797,0.05647
5910.75644,0.06591
5912.68491,0.08055
5914.61338,0.09246
5916.54185,0.09061
5918.47032,0.08154
5920.39878,0.07270
5922.32725,0.06830
5924.25572,0.07429
5926.18419,0.07561
5928.11266,0.07067
5930.04113,0.07492
5931.96960,0.07131
5933.89806,0.05901
5935.82653,0.07100
5937.75500,0.08833
5939.68347,0.08593
5941.61194,0.08592
5943.54041,0.09194
5945.46888,0.09259
5947.39734,0.09477
5949.32581,0.10439
5951.25428,0.11410
5953.18275,0.09964
5955.11122,0.06703
5957.03969,0.05553
5958.96816,0.06219
5960.89663,0.05744
5962.82509,0.04099
5964.75356,0.02626
5966.68203,0.03043
5968.61050,0.06340
5970.53897,0.09694
5972.46744,0.09768
5974.39591,0.08788
5976.32437,0.09253
5978.25284,0.08651
5980.18131,0.06957
5982.10978,0.07394
5984.03825,0.10212
5985.96672,0.12489
5987.89519,0.12582
5989.82366,0.12388
5991.75212,0.13272
5993.68059,0.13085
5995.60906,0.10851
5997.53753,0.09895
5999.46600,0.09715
6001.39447,0.07120
6003.32294,0.04561
6005.25140,0.04859
6007.17987,0.06253
6009.10834,0.07760
6011.03681,0.08993
6012.96528,0.08871
6014.89375,0.09290
6016.82222,0.11798
6018.75069,0.11769
6020.67915,0.06942
6022.60762,0.03638
6024.53609,0.04658
6026.46456,0.06321
6028.39303,0.06287
6030.32150,0.04798
6032.24997,0.03296
6034.17843,0.03947
6036.10690,0.05997
6038.03537,0.07719
6039.96384,0.09645
6041.89231,0.09670
6043.82078,0.04980
6045.74925,-0.00517
6047.67772,-0.01197
6049.60618,0.02017
6051.53465,0.05079
6053.46312,0.08431
6055.39159,0.12277
6057.32006,0.13763
6059.24853,0.13712
6061.17700,0.15171
6063.10546,0.15453
6065.03393,0.12172
6066.96240,0.09859
6068.89087,0.09529
6070.81934,0.08710
6072.74781,0.07886
6074.67628,0.08112
6076.60475,0.09522
6078.53321,0.10118
6080.46168,0.09289
6082.39015,0.10213
6084.31862,0.11865
6086.24709,0.09918
6088.17556,0.06360
6090.10403,0.06320
6092.03249,0.07225
6093.96096,0.04688
6095.88943,0.01832
6097.81790,0.02083
6099.74637,0.05167
6101.67484,0.08529
6103.60331,0.08124
6105.53177,0.05253
6107.46024,0.04696
6109.38871,0.07319
6111.31718,0.10142
6113.24565,0.09960
6115.17412,0.07860
6117.10259,0.07864
6119.03106,0.09923
6120.95952,0.10727
6122.88799,0.09628
6124.81646,0.08399
6126.74493,0.08412
6128.67340,0.08698
6130.60187,0.08652
6132.53034,0.08480
6134.45880,0.07669
6136.38727,0.06205
6138.31574,0.04861
6140.24421,0.05397
6142.17268,0.07438
6144.10115,0.08420
6146.02962,0.08125
6147.95809,0.07152
6149.88655,0.06592
6151.81502,0.08303
6153.74349,0.11523
6155.67196,0.12728
6157.60043,0.09312
6159.52890,0.05026
6161.45737,0.06078
6163.38583,0.06853
6165.31430,0.01876
6167.24277,-0.00211
6169.17124,0.04110
6171.09971,0.09339
6173.02818,0.12415
6174.95665,0.13117
6176.88512,0.10980
6178.81358,0.08547
6180.74205,0.08982
6182.67052,0.10207
6184.59899,0.09813
6186.52746,0.08223
6188.45593,0.07278
6190.38440,0.07456
6192.31286,0.07163
6194.24133,0.08053
6196.16980,0.08843
6198.09827,0.05920
6200.02674,0.03140
6201.95521,0.03934
6203.88368,0.05983
6205.81215,0.06895
6207.74061,0.07213
6209.66908,0.08264
6211.59755,0.10369
6213.52602,0.12628
6215.45449,0.13864
6217.38296,0.13566
6219.31143,0.11320
6221.23989,0.07968
6223.16836,0.06834
6225.09683,0.09579
6227.02530,0.13591
6228.95377,0.14867
6230.88224,0.11995
6232.81071,0.09355
6234.73918,0.11268
6236.66764,0.14955
6238.59611,0.15167
6240.52458,0.10105
6242.45305,0.04656
6244.38152,0.04791
6246.30999,0.08500
6248.23846,0.10617
6250.16692,0.12360
6252.09539,0.15690
6254.02386,0.15942
6255.95233,0.12210
6257.88080,0.11501
6259.80927,0.15691
6261.73774,0.18244
6263.66621,0.15576
6265.59467,0.10536
6267.52314,0.07054
6269.45161,0.06303
6271.38008,0.08861
6273.30855,0.14973
6275.23702,0.20178
6277.16549,0.18202
6279.09395,0.10862
6281.02242,0.05957
6282.95089,0.06781
6284.87936,0.09718
6286.80783,0.10169
6288.73630,0.07146
6290.66477,0.04609
6292.59323,0.06904
6294.52170,0.10865
6296.45017,0.10286
6298.37864,0.05620
6300.30711,0.00998
6302.23558,-0.01713
6304.16405,-0.00349
6306.09252,0.04440
6308.02098,0.08600
6309.94945,0.11385
6311.87792,0.12079
6313.80639,0.09912
6315.73486,0.09197
6317.66333,0.09268
6319.59180,0.04852
6321.52026,0.01007
6323.44873,0.03353
6325.37720,0.04662
6327.30567,0.02700
6329.23414,0.03963
6331.16261,0.08727
6333.09108,0.12739
6335.01955,0.13423
6336.94801,0.08490
6338.87648,0.01732
6340.80495,-0.00313
6342.73342,0.01095
6344.66189,0.03307
6346.59036,0.05685
6348.51883,0.06674
6350.44729,0.07069
6352.37576,0.07736
6354.30423,0.08622
6356.23270,0.08865
6358.16117,0.07375
6360.08964,0.06095
6362.01811,0.06320
6363.94658,0.06629
6365.87504,0.06266
6367.80351,0.05974
6369.73198,0.07963
6371.66045,0.10576
6373.58892,0.09771
6375.51739,0.09427
6377.44586,0.10784
6379.37432,0.08113
6381.30279,0.03217
6383.23126,0.03265
6385.15973,0.05882
6387.08820,0.04251
6389.01667,0.01377
6390.94514,0.00948
6392.87361,0.02918
6394.80207,0.05446
6396.73054,0.04513
6398.65901,0.01199
6400.58748,0.00120
6402.51595,0.01782
6404.44442,0.03951
6406.37289,0.05779
6408.30135,0.06572
6410.22982,0.07682
6412.15829,0.08662
6414.08676,0.07019
6416.01523,0.06621
6417.94370,0.09226
6419.87217,0.10547
6421.80064,0.10763
6423.72910,0.11150
6425.65757,0.10688
6427.58604,0.09908
6429.51451,0.07678
6431.44298,0.03269
6433.37145,0.02955
6435.29992,0.08833
6437.22838,0.15319
6439.15685,0.16612
6441.08532,0.13668
6443.01379,0.10728
6444.94226,0.09135
6446.87073,0.10014
6448.79920,0.11811
6450.72766,0.08069
6452.65613,-0.00254
6454.58460,-0.04444
6456.51307,-0.02406
6458.44154,0.00884
6460.37001,0.01882
6462.29848,-0.00377
6464.22695,-0.02256
6466.15541,0.01045
6468.08388,0.04033
6470.01235,0.00797
6471.94082,-0.03835
6473.86929,-0.03715
6475.79776,0.03489
6477.72623,0.12463
6479.65469,0.13594
6481.58316,0.08401
6483.51163,0.05112
6485.44010,0.06749
6487.36857,0.09102
6489.29704,0.06838
6491.22551,0.04987
6493.15398,0.08770
6495.08244,0.11235
6497.01091,0.10358
6498.93938,0.09943
6500.86785,0.11985
6502.79632,0.14254
6504.72479,0.13139
6506.65326,0.12124
6508.58172,0.14019
6510.51019,0.14627
6512.43866,0.11898
6514.36713,0.09540
6516.29560,0.07105
6518.22407,0.04339
6520.15254,0.05206
6522.08101,0.07464
6524.00947,0.07432
6525.93794,0.06097
6527.86641,0.02829
6529.79488,-0.01995
6531.72335,-0.03923
6533.65182,-0.04532
6535.58029,-0.08033
6537.50875,-0.08767
6539.43722,-0.04355
6541.36569,-0.01088
6543.29416,0.01384
6545.22263,0.06662
6547.15110,0.13907
6549.07957,0.19375
6551.00804,0.18719
6552.93650,0.12578
6554.86497,0.06801
6556.79344,0.08742
6558.72191,0.14790
6560.65038,0.14062
6562.57885,0.06522
6564.50732,0.01000
6566.43578,0.03963
6568.36425,0.10979
6570.29272,0.13824
6572.22119,0.10864
6574.14966,0.04621
6576.07813,-0.01928
6578.00660,-0.04605
6579.93507,0.00062
6581.86353,0.07817
6583.79200,0.09282
6585.72047,0.04921
6587.64894,0.05309
6589.57741,0.12036
6591.50588,0.15334
6593.43435,0.10813
6595.36281,0.05334
6597.29128,0.05581
6599.21975,0.09778
6601.14822,0.12126
6603.07669,0.10938
6605.00516,0.11170
6606.93363,0.14506
6608.86210,0.15222
6610.79056,0.09425
6612.71903,0.04408
6614.64750,0.06944
6616.57597,0.10574
6618.50444,0.08552
6620.43291,0.05927
6622.36138,0.04724
6624.28984,0.00667
6626.21831,-0.02943
6628.14678,-0.01795
6630.07525,0.01640
6632.00372,0.05050
6633.93219,0.07674
6635.86066,0.07021
6637.78912,0.02075
6639.71759,-0.00693
6641.64606,0.03013
6643.57453,0.08658
6645.50300,0.10365
6647.43147,0.08204
6649.35994,0.07961
6651.28841,0.11060
6653.21687,0.12305
6655.14534,0.11311
6657.07381,0.10901
6659.00228,0.07247
6660.93075,0.02425
6662.85922,0.04163
6664.78769,0.07268
6666.71615,0.04484
6668.64462,-0.00683
6670.57309,-0.03399
6672.50156,-0.02745
6674.43003,0.00940
6676.35850,0.03698
6678.28697,0.04125
6680.21544,0.03151
6682.14390,0.01619
6684.07237,0.02779
6686.00084,0.04417
6687.92931,0.01358
6689.85778,-0.02407
6691.78625,-0.02460
6693.71472,-0.02610
6695.64318,-0.03190
6697.57165,-0.00511
6699.50012,0.02263
6701.42859,0.01414
6703.35706,-0.00012
6705.28553,0.00730
6707.21400,0.03547
6709.14247,0.08677
6711.07093,0.13632
6712.99940,0.14427
6714.92787,0.11134
6716.85634,0.05938
6718.78481,0.02436
6720.71328,0.03517
6722.64175,0.05305
6724.57021,0.04340
6726.49868,0.03828
6728.42715,0.07389
6730.35562,0.14156
6732.28409,0.18443
6734.21256,0.14766
6736.14103,0.04154
6738.06950,-0.03735
6739.99796,-0.04106
6741.92643,-0.00769
6743.85490,0.03128
6745.78337,0.05526
6747.71184,0.04264
6749.64031,0.02474
6751.56878,0.02593
6753.49724,0.01690
6755.42571,-0.01662
6757.35418,-0.04769
6759.28265,-0.03384
6761.21112,0.03028
6763.13959,0.07260
6765.06806,0.06442
6766.99653,0.05489
6768.92499,0.06683
6770.85346,0.07540
6772.78193,0.09141
6774.71040,0.11673
6776.63887,0.08726
6778.56734,0.01344
6780.49581,-0.02141
6782.42427,-0.00964
6784.35274,0.01541
6786.28121,0.05135
6788.20968,0.07612
6790.13815,0.06014
6792.06662,0.02819
6793.99509,0.00420
6795.92355,-0.01836
6797.85202,-0.03424
6799.78049,-0.01891
6801.70896,0.02532
6803.63743,0.05381
6805.56590,0.09599
6807.49437,0.13485
6809.42284,0.10475
6811.35130,0.04943
6813.27977,0.03522
6815.20824,0.03457
6817.13671,-0.01876
6819.06518,-0.09933
6820.99365,-0.13328
6822.92212,-0.08286
6824.85058,0.02937
6826.77905,0.12101
6828.70752,0.15215
6830.63599,0.16012
6832.56446,0.17751
6834.49293,0.18566
6836.42140,0.17420
6838.34987,0.15146
6840.27833,0.11606
6842.20680,0.06776
6844.13527,0.05006
6846.06374,0.10136
6847.99221,0.16414
6849.92068,0.14686
6851.84915,0.10974
6853.77761,0.13190
6855.70608,0.14476
6857.63455,0.10295
6859.56302,0.09196
6861.49149,0.11910
6863.41996,0.12886
6865.34843,0.12031
6867.27690,0.07418
6869.20536,-0.01486
6871.13383,-0.11207
6873.06230,-0.17384
6874.99077,-0.11625
6876.91924,0.02493
6878.84771,0.12746
6880.77618,0.12111
6882.70464,0.06730
6884.63311,0.08082
6886.56158,0.12451
6888.49005,0.07871
6890.41852,-0.02093
6892.34699,-0.05580
6894.27546,0.00227
6896.20393,0.09534
6898.13239,0.13268
6900.06086,0.09897
6901.98933,0.07429
6903.91780,0.04602
6905.84627,-0.00052
6907.77474,0.01842
6909.70321,0.04109
6911.63167,-0.02153
6913.56014,-0.10650
6915.48861,-0.13406
6917.41708,-0.07317
6919.34555,0.03278
6921.27402,0.09160
6923.20249,0.13431
6925.13096,0.11880
6927.05942,0.02704
6928.98789,-0.02137
6930.91636,0.00565
6932.84483,0.07135
6934.77330,0.12250
6936.70177,0.12196
6938.63024,0.12664
6940.55870,0.15004
6942.48717,0.13514
6944.41564,0.11003
6946.34411,0.10026
6948.27258,0.06848
6950.20105,0.02558
6952.12952,0.00242
6954.05799,-0.04037
6955.98645,-0.09702
6957.91492,-0.07737
6959.84339,-0.02275
6961.77186,-0.01547
6963.70033,0.00445
6965.62880,0.05516
6967.55727,0.09235
6969.48573,0.11919
6971.41420,0.09946
6973.34267,-0.01913
6975.27114,-0.13751
6977.19961,-0.06644
6979.12808,0.08629
6981.05655,0.10207
6982.98501,0.01955
6984.91348,0.00435
6986.84195,0.01405
6988.77042,-0.03618
6990.69889,-0.04464
6992.62736,0.01338
6994.55583,0.03790
6996.48430,0.01685
6998.41276,0.03227
7000.34123,0.09645
7002.26970,0.13493
7004.19817,0.14215
7006.12664,0.12332
7008.05511,0.03432
7009.98358,-0.08070
7011.91204,-0.12970
7013.84051,-0.10524
7015.76898,-0.04859
7017.69745,0.03064
7019.62592,0.09578
7021.55439,0.11525
7023.48286,0.07765
7025.41133,-0.03652
7027.33979,-0.16992
7029.26826,-0.16334
7031.19673,-0.00306
7033.12520,0.11527
7035.05367,0.12301
7036.98214,0.11743
7038.91061,0.12822
7040.83907,0.12926
7042.76754,0.15066
7044.69601,0.16198
7046.62448,0.12857
7048.55295,0.08069
7050.48142,-0.00347
7052.40989,-0.06434
7054.33836,-0.04716
7056.26682,-0.01603
7058.19529,0.03792
7060.12376,0.07461
7062.05223,0.02830
7063.98070,0.00891
7065.90917,0.08067
7067.83764,0.16417
7069.76610,0.17867
7071.69457,0.07893
7073.62304,-0.03251
7075.55151,-0.05322
7077.47998,-0.02216
7079.40845,0.01044
7081.33692,0.03063
7083.26539,0.01256
7085.19385,-0.02505
7087.12232,-0.02614
7089.05079,-0.01725
7090.97926,-0.06844
7092.90773,-0.09981
7094.83620,-0.01673
7096.76467,0.12509
7098.69313,0.22751
7100.62160,0.24166
7102.55007,0.23131
7104.47854,0.23321
7106.40701,0.18743
7108.33548,0.06726
7110.26395,-0.05204
7112.19242,-0.07849
7114.12088,-0.01784
7116.04935,0.02379
7117.97782,0.00416
7119.90629,-0.01747
7121.83476,-0.01397
7123.76323,0.00520
7125.69170,0.02205
7127.62016,0.02169
7129.54863,0.05479
7131.47710,0.12175
7133.40557,0.13648
7135.33404,0.09152
7137.26251,0.06209
7139.19098,0.05614
7141.11944,0.05233
7143.04791,0.07664
7144.97638,0.08749
7146.90485,0.06733
7148.83332,0.09946
7150.76179,0.15355
7152.69026,0.14059
7154.61873,0.03943
7156.54719,-0.04726
7158.47566,-0.03959
7160.40413,0.00989
7162.33260,0.04555
7164.26107,0.09495
7166.18954,0.13283
7168.11801,0.09188
7170.04647,-0.01064
7171.97494,-0.05866
7173.90341,0.01264
7175.83188,0.10943
7177.76035,0.14991
7179.68882,0.12419
7181.61729,0.05402
7183.54576,0.02598
7185.47422,0.06145
7187.40269,0.08240
7189.33116,0.08302
7191.25963,0.08997
7193.18810,0.09938
7195.11657,0.12619
7197.04504,0.14490
7198.97350,0.09784
7200.90197,-0.00202
7202.83044,-0.10112
7204.75891,-0.12520
7206.68738,-0.10865
7208.61585,-0.09014
7210.54432,-0.04741
7212.47279,-0.05540
7214.40125,-0.09186
7216.32972,-0.01536
7218.25819,0.13600
7220.18666,0.13600
7222.11513,0.02512
7224.04360,-0.05646
7225.97207,-0.05714
7227.90053,-0.02635
7229.82900,0.01541
7231.75747,0.05017
7233.68594,0.04499
7235.61441,0.03534
7237.54288,0.02502
7239.47135,0.02774
7241.39982,0.06460
7243.32828,0.07964
7245.25675,0.04634
7247.18522,0.04455
7249.11369,0.07338
7251.04216,0.08506
7252.97063,0.07667
7254.89910,0.06499
7256.82756,0.04354
7258.75603,0.00383
7260.68450,-0.01277
7262.61297,0.10324
7264.54144,0.24277
7266.46991,0.16910
7268.39838,-0.04637
7270.32685,-0.18997
7272.25531,-0.09195
7274.18378,0.07773
7276.11225,0.07519
7278.04072,-0.04042
7279.96919,-0.13113
7281.89766,-0.12982
7283.82613,-0.15092
7285.75459,-0.15541
7287.68306,-0.03651
7289.61153,0.14148
7291.54000,0.19116
7293.46847,0.08849
7295.39694,0.00353
7297.32541,-0.00769
7299.25387,-0.01807
7301.18234,-0.07267
7303.11081,-0.13648
7305.03928,-0.14859
7306.96775,-0.12773
7308.89622,-0.13798
7310.82469,-0.15471
7312.75316,-0.12896
7314.68162,-0.05012
7316.61009,0.10646
7318.53856,0.17273
7320.46703,0.08692
7322.39550,0.01809
7324.32397,-0.01862
7326.25244,-0.02450
7328.18090,0.06647
7330.10937,0.13591
7332.03784,0.11335
7333.96631,0.13766
7335.89478,0.21908
7337.82325,0.28461
7339.75172,0.18724
7341.68019,-0.04557
7343.60865,-0.06231
7345.53712,0.08164
7347.46559,0.13438
7349.39406,0.08066
7351.32253,0.04834
7353.25100,0.04769
7355.17947,0.08805
7357.10793,0.21080
7359.03640,0.31961
7360.96487,0.24801
7362.89334,0.07894
7364.82181,-0.04289
7366.75028,-0.05749
7368.67875,-0.02448
7370.60722,-0.03615
7372.53568,-0.06026
7374.46415,-0.04657
7376.39262,-0.02874
7378.32109,-0.03914
7380.24956,-0.03860
7382.17803,0.00206
7384.10650,0.05197
7386.03496,0.11314
7387.96343,0.23141
7389.89190,0.25592
7391.82037,0.10678
7393.74884,-0.03471
7395.67731,-0.06020
7397.60578,-0.07820
7399.53425,-0.06793
7401.46271,0.05953
7403.39118,0.18607
7405.31965,0.17745
7407.24812,0.15946
7409.17659,0.15637
7411.10506,0.11428
7413.03353,0.08027
7414.96199,0.02258
7416.89046,-0.09346
7418.81893,-0.19411
7420.74740,-0.25990
7422.67587,-0.24658
7424.60434,-0.10525
7426.53281,0.08167
7428.46128,0.23434
7430.38974,0.22927
7432.31821,0.09295
7434.24668,0.03469
7436.17515,0.04070
7438.10362,-0.02272
7440.03209,-0.14010
7441.96056,-0.12778
7443.88902,0.04792
7445.81749,0.19723
7447.74596,0.22086
7449.67443,0.15801
7451.60290,0.08963
7453.53137,0.02451
7455.45984,-0.02013
7457.38831,0.00271
7459.31677,0.06549
7461.24524,0.07393
7463.17371,0.03504
7465.10218,0.11207
7467.03065,0.30081
7468.95912,0.35961
7470.88759,0.21999
7472.81605,0.06058
7474.74452,0.06893
7476.67299,0.16264
7478.60146,0.17454
7480.52993,0.13410
7482.45840,0.09175
7484.38687,-0.00136
7486.31533,-0.06349
7488.24380,-0.02211
7490.17227,0.04464
7492.10074,0.03154
7494.02921,-0.01369
7495.95768,0.04568
7497.88615,0.27708
