399.19301,0.25641
401.12148,-0.28981
403.04995,-0.31674
404.97842,-0.19009
406.90689,-0.01066
408.83536,0.14454
410.76382,0.25230
412.69229,0.32318
414.62076,0.29395
416.54923,0.17256
418.47770,0.06540
420.40617,0.07080
422.33464,0.13484
424.26311,0.16507
426.19157,0.08441
428.12004,-0.01240
430.04851,0.01221
431.97698,0.09118
433.90545,0.11918
435.83392,0.12264
437.76239,0.06839
439.69085,0.00095
441.61932,0.02705
443.54779,0.10509
445.47626,0.12450
447.40473,0.09219
449.33320,0.04508
451.26167,0.01461
453.19013,0.02252
455.11860,0.06095
457.04707,0.08783
458.97554,0.04029
460.90401,-0.02607
462.83248,0.00214
464.76095,0.08545
466.68942,0.10351
468.61788,0.07535
470.54635,0.09962
472.47482,0.20819
474.40329,0.25167
476.33176,0.12541
478.26023,0.00662
480.18870,-0.03191
482.11716,0.02175
484.04563,0.10361
485.97410,0.13407
487.90257,0.13084
489.83104,0.13951
491.75951,0.16172
493.68798,0.15957
495.61645,0.12758
497.54491,0.10570
499.47338,0.11018
501.40185,0.12360
503.33032,0.11119
505.25879,0.07700
507.18726,0.07432
509.11573,0.09623
511.04419,0.09704
512.97266,0.09346
514.90113,0.10212
516.82960,0.10779
518.75807,0.10173
520.68654,0.08381
522.61501,0.05864
524.54348,0.05159
526.47194,0.07705
528.40041,0.08779
530.32888,0.08404
532.25735,0.11096
534.18582,0.14999
536.11429,0.16536
538.04276,0.16110
539.97122,0.16327
541.89969,0.17361
543.82816,0.16399
545.75663,0.13374
547.68510,0.10849
549.61357,0.11255
551.54204,0.19388
553.47051,0.30178
555.39897,0.28870
557.32744,0.18171
559.25591,0.10247
561.18438,0.06414
563.11285,0.06416
565.04132,0.08422
566.96979,0.08380
568.89825,0.05601
570.82672,0.03180
572.75519,0.03628
574.68366,0.06103
576.61213,0.09105
578.54060,0.10909
580.46907,0.10487
582.39754,0.08898
584.32600,0.06901
586.25447,0.05189
588.18294,0.06324
590.11141,0.10553
592.03988,0.13727
593.96835,0.13173
595.89682,0.10937
597.82528,0.08952
599.75375,0.08351
601.68222,0.09850
603.61069,0.12130
605.53916,0.13559
607.46763,0.13507
609.39610,0.13036
611.32456,0.13397
613.25303,0.13309
615.18150,0.12374
617.10997,0.11941
619.03844,0.11348
620.96691,0.10360
622.89538,0.10062
624.82385,0.10932
626.75231,0.12679
628.68078,0.12916
630.60925,0.11245
632.53772,0.10555
634.46619,0.10979
636.39466,0.11498
638.32313,0.12603
640.25159,0.13204
642.18006,0.12737
644.10853,0.12697
646.03700,0.12824
647.96547,0.12407
649.89394,0.11620
651.82241,0.10969
653.75088,0.11534
655.67934,0.12759
657.60781,0.13244
659.53628,0.12858
661.46475,0.12581
663.39322,0.12766
665.32169,0.12183
667.25016,0.10880
669.17862,0.11930
671.10709,0.13612
673.03556,0.12904
674.96403,0.11142
676.89250,0.10482
678.82097,0.10796
680.74944,0.10950
682.67791,0.11444
684.60637,0.12606
686.53484,0.13209
688.46331,0.12459
690.39178,0.12192
692.32025,0.13423
694.24872,0.13941
696.17719,0.13017
698.10565,0.12203
700.03412,0.12082
701.96259,0.12516
703.89106,0.12852
705.81953,0.12293
707.74800,0.11802
709.67647,0.12364
711.60494,0.13043
713.53340,0.13481
715.46187,0.14067
717.39034,0.14372
719.31881,0.13919
721.24728,0.12523
723.17575,0.11800
725.10422,0.13339
727.03268,0.14942
728.96115,0.14971
730.88962,0.14408
732.81809,0.13484
734.74656,0.12802
736.67503,0.12787
738.60350,0.12500
740.53197,0.12335
742.46043,0.12586
744.38890,0.12323
746.31737,0.12119
748.24584,0.12576
750.17431,0.12938
752.10278,0.12628
754.03125,0.12097
755.95971,0.11901
757.88818,0.11584
759.81665,0.11884
761.74512,0.13030
763.67359,0.13199
765.60206,0.12832
767.53053,0.12926
769.45900,0.12603
771.38746,0.12196
773.31593,0.12506
775.24440,0.12680
777.17287,0.12326
779.10134,0.12430
781.02981,0.13128
782.95828,0.13556
784.88674,0.13436
786.81521,0.13222
788.74368,0.13244
790.67215,0.13702
792.60062,0.14468
794.52909,0.14510
796.45756,0.13648
798.38602,0.13178
800.31449,0.13313
802.24296,0.13139
804.17143,0.12351
806.09990,0.11283
808.02837,0.10568
809.95684,0.10570
811.88531,0.10939
813.81377,0.11124
815.74224,0.10883
817.67071,0.10624
819.59918,0.10791
821.52765,0.11625
823.45612,0.12828
825.38459,0.13416
827.31305,0.13295
829.24152,0.12933
831.16999,0.12933
833.09846,0.13822
835.02693,0.14553
836.95540,0.14466
838.88387,0.14500
840.81234,0.14624
842.74080,0.14122
844.66927,0.13211
846.59774,0.12122
848.52621,0.11250
850.45468,0.11441
852.38315,0.12265
854.31162,0.12974
856.24008,0.13660
858.16855,0.14251
860.09702,0.14517
862.02549,0.14566
863.95396,0.14297
865.88243,0.13268
867.81090,0.11991
869.73937,0.11571
871.66783,0.12288
873.59630,0.13135
875.52477,0.13158
877.45324,0.12948
879.38171,0.12709
881.31018,0.12021
883.23865,0.11649
885.16711,0.12369
887.09558,0.13547
889.02405,0.14024
890.95252,0.13727
892.88099,0.13240
894.80946,0.13013
896.73793,0.13141
898.66640,0.13539
900.59486,0.14360
902.52333,0.14916
904.45180,0.14709
906.38027,0.14487
908.30874,0.14478
910.23721,0.14261
912.16568,0.13627
914.09414,0.13012
916.02261,0.13140
917.95108,0.13970
919.87955,0.14436
921.80802,0.14030
923.73649,0.13698
925.66496,0.13770
927.59343,0.13595
929.52189,0.13228
931.45036,0.13194
933.37883,0.13502
935.30730,0.13795
937.23577,0.14075
939.16424,0.14580
941.09271,0.14898
943.02117,0.14789
944.94964,0.14604
946.87811,0.14061
948.80658,0.13296
950.73505,0.13178
952.66352,0.13694
954.59199,0.14225
956.52045,0.14565
958.44892,0.14722
960.37739,0.14532
962.30586,0.14193
964.23433,0.13747
966.16280,0.13109
968.09127,0.12783
970.01974,0.12766
971.94820,0.12839
973.87667,0.13208
975.80514,0.13555
977.73361,0.13571
979.66208,0.13555
981.59055,0.13873
983.51902,0.14486
985.44748,0.14723
987.37595,0.14473
989.30442,0.14628
991.23289,0.15279
993.16136,0.15383
995.08983,0.14790
997.01830,0.14742
998.94677,0.15429
1000.87523,0.15606
1002.80370,0.15099
1004.73217,0.14720
1006.66064,0.14563
1008.58911,0.14429
1010.51758,0.14462
1012.44605,0.14530
1014.37451,0.14457
1016.30298,0.14505
1018.23145,0.14636
1020.15992,0.14561
1022.08839,0.14571
1024.01686,0.14863
1025.94533,0.15071
1027.87380,0.15306
1029.80226,0.15778
1031.73073,0.15900
1033.65920,0.15124
1035.58767,0.13842
1037.51614,0.13159
1039.44461,0.13393
1041.37308,0.13744
1043.30154,0.13883
1045.23001,0.14336
1047.15848,0.15252
1049.08695,0.15745
1051.01542,0.15383
1052.94389,0.14774
1054.87236,0.14270
1056.80083,0.13988
1058.72929,0.14190
1060.65776,0.14711
1062.58623,0.15030
1064.51470,0.15173
1066.44317,0.15387
1068.37164,0.15510
1070.30011,0.15132
1072.22857,0.14256
1074.15704,0.13908
1076.08551,0.14719
1078.01398,0.15811
1079.94245,0.16077
1081.87092,0.15691
1083.79939,0.15529
1085.72786,0.15773
1087.65632,0.15741
1089.58479,0.15135
1091.51326,0.14788
1093.44173,0.15012
1095.37020,0.15137
1097.29867,0.15186
1099.22714,0.15489
1101.15560,0.15498
1103.08407,0.15152
1105.01254,0.15396
1106.94101,0.15886
1108.86948,0.15478
1110.79795,0.14844
1112.72642,0.15346
1114.65489,0.16139
1116.58335,0.15828
1118.51182,0.15087
1120.44029,0.14826
1122.36876,0.14851
1124.29723,0.14764
1126.22570,0.14709
1128.15417,0.14853
1130.08263,0.14932
1132.01110,0.15077
1133.93957,0.15243
1135.86804,0.15429
1137.79651,0.16017
1139.72498,0.16238
1141.65345,0.15583
1143.58191,0.15092
1145.51038,0.15287
1147.43885,0.15672
1149.36732,0.15747
1151.29579,0.15484
1153.22426,0.15364
1155.15273,0.15568
1157.08120,0.15748
1159.00966,0.15743
1160.93813,0.15651
1162.86660,0.15475
1164.79507,0.15317
1166.72354,0.15516
1168.65201,0.15877
1170.58048,0.15995
1172.50894,0.15964
1174.43741,0.15837
1176.36588,0.15864
1178.29435,0.16067
1180.22282,0.15926
1182.15129,0.15742
1184.07976,0.16094
1186.00823,0.16579
1187.93669,0.16600
1189.86516,0.16348
1191.79363,0.16151
1193.72210,0.15959
1195.65057,0.16160
1197.57904,0.16770
1199.50751,0.17013
1201.43597,0.16933
1203.36444,0.16799
1205.29291,0.16401
1207.22138,0.16004
1209.14985,0.15940
1211.07832,0.15950
1213.00679,0.15835
1214.93526,0.15803
1216.86372,0.15798
1218.79219,0.15687
1220.72066,0.15695
1222.64913,0.15868
1224.57760,0.16071
1226.50607,0.16206
1228.43454,0.16231
1230.36300,0.16207
1232.29147,0.16080
1234.21994,0.15941
1236.14841,0.16020
1238.07688,0.16237
1240.00535,0.16407
1241.93382,0.16418
1243.86229,0.16261
1245.79075,0.16196
1247.71922,0.16233
1249.64769,0.16172
1251.57616,0.16151
1253.50463,0.16210
1255.43310,0.16291
1257.36157,0.16514
1259.29003,0.16773
1261.21850,0.16739
1263.14697,0.16552
1265.07544,0.16660
1267.00391,0.16971
1268.93238,0.17347
1270.86085,0.17684
1272.78932,0.17523
1274.71778,0.17084
1276.64625,0.17021
1278.57472,0.17165
1280.50319,0.17074
1282.43166,0.16928
1284.36013,0.16969
1286.28860,0.16937
1288.21706,0.16773
1290.14553,0.16701
1292.07400,0.16643
1294.00247,0.16708
1295.93094,0.16969
1297.85941,0.16859
1299.78788,0.16352
1301.71634,0.16042
1303.64481,0.15886
1305.57328,0.15878
1307.50175,0.16272
1309.43022,0.16689
1311.35869,0.16959
1313.28716,0.17283
1315.21563,0.17585
1317.14409,0.17835
1319.07256,0.17782
1321.00103,0.17358
1322.92950,0.17113
1324.85797,0.17065
1326.78644,0.16851
1328.71491,0.16746
1330.64337,0.16981
1332.57184,0.17289
1334.50031,0.17736
1336.42878,0.18493
1338.35725,0.19217
1340.28572,0.19003
1342.21419,0.17948
1344.14266,0.17273
1346.07112,0.17034
1347.99959,0.16794
1349.92806,0.16785
1351.85653,0.17059
1353.78500,0.17154
1355.71347,0.17043
1357.64194,0.17195
1359.57040,0.17739
1361.49887,0.18598
1363.42734,0.18992
1365.35581,0.18456
1367.28428,0.17995
1369.21275,0.17845
1371.14122,0.18083
1373.06969,0.19071
1374.99815,0.19658
1376.92662,0.19040
1378.85509,0.18313
1380.78356,0.17827
1382.71203,0.17618
1384.64050,0.18121
1386.56897,0.18818
1388.49743,0.18389
1390.42590,0.17690
1392.35437,0.18254
1394.28284,0.19629
1396.21131,0.20262
1398.13978,0.19918
1400.06825,0.19120
1401.99672,0.18485
1403.92518,0.18458
1405.85365,0.18462
1407.78212,0.18173
1409.71059,0.18099
1411.63906,0.18126
1413.56753,0.18167
1415.49600,0.18742
1417.42446,0.19923
1419.35293,0.20313
1421.28140,0.19438
1423.20987,0.18790
1425.13834,0.18422
1427.06681,0.18430
1428.99528,0.18942
1430.92375,0.19036
1432.85221,0.18904
1434.78068,0.19527
1436.70915,0.19776
1438.63762,0.18506
1440.56609,0.17577
1442.49456,0.17577
1444.42303,0.18161
1446.35149,0.19175
1448.27996,0.19847
1450.20843,0.19637
1452.13690,0.19704
1454.06537,0.21160
1455.99384,0.24224
1457.92231,0.25174
1459.85077,0.22167
1461.77924,0.20409
1463.70771,0.20429
1465.63618,0.20592
1467.56465,0.20319
1469.49312,0.21000
1471.42159,0.23023
1473.35006,0.24147
1475.27852,0.22719
1477.20699,0.20822
1479.13546,0.19585
1481.06393,0.19060
1482.99240,0.18934
1484.92087,0.19532
1486.84934,0.21355
1488.77780,0.23274
1490.70627,0.22573
1492.63474,0.20942
1494.56321,0.21017
1496.49168,0.22163
1498.42015,0.22056
1500.34862,0.20828
1502.27709,0.20523
1504.20555,0.22582
1506.13402,0.27705
1508.06249,0.28390
1509.99096,0.24056
1511.91943,0.21620
1513.84790,0.21517
1515.77637,0.23197
1517.70483,0.24819
1519.63330,0.25842
1521.56177,0.26333
1523.49024,0.24827
1525.41871,0.23336
1527.34718,0.22106
1529.27565,0.20960
1531.20412,0.21191
1533.13258,0.22198
1535.06105,0.22444
1536.98952,0.23916
1538.91799,0.28676
1540.84646,0.32752
1542.77493,0.30330
1544.70340,0.26195
1546.63186,0.22948
1548.56033,0.21747
1550.48880,0.21558
1552.41727,0.21685
1554.34574,0.22833
1556.27421,0.25636
1558.20268,0.29873
1560.13115,0.27229
1562.05961,0.22502
1563.98808,0.20925
1565.91655,0.20837
1567.84502,0.21535
1569.77349,0.21978
1571.70196,0.21174
1573.63043,0.21130
1575.55889,0.22275
1577.48736,0.21811
1579.41583,0.20041
1581.34430,0.18987
1583.27277,0.18590
1585.20124,0.18429
1587.12971,0.18349
1589.05818,0.18520
1590.98664,0.18936
1592.91511,0.19186
1594.84358,0.18969
1596.77205,0.18516
1598.70052,0.18416
1600.62899,0.18736
1602.55746,0.19112
1604.48592,0.19510
1606.41439,0.19860
1608.34286,0.19858
1610.27133,0.19506
1612.19980,0.19287
1614.12827,0.19960
1616.05674,0.21431
1617.98521,0.21592
1619.91367,0.21046
1621.84214,0.21420
1623.77061,0.21543
1625.69908,0.20961
1627.62755,0.20771
1629.55602,0.20509
1631.48449,0.20496
1633.41295,0.22112
1635.34142,0.24942
1637.26989,0.24359
1639.19836,0.21831
1641.12683,0.20817
1643.05530,0.21579
1644.98377,0.24147
1646.91223,0.26900
1648.84070,0.26522
1650.76917,0.26616
1652.69764,0.28597
1654.62611,0.25829
1656.55458,0.21814
1658.48305,0.20369
1660.41152,0.20798
1662.33998,0.21638
1664.26845,0.21395
1666.19692,0.21548
1668.12539,0.23299
1670.05386,0.24596
1671.98233,0.23786
1673.91080,0.23080
1675.83926,0.22342
1677.76773,0.21590
1679.69620,0.22104
1681.62467,0.24395
1683.55314,0.27504
1685.48161,0.26344
1687.41008,0.23362
1689.33855,0.21991
1691.26701,0.21387
1693.19548,0.21637
1695.12395,0.23237
1697.05242,0.25446
1698.98089,0.26917
1700.90936,0.26035
1702.83783,0.24207
1704.76629,0.23531
1706.69476,0.22599
1708.62323,0.21088
1710.55170,0.20309
1712.48017,0.20911
1714.40864,0.23164
1716.33711,0.25836
1718.26558,0.24749
1720.19404,0.21537
1722.12251,0.19835
1724.05098,0.19214
1725.97945,0.19013
1727.90792,0.19492
1729.83639,0.20807
1731.76486,0.22781
1733.69332,0.24307
1735.62179,0.23106
1737.55026,0.21752
1739.47873,0.21798
1741.40720,0.22159
1743.33567,0.22184
1745.26414,0.22459
1747.19261,0.23258
1749.12107,0.23893
1751.04954,0.23016
1752.97801,0.21251
1754.90648,0.20384
1756.83495,0.20466
1758.76342,0.20671
1760.69189,0.20812
1762.62035,0.20471
1764.54882,0.19989
1766.47729,0.20526
1768.40576,0.21883
1770.33423,0.23335
1772.26270,0.23840
1774.19117,0.22460
1776.11964,0.20902
1778.04810,0.20258
1779.97657,0.20248
1781.90504,0.20116
1783.83351,0.19780
1785.76198,0.19508
1787.69045,0.19698
1789.61892,0.20826
1791.54738,0.21983
1793.47585,0.21568
1795.40432,0.20754
1797.33279,0.20577
1799.26126,0.20798
1801.18973,0.20952
1803.11820,0.20478
1805.04666,0.19838
1806.97513,0.19716
1808.90360,0.20108
1810.83207,0.20311
1812.76054,0.19703
1814.68901,0.19046
1816.61748,0.18970
1818.54595,0.19105
1820.47441,0.19215
1822.40288,0.19597
1824.33135,0.20251
1826.25982,0.20766
1828.18829,0.21291
1830.11676,0.21266
1832.04523,0.20109
1833.97369,0.19233
1835.90216,0.19204
1837.83063,0.19403
1839.75910,0.19488
1841.68757,0.19894
1843.61604,0.20656
1845.54451,0.20699
1847.47298,0.20048
1849.40144,0.19595
1851.32991,0.19418
1853.25838,0.19208
1855.18685,0.18951
1857.11532,0.18964
1859.04379,0.19206
1860.97226,0.19333
1862.90072,0.19421
1864.82919,0.19949
1866.75766,0.21077
1868.68613,0.21701
1870.61460,0.20749
1872.54307,0.19555
1874.47154,0.19013
1876.40001,0.18894
1878.32847,0.18958
1880.25694,0.18985
1882.18541,0.18777
1884.11388,0.18536
1886.04235,0.18777
1887.97082,0.19595
1889.89929,0.20076
1891.82775,0.19745
1893.75622,0.19459
1895.68469,0.19354
1897.61316,0.19076
1899.54163,0.18811
1901.47010,0.18791
1903.39857,0.18908
1905.32704,0.18921
1907.25550,0.19017
1909.18397,0.19343
1911.11244,0.19437
1913.04091,0.19206
1914.96938,0.19202
1916.89785,0.19599
1918.82632,0.19933
1920.75478,0.20159
1922.68325,0.20421
1924.61172,0.20324
1926.54019,0.20000
1928.46866,0.19755
1930.39713,0.19516
1932.32560,0.19421
1934.25407,0.19364
1936.18253,0.19111
1938.11100,0.18998
1940.03947,0.19425
1941.96794,0.19960
1943.89641,0.19812
1945.82488,0.19435
1947.75335,0.19384
1949.68181,0.19357
1951.61028,0.19157
1953.53875,0.18964
1955.46722,0.19001
1957.39569,0.19115
1959.32416,0.19242
1961.25263,0.19418
1963.18110,0.19438
1965.10956,0.19455
1967.03803,0.19503
1968.96650,0.19318
1970.89497,0.19180
1972.82344,0.19200
1974.75191,0.19134
1976.68038,0.19053
1978.60884,0.18972
1980.53731,0.18869
1982.46578,0.18930
1984.39425,0.19121
1986.32272,0.19281
1988.25119,0.19485
1990.17966,0.19899
1992.10812,0.20232
1994.03659,0.20112
1995.96506,0.19772
1997.89353,0.19523
1999.82200,0.19446
2001.75047,0.19426
2003.67894,0.19249
2005.60741,0.19039
2007.53587,0.19067
2009.46434,0.19100
2011.39281,0.18970
2013.32128,0.19092
2015.24975,0.19449
2017.17822,0.19484
2019.10669,0.19219
2021.03515,0.19138
2022.96362,0.19195
2024.89209,0.19152
2026.82056,0.19178
2028.74903,0.19267
2030.67750,0.19230
2032.60597,0.19270
2034.53444,0.19583
2036.46290,0.19842
2038.39137,0.19807
2040.31984,0.19751
2042.24831,0.19759
2044.17678,0.19649
2046.10525,0.19447
2048.03372,0.19375
2049.96218,0.19516
2051.89065,0.19602
2053.81912,0.19466
2055.74759,0.19321
2057.67606,0.19286
2059.60453,0.19243
2061.53300,0.19263
2063.46147,0.19444
2065.38993,0.19541
2067.31840,0.19452
2069.24687,0.19328
2071.17534,0.19186
2073.10381,0.19042
2075.03228,0.19002
2076.96075,0.19144
2078.88921,0.19384
2080.81768,0.19350
2082.74615,0.19038
2084.67462,0.18997
2086.60309,0.19243
2088.53156,0.19302
2090.46003,0.19101
2092.38850,0.18867
2094.31696,0.18882
2096.24543,0.19191
2098.17390,0.19438
2100.10237,0.19467
2102.03084,0.19452
2103.95931,0.19445
2105.88778,0.19418
2107.81624,0.19313
2109.74471,0.19170
2111.67318,0.19266
2113.60165,0.19645
2115.53012,0.19984
2117.45859,0.20022
2119.38706,0.19757
2121.31553,0.19308
2123.24399,0.18940
2125.17246,0.18956
2127.10093,0.19197
2129.02940,0.19322
2130.95787,0.19399
2132.88634,0.19503
2134.81481,0.19580
2136.74327,0.19693
2138.67174,0.19752
2140.60021,0.19703
2142.52868,0.19692
2144.45715,0.19602
2146.38562,0.19368
2148.31409,0.19309
2150.24255,0.19386
2152.17102,0.19324
2154.09949,0.19300
2156.02796,0.19386
2157.95643,0.19414
2159.88490,0.19509
2161.81337,0.19695
2163.74184,0.19711
2165.67030,0.19621
2167.59877,0.19706
2169.52724,0.19874
2171.45571,0.19837
2173.38418,0.19663
2175.31265,0.19640
2177.24112,0.19774
2179.16958,0.19845
2181.09805,0.19795
2183.02652,0.19643
2184.95499,0.19350
2186.88346,0.19183
2188.81193,0.19363
2190.74040,0.19572
2192.66887,0.19556
2194.59733,0.19350
2196.52580,0.19152
2198.45427,0.19159
2200.38274,0.19205
2202.31121,0.19230
2204.23968,0.19450
2206.16815,0.19727
2208.09661,0.19768
2210.02508,0.19588
2211.95355,0.19341
2213.88202,0.19270
2215.81049,0.19465
2217.73896,0.19575
2219.66743,0.19464
2221.59590,0.19292
2223.52436,0.19084
2225.45283,0.19028
2227.38130,0.19231
2229.30977,0.19471
2231.23824,0.19686
2233.16671,0.19841
2235.09518,0.19757
2237.02364,0.19560
2238.95211,0.19457
2240.88058,0.19338
2242.80905,0.19275
2244.73752,0.19406
2246.66599,0.19551
2248.59446,0.19670
2250.52293,0.19826
2252.45139,0.19877
2254.37986,0.19794
2256.30833,0.19718
2258.23680,0.19673
2260.16527,0.19588
2262.09374,0.19433
2264.02221,0.19295
2265.95067,0.19226
2267.87914,0.19140
2269.80761,0.19156
2271.73608,0.19405
2273.66455,0.19635
2275.59302,0.19672
2277.52149,0.19675
2279.44996,0.19760
2281.37842,0.19918
2283.30689,0.19978
2285.23536,0.19671
2287.16383,0.19251
2289.09230,0.19310
2291.02077,0.19771
2292.94924,0.20190
2294.87770,0.20403
2296.80617,0.20249
2298.73464,0.19967
2300.66311,0.19961
2302.59158,0.19931
2304.52005,0.19823
2306.44852,0.19856
2308.37699,0.19873
2310.30545,0.20098
2312.23392,0.20575
2314.16239,0.20750
2316.09086,0.20744
2318.01933,0.20912
2319.94780,0.20996
2321.87627,0.21054
2323.80473,0.21362
2325.73320,0.21674
2327.66167,0.22242
2329.59014,0.22942
2331.51861,0.22493
2333.44708,0.21748
2335.37555,0.22114
2337.30401,0.21988
2339.23248,0.21288
2341.16095,0.22023
2343.08942,0.22987
2345.01789,0.22397
2346.94636,0.21515
2348.87483,0.21372
2350.80330,0.21726
2352.73176,0.22192
2354.66023,0.22313
2356.58870,0.21662
2358.51717,0.20704
2360.44564,0.20808
2362.37411,0.21758
2364.30258,0.22412
2366.23104,0.22849
2368.15951,0.23074
2370.08798,0.22581
2372.01645,0.21955
2373.94492,0.21975
2375.87339,0.21948
2377.80186,0.21431
2379.73033,0.20950
2381.65879,0.20587
2383.58726,0.20192
2385.51573,0.19851
2387.44420,0.19652
2389.37267,0.19582
2391.30114,0.19551
2393.22961,0.19530
2395.15807,0.19504
2397.08654,0.19410
2399.01501,0.19224
2400.94348,0.19014
2402.87195,0.18969
2404.80042,0.19162
2406.72889,0.19361
2408.65736,0.19407
2410.58582,0.19502
2412.51429,0.19621
2414.44276,0.19493
2416.37123,0.19350
2418.29970,0.19368
2420.22817,0.19320
2422.15664,0.19273
2424.08510,0.19301
2426.01357,0.19314
2427.94204,0.19418
2429.87051,0.19642
2431.79898,0.19888
2433.72745,0.20099
2435.65592,0.20141
2437.58439,0.19882
2439.51285,0.19453
2441.44132,0.19163
2443.36979,0.19177
2445.29826,0.19337
2447.22673,0.19402
2449.15520,0.19369
2451.08367,0.19372
2453.01213,0.19498
2454.94060,0.19648
2456.86907,0.19559
2458.79754,0.19263
2460.72601,0.19083
2462.65448,0.19087
2464.58295,0.19158
2466.51142,0.19264
2468.43988,0.19371
2470.36835,0.19529
2472.29682,0.19740
2474.22529,0.19829
2476.15376,0.19741
2478.08223,0.19689
2480.01070,0.19760
2481.93916,0.19664
2483.86763,0.19421
2485.79610,0.19421
2487.72457,0.19526
2489.65304,0.19409
2491.58151,0.19291
2493.50998,0.19457
2495.43844,0.19768
2497.36691,0.20075
2499.29538,0.20233
2501.22385,0.20030
2503.15232,0.19792
2505.08079,0.19807
2507.00926,0.19794
2508.93773,0.19764
2510.86619,0.19861
2512.79466,0.19955
2514.72313,0.19980
2516.65160,0.19890
2518.58007,0.19716
2520.50854,0.19620
2522.43701,0.19728
2524.36547,0.19989
2526.29394,0.20073
2528.22241,0.19844
2530.15088,0.19657
2532.07935,0.19644
2534.00782,0.19527
2535.93629,0.19394
2537.86476,0.19524
2539.79322,0.19803
2541.72169,0.20070
2543.65016,0.20210
2545.57863,0.20122
2547.50710,0.19931
2549.43557,0.19785
2551.36404,0.19674
2553.29250,0.19690
2555.22097,0.19958
2557.14944,0.20137
2559.07791,0.19909
2561.00638,0.19669
2562.93485,0.19764
2564.86332,0.19880
2566.79179,0.19761
2568.72025,0.19645
2570.64872,0.19750
2572.57719,0.20043
2574.50566,0.20252
2576.43413,0.20116
2578.36260,0.19901
2580.29107,0.19925
2582.21953,0.19895
2584.14800,0.19582
2586.07647,0.19397
2588.00494,0.19630
2589.93341,0.19952
2591.86188,0.20043
2593.79035,0.19986
2595.71882,0.19944
2597.64728,0.19931
2599.57575,0.19977
2601.50422,0.20109
2603.43269,0.20195
2605.36116,0.20169
2607.28963,0.20129
2609.21810,0.20230
2611.14656,0.20335
2613.07503,0.20012
2615.00350,0.19491
2616.93197,0.19407
2618.86044,0.19687
2620.78891,0.19922
2622.71738,0.19990
2624.64585,0.19894
2626.57431,0.19654
2628.50278,0.19547
2630.43125,0.19769
2632.35972,0.19990
2634.28819,0.19965
2636.21666,0.19886
2638.14513,0.19922
2640.07359,0.20158
2642.00206,0.20483
2643.93053,0.20470
2645.85900,0.20150
2647.78747,0.19976
2649.71594,0.19929
2651.64441,0.19945
2653.57288,0.20311
2655.50134,0.20828
2657.42981,0.20814
2659.35828,0.20336
2661.28675,0.20217
2663.21522,0.20616
2665.14369,0.20939
2667.07216,0.20936
2669.00062,0.20733
2670.92909,0.20465
2672.85756,0.20374
2674.78603,0.20553
2676.71450,0.20734
2678.64297,0.20618
2680.57144,0.20304
2682.49990,0.20228
2684.42837,0.20482
2686.35684,0.20747
2688.28531,0.20804
2690.21378,0.20647
2692.14225,0.20453
2694.07072,0.20317
2695.99919,0.20257
2697.92765,0.20453
2699.85612,0.20856
2701.78459,0.21042
2703.71306,0.20836
2705.64153,0.20643
2707.57000,0.20741
2709.49847,0.20790
2711.42693,0.20655
2713.35540,0.20632
2715.28387,0.20670
2717.21234,0.20615
2719.14081,0.20618
2721.06928,0.20628
2722.99775,0.20577
2724.92622,0.20607
2726.85468,0.20644
2728.78315,0.20613
2730.71162,0.20654
2732.64009,0.20814
2734.56856,0.20896
2736.49703,0.20846
2738.42550,0.20857
2740.35396,0.20811
2742.28243,0.20567
2744.21090,0.20490
2746.13937,0.20666
2748.06784,0.20728
2749.99631,0.20793
2751.92478,0.21085
2753.85325,0.21334
2755.78171,0.21229
2757.71018,0.20856
2759.63865,0.20684
2761.56712,0.20931
2763.49559,0.21249
2765.42406,0.21224
2767.35253,0.21031
2769.28099,0.21136
2771.20946,0.21363
2773.13793,0.21264
2775.06640,0.20957
2776.99487,0.20779
2778.92334,0.20771
2780.85181,0.20804
2782.78028,0.20783
2784.70874,0.20887
2786.63721,0.21159
2788.56568,0.21222
2790.49415,0.20997
2792.42262,0.20719
2794.35109,0.20613
2796.27956,0.20852
2798.20802,0.21282
2800.13649,0.21495
2802.06496,0.21353
2803.99343,0.21197
2805.92190,0.21328
2807.85037,0.21592
2809.77884,0.21751
2811.70731,0.21799
2813.63577,0.21698
2815.56424,0.21390
2817.49271,0.21159
2819.42118,0.21262
2821.34965,0.21457
2823.27812,0.21561
2825.20659,0.21719
2827.13505,0.21834
2829.06352,0.21756
2830.99199,0.21528
2832.92046,0.21303
2834.84893,0.21309
2836.77740,0.21380
2838.70587,0.21254
2840.63433,0.21173
2842.56280,0.21309
2844.49127,0.21439
2846.41974,0.21514
2848.34821,0.21539
2850.27668,0.21353
2852.20515,0.21049
2854.13362,0.20978
2856.06208,0.21244
2857.99055,0.21553
2859.91902,0.21749
2861.84749,0.21843
2863.77596,0.21715
2865.70443,0.21339
2867.63290,0.21043
2869.56136,0.21210
2871.48983,0.21678
2873.41830,0.22045
2875.34677,0.22127
2877.27524,0.21854
2879.20371,0.21545
2881.13218,0.21582
2883.06065,0.21666
2884.98911,0.21442
2886.91758,0.21091
2888.84605,0.20981
2890.77452,0.21380
2892.70299,0.21846
2894.63146,0.21826
2896.55993,0.21690
2898.48839,0.21613
2900.41686,0.21453
2902.34533,0.21380
2904.27380,0.21163
2906.20227,0.20784
2908.13074,0.20597
2910.05921,0.20339
2911.98768,0.20162
2913.91614,0.20506
2915.84461,0.20941
2917.77308,0.21126
2919.70155,0.21182
2921.63002,0.21147
2923.55849,0.20913
2925.48696,0.20416
2927.41542,0.20007
2929.34389,0.20038
2931.27236,0.20446
2933.20083,0.20923
2935.12930,0.21166
2937.05777,0.21137
2938.98624,0.21034
2940.91471,0.21112
2942.84317,0.21424
2944.77164,0.21508
2946.70011,0.21068
2948.62858,0.20647
2950.55705,0.20750
2952.48552,0.21133
2954.41399,0.21173
2956.34245,0.20620
2958.27092,0.20269
2960.19939,0.20796
2962.12786,0.21697
2964.05633,0.22185
2965.98480,0.21946
2967.91327,0.21460
2969.84174,0.21343
2971.77020,0.21389
2973.69867,0.21379
2975.62714,0.21470
2977.55561,0.21693
2979.48408,0.22049
2981.41255,0.22238
2983.34102,0.22042
2985.26948,0.22022
2987.19795,0.22383
2989.12642,0.22720
2991.05489,0.22818
2992.98336,0.22563
2994.91183,0.22204
2996.84030,0.22053
2998.76877,0.21844
3000.69723,0.21586
3002.62570,0.21689
3004.55417,0.21916
3006.48264,0.21858
3008.41111,0.21721
3010.33958,0.21631
3012.26805,0.21189
3014.19651,0.20149
3016.12498,0.19312
3018.05345,0.19676
3019.98192,0.20876
3021.91039,0.21953
3023.83886,0.22578
3025.76733,0.22780
3027.69579,0.22696
3029.62426,0.22368
3031.55273,0.21883
3033.48120,0.21665
3035.40967,0.21825
3037.33814,0.22110
3039.26661,0.22220
3041.19508,0.21909
3043.12354,0.21498
3045.05201,0.21359
3046.98048,0.21421
3048.90895,0.21664
3050.83742,0.22017
3052.76589,0.22251
3054.69436,0.22272
3056.62282,0.22028
3058.55129,0.21626
3060.47976,0.21501
3062.40823,0.21773
3064.33670,0.21776
3066.26517,0.21274
3068.19364,0.21168
3070.12211,0.21556
3072.05057,0.21857
3073.97904,0.21933
3075.90751,0.21602
3077.83598,0.21333
3079.76445,0.21621
3081.69292,0.21932
3083.62139,0.21853
3085.54985,0.21739
3087.47832,0.21776
3089.40679,0.21678
3091.33526,0.21508
3093.26373,0.21346
3095.19220,0.21347
3097.12067,0.21713
3099.04914,0.22023
3100.97760,0.22032
3102.90607,0.21766
3104.83454,0.21424
3106.76301,0.21433
3108.69148,0.21761
3110.61995,0.22016
3112.54842,0.22069
3114.47688,0.22048
3116.40535,0.21847
3118.33382,0.21454
3120.26229,0.21347
3122.19076,0.21773
3124.11923,0.22322
3126.04770,0.22620
3127.97617,0.22702
3129.90463,0.22481
3131.83310,0.22017
3133.76157,0.21925
3135.69004,0.22483
3137.61851,0.22955
3139.54698,0.22627
3141.47545,0.22027
3143.40391,0.21847
3145.33238,0.21894
3147.26085,0.22021
3149.18932,0.22202
3151.11779,0.22193
3153.04626,0.21993
3154.97473,0.21889
3156.90320,0.21910
3158.83166,0.21885
3160.76013,0.21975
3162.68860,0.22142
3164.61707,0.22235
3166.54554,0.22388
3168.47401,0.22380
3170.40248,0.22097
3172.33094,0.21865
3174.25941,0.21841
3176.18788,0.22015
3178.11635,0.22315
3180.04482,0.22563
3181.97329,0.22760
3183.90176,0.23005
3185.83022,0.23190
3187.75869,0.23277
3189.68716,0.23314
3191.61563,0.23092
3193.54410,0.22782
3195.47257,0.22923
3197.40104,0.23161
3199.32951,0.22920
3201.25797,0.22584
3203.18644,0.22625
3205.11491,0.22862
3207.04338,0.22896
3208.97185,0.22602
3210.90032,0.22168
3212.82879,0.22138
3214.75725,0.22415
3216.68572,0.22143
3218.61419,0.21549
3220.54266,0.21418
3222.47113,0.21647
3224.39960,0.21731
3226.32807,0.21663
3228.25654,0.21923
3230.18500,0.22538
3232.11347,0.22827
3234.04194,0.22511
3235.97041,0.22131
3237.89888,0.22243
3239.82735,0.22826
3241.75582,0.23247
3243.68428,0.23323
3245.61275,0.23466
3247.54122,0.23351
3249.46969,0.22585
3251.39816,0.21795
3253.32663,0.21661
3255.25510,0.21983
3257.18357,0.22406
3259.11203,0.22633
3261.04050,0.22352
3262.96897,0.21901
3264.89744,0.21585
3266.82591,0.21505
3268.75438,0.21752
3270.68285,0.21964
3272.61131,0.22082
3274.53978,0.22283
3276.46825,0.22284
3278.39672,0.21967
3280.32519,0.21636
3282.25366,0.21505
3284.18213,0.21568
3286.11060,0.21886
3288.03906,0.22377
3289.96753,0.22625
3291.89600,0.22399
3293.82447,0.21950
3295.75294,0.21781
3297.68141,0.21943
3299.60988,0.22072
3301.53834,0.22117
3303.46681,0.22237
3305.39528,0.22480
3307.32375,0.22798
3309.25222,0.22804
3311.18069,0.22014
3313.10916,0.20993
3315.03763,0.20650
3316.96609,0.20996
3318.89456,0.21584
3320.82303,0.21904
3322.75150,0.21966
3324.67997,0.22036
3326.60844,0.21907
3328.53691,0.21805
3330.46537,0.22201
3332.39384,0.22634
3334.32231,0.22670
3336.25078,0.22543
3338.17925,0.22540
3340.10772,0.23060
3342.03619,0.23498
3343.96466,0.23017
3345.89312,0.22748
3347.82159,0.23224
3349.75006,0.23250
3351.67853,0.22820
3353.60700,0.22799
3355.53547,0.22836
3357.46394,0.22504
3359.39240,0.22645
3361.32087,0.23438
3363.24934,0.23937
3365.17781,0.23812
3367.10628,0.23154
3369.03475,0.22484
3370.96322,0.22429
3372.89168,0.22325
3374.82015,0.21782
3376.74862,0.21620
3378.67709,0.21914
3380.60556,0.22225
3382.53403,0.22705
3384.46250,0.23326
3386.39097,0.23609
3388.31943,0.23387
3390.24790,0.22974
3392.17637,0.22723
3394.10484,0.22804
3396.03331,0.22973
3397.96178,0.22735
3399.89025,0.22474
3401.81871,0.23033
3403.74718,0.23851
3405.67565,0.23713
3407.60412,0.22722
3409.53259,0.21983
3411.46106,0.21847
3413.38953,0.21903
3415.31800,0.22185
3417.24646,0.22538
3419.17493,0.22492
3421.10340,0.22088
3423.03187,0.21483
3424.96034,0.21113
3426.88881,0.21262
3428.81728,0.21214
3430.74574,0.20762
3432.67421,0.20574
3434.60268,0.20702
3436.53115,0.20928
3438.45962,0.21568
3440.38809,0.22640
3442.31656,0.23086
3444.24503,0.22396
3446.17349,0.21397
3448.10196,0.20652
3450.03043,0.20323
3451.95890,0.20343
3453.88737,0.20284
3455.81584,0.20096
3457.74431,0.20115
3459.67277,0.20272
3461.60124,0.20196
3463.52971,0.20080
3465.45818,0.20049
3467.38665,0.19738
3469.31512,0.19556
3471.24359,0.19855
3473.17206,0.20039
3475.10052,0.19923
3477.02899,0.19853
3478.95746,0.19815
3480.88593,0.19595
3482.81440,0.19376
3484.74287,0.19612
3486.67134,0.19923
3488.59980,0.19432
3490.52827,0.18809
3492.45674,0.19215
3494.38521,0.19912
3496.31368,0.19720
3498.24215,0.19063
3500.17062,0.19039
3502.09909,0.19533
3504.02755,0.19506
3505.95602,0.19120
3507.88449,0.19227
3509.81296,0.19358
3511.74143,0.18923
3513.66990,0.18512
3515.59837,0.18414
3517.52683,0.18193
3519.45530,0.17900
3521.38377,0.18036
3523.31224,0.18377
3525.24071,0.18612
3527.16918,0.18822
3529.09765,0.18721
3531.02611,0.18422
3532.95458,0.18338
3534.88305,0.18420
3536.81152,0.18253
3538.73999,0.17909
3540.66846,0.18015
3542.59693,0.18334
3544.52540,0.18346
3546.45386,0.18221
3548.38233,0.18217
3550.31080,0.18253
3552.23927,0.18163
3554.16774,0.17911
3556.09621,0.17683
3558.02468,0.17581
3559.95314,0.17520
3561.88161,0.17625
3563.81008,0.18366
3565.73855,0.19803
3567.66702,0.20169
3569.59549,0.18693
3571.52396,0.17516
3573.45243,0.17159
3575.38089,0.17014
3577.30936,0.16842
3579.23783,0.16667
3581.16630,0.16520
3583.09477,0.16849
3585.02324,0.18023
3586.95171,0.18991
3588.88017,0.18086
3590.80864,0.16813
3592.73711,0.16695
3594.66558,0.17286
3596.59405,0.17650
3598.52252,0.17641
3600.45099,0.17295
3602.37946,0.16685
3604.30792,0.16530
3606.23639,0.17043
3608.16486,0.17392
3610.09333,0.17543
3612.02180,0.18223
3613.95027,0.18610
3615.87874,0.18350
3617.80720,0.18249
3619.73567,0.17890
3621.66414,0.16991
3623.59261,0.16508
3625.52108,0.16919
3627.44955,0.18114
3629.37802,0.18417
3631.30649,0.17036
3633.23495,0.15762
3635.16342,0.14911
3637.09189,0.14651
3639.02036,0.14815
3640.94883,0.14817
3642.87730,0.14759
3644.80577,0.15564
3646.73423,0.17894
3648.66270,0.20555
3650.59117,0.19624
3652.51964,0.17187
3654.44811,0.16259
3656.37658,0.16031
3658.30505,0.15354
3660.23352,0.14740
3662.16198,0.14187
3664.09045,0.13642
3666.01892,0.13916
3667.94739,0.15187
3669.87586,0.16295
3671.80433,0.16691
3673.73280,0.17982
3675.66126,0.18960
3677.58973,0.17113
3679.51820,0.15046
3681.44667,0.14112
3683.37514,0.14363
3685.30361,0.15313
3687.23208,0.16440
3689.16055,0.17430
3691.08901,0.16783
3693.01748,0.15048
3694.94595,0.14101
3696.87442,0.13908
3698.80289,0.13952
3700.73136,0.14096
3702.65983,0.14160
3704.58829,0.14249
3706.51676,0.14602
3708.44523,0.15659
3710.37370,0.17284
3712.30217,0.17076
3714.23064,0.15209
3716.15911,0.13959
3718.08757,0.13629
3720.01604,0.14108
3721.94451,0.14817
3723.87298,0.15235
3725.80145,0.15458
3727.72992,0.15423
3729.65839,0.15603
3731.58686,0.16603
3733.51532,0.18240
3735.44379,0.19177
3737.37226,0.18325
3739.30073,0.17087
3741.22920,0.16639
3743.15767,0.17384
3745.08614,0.18590
3747.01460,0.18841
3748.94307,0.19272
3750.87154,0.19354
3752.80001,0.17845
3754.72848,0.16916
3756.65695,0.16944
3758.58542,0.16630
3760.51389,0.15230
3762.44235,0.14063
3764.37082,0.13789
3766.29929,0.14190
3768.22776,0.15115
3770.15623,0.15424
3772.08470,0.14316
3774.01317,0.13270
3775.94163,0.13221
3777.87010,0.13883
3779.79857,0.14153
3781.72704,0.13782
3783.65551,0.13684
3785.58398,0.13646
3787.51245,0.13156
3789.44092,0.12630
3791.36938,0.12442
3793.29785,0.12537
3795.22632,0.13070
3797.15479,0.14333
3799.08326,0.15999
3801.01173,0.16998
3802.94020,0.16197
3804.86866,0.15445
3806.79713,0.15333
3808.72560,0.14701
3810.65407,0.13698
3812.58254,0.13144
3814.51101,0.13653
3816.43948,0.14961
3818.36795,0.16096
3820.29641,0.16935
3822.22488,0.16289
3824.15335,0.14972
3826.08182,0.14197
3828.01029,0.13489
3829.93876,0.13031
3831.86723,0.13309
3833.79569,0.14056
3835.72416,0.14852
3837.65263,0.15920
3839.58110,0.16547
3841.50957,0.15941
3843.43804,0.14663
3845.36651,0.13294
3847.29498,0.12721
3849.22344,0.13417
3851.15191,0.15156
3853.08038,0.16716
3855.00885,0.15820
3856.93732,0.14450
3858.86579,0.13707
3860.79426,0.13665
3862.72272,0.14323
3864.65119,0.14732
3866.57966,0.14768
3868.50813,0.15431
3870.43660,0.15963
3872.36507,0.15481
3874.29354,0.14843
3876.22200,0.13867
3878.15047,0.12926
3880.07894,0.12975
3882.00741,0.13736
3883.93588,0.13951
3885.86435,0.13172
3887.79282,0.12552
3889.72129,0.13092
3891.64975,0.13733
3893.57822,0.13168
3895.50669,0.12500
3897.43516,0.12709
3899.36363,0.13544
3901.29210,0.14467
3903.22057,0.14726
3905.14903,0.13547
3907.07750,0.12125
3909.00597,0.11353
3910.93444,0.11039
3912.86291,0.11482
3914.79138,0.12573
3916.71985,0.13105
3918.64832,0.12431
3920.57678,0.11824
3922.50525,0.12061
3924.43372,0.12220
3926.36219,0.11927
3928.29066,0.12134
3930.21913,0.12851
3932.14760,0.13106
3934.07606,0.12720
3936.00453,0.12244
3937.93300,0.11879
3939.86147,0.11872
3941.78994,0.12260
3943.71841,0.12240
3945.64688,0.11746
3947.57535,0.11718
3949.50381,0.11957
3951.43228,0.11602
3953.36075,0.11064
3955.28922,0.11189
3957.21769,0.11759
3959.14616,0.12007
3961.07463,0.11861
3963.00309,0.11668
3964.93156,0.11478
3966.86003,0.11064
3968.78850,0.10694
3970.71697,0.10827
3972.64544,0.11067
3974.57391,0.11029
3976.50238,0.10618
3978.43084,0.09781
3980.35931,0.09310
3982.28778,0.09727
3984.21625,0.10390
3986.14472,0.10955
3988.07319,0.11685
3990.00166,0.12027
3991.93012,0.11363
3993.85859,0.10913
3995.78706,0.11392
3997.71553,0.11484
3999.64400,0.10735
4001.57247,0.10047
4003.50094,0.09982
4005.42941,0.10145
4007.35787,0.09979
4009.28634,0.09697
4011.21481,0.09553
4013.14328,0.09445
4015.07175,0.09537
4017.00022,0.09838
4018.92869,0.09913
4020.85715,0.09818
4022.78562,0.09818
4024.71409,0.09772
4026.64256,0.09899
4028.57103,0.10347
4030.49950,0.10704
4032.42797,0.10913
4034.35644,0.11078
4036.28490,0.11100
4038.21337,0.10848
4040.14184,0.09952
4042.07031,0.09005
4043.99878,0.09184
4045.92725,0.09760
4047.85572,0.09601
4049.78418,0.09331
4051.71265,0.09510
4053.64112,0.09712
4055.56959,0.09887
4057.49806,0.10149
4059.42653,0.10078
4061.35500,0.09694
4063.28346,0.09414
4065.21193,0.09550
4067.14040,0.10137
4069.06887,0.10512
4070.99734,0.10372
4072.92581,0.10326
4074.85428,0.10398
4076.78275,0.09987
4078.71121,0.09543
4080.63968,0.09529
4082.56815,0.09505
4084.49662,0.09596
4086.42509,0.09926
4088.35356,0.10030
4090.28203,0.09637
4092.21049,0.08837
4094.13896,0.08355
4096.06743,0.08662
4097.99590,0.09037
4099.92437,0.09109
4101.85284,0.09408
4103.78131,0.09998
4105.70978,0.10170
4107.63824,0.09537
4109.56671,0.08775
4111.49518,0.08383
4113.42365,0.08163
4115.35212,0.08049
4117.28059,0.07970
4119.20906,0.07930
4121.13752,0.08161
4123.06599,0.08718
4124.99446,0.09295
4126.92293,0.09471
4128.85140,0.09235
4130.77987,0.08754
4132.70834,0.08114
4134.63681,0.07831
4136.56527,0.08198
4138.49374,0.08586
4140.42221,0.08430
4142.35068,0.08004
4144.27915,0.07908
4146.20762,0.08061
4148.13609,0.08096
4150.06455,0.08006
4151.99302,0.07748
4153.92149,0.07530
4155.84996,0.07817
4157.77843,0.08437
4159.70690,0.08620
4161.63537,0.08382
4163.56384,0.08576
4165.49230,0.09133
4167.42077,0.09099
4169.34924,0.08349
4171.27771,0.08014
4173.20618,0.08505
4175.13465,0.08795
4177.06312,0.08353
4178.99158,0.07680
4180.92005,0.07317
4182.84852,0.07335
4184.77699,0.07587
4186.70546,0.08050
4188.63393,0.08358
4190.56240,0.07885
4192.49087,0.06975
4194.41933,0.06580
4196.34780,0.06643
4198.27627,0.06581
4200.20474,0.06281
4202.13321,0.05933
4204.06168,0.05873
4205.99015,0.06326
4207.91861,0.07024
4209.84708,0.07442
4211.77555,0.07668
4213.70402,0.08022
4215.63249,0.08129
4217.56096,0.07580
4219.48943,0.06710
4221.41789,0.06316
4223.34636,0.06451
4225.27483,0.06556
4227.20330,0.06764
4229.13177,0.07270
4231.06024,0.07526
4232.98871,0.07102
4234.91718,0.06477
4236.84564,0.06216
4238.77411,0.06050
4240.70258,0.05868
4242.63105,0.06166
4244.55952,0.06679
4246.48799,0.06977
4248.41646,0.07243
4250.34492,0.07045
4252.27339,0.06421
4254.20186,0.06192
4256.13033,0.06293
4258.05880,0.06358
4259.98727,0.06437
4261.91574,0.06644
4263.84421,0.06896
4265.77267,0.06930
4267.70114,0.06597
4269.62961,0.06126
4271.55808,0.06031
4273.48655,0.06304
4275.41502,0.06477
4277.34349,0.06598
4279.27195,0.06688
4281.20042,0.06346
4283.12889,0.05893
4285.05736,0.06066
4286.98583,0.06661
4288.91430,0.06761
4290.84277,0.06214
4292.77124,0.05870
4294.69970,0.06069
4296.62817,0.06067
4298.55664,0.05535
4300.48511,0.05145
4302.41358,0.04958
4304.34205,0.04901
4306.27052,0.05501
4308.19898,0.06073
4310.12745,0.05643
4312.05592,0.04870
4313.98439,0.04389
4315.91286,0.04213
4317.84133,0.04594
4319.76980,0.05286
4321.69827,0.05817
4323.62673,0.06117
4325.55520,0.06394
4327.48367,0.06681
4329.41214,0.06488
4331.34061,0.05798
4333.26908,0.05008
4335.19755,0.04540
4337.12601,0.04488
4339.05448,0.04544
4340.98295,0.04813
4342.91142,0.05261
4344.83989,0.05535
4346.76836,0.05386
4348.69683,0.04830
4350.62530,0.04018
4352.55376,0.03261
4354.48223,0.03110
4356.41070,0.03383
4358.33917,0.03543
4360.26764,0.03464
4362.19611,0.03362
4364.12458,0.03588
4366.05304,0.03841
4367.98151,0.03626
4369.90998,0.03233
4371.83845,0.03315
4373.76692,0.03799
4375.69539,0.03969
4377.62386,0.03676
4379.55232,0.03409
4381.48079,0.03439
4383.40926,0.03793
4385.33773,0.04282
4387.26620,0.04294
4389.19467,0.03661
4391.12314,0.03131
4393.05161,0.03049
4394.98007,0.02868
4396.90854,0.02380
4398.83701,0.02111
4400.76548,0.02284
4402.69395,0.02392
4404.62242,0.02391
4406.55089,0.02580
4408.47935,0.02627
4410.40782,0.02483
4412.33629,0.02220
4414.26476,0.01667
4416.19323,0.01253
4418.12170,0.01452
4420.05017,0.01785
4421.97864,0.01711
4423.90710,0.01848
4425.83557,0.02367
4427.76404,0.02411
4429.69251,0.02007
4431.62098,0.01779
4433.54945,0.02026
4435.47792,0.02692
4437.40638,0.03050
4439.33485,0.02543
4441.26332,0.02008
4443.19179,0.02234
4445.12026,0.02625
4447.04873,0.02770
4448.97720,0.02758
4450.90567,0.02309
4452.83413,0.01922
4454.76260,0.02249
4456.69107,0.02530
4458.61954,0.02366
4460.54801,0.02189
4462.47648,0.02286
4464.40495,0.02582
4466.33341,0.02598
4468.26188,0.02431
4470.19035,0.02238
4472.11882,0.01723
4474.04729,0.01183
4475.97576,0.01251
4477.90423,0.01914
4479.83270,0.02305
4481.76116,0.02000
4483.68963,0.01774
4485.61810,0.02153
4487.54657,0.02765
4489.47504,0.03093
4491.40351,0.02643
4493.33198,0.01712
4495.26044,0.01384
4497.18891,0.01815
4499.11738,0.02095
4501.04585,0.01881
4502.97432,0.01736
4504.90279,0.01871
4506.83126,0.02132
4508.75973,0.02210
4510.68819,0.01919
4512.61666,0.01513
4514.54513,0.01213
4516.47360,0.01069
4518.40207,0.00835
4520.33054,0.00537
4522.25901,0.00569
4524.18747,0.01062
4526.11594,0.01746
4528.04441,0.02238
4529.97288,0.02510
4531.90135,0.02162
4533.82982,0.01022
4535.75829,0.00127
4537.68676,-0.00043
4539.61522,0.00012
4541.54369,0.00499
4543.47216,0.01243
4545.40063,0.01026
4547.32910,0.00402
4549.25757,0.00826
4551.18604,0.01588
4553.11450,0.01657
4555.04297,0.01314
4556.97144,0.00818
4558.89991,0.00286
4560.82838,-0.00069
4562.75685,-0.00031
4564.68532,0.00360
4566.61378,0.00470
4568.54225,0.00107
4570.47072,-0.00077
4572.39919,0.00385
4574.32766,0.00819
4576.25613,0.00645
4578.18460,0.00455
4580.11307,0.00594
4582.04153,0.00910
4583.97000,0.01034
4585.89847,0.00623
4587.82694,0.00074
4589.75541,-0.00063
4591.68388,0.00343
4593.61235,0.01115
4595.54081,0.01720
4597.46928,0.01492
4599.39775,0.00595
4601.32622,-0.00055
4603.25469,-0.00146
4605.18316,0.00235
4607.11163,0.00801
4609.04010,0.00917
4610.96856,0.00773
4612.89703,0.00890
4614.82550,0.01059
4616.75397,0.01017
4618.68244,0.00784
4620.61091,0.00666
4622.53938,0.00908
4624.46784,0.01429
4626.39631,0.01567
4628.32478,0.00870
4630.25325,0.00129
4632.18172,0.00037
4634.11019,0.00865
4636.03866,0.02202
4637.96713,0.02460
4639.89559,0.01116
4641.82406,0.00000
4643.75253,0.00517
4645.68100,0.01156
4647.60947,0.00752
4649.53794,0.00376
4651.46641,0.00221
4653.39487,-0.00137
4655.32334,-0.00390
4657.25181,-0.00569
4659.18028,-0.00709
4661.10875,-0.00764
4663.03722,-0.00756
4664.96569,-0.00053
4666.89416,0.00907
4668.82262,0.00934
4670.75109,0.00895
4672.67956,0.01691
4674.60803,0.02317
4676.53650,0.02105
4678.46497,0.01539
4680.39344,0.00886
4682.32190,0.00219
4684.25037,-0.00044
4686.17884,0.00243
4688.10731,0.01176
4690.03578,0.02154
4691.96425,0.01939
4693.89272,0.01115
4695.82119,0.00662
4697.74965,0.00050
4699.67812,-0.00596
4701.60659,-0.00185
4703.53506,0.01000
4705.46353,0.01275
4707.39200,0.00638
4709.32047,0.00662
4711.24893,0.01182
4713.17740,0.01278
4715.10587,0.01051
4717.03434,0.01043
4718.96281,0.01491
4720.89128,0.01307
4722.81975,-0.00306
4724.74821,-0.01919
4726.67668,-0.02099
4728.60515,-0.01573
4730.53362,-0.01214
4732.46209,-0.00396
4734.39056,0.01103
4736.31903,0.02105
4738.24750,0.01923
4740.17596,0.01600
4742.10443,0.01810
4744.03290,0.01432
4745.96137,0.00175
4747.88984,-0.00430
4749.81831,-0.00054
4751.74678,0.00115
4753.67524,0.00046
4755.60371,0.00102
4757.53218,0.00145
4759.46065,0.00478
4761.38912,0.01018
4763.31759,0.01353
4765.24606,0.01346
4767.17453,0.00570
4769.10299,-0.00700
4771.03146,-0.01205
4772.95993,-0.00471
4774.88840,0.00660
4776.81687,0.01089
4778.74534,0.00803
4780.67381,0.00553
4782.60227,0.00423
4784.53074,-0.00331
4786.45921,-0.01074
4788.38768,-0.00501
4790.31615,0.00744
4792.24462,0.01263
4794.17309,0.01201
4796.10156,0.01160
4798.03002,0.01232
4799.95849,0.01379
4801.88696,0.02010
4803.81543,0.02245
4805.74390,0.00869
4807.67237,-0.00309
4809.60084,-0.00371
4811.52930,-0.00281
4813.45777,-0.00035
4815.38624,-0.00174
4817.31471,-0.00297
4819.24318,0.00414
4821.17165,0.01342
4823.10012,0.01298
4825.02859,0.00175
4826.95705,-0.00897
4828.88552,-0.01505
4830.81399,-0.01309
4832.74246,0.00280
4834.67093,0.01857
4836.59940,0.02228
4838.52787,0.02263
4840.45633,0.02216
4842.38480,0.01968
4844.31327,0.01806
4846.24174,0.01538
4848.17021,0.01609
4850.09868,0.01954
4852.02715,0.01375
4853.95562,0.00403
4855.88408,-0.00098
4857.81255,-0.00654
4859.74102,-0.01336
4861.66949,-0.01745
4863.59796,-0.01758
4865.52643,-0.00985
4867.45490,0.00235
4869.38336,0.00889
4871.31183,0.00613
4873.24030,-0.00565
4875.16877,-0.01808
4877.09724,-0.01963
4879.02571,-0.01128
4880.95418,-0.00395
4882.88265,-0.00156
4884.81111,0.00296
4886.73958,0.00885
4888.66805,0.00677
4890.59652,-0.00202
4892.52499,-0.00449
4894.45346,0.00123
4896.38193,0.00739
4898.31039,0.00872
4900.23886,0.00350
4902.16733,-0.00171
4904.09580,0.00005
4906.02427,0.00507
4907.95274,0.00534
4909.88121,0.00133
4911.80967,-0.00237
4913.73814,-0.00545
4915.66661,-0.00154
4917.59508,0.01064
4919.52355,0.01680
4921.45202,0.00924
4923.38049,0.00263
4925.30896,0.00362
4927.23742,0.00442
4929.16589,0.01162
4931.09436,0.02389
4933.02283,0.02671
4934.95130,0.02097
4936.87977,0.01406
4938.80824,0.00824
4940.73670,0.00329
4942.66517,0.00501
4944.59364,0.01386
4946.52211,0.01827
4948.45058,0.01495
4950.37905,0.00932
4952.30752,0.00090
4954.23599,-0.00655
4956.16445,-0.00332
4958.09292,0.00934
4960.02139,0.01801
4961.94986,0.01017
4963.87833,0.00070
4965.80680,0.00873
4967.73527,0.01848
4969.66373,0.01751
4971.59220,0.01527
4973.52067,0.01598
4975.44914,0.01633
4977.37761,0.01725
4979.30608,0.02056
4981.23455,0.02237
4983.16302,0.02123
4985.09148,0.01640
4987.01995,0.01007
4988.94842,0.00590
4990.87689,0.00434
4992.80536,0.00720
4994.73383,0.00730
4996.66230,0.00319
4998.59076,0.00265
5000.51923,-0.00044
5002.44770,-0.00243
5004.37617,0.00537
5006.30464,0.01171
5008.23311,0.01196
5010.16158,0.01351
5012.09005,0.01531
5014.01851,0.01169
5015.94698,0.00843
5017.87545,0.01496
5019.80392,0.02518
5021.73239,0.02639
5023.66086,0.02030
5025.58933,0.01437
5027.51779,0.00764
5029.44626,0.00484
5031.37473,0.00890
5033.30320,0.01327
5035.23167,0.01706
5037.16014,0.01792
5039.08861,0.00897
5041.01708,-0.00330
5042.94554,0.00357
5044.87401,0.02586
5046.80248,0.02950
5048.73095,0.01824
5050.65942,0.02149
5052.58789,0.03183
5054.51636,0.02796
5056.44482,0.01383
5058.37329,0.00933
5060.30176,0.01792
5062.23023,0.02543
5064.15870,0.02750
5066.08717,0.02369
5068.01564,0.01390
5069.94410,0.00759
5071.87257,0.01003
5073.80104,0.01786
5075.72951,0.02281
5077.65798,0.01817
5079.58645,0.01178
5081.51492,0.01096
5083.44339,0.01219
5085.37185,0.01553
5087.30032,0.01638
5089.22879,0.01139
5091.15726,0.01176
5093.08573,0.02248
5095.01420,0.03558
5096.94267,0.03844
5098.87113,0.03112
5100.79960,0.02937
5102.72807,0.03313
5104.65654,0.02692
5106.58501,0.01249
5108.51348,0.00645
5110.44195,0.00720
5112.37042,0.00981
5114.29888,0.02109
5116.22735,0.02303
5118.15582,0.00792
5120.08429,0.01014
5122.01276,0.03044
5123.94123,0.03754
5125.86970,0.03450
5127.79816,0.03491
5129.72663,0.03476
5131.65510,0.03269
5133.58357,0.03363
5135.51204,0.03279
5137.44051,0.02253
5139.36898,0.01307
5141.29745,0.01649
5143.22591,0.02969
5145.15438,0.03908
5147.08285,0.03166
5149.01132,0.01686
5150.93979,0.01665
5152.86826,0.03132
5154.79673,0.04035
5156.72519,0.03416
5158.65366,0.02204
5160.58213,0.01335
5162.51060,0.01386
5164.43907,0.02385
5166.36754,0.03193
5168.29601,0.03144
5170.22448,0.03508
5172.15294,0.04429
5174.08141,0.03760
5176.00988,0.01915
5177.93835,0.01157
5179.86682,0.01662
5181.79529,0.02583
5183.72376,0.03768
5185.65222,0.04802
5187.58069,0.04912
5189.50916,0.04510
5191.43763,0.04112
5193.36610,0.04062
5195.29457,0.04355
5197.22304,0.03863
5199.15151,0.02638
5201.07997,0.01904
5203.00844,0.02056
5204.93691,0.03703
5206.86538,0.06404
5208.79385,0.07030
5210.72232,0.04946
5212.65079,0.02634
5214.57925,0.01763
5216.50772,0.02794
5218.43619,0.05164
5220.36466,0.06506
5222.29313,0.05365
5224.22160,0.03864
5226.15007,0.04179
5228.07854,0.05125
5230.00700,0.05807
5231.93547,0.06286
5233.86394,0.05680
5235.79241,0.05008
5237.72088,0.05092
5239.64935,0.04835
5241.57782,0.04690
5243.50628,0.04425
5245.43475,0.02939
5247.36322,0.02775
5249.29169,0.04523
5251.22016,0.04344
5253.14863,0.03584
5255.07710,0.05336
5257.00556,0.06978
5258.93403,0.06654
5260.86250,0.05421
5262.79097,0.03632
5264.71944,0.02754
5266.64791,0.04195
5268.57638,0.05607
5270.50485,0.05045
5272.43331,0.04962
5274.36178,0.06188
5276.29025,0.05957
5278.21872,0.04700
5280.14719,0.04542
5282.07566,0.04463
5284.00413,0.03550
5285.93259,0.03287
5287.86106,0.04262
5289.78953,0.05996
5291.71800,0.07633
5293.64647,0.07735
5295.57494,0.07189
5297.50341,0.06845
5299.43188,0.06223
5301.36034,0.05879
5303.28881,0.06081
5305.21728,0.07138
5307.14575,0.08141
5309.07422,0.06218
5311.00269,0.02635
5312.93116,0.00695
5314.85962,0.00847
5316.78809,0.01194
5318.71656,0.00813
5320.64503,0.01799
5322.57350,0.04531
5324.50197,0.06655
5326.43044,0.07202
5328.35891,0.06266
5330.28737,0.03783
5332.21584,0.02060
5334.14431,0.03808
5336.07278,0.06026
5338.00125,0.05578
5339.92972,0.06018
5341.85819,0.09148
5343.78665,0.11586
5345.71512,0.10515
5347.64359,0.06726
5349.57206,0.03445
5351.50053,0.03523
5353.42900,0.06651
5355.35747,0.08523
5357.28594,0.07012
5359.21440,0.04679
5361.14287,0.03706
5363.07134,0.04464
5364.99981,0.05676
5366.92828,0.05163
5368.85675,0.03827
5370.78522,0.04404
5372.71368,0.07033
5374.64215,0.08730
5376.57062,0.07529
5378.49909,0.05928
5380.42756,0.05285
5382.35603,0.05363
5384.28450,0.06385
5386.21297,0.06201
5388.14143,0.04332
5390.06990,0.03772
5391.99837,0.05075
5393.92684,0.07456
5395.85531,0.09550
5397.78378,0.08966
5399.71225,0.05553
5401.64071,0.02647
5403.56918,0.04027
5405.49765,0.08021
5407.42612,0.09900
5409.35459,0.09838
5411.28306,0.09485
5413.21153,0.07822
5415.13999,0.05914
5417.06846,0.05316
5418.99693,0.05179
5420.92540,0.05156
5422.85387,0.05404
5424.78234,0.06035
5426.71081,0.07458
5428.63928,0.08073
5430.56774,0.06438
5432.49621,0.04924
5434.42468,0.05221
5436.35315,0.07294
5438.28162,0.10207
5440.21009,0.12253
5442.13856,0.11794
5444.06702,0.10050
5445.99549,0.09163
5447.92396,0.08610
5449.85243,0.07608
5451.78090,0.06355
5453.70937,0.04969
5455.63784,0.03457
5457.56631,0.02487
5459.49477,0.04003
5461.42324,0.07429
5463.35171,0.09310
5465.28018,0.08425
5467.20865,0.07570
5469.13712,0.08610
5471.06559,0.08910
5472.99405,0.07675
5474.92252,0.07425
5476.85099,0.08181
5478.77946,0.08586
5480.70793,0.09582
5482.63640,0.11567
5484.56487,0.12488
5486.49334,0.10744
5488.42180,0.07428
5490.35027,0.04201
5492.27874,0.02454
5494.20721,0.03523
5496.13568,0.05237
5498.06415,0.05195
5499.99262,0.03918
5501.92108,0.03388
5503.84955,0.05468
5505.77802,0.08149
5507.70649,0.08182
5509.63496,0.07591
5511.56343,0.08543
5513.49190,0.09356
5515.42037,0.08764
5517.34883,0.07859
5519.27730,0.07693
5521.20577,0.08439
5523.13424,0.09854
5525.06271,0.10959
5526.99118,0.11333
5528.91965,0.10226
5530.84811,0.07166
5532.77658,0.04711
5534.70505,0.04714
5536.63352,0.06037
5538.56199,0.07085
5540.49046,0.06433
5542.41893,0.04515
5544.34740,0.04704
5546.27586,0.07206
5548.20433,0.08904
5550.13280,0.08938
5552.06127,0.08279
5553.98974,0.07590
5555.91821,0.06561
5557.84668,0.04532
5559.77514,0.02032
5561.70361,0.01723
5563.63208,0.04599
5565.56055,0.07357
5567.48902,0.07829
5569.41749,0.06680
5571.34596,0.04232
5573.27443,0.01301
5575.20289,0.00669
5577.13136,0.02003
5579.05983,0.03013
5580.98830,0.04584
5582.91677,0.06421
5584.84524,0.06521
5586.77371,0.05745
5588.70217,0.05684
5590.63064,0.05370
5592.55911,0.03360
5594.48758,0.01618
5596.41605,0.03063
5598.34452,0.06830
5600.27299,0.09907
5602.20145,0.11080
5604.12992,0.10467
5606.05839,0.08310
5607.98686,0.05188
5609.91533,0.03475
5611.84380,0.05542
5613.77227,0.09429
5615.70074,0.11661
5617.62920,0.10988
5619.55767,0.09076
5621.48614,0.08914
5623.41461,0.09438
5625.34308,0.08001
5627.27155,0.06390
5629.20002,0.07010
5631.12848,0.08428
5633.05695,0.09420
5634.98542,0.09932
5636.91389,0.10657
5638.84236,0.11857
5640.77083,0.11828
5642.69930,0.11175
5644.62777,0.11704
5646.55623,0.11735
5648.48470,0.09750
5650.41317,0.07839
5652.34164,0.06617
5654.27011,0.04869
5656.19858,0.03742
5658.12705,0.03787
5660.05551,0.03825
5661.98398,0.03974
5663.91245,0.05360
5665.84092,0.06621
5667.76939,0.05520
5669.69786,0.04615
5671.62633,0.05965
5673.55480,0.06179
5675.48326,0.04198
5677.41173,0.02895
5679.34020,0.03753
5681.26867,0.06374
5683.19714,0.08296
5685.12561,0.07313
5687.05408,0.05985
5688.98254,0.07052
5690.91101,0.08324
5692.83948,0.08974
5694.76795,0.10490
5696.69642,0.10452
5698.62489,0.08079
5700.55336,0.07691
5702.48183,0.09128
5704.41029,0.09439
5706.33876,0.09327
5708.26723,0.08608
5710.19570,0.06923
5712.12417,0.07023
5714.05264,0.09549
5715.98111,0.12203
5717.90957,0.13082
5719.83804,0.11674
5721.76651,0.08726
5723.69498,0.04463
5725.62345,0.01992
5727.55192,0.04585
5729.48039,0.09067
5731.40886,0.11248
5733.33732,0.11602
5735.26579,0.12237
5737.19426,0.12361
5739.12273,0.10625
5741.05120,0.10079
5742.97967,0.10998
5744.90814,0.09593
5746.83660,0.06640
5748.76507,0.07166
5750.69354,0.10705
5752.62201,0.10433
5754.55048,0.07289
5756.47895,0.07837
5758.40742,0.11458
5760.33588,0.14334
5762.26435,0.14177
5764.19282,0.09918
5766.12129,0.05488
5768.04976,0.05965
5769.97823,0.08930
5771.90670,0.09678
5773.83517,0.08884
5775.76363,0.08191
5777.69210,0.07707
5779.62057,0.07866
5781.54904,0.07146
5783.47751,0.06023
5785.40598,0.07908
5787.33445,0.10553
5789.26291,0.10050
5791.19138,0.09690
5793.11985,0.10637
5795.04832,0.08590
5796.97679,0.04718
5798.90526,0.03331
5800.83373,0.04406
5802.76220,0.05738
5804.69066,0.06435
5806.61913,0.08357
5808.54760,0.11178
5810.47607,0.11624
5812.40454,0.09490
5814.33301,0.06419
5816.26148,0.02921
5818.18994,0.02283
5820.11841,0.05178
5822.04688,0.05893
5823.97535,0.04388
5825.90382,0.04121
5827.83229,0.05210
5829.76076,0.06906
5831.68923,0.07836
5833.61769,0.07827
5835.54616,0.07616
5837.47463,0.06650
5839.40310,0.06231
5841.33157,0.08364
5843.26004,0.09594
5845.18851,0.07653
5847.11697,0.05846
5849.04544,0.06875
5850.97391,0.09074
5852.90238,0.08687
5854.83085,0.07707
5856.75932,0.09473
5858.68779,0.12394
5860.61626,0.13772
5862.54472,0.13045
5864.47319,0.11113
5866.40166,0.08401
5868.33013,0.06449
5870.25860,0.06732
5872.18707,0.09087
5874.11554,0.12070
5876.04400,0.11675
5877.97247,0.07248
5879.90094,0.04894
5881.82941,0.06689
5883.75788,0.08778
5885.68635,0.09695
5887.61482,0.08587
5889.54329,0.06037
5891.47175,0.05158
5893.40022,0.05712
5895.32869,0.06262
5897.25716,0.07293
5899.18563,0.08445
5901.11410,0.07579
5903.04257,0.04743
5904.97103,0.04298
5906.89950,0.07964
5908.82797,0.09916
5910.75644,0.07641
5912.68491,0.06008
5914.61338,0.05768
5916.54185,0.07840
5918.47032,0.13404
5920.39878,0.16296
5922.32725,0.13596
5924.25572,0.09417
5926.18419,0.06479
5928.11266,0.05936
5930.04113,0.07939
5931.96960,0.10451
5933.89806,0.11350
5935.82653,0.10564
5937.75500,0.10739
5939.68347,0.10935
5941.61194,0.06907
5943.54041,0.02829
5945.46888,0.04628
5947.39734,0.07748
5949.32581,0.07633
5951.25428,0.06128
5953.18275,0.06466
5955.11122,0.08774
5957.03969,0.08240
5958.96816,0.04479
5960.89663,0.04578
5962.82509,0.07848
5964.75356,0.07916
5966.68203,0.05058
5968.61050,0.03599
5970.53897,0.05808
5972.46744,0.10260
5974.39591,0.12555
5976.32437,0.10518
5978.25284,0.07134
5980.18131,0.06523
5982.10978,0.08599
5984.03825,0.09382
5985.96672,0.07681
5987.89519,0.06403
5989.82366,0.06417
5991.75212,0.06016
5993.68059,0.07332
5995.60906,0.10126
5997.53753,0.07232
5999.46600,0.01452
6001.39447,0.00831
6003.32294,0.03856
6005.25140,0.06369
6007.17987,0.08917
6009.10834,0.11180
6011.03681,0.10410
6012.96528,0.07063
6014.89375,0.04710
6016.82222,0.04678
6018.75069,0.06492
6020.67915,0.08781
6022.60762,0.09116
6024.53609,0.07744
6026.46456,0.06363
6028.39303,0.06450
6030.32150,0.10407
6032.24997,0.18292
6034.17843,0.23970
6036.10690,0.22058
6038.03537,0.17331
6039.96384,0.13685
6041.89231,0.09274
6043.82078,0.05157
6045.74925,0.03779
6047.67772,0.04274
6049.60618,0.04819
6051.53465,0.07105
6053.46312,0.12495
6055.39159,0.16753
6057.32006,0.14050
6059.24853,0.07715
6061.17700,0.07091
6063.10546,0.10134
6065.03393,0.10590
6066.96240,0.10597
6068.89087,0.09354
6070.81934,0.07590
6072.74781,0.09301
6074.67628,0.10648
6076.60475,0.09023
6078.53321,0.07879
6080.46168,0.07600
6082.39015,0.08016
6084.31862,0.10304
6086.24709,0.12982
6088.17556,0.12019
6090.10403,0.08359
6092.03249,0.05536
6093.96096,0.02352
6095.88943,0.01479
6097.81790,0.07140
6099.74637,0.13292
6101.67484,0.12334
6103.60331,0.07290
6105.53177,0.04944
6107.46024,0.04381
6109.38871,0.02027
6111.31718,-0.00561
6113.24565,-0.01403
6115.17412,0.00637
6117.10259,0.04499
6119.03106,0.05595
6120.95952,0.04528
6122.88799,0.04430
6124.81646,0.04338
6126.74493,0.06216
6128.67340,0.11226
6130.60187,0.13887
6132.53034,0.13176
6134.45880,0.12895
6136.38727,0.11801
6138.31574,0.08679
6140.24421,0.07771
6142.17268,0.10343
6144.10115,0.12029
6146.02962,0.12374
6147.95809,0.14683
6149.88655,0.17608
6151.81502,0.17010
6153.74349,0.13923
6155.67196,0.12107
6157.60043,0.12636
6159.52890,0.14749
6161.45737,0.15652
6163.38583,0.12601
6165.31430,0.07289
6167.24277,0.03340
6169.17124,0.01540
6171.09971,0.02872
6173.02818,0.08616
6174.95665,0.15234
6176.88512,0.16840
6178.81358,0.13245
6180.74205,0.08931
6182.67052,0.05802
6184.59899,0.04724
6186.52746,0.07498
6188.45593,0.09957
6190.38440,0.04728
6192.31286,-0.03168
6194.24133,-0.03501
6196.16980,0.03926
6198.09827,0.10800
6200.02674,0.11218
6201.95521,0.07538
6203.88368,0.07633
6205.81215,0.12308
6207.74061,0.13919
6209.66908,0.12422
6211.59755,0.12325
6213.52602,0.12263
6215.45449,0.10147
6217.38296,0.07756
6219.31143,0.05491
6221.23989,0.03397
6223.16836,0.05124
6225.09683,0.10016
6227.02530,0.11966
6228.95377,0.10007
6230.88224,0.09710
6232.81071,0.11929
6234.73918,0.10809
6236.66764,0.07033
6238.59611,0.05233
6240.52458,0.07644
6242.45305,0.10990
6244.38152,0.11135
6246.30999,0.12014
6248.23846,0.14284
6250.16692,0.12700
6252.09539,0.08945
6254.02386,0.06558
6255.95233,0.04294
6257.88080,0.01655
6259.80927,0.00344
6261.73774,0.01372
6263.66621,0.02464
6265.59467,0.03082
6267.52314,0.05481
6269.45161,0.08382
6271.38008,0.10661
6273.30855,0.12614
6275.23702,0.13829
6277.16549,0.13307
6279.09395,0.11348
6281.02242,0.07941
6282.95089,0.03433
6284.87936,0.01466
6286.80783,0.01820
6288.73630,0.02901
6290.66477,0.04849
6292.59323,0.04523
6294.52170,0.03558
6296.45017,0.08032
6298.37864,0.15389
6300.30711,0.16398
6302.23558,0.06868
6304.16405,-0.02185
6306.09252,0.00445
6308.02098,0.09303
6309.94945,0.16244
6311.87792,0.21103
6313.80639,0.22879
6315.73486,0.20308
6317.66333,0.16340
6319.59180,0.12803
6321.52026,0.08212
6323.44873,0.05740
6325.37720,0.07332
6327.30567,0.07955
6329.23414,0.03668
6331.16261,-0.03152
6333.09108,-0.04700
6335.01955,0.01372
6336.94801,0.06814
6338.87648,0.05382
6340.80495,0.01974
6342.73342,0.03936
6344.66189,0.08506
6346.59036,0.09674
6348.51883,0.10311
6350.44729,0.13756
6352.37576,0.13880
6354.30423,0.08693
6356.23270,0.05183
6358.16117,0.06615
6360.08964,0.09891
6362.01811,0.10711
6363.94658,0.08371
6365.87504,0.10508
6367.80351,0.21239
6369.73198,0.28521
6371.66045,0.26957
6373.58892,0.23179
6375.51739,0.18414
6377.44586,0.13051
6379.37432,0.11572
6381.30279,0.12651
6383.23126,0.10388
6385.15973,0.05451
6387.08820,0.04354
6389.01667,0.06795
6390.94514,0.09088
6392.87361,0.09656
6394.80207,0.07866
6396.73054,0.06301
6398.65901,0.07234
6400.58748,0.09151
6402.51595,0.08606
6404.44442,0.04938
6406.37289,0.01396
6408.30135,-0.01942
6410.22982,-0.07157
6412.15829,-0.08119
6414.08676,-0.00916
6416.01523,0.06410
6417.94370,0.08005
6419.87217,0.05409
6421.80064,0.02627
6423.72910,0.01199
6425.65757,0.00527
6427.58604,0.01928
6429.51451,0.04993
6431.44298,0.05059
6433.37145,0.02287
6435.29992,0.01454
6437.22838,0.06030
6439.15685,0.12838
6441.08532,0.13018
6443.01379,0.08305
6444.94226,0.07530
6446.87073,0.09714
6448.79920,0.10317
6450.72766,0.07327
6452.65613,0.03669
6454.58460,0.04659
6456.51307,0.07113
6458.44154,0.07083
6460.37001,0.08138
6462.29848,0.12560
6464.22695,0.15378
6466.15541,0.11979
6468.08388,0.07243
6470.01235,0.07252
6471.94082,0.08896
6473.86929,0.09136
6475.79776,0.11083
6477.72623,0.14626
6479.65469,0.16377
6481.58316,0.15383
6483.51163,0.10732
6485.44010,0.05353
6487.36857,0.02917
6489.29704,0.01816
6491.22551,0.01167
6493.15398,0.01924
6495.08244,0.02230
6497.01091,0.03096
6498.93938,0.07961
6500.86785,0.13858
6502.79632,0.12997
6504.72479,0.08614
6506.65326,0.08366
6508.58172,0.08753
6510.51019,0.04484
6512.43866,0.01821
6514.36713,0.04681
6516.29560,0.05677
6518.22407,0.04107
6520.15254,0.05503
6522.08101,0.07181
6524.00947,0.04379
6525.93794,0.00915
6527.86641,0.01953
6529.79488,0.07326
6531.72335,0.13461
6533.65182,0.12618
6535.58029,0.06923
6537.50875,0.08481
6539.43722,0.17104
6541.36569,0.19092
6543.29416,0.10875
6545.22263,0.04857
6547.15110,0.04742
6549.07957,0.04761
6551.00804,0.04709
6552.93650,0.06107
6554.86497,0.07258
6556.79344,0.09323
6558.72191,0.14730
6560.65038,0.17741
6562.57885,0.13969
6564.50732,0.08689
6566.43578,0.06014
6568.36425,0.03875
6570.29272,0.02675
6572.22119,0.04930
6574.14966,0.06535
6576.07813,0.05959
6578.00660,0.06141
6579.93507,0.05468
6581.86353,0.05635
6583.79200,0.10941
6585.72047,0.14442
6587.64894,0.08094
6589.57741,-0.00826
6591.50588,-0.02286
6593.43435,0.02018
6595.36281,0.05519
6597.29128,0.05187
6599.21975,0.01288
6601.14822,-0.02924
6603.07669,-0.03710
6605.00516,-0.01888
6606.93363,0.04940
6608.86210,0.14135
6610.79056,0.15657
6612.71903,0.12325
6614.64750,0.09570
6616.57597,0.03662
6618.50444,0.00084
6620.43291,0.05860
6622.36138,0.12833
6624.28984,0.12192
6626.21831,0.11973
6628.14678,0.20304
6630.07525,0.25601
6632.00372,0.17813
6633.93219,0.04542
6635.86066,-0.07211
6637.78912,-0.09348
6639.71759,-0.03034
6641.64606,0.00867
6643.57453,0.02491
6645.50300,0.07859
6647.43147,0.12255
6649.35994,0.07704
6651.28841,-0.00330
6653.21687,-0.03634
6655.14534,-0.04408
6657.07381,-0.05781
6659.00228,-0.03729
6660.93075,0.04494
6662.85922,0.11878
6664.78769,0.13647
6666.71615,0.12043
6668.64462,0.07131
6670.57309,0.04217
6672.50156,0.09640
6674.43003,0.15246
6676.35850,0.13235
6678.28697,0.08043
6680.21544,0.05434
6682.14390,0.06730
6684.07237,0.07855
6686.00084,0.05959
6687.92931,0.07200
6689.85778,0.10155
6691.78625,0.07096
6693.71472,0.02432
6695.64318,-0.00517
6697.57165,-0.02115
6699.50012,-0.00890
6701.42859,0.00888
6703.35706,0.01316
6705.28553,0.04541
6707.21400,0.09455
6709.14247,0.09226
6711.07093,0.05657
6712.99940,0.05118
6714.92787,0.06971
6716.85634,0.07635
6718.78481,0.06343
6720.71328,0.01884
6722.64175,-0.02331
6724.57021,0.01126
6726.49868,0.11342
6728.42715,0.18840
6730.35562,0.16048
6732.28409,0.06480
6734.21256,-0.01525
6736.14103,-0.02562
6738.06950,-0.00214
6739.99796,-0.01057
6741.92643,-0.02690
6743.85490,-0.01356
6745.78337,0.00928
6747.71184,0.01183
6749.64031,-0.04490
6751.56878,-0.11473
6753.49724,-0.07696
6755.42571,0.02467
6757.35418,0.08638
6759.28265,0.14550
6761.21112,0.19780
6763.13959,0.17974
6765.06806,0.13149
6766.99653,0.10615
6768.92499,0.09738
6770.85346,0.08125
6772.78193,0.04421
6774.71040,0.00315
6776.63887,-0.02298
6778.56734,-0.04139
6780.49581,-0.01521
6782.42427,0.05659
6784.35274,0.12242
6786.28121,0.17842
6788.20968,0.21820
6790.13815,0.22180
6792.06662,0.19488
6793.99509,0.14382
6795.92355,0.05931
6797.85202,-0.03007
6799.78049,-0.10048
6801.70896,-0.13688
6803.63743,-0.10519
6805.56590,-0.00684
6807.49437,0.07031
6809.42284,0.07556
6811.35130,0.06078
6813.27977,0.04387
6815.20824,0.02531
6817.13671,0.04239
6819.06518,0.06513
6820.99365,0.05352
6822.92212,-0.01382
6824.85058,-0.08776
6826.77905,-0.10882
6828.70752,-0.07366
6830.63599,-0.00241
6832.56446,0.06009
6834.49293,0.07886
6836.42140,0.03343
6838.34987,0.02143
6840.27833,0.07114
6842.20680,0.05776
6844.13527,-0.00929
6846.06374,-0.04639
6847.99221,-0.03754
6849.92068,0.00023
6851.84915,0.01577
6853.77761,0.00195
6855.70608,-0.02192
6857.63455,-0.01501
6859.56302,0.00078
6861.49149,-0.02774
6863.41996,-0.09381
6865.34843,-0.12615
6867.27690,-0.07601
6869.20536,0.01049
6871.13383,0.06426
6873.06230,0.09793
6874.99077,0.15166
6876.91924,0.18232
6878.84771,0.14165
6880.77618,0.07831
6882.70464,0.04437
6884.63311,0.00425
6886.56158,-0.05359
6888.49005,-0.05042
6890.41852,0.03936
6892.34699,0.05740
6894.27546,-0.05900
6896.20393,-0.10662
6898.13239,0.00126
6900.06086,0.08822
6901.98933,0.08994
6903.91780,0.05319
6905.84627,0.03666
6907.77474,0.09635
6909.70321,0.16770
6911.63167,0.16288
6913.56014,0.08480
6915.48861,0.02832
6917.41708,0.06575
6919.34555,0.13485
6921.27402,0.10502
6923.20249,0.07593
6925.13096,0.14191
6927.05942,0.17796
6928.98789,0.14972
6930.91636,0.15168
6932.84483,0.12515
6934.77330,0.01540
6936.70177,-0.10414
6938.63024,-0.19277
6940.55870,-0.22281
6942.48717,-0.20614
6944.41564,-0.14796
6946.34411,-0.01708
6948.27258,0.10338
6950.20105,0.13665
6952.12952,0.12177
6954.05799,0.07050
6955.98645,0.06168
6957.91492,0.17762
6959.84339,0.26151
6961.77186,0.18432
6963.70033,0.06785
6965.62880,0.04309
6967.55727,0.08794
6969.48573,0.09972
6971.41420,0.05022
6973.34267,0.02774
6975.27114,0.03200
6977.19961,-0.03808
6979.12808,-0.15391
6981.05655,-0.18233
6982.98501,-0.06587
6984.91348,0.05549
6986.84195,0.06163
6988.77042,0.01648
6990.69889,0.03303
6992.62736,0.09428
6994.55583,0.08466
6996.48430,-0.00239
6998.41276,0.00029
7000.34123,0.13858
7002.26970,0.18615
7004.19817,0.06925
7006.12664,-0.03041
7008.05511,0.03127
7009.98358,0.10038
7011.91204,0.08614
7013.84051,0.05351
7015.76898,0.03038
7017.69745,0.00712
7019.62592,0.01122
7021.55439,0.02977
7023.48286,0.04786
7025.41133,0.07037
7027.33979,0.07039
7029.26826,0.04803
7031.19673,0.05177
7033.12520,0.09323
7035.05367,0.09167
7036.98214,0.03518
7038.91061,0.01416
7040.83907,0.05364
7042.76754,0.10814
7044.69601,0.09144
7046.62448,0.04942
7048.55295,0.06306
7050.48142,0.05744
7052.40989,0.01822
7054.33836,0.07203
7056.26682,0.19052
7058.19529,0.17743
7060.12376,0.05206
7062.05223,-0.00539
7063.98070,0.05549
7065.90917,0.15038
7067.83764,0.18947
7069.76610,0.14783
7071.69457,0.14188
7073.62304,0.21288
7075.55151,0.23215
7077.47998,0.19477
7079.40845,0.13258
7081.33692,0.08511
7083.26539,0.09503
7085.19385,0.10582
7087.12232,0.06426
7089.05079,-0.01864
7090.97926,-0.04391
7092.90773,0.00593
7094.83620,0.01861
7096.76467,-0.02154
7098.69313,-0.01218
7100.62160,0.02275
7102.55007,0.01475
7104.47854,0.02775
7106.40701,0.08336
7108.33548,0.08911
7110.26395,0.05996
7112.19242,0.04877
7114.12088,0.01892
7116.04935,-0.06769
7117.97782,-0.15759
7119.90629,-0.14517
7121.83476,-0.11788
7123.76323,-0.12876
7125.69170,-0.08374
7127.62016,-0.02480
7129.54863,-0.02835
7131.47710,-0.01468
7133.40557,0.02334
7135.33404,0.02790
7137.26251,0.04785
7139.19098,0.08419
7141.11944,0.08866
7143.04791,0.08281
7144.97638,0.01744
7146.90485,-0.07118
7148.83332,-0.05159
7150.76179,0.00824
7152.69026,0.00791
7154.61873,-0.04013
7156.54719,-0.02661
7158.47566,0.03296
7160.40413,0.00085
7162.33260,-0.09067
7164.26107,-0.07753
7166.18954,0.05493
7168.11801,0.17694
7170.04647,0.12639
7171.97494,-0.07863
7173.90341,-0.26236
7175.83188,-0.32009
7177.76035,-0.22685
7179.68882,-0.13375
7181.61729,-0.11192
7183.54576,-0.12277
7185.47422,-0.02711
7187.40269,0.17552
7189.33116,0.25762
7191.25963,0.19936
7193.18810,0.18598
7195.11657,0.20962
7197.04504,0.20260
7198.97350,0.18298
7200.90197,0.19205
7202.83044,0.18803
7204.75891,0.05297
7206.68738,-0.16698
7208.61585,-0.19594
7210.54432,0.00911
7212.47279,0.21268
7214.40125,0.26180
7216.32972,0.26343
7218.25819,0.23719
7220.18666,0.09362
7222.11513,-0.03666
7224.04360,-0.04254
7225.97207,0.07404
7227.90053,0.14933
7229.82900,0.10644
7231.75747,0.03072
7233.68594,0.02780
7235.61441,0.11148
7237.54288,0.17833
7239.47135,0.17026
7241.39982,0.05323
7243.32828,-0.19943
7245.25675,-0.30264
7247.18522,-0.18596
7249.11369,-0.04334
7251.04216,0.02356
7252.97063,0.07525
7254.89910,0.12911
7256.82756,0.14796
7258.75603,0.18477
7260.68450,0.23072
7262.61297,0.21714
7264.54144,0.14763
7266.46991,0.08505
7268.39838,0.07450
7270.32685,0.09233
7272.25531,0.07156
7274.18378,0.00517
7276.11225,-0.07901
7278.04072,-0.18458
7279.96919,-0.21515
7281.89766,-0.14039
7283.82613,-0.08425
7285.75459,-0.03232
7287.68306,-0.00340
7289.61153,-0.00762
7291.54000,0.01058
7293.46847,0.03576
7295.39694,0.00788
7297.32541,-0.04409
7299.25387,-0.01251
7301.18234,0.08608
7303.11081,0.09275
7305.03928,-0.04540
7306.96775,-0.22088
7308.89622,-0.28912
7310.82469,-0.15005
7312.75316,0.13629
7314.68162,0.41031
7316.61009,0.45956
7318.53856,0.33893
7320.46703,0.24784
7322.39550,0.17781
7324.32397,0.13143
7326.25244,0.09042
7328.18090,0.05316
7330.10937,0.03521
7332.03784,-0.00058
7333.96631,-0.02056
7335.89478,0.00282
7337.82325,-0.00259
7339.75172,-0.08700
7341.68019,-0.09425
7343.60865,0.02507
7345.53712,0.15399
7347.46559,0.20666
7349.39406,0.21042
7351.32253,0.19940
7353.25100,0.16364
7355.17947,0.17762
7357.10793,0.25429
7359.03640,0.24268
7360.96487,0.14986
7362.89334,0.15330
7364.82181,0.24583
7366.75028,0.27649
7368.67875,0.17067
7370.60722,0.05630
7372.53568,0.05937
7374.46415,0.11434
7376.39262,-0.00961
7378.32109,-0.18471
7380.24956,-0.18254
7382.17803,-0.02126
7384.10650,0.18517
7386.03496,0.30490
7387.96343,0.19933
7389.89190,0.03982
7391.82037,-0.00096
7393.74884,-0.03451
7395.67731,-0.05925
7397.60578,0.01243
7399.53425,0.00834
7401.46271,-0.16983
7403.39118,-0.34272
7405.31965,-0.22754
7407.24812,0.05928
7409.17659,0.18770
7411.10506,0.12150
7413.03353,0.01888
7414.96199,-0.06409
7416.89046,-0.13561
7418.81893,-0.11186
7420.74740,0.05650
7422.67587,0.18045
7424.60434,0.17756
7426.53281,0.07628
7428.46128,-0.14940
7430.38974,-0.35518
7432.31821,-0.30724
7434.24668,-0.14207
7436.17515,0.10225
7438.10362,0.39554
7440.03209,0.53994
7441.96056,0.48175
7443.88902,0.34365
7445.81749,0.22768
7447.74596,0.14578
7449.67443,0.08249
7451.60290,-0.01748
7453.53137,-0.15143
7455.45984,-0.14772
7457.38831,-0.00177
7459.31677,0.12203
7461.24524,0.13982
7463.17371,0.20321
7465.10218,0.34464
7467.03065,0.38109
7468.95912,0.24768
7470.88759,0.08750
7472.81605,0.00935
7474.74452,-0.03507
7476.67299,-0.07119
7478.60146,-0.05441
7480.52993,0.01182
7482.45840,0.03223
7484.38687,-0.00116
7486.31533,0.03290
7488.24380,0.14672
7490.17227,0.28353
7492.10074,0.35455
7494.02921,0.25578
7495.95768,0.07498
7497.88615,-0.05131
