399.19301,0.59825
401.12148,-0.00380
403.04995,-0.02521
404.97842,0.18724
406.90689,0.33730
408.83536,0.35511
410.76382,0.26515
412.69229,0.14251
414.62076,0.04700
416.54923,0.00711
418.47770,0.07534
420.40617,0.21425
422.33464,0.25906
424.26311,0.25758
426.19157,0.23896
428.12004,0.19438
430.04851,0.15551
431.97698,0.10471
433.90545,0.02052
435.83392,-0.01940
437.76239,0.00477
439.69085,0.04380
441.61932,0.07484
443.54779,0.08778
445.47626,0.08656
447.40473,0.08737
449.33320,0.07662
451.26167,0.07047
453.19013,0.11004
455.11860,0.17602
457.04707,0.20081
458.97554,0.15165
460.90401,0.10735
462.83248,0.12174
464.76095,0.13906
466.68942,0.10432
468.61788,0.05721
470.54635,0.05728
472.47482,0.06912
474.40329,-0.00737
476.33176,-0.01418
478.26023,0.08484
480.18870,0.15576
482.11716,0.13298
484.04563,0.06178
485.97410,0.04054
487.90257,0.05571
489.83104,0.05886
491.75951,0.07678
493.68798,0.10610
495.61645,0.10072
497.54491,0.07796
499.47338,0.07482
501.40185,0.07585
503.33032,0.07310
505.25879,0.08350
507.18726,0.10368
509.11573,0.11055
511.04419,0.09808
512.97266,0.09210
514.90113,0.10246
516.82960,0.09988
518.75807,0.09296
520.68654,0.10965
522.61501,0.11758
524.54348,0.10385
526.47194,0.11734
528.40041,0.15698
530.32888,0.17508
532.25735,0.16428
534.18582,0.13860
536.11429,0.11207
538.04276,0.08852
539.97122,0.06043
541.89969,0.04371
543.82816,0.05166
545.75663,0.06929
547.68510,0.07728
549.61357,0.02743
551.54204,-0.10752
553.47051,-0.22544
555.39897,-0.19620
557.32744,-0.06510
559.25591,0.02474
561.18438,0.06552
563.11285,0.10213
565.04132,0.10283
566.96979,0.07043
568.89825,0.06495
570.82672,0.08353
572.75519,0.08520
574.68366,0.07342
576.61213,0.07383
578.54060,0.08876
580.46907,0.10208
582.39754,0.09628
584.32600,0.08199
586.25447,0.08769
588.18294,0.10159
590.11141,0.09996
592.03988,0.09632
593.96835,0.09897
595.89682,0.10298
597.82528,0.11402
599.75375,0.12010
601.68222,0.11386
603.61069,0.11623
605.53916,0.11896
607.46763,0.10232
609.39610,0.08319
611.32456,0.08257
613.25303,0.09301
615.18150,0.09881
617.10997,0.10825
619.03844,0.11662
620.96691,0.10077
622.89538,0.07651
624.82385,0.07938
626.75231,0.10002
628.68078,0.10108
630.60925,0.09295
632.53772,0.10842
634.46619,0.12012
636.39466,0.10297
638.32313,0.09838
640.25159,0.11478
642.18006,0.11889
644.10853,0.12582
646.03700,0.13792
647.96547,0.12206
649.89394,0.09965
651.82241,0.11018
653.75088,0.13367
655.67934,0.14283
657.60781,0.14133
659.53628,0.13281
661.46475,0.11137
663.39322,0.08765
665.32169,0.08317
667.25016,0.09830
669.17862,0.09699
671.10709,0.08158
673.03556,0.08714
674.96403,0.10690
676.89250,0.11775
678.82097,0.10982
680.74944,0.10174
682.67791,0.10597
684.60637,0.10881
686.53484,0.10653
688.46331,0.10281
690.39178,0.09656
692.32025,0.09633
694.24872,0.11339
696.17719,0.14237
698.10565,0.15805
700.03412,0.15603
701.96259,0.15414
703.89106,0.15557
705.81953,0.15569
707.74800,0.15125
709.67647,0.14182
711.60494,0.13043
713.53340,0.11894
715.46187,0.11240
717.39034,0.11976
719.31881,0.13439
721.24728,0.13377
723.17575,0.12008
725.10422,0.11168
727.03268,0.10839
728.96115,0.10530
730.88962,0.09948
732.81809,0.09131
734.74656,0.09350
736.67503,0.10553
738.60350,0.11421
740.53197,0.12243
742.46043,0.12803
744.38890,0.12320
746.31737,0.11882
748.24584,0.12131
750.17431,0.12191
752.10278,0.11864
754.03125,0.11816
755.95971,0.12228
757.88818,0.12608
759.81665,0.12268
761.74512,0.11391
763.67359,0.11164
765.60206,0.11809
767.53053,0.12759
769.45900,0.13965
771.38746,0.14903
773.31593,0.14706
775.24440,0.13766
777.17287,0.13096
779.10134,0.13191
781.02981,0.13806
782.95828,0.14147
784.88674,0.13926
786.81521,0.13288
788.74368,0.12640
790.67215,0.12503
792.60062,0.12518
794.52909,0.12420
796.45756,0.12715
798.38602,0.13092
800.31449,0.12847
802.24296,0.12549
804.17143,0.12446
806.09990,0.12103
808.02837,0.12080
809.95684,0.12884
811.88531,0.13793
813.81377,0.13753
815.74224,0.13372
817.67071,0.14071
819.59918,0.14701
821.52765,0.13069
823.45612,0.10955
825.38459,0.11526
827.31305,0.13062
829.24152,0.12733
831.16999,0.11221
833.09846,0.10647
835.02693,0.11887
836.95540,0.13471
838.88387,0.14280
840.81234,0.14468
842.74080,0.14181
844.66927,0.13456
846.59774,0.12760
848.52621,0.12801
850.45468,0.13415
852.38315,0.14153
854.31162,0.14878
856.24008,0.15250
858.16855,0.14957
860.09702,0.14460
862.02549,0.14071
863.95396,0.13748
865.88243,0.13721
867.81090,0.13068
869.73937,0.11957
871.66783,0.11923
873.59630,0.12100
875.52477,0.11903
877.45324,0.12593
879.38171,0.13842
881.31018,0.14636
883.23865,0.14724
885.16711,0.13765
887.09558,0.12375
889.02405,0.11740
890.95252,0.12176
892.88099,0.12915
894.80946,0.13119
896.73793,0.13420
898.66640,0.13856
900.59486,0.13768
902.52333,0.13481
904.45180,0.12756
906.38027,0.11884
908.30874,0.11977
910.23721,0.12743
912.16568,0.13468
914.09414,0.13748
916.02261,0.13569
917.95108,0.13658
919.87955,0.14086
921.80802,0.14328
923.73649,0.14444
925.66496,0.14472
927.59343,0.14322
929.52189,0.14207
931.45036,0.14056
933.37883,0.13745
935.30730,0.13499
937.23577,0.13683
939.16424,0.14396
941.09271,0.14667
943.02117,0.14006
944.94964,0.13655
946.87811,0.14036
948.80658,0.14223
950.73505,0.14132
952.66352,0.14305
954.59199,0.14527
956.52045,0.14150
958.44892,0.13499
960.37739,0.13452
962.30586,0.13821
964.23433,0.14100
966.16280,0.14506
968.09127,0.14982
970.01974,0.15073
971.94820,0.14933
973.87667,0.15034
975.80514,0.15355
977.73361,0.15348
979.66208,0.14611
981.59055,0.13552
983.51902,0.13125
985.44748,0.13737
987.37595,0.14659
989.30442,0.15172
991.23289,0.15258
993.16136,0.14972
995.08983,0.14558
997.01830,0.14276
998.94677,0.14026
1000.87523,0.13885
1002.80370,0.14391
1004.73217,0.15577
1006.66064,0.16346
1008.58911,0.16082
1010.51758,0.15488
1012.44605,0.15110
1014.37451,0.14944
1016.30298,0.14883
1018.23145,0.14477
1020.15992,0.13887
1022.08839,0.13852
1024.01686,0.13643
1025.94533,0.10935
1027.87380,0.06456
1029.80226,0.06026
1031.73073,0.10424
1033.65920,0.13515
1035.58767,0.13728
1037.51614,0.13352
1039.44461,0.13539
1041.37308,0.14631
1043.30154,0.15757
1045.23001,0.15946
1047.15848,0.15558
1049.08695,0.15273
1051.01542,0.15006
1052.94389,0.15027
1054.87236,0.15484
1056.80083,0.15599
1058.72929,0.15526
1060.65776,0.15757
1062.58623,0.16089
1064.51470,0.16129
1066.44317,0.15631
1068.37164,0.15480
1070.30011,0.16298
1072.22857,0.16780
1074.15704,0.16244
1076.08551,0.15806
1078.01398,0.16055
1079.94245,0.16301
1081.87092,0.16092
1083.79939,0.16021
1085.72786,0.15888
1087.65632,0.15070
1089.58479,0.14358
1091.51326,0.14270
1093.44173,0.14579
1095.37020,0.15107
1097.29867,0.15651
1099.22714,0.16065
1101.15560,0.15939
1103.08407,0.15619
1105.01254,0.16057
1106.94101,0.16660
1108.86948,0.16434
1110.79795,0.16008
1112.72642,0.16163
1114.65489,0.16467
1116.58335,0.16284
1118.51182,0.15539
1120.44029,0.14668
1122.36876,0.14254
1124.29723,0.14478
1126.22570,0.14934
1128.15417,0.15000
1130.08263,0.14640
1132.01110,0.14555
1133.93957,0.14829
1135.86804,0.14744
1137.79651,0.14281
1139.72498,0.14116
1141.65345,0.14617
1143.58191,0.15469
1145.51038,0.16232
1147.43885,0.16633
1149.36732,0.16214
1151.29579,0.15362
1153.22426,0.15005
1155.15273,0.15040
1157.08120,0.15234
1159.00966,0.15823
1160.93813,0.16380
1162.86660,0.16354
1164.79507,0.16106
1166.72354,0.16190
1168.65201,0.16754
1170.58048,0.17239
1172.50894,0.17125
1174.43741,0.17012
1176.36588,0.17193
1178.29435,0.16915
1180.22282,0.16065
1182.15129,0.15523
1184.07976,0.15705
1186.00823,0.16191
1187.93669,0.16518
1189.86516,0.16509
1191.79363,0.16320
1193.72210,0.16278
1195.65057,0.16558
1197.57904,0.16916
1199.50751,0.16794
1201.43597,0.16167
1203.36444,0.15829
1205.29291,0.16215
1207.22138,0.16653
1209.14985,0.16635
1211.07832,0.16674
1213.00679,0.16903
1214.93526,0.16722
1216.86372,0.16234
1218.79219,0.16190
1220.72066,0.16607
1222.64913,0.16802
1224.57760,0.16630
1226.50607,0.16477
1228.43454,0.16456
1230.36300,0.16560
1232.29147,0.16547
1234.21994,0.16083
1236.14841,0.15616
1238.07688,0.15723
1240.00535,0.16142
1241.93382,0.16422
1243.86229,0.16451
1245.79075,0.16249
1247.71922,0.16145
1249.64769,0.16441
1251.57616,0.16676
1253.50463,0.16467
1255.43310,0.16192
1257.36157,0.16032
1259.29003,0.15990
1261.21850,0.16288
1263.14697,0.16771
1265.07544,0.16968
1267.00391,0.16649
1268.93238,0.16400
1270.86085,0.16838
1272.78932,0.17182
1274.71778,0.16784
1276.64625,0.16424
1278.57472,0.16589
1280.50319,0.16893
1282.43166,0.17172
1284.36013,0.17434
1286.28860,0.17516
1288.21706,0.17471
1290.14553,0.17462
1292.07400,0.17458
1294.00247,0.17385
1295.93094,0.17188
1297.85941,0.16797
1299.78788,0.16319
1301.71634,0.15934
1303.64481,0.15739
1305.57328,0.16008
1307.50175,0.16771
1309.43022,0.17437
1311.35869,0.17545
1313.28716,0.17255
1315.21563,0.17125
1317.14409,0.17342
1319.07256,0.17535
1321.00103,0.17589
1322.92950,0.17564
1324.85797,0.17334
1326.78644,0.17083
1328.71491,0.17033
1330.64337,0.16931
1332.57184,0.16839
1334.50031,0.17112
1336.42878,0.17742
1338.35725,0.18452
1340.28572,0.18373
1342.21419,0.17514
1344.14266,0.16921
1346.07112,0.16692
1347.99959,0.16748
1349.92806,0.16997
1351.85653,0.17188
1353.78500,0.17447
1355.71347,0.17582
1357.64194,0.17551
1359.57040,0.17794
1361.49887,0.18185
1363.42734,0.18137
1365.35581,0.17766
1367.28428,0.17649
1369.21275,0.17901
1371.14122,0.18573
1373.06969,0.19543
1374.99815,0.19696
1376.92662,0.18641
1378.85509,0.17618
1380.78356,0.17165
1382.71203,0.17244
1384.64050,0.17968
1386.56897,0.18887
1388.49743,0.18850
1390.42590,0.18387
1392.35437,0.19036
1394.28284,0.20587
1396.21131,0.21285
1398.13978,0.20595
1400.06825,0.19107
1401.99672,0.18039
1403.92518,0.18159
1405.85365,0.18396
1407.78212,0.17986
1409.71059,0.17771
1411.63906,0.17844
1413.56753,0.17872
1415.49600,0.18451
1417.42446,0.20028
1419.35293,0.20901
1421.28140,0.20045
1423.20987,0.19321
1425.13834,0.18871
1427.06681,0.18556
1428.99528,0.18678
1430.92375,0.18932
1432.85221,0.19321
1434.78068,0.20147
1436.70915,0.20364
1438.63762,0.19248
1440.56609,0.18521
1442.49456,0.18414
1444.42303,0.18495
1446.35149,0.18960
1448.27996,0.19365
1450.20843,0.19086
1452.13690,0.19073
1454.06537,0.20564
1455.99384,0.24254
1457.92231,0.25955
1459.85077,0.22579
1461.77924,0.20544
1463.70771,0.20589
1465.63618,0.20376
1467.56465,0.19478
1469.49312,0.19799
1471.42159,0.21874
1473.35006,0.23455
1475.27852,0.22273
1477.20699,0.20612
1479.13546,0.19671
1481.06393,0.19204
1482.99240,0.19112
1484.92087,0.19914
1486.84934,0.21995
1488.77780,0.24115
1490.70627,0.23343
1492.63474,0.21440
1494.56321,0.21212
1496.49168,0.21990
1498.42015,0.21664
1500.34862,0.20721
1502.27709,0.21011
1504.20555,0.23412
1506.13402,0.28018
1508.06249,0.28527
1509.99096,0.25098
1511.91943,0.23023
1513.84790,0.22645
1515.77637,0.23921
1517.70483,0.25364
1519.63330,0.26413
1521.56177,0.27214
1523.49024,0.25640
1525.41871,0.23226
1527.34718,0.21496
1529.27565,0.20842
1531.20412,0.21636
1533.13258,0.22972
1535.06105,0.23048
1536.98952,0.23517
1538.91799,0.26911
1540.84646,0.30851
1542.77493,0.28868
1544.70340,0.24814
1546.63186,0.21852
1548.56033,0.21011
1550.48880,0.21401
1552.41727,0.21977
1554.34574,0.22949
1556.27421,0.25221
1558.20268,0.29044
1560.13115,0.27042
1562.05961,0.22924
1563.98808,0.21466
1565.91655,0.21359
1567.84502,0.21881
1569.77349,0.21964
1571.70196,0.21112
1573.63043,0.21122
1575.55889,0.21845
1577.48736,0.20836
1579.41583,0.19146
1581.34430,0.18466
1583.27277,0.18294
1585.20124,0.18097
1587.12971,0.18071
1589.05818,0.18305
1590.98664,0.18599
1592.91511,0.19044
1594.84358,0.19460
1596.77205,0.19330
1598.70052,0.18875
1600.62899,0.18733
1602.55746,0.18880
1604.48592,0.19013
1606.41439,0.19220
1608.34286,0.19350
1610.27133,0.19005
1612.19980,0.18620
1614.12827,0.19227
1616.05674,0.20873
1617.98521,0.21407
1619.91367,0.21158
1621.84214,0.21867
1623.77061,0.22474
1625.69908,0.22122
1627.62755,0.21720
1629.55602,0.21181
1631.48449,0.21138
1633.41295,0.22720
1635.34142,0.25038
1637.26989,0.24020
1639.19836,0.21814
1641.12683,0.20989
1643.05530,0.21394
1644.98377,0.23409
1646.91223,0.25959
1648.84070,0.25953
1650.76917,0.26559
1652.69764,0.29031
1654.62611,0.26534
1656.55458,0.22568
1658.48305,0.20864
1660.41152,0.20825
1662.33998,0.21531
1664.26845,0.21379
1666.19692,0.21462
1668.12539,0.23371
1670.05386,0.25095
1671.98233,0.24439
1673.91080,0.23692
1675.83926,0.22761
1677.76773,0.21766
1679.69620,0.22178
1681.62467,0.24374
1683.55314,0.27306
1685.48161,0.26237
1687.41008,0.23336
1689.33855,0.21867
1691.26701,0.21370
1693.19548,0.22255
1695.12395,0.24964
1697.05242,0.27675
1698.98089,0.28253
1700.90936,0.25952
1702.83783,0.23364
1704.76629,0.22694
1706.69476,0.22205
1708.62323,0.21059
1710.55170,0.20424
1712.48017,0.20900
1714.40864,0.22883
1716.33711,0.25763
1718.26558,0.25250
1720.19404,0.22099
1722.12251,0.20277
1724.05098,0.19571
1725.97945,0.19300
1727.90792,0.19846
1729.83639,0.21397
1731.76486,0.23513
1733.69332,0.24698
1735.62179,0.23190
1737.55026,0.22109
1739.47873,0.22276
1741.40720,0.22316
1743.33567,0.22163
1745.26414,0.22450
1747.19261,0.23162
1749.12107,0.23592
1751.04954,0.22613
1752.97801,0.21006
1754.90648,0.20380
1756.83495,0.20612
1758.76342,0.20977
1760.69189,0.21448
1762.62035,0.21310
1764.54882,0.20626
1766.47729,0.20734
1768.40576,0.21663
1770.33423,0.22788
1772.26270,0.22915
1774.19117,0.21470
1776.11964,0.20294
1778.04810,0.20057
1779.97657,0.20382
1781.90504,0.20461
1783.83351,0.20108
1785.76198,0.19663
1787.69045,0.19512
1789.61892,0.20444
1791.54738,0.22039
1793.47585,0.21995
1795.40432,0.20801
1797.33279,0.20390
1799.26126,0.20750
1801.18973,0.20819
1803.11820,0.20232
1805.04666,0.19629
1806.97513,0.19339
1808.90360,0.19603
1810.83207,0.20084
1812.76054,0.19985
1814.68901,0.19611
1816.61748,0.19274
1818.54595,0.18888
1820.47441,0.18833
1822.40288,0.19462
1824.33135,0.20345
1826.25982,0.20789
1828.18829,0.21090
1830.11676,0.21044
1832.04523,0.20178
1833.97369,0.19549
1835.90216,0.19558
1837.83063,0.19615
1839.75910,0.19555
1841.68757,0.20106
1843.61604,0.21211
1845.54451,0.21295
1847.47298,0.20519
1849.40144,0.19917
1851.32991,0.19449
1853.25838,0.19223
1855.18685,0.19232
1857.11532,0.19067
1859.04379,0.18823
1860.97226,0.18906
1862.90072,0.19269
1864.82919,0.20008
1866.75766,0.21294
1868.68613,0.21861
1870.61460,0.20655
1872.54307,0.19384
1874.47154,0.18905
1876.40001,0.18837
1878.32847,0.18860
1880.25694,0.18859
1882.18541,0.18926
1884.11388,0.19129
1886.04235,0.19401
1887.97082,0.19728
1889.89929,0.19833
1891.82775,0.19603
1893.75622,0.19395
1895.68469,0.19187
1897.61316,0.18973
1899.54163,0.18861
1901.47010,0.18771
1903.39857,0.18670
1905.32704,0.18691
1907.25550,0.19115
1909.18397,0.19527
1911.11244,0.19309
1913.04091,0.19078
1914.96938,0.19409
1916.89785,0.19963
1918.82632,0.20110
1920.75478,0.19913
1922.68325,0.19869
1924.61172,0.19854
1926.54019,0.19765
1928.46866,0.19635
1930.39713,0.19370
1932.32560,0.19139
1934.25407,0.19025
1936.18253,0.18910
1938.11100,0.18892
1940.03947,0.19384
1941.96794,0.20186
1943.89641,0.20226
1945.82488,0.19643
1947.75335,0.19292
1949.68181,0.19183
1951.61028,0.19199
1953.53875,0.19275
1955.46722,0.19220
1957.39569,0.19022
1959.32416,0.18880
1961.25263,0.18975
1963.18110,0.19226
1965.10956,0.19563
1967.03803,0.19877
1968.96650,0.19690
1970.89497,0.19184
1972.82344,0.19041
1974.75191,0.19158
1976.68038,0.19066
1978.60884,0.18932
1980.53731,0.19097
1982.46578,0.19294
1984.39425,0.19250
1986.32272,0.19183
1988.25119,0.19396
1990.17966,0.19846
1992.10812,0.19948
1994.03659,0.19534
1995.96506,0.19221
1997.89353,0.19144
1999.82200,0.18999
2001.75047,0.18874
2003.67894,0.19028
2005.60741,0.19300
2007.53587,0.19352
2009.46434,0.19241
2011.39281,0.19269
2013.32128,0.19598
2015.24975,0.20070
2017.17822,0.20248
2019.10669,0.19959
2021.03515,0.19600
2022.96362,0.19463
2024.89209,0.19327
2026.82056,0.19104
2028.74903,0.19019
2030.67750,0.19034
2032.60597,0.18999
2034.53444,0.18946
2036.46290,0.19052
2038.39137,0.19342
2040.31984,0.19607
2042.24831,0.19573
2044.17678,0.19310
2046.10525,0.19296
2048.03372,0.19445
2049.96218,0.19376
2051.89065,0.19181
2053.81912,0.19014
2055.74759,0.18963
2057.67606,0.19121
2059.60453,0.19385
2061.53300,0.19511
2063.46147,0.19451
2065.38993,0.19311
2067.31840,0.19171
2069.24687,0.19157
2071.17534,0.19354
2073.10381,0.19617
2075.03228,0.19650
2076.96075,0.19378
2078.88921,0.19034
2080.81768,0.18878
2082.74615,0.18893
2084.67462,0.18949
2086.60309,0.19157
2088.53156,0.19461
2090.46003,0.19472
2092.38850,0.19188
2094.31696,0.18981
2096.24543,0.18961
2098.17390,0.19067
2100.10237,0.19265
2102.03084,0.19459
2103.95931,0.19469
2105.88778,0.19376
2107.81624,0.19440
2109.74471,0.19534
2111.67318,0.19481
2113.60165,0.19423
2115.53012,0.19496
2117.45859,0.19538
2119.38706,0.19387
2121.31553,0.19232
2123.24399,0.19183
2125.17246,0.19214
2127.10093,0.19470
2129.02940,0.19802
2130.95787,0.19865
2132.88634,0.19705
2134.81481,0.19365
2136.74327,0.19040
2138.67174,0.19194
2140.60021,0.19536
2142.52868,0.19667
2144.45715,0.19754
2146.38562,0.19766
2148.31409,0.19756
2150.24255,0.19812
2152.17102,0.19704
2154.09949,0.19563
2156.02796,0.19578
2157.95643,0.19607
2159.88490,0.19563
2161.81337,0.19468
2163.74184,0.19484
2165.67030,0.19646
2167.59877,0.19739
2169.52724,0.19701
2171.45571,0.19647
2173.38418,0.19624
2175.31265,0.19629
2177.24112,0.19683
2179.16958,0.19699
2181.09805,0.19619
2183.02652,0.19570
2184.95499,0.19603
2186.88346,0.19643
2188.81193,0.19646
2190.74040,0.19620
2192.66887,0.19586
2194.59733,0.19551
2196.52580,0.19522
2198.45427,0.19492
2200.38274,0.19500
2202.31121,0.19530
2204.23968,0.19416
2206.16815,0.19341
2208.09661,0.19586
2210.02508,0.19830
2211.95355,0.19792
2213.88202,0.19632
2215.81049,0.19577
2217.73896,0.19580
2219.66743,0.19384
2221.59590,0.19112
2223.52436,0.19088
2225.45283,0.19348
2227.38130,0.19615
2229.30977,0.19703
2231.23824,0.19770
2233.16671,0.19782
2235.09518,0.19621
2237.02364,0.19412
2238.95211,0.19196
2240.88058,0.19033
2242.80905,0.19119
2244.73752,0.19393
2246.66599,0.19550
2248.59446,0.19534
2250.52293,0.19594
2252.45139,0.19783
2254.37986,0.19883
2256.30833,0.19871
2258.23680,0.19876
2260.16527,0.19868
2262.09374,0.19699
2264.02221,0.19354
2265.95067,0.19099
2267.87914,0.19100
2269.80761,0.19228
2271.73608,0.19391
2273.66455,0.19564
2275.59302,0.19669
2277.52149,0.19740
2279.44996,0.19863
2281.37842,0.19884
2283.30689,0.19748
2285.23536,0.19595
2287.16383,0.19405
2289.09230,0.19205
2291.02077,0.19287
2292.94924,0.19812
2294.87770,0.20414
2296.80617,0.20602
2298.73464,0.20414
2300.66311,0.20282
2302.59158,0.20354
2304.52005,0.20324
2306.44852,0.20122
2308.37699,0.20126
2310.30545,0.20163
2312.23392,0.19833
2314.16239,0.19650
2316.09086,0.19894
2318.01933,0.20217
2319.94780,0.20682
2321.87627,0.21265
2323.80473,0.21479
2325.73320,0.21457
2327.66167,0.21823
2329.59014,0.22366
2331.51861,0.22163
2333.44708,0.21257
2335.37555,0.20794
2337.30401,0.20715
2339.23248,0.20333
2341.16095,0.20602
2343.08942,0.21476
2345.01789,0.21217
2346.94636,0.20592
2348.87483,0.20747
2350.80330,0.21242
2352.73176,0.21540
2354.66023,0.21346
2356.58870,0.21077
2358.51717,0.21622
2360.44564,0.22396
2362.37411,0.22559
2364.30258,0.22168
2366.23104,0.21475
2368.15951,0.20876
2370.08798,0.20573
2372.01645,0.20659
2373.94492,0.20941
2375.87339,0.21031
2377.80186,0.20908
2379.73033,0.20768
2381.65879,0.20583
2383.58726,0.20287
2385.51573,0.19987
2387.44420,0.19786
2389.37267,0.19726
2391.30114,0.19851
2393.22961,0.19985
2395.15807,0.19856
2397.08654,0.19596
2399.01501,0.19485
2400.94348,0.19540
2402.87195,0.19634
2404.80042,0.19580
2406.72889,0.19425
2408.65736,0.19454
2410.58582,0.19555
2412.51429,0.19533
2414.44276,0.19638
2416.37123,0.19846
2418.29970,0.19855
2420.22817,0.19771
2422.15664,0.19732
2424.08510,0.19594
2426.01357,0.19392
2427.94204,0.19426
2429.87051,0.19659
2431.79898,0.19808
2433.72745,0.19879
2435.65592,0.19970
2437.58439,0.19946
2439.51285,0.19650
2441.44132,0.19221
2443.36979,0.18930
2445.29826,0.18943
2447.22673,0.19190
2449.15520,0.19303
2451.08367,0.19197
2453.01213,0.19204
2454.94060,0.19378
2456.86907,0.19585
2458.79754,0.19769
2460.72601,0.19839
2462.65448,0.19826
2464.58295,0.19755
2466.51142,0.19642
2468.43988,0.19533
2470.36835,0.19332
2472.29682,0.19147
2474.22529,0.19294
2476.15376,0.19687
2478.08223,0.19900
2480.01070,0.19939
2481.93916,0.20070
2483.86763,0.20139
2485.79610,0.20064
2487.72457,0.20036
2489.65304,0.20002
2491.58151,0.19949
2493.50998,0.20005
2495.43844,0.20034
2497.36691,0.19950
2499.29538,0.19852
2501.22385,0.19810
2503.15232,0.19950
2505.08079,0.20154
2507.00926,0.20131
2508.93773,0.19952
2510.86619,0.19868
2512.79466,0.19949
2514.72313,0.20003
2516.65160,0.19874
2518.58007,0.19674
2520.50854,0.19578
2522.43701,0.19746
2524.36547,0.20034
2526.29394,0.20009
2528.22241,0.19762
2530.15088,0.19711
2532.07935,0.19797
2534.00782,0.19841
2535.93629,0.19845
2537.86476,0.19730
2539.79322,0.19573
2541.72169,0.19533
2543.65016,0.19566
2545.57863,0.19679
2547.50710,0.19831
2549.43557,0.19854
2551.36404,0.19827
2553.29250,0.19802
2555.22097,0.19598
2557.14944,0.19260
2559.07791,0.19091
2561.00638,0.19184
2562.93485,0.19308
2564.86332,0.19373
2566.79179,0.19493
2568.72025,0.19707
2570.64872,0.19972
2572.57719,0.20093
2574.50566,0.20022
2576.43413,0.19949
2578.36260,0.19889
2580.29107,0.19750
2582.21953,0.19671
2584.14800,0.19849
2586.07647,0.20062
2588.00494,0.19984
2589.93341,0.19742
2591.86188,0.19654
2593.79035,0.19792
2595.71882,0.20042
2597.64728,0.20129
2599.57575,0.19889
2601.50422,0.19680
2603.43269,0.19680
2605.36116,0.19732
2607.28963,0.19828
2609.21810,0.19742
2611.14656,0.19451
2613.07503,0.19597
2615.00350,0.20234
2616.93197,0.20577
2618.86044,0.20366
2620.78891,0.20006
2622.71738,0.19928
2624.64585,0.20031
2626.57431,0.19951
2628.50278,0.19890
2630.43125,0.20016
2632.35972,0.20105
2634.28819,0.20210
2636.21666,0.20407
2638.14513,0.20411
2640.07359,0.20188
2642.00206,0.20090
2643.93053,0.20146
2645.85900,0.20200
2647.78747,0.20266
2649.71594,0.20242
2651.64441,0.20132
2653.57288,0.20151
2655.50134,0.20257
2657.42981,0.20320
2659.35828,0.20410
2661.28675,0.20411
2663.21522,0.20176
2665.14369,0.19972
2667.07216,0.20036
2669.00062,0.20281
2670.92909,0.20488
2672.85756,0.20430
2674.78603,0.20119
2676.71450,0.19804
2678.64297,0.19741
2680.57144,0.19993
2682.49990,0.20393
2684.42837,0.20592
2686.35684,0.20462
2688.28531,0.20433
2690.21378,0.20630
2692.14225,0.20535
2694.07072,0.20077
2695.99919,0.19876
2697.92765,0.20191
2699.85612,0.20488
2701.78459,0.20352
2703.71306,0.20138
2705.64153,0.20185
2707.57000,0.20279
2709.49847,0.20460
2711.42693,0.20877
2713.35540,0.21239
2715.28387,0.21381
2717.21234,0.21253
2719.14081,0.20917
2721.06928,0.20727
2722.99775,0.20712
2724.92622,0.20564
2726.85468,0.20322
2728.78315,0.20277
2730.71162,0.20432
2732.64009,0.20617
2734.56856,0.20700
2736.49703,0.20677
2738.42550,0.20794
2740.35396,0.21110
2742.28243,0.21229
2744.21090,0.20937
2746.13937,0.20639
2748.06784,0.20706
2749.99631,0.20876
2751.92478,0.20799
2753.85325,0.20686
2755.78171,0.20774
2757.71018,0.20746
2759.63865,0.20529
2761.56712,0.20518
2763.49559,0.20746
2765.42406,0.20905
2767.35253,0.20820
2769.28099,0.20589
2771.20946,0.20530
2773.13793,0.20832
2775.06640,0.21080
2776.99487,0.20959
2778.92334,0.20800
2780.85181,0.20737
2782.78028,0.20818
2784.70874,0.21090
2786.63721,0.21213
2788.56568,0.21120
2790.49415,0.21117
2792.42262,0.21323
2794.35109,0.21623
2796.27956,0.21794
2798.20802,0.21685
2800.13649,0.21534
2802.06496,0.21571
2803.99343,0.21549
2805.92190,0.21265
2807.85037,0.20964
2809.77884,0.21003
2811.70731,0.21335
2813.63577,0.21614
2815.56424,0.21550
2817.49271,0.21196
2819.42118,0.21051
2821.34965,0.21176
2823.27812,0.21260
2825.20659,0.21441
2827.13505,0.21631
2829.06352,0.21485
2830.99199,0.21300
2832.92046,0.21389
2834.84893,0.21347
2836.77740,0.21002
2838.70587,0.20862
2840.63433,0.21084
2842.56280,0.21378
2844.49127,0.21710
2846.41974,0.21974
2848.34821,0.21850
2850.27668,0.21472
2852.20515,0.21201
2854.13362,0.21084
2856.06208,0.21172
2857.99055,0.21463
2859.91902,0.21769
2861.84749,0.21906
2863.77596,0.21827
2865.70443,0.21687
2867.63290,0.21415
2869.56136,0.20978
2871.48983,0.20764
2873.41830,0.20908
2875.34677,0.21129
2877.27524,0.21173
2879.20371,0.21048
2881.13218,0.20826
2883.06065,0.20571
2884.98911,0.20559
2886.91758,0.20934
2888.84605,0.21370
2890.77452,0.21524
2892.70299,0.21383
2894.63146,0.20977
2896.55993,0.20668
2898.48839,0.20836
2900.41686,0.21066
2902.34533,0.21026
2904.27380,0.20901
2906.20227,0.20890
2908.13074,0.21188
2910.05921,0.21589
2911.98768,0.21619
2913.91614,0.21296
2915.84461,0.20943
2917.77308,0.20697
2919.70155,0.20642
2921.63002,0.20791
2923.55849,0.20894
2925.48696,0.20915
2927.41542,0.21223
2929.34389,0.21659
2931.27236,0.21614
2933.20083,0.21261
2935.12930,0.21208
2937.05777,0.21536
2938.98624,0.21802
2940.91471,0.21547
2942.84317,0.21139
2944.77164,0.21068
2946.70011,0.21036
2948.62858,0.21018
2950.55705,0.21262
2952.48552,0.21404
2954.41399,0.21075
2956.34245,0.20563
2958.27092,0.20543
2960.19939,0.21257
2962.12786,0.22169
2964.05633,0.22706
2965.98480,0.22746
2967.91327,0.22483
2969.84174,0.22286
2971.77020,0.22376
2973.69867,0.22630
2975.62714,0.22612
2977.55561,0.22159
2979.48408,0.21807
2981.41255,0.21858
2983.34102,0.22058
2985.26948,0.22121
2987.19795,0.21925
2989.12642,0.21881
2991.05489,0.22172
2992.98336,0.22204
2994.91183,0.21922
2996.84030,0.21703
2998.76877,0.21561
3000.69723,0.21635
3002.62570,0.21944
3004.55417,0.22124
3006.48264,0.21926
3008.41111,0.21537
3010.33958,0.21219
3012.26805,0.20625
3014.19651,0.19324
3016.12498,0.18069
3018.05345,0.18365
3019.98192,0.20182
3021.91039,0.21772
3023.83886,0.22071
3025.76733,0.21559
3027.69579,0.21454
3029.62426,0.22122
3031.55273,0.22593
3033.48120,0.22356
3035.40967,0.22069
3037.33814,0.22134
3039.26661,0.22199
3041.19508,0.22076
3043.12354,0.21964
3045.05201,0.21924
3046.98048,0.21781
3048.90895,0.21558
3050.83742,0.21555
3052.76589,0.21916
3054.69436,0.22289
3056.62282,0.22119
3058.55129,0.21763
3060.47976,0.21929
3062.40823,0.22351
3064.33670,0.22430
3066.26517,0.22107
3068.19364,0.21886
3070.12211,0.21926
3072.05057,0.21866
3073.97904,0.21649
3075.90751,0.21634
3077.83598,0.21986
3079.76445,0.22166
3081.69292,0.22019
3083.62139,0.21841
3085.54985,0.21625
3087.47832,0.21746
3089.40679,0.22374
3091.33526,0.22651
3093.26373,0.21920
3095.19220,0.21209
3097.12067,0.21468
3099.04914,0.21909
3100.97760,0.22033
3102.90607,0.22035
3104.83454,0.21864
3106.76301,0.21651
3108.69148,0.21639
3110.61995,0.21867
3112.54842,0.22137
3114.47688,0.22414
3116.40535,0.22623
3118.33382,0.22393
3120.26229,0.22040
3122.19076,0.22001
3124.11923,0.22072
3126.04770,0.22208
3127.97617,0.22212
3129.90463,0.21958
3131.83310,0.22000
3133.76157,0.22396
3135.69004,0.22632
3137.61851,0.22569
3139.54698,0.22135
3141.47545,0.21451
3143.40391,0.21269
3145.33238,0.21865
3147.26085,0.22532
3149.18932,0.22730
3151.11779,0.22545
3153.04626,0.22128
3154.97473,0.21789
3156.90320,0.21870
3158.83166,0.22162
3160.76013,0.22419
3162.68860,0.22621
3164.61707,0.22777
3166.54554,0.22980
3168.47401,0.23083
3170.40248,0.22873
3172.33094,0.22540
3174.25941,0.22497
3176.18788,0.22795
3178.11635,0.23051
3180.04482,0.23072
3181.97329,0.22994
3183.90176,0.22813
3185.83022,0.22591
3187.75869,0.22509
3189.68716,0.22281
3191.61563,0.22032
3193.54410,0.22440
3195.47257,0.23170
3197.40104,0.23536
3199.32951,0.23531
3201.25797,0.22986
3203.18644,0.21965
3205.11491,0.21256
3207.04338,0.21092
3208.97185,0.21134
3210.90032,0.21508
3212.82879,0.22298
3214.75725,0.23030
3216.68572,0.23198
3218.61419,0.22791
3220.54266,0.22250
3222.47113,0.21952
3224.39960,0.21901
3226.32807,0.21975
3228.25654,0.22240
3230.18500,0.22774
3232.11347,0.23025
3234.04194,0.22633
3235.97041,0.22359
3237.89888,0.22488
3239.82735,0.22352
3241.75582,0.21885
3243.68428,0.21550
3245.61275,0.21572
3247.54122,0.22001
3249.46969,0.22452
3251.39816,0.22505
3253.32663,0.22341
3255.25510,0.22299
3257.18357,0.22432
3259.11203,0.22263
3261.04050,0.21746
3262.96897,0.21688
3264.89744,0.22086
3266.82591,0.22208
3268.75438,0.21945
3270.68285,0.21773
3272.61131,0.22046
3274.53978,0.22453
3276.46825,0.22280
3278.39672,0.21600
3280.32519,0.21485
3282.25366,0.22196
3284.18213,0.22510
3286.11060,0.21884
3288.03906,0.21405
3289.96753,0.21470
3291.89600,0.21406
3293.82447,0.21131
3295.75294,0.20811
3297.68141,0.20558
3299.60988,0.20708
3301.53834,0.21190
3303.46681,0.21532
3305.39528,0.21597
3307.32375,0.21589
3309.25222,0.21578
3311.18069,0.21313
3313.10916,0.20998
3315.03763,0.21286
3316.96609,0.21878
3318.89456,0.22318
3320.82303,0.22554
3322.75150,0.22270
3324.67997,0.21880
3326.60844,0.22017
3328.53691,0.22412
3330.46537,0.22632
3332.39384,0.22529
3334.32231,0.22119
3336.25078,0.21712
3338.17925,0.21779
3340.10772,0.22205
3342.03619,0.22547
3343.96466,0.22723
3345.89312,0.22574
3347.82159,0.22236
3349.75006,0.22335
3351.67853,0.22665
3353.60700,0.22642
3355.53547,0.22459
3357.46394,0.22305
3359.39240,0.22290
3361.32087,0.22537
3363.24934,0.22561
3365.17781,0.22179
3367.10628,0.22230
3369.03475,0.22965
3370.96322,0.23352
3372.89168,0.22827
3374.82015,0.22007
3376.74862,0.21700
3378.67709,0.21931
3380.60556,0.21967
3382.53403,0.21804
3384.46250,0.22098
3386.39097,0.22474
3388.31943,0.22450
3390.24790,0.22521
3392.17637,0.22752
3394.10484,0.22739
3396.03331,0.22560
3397.96178,0.22235
3399.89025,0.21763
3401.81871,0.21380
3403.74718,0.21157
3405.67565,0.21308
3407.60412,0.21821
3409.53259,0.22069
3411.46106,0.21979
3413.38953,0.22011
3415.31800,0.22172
3417.24646,0.22308
3419.17493,0.22386
3421.10340,0.22233
3423.03187,0.21646
3424.96034,0.21242
3426.88881,0.21794
3428.81728,0.22598
3430.74574,0.22602
3432.67421,0.22027
3434.60268,0.21592
3436.53115,0.21487
3438.45962,0.21490
3440.38809,0.21538
3442.31656,0.21637
3444.24503,0.21829
3446.17349,0.22056
3448.10196,0.21625
3450.03043,0.20740
3451.95890,0.20576
3453.88737,0.20848
3455.81584,0.20579
3457.74431,0.19952
3459.67277,0.19642
3461.60124,0.19836
3463.52971,0.20037
3465.45818,0.19851
3467.38665,0.19503
3469.31512,0.19150
3471.24359,0.18972
3473.17206,0.19432
3475.10052,0.20289
3477.02899,0.20602
3478.95746,0.20342
3480.88593,0.20081
3482.81440,0.19914
3484.74287,0.20026
3486.67134,0.20407
3488.59980,0.20361
3490.52827,0.19718
3492.45674,0.19221
3494.38521,0.19316
3496.31368,0.19536
3498.24215,0.19431
3500.17062,0.19522
3502.09909,0.20152
3504.02755,0.20357
3505.95602,0.19666
3507.88449,0.19217
3509.81296,0.19516
3511.74143,0.19746
3513.66990,0.19415
3515.59837,0.18783
3517.52683,0.18286
3519.45530,0.18171
3521.38377,0.18330
3523.31224,0.18442
3525.24071,0.18513
3527.16918,0.18950
3529.09765,0.19224
3531.02611,0.18690
3532.95458,0.18097
3534.88305,0.18188
3536.81152,0.18596
3538.73999,0.18526
3540.66846,0.18313
3542.59693,0.18855
3544.52540,0.19929
3546.45386,0.20128
3548.38233,0.18961
3550.31080,0.17803
3552.23927,0.17503
3554.16774,0.17616
3556.09621,0.17696
3558.02468,0.17893
3559.95314,0.18177
3561.88161,0.18477
3563.81008,0.19316
3565.73855,0.20443
3567.66702,0.19835
3569.59549,0.17943
3571.52396,0.16893
3573.45243,0.16491
3575.38089,0.16463
3577.30936,0.16922
3579.23783,0.17215
3581.16630,0.16918
3583.09477,0.16970
3585.02324,0.18146
3586.95171,0.19267
3588.88017,0.18345
3590.80864,0.16920
3592.73711,0.16628
3594.66558,0.16950
3596.59405,0.17091
3598.52252,0.17229
3600.45099,0.17328
3602.37946,0.17146
3604.30792,0.17100
3606.23639,0.17494
3608.16486,0.17846
3610.09333,0.17706
3612.02180,0.17733
3613.95027,0.17672
3615.87874,0.17232
3617.80720,0.17442
3619.73567,0.17809
3621.66414,0.17116
3623.59261,0.16260
3625.52108,0.16122
3627.44955,0.17034
3629.37802,0.17711
3631.30649,0.16726
3633.23495,0.15729
3635.16342,0.15279
3637.09189,0.15183
3639.02036,0.15114
3640.94883,0.14923
3642.87730,0.15166
3644.80577,0.16557
3646.73423,0.19051
3648.66270,0.20838
3650.59117,0.19053
3652.51964,0.16637
3654.44811,0.15740
3656.37658,0.15585
3658.30505,0.15067
3660.23352,0.14452
3662.16198,0.14217
3664.09045,0.14194
3666.01892,0.14453
3667.94739,0.15618
3669.87586,0.17430
3671.80433,0.18142
3673.73280,0.18891
3675.66126,0.19645
3677.58973,0.17663
3679.51820,0.15165
3681.44667,0.13921
3683.37514,0.13694
3685.30361,0.14116
3687.23208,0.15628
3689.16055,0.17895
3691.08901,0.18021
3693.01748,0.16412
3694.94595,0.15211
3696.87442,0.14746
3698.80289,0.14761
3700.73136,0.15015
3702.65983,0.15133
3704.58829,0.14903
3706.51676,0.14842
3708.44523,0.15603
3710.37370,0.16933
3712.30217,0.16761
3714.23064,0.15302
3716.15911,0.14731
3718.08757,0.15441
3720.01604,0.16601
3721.94451,0.16777
3723.87298,0.15662
3725.80145,0.14461
3727.72992,0.14226
3729.65839,0.14985
3731.58686,0.16466
3733.51532,0.18411
3735.44379,0.19585
3737.37226,0.18468
3739.30073,0.16766
3741.22920,0.16267
3743.15767,0.16961
3745.08614,0.17636
3747.01460,0.17684
3748.94307,0.18338
3750.87154,0.18939
3752.80001,0.17593
3754.72848,0.16105
3756.65695,0.15614
3758.58542,0.15614
3760.51389,0.15229
3762.44235,0.14735
3764.37082,0.14640
3766.29929,0.14622
3768.22776,0.14636
3770.15623,0.14548
3772.08470,0.13830
3774.01317,0.13162
3775.94163,0.13244
3777.87010,0.13838
3779.79857,0.14102
3781.72704,0.13862
3783.65551,0.13707
3785.58398,0.13682
3787.51245,0.13606
3789.44092,0.13405
3791.36938,0.13187
3793.29785,0.13414
3795.22632,0.14287
3797.15479,0.15133
3799.08326,0.15807
3801.01173,0.16684
3802.94020,0.16104
3804.86866,0.14722
3806.79713,0.14081
3808.72560,0.13379
3810.65407,0.12514
3812.58254,0.12473
3814.51101,0.13433
3816.43948,0.14274
3818.36795,0.14505
3820.29641,0.15001
3822.22488,0.14819
3824.15335,0.14116
3826.08182,0.13946
3828.01029,0.14095
3829.93876,0.14329
3831.86723,0.14565
3833.79569,0.14753
3835.72416,0.15213
3837.65263,0.16289
3839.58110,0.16619
3841.50957,0.15342
3843.43804,0.13925
3845.36651,0.13245
3847.29498,0.13400
3849.22344,0.14374
3851.15191,0.16191
3853.08038,0.17597
3855.00885,0.15874
3856.93732,0.14079
3858.86579,0.13717
3860.79426,0.14354
3862.72272,0.14949
3864.65119,0.14519
3866.57966,0.14080
3868.50813,0.14552
3870.43660,0.15141
3872.36507,0.14826
3874.29354,0.13939
3876.22200,0.13456
3878.15047,0.14160
3880.07894,0.15256
3882.00741,0.15364
3883.93588,0.15291
3885.86435,0.14817
3887.79282,0.13337
3889.72129,0.12620
3891.64975,0.13150
3893.57822,0.13477
3895.50669,0.13340
3897.43516,0.13537
3899.36363,0.14301
3901.29210,0.15217
3903.22057,0.15563
3905.14903,0.14764
3907.07750,0.13495
3909.00597,0.12825
3910.93444,0.12662
3912.86291,0.12705
3914.79138,0.12955
3916.71985,0.13005
3918.64832,0.12373
3920.57678,0.11733
3922.50525,0.11969
3924.43372,0.12583
3926.36219,0.12633
3928.29066,0.12402
3930.21913,0.12227
3932.14760,0.11925
3934.07606,0.11801
3936.00453,0.12105
3937.93300,0.12281
3939.86147,0.12208
3941.78994,0.12098
3943.71841,0.11465
3945.64688,0.10769
3947.57535,0.10825
3949.50381,0.11132
3951.43228,0.11278
3953.36075,0.11514
3955.28922,0.11780
3957.21769,0.11672
3959.14616,0.11400
3961.07463,0.11531
3963.00309,0.11562
3964.93156,0.11120
3966.86003,0.10862
3968.78850,0.10909
3970.71697,0.10927
3972.64544,0.11078
3974.57391,0.11374
3976.50238,0.11309
3978.43084,0.10875
3980.35931,0.10750
3982.28778,0.10991
3984.21625,0.11011
3986.14472,0.10867
3988.07319,0.10795
3990.00166,0.10633
3991.93012,0.10559
3993.85859,0.10777
3995.78706,0.10803
3997.71553,0.10340
3999.64400,0.09850
4001.57247,0.09647
4003.50094,0.09681
4005.42941,0.09950
4007.35787,0.10373
4009.28634,0.10663
4011.21481,0.10605
4013.14328,0.10314
4015.07175,0.10139
4017.00022,0.10465
4018.92869,0.10934
4020.85715,0.10721
4022.78562,0.10211
4024.71409,0.10152
4026.64256,0.10225
4028.57103,0.09898
4030.49950,0.09133
4032.42797,0.08609
4034.35644,0.09172
4036.28490,0.10358
4038.21337,0.10893
4040.14184,0.10713
4042.07031,0.10681
4043.99878,0.10803
4045.92725,0.10790
4047.85572,0.10902
4049.78418,0.10955
4051.71265,0.10669
4053.64112,0.10447
4055.56959,0.10441
4057.49806,0.10228
4059.42653,0.09676
4061.35500,0.09206
4063.28346,0.09223
4065.21193,0.09310
4067.14040,0.08946
4069.06887,0.08807
4070.99734,0.09403
4072.92581,0.10200
4074.85428,0.10588
4076.78275,0.10390
4078.71121,0.10104
4080.63968,0.10097
4082.56815,0.10138
4084.49662,0.10103
4086.42509,0.10180
4088.35356,0.10372
4090.28203,0.10235
4092.21049,0.09798
4094.13896,0.09508
4096.06743,0.09256
4097.99590,0.08817
4099.92437,0.08421
4101.85284,0.08400
4103.78131,0.08727
4105.70978,0.09076
4107.63824,0.09180
4109.56671,0.09137
4111.49518,0.09026
4113.42365,0.08777
4115.35212,0.08765
4117.28059,0.09140
4119.20906,0.09357
4121.13752,0.09131
4123.06599,0.08688
4124.99446,0.08693
4126.92293,0.09449
4128.85140,0.09892
4130.77987,0.09459
4132.70834,0.08892
4134.63681,0.08316
4136.56527,0.07771
4138.49374,0.07615
4140.42221,0.07793
4142.35068,0.08217
4144.27915,0.08532
4146.20762,0.08568
4148.13609,0.08611
4150.06455,0.08698
4151.99302,0.08771
4153.92149,0.08851
4155.84996,0.08898
4157.77843,0.08894
4159.70690,0.08927
4161.63537,0.08939
4163.56384,0.08774
4165.49230,0.08302
4167.42077,0.07839
4169.34924,0.07931
4171.27771,0.08264
4173.20618,0.08360
4175.13465,0.08355
4177.06312,0.08272
4178.99158,0.07901
4180.92005,0.07381
4182.84852,0.07206
4184.77699,0.07707
4186.70546,0.08434
4188.63393,0.08405
4190.56240,0.07484
4192.49087,0.06572
4194.41933,0.06418
4196.34780,0.07006
4198.27627,0.08008
4200.20474,0.08921
4202.13321,0.09290
4204.06168,0.09188
4205.99015,0.08667
4207.91861,0.07928
4209.84708,0.07549
4211.77555,0.07404
4213.70402,0.07010
4215.63249,0.06691
4217.56096,0.06812
4219.48943,0.07127
4221.41789,0.07167
4223.34636,0.06702
4225.27483,0.06090
4227.20330,0.05882
4229.13177,0.06315
4231.06024,0.06764
4232.98871,0.06604
4234.91718,0.06446
4236.84564,0.06731
4238.77411,0.06978
4240.70258,0.07016
4242.63105,0.07238
4244.55952,0.07457
4246.48799,0.07218
4248.41646,0.06761
4250.34492,0.06363
4252.27339,0.06222
4254.20186,0.06528
4256.13033,0.06896
4258.05880,0.06840
4259.98727,0.06609
4261.91574,0.06875
4263.84421,0.07251
4265.77267,0.06565
4267.70114,0.05396
4269.62961,0.05187
4271.55808,0.05595
4273.48655,0.05718
4275.41502,0.05508
4277.34349,0.05606
4279.27195,0.06034
4281.20042,0.05835
4283.12889,0.05551
4285.05736,0.06245
4286.98583,0.06868
4288.91430,0.06403
4290.84277,0.05806
4292.77124,0.06050
4294.69970,0.06442
4296.62817,0.06023
4298.55664,0.05159
4300.48511,0.04853
4302.41358,0.05312
4304.34205,0.05794
4306.27052,0.05725
4308.19898,0.05518
4310.12745,0.05571
4312.05592,0.05225
4313.98439,0.04460
4315.91286,0.04307
4317.84133,0.04927
4319.76980,0.05606
4321.69827,0.05737
4323.62673,0.05442
4325.55520,0.05007
4327.48367,0.04472
4329.41214,0.04093
4331.34061,0.03836
4333.26908,0.03732
4335.19755,0.03992
4337.12601,0.04309
4339.05448,0.04558
4340.98295,0.04792
4342.91142,0.04782
4344.83989,0.04465
4346.76836,0.04039
4348.69683,0.03940
4350.62530,0.04258
4352.55376,0.04509
4354.48223,0.04647
4356.41070,0.04884
4358.33917,0.05016
4360.26764,0.04696
4362.19611,0.04111
4364.12458,0.03955
4366.05304,0.04396
4367.98151,0.04786
4369.90998,0.04448
4371.83845,0.03876
4373.76692,0.03741
4375.69539,0.03655
4377.62386,0.03786
4379.55232,0.04331
4381.48079,0.04249
4383.40926,0.03248
4385.33773,0.02395
4387.26620,0.02177
4389.19467,0.02320
4391.12314,0.02614
4393.05161,0.02694
4394.98007,0.02615
4396.90854,0.02959
4398.83701,0.03460
4400.76548,0.03289
4402.69395,0.02322
4404.62242,0.01396
4406.55089,0.01274
4408.47935,0.01486
4410.40782,0.01754
4412.33629,0.02526
4414.26476,0.03305
4416.19323,0.03493
4418.12170,0.03054
4420.05017,0.02168
4421.97864,0.01760
4423.90710,0.02176
4425.83557,0.02538
4427.76404,0.02554
4429.69251,0.02687
4431.62098,0.02794
4433.54945,0.02655
4435.47792,0.02685
4437.40638,0.02979
4439.33485,0.03325
4441.26332,0.03600
4443.19179,0.03413
4445.12026,0.02706
4447.04873,0.01835
4448.97720,0.00973
4450.90567,0.00521
4452.83413,0.00687
4454.76260,0.00917
4456.69107,0.01101
4458.61954,0.01414
4460.54801,0.01404
4462.47648,0.01488
4464.40495,0.02388
4466.33341,0.03109
4468.26188,0.02980
4470.19035,0.02867
4472.11882,0.03131
4474.04729,0.03155
4475.97576,0.02771
4477.90423,0.02506
4479.83270,0.02682
4481.76116,0.02786
4483.68963,0.02340
4485.61810,0.01917
4487.54657,0.01960
4489.47504,0.02014
4491.40351,0.01683
4493.33198,0.01332
4495.26044,0.00821
4497.18891,-0.00391
4499.11738,-0.01199
4501.04585,-0.00690
4502.97432,0.00168
4504.90279,0.00353
4506.83126,0.00057
4508.75973,0.00135
4510.68819,0.00610
4512.61666,0.00842
4514.54513,0.00646
4516.47360,0.00416
4518.40207,0.00485
4520.33054,0.00852
4522.25901,0.01173
4524.18747,0.01161
4526.11594,0.01078
4528.04441,0.00994
4529.97288,0.00906
4531.90135,0.01187
4533.82982,0.01680
4535.75829,0.01577
4537.68676,0.00972
4539.61522,0.00879
4541.54369,0.01314
4543.47216,0.01633
4545.40063,0.01540
4547.32910,0.01067
4549.25757,0.00692
4551.18604,0.00607
4553.11450,0.00305
4555.04297,-0.00255
4556.97144,-0.00274
4558.89991,0.00300
4560.82838,0.00600
4562.75685,0.00343
4564.68532,0.00025
4566.61378,0.00019
4568.54225,-0.00107
4570.47072,-0.00537
4572.39919,-0.00359
4574.32766,0.00376
4576.25613,0.00466
4578.18460,0.00207
4580.11307,0.00407
4582.04153,0.00498
4583.97000,0.00351
4585.89847,0.00781
4587.82694,0.01628
4589.75541,0.01879
4591.68388,0.01427
4593.61235,0.01071
4595.54081,0.00964
4597.46928,0.00541
4599.39775,0.00099
4601.32622,0.00632
4603.25469,0.01394
4605.18316,0.01122
4607.11163,0.00560
4609.04010,0.00619
4610.96856,0.00990
4612.89703,0.01163
4614.82550,0.01018
4616.75397,0.00712
4618.68244,0.00548
4620.61091,0.00784
4622.53938,0.01109
4624.46784,0.01125
4626.39631,0.00835
4628.32478,0.00318
4630.25325,0.00129
4632.18172,0.01007
4634.11019,0.02200
4636.03866,0.02110
4637.96713,0.00963
4639.89559,0.00202
4641.82406,0.00240
4643.75253,0.00496
4645.68100,0.00627
4647.60947,0.00738
4649.53794,0.00601
4651.46641,0.00099
4653.39487,-0.00389
4655.32334,-0.00662
4657.25181,-0.00326
4659.18028,0.00552
4661.10875,0.01173
4663.03722,0.01170
4664.96569,0.00398
4666.89416,-0.00562
4668.82262,-0.00632
4670.75109,-0.00026
4672.67956,0.00364
4674.60803,0.00040
4676.53650,-0.00623
4678.46497,-0.00487
4680.39344,0.00103
4682.32190,-0.00077
4684.25037,-0.00289
4686.17884,0.00345
4688.10731,0.00846
4690.03578,0.00697
4691.96425,0.00475
4693.89272,0.00315
4695.82119,0.00435
4697.74965,0.01067
4699.67812,0.01392
4701.60659,0.01162
4703.53506,0.01215
4705.46353,0.01454
4707.39200,0.01074
4709.32047,0.00057
4711.24893,-0.00758
4713.17740,-0.00709
4715.10587,0.00023
4717.03434,0.00798
4718.96281,0.01174
4720.89128,0.01121
4722.81975,0.00816
4724.74821,0.00553
4726.67668,0.00084
4728.60515,-0.00861
4730.53362,-0.01529
4732.46209,-0.01276
4734.39056,-0.00631
4736.31903,-0.00106
4738.24750,0.00422
4740.17596,0.00790
4742.10443,0.00731
4744.03290,0.00453
4745.96137,0.00414
4747.88984,0.00290
4749.81831,0.00017
4751.74678,0.00653
4753.67524,0.01801
4755.60371,0.02512
4757.53218,0.02381
4759.46065,0.01157
4761.38912,0.00186
4763.31759,0.00136
4765.24606,0.00024
4767.17453,-0.00086
4769.10299,0.00287
4771.03146,0.00585
4772.95993,0.00204
4774.88840,-0.00137
4776.81687,0.00515
4778.74534,0.01680
4780.67381,0.02126
4782.60227,0.01443
4784.53074,0.00358
4786.45921,-0.00475
4788.38768,-0.00655
4790.31615,-0.00284
4792.24462,-0.00098
4794.17309,0.00120
4796.10156,0.00478
4798.03002,0.00296
4799.95849,0.00114
4801.88696,0.00311
4803.81543,0.00168
4805.74390,0.00275
4807.67237,0.01304
4809.60084,0.01778
4811.52930,0.01204
4813.45777,0.00872
4815.38624,0.00825
4817.31471,0.00396
4819.24318,-0.00435
4821.17165,-0.01201
4823.10012,-0.01136
4825.02859,-0.00793
4826.95705,-0.01119
4828.88552,-0.01184
4830.81399,-0.00618
4832.74246,-0.00111
4834.67093,0.00438
4836.59940,0.01048
4838.52787,0.01150
4840.45633,0.00706
4842.38480,0.00011
4844.31327,-0.00814
4846.24174,-0.00982
4848.17021,0.00064
4850.09868,0.01310
4852.02715,0.01732
4853.95562,0.02279
4855.88408,0.03413
4857.81255,0.03164
4859.74102,0.01250
4861.66949,-0.00226
4863.59796,-0.00636
4865.52643,-0.00671
4867.45490,-0.00334
4869.38336,0.00230
4871.31183,0.00608
4873.24030,0.01182
4875.16877,0.01630
4877.09724,0.01607
4879.02571,0.01428
4880.95418,0.00713
4882.88265,0.00291
4884.81111,0.01000
4886.73958,0.01420
4888.66805,0.01098
4890.59652,0.01135
4892.52499,0.01300
4894.45346,0.00501
4896.38193,-0.00298
4898.31039,0.00461
4900.23886,0.01351
4902.16733,0.01207
4904.09580,0.00935
4906.02427,0.01031
4907.95274,0.01378
4909.88121,0.01441
4911.80967,0.01246
4913.73814,0.01132
4915.66661,0.01426
4917.59508,0.02268
4919.52355,0.01904
4921.45202,0.00120
4923.38049,-0.00630
4925.30896,-0.00269
4927.23742,-0.00366
4929.16589,-0.00438
4931.09436,0.00513
4933.02283,0.01748
4934.95130,0.01910
4936.87977,0.01082
4938.80824,0.00439
4940.73670,0.00523
4942.66517,0.01074
4944.59364,0.01217
4946.52211,0.00816
4948.45058,0.01117
4950.37905,0.02097
4952.30752,0.02211
4954.23599,0.01067
4956.16445,0.00221
4958.09292,0.00783
4960.02139,0.01756
4961.94986,0.01993
4963.87833,0.02158
4965.80680,0.02581
4967.73527,0.02110
4969.66373,0.00425
4971.59220,-0.01255
4973.52067,-0.01588
4975.44914,-0.00564
4977.37761,0.01203
4979.30608,0.02791
4981.23455,0.02789
4983.16302,0.01575
4985.09148,0.00560
4987.01995,0.00014
4988.94842,-0.00025
4990.87689,0.00520
4992.80536,0.01157
4994.73383,0.01104
4996.66230,0.00680
4998.59076,0.01042
5000.51923,0.01453
5002.44770,0.00916
5004.37617,0.00778
5006.30464,0.01580
5008.23311,0.01760
5010.16158,0.01014
5012.09005,0.00627
5014.01851,0.00701
5015.94698,0.00827
5017.87545,0.01287
5019.80392,0.01862
5021.73239,0.02199
5023.66086,0.02118
5025.58933,0.01659
5027.51779,0.00789
5029.44626,0.00113
5031.37473,0.00956
5033.30320,0.02234
5035.23167,0.01799
5037.16014,-0.00105
5039.08861,-0.01221
5041.01708,-0.00371
5042.94554,0.00433
5044.87401,0.00432
5046.80248,0.01363
5048.73095,0.02426
5050.65942,0.01648
5052.58789,0.00633
5054.51636,0.01045
5056.44482,0.01971
5058.37329,0.02945
5060.30176,0.03891
5062.23023,0.04216
5064.15870,0.03451
5066.08717,0.02164
5068.01564,0.01634
5069.94410,0.01560
5071.87257,0.01388
5073.80104,0.01728
5075.72951,0.01706
5077.65798,0.01121
5079.58645,0.01740
5081.51492,0.02690
5083.44339,0.02291
5085.37185,0.00681
5087.30032,-0.00855
5089.22879,-0.00717
5091.15726,0.00232
5093.08573,0.00743
5095.01420,0.01885
5096.94267,0.03411
5098.87113,0.02841
5100.79960,0.00973
5102.72807,0.01340
5104.65654,0.03885
5106.58501,0.05467
5108.51348,0.04841
5110.44195,0.03746
5112.37042,0.03127
5114.29888,0.02816
5116.22735,0.02765
5118.15582,0.02450
5120.08429,0.02098
5122.01276,0.01736
5123.94123,0.01512
5125.86970,0.02487
5127.79816,0.03899
5129.72663,0.03633
5131.65510,0.01331
5133.58357,-0.00747
5135.51204,-0.00727
5137.44051,0.00595
5139.36898,0.01609
5141.29745,0.01761
5143.22591,0.01498
5145.15438,0.00873
5147.08285,0.00687
5149.01132,0.01658
5150.93979,0.02469
5152.86826,0.03121
5154.79673,0.04016
5156.72519,0.03712
5158.65366,0.02639
5160.58213,0.02663
5162.51060,0.03029
5164.43907,0.02648
5166.36754,0.02653
5168.29601,0.03188
5170.22448,0.03355
5172.15294,0.03525
5174.08141,0.04045
5176.00988,0.04405
5177.93835,0.03967
5179.86682,0.02836
5181.79529,0.02382
5183.72376,0.03398
5185.65222,0.04588
5187.58069,0.04196
5189.50916,0.02882
5191.43763,0.02581
5193.36610,0.02562
5195.29457,0.01672
5197.22304,0.01898
5199.15151,0.04357
5201.07997,0.07074
5203.00844,0.08285
5204.93691,0.07580
5206.86538,0.05529
5208.79385,0.04061
5210.72232,0.03708
5212.65079,0.03770
5214.57925,0.04433
5216.50772,0.04688
5218.43619,0.03688
5220.36466,0.02701
5222.29313,0.01821
5224.22160,0.00667
5226.15007,0.00923
5228.07854,0.02321
5230.00700,0.02710
5231.93547,0.02990
5233.86394,0.03536
5235.79241,0.02524
5237.72088,0.00512
5239.64935,0.00194
5241.57782,0.02393
5243.50628,0.04874
5245.43475,0.04918
5247.36322,0.03046
5249.29169,0.01870
5251.22016,0.02803
5253.14863,0.05019
5255.07710,0.05871
5257.00556,0.04425
5258.93403,0.03330
5260.86250,0.04383
5262.79097,0.06508
5264.71944,0.07641
5266.64791,0.07603
5268.57638,0.06967
5270.50485,0.06079
5272.43331,0.06025
5274.36178,0.06846
5276.29025,0.06921
5278.21872,0.05404
5280.14719,0.03611
5282.07566,0.03015
5284.00413,0.03627
5285.93259,0.04652
5287.86106,0.05009
5289.78953,0.04088
5291.71800,0.03707
5293.64647,0.04798
5295.57494,0.05232
5297.50341,0.05340
5299.43188,0.06351
5301.36034,0.07316
5303.28881,0.07324
5305.21728,0.07174
5307.14575,0.07754
5309.07422,0.07261
5311.00269,0.05462
5312.93116,0.05090
5314.85962,0.06669
5316.78809,0.08926
5318.71656,0.09885
5320.64503,0.08437
5322.57350,0.06186
5324.50197,0.04376
5326.43044,0.03205
5328.35891,0.02595
5330.28737,0.01765
5332.21584,0.01750
5334.14431,0.02776
5336.07278,0.03012
5338.00125,0.03302
5339.92972,0.05310
5341.85819,0.07589
5343.78665,0.08133
5345.71512,0.07342
5347.64359,0.06609
5349.57206,0.05768
5351.50053,0.06381
5353.42900,0.09185
5355.35747,0.10246
5357.28594,0.08762
5359.21440,0.08002
5361.14287,0.08128
5363.07134,0.07195
5364.99981,0.05698
5366.92828,0.05317
5368.85675,0.05948
5370.78522,0.06441
5372.71368,0.05722
5374.64215,0.04621
5376.57062,0.05559
5378.49909,0.07687
5380.42756,0.08892
5382.35603,0.09802
5384.28450,0.10594
5386.21297,0.09577
5388.14143,0.07292
5390.06990,0.05999
5391.99837,0.05417
5393.92684,0.04949
5395.85531,0.04905
5397.78378,0.05116
5399.71225,0.05148
5401.64071,0.04064
5403.56918,0.02482
5405.49765,0.03529
5407.42612,0.06822
5409.35459,0.07880
5411.28306,0.06563
5413.21153,0.06446
5415.13999,0.07005
5417.06846,0.06480
5418.99693,0.05668
5420.92540,0.05341
5422.85387,0.04790
5424.78234,0.04542
5426.71081,0.06097
5428.63928,0.07779
5430.56774,0.07719
5432.49621,0.06940
5434.42468,0.06690
5436.35315,0.07318
5438.28162,0.07404
5440.21009,0.06936
5442.13856,0.07391
5444.06702,0.08075
5445.99549,0.08016
5447.92396,0.08143
5449.85243,0.08249
5451.78090,0.07600
5453.70937,0.07259
5455.63784,0.07820
5457.56631,0.08349
5459.49477,0.07840
5461.42324,0.07010
5463.35171,0.07023
5465.28018,0.06659
5467.20865,0.04892
5469.13712,0.03307
5471.06559,0.03298
5472.99405,0.04722
5474.92252,0.06799
5476.85099,0.08039
5478.77946,0.07843
5480.70793,0.06973
5482.63640,0.07725
5484.56487,0.11008
5486.49334,0.12949
5488.42180,0.10985
5490.35027,0.08854
5492.27874,0.08758
5494.20721,0.08416
5496.13568,0.08036
5498.06415,0.07429
5499.99262,0.05967
5501.92108,0.05988
5503.84955,0.07750
5505.77802,0.08380
5507.70649,0.06723
5509.63496,0.05619
5511.56343,0.06647
5513.49190,0.08316
5515.42037,0.09441
5517.34883,0.09074
5519.27730,0.07877
5521.20577,0.07532
5523.13424,0.07361
5525.06271,0.07294
5526.99118,0.09003
5528.91965,0.10553
5530.84811,0.09146
5532.77658,0.07727
5534.70505,0.08362
5536.63352,0.08388
5538.56199,0.07769
5540.49046,0.07582
5542.41893,0.06236
5544.34740,0.04189
5546.27586,0.03644
5548.20433,0.05439
5550.13280,0.07548
5552.06127,0.08004
5553.98974,0.07520
5555.91821,0.07141
5557.84668,0.07529
5559.77514,0.07214
5561.70361,0.05139
5563.63208,0.03719
5565.56055,0.04218
5567.48902,0.04474
5569.41749,0.02949
5571.34596,0.01834
5573.27443,0.02222
5575.20289,0.02342
5577.13136,0.01735
5579.05983,0.02139
5580.98830,0.04636
5582.91677,0.06639
5584.84524,0.06891
5586.77371,0.06614
5588.70217,0.05387
5590.63064,0.03987
5592.55911,0.03455
5594.48758,0.03336
5596.41605,0.04277
5598.34452,0.06755
5600.27299,0.09619
5602.20145,0.10517
5604.12992,0.07912
5606.05839,0.04685
5607.98686,0.04377
5609.91533,0.06012
5611.84380,0.07831
5613.77227,0.08502
5615.70074,0.07102
5617.62920,0.06160
5619.55767,0.06860
5621.48614,0.07640
5623.41461,0.09177
5625.34308,0.11513
5627.27155,0.11738
5629.20002,0.08667
5631.12848,0.05606
5633.05695,0.05137
5634.98542,0.05909
5636.91389,0.06676
5638.84236,0.07483
5640.77083,0.07531
5642.69930,0.06540
5644.62777,0.05413
5646.55623,0.05194
5648.48470,0.07045
5650.41317,0.10726
5652.34164,0.12660
5654.27011,0.11533
5656.19858,0.10807
5658.12705,0.11937
5660.05551,0.12749
5661.98398,0.10792
5663.91245,0.06950
5665.84092,0.04464
5667.76939,0.04884
5669.69786,0.07688
5671.62633,0.09039
5673.55480,0.05522
5675.48326,0.00431
5677.41173,-0.01323
5679.34020,-0.00546
5681.26867,0.00924
5683.19714,0.03551
5685.12561,0.05696
5687.05408,0.04982
5688.98254,0.02961
5690.91101,0.03181
5692.83948,0.04238
5694.76795,0.03377
5696.69642,0.02447
5698.62489,0.03183
5700.55336,0.04130
5702.48183,0.04487
5704.41029,0.05562
5706.33876,0.05978
5708.26723,0.04732
5710.19570,0.04642
5712.12417,0.05471
5714.05264,0.05727
5715.98111,0.06076
5717.90957,0.06932
5719.83804,0.07899
5721.76651,0.08020
5723.69498,0.07301
5725.62345,0.07394
5727.55192,0.10134
5729.48039,0.12280
5731.40886,0.10056
5733.33732,0.05472
5735.26579,0.01480
5737.19426,0.01616
5739.12273,0.05824
5741.05120,0.09093
5742.97967,0.10643
5744.90814,0.11884
5746.83660,0.11212
5748.76507,0.08060
5750.69354,0.04149
5752.62201,0.01889
5754.55048,0.04003
5756.47895,0.09451
5758.40742,0.12529
5760.33588,0.11811
5762.26435,0.11490
5764.19282,0.11769
5766.12129,0.10062
5768.04976,0.07681
5769.97823,0.06763
5771.90670,0.07330
5773.83517,0.07822
5775.76363,0.09437
5777.69210,0.13674
5779.62057,0.16085
5781.54904,0.13292
5783.47751,0.08623
5785.40598,0.06914
5787.33445,0.08938
5789.26291,0.10346
5791.19138,0.09263
5793.11985,0.06918
5795.04832,0.05266
5796.97679,0.07738
5798.90526,0.10871
5800.83373,0.09499
5802.76220,0.06611
5804.69066,0.05323
5806.61913,0.04476
5808.54760,0.03592
5810.47607,0.03905
5812.40454,0.05288
5814.33301,0.07042
5816.26148,0.09666
5818.18994,0.10524
5820.11841,0.06995
5822.04688,0.03576
5823.97535,0.04187
5825.90382,0.06667
5827.83229,0.08320
5829.76076,0.07860
5831.68923,0.06437
5833.61769,0.05847
5835.54616,0.06977
5837.47463,0.09852
5839.40310,0.11435
5841.33157,0.09848
5843.26004,0.07027
5845.18851,0.05528
5847.11697,0.07546
5849.04544,0.10725
5850.97391,0.10840
5852.90238,0.10242
5854.83085,0.10634
5856.75932,0.10078
5858.68779,0.09733
5860.61626,0.09882
5862.54472,0.07406
5864.47319,0.03983
5866.40166,0.04693
5868.33013,0.10095
5870.25860,0.13574
5872.18707,0.09481
5874.11554,0.02552
5876.04400,-0.00487
5877.97247,-0.00922
5879.90094,-0.00593
5881.82941,0.02851
5883.75788,0.07758
5885.68635,0.10391
5887.61482,0.11299
5889.54329,0.10409
5891.47175,0.06895
5893.40022,0.03993
5895.32869,0.04612
5897.25716,0.05992
5899.18563,0.05486
5901.11410,0.06612
5903.04257,0.09784
5904.97103,0.09926
5906.89950,0.06912
5908.82797,0.04935
5910.75644,0.06544
5912.68491,0.09584
5914.61338,0.09842
5916.54185,0.07768
5918.47032,0.06357
5920.39878,0.05568
5922.32725,0.04858
5924.25572,0.04959
5926.18419,0.05860
5928.11266,0.06968
5930.04113,0.08399
5931.96960,0.08604
5933.89806,0.06290
5935.82653,0.06096
5937.75500,0.10535
5939.68347,0.13839
5941.61194,0.12613
5943.54041,0.10635
5945.46888,0.09436
5947.39734,0.06461
5949.32581,0.03354
5951.25428,0.04871
5953.18275,0.09381
5955.11122,0.09336
5957.03969,0.04472
5958.96816,0.02665
5960.89663,0.05710
5962.82509,0.08001
5964.75356,0.08212
5966.68203,0.08467
5968.61050,0.08587
5970.53897,0.07184
5972.46744,0.06793
5974.39591,0.09797
5976.32437,0.11127
5978.25284,0.08665
5980.18131,0.07454
5982.10978,0.08771
5984.03825,0.10316
5985.96672,0.11213
5987.89519,0.10308
5989.82366,0.07973
5991.75212,0.07336
5993.68059,0.08742
5995.60906,0.09829
5997.53753,0.10061
5999.46600,0.11655
6001.39447,0.14882
6003.32294,0.15220
6005.25140,0.11576
6007.17987,0.08493
6009.10834,0.08074
6011.03681,0.09657
6012.96528,0.11333
6014.89375,0.11778
6016.82222,0.11750
6018.75069,0.11945
6020.67915,0.10176
6022.60762,0.06762
6024.53609,0.05021
6026.46456,0.03478
6028.39303,0.01192
6030.32150,0.01401
6032.24997,0.04240
6034.17843,0.06912
6036.10690,0.07873
6038.03537,0.06557
6039.96384,0.04534
6041.89231,0.06871
6043.82078,0.11265
6045.74925,0.08392
6047.67772,0.01394
6049.60618,0.01682
6051.53465,0.08944
6053.46312,0.12309
6055.39159,0.07902
6057.32006,0.05042
6059.24853,0.08593
6061.17700,0.11904
6063.10546,0.10932
6065.03393,0.07968
6066.96240,0.07539
6068.89087,0.08659
6070.81934,0.06544
6072.74781,0.04347
6074.67628,0.07770
6076.60475,0.12693
6078.53321,0.12783
6080.46168,0.08678
6082.39015,0.05569
6084.31862,0.09136
6086.24709,0.16159
6088.17556,0.15556
6090.10403,0.09849
6092.03249,0.07276
6093.96096,0.03350
6095.88943,-0.01629
6097.81790,0.01636
6099.74637,0.08584
6101.67484,0.10876
6103.60331,0.12497
6105.53177,0.15614
6107.46024,0.14797
6109.38871,0.07963
6111.31718,0.01492
6113.24565,0.01766
6115.17412,0.06185
6117.10259,0.07644
6119.03106,0.05659
6120.95952,0.05444
6122.88799,0.07297
6124.81646,0.08445
6126.74493,0.07518
6128.67340,0.05072
6130.60187,0.03302
6132.53034,0.03049
6134.45880,0.03163
6136.38727,0.03790
6138.31574,0.04678
6140.24421,0.04945
6142.17268,0.05281
6144.10115,0.04436
6146.02962,0.03134
6147.95809,0.05768
6149.88655,0.11118
6151.81502,0.13132
6153.74349,0.11533
6155.67196,0.10723
6157.60043,0.12458
6159.52890,0.15351
6161.45737,0.13744
6163.38583,0.05921
6165.31430,0.00553
6167.24277,0.02881
6169.17124,0.06038
6171.09971,0.05517
6173.02818,0.07070
6174.95665,0.11937
6176.88512,0.14005
6178.81358,0.10957
6180.74205,0.06918
6182.67052,0.08570
6184.59899,0.16085
6186.52746,0.22915
6188.45593,0.22205
6190.38440,0.14450
6192.31286,0.08271
6194.24133,0.06022
6196.16980,0.02898
6198.09827,-0.00174
6200.02674,-0.00179
6201.95521,0.01128
6203.88368,0.03896
6205.81215,0.09762
6207.74061,0.15587
6209.66908,0.15025
6211.59755,0.07378
6213.52602,-0.00575
6215.45449,-0.04238
6217.38296,-0.01814
6219.31143,0.01666
6221.23989,0.02078
6223.16836,0.03411
6225.09683,0.07475
6227.02530,0.09358
6228.95377,0.05202
6230.88224,-0.03282
6232.81071,-0.10218
6234.73918,-0.09378
6236.66764,-0.00557
6238.59611,0.08804
6240.52458,0.11737
6242.45305,0.10403
6244.38152,0.09618
6246.30999,0.10724
6248.23846,0.13551
6250.16692,0.14104
6252.09539,0.11133
6254.02386,0.08864
6255.95233,0.07249
6257.88080,0.06003
6259.80927,0.06006
6261.73774,0.04746
6263.66621,0.02867
6265.59467,0.05004
6267.52314,0.06822
6269.45161,0.03774
6271.38008,0.01954
6273.30855,0.03533
6275.23702,0.05263
6277.16549,0.07120
6279.09395,0.10891
6281.02242,0.13828
6282.95089,0.12650
6284.87936,0.09868
6286.80783,0.08848
6288.73630,0.10820
6290.66477,0.13099
6292.59323,0.11798
6294.52170,0.09772
6296.45017,0.08922
6298.37864,0.08352
6300.30711,0.10557
6302.23558,0.12661
6304.16405,0.06796
6306.09252,-0.00847
6308.02098,0.00166
6309.94945,0.07955
6311.87792,0.15516
6313.80639,0.17102
6315.73486,0.12803
6317.66333,0.10315
6319.59180,0.11362
6321.52026,0.09768
6323.44873,0.08622
6325.37720,0.11510
6327.30567,0.10659
6329.23414,0.05882
6331.16261,0.06662
6333.09108,0.12113
6335.01955,0.14496
6336.94801,0.13409
6338.87648,0.11082
6340.80495,0.08125
6342.73342,0.07874
6344.66189,0.10546
6346.59036,0.11075
6348.51883,0.08526
6350.44729,0.06727
6352.37576,0.05856
6354.30423,0.04563
6356.23270,0.05068
6358.16117,0.07927
6360.08964,0.11112
6362.01811,0.11786
6363.94658,0.08687
6365.87504,0.06392
6367.80351,0.08711
6369.73198,0.11872
6371.66045,0.11405
6373.58892,0.10065
6375.51739,0.11488
6377.44586,0.11076
6379.37432,0.09211
6381.30279,0.11928
6383.23126,0.17362
6385.15973,0.19409
6387.08820,0.18942
6389.01667,0.18441
6390.94514,0.19517
6392.87361,0.21049
6394.80207,0.19028
6396.73054,0.14740
6398.65901,0.10677
6400.58748,0.06993
6402.51595,0.04530
6404.44442,0.04827
6406.37289,0.07481
6408.30135,0.11276
6410.22982,0.15931
6412.15829,0.16525
6414.08676,0.10045
6416.01523,0.02703
6417.94370,0.02102
6419.87217,0.09224
6421.80064,0.16596
6423.72910,0.18928
6425.65757,0.15286
6427.58604,0.08561
6429.51451,0.02614
6431.44298,0.00066
6433.37145,0.01341
6435.29992,0.03022
6437.22838,0.03047
6439.15685,0.03769
6441.08532,0.06297
6443.01379,0.09741
6444.94226,0.12883
6446.87073,0.10548
6448.79920,0.02080
6450.72766,-0.01037
6452.65613,0.08067
6454.58460,0.18082
6456.51307,0.16470
6458.44154,0.09542
6460.37001,0.10315
6462.29848,0.12806
6464.22695,0.10452
6466.15541,0.09125
6468.08388,0.12045
6470.01235,0.18272
6471.94082,0.21624
6473.86929,0.18100
6475.79776,0.13932
6477.72623,0.11736
6479.65469,0.09415
6481.58316,0.08095
6483.51163,0.08428
6485.44010,0.08184
6487.36857,0.05501
6489.29704,0.02451
6491.22551,0.03267
6493.15398,0.07275
6495.08244,0.08938
6497.01091,0.07670
6498.93938,0.07152
6500.86785,0.09219
6502.79632,0.13283
6504.72479,0.15633
6506.65326,0.13272
6508.58172,0.09918
6510.51019,0.10995
6512.43866,0.14608
6514.36713,0.14254
6516.29560,0.08862
6518.22407,0.06114
6520.15254,0.09045
6522.08101,0.09268
6524.00947,0.04833
6525.93794,0.04866
6527.86641,0.10353
6529.79488,0.15009
6531.72335,0.15120
6533.65182,0.08612
6535.58029,-0.01328
6537.50875,-0.07990
6539.43722,-0.06609
6541.36569,0.01784
6543.29416,0.09317
6545.22263,0.12550
6547.15110,0.15009
6549.07957,0.15911
6551.00804,0.13467
6552.93650,0.10114
6554.86497,0.09534
6556.79344,0.12135
6558.72191,0.14199
6560.65038,0.14603
6562.57885,0.13806
6564.50732,0.14058
6566.43578,0.14371
6568.36425,0.10762
6570.29272,0.09594
6572.22119,0.11335
6574.14966,0.09151
6576.07813,0.04975
6578.00660,0.01470
6579.93507,-0.00541
6581.86353,-0.00430
6583.79200,0.02597
6585.72047,0.08134
6587.64894,0.09585
6589.57741,0.02728
6591.50588,-0.05521
6593.43435,-0.06880
6595.36281,-0.03303
6597.29128,-0.01757
6599.21975,-0.02899
6601.14822,-0.05846
6603.07669,-0.06953
6605.00516,-0.00556
6606.93363,0.08620
6608.86210,0.11469
6610.79056,0.10750
6612.71903,0.09804
6614.64750,0.08856
6616.57597,0.11871
6618.50444,0.13035
6620.43291,0.05410
6622.36138,-0.03972
6624.28984,-0.05972
6626.21831,-0.01976
6628.14678,0.03041
6630.07525,0.08614
6632.00372,0.12738
6633.93219,0.11981
6635.86066,0.06754
6637.78912,0.01102
6639.71759,-0.01155
6641.64606,0.00031
6643.57453,0.01451
6645.50300,0.02043
6647.43147,0.03284
6649.35994,0.05010
6651.28841,0.07196
6653.21687,0.07850
6655.14534,0.05230
6657.07381,0.00582
6659.00228,-0.03500
6660.93075,-0.05149
6662.85922,-0.04263
6664.78769,-0.00477
6666.71615,0.02454
6668.64462,0.00735
6670.57309,-0.02984
6672.50156,-0.06588
6674.43003,-0.07377
6676.35850,-0.03795
6678.28697,0.00405
6680.21544,0.04698
6682.14390,0.11538
6684.07237,0.15554
6686.00084,0.14717
6687.92931,0.16759
6689.85778,0.18884
6691.78625,0.15573
6693.71472,0.12654
6695.64318,0.12880
6697.57165,0.12311
6699.50012,0.04256
6701.42859,-0.09339
6703.35706,-0.11427
6705.28553,0.01025
6707.21400,0.10093
6709.14247,0.09369
6711.07093,0.06338
6712.99940,0.06248
6714.92787,0.07980
6716.85634,0.05964
6718.78481,0.00817
6720.71328,0.00875
6722.64175,0.06262
6724.57021,0.07774
6726.49868,0.03474
6728.42715,-0.02227
6730.35562,-0.05392
6732.28409,-0.06689
6734.21256,-0.05584
6736.14103,0.02498
6738.06950,0.11181
6739.99796,0.09839
6741.92643,0.02616
6743.85490,0.02491
6745.78337,0.06570
6747.71184,0.05614
6749.64031,0.01390
6751.56878,0.02879
6753.49724,0.07111
6755.42571,0.03004
6757.35418,-0.03334
6759.28265,0.00088
6761.21112,0.08345
6763.13959,0.09886
6765.06806,0.06331
6766.99653,0.05025
6768.92499,0.07193
6770.85346,0.05417
6772.78193,0.00348
6774.71040,0.00673
6776.63887,0.03891
6778.56734,0.04878
6780.49581,0.04332
6782.42427,0.04161
6784.35274,0.06965
6786.28121,0.08118
6788.20968,0.04570
6790.13815,0.02453
6792.06662,0.07601
6793.99509,0.10945
6795.92355,0.06134
6797.85202,0.04028
6799.78049,0.06139
6801.70896,0.04636
6803.63743,0.02222
6805.56590,0.05026
6807.49437,0.08418
6809.42284,0.03144
6811.35130,-0.08729
6813.27977,-0.12377
6815.20824,-0.05931
6817.13671,0.01893
6819.06518,0.06555
6820.99365,0.06562
6822.92212,0.01631
6824.85058,-0.05080
6826.77905,-0.09110
6828.70752,-0.08993
6830.63599,-0.05985
6832.56446,-0.00871
6834.49293,0.06334
6836.42140,0.10158
6838.34987,0.05275
6840.27833,-0.00159
6842.20680,0.01572
6844.13527,0.04404
6846.06374,0.00049
6847.99221,-0.03248
6849.92068,0.06321
6851.84915,0.17215
6853.77761,0.20524
6855.70608,0.19377
6857.63455,0.15856
6859.56302,0.08540
6861.49149,0.00163
6863.41996,0.00830
6865.34843,0.10419
6867.27690,0.18068
6869.20536,0.17769
6871.13383,0.12716
6873.06230,0.05813
6874.99077,0.03270
6876.91924,0.06681
6878.84771,0.07568
6880.77618,0.04838
6882.70464,0.03564
6884.63311,0.03666
6886.56158,0.08151
6888.49005,0.15328
6890.41852,0.18581
6892.34699,0.18507
6894.27546,0.18491
6896.20393,0.16698
6898.13239,0.09314
6900.06086,0.00834
6901.98933,-0.00906
6903.91780,0.00881
6905.84627,-0.00798
6907.77474,0.00885
6909.70321,0.11967
6911.63167,0.21355
6913.56014,0.18764
6915.48861,0.11421
6917.41708,0.07931
6919.34555,0.11145
6921.27402,0.19099
6923.20249,0.23520
6925.13096,0.22771
6927.05942,0.14878
6928.98789,0.00612
6930.91636,-0.04626
6932.84483,0.01766
6934.77330,0.02580
6936.70177,-0.00519
6938.63024,-0.04546
6940.55870,-0.12671
6942.48717,-0.13407
6944.41564,-0.08375
6946.34411,-0.10609
6948.27258,-0.10517
6950.20105,0.02598
6952.12952,0.13895
6954.05799,0.13356
6955.98645,0.10698
6957.91492,0.12444
6959.84339,0.14826
6961.77186,0.14961
6963.70033,0.14445
6965.62880,0.14670
6967.55727,0.11215
6969.48573,0.05076
6971.41420,0.05775
6973.34267,0.11213
6975.27114,0.10252
6977.19961,0.04034
6979.12808,0.06918
6981.05655,0.21932
6982.98501,0.27643
6984.91348,0.17912
6986.84195,0.12158
6988.77042,0.10970
6990.69889,0.07854
6992.62736,-0.00701
6994.55583,-0.09858
6996.48430,-0.05894
6998.41276,0.07992
7000.34123,0.12125
7002.26970,0.06148
7004.19817,0.04182
7006.12664,0.09095
7008.05511,0.14028
7009.98358,0.10453
7011.91204,0.01830
7013.84051,0.03000
7015.76898,0.10729
7017.69745,0.08887
7019.62592,0.03276
7021.55439,0.04772
7023.48286,0.06979
7025.41133,0.07074
7027.33979,0.08763
7029.26826,0.06541
7031.19673,0.01851
7033.12520,0.03254
7035.05367,0.03522
7036.98214,-0.07980
7038.91061,-0.17692
7040.83907,-0.19214
7042.76754,-0.19979
7044.69601,-0.12890
7046.62448,0.04740
7048.55295,0.14018
7050.48142,0.10010
7052.40989,0.05514
7054.33836,0.05572
7056.26682,0.02198
7058.19529,-0.07304
7060.12376,-0.07985
7062.05223,-0.01338
7063.98070,-0.02591
7065.90917,-0.04618
7067.83764,0.02467
7069.76610,0.09109
7071.69457,0.07218
7073.62304,0.02079
7075.55151,0.03468
7077.47998,0.17162
7079.40845,0.35520
7081.33692,0.37225
7083.26539,0.21291
7085.19385,0.11789
7087.12232,0.12958
7089.05079,0.18061
7090.97926,0.24049
7092.90773,0.26935
7094.83620,0.24869
7096.76467,0.17486
7098.69313,0.04917
7100.62160,-0.00800
7102.55007,0.01087
7104.47854,0.02913
7106.40701,0.07322
7108.33548,0.14677
7110.26395,0.15457
7112.19242,0.09698
7114.12088,0.08724
7116.04935,0.15384
7117.97782,0.14164
7119.90629,0.03888
7121.83476,0.03394
7123.76323,0.05100
7125.69170,0.04150
7127.62016,0.06970
7129.54863,0.11304
7131.47710,0.13634
7133.40557,0.12110
7135.33404,0.10873
7137.26251,0.11142
7139.19098,0.09360
7141.11944,0.06838
7143.04791,0.06419
7144.97638,0.08703
7146.90485,0.06287
7148.83332,0.00479
7150.76179,-0.02451
7152.69026,-0.05206
7154.61873,-0.04704
7156.54719,0.00520
7158.47566,0.01660
7160.40413,-0.05062
7162.33260,-0.11487
7164.26107,-0.00463
7166.18954,0.22698
7168.11801,0.34413
7170.04647,0.34453
7171.97494,0.32457
7173.90341,0.27284
7175.83188,0.10946
7177.76035,-0.09153
7179.68882,-0.09792
7181.61729,0.09076
7183.54576,0.16154
7185.47422,-0.03258
7187.40269,-0.23020
7189.33116,-0.28461
7191.25963,-0.17983
7193.18810,-0.00460
7195.11657,0.08506
7197.04504,0.05560
7198.97350,0.04263
7200.90197,0.12165
7202.83044,0.20997
7204.75891,0.24612
7206.68738,0.25738
7208.61585,0.23505
7210.54432,0.13687
7212.47279,0.06077
7214.40125,0.11529
7216.32972,0.18753
7218.25819,0.10189
7220.18666,-0.00677
7222.11513,-0.05274
7224.04360,-0.13025
7225.97207,-0.16336
7227.90053,-0.01929
7229.82900,0.20179
7231.75747,0.30634
7233.68594,0.22776
7235.61441,0.12527
7237.54288,0.09998
7239.47135,0.06905
7241.39982,-0.05416
7243.32828,-0.19332
7245.25675,-0.18148
7247.18522,-0.07473
7249.11369,-0.05464
7251.04216,-0.15054
7252.97063,-0.20619
7254.89910,-0.15285
7256.82756,-0.11896
7258.75603,-0.15225
7260.68450,-0.16275
7262.61297,0.00349
7264.54144,0.19764
7266.46991,0.22379
7268.39838,0.13172
7270.32685,-0.04018
7272.25531,-0.14905
7274.18378,-0.04132
7276.11225,0.10303
7278.04072,0.18072
7279.96919,0.13709
7281.89766,0.03395
7283.82613,0.00314
7285.75459,0.07866
7287.68306,0.24982
7289.61153,0.37734
7291.54000,0.33286
7293.46847,0.14684
7295.39694,-0.00976
7297.32541,-0.02486
7299.25387,-0.01072
7301.18234,-0.02080
7303.11081,0.00731
7305.03928,0.10004
7306.96775,0.24329
7308.89622,0.34256
7310.82469,0.27651
7312.75316,0.17837
7314.68162,0.11662
7316.61009,0.00559
7318.53856,-0.05453
7320.46703,0.00744
7322.39550,0.09813
7324.32397,0.15932
7326.25244,0.17100
7328.18090,0.15098
7330.10937,0.12487
7332.03784,0.08936
7333.96631,0.02277
7335.89478,-0.08516
7337.82325,-0.25693
7339.75172,-0.35059
7341.68019,-0.14567
7343.60865,0.06582
7345.53712,0.19746
7347.46559,0.29776
7349.39406,0.26495
7351.32253,0.06053
7353.25100,-0.13785
7355.17947,-0.15973
7357.10793,-0.02907
7359.03640,0.10117
7360.96487,0.19464
7362.89334,0.29074
7364.82181,0.29029
7366.75028,0.22108
7368.67875,0.20316
7370.60722,0.23849
7372.53568,0.30936
7374.46415,0.30738
7376.39262,0.12126
7378.32109,0.00306
7380.24956,-0.04909
7382.17803,-0.07321
7384.10650,0.05024
7386.03496,0.22929
7387.96343,0.28900
7389.89190,0.23311
7391.82037,0.06139
7393.74884,-0.18282
7395.67731,-0.26365
7397.60578,-0.11620
7399.53425,0.04390
7401.46271,0.06353
7403.39118,-0.02829
7405.31965,-0.05175
7407.24812,-0.00049
7409.17659,0.00570
7411.10506,-0.00196
7413.03353,0.01453
7414.96199,0.01986
7416.89046,-0.01675
7418.81893,-0.02003
7420.74740,0.05581
7422.67587,0.13117
7424.60434,0.16475
7426.53281,0.13977
7428.46128,0.11027
7430.38974,0.08166
7432.31821,-0.01388
7434.24668,-0.09169
7436.17515,-0.05241
7438.10362,-0.01032
7440.03209,-0.01478
7441.96056,0.04308
7443.88902,0.10818
7445.81749,0.10034
7447.74596,0.11098
7449.67443,0.13407
7451.60290,0.06474
7453.53137,0.05097
7455.45984,0.11724
7457.38831,0.04609
7459.31677,-0.14052
7461.24524,-0.23240
7463.17371,-0.23037
7465.10218,-0.10078
7467.03065,0.14519
7468.95912,0.27830
7470.88759,0.24882
7472.81605,0.16835
7474.74452,0.08737
7476.67299,0.02127
7478.60146,0.06483
7480.52993,0.22759
7482.45840,0.32721
7484.38687,0.27927
7486.31533,0.20416
7488.24380,0.15182
7490.17227,0.12283
7492.10074,0.14194
7494.02921,0.18817
7495.95768,0.21816
7497.88615,0.22251
