399.19301,2.84939
401.12148,1.88506
403.04995,0.90963
404.97842,0.30896
406.90689,-0.01790
408.83536,-0.08403
410.76382,0.09147
412.69229,0.35306
414.62076,0.54628
416.54923,0.50920
418.47770,0.10767
420.40617,-0.29336
422.33464,-0.35297
424.26311,-0.30794
426.19157,-0.25129
428.12004,-0.16547
430.04851,0.03480
431.97698,0.33761
433.90545,0.48400
435.83392,0.40741
437.76239,0.23072
439.69085,0.01813
441.61932,-0.17748
443.54779,-0.21918
445.47626,-0.07949
447.40473,0.07139
449.33320,0.13626
451.26167,0.15603
453.19013,0.11956
455.11860,-0.00292
457.04707,-0.11488
458.97554,-0.11090
460.90401,-0.04704
462.83248,0.02162
464.76095,0.10555
466.68942,0.20110
468.61788,0.25899
470.54635,0.23371
472.47482,0.12338
474.40329,-0.02020
476.33176,-0.07097
478.26023,-0.06737
480.18870,-0.06280
482.11716,-0.03286
484.04563,0.07495
485.97410,0.21623
487.90257,0.27166
489.83104,0.18731
491.75951,0.04694
493.68798,-0.02716
495.61645,-0.01089
497.54491,0.06602
499.47338,0.13995
501.40185,0.16077
503.33032,0.14218
505.25879,0.10787
507.18726,0.06064
509.11573,0.01531
511.04419,-0.03197
512.97266,-0.05820
514.90113,-0.01877
516.82960,0.04802
518.75807,0.09848
520.68654,0.15096
522.61501,0.20597
524.54348,0.21926
526.47194,0.15558
528.40041,0.07717
530.32888,0.03940
532.25735,0.04467
534.18582,0.09772
536.11429,0.17227
538.04276,0.19499
539.97122,0.16668
541.89969,0.13704
543.82816,0.09158
545.75663,0.02755
547.68510,0.00318
549.61357,0.03277
551.54204,0.00087
553.47051,-0.06368
555.39897,0.03308
557.32744,0.18898
559.25591,0.19495
561.18438,0.11807
563.11285,0.06383
565.04132,0.05065
566.96979,0.07377
568.89825,0.11962
570.82672,0.17766
572.75519,0.20498
574.68366,0.17154
576.61213,0.10915
578.54060,0.05180
580.46907,0.01120
582.39754,0.00257
584.32600,0.03356
586.25447,0.08505
588.18294,0.13770
590.11141,0.19158
592.03988,0.21827
593.96835,0.18628
595.89682,0.12161
597.82528,0.06159
599.75375,0.01853
601.68222,0.00817
603.61069,0.04736
605.53916,0.10068
607.46763,0.12594
609.39610,0.12634
611.32456,0.11605
613.25303,0.09864
615.18150,0.07789
617.10997,0.06567
619.03844,0.07101
620.96691,0.08737
622.89538,0.10947
624.82385,0.13666
626.75231,0.14646
628.68078,0.12749
630.60925,0.10122
632.53772,0.07697
634.46619,0.05989
636.39466,0.05901
638.32313,0.07391
640.25159,0.10196
642.18006,0.13673
644.10853,0.15889
646.03700,0.14687
647.96547,0.10588
649.89394,0.05728
651.82241,0.02686
653.75088,0.03939
655.67934,0.07804
657.60781,0.10300
659.53628,0.11254
661.46475,0.12002
663.39322,0.11939
665.32169,0.11149
667.25016,0.10950
669.17862,0.10918
671.10709,0.10537
673.03556,0.10819
674.96403,0.11832
676.89250,0.14293
678.82097,0.16948
680.74944,0.16702
682.67791,0.13597
684.60637,0.09655
686.53484,0.06580
688.46331,0.06379
690.39178,0.08956
692.32025,0.11834
694.24872,0.14424
696.17719,0.16458
698.10565,0.15784
700.03412,0.12902
701.96259,0.10508
703.89106,0.08967
705.81953,0.08336
707.74800,0.09682
709.67647,0.11838
711.60494,0.13808
713.53340,0.15376
715.46187,0.15071
717.39034,0.13375
719.31881,0.11809
721.24728,0.10783
723.17575,0.10176
725.10422,0.10066
727.03268,0.11370
728.96115,0.13503
730.88962,0.14590
732.81809,0.14291
734.74656,0.13679
736.67503,0.13128
738.60350,0.11542
740.53197,0.09573
742.46043,0.09598
744.38890,0.11812
746.31737,0.14555
748.24584,0.16145
750.17431,0.15778
752.10278,0.14081
754.03125,0.12032
755.95971,0.10131
757.88818,0.08978
759.81665,0.08989
761.74512,0.10283
763.67359,0.12364
765.60206,0.14356
767.53053,0.15885
769.45900,0.15749
771.38746,0.13075
773.31593,0.09476
775.24440,0.07114
777.17287,0.06790
779.10134,0.08238
781.02981,0.11113
782.95828,0.14641
784.88674,0.16613
786.81521,0.15361
788.74368,0.12460
790.67215,0.10418
792.60062,0.09991
794.52909,0.10834
796.45756,0.12478
798.38602,0.14570
800.31449,0.15935
802.24296,0.16000
804.17143,0.14896
806.09990,0.12635
808.02837,0.10027
809.95684,0.08697
811.88531,0.09693
813.81377,0.11576
815.74224,0.13151
817.67071,0.14897
819.59918,0.16162
821.52765,0.15854
823.45612,0.13933
825.38459,0.11533
827.31305,0.10062
829.24152,0.10085
831.16999,0.11207
833.09846,0.13071
835.02693,0.15219
836.95540,0.16164
838.88387,0.15052
840.81234,0.12724
842.74080,0.10864
844.66927,0.10531
846.59774,0.10713
848.52621,0.10839
850.45468,0.12288
852.38315,0.15024
854.31162,0.16964
856.24008,0.17190
858.16855,0.16058
860.09702,0.13576
862.02549,0.10788
863.95396,0.09756
865.88243,0.11450
867.81090,0.15727
869.73937,0.20680
871.66783,0.22319
873.59630,0.19163
875.52477,0.14314
877.45324,0.10977
879.38171,0.10082
881.31018,0.11187
883.23865,0.12843
885.16711,0.14486
887.09558,0.16437
889.02405,0.17685
890.95252,0.16867
892.88099,0.14323
894.80946,0.11526
896.73793,0.10152
898.66640,0.11004
900.59486,0.12690
902.52333,0.13655
904.45180,0.14635
906.38027,0.16445
908.30874,0.17537
910.23721,0.16252
912.16568,0.13951
914.09414,0.12797
916.02261,0.12522
917.95108,0.12772
919.87955,0.14061
921.80802,0.15322
923.73649,0.15565
925.66496,0.15536
927.59343,0.15274
929.52189,0.14161
931.45036,0.13014
933.37883,0.12665
935.30730,0.12533
937.23577,0.12955
939.16424,0.14770
941.09271,0.16455
943.02117,0.16396
944.94964,0.15184
946.87811,0.13974
948.80658,0.13112
950.73505,0.12307
952.66352,0.12113
954.59199,0.13433
956.52045,0.15154
958.44892,0.15508
960.37739,0.14848
962.30586,0.14102
964.23433,0.13147
966.16280,0.12207
968.09127,0.12143
970.01974,0.13186
971.94820,0.14549
973.87667,0.15460
975.80514,0.15957
977.73361,0.16375
979.66208,0.16166
981.59055,0.14758
983.51902,0.13517
985.44748,0.13389
987.37595,0.13576
989.30442,0.13802
991.23289,0.14442
993.16136,0.15556
995.08983,0.16442
997.01830,0.16013
998.94677,0.14565
1000.87523,0.13260
1002.80370,0.12706
1004.73217,0.13513
1006.66064,0.15293
1008.58911,0.16358
1010.51758,0.15997
1012.44605,0.15319
1014.37451,0.15117
1016.30298,0.14267
1018.23145,0.12655
1020.15992,0.12132
1022.08839,0.13251
1024.01686,0.15172
1025.94533,0.18519
1027.87380,0.22812
1029.80226,0.23121
1031.73073,0.18617
1033.65920,0.14861
1035.58767,0.13408
1037.51614,0.12510
1039.44461,0.12470
1041.37308,0.13655
1043.30154,0.14575
1045.23001,0.14416
1047.15848,0.14663
1049.08695,0.15645
1051.01542,0.15804
1052.94389,0.14783
1054.87236,0.13763
1056.80083,0.13858
1058.72929,0.14818
1060.65776,0.16052
1062.58623,0.17608
1064.51470,0.18584
1066.44317,0.18150
1068.37164,0.16736
1070.30011,0.14953
1072.22857,0.13980
1074.15704,0.14471
1076.08551,0.15797
1078.01398,0.17057
1079.94245,0.17619
1081.87092,0.17500
1083.79939,0.16843
1085.72786,0.15703
1087.65632,0.14546
1089.58479,0.14276
1091.51326,0.14837
1093.44173,0.15353
1095.37020,0.15742
1097.29867,0.15922
1099.22714,0.15601
1101.15560,0.15207
1103.08407,0.15212
1105.01254,0.14989
1106.94101,0.14318
1108.86948,0.14052
1110.79795,0.14400
1112.72642,0.15555
1114.65489,0.17175
1116.58335,0.17933
1118.51182,0.17155
1120.44029,0.15236
1122.36876,0.13627
1124.29723,0.13127
1126.22570,0.13365
1128.15417,0.14208
1130.08263,0.15196
1132.01110,0.15756
1133.93957,0.16110
1135.86804,0.16384
1137.79651,0.15946
1139.72498,0.14834
1141.65345,0.14154
1143.58191,0.14130
1145.51038,0.14571
1147.43885,0.15792
1149.36732,0.17119
1151.29579,0.17531
1153.22426,0.16920
1155.15273,0.15803
1157.08120,0.15011
1159.00966,0.14737
1160.93813,0.14801
1162.86660,0.15457
1164.79507,0.16535
1166.72354,0.17204
1168.65201,0.17161
1170.58048,0.16639
1172.50894,0.15727
1174.43741,0.14869
1176.36588,0.14681
1178.29435,0.15281
1180.22282,0.15969
1182.15129,0.16088
1184.07976,0.16157
1186.00823,0.16420
1187.93669,0.16517
1189.86516,0.16331
1191.79363,0.15848
1193.72210,0.15302
1195.65057,0.14977
1197.57904,0.15035
1199.50751,0.15381
1201.43597,0.15916
1203.36444,0.16592
1205.29291,0.16929
1207.22138,0.16652
1209.14985,0.16014
1211.07832,0.15247
1213.00679,0.14769
1214.93526,0.15034
1216.86372,0.15658
1218.79219,0.16182
1220.72066,0.16688
1222.64913,0.16963
1224.57760,0.16756
1226.50607,0.16279
1228.43454,0.15929
1230.36300,0.15954
1232.29147,0.16326
1234.21994,0.16889
1236.14841,0.17530
1238.07688,0.17894
1240.00535,0.17631
1241.93382,0.17095
1243.86229,0.16553
1245.79075,0.15883
1247.71922,0.15475
1249.64769,0.15712
1251.57616,0.16149
1253.50463,0.16316
1255.43310,0.16316
1257.36157,0.16180
1259.29003,0.15888
1261.21850,0.15593
1263.14697,0.15297
1265.07544,0.15093
1267.00391,0.15437
1268.93238,0.16420
1270.86085,0.17288
1272.78932,0.17459
1274.71778,0.17190
1276.64625,0.16839
1278.57472,0.16444
1280.50319,0.15975
1282.43166,0.15577
1284.36013,0.15673
1286.28860,0.16246
1288.21706,0.16660
1290.14553,0.16874
1292.07400,0.17084
1294.00247,0.16987
1295.93094,0.16531
1297.85941,0.15901
1299.78788,0.15302
1301.71634,0.14704
1303.64481,0.14104
1305.57328,0.14504
1307.50175,0.16048
1309.43022,0.17327
1311.35869,0.17797
1313.28716,0.17679
1315.21563,0.17243
1317.14409,0.16959
1319.07256,0.16781
1321.00103,0.16716
1322.92950,0.17118
1324.85797,0.17478
1326.78644,0.17181
1328.71491,0.16631
1330.64337,0.16241
1332.57184,0.16048
1334.50031,0.16063
1336.42878,0.16490
1338.35725,0.17505
1340.28572,0.17958
1342.21419,0.17387
1344.14266,0.17056
1346.07112,0.16981
1347.99959,0.16664
1349.92806,0.16221
1351.85653,0.15995
1353.78500,0.16160
1355.71347,0.16387
1357.64194,0.16873
1359.57040,0.18102
1361.49887,0.19360
1363.42734,0.19205
1365.35581,0.18156
1367.28428,0.17588
1369.21275,0.17264
1371.14122,0.17133
1373.06969,0.17787
1374.99815,0.18751
1376.92662,0.19097
1378.85509,0.18889
1380.78356,0.18372
1382.71203,0.17891
1384.64050,0.17916
1386.56897,0.18255
1388.49743,0.18076
1390.42590,0.17878
1392.35437,0.18749
1394.28284,0.20402
1396.21131,0.21446
1398.13978,0.21324
1400.06825,0.20235
1401.99672,0.18920
1403.92518,0.18381
1405.85365,0.18419
1407.78212,0.18336
1409.71059,0.18375
1411.63906,0.18567
1413.56753,0.18923
1415.49600,0.19785
1417.42446,0.20793
1419.35293,0.20719
1421.28140,0.19736
1423.20987,0.19074
1425.13834,0.18663
1427.06681,0.18921
1428.99528,0.20027
1430.92375,0.20506
1432.85221,0.20193
1434.78068,0.20392
1436.70915,0.20254
1438.63762,0.18890
1440.56609,0.18061
1442.49456,0.18122
1444.42303,0.18652
1446.35149,0.19521
1448.27996,0.20058
1450.20843,0.19826
1452.13690,0.19753
1454.06537,0.20606
1455.99384,0.22636
1457.92231,0.23330
1459.85077,0.21041
1461.77924,0.19991
1463.70771,0.20929
1465.63618,0.21612
1467.56465,0.20944
1469.49312,0.21054
1471.42159,0.22440
1473.35006,0.22718
1475.27852,0.21046
1477.20699,0.19929
1479.13546,0.19874
1481.06393,0.20141
1482.99240,0.20231
1484.92087,0.20748
1486.84934,0.22156
1488.77780,0.23440
1490.70627,0.22371
1492.63474,0.20393
1494.56321,0.20108
1496.49168,0.21529
1498.42015,0.22512
1500.34862,0.22039
1502.27709,0.21736
1504.20555,0.23190
1506.13402,0.27120
1508.06249,0.27205
1509.99096,0.23319
1511.91943,0.21382
1513.84790,0.21744
1515.77637,0.23934
1517.70483,0.26066
1519.63330,0.27401
1521.56177,0.27838
1523.49024,0.25777
1525.41871,0.23507
1527.34718,0.21711
1529.27565,0.20608
1531.20412,0.21512
1533.13258,0.23654
1535.06105,0.24209
1536.98952,0.25176
1538.91799,0.29508
1540.84646,0.32047
1542.77493,0.27498
1544.70340,0.23140
1546.63186,0.20862
1548.56033,0.20792
1550.48880,0.21666
1552.41727,0.22325
1554.34574,0.23301
1556.27421,0.25176
1558.20268,0.27302
1560.13115,0.24318
1562.05961,0.21030
1563.98808,0.20422
1565.91655,0.21040
1567.84502,0.22371
1569.77349,0.23150
1571.70196,0.22008
1573.63043,0.21397
1575.55889,0.21795
1577.48736,0.20590
1579.41583,0.18733
1581.34430,0.18169
1583.27277,0.18482
1585.20124,0.19055
1587.12971,0.19606
1589.05818,0.19764
1590.98664,0.19497
1592.91511,0.19020
1594.84358,0.18552
1596.77205,0.18270
1598.70052,0.18207
1600.62899,0.18543
1602.55746,0.19317
1604.48592,0.20115
1606.41439,0.20397
1608.34286,0.19926
1610.27133,0.19085
1612.19980,0.18589
1614.12827,0.19025
1616.05674,0.20614
1617.98521,0.21642
1619.91367,0.21692
1621.84214,0.22371
1623.77061,0.23003
1625.69908,0.22672
1627.62755,0.22019
1629.55602,0.21153
1631.48449,0.20725
1633.41295,0.21757
1635.34142,0.24241
1637.26989,0.24490
1639.19836,0.22627
1641.12683,0.21570
1643.05530,0.22027
1644.98377,0.24174
1646.91223,0.26162
1648.84070,0.25362
1650.76917,0.25467
1652.69764,0.27560
1654.62611,0.25630
1656.55458,0.22378
1658.48305,0.20982
1660.41152,0.20845
1662.33998,0.21185
1664.26845,0.20884
1666.19692,0.20869
1668.12539,0.22297
1670.05386,0.23871
1671.98233,0.24086
1673.91080,0.24291
1675.83926,0.23938
1677.76773,0.23004
1679.69620,0.23054
1681.62467,0.24517
1683.55314,0.26271
1685.48161,0.24702
1687.41008,0.22513
1689.33855,0.21853
1691.26701,0.21797
1693.19548,0.22747
1695.12395,0.25128
1697.05242,0.26900
1698.98089,0.26613
1700.90936,0.24664
1702.83783,0.22958
1704.76629,0.22809
1706.69476,0.22732
1708.62323,0.21871
1710.55170,0.21395
1712.48017,0.21977
1714.40864,0.23654
1716.33711,0.25380
1718.26558,0.23908
1720.19404,0.20958
1722.12251,0.19635
1724.05098,0.19484
1725.97945,0.19740
1727.90792,0.20552
1729.83639,0.21927
1731.76486,0.23535
1733.69332,0.24362
1735.62179,0.22726
1737.55026,0.21443
1739.47873,0.21475
1741.40720,0.21643
1743.33567,0.21690
1745.26414,0.22077
1747.19261,0.23138
1749.12107,0.24125
1751.04954,0.22966
1752.97801,0.20616
1754.90648,0.19466
1756.83495,0.19436
1758.76342,0.19677
1760.69189,0.20135
1762.62035,0.20344
1764.54882,0.20128
1766.47729,0.20294
1768.40576,0.20969
1770.33423,0.22111
1772.26270,0.22808
1774.19117,0.21645
1776.11964,0.20434
1778.04810,0.20559
1779.97657,0.21311
1781.90504,0.21379
1783.83351,0.20753
1785.76198,0.20029
1787.69045,0.19684
1789.61892,0.20187
1791.54738,0.21236
1793.47585,0.21449
1795.40432,0.20960
1797.33279,0.20792
1799.26126,0.20905
1801.18973,0.20801
1803.11820,0.20199
1805.04666,0.19594
1806.97513,0.19518
1808.90360,0.19832
1810.83207,0.19993
1812.76054,0.19824
1814.68901,0.19676
1816.61748,0.19784
1818.54595,0.20126
1820.47441,0.20329
1822.40288,0.20105
1824.33135,0.19701
1826.25982,0.19660
1828.18829,0.20297
1830.11676,0.20866
1832.04523,0.20567
1833.97369,0.20165
1835.90216,0.19976
1837.83063,0.19562
1839.75910,0.19244
1841.68757,0.19848
1843.61604,0.20957
1845.54451,0.21001
1847.47298,0.20316
1849.40144,0.19836
1851.32991,0.19514
1853.25838,0.19250
1855.18685,0.18944
1857.11532,0.18566
1859.04379,0.18334
1860.97226,0.18481
1862.90072,0.18963
1864.82919,0.19854
1866.75766,0.21335
1868.68613,0.22270
1870.61460,0.21218
1872.54307,0.19591
1874.47154,0.18652
1876.40001,0.18342
1878.32847,0.18347
1880.25694,0.18509
1882.18541,0.18909
1884.11388,0.19496
1886.04235,0.20041
1887.97082,0.20492
1889.89929,0.20501
1891.82775,0.20061
1893.75622,0.19737
1895.68469,0.19410
1897.61316,0.19030
1899.54163,0.18882
1901.47010,0.18902
1903.39857,0.18959
1905.32704,0.19168
1907.25550,0.19543
1909.18397,0.19668
1911.11244,0.19412
1913.04091,0.19197
1914.96938,0.19385
1916.89785,0.19940
1918.82632,0.20277
1920.75478,0.20417
1922.68325,0.20635
1924.61172,0.20279
1926.54019,0.19439
1928.46866,0.18849
1930.39713,0.18599
1932.32560,0.18628
1934.25407,0.18916
1936.18253,0.19260
1938.11100,0.19539
1940.03947,0.19947
1941.96794,0.20379
1943.89641,0.20145
1945.82488,0.19409
1947.75335,0.18926
1949.68181,0.18776
1951.61028,0.18836
1953.53875,0.19088
1955.46722,0.19310
1957.39569,0.19367
1959.32416,0.19346
1961.25263,0.19214
1963.18110,0.19097
1965.10956,0.19213
1967.03803,0.19343
1968.96650,0.19261
1970.89497,0.19312
1972.82344,0.19700
1974.75191,0.19935
1976.68038,0.19691
1978.60884,0.19295
1980.53731,0.18993
1982.46578,0.18794
1984.39425,0.18844
1986.32272,0.19144
1988.25119,0.19529
1990.17966,0.19984
1992.10812,0.20168
1994.03659,0.19708
1995.96506,0.19046
1997.89353,0.18654
1999.82200,0.18539
2001.75047,0.18735
2003.67894,0.19232
2005.60741,0.19629
2007.53587,0.19716
2009.46434,0.19692
2011.39281,0.19581
2013.32128,0.19394
2015.24975,0.19305
2017.17822,0.19287
2019.10669,0.19171
2021.03515,0.19035
2022.96362,0.19096
2024.89209,0.19329
2026.82056,0.19500
2028.74903,0.19472
2030.67750,0.19335
2032.60597,0.19196
2034.53444,0.19092
2036.46290,0.19054
2038.39137,0.19162
2040.31984,0.19500
2042.24831,0.19853
2044.17678,0.20018
2046.10525,0.20016
2048.03372,0.19794
2049.96218,0.19433
2051.89065,0.19105
2053.81912,0.19007
2055.74759,0.19216
2057.67606,0.19502
2059.60453,0.19759
2061.53300,0.20027
2063.46147,0.20197
2065.38993,0.19997
2067.31840,0.19365
2069.24687,0.18776
2071.17534,0.18726
2073.10381,0.19155
2075.03228,0.19550
2076.96075,0.19675
2078.88921,0.19674
2080.81768,0.19505
2082.74615,0.19091
2084.67462,0.18700
2086.60309,0.18667
2088.53156,0.18929
2090.46003,0.19210
2092.38850,0.19471
2094.31696,0.19760
2096.24543,0.20044
2098.17390,0.20224
2100.10237,0.20037
2102.03084,0.19472
2103.95931,0.18977
2105.88778,0.18890
2107.81624,0.19044
2109.74471,0.19223
2111.67318,0.19472
2113.60165,0.19740
2115.53012,0.19827
2117.45859,0.19572
2119.38706,0.19086
2121.31553,0.18770
2123.24399,0.18776
2125.17246,0.19018
2127.10093,0.19479
2129.02940,0.19994
2130.95787,0.20240
2132.88634,0.20122
2134.81481,0.19798
2136.74327,0.19385
2138.67174,0.18993
2140.60021,0.18825
2142.52868,0.19050
2144.45715,0.19515
2146.38562,0.19777
2148.31409,0.19693
2150.24255,0.19551
2152.17102,0.19391
2154.09949,0.19030
2156.02796,0.18763
2157.95643,0.18841
2159.88490,0.19059
2161.81337,0.19346
2163.74184,0.19626
2165.67030,0.19759
2167.59877,0.19802
2169.52724,0.19740
2171.45571,0.19666
2173.38418,0.19727
2175.31265,0.19747
2177.24112,0.19628
2179.16958,0.19591
2181.09805,0.19726
2183.02652,0.19850
2184.95499,0.19900
2186.88346,0.19858
2188.81193,0.19661
2190.74040,0.19430
2192.66887,0.19296
2194.59733,0.19339
2196.52580,0.19532
2198.45427,0.19829
2200.38274,0.20227
2202.31121,0.20377
2204.23968,0.20079
2206.16815,0.19635
2208.09661,0.19160
2210.02508,0.18695
2211.95355,0.18667
2213.88202,0.19265
2215.81049,0.19907
2217.73896,0.20115
2219.66743,0.20141
2221.59590,0.20117
2223.52436,0.19872
2225.45283,0.19573
2227.38130,0.19426
2229.30977,0.19335
2231.23824,0.19221
2233.16671,0.19239
2235.09518,0.19489
2237.02364,0.19725
2238.95211,0.19716
2240.88058,0.19575
2242.80905,0.19384
2244.73752,0.19240
2246.66599,0.19433
2248.59446,0.19858
2250.52293,0.20151
2252.45139,0.20263
2254.37986,0.20238
2256.30833,0.19986
2258.23680,0.19566
2260.16527,0.19174
2262.09374,0.18944
2264.02221,0.19108
2265.95067,0.19538
2267.87914,0.19831
2269.80761,0.20084
2271.73608,0.20304
2273.66455,0.20156
2275.59302,0.19747
2277.52149,0.19360
2279.44996,0.19097
2281.37842,0.19111
2283.30689,0.19372
2285.23536,0.19676
2287.16383,0.19905
2289.09230,0.20005
2291.02077,0.19840
2292.94924,0.19500
2294.87770,0.19366
2296.80617,0.19260
2298.73464,0.18948
2300.66311,0.18832
2302.59158,0.19139
2304.52005,0.19843
2306.44852,0.20741
2308.37699,0.21204
2310.30545,0.20809
2312.23392,0.20077
2314.16239,0.19682
2316.09086,0.19534
2318.01933,0.19575
2319.94780,0.20046
2321.87627,0.21008
2323.80473,0.22083
2325.73320,0.22491
2327.66167,0.22072
2329.59014,0.21244
2331.51861,0.19914
2333.44708,0.18357
2335.37555,0.18151
2337.30401,0.19925
2339.23248,0.22190
2341.16095,0.23222
2343.08942,0.22465
2345.01789,0.20839
2346.94636,0.19506
2348.87483,0.18690
2350.80330,0.18468
2352.73176,0.18723
2354.66023,0.19172
2356.58870,0.21011
2358.51717,0.24376
2360.44564,0.25690
2362.37411,0.23974
2364.30258,0.21483
2366.23104,0.20050
2368.15951,0.20193
2370.08798,0.20407
2372.01645,0.20266
2373.94492,0.20475
2375.87339,0.20791
2377.80186,0.20768
2379.73033,0.20348
2381.65879,0.19724
2383.58726,0.19217
2385.51573,0.19208
2387.44420,0.19595
2389.37267,0.19803
2391.30114,0.19773
2393.22961,0.19870
2395.15807,0.20104
2397.08654,0.19984
2399.01501,0.19366
2400.94348,0.18898
2402.87195,0.18887
2404.80042,0.19000
2406.72889,0.19215
2408.65736,0.19671
2410.58582,0.19921
2412.51429,0.19668
2414.44276,0.19386
2416.37123,0.19354
2418.29970,0.19363
2420.22817,0.19271
2422.15664,0.19180
2424.08510,0.19293
2426.01357,0.19645
2427.94204,0.20034
2429.87051,0.20189
2431.79898,0.20046
2433.72745,0.19808
2435.65592,0.19646
2437.58439,0.19484
2439.51285,0.19184
2441.44132,0.18977
2443.36979,0.19247
2445.29826,0.19801
2447.22673,0.20114
2449.15520,0.19978
2451.08367,0.19652
2453.01213,0.19480
2454.94060,0.19462
2456.86907,0.19572
2458.79754,0.19789
2460.72601,0.19987
2462.65448,0.20185
2464.58295,0.20269
2466.51142,0.20125
2468.43988,0.19820
2470.36835,0.19436
2472.29682,0.19182
2474.22529,0.19118
2476.15376,0.19227
2478.08223,0.19656
2480.01070,0.20253
2481.93916,0.20552
2483.86763,0.20307
2485.79610,0.19706
2487.72457,0.19201
2489.65304,0.19104
2491.58151,0.19425
2493.50998,0.19883
2495.43844,0.20156
2497.36691,0.20329
2499.29538,0.20547
2501.22385,0.20598
2503.15232,0.20381
2505.08079,0.20012
2507.00926,0.19605
2508.93773,0.19465
2510.86619,0.19729
2512.79466,0.20063
2514.72313,0.20324
2516.65160,0.20489
2518.58007,0.20354
2520.50854,0.20051
2522.43701,0.19901
2524.36547,0.19859
2526.29394,0.19668
2528.22241,0.19448
2530.15088,0.19647
2532.07935,0.20106
2534.00782,0.20291
2535.93629,0.20222
2537.86476,0.19958
2539.79322,0.19404
2541.72169,0.18954
2543.65016,0.18952
2545.57863,0.19183
2547.50710,0.19479
2549.43557,0.19857
2551.36404,0.20163
2553.29250,0.20223
2555.22097,0.20016
2557.14944,0.19636
2559.07791,0.19208
2561.00638,0.18997
2562.93485,0.19182
2564.86332,0.19521
2566.79179,0.19842
2568.72025,0.20113
2570.64872,0.20207
2572.57719,0.20062
2574.50566,0.19797
2576.43413,0.19751
2578.36260,0.19940
2580.29107,0.19886
2582.21953,0.19603
2584.14800,0.19670
2586.07647,0.20103
2588.00494,0.20398
2589.93341,0.20248
2591.86188,0.19680
2593.79035,0.19303
2595.71882,0.19551
2597.64728,0.19888
2599.57575,0.19975
2601.50422,0.20102
2603.43269,0.20322
2605.36116,0.20448
2607.28963,0.20451
2609.21810,0.20459
2611.14656,0.20359
2613.07503,0.20000
2615.00350,0.19703
2616.93197,0.19751
2618.86044,0.20054
2620.78891,0.20386
2622.71738,0.20562
2624.64585,0.20563
2626.57431,0.20380
2628.50278,0.19999
2630.43125,0.19680
2632.35972,0.19665
2634.28819,0.19869
2636.21666,0.20308
2638.14513,0.20833
2640.07359,0.20934
2642.00206,0.20571
2643.93053,0.20125
2645.85900,0.19765
2647.78747,0.19454
2649.71594,0.19346
2651.64441,0.19608
2653.57288,0.20055
2655.50134,0.20442
2657.42981,0.20713
2659.35828,0.20937
2661.28675,0.20968
2663.21522,0.20651
2665.14369,0.20316
2667.07216,0.20309
2669.00062,0.20500
2670.92909,0.20659
2672.85756,0.20833
2674.78603,0.21004
2676.71450,0.20922
2678.64297,0.20529
2680.57144,0.20092
2682.49990,0.19837
2684.42837,0.19848
2686.35684,0.20222
2688.28531,0.20826
2690.21378,0.21342
2692.14225,0.21586
2694.07072,0.21513
2695.99919,0.21247
2697.92765,0.20962
2699.85612,0.20720
2701.78459,0.20494
2703.71306,0.20337
2705.64153,0.20343
2707.57000,0.20531
2709.49847,0.20867
2711.42693,0.21068
2713.35540,0.20903
2715.28387,0.20562
2717.21234,0.20312
2719.14081,0.20338
2721.06928,0.20604
2722.99775,0.20739
2724.92622,0.20648
2726.85468,0.20639
2728.78315,0.20805
2730.71162,0.20957
2732.64009,0.20914
2734.56856,0.20787
2736.49703,0.20813
2738.42550,0.20873
2740.35396,0.20887
2742.28243,0.21092
2744.21090,0.21415
2746.13937,0.21499
2748.06784,0.21285
2749.99631,0.21055
2751.92478,0.21003
2753.85325,0.20999
2755.78171,0.21032
2757.71018,0.21209
2759.63865,0.21478
2761.56712,0.21774
2763.49559,0.21804
2765.42406,0.21524
2767.35253,0.21378
2769.28099,0.21329
2771.20946,0.21155
2773.13793,0.21068
2775.06640,0.21187
2776.99487,0.21422
2778.92334,0.21609
2780.85181,0.21485
2782.78028,0.20964
2784.70874,0.20381
2786.63721,0.20264
2788.56568,0.20696
2790.49415,0.21229
2792.42262,0.21525
2794.35109,0.21649
2796.27956,0.21881
2798.20802,0.22106
2800.13649,0.21882
2802.06496,0.21328
2803.99343,0.21002
2805.92190,0.21104
2807.85037,0.21287
2809.77884,0.21350
2811.70731,0.21517
2813.63577,0.21766
2815.56424,0.21814
2817.49271,0.21673
2819.42118,0.21541
2821.34965,0.21362
2823.27812,0.21065
2825.20659,0.20902
2827.13505,0.20992
2829.06352,0.21097
2830.99199,0.21118
2832.92046,0.21267
2834.84893,0.21467
2836.77740,0.21422
2838.70587,0.21218
2840.63433,0.21046
2842.56280,0.20886
2844.49127,0.20831
2846.41974,0.21063
2848.34821,0.21392
2850.27668,0.21565
2852.20515,0.21596
2854.13362,0.21447
2856.06208,0.21179
2857.99055,0.21004
2859.91902,0.21179
2861.84749,0.21728
2863.77596,0.22203
2865.70443,0.22316
2867.63290,0.22176
2869.56136,0.21959
2871.48983,0.21618
2873.41830,0.21095
2875.34677,0.20750
2877.27524,0.20823
2879.20371,0.21175
2881.13218,0.21673
2883.06065,0.22178
2884.98911,0.22425
2886.91758,0.22209
2888.84605,0.21752
2890.77452,0.21432
2892.70299,0.21100
2894.63146,0.20601
2896.55993,0.20560
2898.48839,0.21129
2900.41686,0.21567
2902.34533,0.21650
2904.27380,0.21543
2906.20227,0.21360
2908.13074,0.21246
2910.05921,0.20990
2911.98768,0.20592
2913.91614,0.20399
2915.84461,0.20434
2917.77308,0.20833
2919.70155,0.21530
2921.63002,0.21881
2923.55849,0.21618
2925.48696,0.20873
2927.41542,0.20182
2929.34389,0.20132
2931.27236,0.20551
2933.20083,0.21058
2935.12930,0.21284
2937.05777,0.21118
2938.98624,0.21114
2940.91471,0.21248
2942.84317,0.20934
2944.77164,0.20322
2946.70011,0.19860
2948.62858,0.19972
2950.55705,0.20658
2952.48552,0.21172
2954.41399,0.21259
2956.34245,0.20970
2958.27092,0.20504
2960.19939,0.20377
2962.12786,0.20385
2964.05633,0.20317
2965.98480,0.20249
2967.91327,0.20305
2969.84174,0.21006
2971.77020,0.21979
2973.69867,0.22333
2975.62714,0.21807
2977.55561,0.20863
2979.48408,0.20651
2981.41255,0.21250
2983.34102,0.21675
2985.26948,0.21754
2987.19795,0.21782
2989.12642,0.22032
2991.05489,0.22617
2992.98336,0.23147
2994.91183,0.23109
2996.84030,0.22372
2998.76877,0.21700
3000.69723,0.21837
3002.62570,0.22261
3004.55417,0.22326
3006.48264,0.22087
3008.41111,0.21641
3010.33958,0.20957
3012.26805,0.19553
3014.19651,0.16856
3016.12498,0.14550
3018.05345,0.15433
3019.98192,0.18657
3021.91039,0.21169
3023.83886,0.22344
3025.76733,0.22827
3027.69579,0.22771
3029.62426,0.22432
3031.55273,0.21934
3033.48120,0.21349
3035.40967,0.21040
3037.33814,0.21156
3039.26661,0.21630
3041.19508,0.22246
3043.12354,0.22597
3045.05201,0.22344
3046.98048,0.21625
3048.90895,0.21228
3050.83742,0.21346
3052.76589,0.21488
3054.69436,0.21591
3056.62282,0.21688
3058.55129,0.22094
3060.47976,0.22781
3062.40823,0.22752
3064.33670,0.21670
3066.26517,0.20355
3068.19364,0.20038
3070.12211,0.20906
3072.05057,0.21618
3073.97904,0.21354
3075.90751,0.21048
3077.83598,0.21657
3079.76445,0.22485
3081.69292,0.22466
3083.62139,0.21326
3085.54985,0.20106
3087.47832,0.20243
3089.40679,0.21185
3091.33526,0.21587
3093.26373,0.21200
3095.19220,0.20940
3097.12067,0.21555
3099.04914,0.22032
3100.97760,0.21184
3102.90607,0.19734
3104.83454,0.19528
3106.76301,0.20690
3108.69148,0.21693
3110.61995,0.21705
3112.54842,0.21127
3114.47688,0.21058
3116.40535,0.21812
3118.33382,0.22390
3120.26229,0.21900
3122.19076,0.21038
3124.11923,0.21228
3126.04770,0.22198
3127.97617,0.22770
3129.90463,0.22756
3131.83310,0.22620
3133.76157,0.22482
3135.69004,0.22063
3137.61851,0.21446
3139.54698,0.21286
3141.47545,0.21837
3143.40391,0.22590
3145.33238,0.22973
3147.26085,0.22694
3149.18932,0.22309
3151.11779,0.22302
3153.04626,0.22094
3154.97473,0.21615
3156.90320,0.21435
3158.83166,0.21709
3160.76013,0.22321
3162.68860,0.23060
3164.61707,0.23511
3166.54554,0.23458
3168.47401,0.23266
3170.40248,0.23162
3172.33094,0.22893
3174.25941,0.22509
3176.18788,0.22483
3178.11635,0.22906
3180.04482,0.23446
3181.97329,0.23785
3183.90176,0.23660
3185.83022,0.23028
3187.75869,0.22054
3189.68716,0.21273
3191.61563,0.21073
3193.54410,0.21260
3195.47257,0.21920
3197.40104,0.23074
3199.32951,0.23988
3201.25797,0.24066
3203.18644,0.23505
3205.11491,0.22708
3207.04338,0.21876
3208.97185,0.21247
3210.90032,0.21125
3212.82879,0.21754
3214.75725,0.22754
3216.68572,0.23226
3218.61419,0.22910
3220.54266,0.22178
3222.47113,0.21399
3224.39960,0.20796
3226.32807,0.20718
3228.25654,0.21270
3230.18500,0.21924
3232.11347,0.22382
3234.04194,0.22606
3235.97041,0.22613
3237.89888,0.22620
3239.82735,0.22378
3241.75582,0.21569
3243.68428,0.20624
3245.61275,0.20266
3247.54122,0.20691
3249.46969,0.21373
3251.39816,0.21994
3253.32663,0.22446
3255.25510,0.22341
3257.18357,0.21934
3259.11203,0.21751
3261.04050,0.21631
3262.96897,0.21508
3264.89744,0.21739
3266.82591,0.22422
3268.75438,0.23002
3270.68285,0.22881
3272.61131,0.22441
3274.53978,0.22204
3276.46825,0.21786
3278.39672,0.21301
3280.32519,0.21511
3282.25366,0.22046
3284.18213,0.22197
3286.11060,0.22269
3288.03906,0.22620
3289.96753,0.22712
3291.89600,0.22055
3293.82447,0.21244
3295.75294,0.20938
3297.68141,0.21038
3299.60988,0.21201
3301.53834,0.21406
3303.46681,0.21845
3305.39528,0.22178
3307.32375,0.22211
3309.25222,0.22176
3311.18069,0.21731
3313.10916,0.20831
3315.03763,0.20233
3316.96609,0.20538
3318.89456,0.21722
3320.82303,0.22854
3322.75150,0.23155
3324.67997,0.22800
3326.60844,0.22192
3328.53691,0.21819
3330.46537,0.21634
3332.39384,0.21286
3334.32231,0.21345
3336.25078,0.22138
3338.17925,0.22833
3340.10772,0.23021
3342.03619,0.23176
3343.96466,0.23228
3345.89312,0.22858
3347.82159,0.22242
3349.75006,0.21516
3351.67853,0.21170
3353.60700,0.21815
3355.53547,0.22788
3357.46394,0.22967
3359.39240,0.22498
3361.32087,0.22155
3363.24934,0.22201
3365.17781,0.22251
3367.10628,0.22024
3369.03475,0.21956
3370.96322,0.22248
3372.89168,0.22585
3374.82015,0.22896
3376.74862,0.23154
3378.67709,0.23079
3380.60556,0.22607
3382.53403,0.21979
3384.46250,0.21647
3386.39097,0.22016
3388.31943,0.22612
3390.24790,0.22932
3392.17637,0.23195
3394.10484,0.23302
3396.03331,0.22956
3397.96178,0.22327
3399.89025,0.21529
3401.81871,0.20789
3403.74718,0.20765
3405.67565,0.21440
3407.60412,0.22277
3409.53259,0.22839
3411.46106,0.22616
3413.38953,0.21939
3415.31800,0.21463
3417.24646,0.21083
3419.17493,0.20744
3421.10340,0.20768
3423.03187,0.21138
3424.96034,0.21532
3426.88881,0.21836
3428.81728,0.22014
3430.74574,0.22053
3432.67421,0.21862
3434.60268,0.21176
3436.53115,0.20250
3438.45962,0.20020
3440.38809,0.20888
3442.31656,0.22024
3444.24503,0.22701
3446.17349,0.22980
3448.10196,0.22678
3450.03043,0.21850
3451.95890,0.21037
3453.88737,0.20347
3455.81584,0.19961
3457.74431,0.20189
3459.67277,0.20827
3461.60124,0.21446
3463.52971,0.21583
3465.45818,0.21357
3467.38665,0.21213
3469.31512,0.20968
3471.24359,0.20567
3473.17206,0.20247
3475.10052,0.20120
3477.02899,0.20303
3478.95746,0.20961
3480.88593,0.21836
3482.81440,0.21902
3484.74287,0.21045
3486.67134,0.20105
3488.59980,0.19437
3490.52827,0.19197
3492.45674,0.19363
3494.38521,0.19610
3496.31368,0.19634
3498.24215,0.19678
3500.17062,0.20129
3502.09909,0.20419
3504.02755,0.19724
3505.95602,0.18811
3507.88449,0.18758
3509.81296,0.19122
3511.74143,0.19101
3513.66990,0.18911
3515.59837,0.19053
3517.52683,0.19327
3519.45530,0.19406
3521.38377,0.19590
3523.31224,0.19879
3525.24071,0.19791
3527.16918,0.19490
3529.09765,0.19326
3531.02611,0.19003
3532.95458,0.18609
3534.88305,0.18507
3536.81152,0.18282
3538.73999,0.17829
3540.66846,0.17807
3542.59693,0.18436
3544.52540,0.19048
3546.45386,0.18711
3548.38233,0.18186
3550.31080,0.18571
3552.23927,0.19142
3554.16774,0.18834
3556.09621,0.17941
3558.02468,0.17430
3559.95314,0.17389
3561.88161,0.17468
3563.81008,0.18500
3565.73855,0.20594
3567.66702,0.20802
3569.59549,0.18721
3571.52396,0.17334
3573.45243,0.16803
3575.38089,0.16390
3577.30936,0.16194
3579.23783,0.16591
3581.16630,0.17315
3583.09477,0.18014
3585.02324,0.19096
3586.95171,0.20037
3588.88017,0.18969
3590.80864,0.17454
3592.73711,0.17148
3594.66558,0.17146
3596.59405,0.16658
3598.52252,0.16507
3600.45099,0.16981
3602.37946,0.17273
3604.30792,0.17274
3606.23639,0.17316
3608.16486,0.17200
3610.09333,0.17114
3612.02180,0.17464
3613.95027,0.17624
3615.87874,0.17531
3617.80720,0.17974
3619.73567,0.18155
3621.66414,0.17309
3623.59261,0.16705
3625.52108,0.17023
3627.44955,0.18023
3629.37802,0.17851
3631.30649,0.16382
3633.23495,0.15855
3635.16342,0.15936
3637.09189,0.15984
3639.02036,0.15870
3640.94883,0.15565
3642.87730,0.15414
3644.80577,0.15886
3646.73423,0.17051
3648.66270,0.18075
3650.59117,0.17588
3652.51964,0.16910
3654.44811,0.16996
3656.37658,0.16691
3658.30505,0.15266
3660.23352,0.14191
3662.16198,0.13875
3664.09045,0.14040
3666.01892,0.14664
3667.94739,0.15885
3669.87586,0.17292
3671.80433,0.17788
3673.73280,0.18751
3675.66126,0.19635
3677.58973,0.17875
3679.51820,0.16058
3681.44667,0.15317
3683.37514,0.15156
3685.30361,0.15615
3687.23208,0.17146
3689.16055,0.18748
3691.08901,0.17500
3693.01748,0.15261
3694.94595,0.14328
3696.87442,0.13921
3698.80289,0.13644
3700.73136,0.14080
3702.65983,0.14581
3704.58829,0.14570
3706.51676,0.15059
3708.44523,0.16649
3710.37370,0.18354
3712.30217,0.17695
3714.23064,0.15670
3716.15911,0.14505
3718.08757,0.14232
3720.01604,0.14706
3721.94451,0.15671
3723.87298,0.16378
3725.80145,0.16116
3727.72992,0.15229
3729.65839,0.15301
3731.58686,0.16787
3733.51532,0.18251
3735.44379,0.18035
3737.37226,0.16602
3739.30073,0.15932
3741.22920,0.16759
3743.15767,0.18481
3745.08614,0.19024
3747.01460,0.18274
3748.94307,0.18549
3750.87154,0.18606
3752.80001,0.16539
3754.72848,0.15091
3756.65695,0.15246
3758.58542,0.15724
3760.51389,0.15271
3762.44235,0.14798
3764.37082,0.14822
3766.29929,0.14430
3768.22776,0.13626
3770.15623,0.13130
3772.08470,0.12801
3774.01317,0.12867
3775.94163,0.13698
3777.87010,0.14826
3779.79857,0.15127
3781.72704,0.14458
3783.65551,0.13986
3785.58398,0.13654
3787.51245,0.12989
3789.44092,0.12613
3791.36938,0.12905
3793.29785,0.13668
3795.22632,0.14737
3797.15479,0.15660
3799.08326,0.16312
3801.01173,0.16487
3802.94020,0.15368
3804.86866,0.14424
3806.79713,0.14030
3808.72560,0.13437
3810.65407,0.12943
3812.58254,0.12990
3814.51101,0.13721
3816.43948,0.14717
3818.36795,0.15552
3820.29641,0.16210
3822.22488,0.15411
3824.15335,0.14367
3826.08182,0.14485
3828.01029,0.15041
3829.93876,0.15626
3831.86723,0.15999
3833.79569,0.15550
3835.72416,0.14871
3837.65263,0.14595
3839.58110,0.14294
3841.50957,0.14069
3843.43804,0.14012
3845.36651,0.13831
3847.29498,0.13797
3849.22344,0.14534
3851.15191,0.16642
3853.08038,0.18759
3855.00885,0.16362
3856.93732,0.13538
3858.86579,0.12783
3860.79426,0.13518
3862.72272,0.14814
3864.65119,0.15065
3866.57966,0.14674
3868.50813,0.15098
3870.43660,0.15256
3872.36507,0.14322
3874.29354,0.13617
3876.22200,0.13176
3878.15047,0.13067
3880.07894,0.13670
3882.00741,0.14164
3883.93588,0.14093
3885.86435,0.13583
3887.79282,0.12772
3889.72129,0.12402
3891.64975,0.12268
3893.57822,0.11764
3895.50669,0.11578
3897.43516,0.12431
3899.36363,0.14031
3901.29210,0.15018
3903.22057,0.14768
3905.14903,0.13609
3907.07750,0.12062
3909.00597,0.10966
3910.93444,0.10755
3912.86291,0.11306
3914.79138,0.12344
3916.71985,0.13434
3918.64832,0.13706
3920.57678,0.12933
3922.50525,0.12056
3924.43372,0.11820
3926.36219,0.11921
3928.29066,0.11893
3930.21913,0.11988
3932.14760,0.12274
3934.07606,0.12226
3936.00453,0.12068
3937.93300,0.12163
3939.86147,0.12173
3941.78994,0.12017
3943.71841,0.11984
3945.64688,0.12020
3947.57535,0.11947
3949.50381,0.12006
3951.43228,0.12420
3953.36075,0.12837
3955.28922,0.12974
3957.21769,0.12559
3959.14616,0.11427
3961.07463,0.10331
3963.00309,0.10142
3964.93156,0.10757
3966.86003,0.11411
3968.78850,0.11601
3970.71697,0.11592
3972.64544,0.11491
3974.57391,0.11106
3976.50238,0.10817
3978.43084,0.10711
3980.35931,0.10370
3982.28778,0.09962
3984.21625,0.10180
3986.14472,0.11202
3988.07319,0.12281
3990.00166,0.12503
3991.93012,0.11843
3993.85859,0.10948
3995.78706,0.10234
3997.71553,0.10025
3999.64400,0.10400
4001.57247,0.10934
4003.50094,0.11403
4005.42941,0.11719
4007.35787,0.11504
4009.28634,0.10693
4011.21481,0.09711
4013.14328,0.09104
4015.07175,0.09055
4017.00022,0.09142
4018.92869,0.09269
4020.85715,0.09693
4022.78562,0.10244
4024.71409,0.10598
4026.64256,0.10583
4028.57103,0.10236
4030.49950,0.09766
4032.42797,0.09481
4034.35644,0.09570
4036.28490,0.09799
4038.21337,0.09825
4040.14184,0.09703
4042.07031,0.09617
4043.99878,0.09454
4045.92725,0.09070
4047.85572,0.08632
4049.78418,0.08552
4051.71265,0.08991
4053.64112,0.09587
4055.56959,0.09906
4057.49806,0.09895
4059.42653,0.09775
4061.35500,0.09608
4063.28346,0.09278
4065.21193,0.08777
4067.14040,0.08494
4069.06887,0.08834
4070.99734,0.09374
4072.92581,0.09682
4074.85428,0.10162
4076.78275,0.10821
4078.71121,0.10684
4080.63968,0.09446
4082.56815,0.08155
4084.49662,0.07854
4086.42509,0.08466
4088.35356,0.09170
4090.28203,0.09692
4092.21049,0.10139
4094.13896,0.10295
4096.06743,0.09958
4097.99590,0.09250
4099.92437,0.08699
4101.85284,0.08589
4103.78131,0.08610
4105.70978,0.08627
4107.63824,0.08802
4109.56671,0.09078
4111.49518,0.09173
4113.42365,0.08936
4115.35212,0.08554
4117.28059,0.08401
4119.20906,0.08553
4121.13752,0.08772
4123.06599,0.09102
4124.99446,0.09869
4126.92293,0.10885
4128.85140,0.11136
4130.77987,0.10218
4132.70834,0.08902
4134.63681,0.07800
4136.56527,0.07176
4138.49374,0.07107
4140.42221,0.07310
4142.35068,0.07590
4144.27915,0.08104
4146.20762,0.08837
4148.13609,0.09238
4150.06455,0.09112
4151.99302,0.08696
4153.92149,0.07924
4155.84996,0.07271
4157.77843,0.07504
4159.70690,0.08093
4161.63537,0.08264
4163.56384,0.08228
4165.49230,0.08282
4167.42077,0.08342
4169.34924,0.07986
4171.27771,0.07352
4173.20618,0.07246
4175.13465,0.07765
4177.06312,0.08478
4178.99158,0.08825
4180.92005,0.08478
4182.84852,0.07848
4184.77699,0.07428
4186.70546,0.07337
4188.63393,0.07390
4190.56240,0.07510
4192.49087,0.07879
4194.41933,0.08277
4196.34780,0.08388
4198.27627,0.08267
4200.20474,0.07878
4202.13321,0.07419
4204.06168,0.07127
4205.99015,0.06753
4207.91861,0.06461
4209.84708,0.06558
4211.77555,0.07016
4213.70402,0.07883
4215.63249,0.08734
4217.56096,0.08799
4219.48943,0.07976
4221.41789,0.06845
4223.34636,0.06187
4225.27483,0.06243
4227.20330,0.06288
4229.13177,0.06040
4231.06024,0.06167
4232.98871,0.06668
4234.91718,0.07069
4236.84564,0.07307
4238.77411,0.06979
4240.70258,0.05877
4242.63105,0.05119
4244.55952,0.05536
4246.48799,0.06356
4248.41646,0.06687
4250.34492,0.06487
4252.27339,0.06031
4254.20186,0.05595
4256.13033,0.05374
4258.05880,0.05266
4259.98727,0.05224
4261.91574,0.05355
4263.84421,0.05621
4265.77267,0.05954
4267.70114,0.06278
4269.62961,0.06548
4271.55808,0.06507
4273.48655,0.05974
4275.41502,0.05405
4277.34349,0.05112
4279.27195,0.04977
4281.20042,0.05403
4283.12889,0.06691
4285.05736,0.07729
4286.98583,0.07425
4288.91430,0.06154
4290.84277,0.05118
4292.77124,0.04956
4294.69970,0.05195
4296.62817,0.05635
4298.55664,0.06233
4300.48511,0.06500
4302.41358,0.06509
4304.34205,0.06506
4306.27052,0.06196
4308.19898,0.05433
4310.12745,0.04642
4312.05592,0.04288
4313.98439,0.04366
4315.91286,0.04682
4317.84133,0.05391
4319.76980,0.06214
4321.69827,0.06432
4323.62673,0.06122
4325.55520,0.05574
4327.48367,0.04889
4329.41214,0.04462
4331.34061,0.04579
4333.26908,0.05102
4335.19755,0.05708
4337.12601,0.05989
4339.05448,0.05770
4340.98295,0.05266
4342.91142,0.04582
4344.83989,0.03807
4346.76836,0.03385
4348.69683,0.03331
4350.62530,0.03044
4352.55376,0.02766
4354.48223,0.03144
4356.41070,0.04114
4358.33917,0.05023
4360.26764,0.04950
4362.19611,0.04043
4364.12458,0.03321
4366.05304,0.03324
4367.98151,0.03732
4369.90998,0.03784
4371.83845,0.03699
4373.76692,0.04051
4375.69539,0.04046
4377.62386,0.03221
4379.55232,0.02748
4381.48079,0.02973
4383.40926,0.03179
4385.33773,0.03316
4387.26620,0.03809
4389.19467,0.04713
4391.12314,0.05251
4393.05161,0.05049
4394.98007,0.04623
4396.90854,0.03981
4398.83701,0.03064
4400.76548,0.02614
4402.69395,0.03009
4404.62242,0.03608
4406.55089,0.03945
4408.47935,0.04245
4410.40782,0.04291
4412.33629,0.03577
4414.26476,0.02755
4416.19323,0.02348
4418.12170,0.02120
4420.05017,0.02546
4421.97864,0.03529
4423.90710,0.03942
4425.83557,0.03599
4427.76404,0.03214
4429.69251,0.02918
4431.62098,0.02380
4433.54945,0.01720
4435.47792,0.01252
4437.40638,0.01269
4439.33485,0.01786
4441.26332,0.02140
4443.19179,0.01898
4445.12026,0.01615
4447.04873,0.01844
4448.97720,0.02162
4450.90567,0.01922
4452.83413,0.01247
4454.76260,0.00907
4456.69107,0.01254
4458.61954,0.01795
4460.54801,0.02050
4462.47648,0.01816
4464.40495,0.01022
4466.33341,0.00187
4468.26188,0.00160
4470.19035,0.00869
4472.11882,0.01139
4474.04729,0.01124
4475.97576,0.01923
4477.90423,0.02572
4479.83270,0.02164
4481.76116,0.01873
4483.68963,0.01881
4485.61810,0.00995
4487.54657,-0.00258
4489.47504,-0.00517
4491.40351,0.00120
4493.33198,0.00826
4495.26044,0.01552
4497.18891,0.02749
4499.11738,0.03687
4501.04585,0.03070
4502.97432,0.01211
4504.90279,-0.00079
4506.83126,0.00171
4508.75973,0.01241
4510.68819,0.02048
4512.61666,0.01854
4514.54513,0.01335
4516.47360,0.01758
4518.40207,0.02300
4520.33054,0.01718
4522.25901,0.00709
4524.18747,0.00234
4526.11594,0.00663
4528.04441,0.02036
4529.97288,0.03028
4531.90135,0.02535
4533.82982,0.01566
4535.75829,0.01131
4537.68676,0.00595
4539.61522,-0.00400
4541.54369,-0.00623
4543.47216,0.00449
4545.40063,0.01704
4547.32910,0.02354
4549.25757,0.02578
4551.18604,0.02388
4553.11450,0.01453
4555.04297,-0.00018
4556.97144,-0.01217
4558.89991,-0.01217
4560.82838,-0.00015
4562.75685,0.01459
4564.68532,0.02596
4566.61378,0.02841
4568.54225,0.01928
4570.47072,0.00790
4572.39919,0.00170
4574.32766,-0.00082
4576.25613,0.00096
4578.18460,0.00565
4580.11307,0.00766
4582.04153,0.01052
4583.97000,0.01891
4585.89847,0.02603
4587.82694,0.02291
4589.75541,0.00804
4591.68388,-0.00721
4593.61235,-0.01065
4595.54081,-0.00238
4597.46928,0.01269
4599.39775,0.02221
4601.32622,0.01985
4603.25469,0.01655
4605.18316,0.01509
4607.11163,0.00705
4609.04010,-0.00686
4610.96856,-0.01292
4612.89703,-0.00617
4614.82550,0.00114
4616.75397,0.00521
4618.68244,0.00924
4620.61091,0.01267
4622.53938,0.01411
4624.46784,0.00612
4626.39631,-0.00982
4628.32478,-0.01899
4630.25325,-0.01694
4632.18172,-0.00857
4634.11019,0.00358
4636.03866,0.01836
4637.96713,0.02871
4639.89559,0.02434
4641.82406,0.00793
4643.75253,-0.00679
4645.68100,-0.01162
4647.60947,-0.00724
4649.53794,-0.00101
4651.46641,0.00255
4653.39487,0.00638
4655.32334,0.01167
4657.25181,0.01251
4659.18028,0.00309
4661.10875,-0.00855
4663.03722,-0.00980
4664.96569,-0.00294
4666.89416,0.00328
4668.82262,0.00772
4670.75109,0.01047
4672.67956,0.00894
4674.60803,0.00432
4676.53650,-0.00206
4678.46497,-0.00489
4680.39344,0.00282
4682.32190,0.01373
4684.25037,0.02066
4686.17884,0.02668
4688.10731,0.02901
4690.03578,0.02348
4691.96425,0.01765
4693.89272,0.01256
4695.82119,0.00454
4697.74965,-0.00132
4699.67812,-0.00201
4701.60659,-0.00239
4703.53506,-0.00264
4705.46353,0.00082
4707.39200,0.00666
4709.32047,0.00707
4711.24893,-0.00304
4713.17740,-0.01825
4715.10587,-0.02762
4717.03434,-0.02260
4718.96281,-0.00459
4720.89128,0.01059
4722.81975,0.00642
4724.74821,-0.00275
4726.67668,-0.00135
4728.60515,0.00473
4730.53362,0.00992
4732.46209,0.00940
4734.39056,-0.00248
4736.31903,-0.00735
4738.24750,0.00404
4740.17596,0.00947
4742.10443,0.00884
4744.03290,0.01809
4745.96137,0.02991
4747.88984,0.03078
4749.81831,0.01815
4751.74678,-0.00276
4753.67524,-0.02064
4755.60371,-0.01840
4757.53218,0.00065
4759.46065,0.01541
4761.38912,0.02180
4763.31759,0.02681
4765.24606,0.02509
4767.17453,0.01420
4769.10299,0.00302
4771.03146,-0.00760
4772.95993,-0.01731
4774.88840,-0.01532
4776.81687,-0.00240
4778.74534,0.00739
4780.67381,0.01050
4782.60227,0.00803
4784.53074,-0.00011
4786.45921,-0.00548
4788.38768,-0.00737
4790.31615,-0.00844
4792.24462,0.00122
4794.17309,0.01691
4796.10156,0.01952
4798.03002,0.01149
4799.95849,0.00551
4801.88696,0.00280
4803.81543,0.00006
4805.74390,-0.00741
4807.67237,-0.01649
4809.60084,-0.00882
4811.52930,0.01500
4813.45777,0.02728
4815.38624,0.02169
4817.31471,0.00931
4819.24318,-0.00407
4821.17165,-0.00446
4823.10012,0.00742
4825.02859,0.01527
4826.95705,0.01702
4828.88552,0.02181
4830.81399,0.03060
4832.74246,0.02959
4834.67093,0.01584
4836.59940,0.00721
4838.52787,0.00696
4840.45633,-0.00031
4842.38480,-0.01247
4844.31327,-0.01608
4846.24174,-0.00903
4848.17021,0.00617
4850.09868,0.02147
4852.02715,0.02402
4853.95562,0.01631
4855.88408,0.01089
4857.81255,0.00681
4859.74102,0.00068
4861.66949,-0.00118
4863.59796,0.00137
4865.52643,0.00046
4867.45490,-0.00106
4869.38336,0.00569
4871.31183,0.00840
4873.24030,-0.00262
4875.16877,-0.00778
4877.09724,0.00254
4879.02571,0.01660
4880.95418,0.02119
4882.88265,0.01362
4884.81111,-0.00077
4886.73958,-0.00587
4888.66805,0.00549
4890.59652,0.01126
4892.52499,-0.00159
4894.45346,-0.01135
4896.38193,-0.00334
4898.31039,0.00511
4900.23886,0.00448
4902.16733,0.00589
4904.09580,0.00829
4906.02427,0.00658
4907.95274,0.00023
4909.88121,-0.00728
4911.80967,-0.00572
4913.73814,0.00324
4915.66661,0.01129
4917.59508,0.01568
4919.52355,0.01427
4921.45202,0.00406
4923.38049,-0.01237
4925.30896,-0.02241
4927.23742,-0.02165
4929.16589,-0.01534
4931.09436,-0.00366
4933.02283,0.01120
4934.95130,0.02230
4936.87977,0.02273
4938.80824,0.01457
4940.73670,0.00986
4942.66517,0.00873
4944.59364,-0.00015
4946.52211,-0.01183
4948.45058,-0.01250
4950.37905,0.00112
4952.30752,0.02172
4954.23599,0.03383
4956.16445,0.02881
4958.09292,0.01086
4960.02139,-0.00674
4961.94986,-0.00652
4963.87833,0.00675
4965.80680,0.01230
4967.73527,0.01276
4969.66373,0.01999
4971.59220,0.02397
4973.52067,0.01614
4975.44914,0.00765
4977.37761,0.00824
4979.30608,0.01224
4981.23455,0.01508
4983.16302,0.02066
4985.09148,0.02350
4987.01995,0.02141
4988.94842,0.02313
4990.87689,0.02364
4992.80536,0.01130
4994.73383,-0.00554
4996.66230,-0.00689
4998.59076,0.00618
5000.51923,0.02186
5002.44770,0.03917
5004.37617,0.05091
5006.30464,0.04672
5008.23311,0.02925
5010.16158,0.01028
5012.09005,-0.00047
5014.01851,-0.00425
5015.94698,-0.00714
5017.87545,-0.00468
5019.80392,0.01007
5021.73239,0.02593
5023.66086,0.03113
5025.58933,0.02471
5027.51779,0.01158
5029.44626,0.00168
5031.37473,-0.00269
5033.30320,-0.00506
5035.23167,-0.00426
5037.16014,0.00753
5039.08861,0.02967
5041.01708,0.04468
5042.94554,0.03961
5044.87401,0.01817
5046.80248,-0.00468
5048.73095,-0.01214
5050.65942,-0.00427
5052.58789,0.00772
5054.51636,0.02269
5056.44482,0.03229
5058.37329,0.02744
5060.30176,0.01827
5062.23023,0.00894
5064.15870,-0.00008
5066.08717,-0.00322
5068.01564,-0.00297
5069.94410,0.00567
5071.87257,0.03037
5073.80104,0.04544
5075.72951,0.03099
5077.65798,0.01610
5079.58645,0.01937
5081.51492,0.01953
5083.44339,0.00861
5085.37185,0.00509
5087.30032,0.00883
5089.22879,0.01047
5091.15726,0.01999
5093.08573,0.03424
5095.01420,0.03642
5096.94267,0.02667
5098.87113,0.02091
5100.79960,0.02635
5102.72807,0.03439
5104.65654,0.03964
5106.58501,0.04673
5108.51348,0.05693
5110.44195,0.05586
5112.37042,0.03305
5114.29888,0.00791
5116.22735,0.00394
5118.15582,0.00794
5120.08429,0.00274
5122.01276,0.00573
5123.94123,0.02573
5125.86970,0.04351
5127.79816,0.04275
5129.72663,0.02294
5131.65510,-0.00230
5133.58357,-0.01324
5135.51204,-0.00290
5137.44051,0.01622
5139.36898,0.02846
5141.29745,0.03211
5143.22591,0.04267
5145.15438,0.05900
5147.08285,0.05606
5149.01132,0.04210
5150.93979,0.03973
5152.86826,0.03976
5154.79673,0.03488
5156.72519,0.02646
5158.65366,0.01627
5160.58213,0.02186
5162.51060,0.04623
5164.43907,0.05628
5166.36754,0.03745
5168.29601,0.01590
5170.22448,0.00762
5172.15294,0.00785
5174.08141,0.01303
5176.00988,0.02441
5177.93835,0.03674
5179.86682,0.04386
5181.79529,0.04728
5183.72376,0.03966
5185.65222,0.01943
5187.58069,0.00909
5189.50916,0.01499
5191.43763,0.02287
5193.36610,0.03218
5195.29457,0.04180
5197.22304,0.04429
5199.15151,0.04906
5201.07997,0.04862
5203.00844,0.02991
5204.93691,0.01206
5206.86538,0.00308
5208.79385,0.00128
5210.72232,0.01980
5212.65079,0.04806
5214.57925,0.06522
5216.50772,0.06888
5218.43619,0.06599
5220.36466,0.05834
5222.29313,0.04115
5224.22160,0.02699
5226.15007,0.04000
5228.07854,0.06947
5230.00700,0.08655
5231.93547,0.08843
5233.86394,0.08326
5235.79241,0.06742
5237.72088,0.04316
5239.64935,0.02586
5241.57782,0.02144
5243.50628,0.02657
5245.43475,0.03394
5247.36322,0.04237
5249.29169,0.06094
5251.22016,0.07680
5253.14863,0.07028
5255.07710,0.05450
5257.00556,0.05291
5258.93403,0.06276
5260.86250,0.06223
5262.79097,0.04613
5264.71944,0.05026
5266.64791,0.07694
5268.57638,0.08060
5270.50485,0.06300
5272.43331,0.05116
5274.36178,0.04033
5276.29025,0.02759
5278.21872,0.02489
5280.14719,0.03715
5282.07566,0.06071
5284.00413,0.09135
5285.93259,0.11256
5287.86106,0.10027
5289.78953,0.07015
5291.71800,0.05182
5293.64647,0.04155
5295.57494,0.03640
5297.50341,0.04522
5299.43188,0.06608
5301.36034,0.08042
5303.28881,0.08070
5305.21728,0.08041
5307.14575,0.07517
5309.07422,0.05266
5311.00269,0.02585
5312.93116,0.01484
5314.85962,0.02690
5316.78809,0.04323
5318.71656,0.04253
5320.64503,0.04746
5322.57350,0.07374
5324.50197,0.09265
5326.43044,0.08656
5328.35891,0.05898
5330.28737,0.02686
5332.21584,0.02087
5334.14431,0.04520
5336.07278,0.07123
5338.00125,0.08172
5339.92972,0.07440
5341.85819,0.06049
5343.78665,0.04573
5345.71512,0.02489
5347.64359,0.01280
5349.57206,0.02650
5351.50053,0.06058
5353.42900,0.08893
5355.35747,0.09602
5357.28594,0.09308
5359.21440,0.07959
5361.14287,0.05361
5363.07134,0.01965
5364.99981,-0.00440
5366.92828,0.00506
5368.85675,0.03854
5370.78522,0.07657
5372.71368,0.10515
5374.64215,0.11231
5376.57062,0.09850
5378.49909,0.07581
5380.42756,0.05120
5382.35603,0.02618
5384.28450,0.01442
5386.21297,0.03180
5388.14143,0.05170
5390.06990,0.05475
5391.99837,0.06218
5393.92684,0.07265
5395.85531,0.06952
5397.78378,0.05721
5399.71225,0.04251
5401.64071,0.03645
5403.56918,0.04335
5405.49765,0.05387
5407.42612,0.05457
5409.35459,0.05004
5411.28306,0.06456
5413.21153,0.08360
5415.13999,0.07025
5417.06846,0.04694
5418.99693,0.03745
5420.92540,0.03442
5422.85387,0.04018
5424.78234,0.05833
5426.71081,0.07424
5428.63928,0.07475
5430.56774,0.06401
5432.49621,0.04793
5434.42468,0.02798
5436.35315,0.01769
5438.28162,0.01862
5440.21009,0.02121
5442.13856,0.02848
5444.06702,0.04134
5445.99549,0.04515
5447.92396,0.03437
5449.85243,0.03159
5451.78090,0.04892
5453.70937,0.06306
5455.63784,0.05990
5457.56631,0.06213
5459.49477,0.07229
5461.42324,0.06790
5463.35171,0.06134
5465.28018,0.06186
5467.20865,0.05835
5469.13712,0.05302
5471.06559,0.04884
5472.99405,0.05326
5474.92252,0.07869
5476.85099,0.10308
5478.77946,0.09504
5480.70793,0.05868
5482.63640,0.03299
5484.56487,0.03750
5486.49334,0.04408
5488.42180,0.05201
5490.35027,0.07383
5492.27874,0.09630
5494.20721,0.10815
5496.13568,0.10755
5498.06415,0.09853
5499.99262,0.08404
5501.92108,0.06659
5503.84955,0.05589
5505.77802,0.06103
5507.70649,0.07034
5509.63496,0.07507
5511.56343,0.08912
5513.49190,0.11071
5515.42037,0.12680
5517.34883,0.12540
5519.27730,0.09558
5521.20577,0.05400
5523.13424,0.02702
5525.06271,0.03207
5526.99118,0.06758
5528.91965,0.10320
5530.84811,0.10973
5532.77658,0.08654
5534.70505,0.05630
5536.63352,0.04093
5538.56199,0.03850
5540.49046,0.03618
5542.41893,0.04259
5544.34740,0.06866
5546.27586,0.10429
5548.20433,0.13840
5550.13280,0.14414
5552.06127,0.10330
5553.98974,0.04694
5555.91821,0.02069
5557.84668,0.03364
5559.77514,0.05476
5561.70361,0.06654
5563.63208,0.07498
5565.56055,0.08462
5567.48902,0.07770
5569.41749,0.05236
5571.34596,0.03752
5573.27443,0.02642
5575.20289,0.01919
5577.13136,0.03792
5579.05983,0.06763
5580.98830,0.09323
5582.91677,0.11791
5584.84524,0.12880
5586.77371,0.11794
5588.70217,0.09706
5590.63064,0.07384
5592.55911,0.05890
5594.48758,0.05711
5596.41605,0.07612
5598.34452,0.12332
5600.27299,0.16227
5602.20145,0.16107
5604.12992,0.13216
5606.05839,0.09098
5607.98686,0.05374
5609.91533,0.04107
5611.84380,0.05407
5613.77227,0.07508
5615.70074,0.08872
5617.62920,0.09965
5619.55767,0.10391
5621.48614,0.08310
5623.41461,0.05179
5625.34308,0.03055
5627.27155,0.02915
5629.20002,0.05684
5631.12848,0.09834
5633.05695,0.12977
5634.98542,0.13553
5636.91389,0.11088
5638.84236,0.07653
5640.77083,0.05907
5642.69930,0.05082
5644.62777,0.04481
5646.55623,0.05488
5648.48470,0.07404
5650.41317,0.08462
5652.34164,0.08701
5654.27011,0.08526
5656.19858,0.07768
5658.12705,0.06929
5660.05551,0.06332
5661.98398,0.06820
5663.91245,0.08263
5665.84092,0.08166
5667.76939,0.08095
5669.69786,0.11046
5671.62633,0.14397
5673.55480,0.14357
5675.48326,0.11595
5677.41173,0.08622
5679.34020,0.06148
5681.26867,0.04938
5683.19714,0.06388
5685.12561,0.08898
5687.05408,0.10548
5688.98254,0.11558
5690.91101,0.10302
5692.83948,0.07577
5694.76795,0.06232
5696.69642,0.04482
5698.62489,0.02505
5700.55336,0.03027
5702.48183,0.06136
5704.41029,0.10284
5706.33876,0.13440
5708.26723,0.15297
5710.19570,0.14300
5712.12417,0.09044
5714.05264,0.03376
5715.98111,0.02725
5717.90957,0.07190
5719.83804,0.10580
5721.76651,0.10398
5723.69498,0.11361
5725.62345,0.14724
5727.55192,0.15701
5729.48039,0.12395
5731.40886,0.08502
5733.33732,0.06340
5735.26579,0.06501
5737.19426,0.08341
5739.12273,0.11041
5741.05120,0.14191
5742.97967,0.14500
5744.90814,0.11727
5746.83660,0.09773
5748.76507,0.08987
5750.69354,0.07965
5752.62201,0.07853
5754.55048,0.08960
5756.47895,0.10252
5758.40742,0.11366
5760.33588,0.12077
5762.26435,0.12269
5764.19282,0.11528
5766.12129,0.08943
5768.04976,0.06502
5769.97823,0.06599
5771.90670,0.07936
5773.83517,0.08893
5775.76363,0.09240
5777.69210,0.09663
5779.62057,0.10745
5781.54904,0.11114
5783.47751,0.09179
5785.40598,0.05666
5787.33445,0.03426
5789.26291,0.02851
5791.19138,0.02614
5793.11985,0.04330
5795.04832,0.08809
5796.97679,0.11597
5798.90526,0.09022
5800.83373,0.05135
5802.76220,0.04756
5804.69066,0.06078
5806.61913,0.07054
5808.54760,0.09336
5810.47607,0.10808
5812.40454,0.09592
5814.33301,0.08082
5816.26148,0.05500
5818.18994,0.01052
5820.11841,-0.01374
5822.04688,0.00790
5823.97535,0.04542
5825.90382,0.06767
5827.83229,0.08279
5829.76076,0.10157
5831.68923,0.11153
5833.61769,0.09509
5835.54616,0.05790
5837.47463,0.02422
5839.40310,0.01913
5841.33157,0.04904
5843.26004,0.08236
5845.18851,0.10415
5847.11697,0.13506
5849.04544,0.16413
5850.97391,0.15224
5852.90238,0.11024
5854.83085,0.07860
5856.75932,0.08421
5858.68779,0.10647
5860.61626,0.11144
5862.54472,0.12135
5864.47319,0.13589
5866.40166,0.11982
5868.33013,0.08993
5870.25860,0.06487
5872.18707,0.04282
5874.11554,0.04389
5876.04400,0.08957
5877.97247,0.14723
5879.90094,0.16451
5881.82941,0.15714
5883.75788,0.15504
5885.68635,0.14358
5887.61482,0.11152
5889.54329,0.07753
5891.47175,0.07656
5893.40022,0.09963
5895.32869,0.10786
5897.25716,0.10615
5899.18563,0.10464
5901.11410,0.07890
5903.04257,0.02766
5904.97103,-0.00618
5906.89950,0.00116
5908.82797,0.03366
5910.75644,0.05889
5912.68491,0.06808
5914.61338,0.07475
5916.54185,0.09150
5918.47032,0.12241
5920.39878,0.13992
5922.32725,0.12624
5924.25572,0.09465
5926.18419,0.05625
5928.11266,0.04230
5930.04113,0.07187
5931.96960,0.10659
5933.89806,0.11902
5935.82653,0.11449
5937.75500,0.08953
5939.68347,0.06243
5941.61194,0.06190
5943.54041,0.07895
5945.46888,0.08757
5947.39734,0.08420
5949.32581,0.08634
5951.25428,0.09951
5953.18275,0.11145
5955.11122,0.10595
5957.03969,0.08501
5958.96816,0.05459
5960.89663,0.01642
5962.82509,0.00178
5964.75356,0.03583
5966.68203,0.10673
5968.61050,0.15957
5970.53897,0.17161
5972.46744,0.15546
5974.39591,0.09716
5976.32437,0.04809
5978.25284,0.04776
5980.18131,0.05292
5982.10978,0.05484
5984.03825,0.08481
5985.96672,0.15440
5987.89519,0.22241
5989.82366,0.21491
5991.75212,0.12548
5993.68059,0.03667
5995.60906,0.02493
5997.53753,0.06567
5999.46600,0.08381
6001.39447,0.08561
6003.32294,0.11007
6005.25140,0.13425
6007.17987,0.13231
6009.10834,0.11312
6011.03681,0.07550
6012.96528,0.03317
6014.89375,0.02074
6016.82222,0.05082
6018.75069,0.10722
6020.67915,0.15693
6022.60762,0.17318
6024.53609,0.15523
6026.46456,0.11513
6028.39303,0.06184
6030.32150,0.01520
6032.24997,-0.00131
6034.17843,0.00033
6036.10690,0.01053
6038.03537,0.05265
6039.96384,0.10861
6041.89231,0.13583
6043.82078,0.11566
6045.74925,0.07375
6047.67772,0.05788
6049.60618,0.06773
6051.53465,0.07186
6053.46312,0.06879
6055.39159,0.06401
6057.32006,0.06954
6059.24853,0.08621
6061.17700,0.07827
6063.10546,0.03930
6065.03393,0.00311
6066.96240,-0.00786
6068.89087,0.02034
6070.81934,0.08880
6072.74781,0.15195
6074.67628,0.15041
6076.60475,0.11597
6078.53321,0.10406
6080.46168,0.08922
6082.39015,0.05485
6084.31862,0.03535
6086.24709,0.06699
6088.17556,0.13017
6090.10403,0.17068
6092.03249,0.16617
6093.96096,0.15186
6095.88943,0.16950
6097.81790,0.16853
6099.74637,0.12137
6101.67484,0.07980
6103.60331,0.05014
6105.53177,0.03221
6107.46024,0.04448
6109.38871,0.06045
6111.31718,0.08159
6113.24565,0.12781
6115.17412,0.13063
6117.10259,0.06400
6119.03106,0.02075
6120.95952,0.04253
6122.88799,0.07806
6124.81646,0.11057
6126.74493,0.15198
6128.67340,0.18857
6130.60187,0.18121
6132.53034,0.13029
6134.45880,0.06849
6136.38727,0.01917
6138.31574,0.00329
6140.24421,0.02335
6142.17268,0.06808
6144.10115,0.11036
6146.02962,0.10954
6147.95809,0.09136
6149.88655,0.07814
6151.81502,0.05348
6153.74349,0.06028
6155.67196,0.10114
6157.60043,0.12432
6159.52890,0.14571
6161.45737,0.16536
6163.38583,0.14251
6165.31430,0.10365
6167.24277,0.07323
6169.17124,0.02239
6171.09971,-0.00864
6173.02818,0.02765
6174.95665,0.07113
6176.88512,0.07104
6178.81358,0.06865
6180.74205,0.12466
6182.67052,0.19200
6184.59899,0.18534
6186.52746,0.12472
6188.45593,0.09548
6190.38440,0.11662
6192.31286,0.11450
6194.24133,0.07756
6196.16980,0.07357
6198.09827,0.10959
6200.02674,0.12189
6201.95521,0.09349
6203.88368,0.06475
6205.81215,0.06445
6207.74061,0.09900
6209.66908,0.16079
6211.59755,0.19652
6213.52602,0.19456
6215.45449,0.18029
6217.38296,0.13834
6219.31143,0.10007
6221.23989,0.08272
6223.16836,0.04683
6225.09683,0.01320
6227.02530,0.00523
6228.95377,0.01556
6230.88224,0.06487
6232.81071,0.12649
6234.73918,0.14443
6236.66764,0.11238
6238.59611,0.05514
6240.52458,0.02735
6242.45305,0.03953
6244.38152,0.04252
6246.30999,0.06817
6248.23846,0.14912
6250.16692,0.20129
6252.09539,0.17751
6254.02386,0.12813
6255.95233,0.08133
6257.88080,0.05860
6259.80927,0.07344
6261.73774,0.08579
6263.66621,0.07742
6265.59467,0.09999
6267.52314,0.15863
6269.45161,0.16829
6271.38008,0.10638
6273.30855,0.04194
6275.23702,0.03795
6277.16549,0.06507
6279.09395,0.09183
6281.02242,0.12981
6282.95089,0.17729
6284.87936,0.21911
6286.80783,0.21494
6288.73630,0.15098
6290.66477,0.08246
6292.59323,0.03278
6294.52170,-0.03462
6296.45017,-0.08587
6298.37864,-0.04560
6300.30711,0.04931
6302.23558,0.09826
6304.16405,0.11154
6306.09252,0.14071
6308.02098,0.14261
6309.94945,0.09249
6311.87792,0.04778
6313.80639,0.04438
6315.73486,0.07877
6317.66333,0.12707
6319.59180,0.15960
6321.52026,0.17632
6323.44873,0.14621
6325.37720,0.07134
6327.30567,0.04068
6329.23414,0.07344
6331.16261,0.09259
6333.09108,0.08669
6335.01955,0.09285
6336.94801,0.11058
6338.87648,0.16051
6340.80495,0.21638
6342.73342,0.16920
6344.66189,0.04554
6346.59036,-0.04628
6348.51883,-0.10793
6350.44729,-0.12027
6352.37576,-0.04545
6354.30423,0.03863
6356.23270,0.08901
6358.16117,0.11603
6360.08964,0.14003
6362.01811,0.17105
6363.94658,0.15398
6365.87504,0.08150
6367.80351,0.05889
6369.73198,0.10133
6371.66045,0.13754
6373.58892,0.14642
6375.51739,0.12615
6377.44586,0.08076
6379.37432,0.04780
6381.30279,0.03500
6383.23126,0.01160
6385.15973,0.01415
6387.08820,0.06694
6389.01667,0.11659
6390.94514,0.14354
6392.87361,0.16126
6394.80207,0.15227
6396.73054,0.10280
6398.65901,0.04508
6400.58748,0.00997
6402.51595,0.02339
6404.44442,0.09984
6406.37289,0.17270
6408.30135,0.16174
6410.22982,0.10886
6412.15829,0.07481
6414.08676,0.05236
6416.01523,0.02654
6417.94370,0.01330
6419.87217,0.01206
6421.80064,0.00722
6423.72910,0.03882
6425.65757,0.11212
6427.58604,0.14031
6429.51451,0.08506
6431.44298,0.01567
6433.37145,-0.00363
6435.29992,-0.00284
6437.22838,-0.00848
6439.15685,0.00511
6441.08532,0.06429
6443.01379,0.13900
6444.94226,0.15969
6446.87073,0.14710
6448.79920,0.15365
6450.72766,0.14647
6452.65613,0.08179
6454.58460,-0.00964
6456.51307,-0.08913
6458.44154,-0.11051
6460.37001,-0.02450
6462.29848,0.08833
6464.22695,0.10199
6466.15541,0.05368
6468.08388,-0.00585
6470.01235,-0.06980
6471.94082,-0.08897
6473.86929,-0.05517
6475.79776,0.02157
6477.72623,0.11190
6479.65469,0.16468
6481.58316,0.17776
6483.51163,0.16505
6485.44010,0.11275
6487.36857,0.02855
6489.29704,-0.01651
6491.22551,0.01218
6493.15398,0.07367
6495.08244,0.12266
6497.01091,0.13215
6498.93938,0.08827
6500.86785,0.03062
6502.79632,0.02934
6504.72479,0.05187
6506.65326,0.06159
6508.58172,0.09729
6510.51019,0.16654
6512.43866,0.24378
6514.36713,0.29717
6516.29560,0.27444
6518.22407,0.18068
6520.15254,0.10881
6522.08101,0.07864
6524.00947,0.04365
6525.93794,0.01410
6527.86641,0.01942
6529.79488,0.05670
6531.72335,0.10939
6533.65182,0.15401
6535.58029,0.17283
6537.50875,0.14548
6539.43722,0.09336
6541.36569,0.05899
6543.29416,0.03603
6545.22263,0.03778
6547.15110,0.07966
6549.07957,0.10116
6551.00804,0.06488
6552.93650,0.03054
6554.86497,0.00845
6556.79344,-0.04110
6558.72191,-0.09008
6560.65038,-0.09344
6562.57885,-0.06933
6564.50732,-0.03280
6566.43578,0.03836
6568.36425,0.13845
6570.29272,0.22246
6572.22119,0.22701
6574.14966,0.13869
6576.07813,0.02930
6578.00660,-0.02518
6579.93507,-0.01601
6581.86353,0.01479
6583.79200,0.04464
6585.72047,0.07800
6587.64894,0.09855
6589.57741,0.09385
6591.50588,0.07151
6593.43435,0.01005
6595.36281,-0.05085
6597.29128,-0.01940
6599.21975,0.07403
6601.14822,0.14167
6603.07669,0.17056
6605.00516,0.16353
6606.93363,0.11632
6608.86210,0.08608
6610.79056,0.10391
6612.71903,0.11489
6614.64750,0.08628
6616.57597,0.04000
6618.50444,0.02837
6620.43291,0.05552
6622.36138,0.06940
6624.28984,0.05853
6626.21831,0.03821
6628.14678,-0.01587
6630.07525,-0.06714
6632.00372,-0.03725
6633.93219,0.03412
6635.86066,0.09326
6637.78912,0.11326
6639.71759,0.08180
6641.64606,0.00446
6643.57453,-0.08755
6645.50300,-0.13464
6647.43147,-0.12770
6649.35994,-0.08669
6651.28841,-0.01511
6653.21687,0.03613
6655.14534,0.06691
6657.07381,0.13101
6659.00228,0.15846
6660.93075,0.07080
6662.85922,-0.04292
6664.78769,-0.06951
6666.71615,-0.03249
6668.64462,0.02653
6670.57309,0.10796
6672.50156,0.15462
6674.43003,0.14542
6676.35850,0.14844
6678.28697,0.14928
6680.21544,0.09461
6682.14390,0.00001
6684.07237,-0.07397
6686.00084,-0.08974
6687.92931,-0.05437
6689.85778,0.02272
6691.78625,0.09326
6693.71472,0.12217
6695.64318,0.12617
6697.57165,0.08612
6699.50012,-0.00085
6701.42859,-0.05271
6703.35706,-0.01112
6705.28553,0.07267
6707.21400,0.12294
6709.14247,0.13868
6711.07093,0.11948
6712.99940,0.08855
6714.92787,0.10119
6716.85634,0.09712
6718.78481,-0.00258
6720.71328,-0.09728
6722.64175,-0.07450
6724.57021,0.02089
6726.49868,0.12560
6728.42715,0.17799
6730.35562,0.11386
6732.28409,-0.01581
6734.21256,-0.10670
6736.14103,-0.09300
6738.06950,0.01145
6739.99796,0.12646
6741.92643,0.19432
6743.85490,0.20820
6745.78337,0.16091
6747.71184,0.03975
6749.64031,-0.05582
6751.56878,-0.04099
6753.49724,-0.01692
6755.42571,-0.03569
6757.35418,0.02692
6759.28265,0.18469
6761.21112,0.24274
6763.13959,0.14713
6765.06806,0.02762
6766.99653,-0.02079
6768.92499,0.02431
6770.85346,0.07483
6772.78193,0.07216
6774.71040,0.06123
6776.63887,0.07988
6778.56734,0.11571
6780.49581,0.12977
6782.42427,0.09500
6784.35274,0.03922
6786.28121,0.00618
6788.20968,-0.00396
6790.13815,-0.01771
6792.06662,-0.02753
6793.99509,-0.00751
6795.92355,0.02056
6797.85202,0.04313
6799.78049,0.07238
6801.70896,0.08189
6803.63743,0.07238
6805.56590,0.08109
6807.49437,0.07768
6809.42284,0.07340
6811.35130,0.11486
6813.27977,0.14375
6815.20824,0.12614
6817.13671,0.09990
6819.06518,0.06103
6820.99365,0.02338
6822.92212,0.02930
6824.85058,0.10140
6826.77905,0.18558
6828.70752,0.20215
6830.63599,0.14543
6832.56446,0.10350
6834.49293,0.09644
6836.42140,0.08415
6838.34987,0.09369
6840.27833,0.10601
6842.20680,0.08469
6844.13527,0.10170
6846.06374,0.13767
6847.99221,0.08887
6849.92068,0.01936
6851.84915,0.04225
6853.77761,0.09396
6855.70608,0.10968
6857.63455,0.07022
6859.56302,0.02502
6861.49149,0.03469
6863.41996,0.05661
6865.34843,0.06003
6867.27690,0.08463
6869.20536,0.09279
6871.13383,-0.00043
6873.06230,-0.12748
6874.99077,-0.11370
6876.91924,-0.02810
6878.84771,0.00760
6880.77618,0.02296
6882.70464,0.04318
6884.63311,0.00385
6886.56158,-0.08727
6888.49005,-0.14045
6890.41852,-0.09054
6892.34699,0.01894
6894.27546,0.06325
6896.20393,0.06756
6898.13239,0.10602
6900.06086,0.15547
6901.98933,0.18382
6903.91780,0.14860
6905.84627,0.04759
6907.77474,-0.04327
6909.70321,-0.06679
6911.63167,-0.01946
6913.56014,0.08231
6915.48861,0.20585
6917.41708,0.24471
6919.34555,0.12876
6921.27402,0.01243
6923.20249,-0.01263
6925.13096,-0.02726
6927.05942,-0.04061
6928.98789,-0.03064
6930.91636,-0.00120
6932.84483,0.07901
6934.77330,0.20138
6936.70177,0.28321
6938.63024,0.26223
6940.55870,0.12899
6942.48717,-0.01957
6944.41564,-0.13279
6946.34411,-0.19817
6948.27258,-0.13054
6950.20105,0.06751
6952.12952,0.25468
6954.05799,0.28976
6955.98645,0.14569
6957.91492,-0.02572
6959.84339,-0.05327
6961.77186,0.05448
6963.70033,0.10599
6965.62880,0.09200
6967.55727,0.12969
6969.48573,0.19332
6971.41420,0.21443
6973.34267,0.19747
6975.27114,0.12182
6977.19961,0.02041
6979.12808,0.00017
6981.05655,0.04746
6982.98501,0.08552
6984.91348,0.12300
6986.84195,0.16432
6988.77042,0.14962
6990.69889,0.09911
6992.62736,0.07529
6994.55583,0.01461
6996.48430,-0.13907
6998.41276,-0.25633
7000.34123,-0.21576
7002.26970,-0.05743
7004.19817,0.11040
7006.12664,0.18332
7008.05511,0.17572
7009.98358,0.14551
7011.91204,0.05092
7013.84051,-0.05932
7015.76898,-0.06776
7017.69745,-0.00485
7019.62592,0.07190
7021.55439,0.10491
7023.48286,0.08691
7025.41133,0.05987
7027.33979,-0.01132
7029.26826,-0.14834
7031.19673,-0.22202
7033.12520,-0.15136
7035.05367,-0.01291
7036.98214,0.05395
7038.91061,0.07141
7040.83907,0.10443
7042.76754,0.15221
7044.69601,0.18747
7046.62448,0.14852
7048.55295,0.00709
7050.48142,-0.09696
7052.40989,-0.06411
7054.33836,0.03069
7056.26682,0.06933
7058.19529,0.05475
7060.12376,0.09240
7062.05223,0.14230
7063.98070,0.08524
7065.90917,0.02752
7067.83764,0.09039
7069.76610,0.17201
7071.69457,0.16524
7073.62304,0.14114
7075.55151,0.15316
7077.47998,0.17674
7079.40845,0.19409
7081.33692,0.16260
7083.26539,0.01621
7085.19385,-0.10125
7087.12232,0.00448
7089.05079,0.15956
7090.97926,0.12995
7092.90773,0.06308
7094.83620,0.03736
7096.76467,0.00187
7098.69313,-0.00441
7100.62160,0.05586
7102.55007,0.13307
7104.47854,0.20400
7106.40701,0.21864
7108.33548,0.16382
7110.26395,0.16844
7112.19242,0.24232
7114.12088,0.24090
7116.04935,0.10839
7117.97782,-0.05629
7119.90629,-0.09732
7121.83476,-0.05685
7123.76323,-0.02753
7125.69170,-0.00057
7127.62016,0.09678
7129.54863,0.25445
7131.47710,0.31244
7133.40557,0.15927
7135.33404,-0.07573
7137.26251,-0.19053
7139.19098,-0.17370
7141.11944,-0.10608
7143.04791,0.04440
7144.97638,0.22667
7146.90485,0.25217
7148.83332,0.16676
7150.76179,0.08750
7152.69026,-0.00872
7154.61873,-0.15474
7156.54719,-0.23296
7158.47566,-0.15680
7160.40413,-0.03297
7162.33260,0.02207
7164.26107,0.07306
7166.18954,0.17152
7168.11801,0.22121
7170.04647,0.15140
7171.97494,-0.00146
7173.90341,-0.11616
7175.83188,-0.12227
7177.76035,-0.02996
7179.68882,0.10199
7181.61729,0.20955
7183.54576,0.24115
7185.47422,0.17113
7187.40269,0.02267
7189.33116,-0.13376
7191.25963,-0.18497
7193.18810,-0.07121
7195.11657,0.03893
7197.04504,0.03808
7198.97350,0.05613
7200.90197,0.09852
7202.83044,0.08425
7204.75891,0.05539
7206.68738,0.02630
7208.61585,-0.02553
7210.54432,-0.02537
7212.47279,0.06393
7214.40125,0.19235
7216.32972,0.26228
7218.25819,0.13485
7220.18666,-0.08680
7222.11513,-0.21643
7224.04360,-0.23839
7225.97207,-0.19619
7227.90053,-0.20228
7229.82900,-0.18426
7231.75747,-0.01045
7233.68594,0.13340
7235.61441,0.08918
7237.54288,-0.06361
7239.47135,-0.15581
7241.39982,-0.15078
7243.32828,-0.10149
7245.25675,-0.00303
7247.18522,0.11887
7249.11369,0.21065
7251.04216,0.30715
7252.97063,0.34208
7254.89910,0.16800
7256.82756,0.01602
7258.75603,-0.03645
7260.68450,-0.06810
7262.61297,-0.00344
7264.54144,0.13963
7266.46991,0.15086
7268.39838,0.06106
7270.32685,-0.06126
7272.25531,-0.14913
7274.18378,-0.09557
7276.11225,-0.07977
7278.04072,-0.14853
7279.96919,-0.12747
7281.89766,0.02512
7283.82613,0.19181
7285.75459,0.25758
7287.68306,0.18227
7289.61153,0.09420
7291.54000,0.10633
7293.46847,0.11676
7295.39694,0.05146
7297.32541,0.01560
7299.25387,0.05201
7301.18234,0.10241
7303.11081,0.12113
7305.03928,0.06190
7306.96775,-0.08624
7308.89622,-0.19032
7310.82469,-0.16083
7312.75316,-0.07179
7314.68162,0.07366
7316.61009,0.14133
7318.53856,0.05427
7320.46703,0.03688
7322.39550,0.07764
7324.32397,0.05705
7326.25244,0.02265
7328.18090,0.00222
7330.10937,-0.04324
7332.03784,-0.03736
7333.96631,0.05472
7335.89478,0.12999
7337.82325,0.18130
7339.75172,0.28548
7341.68019,0.40502
7343.60865,0.46376
7345.53712,0.42792
7347.46559,0.23806
7349.39406,0.00624
7351.32253,-0.08936
7353.25100,-0.08580
7355.17947,-0.09090
7357.10793,-0.05310
7359.03640,-0.01843
7360.96487,-0.12652
7362.89334,-0.17980
7364.82181,-0.05341
7366.75028,0.06553
7368.67875,0.04623
7370.60722,0.03402
7372.53568,0.14665
7374.46415,0.28808
7376.39262,0.24563
7378.32109,0.10966
7380.24956,0.07759
7382.17803,0.10402
7384.10650,0.04929
7386.03496,-0.01355
7387.96343,0.04124
7389.89190,0.19255
7391.82037,0.31464
7393.74884,0.21398
7395.67731,-0.01424
7397.60578,-0.09233
7399.53425,-0.10993
7401.46271,-0.11610
7403.39118,0.03724
7405.31965,0.21930
7407.24812,0.18979
7409.17659,0.11565
7411.10506,0.11480
7413.03353,0.09260
7414.96199,0.00595
7416.89046,-0.09423
7418.81893,-0.07005
7420.74740,0.09350
7422.67587,0.17238
7424.60434,0.20278
7426.53281,0.19781
7428.46128,0.05683
7430.38974,-0.07721
7432.31821,-0.03021
7434.24668,-0.00605
7436.17515,0.00641
7438.10362,0.12779
7440.03209,0.18983
7441.96056,0.14333
7443.88902,0.15869
7445.81749,0.17415
7447.74596,0.06339
7449.67443,-0.11096
7451.60290,-0.21561
7453.53137,-0.14904
7455.45984,-0.02937
7457.38831,0.00396
7459.31677,0.00037
7461.24524,0.02495
7463.17371,0.02049
7465.10218,-0.00412
7467.03065,-0.03125
7468.95912,-0.03611
7470.88759,0.03321
7472.81605,0.13677
7474.74452,0.23956
7476.67299,0.33770
7478.60146,0.42673
7480.52993,0.53713
7482.45840,0.49199
7484.38687,0.19883
7486.31533,-0.07124
7488.24380,-0.17964
7490.17227,-0.17813
7492.10074,-0.06531
7494.02921,0.07486
7495.95768,0.19318
7497.88615,0.29539
