399.19301,0.18203
401.12148,0.39287
403.04995,0.38241
404.97842,0.32703
406.90689,0.27507
408.83536,0.25780
410.76382,0.21369
412.69229,0.10011
414.62076,0.04955
416.54923,0.14794
418.47770,0.21218
420.40617,0.06715
422.33464,0.05680
424.26311,0.14893
426.19157,0.11824
428.12004,0.08309
430.04851,0.16627
431.97698,0.22806
433.90545,0.18439
435.83392,0.12762
437.76239,0.09099
439.69085,0.05301
441.61932,-0.01324
443.54779,-0.03045
445.47626,0.07456
447.40473,0.13755
449.33320,0.04887
451.26167,-0.03355
453.19013,-0.00232
455.11860,0.04905
457.04707,0.03215
458.97554,0.00979
460.90401,0.06456
462.83248,0.14596
464.76095,0.17884
466.68942,0.15681
468.61788,0.10064
470.54635,0.04738
472.47482,0.08965
474.40329,0.21213
476.33176,0.21135
478.26023,0.16977
480.18870,0.14987
482.11716,0.13766
484.04563,0.12884
485.97410,0.11852
487.90257,0.10561
489.83104,0.09174
491.75951,0.10049
493.68798,0.14646
495.61645,0.18498
497.54491,0.17734
499.47338,0.12419
501.40185,0.05175
503.33032,0.04211
505.25879,0.10189
507.18726,0.10602
509.11573,0.04792
511.04419,0.05517
512.97266,0.12121
514.90113,0.15878
516.82960,0.14879
518.75807,0.11955
520.68654,0.10114
522.61501,0.11103
524.54348,0.12838
526.47194,0.12110
528.40041,0.11080
530.32888,0.11716
532.25735,0.11128
534.18582,0.09772
536.11429,0.11480
538.04276,0.13707
539.97122,0.13770
541.89969,0.13091
543.82816,0.11863
545.75663,0.10854
547.68510,0.11546
549.61357,0.12452
551.54204,0.10471
553.47051,0.07631
555.39897,0.08255
557.32744,0.11228
559.25591,0.11702
561.18438,0.10672
563.11285,0.12301
565.04132,0.13975
566.96979,0.13077
568.89825,0.11844
570.82672,0.11004
572.75519,0.10366
574.68366,0.10087
576.61213,0.10331
578.54060,0.11228
580.46907,0.11745
582.39754,0.11172
584.32600,0.10320
586.25447,0.09913
588.18294,0.10155
590.11141,0.11198
592.03988,0.13350
593.96835,0.14565
595.89682,0.13791
597.82528,0.14108
599.75375,0.14210
601.68222,0.11239
603.61069,0.08678
605.53916,0.09160
607.46763,0.09995
609.39610,0.09451
611.32456,0.09373
613.25303,0.10575
615.18150,0.11339
617.10997,0.10304
619.03844,0.08458
620.96691,0.08306
622.89538,0.09779
624.82385,0.11327
626.75231,0.12682
628.68078,0.13779
630.60925,0.14826
632.53772,0.15515
634.46619,0.14524
636.39466,0.12615
638.32313,0.11191
640.25159,0.10200
642.18006,0.10128
644.10853,0.11206
646.03700,0.12441
647.96547,0.12734
649.89394,0.11865
651.82241,0.10472
653.75088,0.09060
655.67934,0.09337
657.60781,0.11613
659.53628,0.12749
661.46475,0.11743
663.39322,0.10896
665.32169,0.11255
667.25016,0.12489
669.17862,0.12737
671.10709,0.10773
673.03556,0.09263
674.96403,0.09377
676.89250,0.10522
678.82097,0.11570
680.74944,0.11934
682.67791,0.11293
684.60637,0.09987
686.53484,0.09815
688.46331,0.11410
690.39178,0.13147
692.32025,0.13842
694.24872,0.13830
696.17719,0.14104
698.10565,0.14350
700.03412,0.14253
701.96259,0.14165
703.89106,0.14086
705.81953,0.14385
707.74800,0.15056
709.67647,0.15734
711.60494,0.16140
713.53340,0.15551
715.46187,0.13980
717.39034,0.12926
719.31881,0.12780
721.24728,0.12172
723.17575,0.11384
725.10422,0.11650
727.03268,0.12569
728.96115,0.13491
730.88962,0.14267
732.81809,0.14572
734.74656,0.14332
736.67503,0.13621
738.60350,0.12511
740.53197,0.11726
742.46043,0.11499
744.38890,0.11121
746.31737,0.10517
748.24584,0.10598
750.17431,0.11634
752.10278,0.12423
754.03125,0.12552
755.95971,0.12925
757.88818,0.13419
759.81665,0.13587
761.74512,0.13650
763.67359,0.13344
765.60206,0.12581
767.53053,0.11741
769.45900,0.11481
771.38746,0.12405
773.31593,0.13419
775.24440,0.13242
777.17287,0.12120
779.10134,0.11278
781.02981,0.11694
782.95828,0.12537
784.88674,0.12817
786.81521,0.12568
788.74368,0.11921
790.67215,0.11679
792.60062,0.12506
794.52909,0.13718
796.45756,0.14259
798.38602,0.14354
800.31449,0.14402
802.24296,0.13990
804.17143,0.13189
806.09990,0.12268
808.02837,0.11971
809.95684,0.12763
811.88531,0.13297
813.81377,0.13036
815.74224,0.12926
817.67071,0.13735
819.59918,0.15151
821.52765,0.16088
823.45612,0.15978
825.38459,0.14447
827.31305,0.12810
829.24152,0.12899
831.16999,0.13736
833.09846,0.14241
835.02693,0.14477
836.95540,0.14402
838.88387,0.14207
840.81234,0.13986
842.74080,0.13501
844.66927,0.13058
846.59774,0.13449
848.52621,0.14209
850.45468,0.13941
852.38315,0.12995
854.31162,0.12745
856.24008,0.13087
858.16855,0.13241
860.09702,0.13294
862.02549,0.13618
863.95396,0.13257
865.88243,0.11919
867.81090,0.11646
869.73937,0.12655
871.66783,0.13214
873.59630,0.13129
875.52477,0.13052
877.45324,0.13263
879.38171,0.13582
881.31018,0.13746
883.23865,0.13669
885.16711,0.13653
887.09558,0.14191
889.02405,0.14706
890.95252,0.14494
892.88099,0.13748
894.80946,0.12879
896.73793,0.12404
898.66640,0.12221
900.59486,0.12013
902.52333,0.12325
904.45180,0.13118
906.38027,0.13425
908.30874,0.13284
910.23721,0.13356
912.16568,0.13306
914.09414,0.12960
916.02261,0.12894
917.95108,0.13081
919.87955,0.13160
921.80802,0.12909
923.73649,0.12710
925.66496,0.13281
927.59343,0.14243
929.52189,0.14680
931.45036,0.14265
933.37883,0.13732
935.30730,0.14067
937.23577,0.14552
939.16424,0.13982
941.09271,0.13068
943.02117,0.12976
944.94964,0.13376
946.87811,0.13562
948.80658,0.13462
950.73505,0.13422
952.66352,0.13913
954.59199,0.14672
956.52045,0.14775
958.44892,0.14331
960.37739,0.14258
962.30586,0.14521
964.23433,0.14539
966.16280,0.14196
968.09127,0.13515
970.01974,0.13041
971.94820,0.13390
973.87667,0.13834
975.80514,0.13899
977.73361,0.14059
979.66208,0.14064
981.59055,0.13747
983.51902,0.13847
985.44748,0.14418
987.37595,0.14691
989.30442,0.14671
991.23289,0.14663
993.16136,0.14503
995.08983,0.14495
997.01830,0.14495
998.94677,0.13814
1000.87523,0.13223
1002.80370,0.13830
1004.73217,0.15096
1006.66064,0.15865
1008.58911,0.15800
1010.51758,0.15364
1012.44605,0.15204
1014.37451,0.15189
1016.30298,0.14635
1018.23145,0.13977
1020.15992,0.14022
1022.08839,0.14394
1024.01686,0.14535
1025.94533,0.14074
1027.87380,0.13430
1029.80226,0.13635
1031.73073,0.14104
1033.65920,0.14200
1035.58767,0.14578
1037.51614,0.15195
1039.44461,0.15573
1041.37308,0.15993
1043.30154,0.16421
1045.23001,0.15936
1047.15848,0.14663
1049.08695,0.13831
1051.01542,0.13645
1052.94389,0.13721
1054.87236,0.14047
1056.80083,0.14415
1058.72929,0.14337
1060.65776,0.13929
1062.58623,0.13941
1064.51470,0.14555
1066.44317,0.15499
1068.37164,0.16339
1070.30011,0.16140
1072.22857,0.15001
1074.15704,0.14271
1076.08551,0.14439
1078.01398,0.15046
1079.94245,0.15376
1081.87092,0.14884
1083.79939,0.14230
1085.72786,0.14410
1087.65632,0.15228
1089.58479,0.15774
1091.51326,0.15640
1093.44173,0.15601
1095.37020,0.16205
1097.29867,0.16822
1099.22714,0.16994
1101.15560,0.16620
1103.08407,0.15770
1105.01254,0.15190
1106.94101,0.15300
1108.86948,0.15505
1110.79795,0.15456
1112.72642,0.15401
1114.65489,0.15705
1116.58335,0.16248
1118.51182,0.16186
1120.44029,0.15425
1122.36876,0.14518
1124.29723,0.14010
1126.22570,0.14422
1128.15417,0.15279
1130.08263,0.15708
1132.01110,0.15641
1133.93957,0.15525
1135.86804,0.15468
1137.79651,0.15274
1139.72498,0.15229
1141.65345,0.15668
1143.58191,0.16250
1145.51038,0.16565
1147.43885,0.16726
1149.36732,0.16676
1151.29579,0.16156
1153.22426,0.15486
1155.15273,0.15266
1157.08120,0.15621
1159.00966,0.16013
1160.93813,0.15818
1162.86660,0.15239
1164.79507,0.15196
1166.72354,0.15723
1168.65201,0.15893
1170.58048,0.15780
1172.50894,0.15991
1174.43741,0.16367
1176.36588,0.16515
1178.29435,0.16348
1180.22282,0.16082
1182.15129,0.15749
1184.07976,0.15577
1186.00823,0.15878
1187.93669,0.16108
1189.86516,0.16099
1191.79363,0.16117
1193.72210,0.15983
1195.65057,0.15804
1197.57904,0.15639
1199.50751,0.15430
1201.43597,0.15552
1203.36444,0.15958
1205.29291,0.16212
1207.22138,0.16283
1209.14985,0.16298
1211.07832,0.16235
1213.00679,0.16071
1214.93526,0.15797
1216.86372,0.15366
1218.79219,0.15194
1220.72066,0.15750
1222.64913,0.16595
1224.57760,0.17173
1226.50607,0.17309
1228.43454,0.16986
1230.36300,0.16615
1232.29147,0.16463
1234.21994,0.16352
1236.14841,0.16316
1238.07688,0.16434
1240.00535,0.16411
1241.93382,0.16230
1243.86229,0.16138
1245.79075,0.16112
1247.71922,0.16320
1249.64769,0.16937
1251.57616,0.17207
1253.50463,0.16552
1255.43310,0.15872
1257.36157,0.15883
1259.29003,0.16023
1261.21850,0.15928
1263.14697,0.15987
1265.07544,0.16271
1267.00391,0.16538
1268.93238,0.16679
1270.86085,0.16713
1272.78932,0.16809
1274.71778,0.16818
1276.64625,0.16612
1278.57472,0.16649
1280.50319,0.16822
1282.43166,0.16532
1284.36013,0.16190
1286.28860,0.16230
1288.21706,0.16371
1290.14553,0.16577
1292.07400,0.16697
1294.00247,0.16561
1295.93094,0.16466
1297.85941,0.16484
1299.78788,0.16283
1301.71634,0.15647
1303.64481,0.14865
1305.57328,0.14866
1307.50175,0.15891
1309.43022,0.16643
1311.35869,0.16601
1313.28716,0.16455
1315.21563,0.16559
1317.14409,0.17051
1319.07256,0.17484
1321.00103,0.17292
1322.92950,0.17023
1324.85797,0.16942
1326.78644,0.16616
1328.71491,0.16300
1330.64337,0.16318
1332.57184,0.16569
1334.50031,0.16973
1336.42878,0.17435
1338.35725,0.17855
1340.28572,0.17564
1342.21419,0.16559
1344.14266,0.15920
1346.07112,0.15953
1347.99959,0.16331
1349.92806,0.16622
1351.85653,0.16641
1353.78500,0.16722
1355.71347,0.17027
1357.64194,0.17240
1359.57040,0.17545
1361.49887,0.18065
1363.42734,0.17903
1365.35581,0.17189
1367.28428,0.16823
1369.21275,0.16925
1371.14122,0.17766
1373.06969,0.18995
1374.99815,0.19095
1376.92662,0.18158
1378.85509,0.17676
1380.78356,0.17705
1382.71203,0.17880
1384.64050,0.18472
1386.56897,0.19223
1388.49743,0.19074
1390.42590,0.18588
1392.35437,0.18973
1394.28284,0.19982
1396.21131,0.20534
1398.13978,0.20330
1400.06825,0.19493
1401.99672,0.18698
1403.92518,0.18681
1405.85365,0.18872
1407.78212,0.18691
1409.71059,0.18481
1411.63906,0.18350
1413.56753,0.18513
1415.49600,0.19479
1417.42446,0.21083
1419.35293,0.21459
1421.28140,0.20297
1423.20987,0.19635
1425.13834,0.19478
1427.06681,0.19494
1428.99528,0.19784
1430.92375,0.19848
1432.85221,0.19678
1434.78068,0.20135
1436.70915,0.20370
1438.63762,0.18992
1440.56609,0.17931
1442.49456,0.17978
1444.42303,0.18390
1446.35149,0.18798
1448.27996,0.19186
1450.20843,0.19528
1452.13690,0.19989
1454.06537,0.21086
1455.99384,0.23402
1457.92231,0.23920
1459.85077,0.21183
1461.77924,0.20018
1463.70771,0.20618
1465.63618,0.20626
1467.56465,0.19821
1469.49312,0.20495
1471.42159,0.22761
1473.35006,0.23745
1475.27852,0.22227
1477.20699,0.20632
1479.13546,0.19809
1481.06393,0.19714
1482.99240,0.19799
1484.92087,0.20331
1486.84934,0.21888
1488.77780,0.23410
1490.70627,0.22642
1492.63474,0.21110
1494.56321,0.21205
1496.49168,0.22412
1498.42015,0.22360
1500.34862,0.21230
1502.27709,0.21091
1504.20555,0.23136
1506.13402,0.27849
1508.06249,0.28467
1509.99096,0.24590
1511.91943,0.22599
1513.84790,0.22734
1515.77637,0.24253
1517.70483,0.25737
1519.63330,0.26909
1521.56177,0.27469
1523.49024,0.26003
1525.41871,0.24600
1527.34718,0.23181
1529.27565,0.21648
1531.20412,0.21855
1533.13258,0.23456
1535.06105,0.23800
1536.98952,0.24221
1538.91799,0.27512
1540.84646,0.30491
1542.77493,0.27493
1544.70340,0.23641
1546.63186,0.21563
1548.56033,0.21609
1550.48880,0.22322
1552.41727,0.22572
1554.34574,0.23107
1556.27421,0.25253
1558.20268,0.28847
1560.13115,0.25944
1562.05961,0.21794
1563.98808,0.20763
1565.91655,0.20951
1567.84502,0.21623
1569.77349,0.21916
1571.70196,0.21145
1573.63043,0.21268
1575.55889,0.22594
1577.48736,0.22259
1579.41583,0.20446
1581.34430,0.19279
1583.27277,0.18821
1585.20124,0.18635
1587.12971,0.18565
1589.05818,0.18618
1590.98664,0.18734
1592.91511,0.18967
1594.84358,0.19142
1596.77205,0.18947
1598.70052,0.18716
1600.62899,0.18885
1602.55746,0.19175
1604.48592,0.19051
1606.41439,0.18772
1608.34286,0.18842
1610.27133,0.18862
1612.19980,0.18737
1614.12827,0.19525
1616.05674,0.21214
1617.98521,0.21252
1619.91367,0.20635
1621.84214,0.21366
1623.77061,0.21920
1625.69908,0.21340
1627.62755,0.20791
1629.55602,0.20222
1631.48449,0.20177
1633.41295,0.21951
1635.34142,0.25140
1637.26989,0.24618
1639.19836,0.21790
1641.12683,0.20352
1643.05530,0.20528
1644.98377,0.22688
1646.91223,0.25734
1648.84070,0.25951
1650.76917,0.26411
1652.69764,0.29097
1654.62611,0.26804
1656.55458,0.22400
1658.48305,0.20706
1660.41152,0.21215
1662.33998,0.22143
1664.26845,0.21651
1666.19692,0.21440
1668.12539,0.22980
1670.05386,0.24457
1671.98233,0.23956
1673.91080,0.23114
1675.83926,0.21916
1677.76773,0.20888
1679.69620,0.21351
1681.62467,0.23634
1683.55314,0.26576
1685.48161,0.25774
1687.41008,0.23426
1689.33855,0.21941
1691.26701,0.20813
1693.19548,0.20919
1695.12395,0.22788
1697.05242,0.25052
1698.98089,0.26191
1700.90936,0.25444
1702.83783,0.23828
1704.76629,0.23016
1706.69476,0.22150
1708.62323,0.20924
1710.55170,0.20149
1712.48017,0.20522
1714.40864,0.22569
1716.33711,0.25201
1718.26558,0.24314
1720.19404,0.21323
1722.12251,0.19846
1724.05098,0.19420
1725.97945,0.19349
1727.90792,0.19971
1729.83639,0.21225
1731.76486,0.22825
1733.69332,0.24001
1735.62179,0.22963
1737.55026,0.21964
1739.47873,0.21894
1741.40720,0.21669
1743.33567,0.21415
1745.26414,0.21908
1747.19261,0.23092
1749.12107,0.23755
1751.04954,0.22373
1752.97801,0.20401
1754.90648,0.19752
1756.83495,0.20033
1758.76342,0.20380
1760.69189,0.20764
1762.62035,0.20646
1764.54882,0.20101
1766.47729,0.20316
1768.40576,0.21300
1770.33423,0.22598
1772.26270,0.23273
1774.19117,0.22103
1776.11964,0.20771
1778.04810,0.20463
1779.97657,0.20621
1781.90504,0.20386
1783.83351,0.20071
1785.76198,0.19967
1787.69045,0.19876
1789.61892,0.20345
1791.54738,0.21416
1793.47585,0.21466
1795.40432,0.20633
1797.33279,0.20470
1799.26126,0.20838
1801.18973,0.20666
1803.11820,0.19957
1805.04666,0.19500
1806.97513,0.19492
1808.90360,0.19853
1810.83207,0.19947
1812.76054,0.19235
1814.68901,0.18615
1816.61748,0.18675
1818.54595,0.19052
1820.47441,0.19363
1822.40288,0.19628
1824.33135,0.20105
1826.25982,0.20877
1828.18829,0.21812
1830.11676,0.21790
1832.04523,0.20276
1833.97369,0.19117
1835.90216,0.18891
1837.83063,0.18967
1839.75910,0.19164
1841.68757,0.19883
1843.61604,0.20869
1845.54451,0.20859
1847.47298,0.20140
1849.40144,0.19529
1851.32991,0.19049
1853.25838,0.18830
1855.18685,0.18842
1857.11532,0.18795
1859.04379,0.18706
1860.97226,0.18821
1862.90072,0.19100
1864.82919,0.19724
1866.75766,0.21055
1868.68613,0.21933
1870.61460,0.20944
1872.54307,0.19690
1874.47154,0.19259
1876.40001,0.19128
1878.32847,0.18908
1880.25694,0.18880
1882.18541,0.19257
1884.11388,0.19725
1886.04235,0.20050
1887.97082,0.20364
1889.89929,0.20300
1891.82775,0.19789
1893.75622,0.19639
1895.68469,0.19755
1897.61316,0.19593
1899.54163,0.19365
1901.47010,0.19288
1903.39857,0.19225
1905.32704,0.19165
1907.25550,0.19327
1909.18397,0.19532
1911.11244,0.19465
1913.04091,0.19436
1914.96938,0.19670
1916.89785,0.19918
1918.82632,0.19888
1920.75478,0.19920
1922.68325,0.20121
1924.61172,0.19869
1926.54019,0.19316
1928.46866,0.18969
1930.39713,0.18906
1932.32560,0.18942
1934.25407,0.18807
1936.18253,0.18600
1938.11100,0.18627
1940.03947,0.19112
1941.96794,0.19790
1943.89641,0.19982
1945.82488,0.19804
1947.75335,0.19663
1949.68181,0.19453
1951.61028,0.19158
1953.53875,0.18970
1955.46722,0.18853
1957.39569,0.18737
1959.32416,0.18793
1961.25263,0.18980
1963.18110,0.19142
1965.10956,0.19391
1967.03803,0.19623
1968.96650,0.19602
1970.89497,0.19503
1972.82344,0.19498
1974.75191,0.19487
1976.68038,0.19346
1978.60884,0.19173
1980.53731,0.19074
1982.46578,0.18958
1984.39425,0.18886
1986.32272,0.18980
1988.25119,0.19249
1990.17966,0.19632
1992.10812,0.19785
1994.03659,0.19533
1995.96506,0.19305
1997.89353,0.19320
1999.82200,0.19273
2001.75047,0.19091
2003.67894,0.19090
2005.60741,0.19128
2007.53587,0.18925
2009.46434,0.18765
2011.39281,0.18891
2013.32128,0.19228
2015.24975,0.19709
2017.17822,0.20074
2019.10669,0.19913
2021.03515,0.19475
2022.96362,0.19227
2024.89209,0.19162
2026.82056,0.19252
2028.74903,0.19358
2030.67750,0.19333
2032.60597,0.19306
2034.53444,0.19199
2036.46290,0.18964
2038.39137,0.18927
2040.31984,0.19164
2042.24831,0.19319
2044.17678,0.19307
2046.10525,0.19341
2048.03372,0.19457
2049.96218,0.19628
2051.89065,0.19680
2053.81912,0.19414
2055.74759,0.19154
2057.67606,0.19169
2059.60453,0.19254
2061.53300,0.19406
2063.46147,0.19680
2065.38993,0.19864
2067.31840,0.19802
2069.24687,0.19562
2071.17534,0.19300
2073.10381,0.19114
2075.03228,0.19101
2076.96075,0.19281
2078.88921,0.19418
2080.81768,0.19269
2082.74615,0.19027
2084.67462,0.19036
2086.60309,0.19281
2088.53156,0.19546
2090.46003,0.19686
2092.38850,0.19694
2094.31696,0.19551
2096.24543,0.19305
2098.17390,0.19296
2100.10237,0.19670
2102.03084,0.20101
2103.95931,0.20339
2105.88778,0.20262
2107.81624,0.19900
2109.74471,0.19633
2111.67318,0.19622
2113.60165,0.19714
2115.53012,0.19790
2117.45859,0.19653
2119.38706,0.19397
2121.31553,0.19391
2123.24399,0.19579
2125.17246,0.19650
2127.10093,0.19562
2129.02940,0.19515
2130.95787,0.19539
2132.88634,0.19276
2134.81481,0.18914
2136.74327,0.19152
2138.67174,0.19712
2140.60021,0.19947
2142.52868,0.19843
2144.45715,0.19637
2146.38562,0.19597
2148.31409,0.19659
2150.24255,0.19580
2152.17102,0.19506
2154.09949,0.19600
2156.02796,0.19672
2157.95643,0.19708
2159.88490,0.19841
2161.81337,0.19885
2163.74184,0.19751
2165.67030,0.19605
2167.59877,0.19533
2169.52724,0.19468
2171.45571,0.19439
2173.38418,0.19568
2175.31265,0.19750
2177.24112,0.19799
2179.16958,0.19629
2181.09805,0.19416
2183.02652,0.19408
2184.95499,0.19614
2186.88346,0.19859
2188.81193,0.19843
2190.74040,0.19577
2192.66887,0.19407
2194.59733,0.19389
2196.52580,0.19330
2198.45427,0.19257
2200.38274,0.19267
2202.31121,0.19277
2204.23968,0.19350
2206.16815,0.19537
2208.09661,0.19651
2210.02508,0.19673
2211.95355,0.19688
2213.88202,0.19666
2215.81049,0.19592
2217.73896,0.19486
2219.66743,0.19418
2221.59590,0.19439
2223.52436,0.19470
2225.45283,0.19452
2227.38130,0.19403
2229.30977,0.19340
2231.23824,0.19371
2233.16671,0.19540
2235.09518,0.19655
2237.02364,0.19666
2238.95211,0.19674
2240.88058,0.19617
2242.80905,0.19501
2244.73752,0.19386
2246.66599,0.19322
2248.59446,0.19409
2250.52293,0.19571
2252.45139,0.19693
2254.37986,0.19828
2256.30833,0.19935
2258.23680,0.19963
2260.16527,0.20029
2262.09374,0.20100
2264.02221,0.20069
2265.95067,0.20080
2267.87914,0.20132
2269.80761,0.19980
2271.73608,0.19818
2273.66455,0.19985
2275.59302,0.20222
2277.52149,0.20145
2279.44996,0.19745
2281.37842,0.19458
2283.30689,0.19630
2285.23536,0.19865
2287.16383,0.19777
2289.09230,0.19609
2291.02077,0.19763
2292.94924,0.20137
2294.87770,0.20162
2296.80617,0.19829
2298.73464,0.19682
2300.66311,0.19806
2302.59158,0.19861
2304.52005,0.19819
2306.44852,0.19998
2308.37699,0.20442
2310.30545,0.20819
2312.23392,0.20971
2314.16239,0.21127
2316.09086,0.21341
2318.01933,0.21334
2319.94780,0.21220
2321.87627,0.21129
2323.80473,0.20595
2325.73320,0.20077
2327.66167,0.20552
2329.59014,0.21298
2331.51861,0.21132
2333.44708,0.20190
2335.37555,0.19700
2337.30401,0.20673
2339.23248,0.21497
2341.16095,0.20747
2343.08942,0.19983
2345.01789,0.19794
2346.94636,0.19678
2348.87483,0.19659
2350.80330,0.19851
2352.73176,0.20737
2354.66023,0.22277
2356.58870,0.23228
2358.51717,0.23293
2360.44564,0.22429
2362.37411,0.20658
2364.30258,0.19419
2366.23104,0.19264
2368.15951,0.19136
2370.08798,0.18795
2372.01645,0.19086
2373.94492,0.19798
2375.87339,0.20135
2377.80186,0.19988
2379.73033,0.19635
2381.65879,0.19541
2383.58726,0.19825
2385.51573,0.20014
2387.44420,0.19879
2389.37267,0.19745
2391.30114,0.19852
2393.22961,0.20064
2395.15807,0.20103
2397.08654,0.19968
2399.01501,0.19910
2400.94348,0.19845
2402.87195,0.19633
2404.80042,0.19411
2406.72889,0.19181
2408.65736,0.18872
2410.58582,0.18605
2412.51429,0.18650
2414.44276,0.19017
2416.37123,0.19320
2418.29970,0.19424
2420.22817,0.19513
2422.15664,0.19630
2424.08510,0.19668
2426.01357,0.19531
2427.94204,0.19380
2429.87051,0.19478
2431.79898,0.19731
2433.72745,0.19735
2435.65592,0.19356
2437.58439,0.18979
2439.51285,0.19021
2441.44132,0.19558
2443.36979,0.20041
2445.29826,0.19928
2447.22673,0.19577
2449.15520,0.19295
2451.08367,0.19211
2453.01213,0.19597
2454.94060,0.20076
2456.86907,0.20152
2458.79754,0.19998
2460.72601,0.19922
2462.65448,0.19859
2464.58295,0.19730
2466.51142,0.19684
2468.43988,0.19659
2470.36835,0.19607
2472.29682,0.19706
2474.22529,0.19844
2476.15376,0.19813
2478.08223,0.19710
2480.01070,0.19657
2481.93916,0.19635
2483.86763,0.19687
2485.79610,0.19783
2487.72457,0.19764
2489.65304,0.19727
2491.58151,0.19682
2493.50998,0.19585
2495.43844,0.19637
2497.36691,0.19733
2499.29538,0.19728
2501.22385,0.19613
2503.15232,0.19475
2505.08079,0.19594
2507.00926,0.19887
2508.93773,0.20102
2510.86619,0.20113
2512.79466,0.19909
2514.72313,0.19752
2516.65160,0.19750
2518.58007,0.19731
2520.50854,0.19668
2522.43701,0.19682
2524.36547,0.19740
2526.29394,0.19612
2528.22241,0.19520
2530.15088,0.19786
2532.07935,0.19959
2534.00782,0.19748
2535.93629,0.19569
2537.86476,0.19702
2539.79322,0.19888
2541.72169,0.19866
2543.65016,0.19842
2545.57863,0.19945
2547.50710,0.20007
2549.43557,0.19903
2551.36404,0.19777
2553.29250,0.19940
2555.22097,0.20274
2557.14944,0.20356
2559.07791,0.20170
2561.00638,0.20071
2562.93485,0.20191
2564.86332,0.20206
2566.79179,0.19959
2568.72025,0.19764
2570.64872,0.19793
2572.57719,0.19961
2574.50566,0.20211
2576.43413,0.20354
2578.36260,0.20178
2580.29107,0.19935
2582.21953,0.20004
2584.14800,0.20276
2586.07647,0.20454
2588.00494,0.20419
2589.93341,0.20223
2591.86188,0.20025
2593.79035,0.19973
2595.71882,0.20096
2597.64728,0.20265
2599.57575,0.20314
2601.50422,0.20274
2603.43269,0.20199
2605.36116,0.20130
2607.28963,0.20470
2609.21810,0.20996
2611.14656,0.20844
2613.07503,0.20289
2615.00350,0.20105
2616.93197,0.20137
2618.86044,0.20140
2620.78891,0.20199
2622.71738,0.20155
2624.64585,0.19958
2626.57431,0.19737
2628.50278,0.19628
2630.43125,0.19918
2632.35972,0.20270
2634.28819,0.20149
2636.21666,0.19874
2638.14513,0.19882
2640.07359,0.20128
2642.00206,0.20486
2643.93053,0.20731
2645.85900,0.20592
2647.78747,0.20313
2649.71594,0.20238
2651.64441,0.20200
2653.57288,0.20034
2655.50134,0.19910
2657.42981,0.19991
2659.35828,0.20297
2661.28675,0.20682
2663.21522,0.20837
2665.14369,0.20633
2667.07216,0.20325
2669.00062,0.20220
2670.92909,0.20281
2672.85756,0.20290
2674.78603,0.20173
2676.71450,0.20048
2678.64297,0.19982
2680.57144,0.20007
2682.49990,0.20257
2684.42837,0.20411
2686.35684,0.20254
2688.28531,0.20297
2690.21378,0.20533
2692.14225,0.20565
2694.07072,0.20620
2695.99919,0.20830
2697.92765,0.20859
2699.85612,0.20598
2701.78459,0.20261
2703.71306,0.20074
2705.64153,0.20078
2707.57000,0.20076
2709.49847,0.19995
2711.42693,0.19982
2713.35540,0.20205
2715.28387,0.20664
2717.21234,0.20963
2719.14081,0.20926
2721.06928,0.20926
2722.99775,0.20990
2724.92622,0.20906
2726.85468,0.20877
2728.78315,0.20948
2730.71162,0.20835
2732.64009,0.20573
2734.56856,0.20400
2736.49703,0.20379
2738.42550,0.20446
2740.35396,0.20516
2742.28243,0.20594
2744.21090,0.20711
2746.13937,0.20803
2748.06784,0.20821
2749.99631,0.20881
2751.92478,0.20994
2753.85325,0.20932
2755.78171,0.20773
2757.71018,0.20861
2759.63865,0.21206
2761.56712,0.21474
2763.49559,0.21478
2765.42406,0.21404
2767.35253,0.21386
2769.28099,0.21377
2771.20946,0.21439
2773.13793,0.21477
2775.06640,0.21240
2776.99487,0.20880
2778.92334,0.20785
2780.85181,0.20960
2782.78028,0.21064
2784.70874,0.20983
2786.63721,0.20978
2788.56568,0.21173
2790.49415,0.21222
2792.42262,0.21018
2794.35109,0.20941
2796.27956,0.20911
2798.20802,0.20699
2800.13649,0.20652
2802.06496,0.20926
2803.99343,0.21175
2805.92190,0.21296
2807.85037,0.21431
2809.77884,0.21493
2811.70731,0.21392
2813.63577,0.21366
2815.56424,0.21552
2817.49271,0.21652
2819.42118,0.21527
2821.34965,0.21342
2823.27812,0.21208
2825.20659,0.21227
2827.13505,0.21392
2829.06352,0.21548
2830.99199,0.21580
2832.92046,0.21471
2834.84893,0.21454
2836.77740,0.21700
2838.70587,0.21828
2840.63433,0.21654
2842.56280,0.21557
2844.49127,0.21572
2846.41974,0.21483
2848.34821,0.21313
2850.27668,0.21275
2852.20515,0.21501
2854.13362,0.21716
2856.06208,0.21777
2857.99055,0.21929
2859.91902,0.22067
2861.84749,0.21809
2863.77596,0.21276
2865.70443,0.21028
2867.63290,0.21303
2869.56136,0.21756
2871.48983,0.21929
2873.41830,0.21770
2875.34677,0.21526
2877.27524,0.21363
2879.20371,0.21404
2881.13218,0.21489
2883.06065,0.21346
2884.98911,0.21231
2886.91758,0.21411
2888.84605,0.21579
2890.77452,0.21404
2892.70299,0.21130
2894.63146,0.21172
2896.55993,0.21458
2898.48839,0.21558
2900.41686,0.21344
2902.34533,0.21044
2904.27380,0.20735
2906.20227,0.20533
2908.13074,0.20599
2910.05921,0.20670
2911.98768,0.20651
2913.91614,0.20706
2915.84461,0.20688
2917.77308,0.20651
2919.70155,0.20907
2921.63002,0.21468
2923.55849,0.21977
2925.48696,0.21900
2927.41542,0.21388
2929.34389,0.21038
2931.27236,0.21007
2933.20083,0.21080
2935.12930,0.20804
2937.05777,0.20321
2938.98624,0.20342
2940.91471,0.20650
2942.84317,0.20682
2944.77164,0.20449
2946.70011,0.20101
2948.62858,0.20122
2950.55705,0.20653
2952.48552,0.21153
2954.41399,0.21228
2956.34245,0.20604
2958.27092,0.19992
2960.19939,0.20362
2962.12786,0.20954
2964.05633,0.20971
2965.98480,0.20684
2967.91327,0.20399
2969.84174,0.20634
2971.77020,0.21496
2973.69867,0.22221
2975.62714,0.22062
2977.55561,0.21186
2979.48408,0.20838
2981.41255,0.21372
2983.34102,0.21787
2985.26948,0.21698
2987.19795,0.21335
2989.12642,0.21045
2991.05489,0.21300
2992.98336,0.21882
2994.91183,0.22180
2996.84030,0.22064
2998.76877,0.21878
3000.69723,0.22067
3002.62570,0.22364
3004.55417,0.22288
3006.48264,0.22072
3008.41111,0.21846
3010.33958,0.21294
3012.26805,0.19815
3014.19651,0.17082
3016.12498,0.14818
3018.05345,0.15666
3019.98192,0.18865
3021.91039,0.21165
3023.83886,0.21698
3025.76733,0.21683
3027.69579,0.21851
3029.62426,0.22165
3031.55273,0.22472
3033.48120,0.22673
3035.40967,0.22479
3037.33814,0.22001
3039.26661,0.21740
3041.19508,0.21685
3043.12354,0.21758
3045.05201,0.21893
3046.98048,0.21758
3048.90895,0.21677
3050.83742,0.22015
3052.76589,0.22234
3054.69436,0.21678
3056.62282,0.20571
3058.55129,0.20282
3060.47976,0.21126
3062.40823,0.21748
3064.33670,0.21459
3066.26517,0.20834
3068.19364,0.20887
3070.12211,0.21434
3072.05057,0.21374
3073.97904,0.20695
3075.90751,0.20237
3077.83598,0.20697
3079.76445,0.21733
3081.69292,0.22100
3083.62139,0.21232
3085.54985,0.20224
3087.47832,0.20541
3089.40679,0.21764
3091.33526,0.22454
3093.26373,0.21925
3095.19220,0.20842
3097.12067,0.20551
3099.04914,0.21192
3100.97760,0.21684
3102.90607,0.21276
3104.83454,0.20919
3106.76301,0.21541
3108.69148,0.22312
3110.61995,0.22317
3112.54842,0.21776
3114.47688,0.21627
3116.40535,0.22123
3118.33382,0.22530
3120.26229,0.22444
3122.19076,0.22162
3124.11923,0.21944
3126.04770,0.21836
3127.97617,0.21953
3129.90463,0.22111
3131.83310,0.22118
3133.76157,0.22050
3135.69004,0.21934
3137.61851,0.21779
3139.54698,0.21796
3141.47545,0.22049
3143.40391,0.22141
3145.33238,0.22019
3147.26085,0.22029
3149.18932,0.22415
3151.11779,0.22961
3153.04626,0.23180
3154.97473,0.23023
3156.90320,0.22699
3158.83166,0.22583
3160.76013,0.22658
3162.68860,0.22493
3164.61707,0.22529
3166.54554,0.23265
3168.47401,0.23645
3170.40248,0.22917
3172.33094,0.22215
3174.25941,0.22195
3176.18788,0.22370
3178.11635,0.22590
3180.04482,0.22822
3181.97329,0.23069
3183.90176,0.23243
3185.83022,0.22950
3187.75869,0.22392
3189.68716,0.22011
3191.61563,0.21825
3193.54410,0.22026
3195.47257,0.22526
3197.40104,0.22768
3199.32951,0.22714
3201.25797,0.22652
3203.18644,0.22552
3205.11491,0.22265
3207.04338,0.22106
3208.97185,0.22378
3210.90032,0.22696
3212.82879,0.22958
3214.75725,0.23195
3216.68572,0.23093
3218.61419,0.22764
3220.54266,0.22283
3222.47113,0.21875
3224.39960,0.22079
3226.32807,0.22514
3228.25654,0.22548
3230.18500,0.22374
3232.11347,0.22444
3234.04194,0.22573
3235.97041,0.22405
3237.89888,0.22551
3239.82735,0.23355
3241.75582,0.23912
3243.68428,0.23670
3245.61275,0.22975
3247.54122,0.22350
3249.46969,0.22088
3251.39816,0.21933
3253.32663,0.21740
3255.25510,0.21744
3257.18357,0.21702
3259.11203,0.21451
3261.04050,0.21576
3262.96897,0.22247
3264.89744,0.22866
3266.82591,0.23163
3268.75438,0.23156
3270.68285,0.22845
3272.61131,0.22444
3274.53978,0.22051
3276.46825,0.21827
3278.39672,0.21959
3280.32519,0.22158
3282.25366,0.22144
3284.18213,0.22201
3286.11060,0.22429
3288.03906,0.22320
3289.96753,0.22017
3291.89600,0.21905
3293.82447,0.21700
3295.75294,0.21531
3297.68141,0.21628
3299.60988,0.21699
3301.53834,0.21782
3303.46681,0.21980
3305.39528,0.22145
3307.32375,0.22406
3309.25222,0.22598
3311.18069,0.22298
3313.10916,0.21697
3315.03763,0.21232
3316.96609,0.21130
3318.89456,0.21307
3320.82303,0.21524
3322.75150,0.21748
3324.67997,0.21813
3326.60844,0.21497
3328.53691,0.21196
3330.46537,0.21503
3332.39384,0.22183
3334.32231,0.22544
3336.25078,0.22603
3338.17925,0.22616
3340.10772,0.22489
3342.03619,0.22344
3343.96466,0.22206
3345.89312,0.21880
3347.82159,0.21560
3349.75006,0.21695
3351.67853,0.22333
3353.60700,0.23012
3355.53547,0.23097
3357.46394,0.22463
3359.39240,0.22055
3361.32087,0.22279
3363.24934,0.22334
3365.17781,0.22010
3367.10628,0.21851
3369.03475,0.21948
3370.96322,0.21916
3372.89168,0.21741
3374.82015,0.21753
3376.74862,0.21908
3378.67709,0.22201
3380.60556,0.22708
3382.53403,0.22986
3384.46250,0.22897
3386.39097,0.22784
3388.31943,0.22693
3390.24790,0.22531
3392.17637,0.22281
3394.10484,0.22171
3396.03331,0.22204
3397.96178,0.22060
3399.89025,0.21757
3401.81871,0.21479
3403.74718,0.21507
3405.67565,0.21877
3407.60412,0.22290
3409.53259,0.22443
3411.46106,0.22082
3413.38953,0.21684
3415.31800,0.21869
3417.24646,0.22280
3419.17493,0.22481
3421.10340,0.22371
3423.03187,0.21690
3424.96034,0.20818
3426.88881,0.20721
3428.81728,0.21351
3430.74574,0.21636
3432.67421,0.21284
3434.60268,0.21094
3436.53115,0.21408
3438.45962,0.21654
3440.38809,0.21650
3442.31656,0.21654
3444.24503,0.21448
3446.17349,0.21124
3448.10196,0.20840
3450.03043,0.20321
3451.95890,0.20105
3453.88737,0.20728
3455.81584,0.21372
3457.74431,0.21219
3459.67277,0.20850
3461.60124,0.20890
3463.52971,0.21004
3465.45818,0.21008
3467.38665,0.21237
3469.31512,0.21668
3471.24359,0.21737
3473.17206,0.21172
3475.10052,0.20472
3477.02899,0.20095
3478.95746,0.20119
3480.88593,0.20526
3482.81440,0.20459
3484.74287,0.19413
3486.67134,0.18448
3488.59980,0.18421
3490.52827,0.19095
3492.45674,0.20016
3494.38521,0.20806
3496.31368,0.20718
3498.24215,0.19709
3500.17062,0.18929
3502.09909,0.18990
3504.02755,0.19229
3505.95602,0.19199
3507.88449,0.19457
3509.81296,0.19742
3511.74143,0.19338
3513.66990,0.18658
3515.59837,0.18415
3517.52683,0.18771
3519.45530,0.19185
3521.38377,0.19288
3523.31224,0.19415
3525.24071,0.19767
3527.16918,0.19803
3529.09765,0.19204
3531.02611,0.18493
3532.95458,0.18028
3534.88305,0.18013
3536.81152,0.18398
3538.73999,0.18706
3540.66846,0.18866
3542.59693,0.19054
3544.52540,0.19343
3546.45386,0.19373
3548.38233,0.18848
3550.31080,0.18574
3552.23927,0.18652
3554.16774,0.18196
3556.09621,0.17647
3558.02468,0.17692
3559.95314,0.17930
3561.88161,0.18217
3563.81008,0.19045
3565.73855,0.20235
3567.66702,0.20349
3569.59549,0.19203
3571.52396,0.18286
3573.45243,0.17862
3575.38089,0.17477
3577.30936,0.17037
3579.23783,0.16823
3581.16630,0.16823
3583.09477,0.17274
3585.02324,0.18640
3586.95171,0.19784
3588.88017,0.18605
3590.80864,0.17213
3592.73711,0.17521
3594.66558,0.18298
3596.59405,0.18196
3598.52252,0.17758
3600.45099,0.17297
3602.37946,0.16660
3604.30792,0.16365
3606.23639,0.16849
3608.16486,0.17561
3610.09333,0.17789
3612.02180,0.17906
3613.95027,0.17798
3615.87874,0.17580
3617.80720,0.18014
3619.73567,0.18139
3621.66414,0.17048
3623.59261,0.16202
3625.52108,0.16467
3627.44955,0.17907
3629.37802,0.18897
3631.30649,0.17899
3633.23495,0.16738
3635.16342,0.15663
3637.09189,0.14710
3639.02036,0.14437
3640.94883,0.14839
3642.87730,0.15398
3644.80577,0.16064
3646.73423,0.17294
3648.66270,0.18701
3650.59117,0.18100
3652.51964,0.16590
3654.44811,0.15937
3656.37658,0.15641
3658.30505,0.15085
3660.23352,0.14601
3662.16198,0.14265
3664.09045,0.14090
3666.01892,0.14395
3667.94739,0.15704
3669.87586,0.17527
3671.80433,0.18006
3673.73280,0.18537
3675.66126,0.19286
3677.58973,0.17804
3679.51820,0.15830
3681.44667,0.14653
3683.37514,0.14434
3685.30361,0.15272
3687.23208,0.16972
3689.16055,0.18266
3691.08901,0.17203
3693.01748,0.15466
3694.94595,0.14598
3696.87442,0.14213
3698.80289,0.14150
3700.73136,0.14536
3702.65983,0.14550
3704.58829,0.13850
3706.51676,0.13569
3708.44523,0.14389
3710.37370,0.16163
3712.30217,0.16704
3714.23064,0.15283
3716.15911,0.14424
3718.08757,0.14573
3720.01604,0.14970
3721.94451,0.15263
3723.87298,0.15498
3725.80145,0.15706
3727.72992,0.15602
3729.65839,0.15432
3731.58686,0.16031
3733.51532,0.17921
3735.44379,0.19778
3737.37226,0.19136
3739.30073,0.17364
3741.22920,0.16594
3743.15767,0.16919
3745.08614,0.17138
3747.01460,0.17114
3748.94307,0.17749
3750.87154,0.18337
3752.80001,0.17417
3754.72848,0.16198
3756.65695,0.15819
3758.58542,0.15897
3760.51389,0.15363
3762.44235,0.14574
3764.37082,0.14418
3766.29929,0.14758
3768.22776,0.14911
3770.15623,0.14449
3772.08470,0.13682
3774.01317,0.13300
3775.94163,0.13327
3777.87010,0.13602
3779.79857,0.13692
3781.72704,0.13482
3783.65551,0.13519
3785.58398,0.13525
3787.51245,0.13372
3789.44092,0.13527
3791.36938,0.13815
3793.29785,0.14064
3795.22632,0.14389
3797.15479,0.14632
3799.08326,0.15184
3801.01173,0.16224
3802.94020,0.16062
3804.86866,0.15370
3806.79713,0.15079
3808.72560,0.14247
3810.65407,0.13600
3812.58254,0.13849
3814.51101,0.14694
3816.43948,0.15699
3818.36795,0.16704
3820.29641,0.17685
3822.22488,0.17160
3824.15335,0.16000
3826.08182,0.15450
3828.01029,0.14807
3829.93876,0.14494
3831.86723,0.15075
3833.79569,0.15635
3835.72416,0.15940
3837.65263,0.16725
3839.58110,0.16895
3841.50957,0.15796
3843.43804,0.14542
3845.36651,0.13684
3847.29498,0.13596
3849.22344,0.14354
3851.15191,0.15885
3853.08038,0.17264
3855.00885,0.15676
3856.93732,0.13803
3858.86579,0.13118
3860.79426,0.13262
3862.72272,0.14296
3864.65119,0.15007
3866.57966,0.14530
3868.50813,0.14466
3870.43660,0.14979
3872.36507,0.14984
3874.29354,0.14672
3876.22200,0.14256
3878.15047,0.14142
3880.07894,0.14222
3882.00741,0.13833
3883.93588,0.13645
3885.86435,0.13619
3887.79282,0.13160
3889.72129,0.13092
3891.64975,0.13483
3893.57822,0.13301
3895.50669,0.12990
3897.43516,0.13442
3899.36363,0.14380
3901.29210,0.14743
3903.22057,0.14255
3905.14903,0.13461
3907.07750,0.12756
3909.00597,0.12203
3910.93444,0.11848
3912.86291,0.11747
3914.79138,0.11983
3916.71985,0.12452
3918.64832,0.12505
3920.57678,0.12027
3922.50525,0.11815
3924.43372,0.11973
3926.36219,0.11962
3928.29066,0.11901
3930.21913,0.11977
3932.14760,0.12019
3934.07606,0.11979
3936.00453,0.11750
3937.93300,0.11418
3939.86147,0.11552
3941.78994,0.12134
3943.71841,0.12332
3945.64688,0.12124
3947.57535,0.12075
3949.50381,0.12076
3951.43228,0.11659
3953.36075,0.10928
3955.28922,0.10543
3957.21769,0.10882
3959.14616,0.11318
3961.07463,0.11182
3963.00309,0.10902
3964.93156,0.10968
3966.86003,0.11193
3968.78850,0.11312
3970.71697,0.11287
3972.64544,0.11116
3974.57391,0.10827
3976.50238,0.10666
3978.43084,0.10900
3980.35931,0.11308
3982.28778,0.11210
3984.21625,0.10697
3986.14472,0.10356
3988.07319,0.10119
3990.00166,0.09994
3991.93012,0.10268
3993.85859,0.10834
3995.78706,0.11192
3997.71553,0.11116
3999.64400,0.10741
4001.57247,0.10192
4003.50094,0.09814
4005.42941,0.09952
4007.35787,0.10450
4009.28634,0.10705
4011.21481,0.10247
4013.14328,0.09715
4015.07175,0.10041
4017.00022,0.10757
4018.92869,0.10892
4020.85715,0.10558
4022.78562,0.10512
4024.71409,0.10679
4026.64256,0.10478
4028.57103,0.10275
4030.49950,0.10486
4032.42797,0.10609
4034.35644,0.10277
4036.28490,0.10030
4038.21337,0.10080
4040.14184,0.09758
4042.07031,0.09349
4043.99878,0.09628
4045.92725,0.10062
4047.85572,0.09920
4049.78418,0.09590
4051.71265,0.09690
4053.64112,0.10073
4055.56959,0.10067
4057.49806,0.09674
4059.42653,0.09573
4061.35500,0.09667
4063.28346,0.09336
4065.21193,0.08963
4067.14040,0.09277
4069.06887,0.09826
4070.99734,0.09933
4072.92581,0.09900
4074.85428,0.10185
4076.78275,0.10499
4078.71121,0.10201
4080.63968,0.09443
4082.56815,0.09082
4084.49662,0.09121
4086.42509,0.08958
4088.35356,0.08957
4090.28203,0.09296
4092.21049,0.09309
4094.13896,0.09034
4096.06743,0.08910
4097.99590,0.09113
4099.92437,0.09440
4101.85284,0.09411
4103.78131,0.09244
4105.70978,0.09418
4107.63824,0.09615
4109.56671,0.09594
4111.49518,0.09506
4113.42365,0.09307
4115.35212,0.08974
4117.28059,0.08625
4119.20906,0.08387
4121.13752,0.08167
4123.06599,0.08179
4124.99446,0.08599
4126.92293,0.08782
4128.85140,0.08736
4130.77987,0.08909
4132.70834,0.09061
4134.63681,0.09215
4136.56527,0.09354
4138.49374,0.08987
4140.42221,0.08398
4142.35068,0.08268
4144.27915,0.08548
4146.20762,0.08875
4148.13609,0.08992
4150.06455,0.08781
4151.99302,0.08193
4153.92149,0.07646
4155.84996,0.07774
4157.77843,0.08411
4159.70690,0.08932
4161.63537,0.09035
4163.56384,0.08869
4165.49230,0.08584
4167.42077,0.08010
4169.34924,0.07315
4171.27771,0.07206
4173.20618,0.07721
4175.13465,0.08332
4177.06312,0.08719
4178.99158,0.08637
4180.92005,0.08275
4182.84852,0.08065
4184.77699,0.08216
4186.70546,0.08611
4188.63393,0.08587
4190.56240,0.07840
4192.49087,0.07312
4194.41933,0.07528
4196.34780,0.07861
4198.27627,0.08102
4200.20474,0.08152
4202.13321,0.07837
4204.06168,0.07455
4205.99015,0.07340
4207.91861,0.07636
4209.84708,0.08013
4211.77555,0.07938
4213.70402,0.07463
4215.63249,0.07051
4217.56096,0.06843
4219.48943,0.06865
4221.41789,0.07123
4223.34636,0.07368
4225.27483,0.07452
4227.20330,0.07224
4229.13177,0.06872
4231.06024,0.06854
4232.98871,0.06917
4234.91718,0.06516
4236.84564,0.06016
4238.77411,0.06078
4240.70258,0.06324
4242.63105,0.06377
4244.55952,0.06365
4246.48799,0.06233
4248.41646,0.06312
4250.34492,0.06482
4252.27339,0.06012
4254.20186,0.05518
4256.13033,0.05650
4258.05880,0.05823
4259.98727,0.05767
4261.91574,0.05555
4263.84421,0.05331
4265.77267,0.05335
4267.70114,0.05581
4269.62961,0.06106
4271.55808,0.06580
4273.48655,0.06290
4275.41502,0.05503
4277.34349,0.05200
4279.27195,0.05444
4281.20042,0.05744
4283.12889,0.05870
4285.05736,0.05741
4286.98583,0.05560
4288.91430,0.05535
4290.84277,0.05712
4292.77124,0.05885
4294.69970,0.05618
4296.62817,0.05345
4298.55664,0.05597
4300.48511,0.05572
4302.41358,0.05029
4304.34205,0.05074
4306.27052,0.06041
4308.19898,0.06775
4310.12745,0.06258
4312.05592,0.04985
4313.98439,0.04139
4315.91286,0.04011
4317.84133,0.04126
4319.76980,0.04406
4321.69827,0.04505
4323.62673,0.04041
4325.55520,0.03790
4327.48367,0.03911
4329.41214,0.03811
4331.34061,0.03936
4333.26908,0.04615
4335.19755,0.05133
4337.12601,0.05087
4339.05448,0.04879
4340.98295,0.04775
4342.91142,0.04824
4344.83989,0.05268
4346.76836,0.05729
4348.69683,0.04936
4350.62530,0.03493
4352.55376,0.03436
4354.48223,0.04082
4356.41070,0.03968
4358.33917,0.03646
4360.26764,0.03483
4362.19611,0.03496
4364.12458,0.03965
4366.05304,0.04332
4367.98151,0.03942
4369.90998,0.03405
4371.83845,0.03493
4373.76692,0.03683
4375.69539,0.03527
4377.62386,0.03796
4379.55232,0.04379
4381.48079,0.04298
4383.40926,0.03973
4385.33773,0.03889
4387.26620,0.03680
4389.19467,0.03614
4391.12314,0.03825
4393.05161,0.03895
4394.98007,0.03914
4396.90854,0.03871
4398.83701,0.03683
4400.76548,0.03596
4402.69395,0.03304
4404.62242,0.02812
4406.55089,0.02786
4408.47935,0.02872
4410.40782,0.02385
4412.33629,0.02155
4414.26476,0.02842
4416.19323,0.03082
4418.12170,0.02391
4420.05017,0.02173
4421.97864,0.02563
4423.90710,0.02907
4425.83557,0.03255
4427.76404,0.02944
4429.69251,0.01830
4431.62098,0.01395
4433.54945,0.01843
4435.47792,0.02241
4437.40638,0.02412
4439.33485,0.02315
4441.26332,0.02093
4443.19179,0.01948
4445.12026,0.01902
4447.04873,0.02192
4448.97720,0.02558
4450.90567,0.02262
4452.83413,0.01780
4454.76260,0.02272
4456.69107,0.03280
4458.61954,0.03577
4460.54801,0.03077
4462.47648,0.02398
4464.40495,0.02010
4466.33341,0.02406
4468.26188,0.03165
4470.19035,0.03280
4472.11882,0.03235
4474.04729,0.03345
4475.97576,0.03009
4477.90423,0.02441
4479.83270,0.02014
4481.76116,0.01942
4483.68963,0.02309
4485.61810,0.02697
4487.54657,0.02418
4489.47504,0.01574
4491.40351,0.01142
4493.33198,0.01177
4495.26044,0.01126
4497.18891,0.00940
4499.11738,0.00902
4501.04585,0.01255
4502.97432,0.01461
4504.90279,0.00851
4506.83126,0.00040
4508.75973,0.00058
4510.68819,0.00473
4512.61666,0.00720
4514.54513,0.01170
4516.47360,0.01381
4518.40207,0.01211
4520.33054,0.01458
4522.25901,0.02093
4524.18747,0.02878
4526.11594,0.03526
4528.04441,0.03135
4529.97288,0.01621
4531.90135,0.00516
4533.82982,0.00605
4535.75829,0.00774
4537.68676,0.00721
4539.61522,0.00868
4541.54369,0.00962
4543.47216,0.01013
4545.40063,0.00994
4547.32910,0.01067
4549.25757,0.01532
4551.18604,0.01815
4553.11450,0.01295
4555.04297,0.00432
4556.97144,0.00243
4558.89991,0.01078
4560.82838,0.02119
4562.75685,0.02113
4564.68532,0.01213
4566.61378,0.00571
4568.54225,0.00171
4570.47072,-0.00151
4572.39919,0.00112
4574.32766,0.00815
4576.25613,0.01581
4578.18460,0.02409
4580.11307,0.02575
4582.04153,0.01545
4583.97000,0.00532
4585.89847,0.00559
4587.82694,0.01010
4589.75541,0.01299
4591.68388,0.01335
4593.61235,0.00680
4595.54081,-0.00000
4597.46928,0.00350
4599.39775,0.00704
4601.32622,0.00062
4603.25469,-0.00687
4605.18316,-0.00749
4607.11163,-0.00151
4609.04010,0.00897
4610.96856,0.01531
4612.89703,0.01601
4614.82550,0.01951
4616.75397,0.01990
4618.68244,0.01247
4620.61091,0.00831
4622.53938,0.00708
4624.46784,0.00019
4626.39631,-0.00726
4628.32478,-0.00789
4630.25325,-0.00553
4632.18172,-0.00646
4634.11019,-0.00836
4636.03866,-0.00800
4637.96713,-0.00928
4639.89559,-0.01236
4641.82406,-0.01411
4643.75253,-0.01557
4645.68100,-0.01523
4647.60947,-0.01080
4649.53794,-0.00726
4651.46641,-0.00608
4653.39487,-0.00062
4655.32334,0.00479
4657.25181,0.00226
4659.18028,-0.00009
4661.10875,0.00361
4663.03722,0.00373
4664.96569,-0.00515
4666.89416,-0.00939
4668.82262,-0.00135
4670.75109,0.00406
4672.67956,0.00244
4674.60803,0.00518
4676.53650,0.00906
4678.46497,0.00560
4680.39344,0.00094
4682.32190,0.00157
4684.25037,0.00140
4686.17884,-0.00367
4688.10731,-0.00472
4690.03578,0.00179
4691.96425,0.00662
4693.89272,0.00790
4695.82119,0.01003
4697.74965,0.01547
4699.67812,0.02192
4701.60659,0.01898
4703.53506,0.00657
4705.46353,-0.00045
4707.39200,0.00249
4709.32047,0.00737
4711.24893,0.00948
4713.17740,0.01141
4715.10587,0.01219
4717.03434,0.00428
4718.96281,-0.00714
4720.89128,-0.00706
4722.81975,0.00131
4724.74821,0.00642
4726.67668,0.00813
4728.60515,0.00737
4730.53362,0.00981
4732.46209,0.01801
4734.39056,0.01970
4736.31903,0.00922
4738.24750,-0.00290
4740.17596,-0.00440
4742.10443,-0.00033
4744.03290,-0.00256
4745.96137,-0.00928
4747.88984,-0.01130
4749.81831,-0.00415
4751.74678,0.00262
4753.67524,-0.00007
4755.60371,-0.00387
4757.53218,-0.00163
4759.46065,-0.00252
4761.38912,-0.00699
4763.31759,-0.00441
4765.24606,-0.00036
4767.17453,-0.00116
4769.10299,-0.00109
4771.03146,0.00168
4772.95993,0.00241
4774.88840,-0.00207
4776.81687,-0.00831
4778.74534,-0.00524
4780.67381,0.00853
4782.60227,0.01441
4784.53074,0.00774
4786.45921,0.00155
4788.38768,0.00341
4790.31615,0.01362
4792.24462,0.01878
4794.17309,0.00986
4796.10156,0.00049
4798.03002,0.00454
4799.95849,0.01720
4801.88696,0.02204
4803.81543,0.01410
4805.74390,0.00450
4807.67237,-0.00188
4809.60084,-0.00053
4811.52930,0.01083
4813.45777,0.02230
4815.38624,0.02612
4817.31471,0.01863
4819.24318,0.00554
4821.17165,-0.00458
4823.10012,-0.01282
4825.02859,-0.01894
4826.95705,-0.01484
4828.88552,-0.00159
4830.81399,0.00499
4832.74246,0.00487
4834.67093,0.00781
4836.59940,0.00764
4838.52787,0.00027
4840.45633,-0.00659
4842.38480,-0.01014
4844.31327,-0.01010
4846.24174,-0.00113
4848.17021,0.01071
4850.09868,0.01330
4852.02715,0.01057
4853.95562,0.00960
4855.88408,0.01158
4857.81255,0.01536
4859.74102,0.01290
4861.66949,0.00255
4863.59796,-0.00280
4865.52643,0.00130
4867.45490,0.00459
4869.38336,0.00049
4871.31183,-0.00577
4873.24030,-0.00799
4875.16877,-0.00472
4877.09724,0.00462
4879.02571,0.01522
4880.95418,0.01846
4882.88265,0.01338
4884.81111,0.00756
4886.73958,0.00529
4888.66805,0.00884
4890.59652,0.01356
4892.52499,0.00961
4894.45346,0.00504
4896.38193,0.00708
4898.31039,0.00325
4900.23886,-0.00490
4902.16733,0.00174
4904.09580,0.01633
4906.02427,0.01731
4907.95274,0.00986
4909.88121,0.00452
4911.80967,-0.00104
4913.73814,-0.00252
4915.66661,0.00100
4917.59508,0.00188
4919.52355,0.00279
4921.45202,0.00676
4923.38049,0.00781
4925.30896,0.00141
4927.23742,-0.00156
4929.16589,0.01115
4931.09436,0.02287
4933.02283,0.02104
4934.95130,0.01400
4936.87977,0.00082
4938.80824,-0.01015
4940.73670,-0.00425
4942.66517,0.00734
4944.59364,0.01032
4946.52211,0.01083
4948.45058,0.01501
4950.37905,0.01400
4952.30752,0.00193
4954.23599,-0.01087
4956.16445,-0.01157
4958.09292,-0.00035
4960.02139,0.01086
4961.94986,0.01292
4963.87833,0.00561
4965.80680,-0.00339
4967.73527,-0.00271
4969.66373,0.00336
4971.59220,0.00538
4973.52067,0.00881
4975.44914,0.01367
4977.37761,0.01310
4979.30608,0.01482
4981.23455,0.02387
4983.16302,0.02409
4985.09148,0.01059
4987.01995,0.00126
4988.94842,0.00155
4990.87689,0.00288
4992.80536,0.00361
4994.73383,0.00571
4996.66230,0.00717
4998.59076,0.00148
5000.51923,-0.00943
5002.44770,-0.01537
5004.37617,-0.01505
5006.30464,-0.00865
5008.23311,0.00332
5010.16158,0.01131
5012.09005,0.00734
5014.01851,-0.00420
5015.94698,-0.01002
5017.87545,-0.00664
5019.80392,-0.00135
5021.73239,0.00519
5023.66086,0.01340
5025.58933,0.01824
5027.51779,0.02152
5029.44626,0.02646
5031.37473,0.02676
5033.30320,0.02067
5035.23167,0.01312
5037.16014,0.01103
5039.08861,0.01693
5041.01708,0.01856
5042.94554,0.01199
5044.87401,0.00983
5046.80248,0.01549
5048.73095,0.02117
5050.65942,0.02524
5052.58789,0.02663
5054.51636,0.01712
5056.44482,0.00689
5058.37329,0.01283
5060.30176,0.02083
5062.23023,0.01822
5064.15870,0.01816
5066.08717,0.02546
5068.01564,0.02955
5069.94410,0.02362
5071.87257,0.01687
5073.80104,0.02199
5075.72951,0.02901
5077.65798,0.02138
5079.58645,0.00955
5081.51492,0.01288
5083.44339,0.02138
5085.37185,0.01949
5087.30032,0.01628
5089.22879,0.01795
5091.15726,0.01780
5093.08573,0.01676
5095.01420,0.01661
5096.94267,0.01720
5098.87113,0.02748
5100.79960,0.04782
5102.72807,0.06118
5104.65654,0.05331
5106.58501,0.02345
5108.51348,-0.00163
5110.44195,0.00212
5112.37042,0.01041
5114.29888,0.00451
5116.22735,0.00510
5118.15582,0.01377
5120.08429,0.01475
5122.01276,0.01130
5123.94123,0.01624
5125.86970,0.02650
5127.79816,0.02949
5129.72663,0.02914
5131.65510,0.02979
5133.58357,0.02684
5135.51204,0.01790
5137.44051,0.01190
5139.36898,0.02527
5141.29745,0.03867
5143.22591,0.02706
5145.15438,0.01346
5147.08285,0.01638
5149.01132,0.01961
5150.93979,0.01567
5152.86826,0.01387
5154.79673,0.01681
5156.72519,0.02396
5158.65366,0.03476
5160.58213,0.04416
5162.51060,0.04619
5164.43907,0.03512
5166.36754,0.02082
5168.29601,0.02117
5170.22448,0.03197
5172.15294,0.03935
5174.08141,0.03912
5176.00988,0.03299
5177.93835,0.03686
5179.86682,0.05330
5181.79529,0.05560
5183.72376,0.03777
5185.65222,0.02232
5187.58069,0.01728
5189.50916,0.01555
5191.43763,0.02088
5193.36610,0.02577
5195.29457,0.02450
5197.22304,0.03632
5199.15151,0.05716
5201.07997,0.06380
5203.00844,0.05820
5204.93691,0.05287
5206.86538,0.04696
5208.79385,0.03263
5210.72232,0.01683
5212.65079,0.01450
5214.57925,0.03071
5216.50772,0.04719
5218.43619,0.04643
5220.36466,0.04010
5222.29313,0.04874
5224.22160,0.06800
5226.15007,0.07705
5228.07854,0.07458
5230.00700,0.07061
5231.93547,0.06996
5233.86394,0.07267
5235.79241,0.06219
5237.72088,0.04222
5239.64935,0.04047
5241.57782,0.04979
5243.50628,0.04675
5245.43475,0.03485
5247.36322,0.02436
5249.29169,0.02236
5251.22016,0.03145
5253.14863,0.03732
5255.07710,0.03370
5257.00556,0.03434
5258.93403,0.04129
5260.86250,0.04903
5262.79097,0.05874
5264.71944,0.05438
5266.64791,0.03604
5268.57638,0.02621
5270.50485,0.02290
5272.43331,0.02693
5274.36178,0.05260
5276.29025,0.08396
5278.21872,0.08883
5280.14719,0.07495
5282.07566,0.06414
5284.00413,0.05473
5285.93259,0.04597
5287.86106,0.04361
5289.78953,0.04540
5291.71800,0.04473
5293.64647,0.05030
5295.57494,0.06296
5297.50341,0.06202
5299.43188,0.04849
5301.36034,0.03854
5303.28881,0.03278
5305.21728,0.03614
5307.14575,0.04688
5309.07422,0.04054
5311.00269,0.02170
5312.93116,0.02016
5314.85962,0.03222
5316.78809,0.03528
5318.71656,0.03467
5320.64503,0.03873
5322.57350,0.03416
5324.50197,0.02800
5326.43044,0.03617
5328.35891,0.04335
5330.28737,0.04229
5332.21584,0.04526
5334.14431,0.04835
5336.07278,0.04806
5338.00125,0.05503
5339.92972,0.06772
5341.85819,0.07116
5343.78665,0.05947
5345.71512,0.04872
5347.64359,0.05672
5349.57206,0.07075
5351.50053,0.08341
5353.42900,0.08979
5355.35747,0.07024
5357.28594,0.04175
5359.21440,0.02988
5361.14287,0.02901
5363.07134,0.03298
5364.99981,0.03598
5366.92828,0.03934
5368.85675,0.05184
5370.78522,0.05836
5372.71368,0.05790
5374.64215,0.06433
5376.57062,0.05939
5378.49909,0.03476
5380.42756,0.02027
5382.35603,0.03909
5384.28450,0.08044
5386.21297,0.09934
5388.14143,0.08689
5390.06990,0.07364
5391.99837,0.07582
5393.92684,0.09453
5395.85531,0.10497
5397.78378,0.08846
5399.71225,0.06386
5401.64071,0.06260
5403.56918,0.08215
5405.49765,0.09210
5407.42612,0.09153
5409.35459,0.08216
5411.28306,0.04618
5413.21153,0.01268
5415.13999,0.03165
5417.06846,0.06760
5418.99693,0.07796
5420.92540,0.07055
5422.85387,0.06308
5424.78234,0.06606
5426.71081,0.07461
5428.63928,0.07176
5430.56774,0.05959
5432.49621,0.05632
5434.42468,0.06007
5436.35315,0.05559
5438.28162,0.04968
5440.21009,0.04531
5442.13856,0.04678
5444.06702,0.06862
5445.99549,0.08844
5447.92396,0.08467
5449.85243,0.07603
5451.78090,0.08163
5453.70937,0.09713
5455.63784,0.09489
5457.56631,0.06358
5459.49477,0.03903
5461.42324,0.04998
5463.35171,0.07867
5465.28018,0.08940
5467.20865,0.08220
5469.13712,0.07503
5471.06559,0.07082
5472.99405,0.06737
5474.92252,0.06360
5476.85099,0.05857
5478.77946,0.05631
5480.70793,0.05995
5482.63640,0.06417
5484.56487,0.07000
5486.49334,0.07771
5488.42180,0.07679
5490.35027,0.07189
5492.27874,0.07160
5494.20721,0.06292
5496.13568,0.04695
5498.06415,0.04961
5499.99262,0.06576
5501.92108,0.06307
5503.84955,0.04547
5505.77802,0.03593
5507.70649,0.03564
5509.63496,0.03540
5511.56343,0.04727
5513.49190,0.06892
5515.42037,0.07405
5517.34883,0.07272
5519.27730,0.08226
5521.20577,0.09105
5523.13424,0.09171
5525.06271,0.08260
5526.99118,0.07149
5528.91965,0.07789
5530.84811,0.08913
5532.77658,0.08723
5534.70505,0.08879
5536.63352,0.09683
5538.56199,0.09222
5540.49046,0.07610
5542.41893,0.07224
5544.34740,0.08124
5546.27586,0.08083
5548.20433,0.06699
5550.13280,0.05175
5552.06127,0.05053
5553.98974,0.06455
5555.91821,0.07152
5557.84668,0.06321
5559.77514,0.06164
5561.70361,0.07620
5563.63208,0.08455
5565.56055,0.07529
5567.48902,0.06252
5569.41749,0.05123
5571.34596,0.05650
5573.27443,0.08892
5575.20289,0.10681
5577.13136,0.08814
5579.05983,0.06791
5580.98830,0.07042
5582.91677,0.08051
5584.84524,0.08496
5586.77371,0.08270
5588.70217,0.06692
5590.63064,0.05220
5592.55911,0.06034
5594.48758,0.08263
5596.41605,0.08722
5598.34452,0.07395
5600.27299,0.07937
5602.20145,0.09570
5604.12992,0.09529
5606.05839,0.08786
5607.98686,0.07702
5609.91533,0.05805
5611.84380,0.04331
5613.77227,0.03484
5615.70074,0.03134
5617.62920,0.03541
5619.55767,0.03845
5621.48614,0.04811
5623.41461,0.07621
5625.34308,0.10338
5627.27155,0.10812
5629.20002,0.10387
5631.12848,0.11512
5633.05695,0.13381
5634.98542,0.12682
5636.91389,0.09362
5638.84236,0.07022
5640.77083,0.06047
5642.69930,0.04931
5644.62777,0.05133
5646.55623,0.07810
5648.48470,0.10374
5650.41317,0.12059
5652.34164,0.14155
5654.27011,0.14204
5656.19858,0.11444
5658.12705,0.09576
5660.05551,0.09010
5661.98398,0.07609
5663.91245,0.05498
5665.84092,0.03863
5667.76939,0.04934
5669.69786,0.08131
5671.62633,0.09191
5673.55480,0.08015
5675.48326,0.07472
5677.41173,0.08906
5679.34020,0.11237
5681.26867,0.11622
5683.19714,0.10662
5685.12561,0.10577
5687.05408,0.10217
5688.98254,0.08628
5690.91101,0.06286
5692.83948,0.04090
5694.76795,0.04700
5696.69642,0.07957
5698.62489,0.10256
5700.55336,0.11408
5702.48183,0.11403
5704.41029,0.08311
5706.33876,0.05739
5708.26723,0.07478
5710.19570,0.10898
5712.12417,0.12782
5714.05264,0.11376
5715.98111,0.08262
5717.90957,0.07383
5719.83804,0.08442
5721.76651,0.09701
5723.69498,0.11303
5725.62345,0.12277
5727.55192,0.11874
5729.48039,0.12530
5731.40886,0.14923
5733.33732,0.15515
5735.26579,0.12198
5737.19426,0.07776
5739.12273,0.07728
5741.05120,0.11529
5742.97967,0.11743
5744.90814,0.08051
5746.83660,0.07512
5748.76507,0.10896
5750.69354,0.13258
5752.62201,0.13965
5754.55048,0.13899
5756.47895,0.10907
5758.40742,0.07697
5760.33588,0.09354
5762.26435,0.13289
5764.19282,0.13691
5766.12129,0.10701
5768.04976,0.07749
5769.97823,0.06126
5771.90670,0.06905
5773.83517,0.10332
5775.76363,0.12196
5777.69210,0.09189
5779.62057,0.05309
5781.54904,0.05952
5783.47751,0.08161
5785.40598,0.06875
5787.33445,0.04481
5789.26291,0.05646
5791.19138,0.09025
5793.11985,0.09614
5795.04832,0.07716
5796.97679,0.08097
5798.90526,0.10761
5800.83373,0.11391
5802.76220,0.08845
5804.69066,0.06877
5806.61913,0.08176
5808.54760,0.10273
5810.47607,0.09925
5812.40454,0.07600
5814.33301,0.05648
5816.26148,0.05846
5818.18994,0.08785
5820.11841,0.11149
5822.04688,0.11744
5823.97535,0.13616
5825.90382,0.14113
5827.83229,0.10961
5829.76076,0.07475
5831.68923,0.05273
5833.61769,0.05374
5835.54616,0.07292
5837.47463,0.07289
5839.40310,0.06240
5841.33157,0.06423
5843.26004,0.06399
5845.18851,0.05751
5847.11697,0.05745
5849.04544,0.06303
5850.97391,0.06171
5852.90238,0.06647
5854.83085,0.10051
5856.75932,0.13205
5858.68779,0.11597
5860.61626,0.07855
5862.54472,0.06783
5864.47319,0.07834
5866.40166,0.08066
5868.33013,0.08430
5870.25860,0.10668
5872.18707,0.13037
5874.11554,0.13837
5876.04400,0.12595
5877.97247,0.09396
5879.90094,0.05116
5881.82941,0.02808
5883.75788,0.04849
5885.68635,0.09294
5887.61482,0.13716
5889.54329,0.15340
5891.47175,0.12854
5893.40022,0.08992
5895.32869,0.05453
5897.25716,0.02877
5899.18563,0.03420
5901.11410,0.08108
5903.04257,0.13266
5904.97103,0.14520
5906.89950,0.12655
5908.82797,0.09758
5910.75644,0.07888
5912.68491,0.08526
5914.61338,0.10170
5916.54185,0.11801
5918.47032,0.14338
5920.39878,0.15892
5922.32725,0.15194
5924.25572,0.14347
5926.18419,0.12979
5928.11266,0.11572
5930.04113,0.10920
5931.96960,0.07725
5933.89806,0.03920
5935.82653,0.03698
5937.75500,0.05823
5939.68347,0.09871
5941.61194,0.12908
5943.54041,0.11286
5945.46888,0.09139
5947.39734,0.09587
5949.32581,0.10487
5951.25428,0.10628
5953.18275,0.11894
5955.11122,0.15087
5957.03969,0.15391
5958.96816,0.09990
5960.89663,0.04413
5962.82509,0.02218
5964.75356,0.03944
5966.68203,0.09733
5968.61050,0.13411
5970.53897,0.10857
5972.46744,0.06581
5974.39591,0.04480
5976.32437,0.04730
5978.25284,0.06227
5980.18131,0.06274
5982.10978,0.04744
5984.03825,0.04922
5985.96672,0.06444
5987.89519,0.06716
5989.82366,0.06387
5991.75212,0.07177
5993.68059,0.07873
5995.60906,0.06475
5997.53753,0.06068
5999.46600,0.07948
6001.39447,0.09509
6003.32294,0.11235
6005.25140,0.11234
6007.17987,0.07084
6009.10834,0.05254
6011.03681,0.08701
6012.96528,0.11643
6014.89375,0.10899
6016.82222,0.07159
6018.75069,0.04990
6020.67915,0.07443
6022.60762,0.09196
6024.53609,0.08456
6026.46456,0.09560
6028.39303,0.13437
6030.32150,0.14406
6032.24997,0.09365
6034.17843,0.04009
6036.10690,0.03060
6038.03537,0.05336
6039.96384,0.08024
6041.89231,0.08016
6043.82078,0.05550
6045.74925,0.05125
6047.67772,0.08146
6049.60618,0.09744
6051.53465,0.07091
6053.46312,0.06138
6055.39159,0.09739
6057.32006,0.11323
6059.24853,0.09278
6061.17700,0.07711
6063.10546,0.05310
6065.03393,0.02557
6066.96240,0.05135
6068.89087,0.11917
6070.81934,0.14405
6072.74781,0.10903
6074.67628,0.09271
6076.60475,0.13307
6078.53321,0.15362
6080.46168,0.08576
6082.39015,0.00831
6084.31862,0.00510
6086.24709,0.02300
6088.17556,0.02574
6090.10403,0.04533
6092.03249,0.07206
6093.96096,0.09281
6095.88943,0.09230
6097.81790,0.06429
6099.74637,0.05812
6101.67484,0.09022
6103.60331,0.11331
6105.53177,0.10995
6107.46024,0.10141
6109.38871,0.08633
6111.31718,0.05927
6113.24565,0.05175
6115.17412,0.06654
6117.10259,0.08018
6119.03106,0.09783
6120.95952,0.11136
6122.88799,0.08874
6124.81646,0.06099
6126.74493,0.07283
6128.67340,0.07880
6130.60187,0.04626
6132.53034,0.01348
6134.45880,0.01111
6136.38727,0.04283
6138.31574,0.07417
6140.24421,0.08893
6142.17268,0.09049
6144.10115,0.07133
6146.02962,0.07140
6147.95809,0.10906
6149.88655,0.13283
6151.81502,0.11305
6153.74349,0.07200
6155.67196,0.03686
6157.60043,0.01877
6159.52890,0.00730
6161.45737,0.01186
6163.38583,0.04921
6165.31430,0.08903
6167.24277,0.10890
6169.17124,0.11925
6171.09971,0.12618
6173.02818,0.10974
6174.95665,0.08573
6176.88512,0.09914
6178.81358,0.10651
6180.74205,0.07492
6182.67052,0.05728
6184.59899,0.07612
6186.52746,0.12293
6188.45593,0.17718
6190.38440,0.19805
6192.31286,0.17811
6194.24133,0.12492
6196.16980,0.05061
6198.09827,0.01508
6200.02674,0.04948
6201.95521,0.08265
6203.88368,0.08055
6205.81215,0.09531
6207.74061,0.11447
6209.66908,0.08921
6211.59755,0.05337
6213.52602,0.05861
6215.45449,0.08760
6217.38296,0.10940
6219.31143,0.12109
6221.23989,0.12781
6223.16836,0.12372
6225.09683,0.09595
6227.02530,0.05968
6228.95377,0.05812
6230.88224,0.10078
6232.81071,0.13966
6234.73918,0.12033
6236.66764,0.07233
6238.59611,0.06459
6240.52458,0.10140
6242.45305,0.12784
6244.38152,0.12705
6246.30999,0.11370
6248.23846,0.08226
6250.16692,0.06501
6252.09539,0.09258
6254.02386,0.10790
6255.95233,0.09102
6257.88080,0.08180
6259.80927,0.07765
6261.73774,0.07315
6263.66621,0.07902
6265.59467,0.08861
6267.52314,0.10387
6269.45161,0.12384
6271.38008,0.13175
6273.30855,0.12441
6275.23702,0.13011
6277.16549,0.13918
6279.09395,0.11552
6281.02242,0.08680
6282.95089,0.08183
6284.87936,0.09800
6286.80783,0.11355
6288.73630,0.10790
6290.66477,0.08530
6292.59323,0.06395
6294.52170,0.05370
6296.45017,0.05351
6298.37864,0.07829
6300.30711,0.10896
6302.23558,0.08851
6304.16405,0.05753
6306.09252,0.06241
6308.02098,0.05534
6309.94945,0.03608
6311.87792,0.03668
6313.80639,0.04789
6315.73486,0.06329
6317.66333,0.07069
6319.59180,0.06927
6321.52026,0.08267
6323.44873,0.10003
6325.37720,0.09426
6327.30567,0.09147
6329.23414,0.11162
6331.16261,0.10559
6333.09108,0.07885
6335.01955,0.07034
6336.94801,0.04779
6338.87648,0.02276
6340.80495,0.02716
6342.73342,0.03895
6344.66189,0.06176
6346.59036,0.09828
6348.51883,0.10642
6350.44729,0.09220
6352.37576,0.11548
6354.30423,0.13898
6356.23270,0.09354
6358.16117,0.02877
6360.08964,0.02830
6362.01811,0.06771
6363.94658,0.06409
6365.87504,0.02080
6367.80351,-0.00483
6369.73198,-0.00846
6371.66045,0.03547
6373.58892,0.09581
6375.51739,0.07402
6377.44586,0.02381
6379.37432,0.03606
6381.30279,0.09973
6383.23126,0.14988
6385.15973,0.14179
6387.08820,0.09095
6389.01667,0.01413
6390.94514,-0.02782
6392.87361,0.00793
6394.80207,0.04940
6396.73054,0.06522
6398.65901,0.08827
6400.58748,0.12325
6402.51595,0.13300
6404.44442,0.10392
6406.37289,0.11421
6408.30135,0.19632
6410.22982,0.23242
6412.15829,0.16119
6414.08676,0.09589
6416.01523,0.09090
6417.94370,0.09939
6419.87217,0.10544
6421.80064,0.09750
6423.72910,0.08416
6425.65757,0.10008
6427.58604,0.12629
6429.51451,0.11764
6431.44298,0.08994
6433.37145,0.08596
6435.29992,0.08637
6437.22838,0.08614
6439.15685,0.10769
6441.08532,0.12892
6443.01379,0.14102
6444.94226,0.14224
6446.87073,0.12768
6448.79920,0.11579
6450.72766,0.09956
6452.65613,0.09171
6454.58460,0.12354
6456.51307,0.12905
6458.44154,0.04982
6460.37001,-0.02547
6462.29848,0.00319
6464.22695,0.10087
6466.15541,0.14256
6468.08388,0.10374
6470.01235,0.07337
6471.94082,0.07738
6473.86929,0.10369
6475.79776,0.15311
6477.72623,0.16611
6479.65469,0.12738
6481.58316,0.09233
6483.51163,0.05748
6485.44010,0.01396
6487.36857,-0.00046
6489.29704,0.00582
6491.22551,-0.01966
6493.15398,-0.06195
6495.08244,-0.05628
6497.01091,-0.01848
6498.93938,-0.00211
6500.86785,-0.01818
6502.79632,-0.02862
6504.72479,0.00828
6506.65326,0.04611
6508.58172,0.02756
6510.51019,0.00951
6512.43866,0.04644
6514.36713,0.08434
6516.29560,0.06738
6518.22407,0.01454
6520.15254,-0.00251
6522.08101,0.03525
6524.00947,0.08262
6525.93794,0.10502
6527.86641,0.10339
6529.79488,0.09677
6531.72335,0.09028
6533.65182,0.06632
6535.58029,0.03198
6537.50875,0.01196
6539.43722,0.00813
6541.36569,0.01578
6543.29416,0.05917
6545.22263,0.10704
6547.15110,0.09336
6549.07957,0.05008
6551.00804,0.03893
6552.93650,0.03829
6554.86497,0.02799
6556.79344,0.04846
6558.72191,0.07305
6560.65038,0.05680
6562.57885,0.01656
6564.50732,-0.04373
6566.43578,-0.08324
6568.36425,-0.07435
6570.29272,-0.05353
6572.22119,-0.00751
6574.14966,0.06471
6576.07813,0.08707
6578.00660,0.04026
6579.93507,0.02535
6581.86353,0.05370
6583.79200,0.03607
6585.72047,-0.00043
6587.64894,-0.02444
6589.57741,-0.04804
6591.50588,-0.02577
6593.43435,0.02986
6595.36281,0.04668
6597.29128,0.06446
6599.21975,0.09085
6601.14822,0.06691
6603.07669,0.03999
6605.00516,0.04231
6606.93363,0.04039
6608.86210,0.03131
6610.79056,0.01814
6612.71903,0.00213
6614.64750,-0.00723
6616.57597,-0.01141
6618.50444,-0.02340
6620.43291,-0.02338
6622.36138,0.00244
6624.28984,0.04695
6626.21831,0.12557
6628.14678,0.19420
6630.07525,0.20027
6632.00372,0.19535
6633.93219,0.18990
6635.86066,0.17546
6637.78912,0.16926
6639.71759,0.13510
6641.64606,0.06953
6643.57453,0.01627
6645.50300,-0.02305
6647.43147,-0.04727
6649.35994,-0.00373
6651.28841,0.07466
6653.21687,0.09218
6655.14534,0.05027
6657.07381,-0.00605
6659.00228,-0.03951
6660.93075,0.01912
6662.85922,0.13239
6664.78769,0.18355
6666.71615,0.14573
6668.64462,0.07840
6670.57309,0.03890
6672.50156,0.02056
6674.43003,-0.02998
6676.35850,-0.11128
6678.28697,-0.14719
6680.21544,-0.14062
6682.14390,-0.12418
6684.07237,-0.04478
6686.00084,0.04723
6687.92931,0.04449
6689.85778,0.02531
6691.78625,0.06688
6693.71472,0.10902
6695.64318,0.12442
6697.57165,0.09983
6699.50012,0.03396
6701.42859,-0.01676
6703.35706,-0.00657
6705.28553,0.03116
6707.21400,0.04951
6709.14247,0.03241
6711.07093,-0.00512
6712.99940,-0.01735
6714.92787,0.00814
6716.85634,0.02115
6718.78481,0.01353
6720.71328,0.02539
6722.64175,0.03418
6724.57021,0.02912
6726.49868,0.04083
6728.42715,0.07768
6730.35562,0.12556
6732.28409,0.12337
6734.21256,0.05617
6736.14103,0.00792
6738.06950,0.02132
6739.99796,0.04541
6741.92643,0.03162
6743.85490,-0.01126
6745.78337,-0.00052
6747.71184,0.10384
6749.64031,0.15939
6751.56878,0.08197
6753.49724,-0.00047
6755.42571,0.00418
6757.35418,0.05278
6759.28265,0.07755
6761.21112,0.09239
6763.13959,0.12755
6765.06806,0.14063
6766.99653,0.10744
6768.92499,0.03721
6770.85346,-0.01822
6772.78193,0.01630
6774.71040,0.11162
6776.63887,0.17176
6778.56734,0.17915
6780.49581,0.14590
6782.42427,0.05992
6784.35274,-0.05053
6786.28121,-0.13673
6788.20968,-0.14259
6790.13815,-0.04317
6792.06662,0.09540
6793.99509,0.19777
6795.92355,0.22516
6797.85202,0.14031
6799.78049,0.01290
6801.70896,-0.04695
6803.63743,-0.00382
6805.56590,0.05801
6807.49437,0.03491
6809.42284,-0.02598
6811.35130,-0.01352
6813.27977,0.08814
6815.20824,0.19357
6817.13671,0.21979
6819.06518,0.18178
6820.99365,0.15898
6822.92212,0.15834
6824.85058,0.14211
6826.77905,0.11253
6828.70752,0.04392
6830.63599,-0.04182
6832.56446,-0.08339
6834.49293,-0.07936
6836.42140,0.00075
6838.34987,0.07379
6840.27833,0.03956
6842.20680,-0.00201
6844.13527,0.03439
6846.06374,0.06105
6847.99221,0.00150
6849.92068,0.00340
6851.84915,0.10841
6853.77761,0.12127
6855.70608,0.04836
6857.63455,0.05728
6859.56302,0.09164
6861.49149,0.07635
6863.41996,0.05183
6865.34843,0.02110
6867.27690,0.02950
6869.20536,0.08152
6871.13383,0.11553
6873.06230,0.15312
6874.99077,0.17340
6876.91924,0.12709
6878.84771,0.07016
6880.77618,0.08131
6882.70464,0.09662
6884.63311,0.05962
6886.56158,0.02265
6888.49005,0.02240
6890.41852,0.04502
6892.34699,0.07298
6894.27546,0.09476
6896.20393,0.08988
6898.13239,0.07424
6900.06086,0.07399
6901.98933,0.02609
6903.91780,-0.07888
6905.84627,-0.10371
6907.77474,-0.01662
6909.70321,0.04918
6911.63167,0.07535
6913.56014,0.11323
6915.48861,0.12777
6917.41708,0.08409
6919.34555,0.04111
6921.27402,0.05771
6923.20249,0.05851
6925.13096,-0.00144
6927.05942,-0.05812
6928.98789,-0.03192
6930.91636,0.02791
6932.84483,0.00365
6934.77330,-0.00998
6936.70177,0.05577
6938.63024,0.11950
6940.55870,0.14032
6942.48717,0.15499
6944.41564,0.15733
6946.34411,0.12015
6948.27258,0.08341
6950.20105,0.08437
6952.12952,0.10282
6954.05799,0.12443
6955.98645,0.14350
6957.91492,0.11903
6959.84339,0.08274
6961.77186,0.10738
6963.70033,0.14002
6965.62880,0.12610
6967.55727,0.09181
6969.48573,0.03500
6971.41420,-0.04500
6973.34267,-0.06201
6975.27114,-0.01176
6977.19961,0.02358
6979.12808,0.08736
6981.05655,0.20953
6982.98501,0.32787
6984.91348,0.35735
6986.84195,0.25206
6988.77042,0.07125
6990.69889,-0.02470
6992.62736,0.03955
6994.55583,0.16698
6996.48430,0.22506
6998.41276,0.20661
7000.34123,0.20013
7002.26970,0.17992
7004.19817,0.12555
7006.12664,0.07918
7008.05511,0.00346
7009.98358,-0.10039
7011.91204,-0.12634
7013.84051,-0.03675
7015.76898,0.03677
7017.69745,0.01108
7019.62592,0.00023
7021.55439,0.05870
7023.48286,0.07016
7025.41133,0.04196
7027.33979,0.06562
7029.26826,0.08254
7031.19673,0.05242
7033.12520,0.05378
7035.05367,0.08108
7036.98214,0.02312
7038.91061,-0.06263
7040.83907,0.01095
7042.76754,0.18543
7044.69601,0.17632
7046.62448,0.13140
7048.55295,0.18565
7050.48142,0.14629
7052.40989,0.01953
7054.33836,-0.04962
7056.26682,-0.01101
7058.19529,0.07310
7060.12376,0.11072
7062.05223,0.14880
7063.98070,0.21639
7065.90917,0.15782
7067.83764,-0.01170
7069.76610,-0.09190
7071.69457,-0.08786
7073.62304,-0.08564
7075.55151,-0.05951
7077.47998,-0.02981
7079.40845,0.02133
7081.33692,0.06384
7083.26539,-0.00133
7085.19385,-0.08683
7087.12232,-0.09007
7089.05079,-0.08670
7090.97926,-0.17602
7092.90773,-0.26824
7094.83620,-0.26127
7096.76467,-0.18632
7098.69313,-0.12373
7100.62160,-0.09626
7102.55007,0.00414
7104.47854,0.16603
7106.40701,0.20219
7108.33548,0.14124
7110.26395,0.11383
7112.19242,0.04534
7114.12088,-0.05122
7116.04935,-0.04194
7117.97782,0.08053
7119.90629,0.17922
7121.83476,0.22824
7123.76323,0.23389
7125.69170,0.17351
7127.62016,0.11893
7129.54863,0.12401
7131.47710,0.11082
7133.40557,0.05311
7135.33404,0.01033
7137.26251,0.02790
7139.19098,0.13412
7141.11944,0.24158
7143.04791,0.24156
7144.97638,0.16502
7146.90485,0.08207
7148.83332,0.03613
7150.76179,0.04267
7152.69026,0.05696
7154.61873,0.03698
7156.54719,0.06597
7158.47566,0.10445
7160.40413,0.02050
7162.33260,-0.11398
7164.26107,-0.11212
7166.18954,0.04542
7168.11801,0.16774
7170.04647,0.14137
7171.97494,0.11013
7173.90341,0.17172
7175.83188,0.18393
7177.76035,0.09826
7179.68882,0.08695
7181.61729,0.20715
7183.54576,0.29519
7185.47422,0.23700
7187.40269,0.12715
7189.33116,0.04433
7191.25963,0.06613
7193.18810,0.16484
7195.11657,0.22200
7197.04504,0.21337
7198.97350,0.15733
7200.90197,0.11171
7202.83044,0.15536
7204.75891,0.25016
7206.68738,0.20163
7208.61585,0.05537
7210.54432,-0.05229
7212.47279,-0.05088
7214.40125,0.04185
7216.32972,0.19564
7218.25819,0.29039
7220.18666,0.17904
7222.11513,0.08523
7224.04360,0.10539
7225.97207,0.14603
7227.90053,0.11198
7229.82900,-0.00690
7231.75747,-0.04419
7233.68594,0.05969
7235.61441,0.12602
7237.54288,0.14443
7239.47135,0.17059
7241.39982,0.13905
7243.32828,0.06574
7245.25675,0.06748
7247.18522,0.06931
7249.11369,0.02000
7251.04216,0.00611
7252.97063,0.12670
7254.89910,0.23759
7256.82756,0.22622
7258.75603,0.18652
7260.68450,0.21161
7262.61297,0.27635
7264.54144,0.25191
7266.46991,0.18611
7268.39838,0.14908
7270.32685,0.13432
7272.25531,0.15018
7274.18378,0.20990
7276.11225,0.29088
7278.04072,0.31359
7279.96919,0.16860
7281.89766,-0.05279
7283.82613,-0.12691
7285.75459,-0.04628
7287.68306,0.07281
7289.61153,0.16997
7291.54000,0.22520
7293.46847,0.19236
7295.39694,0.08143
7297.32541,-0.02952
7299.25387,-0.09377
7301.18234,-0.11120
7303.11081,-0.01540
7305.03928,0.18575
7306.96775,0.27021
7308.89622,0.11126
7310.82469,-0.09065
7312.75316,-0.16239
7314.68162,-0.07526
7316.61009,0.12067
7318.53856,0.11094
7320.46703,-0.11810
7322.39550,-0.21457
7324.32397,-0.08301
7326.25244,0.01785
7328.18090,0.04625
7330.10937,0.12093
7332.03784,0.17572
7333.96631,0.16136
7335.89478,0.11240
7337.82325,0.05041
7339.75172,0.07714
7341.68019,0.20373
7343.60865,0.21434
7345.53712,0.10431
7347.46559,-0.04710
7349.39406,-0.14059
7351.32253,-0.13743
7353.25100,-0.05467
7355.17947,0.07421
7357.10793,0.14906
7359.03640,0.06053
7360.96487,-0.07034
7362.89334,-0.06920
7364.82181,0.10248
7366.75028,0.29324
7368.67875,0.33550
7370.60722,0.29365
7372.53568,0.24363
7374.46415,0.17205
7376.39262,0.19297
7378.32109,0.25479
7380.24956,0.19696
7382.17803,0.04896
7384.10650,-0.06260
7386.03496,-0.08961
7387.96343,-0.06438
7389.89190,-0.03765
7391.82037,-0.00856
7393.74884,0.03838
7395.67731,0.11273
7397.60578,0.21647
7399.53425,0.28374
7401.46271,0.23895
7403.39118,0.12692
7405.31965,0.07368
7407.24812,0.01039
7409.17659,-0.15548
7411.10506,-0.28765
7413.03353,-0.27394
7414.96199,-0.17827
7416.89046,-0.04699
7418.81893,0.03258
7420.74740,-0.09539
7422.67587,-0.18586
7424.60434,-0.11894
7426.53281,-0.04185
7428.46128,0.02283
7430.38974,0.10442
7432.31821,0.16225
7434.24668,0.14067
7436.17515,0.03728
7438.10362,-0.01891
7440.03209,0.05309
7441.96056,0.15992
7443.88902,0.15260
7445.81749,0.00805
7447.74596,-0.11820
7449.67443,-0.14257
7451.60290,-0.06475
7453.53137,0.04645
7455.45984,0.07221
7457.38831,0.02153
7459.31677,0.00738
7461.24524,0.12352
7463.17371,0.23473
7465.10218,0.23094
7467.03065,0.20852
7468.95912,0.20229
7470.88759,0.11829
7472.81605,0.07351
7474.74452,0.09040
7476.67299,-0.04639
7478.60146,-0.24353
7480.52993,-0.20117
7482.45840,-0.04758
7484.38687,-0.00086
7486.31533,-0.01056
7488.24380,0.00435
7490.17227,0.06243
7492.10074,0.10298
7494.02921,0.11947
7495.95768,0.14408
7497.88615,0.16946
