399.19301,-0.26981
401.12148,-0.11253
403.04995,0.18740
404.97842,0.21384
406.90689,0.23859
408.83536,0.25219
410.76382,0.05658
412.69229,-0.10355
414.62076,-0.06226
416.54923,-0.01323
418.47770,-0.01730
420.40617,0.02419
422.33464,0.09496
424.26311,0.15439
426.19157,0.15342
428.12004,0.07987
430.04851,-0.00998
431.97698,-0.00779
433.90545,0.05706
435.83392,0.07088
437.76239,0.08267
439.69085,0.11281
441.61932,0.07311
443.54779,0.01543
445.47626,0.07506
447.40473,0.15546
449.33320,0.14354
451.26167,0.07085
453.19013,0.00207
455.11860,-0.00302
457.04707,0.08026
458.97554,0.15892
460.90401,0.16827
462.83248,0.16770
464.76095,0.18097
466.68942,0.19123
468.61788,0.18591
470.54635,0.18854
472.47482,0.21734
474.40329,0.16750
476.33176,0.04880
478.26023,0.01527
480.18870,0.04645
482.11716,0.10021
484.04563,0.16881
485.97410,0.21544
487.90257,0.21000
489.83104,0.18362
491.75951,0.15676
493.68798,0.11836
495.61645,0.09418
497.54491,0.12411
499.47338,0.14670
501.40185,0.09677
503.33032,0.03504
505.25879,0.04067
507.18726,0.08180
509.11573,0.10239
511.04419,0.12593
512.97266,0.15282
514.90113,0.14207
516.82960,0.12156
518.75807,0.12978
520.68654,0.13869
522.61501,0.14616
524.54348,0.17100
526.47194,0.17327
528.40041,0.13682
530.32888,0.11021
532.25735,0.09221
534.18582,0.07447
536.11429,0.06825
538.04276,0.06076
539.97122,0.06924
541.89969,0.09202
543.82816,0.08986
545.75663,0.07773
547.68510,0.08304
549.61357,0.09860
551.54204,0.16695
553.47051,0.26826
555.39897,0.25535
557.32744,0.13928
559.25591,0.06718
561.18438,0.06357
563.11285,0.08506
565.04132,0.10389
566.96979,0.11277
568.89825,0.11458
570.82672,0.11218
572.75519,0.09556
574.68366,0.06230
576.61213,0.05272
578.54060,0.08590
580.46907,0.11886
582.39754,0.11593
584.32600,0.09678
586.25447,0.09025
588.18294,0.10198
590.11141,0.12037
592.03988,0.13004
593.96835,0.11659
595.89682,0.09361
597.82528,0.08251
599.75375,0.06793
601.68222,0.05244
603.61069,0.05982
605.53916,0.08588
607.46763,0.11119
609.39610,0.10926
611.32456,0.08653
613.25303,0.08214
615.18150,0.09176
617.10997,0.08900
619.03844,0.08043
620.96691,0.07511
622.89538,0.07653
624.82385,0.08762
626.75231,0.09855
628.68078,0.09788
630.60925,0.09167
632.53772,0.09271
634.46619,0.10040
636.39466,0.11351
638.32313,0.12516
640.25159,0.11812
642.18006,0.10386
644.10853,0.11223
646.03700,0.14144
647.96547,0.16291
649.89394,0.15692
651.82241,0.13442
653.75088,0.11797
655.67934,0.11757
657.60781,0.12684
659.53628,0.12587
661.46475,0.10882
663.39322,0.09905
665.32169,0.10042
667.25016,0.08656
669.17862,0.07548
671.10709,0.10328
673.03556,0.12306
674.96403,0.12251
676.89250,0.11038
678.82097,0.08894
680.74944,0.07562
682.67791,0.08570
684.60637,0.10567
686.53484,0.12234
688.46331,0.13343
690.39178,0.13899
692.32025,0.14101
694.24872,0.14326
696.17719,0.14319
698.10565,0.13455
700.03412,0.11926
701.96259,0.09978
703.89106,0.08736
705.81953,0.09652
707.74800,0.11313
709.67647,0.11891
711.60494,0.12377
713.53340,0.12979
715.46187,0.12430
717.39034,0.12132
719.31881,0.13612
721.24728,0.15339
723.17575,0.15822
725.10422,0.15371
727.03268,0.14410
728.96115,0.13242
730.88962,0.12672
732.81809,0.13090
734.74656,0.14058
736.67503,0.14887
738.60350,0.15319
740.53197,0.15196
742.46043,0.14577
744.38890,0.14893
746.31737,0.16019
748.24584,0.15887
750.17431,0.14679
752.10278,0.13655
754.03125,0.12804
755.95971,0.11677
757.88818,0.10264
759.81665,0.09149
761.74512,0.08737
763.67359,0.08804
765.60206,0.09585
767.53053,0.11084
769.45900,0.11976
771.38746,0.11886
773.31593,0.11802
775.24440,0.11714
777.17287,0.10965
779.10134,0.10408
781.02981,0.11242
782.95828,0.12661
784.88674,0.13457
786.81521,0.13961
788.74368,0.14386
790.67215,0.13980
792.60062,0.13188
794.52909,0.13266
796.45756,0.13467
798.38602,0.12603
800.31449,0.11602
802.24296,0.11177
804.17143,0.11245
806.09990,0.11913
808.02837,0.11911
809.95684,0.11460
811.88531,0.12264
813.81377,0.13148
815.74224,0.12878
817.67071,0.12243
819.59918,0.12043
821.52765,0.12229
823.45612,0.12290
825.38459,0.12502
827.31305,0.12840
829.24152,0.12766
831.16999,0.12526
833.09846,0.12650
835.02693,0.13562
836.95540,0.14583
838.88387,0.14775
840.81234,0.14272
842.74080,0.13323
844.66927,0.12820
846.59774,0.13347
848.52621,0.14279
850.45468,0.15214
852.38315,0.15480
854.31162,0.14787
856.24008,0.14124
858.16855,0.13752
860.09702,0.13368
862.02549,0.13559
863.95396,0.14071
865.88243,0.14018
867.81090,0.13789
869.73937,0.13557
871.66783,0.13249
873.59630,0.13115
875.52477,0.12749
877.45324,0.12391
879.38171,0.12515
881.31018,0.12609
883.23865,0.12814
885.16711,0.13537
887.09558,0.14128
889.02405,0.13931
890.95252,0.13556
892.88099,0.13339
894.80946,0.12573
896.73793,0.12191
898.66640,0.12936
900.59486,0.13266
902.52333,0.13215
904.45180,0.14136
906.38027,0.15101
908.30874,0.14724
910.23721,0.13625
912.16568,0.13051
914.09414,0.13308
916.02261,0.13877
917.95108,0.14448
919.87955,0.14560
921.80802,0.13770
923.73649,0.12829
925.66496,0.12359
927.59343,0.12493
929.52189,0.13215
931.45036,0.13930
933.37883,0.14276
935.30730,0.14270
937.23577,0.14180
939.16424,0.14665
941.09271,0.15400
943.02117,0.15131
944.94964,0.14278
946.87811,0.13856
948.80658,0.13793
950.73505,0.14058
952.66352,0.14145
954.59199,0.13863
956.52045,0.13643
958.44892,0.13353
960.37739,0.13381
962.30586,0.13838
964.23433,0.13916
966.16280,0.13463
968.09127,0.13192
970.01974,0.13629
971.94820,0.14300
973.87667,0.14533
975.80514,0.14423
977.73361,0.14519
979.66208,0.15021
981.59055,0.15296
983.51902,0.14971
985.44748,0.14633
987.37595,0.14722
989.30442,0.14725
991.23289,0.13962
993.16136,0.13022
995.08983,0.12934
997.01830,0.13724
998.94677,0.14797
1000.87523,0.15478
1002.80370,0.15630
1004.73217,0.15189
1006.66064,0.14215
1008.58911,0.13982
1010.51758,0.15079
1012.44605,0.16286
1014.37451,0.16422
1016.30298,0.15568
1018.23145,0.14971
1020.15992,0.15117
1022.08839,0.15140
1024.01686,0.14855
1025.94533,0.13980
1027.87380,0.12345
1029.80226,0.12163
1031.73073,0.13948
1033.65920,0.15126
1035.58767,0.14848
1037.51614,0.14457
1039.44461,0.14913
1041.37308,0.15272
1043.30154,0.14773
1045.23001,0.14255
1047.15848,0.14122
1049.08695,0.14377
1051.01542,0.15108
1052.94389,0.15842
1054.87236,0.16045
1056.80083,0.15762
1058.72929,0.15431
1060.65776,0.15097
1062.58623,0.14459
1064.51470,0.14109
1066.44317,0.14433
1068.37164,0.14579
1070.30011,0.14197
1072.22857,0.13809
1074.15704,0.14116
1076.08551,0.14898
1078.01398,0.15195
1079.94245,0.15426
1081.87092,0.16306
1083.79939,0.16917
1085.72786,0.16670
1087.65632,0.16209
1089.58479,0.15721
1091.51326,0.15173
1093.44173,0.14862
1095.37020,0.14787
1097.29867,0.14625
1099.22714,0.14510
1101.15560,0.15107
1103.08407,0.16052
1105.01254,0.16357
1106.94101,0.16209
1108.86948,0.15994
1110.79795,0.15641
1112.72642,0.15258
1114.65489,0.14977
1116.58335,0.14958
1118.51182,0.15349
1120.44029,0.15833
1122.36876,0.15927
1124.29723,0.15656
1126.22570,0.14897
1128.15417,0.13855
1130.08263,0.13912
1132.01110,0.14897
1133.93957,0.15185
1135.86804,0.14744
1137.79651,0.14382
1139.72498,0.14404
1141.65345,0.14919
1143.58191,0.15756
1145.51038,0.16187
1147.43885,0.15726
1149.36732,0.15144
1151.29579,0.15239
1153.22426,0.15662
1155.15273,0.15847
1157.08120,0.15732
1159.00966,0.15657
1160.93813,0.15692
1162.86660,0.15633
1164.79507,0.15700
1166.72354,0.15893
1168.65201,0.15926
1170.58048,0.15985
1172.50894,0.16119
1174.43741,0.16151
1176.36588,0.16184
1178.29435,0.16156
1180.22282,0.15937
1182.15129,0.15892
1184.07976,0.16191
1186.00823,0.16386
1187.93669,0.16294
1189.86516,0.16162
1191.79363,0.16132
1193.72210,0.16143
1195.65057,0.16144
1197.57904,0.16208
1199.50751,0.16335
1201.43597,0.16402
1203.36444,0.16351
1205.29291,0.16302
1207.22138,0.16301
1209.14985,0.16430
1211.07832,0.16789
1213.00679,0.17019
1214.93526,0.16801
1216.86372,0.16389
1218.79219,0.16168
1220.72066,0.16214
1222.64913,0.16359
1224.57760,0.16478
1226.50607,0.16578
1228.43454,0.16621
1230.36300,0.16557
1232.29147,0.16438
1234.21994,0.16251
1236.14841,0.16132
1238.07688,0.16192
1240.00535,0.16180
1241.93382,0.16088
1243.86229,0.16102
1245.79075,0.16047
1247.71922,0.15822
1249.64769,0.15812
1251.57616,0.16142
1253.50463,0.16545
1255.43310,0.16853
1257.36157,0.16752
1259.29003,0.16375
1261.21850,0.16381
1263.14697,0.16760
1265.07544,0.17099
1267.00391,0.17115
1268.93238,0.16827
1270.86085,0.16699
1272.78932,0.16675
1274.71778,0.16407
1276.64625,0.16400
1278.57472,0.16812
1280.50319,0.16834
1282.43166,0.16561
1284.36013,0.16714
1286.28860,0.16995
1288.21706,0.16916
1290.14553,0.16728
1292.07400,0.16680
1294.00247,0.16660
1295.93094,0.16698
1297.85941,0.16805
1299.78788,0.16487
1301.71634,0.15214
1303.64481,0.13468
1305.57328,0.13040
1307.50175,0.14586
1309.43022,0.16179
1311.35869,0.16675
1313.28716,0.16804
1315.21563,0.16830
1317.14409,0.16802
1319.07256,0.16795
1321.00103,0.16498
1322.92950,0.16172
1324.85797,0.16116
1326.78644,0.16273
1328.71491,0.16533
1330.64337,0.16320
1332.57184,0.15708
1334.50031,0.15646
1336.42878,0.16441
1338.35725,0.17491
1340.28572,0.17428
1342.21419,0.16482
1344.14266,0.16145
1346.07112,0.16252
1347.99959,0.16500
1349.92806,0.16908
1351.85653,0.17080
1353.78500,0.17172
1355.71347,0.17356
1357.64194,0.17441
1359.57040,0.17660
1361.49887,0.18219
1363.42734,0.18280
1365.35581,0.17597
1367.28428,0.17301
1369.21275,0.17696
1371.14122,0.18476
1373.06969,0.19399
1374.99815,0.19671
1376.92662,0.18942
1378.85509,0.18232
1380.78356,0.18017
1382.71203,0.17934
1384.64050,0.18231
1386.56897,0.19109
1388.49743,0.19202
1390.42590,0.18443
1392.35437,0.18528
1394.28284,0.19559
1396.21131,0.20274
1398.13978,0.20216
1400.06825,0.19483
1401.99672,0.18870
1403.92518,0.18985
1405.85365,0.18956
1407.78212,0.18337
1409.71059,0.17907
1411.63906,0.17979
1413.56753,0.18369
1415.49600,0.19143
1417.42446,0.20547
1419.35293,0.21242
1421.28140,0.20241
1423.20987,0.19270
1425.13834,0.18588
1427.06681,0.18239
1428.99528,0.18532
1430.92375,0.18795
1432.85221,0.19011
1434.78068,0.19962
1436.70915,0.20653
1438.63762,0.19767
1440.56609,0.18643
1442.49456,0.17905
1444.42303,0.17905
1446.35149,0.18735
1448.27996,0.19183
1450.20843,0.18861
1452.13690,0.19189
1454.06537,0.20929
1455.99384,0.23947
1457.92231,0.24697
1459.85077,0.21755
1461.77924,0.20149
1463.70771,0.20349
1465.63618,0.20315
1467.56465,0.19417
1469.49312,0.19696
1471.42159,0.21619
1473.35006,0.22858
1475.27852,0.21819
1477.20699,0.20418
1479.13546,0.19637
1481.06393,0.19521
1482.99240,0.19810
1484.92087,0.20605
1486.84934,0.22022
1488.77780,0.23243
1490.70627,0.22565
1492.63474,0.21160
1494.56321,0.21143
1496.49168,0.22589
1498.42015,0.23007
1500.34862,0.21598
1502.27709,0.21134
1504.20555,0.23131
1506.13402,0.27291
1508.06249,0.26976
1509.99096,0.23231
1511.91943,0.21678
1513.84790,0.22300
1515.77637,0.24116
1517.70483,0.25215
1519.63330,0.25703
1521.56177,0.26099
1523.49024,0.24907
1525.41871,0.23567
1527.34718,0.22349
1529.27565,0.21200
1531.20412,0.21428
1533.13258,0.22641
1535.06105,0.22746
1536.98952,0.23240
1538.91799,0.26783
1540.84646,0.30538
1542.77493,0.28208
1544.70340,0.24375
1546.63186,0.21743
1548.56033,0.20906
1550.48880,0.21023
1552.41727,0.21649
1554.34574,0.23450
1556.27421,0.26660
1558.20268,0.30000
1560.13115,0.26284
1562.05961,0.21861
1563.98808,0.20469
1565.91655,0.20363
1567.84502,0.21045
1569.77349,0.21582
1571.70196,0.21055
1573.63043,0.21078
1575.55889,0.21740
1577.48736,0.20986
1579.41583,0.19592
1581.34430,0.19005
1583.27277,0.19047
1585.20124,0.19118
1587.12971,0.19024
1589.05818,0.19142
1590.98664,0.19459
1592.91511,0.19528
1594.84358,0.19329
1596.77205,0.19110
1598.70052,0.18981
1600.62899,0.18953
1602.55746,0.18836
1604.48592,0.18631
1606.41439,0.18883
1608.34286,0.19473
1610.27133,0.19519
1612.19980,0.19440
1614.12827,0.20326
1616.05674,0.21593
1617.98521,0.21145
1619.91367,0.20441
1621.84214,0.21032
1623.77061,0.21820
1625.69908,0.21906
1627.62755,0.21673
1629.55602,0.21045
1631.48449,0.20903
1633.41295,0.22362
1635.34142,0.24735
1637.26989,0.24201
1639.19836,0.22173
1641.12683,0.21157
1643.05530,0.21490
1644.98377,0.23789
1646.91223,0.26570
1648.84070,0.26066
1650.76917,0.25729
1652.69764,0.27094
1654.62611,0.24684
1656.55458,0.21369
1658.48305,0.20113
1660.41152,0.20425
1662.33998,0.21340
1664.26845,0.21345
1666.19692,0.21534
1668.12539,0.23189
1670.05386,0.24346
1671.98233,0.23481
1673.91080,0.22975
1675.83926,0.22789
1677.76773,0.22330
1679.69620,0.22394
1681.62467,0.23816
1683.55314,0.26412
1685.48161,0.25798
1687.41008,0.23398
1689.33855,0.22278
1691.26701,0.21695
1693.19548,0.21996
1695.12395,0.23975
1697.05242,0.26253
1698.98089,0.27072
1700.90936,0.25759
1702.83783,0.23873
1704.76629,0.23265
1706.69476,0.22486
1708.62323,0.21170
1710.55170,0.20721
1712.48017,0.21466
1714.40864,0.23231
1716.33711,0.24987
1718.26558,0.23877
1720.19404,0.21544
1722.12251,0.20490
1724.05098,0.20174
1725.97945,0.20009
1727.90792,0.20252
1729.83639,0.21294
1731.76486,0.23127
1733.69332,0.24283
1735.62179,0.22920
1737.55026,0.22014
1739.47873,0.22237
1741.40720,0.22066
1743.33567,0.21654
1745.26414,0.21847
1747.19261,0.22643
1749.12107,0.23536
1751.04954,0.23019
1752.97801,0.21355
1754.90648,0.20536
1756.83495,0.20554
1758.76342,0.20394
1760.69189,0.20233
1762.62035,0.20106
1764.54882,0.19934
1766.47729,0.20426
1768.40576,0.21670
1770.33423,0.23182
1772.26270,0.23668
1774.19117,0.22159
1776.11964,0.20737
1778.04810,0.20484
1779.97657,0.20756
1781.90504,0.20589
1783.83351,0.20165
1785.76198,0.19909
1787.69045,0.20014
1789.61892,0.20890
1791.54738,0.22093
1793.47585,0.22104
1795.40432,0.21247
1797.33279,0.20874
1799.26126,0.21181
1801.18973,0.21174
1803.11820,0.20427
1805.04666,0.19916
1806.97513,0.19797
1808.90360,0.19728
1810.83207,0.19699
1812.76054,0.19501
1814.68901,0.19288
1816.61748,0.19369
1818.54595,0.19478
1820.47441,0.19472
1822.40288,0.19726
1824.33135,0.20188
1826.25982,0.20578
1828.18829,0.21308
1830.11676,0.21642
1832.04523,0.20554
1833.97369,0.19519
1835.90216,0.19402
1837.83063,0.19576
1839.75910,0.19632
1841.68757,0.20152
1843.61604,0.21144
1845.54451,0.21257
1847.47298,0.20460
1849.40144,0.19726
1851.32991,0.19277
1853.25838,0.18968
1855.18685,0.18692
1857.11532,0.18583
1859.04379,0.18670
1860.97226,0.18763
1862.90072,0.18909
1864.82919,0.19617
1866.75766,0.20950
1868.68613,0.21552
1870.61460,0.20537
1872.54307,0.19430
1874.47154,0.19065
1876.40001,0.19116
1878.32847,0.19189
1880.25694,0.19213
1882.18541,0.19316
1884.11388,0.19414
1886.04235,0.19413
1887.97082,0.19640
1889.89929,0.19856
1891.82775,0.19571
1893.75622,0.19377
1895.68469,0.19444
1897.61316,0.19269
1899.54163,0.19052
1901.47010,0.19110
1903.39857,0.19176
1905.32704,0.19257
1907.25550,0.19737
1909.18397,0.20118
1911.11244,0.19727
1913.04091,0.19219
1914.96938,0.19411
1916.89785,0.20094
1918.82632,0.20311
1920.75478,0.19912
1922.68325,0.19573
1924.61172,0.19323
1926.54019,0.19062
1928.46866,0.18986
1930.39713,0.19124
1932.32560,0.19315
1934.25407,0.19344
1936.18253,0.19253
1938.11100,0.19282
1940.03947,0.19477
1941.96794,0.19757
1943.89641,0.19997
1945.82488,0.19959
1947.75335,0.19573
1949.68181,0.19229
1951.61028,0.19152
1953.53875,0.19053
1955.46722,0.18901
1957.39569,0.18866
1959.32416,0.18968
1961.25263,0.19183
1963.18110,0.19493
1965.10956,0.19942
1967.03803,0.20218
1968.96650,0.20030
1970.89497,0.19706
1972.82344,0.19504
1974.75191,0.19413
1976.68038,0.19226
1978.60884,0.18928
1980.53731,0.19001
1982.46578,0.19437
1984.39425,0.19720
1986.32272,0.19734
1988.25119,0.19683
1990.17966,0.19746
1992.10812,0.19706
1994.03659,0.19377
1995.96506,0.19109
1997.89353,0.19055
1999.82200,0.19122
2001.75047,0.19256
2003.67894,0.19333
2005.60741,0.19280
2007.53587,0.19172
2009.46434,0.19147
2011.39281,0.19275
2013.32128,0.19597
2015.24975,0.20056
2017.17822,0.20347
2019.10669,0.20134
2021.03515,0.19626
2022.96362,0.19339
2024.89209,0.19334
2026.82056,0.19325
2028.74903,0.19301
2030.67750,0.19376
2032.60597,0.19376
2034.53444,0.19286
2036.46290,0.19288
2038.39137,0.19307
2040.31984,0.19339
2042.24831,0.19334
2044.17678,0.19174
2046.10525,0.19059
2048.03372,0.19185
2049.96218,0.19472
2051.89065,0.19677
2053.81912,0.19682
2055.74759,0.19654
2057.67606,0.19675
2059.60453,0.19582
2061.53300,0.19452
2063.46147,0.19535
2065.38993,0.19658
2067.31840,0.19609
2069.24687,0.19587
2071.17534,0.19671
2073.10381,0.19654
2075.03228,0.19481
2076.96075,0.19248
2078.88921,0.19140
2080.81768,0.19308
2082.74615,0.19485
2084.67462,0.19481
2086.60309,0.19520
2088.53156,0.19614
2090.46003,0.19515
2092.38850,0.19242
2094.31696,0.19111
2096.24543,0.19224
2098.17390,0.19390
2100.10237,0.19444
2102.03084,0.19461
2103.95931,0.19594
2105.88778,0.19684
2107.81624,0.19532
2109.74471,0.19228
2111.67318,0.19024
2113.60165,0.19117
2115.53012,0.19319
2117.45859,0.19397
2119.38706,0.19485
2121.31553,0.19543
2123.24399,0.19429
2125.17246,0.19389
2127.10093,0.19505
2129.02940,0.19540
2130.95787,0.19464
2132.88634,0.19419
2134.81481,0.19566
2136.74327,0.19759
2138.67174,0.19659
2140.60021,0.19500
2142.52868,0.19550
2144.45715,0.19558
2146.38562,0.19505
2148.31409,0.19570
2150.24255,0.19664
2152.17102,0.19750
2154.09949,0.19801
2156.02796,0.19635
2157.95643,0.19433
2159.88490,0.19569
2161.81337,0.19842
2163.74184,0.19900
2165.67030,0.19809
2167.59877,0.19759
2169.52724,0.19809
2171.45571,0.19839
2173.38418,0.19698
2175.31265,0.19442
2177.24112,0.19327
2179.16958,0.19419
2181.09805,0.19472
2183.02652,0.19466
2184.95499,0.19666
2186.88346,0.19937
2188.81193,0.19971
2190.74040,0.19852
2192.66887,0.19650
2194.59733,0.19382
2196.52580,0.19289
2198.45427,0.19413
2200.38274,0.19501
2202.31121,0.19499
2204.23968,0.19600
2206.16815,0.19771
2208.09661,0.19848
2210.02508,0.19908
2211.95355,0.19973
2213.88202,0.19927
2215.81049,0.19814
2217.73896,0.19701
2219.66743,0.19465
2221.59590,0.19179
2223.52436,0.19199
2225.45283,0.19440
2227.38130,0.19564
2229.30977,0.19600
2231.23824,0.19543
2233.16671,0.19412
2235.09518,0.19442
2237.02364,0.19664
2238.95211,0.19855
2240.88058,0.19746
2242.80905,0.19526
2244.73752,0.19634
2246.66599,0.19841
2248.59446,0.19713
2250.52293,0.19450
2252.45139,0.19445
2254.37986,0.19601
2256.30833,0.19603
2258.23680,0.19544
2260.16527,0.19655
2262.09374,0.19877
2264.02221,0.19963
2265.95067,0.19822
2267.87914,0.19760
2269.80761,0.19841
2271.73608,0.19785
2273.66455,0.19684
2275.59302,0.19716
2277.52149,0.19735
2279.44996,0.19648
2281.37842,0.19653
2283.30689,0.19819
2285.23536,0.19924
2287.16383,0.19956
2289.09230,0.19968
2291.02077,0.19816
2292.94924,0.19533
2294.87770,0.19304
2296.80617,0.19297
2298.73464,0.19603
2300.66311,0.19928
2302.59158,0.19953
2304.52005,0.19847
2306.44852,0.19840
2308.37699,0.19908
2310.30545,0.19944
2312.23392,0.20004
2314.16239,0.20215
2316.09086,0.20384
2318.01933,0.20510
2319.94780,0.20783
2321.87627,0.20772
2323.80473,0.20176
2325.73320,0.19504
2327.66167,0.19254
2329.59014,0.19670
2331.51861,0.20594
2333.44708,0.21208
2335.37555,0.20908
2337.30401,0.20170
2339.23248,0.19716
2341.16095,0.19393
2343.08942,0.19302
2345.01789,0.19910
2346.94636,0.20765
2348.87483,0.21375
2350.80330,0.21449
2352.73176,0.21068
2354.66023,0.21150
2356.58870,0.21083
2358.51717,0.20008
2360.44564,0.19545
2362.37411,0.19375
2364.30258,0.18586
2366.23104,0.19026
2368.15951,0.21022
2370.08798,0.21748
2372.01645,0.21061
2373.94492,0.20735
2375.87339,0.20539
2377.80186,0.20133
2379.73033,0.20146
2381.65879,0.20466
2383.58726,0.20552
2385.51573,0.20375
2387.44420,0.20024
2389.37267,0.19654
2391.30114,0.19479
2393.22961,0.19383
2395.15807,0.19306
2397.08654,0.19434
2399.01501,0.19543
2400.94348,0.19393
2402.87195,0.19374
2404.80042,0.19656
2406.72889,0.19849
2408.65736,0.19809
2410.58582,0.19763
2412.51429,0.19736
2414.44276,0.19630
2416.37123,0.19566
2418.29970,0.19513
2420.22817,0.19410
2422.15664,0.19375
2424.08510,0.19313
2426.01357,0.19177
2427.94204,0.19185
2429.87051,0.19384
2431.79898,0.19589
2433.72745,0.19732
2435.65592,0.19898
2437.58439,0.19966
2439.51285,0.19759
2441.44132,0.19472
2443.36979,0.19351
2445.29826,0.19383
2447.22673,0.19483
2449.15520,0.19569
2451.08367,0.19645
2453.01213,0.19709
2454.94060,0.19595
2456.86907,0.19350
2458.79754,0.19256
2460.72601,0.19292
2462.65448,0.19356
2464.58295,0.19502
2466.51142,0.19609
2468.43988,0.19503
2470.36835,0.19321
2472.29682,0.19345
2474.22529,0.19481
2476.15376,0.19521
2478.08223,0.19554
2480.01070,0.19737
2481.93916,0.19915
2483.86763,0.19728
2485.79610,0.19522
2487.72457,0.19757
2489.65304,0.20128
2491.58151,0.20272
2493.50998,0.20158
2495.43844,0.20066
2497.36691,0.20102
2499.29538,0.20086
2501.22385,0.20103
2503.15232,0.20179
2505.08079,0.20046
2507.00926,0.19789
2508.93773,0.19786
2510.86619,0.19902
2512.79466,0.19870
2514.72313,0.19802
2516.65160,0.19751
2518.58007,0.19658
2520.50854,0.19640
2522.43701,0.19823
2524.36547,0.20093
2526.29394,0.20251
2528.22241,0.20104
2530.15088,0.19800
2532.07935,0.19811
2534.00782,0.20047
2535.93629,0.20088
2537.86476,0.19970
2539.79322,0.19892
2541.72169,0.19975
2543.65016,0.20300
2545.57863,0.20691
2547.50710,0.20782
2549.43557,0.20473
2551.36404,0.20101
2553.29250,0.19958
2555.22097,0.20029
2557.14944,0.20218
2559.07791,0.20321
2561.00638,0.20247
2562.93485,0.20235
2564.86332,0.20265
2566.79179,0.20164
2568.72025,0.20151
2570.64872,0.20323
2572.57719,0.20413
2574.50566,0.20369
2576.43413,0.20261
2578.36260,0.20010
2580.29107,0.19858
2582.21953,0.20030
2584.14800,0.20144
2586.07647,0.20107
2588.00494,0.20283
2589.93341,0.20441
2591.86188,0.20272
2593.79035,0.20129
2595.71882,0.20145
2597.64728,0.20196
2599.57575,0.20423
2601.50422,0.20626
2603.43269,0.20446
2605.36116,0.20083
2607.28963,0.19937
2609.21810,0.19995
2611.14656,0.20013
2613.07503,0.19951
2615.00350,0.19942
2616.93197,0.20013
2618.86044,0.20097
2620.78891,0.20245
2622.71738,0.20405
2624.64585,0.20311
2626.57431,0.19942
2628.50278,0.19623
2630.43125,0.19523
2632.35972,0.19518
2634.28819,0.19588
2636.21666,0.19740
2638.14513,0.19869
2640.07359,0.19932
2642.00206,0.19993
2643.93053,0.20198
2645.85900,0.20483
2647.78747,0.20559
2649.71594,0.20363
2651.64441,0.20095
2653.57288,0.19922
2655.50134,0.19900
2657.42981,0.19932
2659.35828,0.19947
2661.28675,0.20008
2663.21522,0.20003
2665.14369,0.20034
2667.07216,0.20230
2669.00062,0.20331
2670.92909,0.20243
2672.85756,0.20134
2674.78603,0.20239
2676.71450,0.20466
2678.64297,0.20471
2680.57144,0.20365
2682.49990,0.20428
2684.42837,0.20543
2686.35684,0.20505
2688.28531,0.20357
2690.21378,0.20385
2692.14225,0.20762
2694.07072,0.21077
2695.99919,0.21093
2697.92765,0.21066
2699.85612,0.21069
2701.78459,0.21054
2703.71306,0.20871
2705.64153,0.20575
2707.57000,0.20576
2709.49847,0.20850
2711.42693,0.20934
2713.35540,0.20725
2715.28387,0.20435
2717.21234,0.20213
2719.14081,0.20299
2721.06928,0.20711
2722.99775,0.20987
2724.92622,0.20872
2726.85468,0.20713
2728.78315,0.20731
2730.71162,0.20789
2732.64009,0.20927
2734.56856,0.21156
2736.49703,0.21281
2738.42550,0.21277
2740.35396,0.21245
2742.28243,0.21104
2744.21090,0.20919
2746.13937,0.20960
2748.06784,0.21128
2749.99631,0.21235
2751.92478,0.21334
2753.85325,0.21281
2755.78171,0.21011
2757.71018,0.20915
2759.63865,0.21048
2761.56712,0.21006
2763.49559,0.20816
2765.42406,0.20726
2767.35253,0.20544
2769.28099,0.20283
2771.20946,0.20444
2773.13793,0.20937
2775.06640,0.21249
2776.99487,0.21367
2778.92334,0.21406
2780.85181,0.21241
2782.78028,0.21041
2784.70874,0.21175
2786.63721,0.21437
2788.56568,0.21362
2790.49415,0.21127
2792.42262,0.21101
2794.35109,0.21161
2796.27956,0.21227
2798.20802,0.21294
2800.13649,0.21127
2802.06496,0.20801
2803.99343,0.20902
2805.92190,0.21563
2807.85037,0.22046
2809.77884,0.22046
2811.70731,0.21910
2813.63577,0.21702
2815.56424,0.21379
2817.49271,0.21270
2819.42118,0.21609
2821.34965,0.21921
2823.27812,0.21836
2825.20659,0.21629
2827.13505,0.21529
2829.06352,0.21543
2830.99199,0.21789
2832.92046,0.22182
2834.84893,0.22307
2836.77740,0.22029
2838.70587,0.21544
2840.63433,0.21216
2842.56280,0.21182
2844.49127,0.21071
2846.41974,0.20857
2848.34821,0.20970
2850.27668,0.21314
2852.20515,0.21464
2854.13362,0.21442
2856.06208,0.21498
2857.99055,0.21716
2859.91902,0.21851
2861.84749,0.21665
2863.77596,0.21350
2865.70443,0.21275
2867.63290,0.21505
2869.56136,0.21749
2871.48983,0.21739
2873.41830,0.21455
2875.34677,0.21247
2877.27524,0.21276
2879.20371,0.21281
2881.13218,0.21299
2883.06065,0.21448
2884.98911,0.21487
2886.91758,0.21339
2888.84605,0.21334
2890.77452,0.21447
2892.70299,0.21262
2894.63146,0.20837
2896.55993,0.20669
2898.48839,0.20997
2900.41686,0.21507
2902.34533,0.21682
2904.27380,0.21412
2906.20227,0.21181
2908.13074,0.21275
2910.05921,0.21257
2911.98768,0.21049
2913.91614,0.20905
2915.84461,0.20651
2917.77308,0.20483
2919.70155,0.20579
2921.63002,0.20783
2923.55849,0.21037
2925.48696,0.20605
2927.41542,0.19534
2929.34389,0.19274
2931.27236,0.20186
2933.20083,0.21072
2935.12930,0.20895
2937.05777,0.20271
2938.98624,0.20340
2940.91471,0.20955
2942.84317,0.21328
2944.77164,0.20824
2946.70011,0.19766
2948.62858,0.19589
2950.55705,0.20459
2952.48552,0.21044
2954.41399,0.20739
2956.34245,0.19745
2958.27092,0.19234
2960.19939,0.20127
2962.12786,0.21195
2964.05633,0.21334
2965.98480,0.20737
2967.91327,0.20177
2969.84174,0.20610
2971.77020,0.21505
2973.69867,0.21933
2975.62714,0.21866
2977.55561,0.21270
2979.48408,0.20804
2981.41255,0.21041
2983.34102,0.21359
2985.26948,0.21368
2987.19795,0.21183
2989.12642,0.21284
2991.05489,0.21890
2992.98336,0.22110
2994.91183,0.21681
2996.84030,0.21353
2998.76877,0.21418
3000.69723,0.21827
3002.62570,0.22267
3004.55417,0.22185
3006.48264,0.21662
3008.41111,0.21167
3010.33958,0.20459
3012.26805,0.18883
3014.19651,0.16100
3016.12498,0.13611
3018.05345,0.14516
3019.98192,0.18183
3021.91039,0.20767
3023.83886,0.21642
3025.76733,0.21961
3027.69579,0.22018
3029.62426,0.22201
3031.55273,0.22464
3033.48120,0.22639
3035.40967,0.22552
3037.33814,0.21885
3039.26661,0.21404
3041.19508,0.21699
3043.12354,0.22082
3045.05201,0.22059
3046.98048,0.21667
3048.90895,0.21279
3050.83742,0.21062
3052.76589,0.20821
3054.69436,0.20647
3056.62282,0.20508
3058.55129,0.20752
3060.47976,0.21576
3062.40823,0.22123
3064.33670,0.21815
3066.26517,0.21098
3068.19364,0.21023
3070.12211,0.21514
3072.05057,0.21655
3073.97904,0.21190
3075.90751,0.20370
3077.83598,0.20122
3079.76445,0.20745
3081.69292,0.21055
3083.62139,0.20144
3085.54985,0.19299
3087.47832,0.20182
3089.40679,0.21685
3091.33526,0.22123
3093.26373,0.21360
3095.19220,0.20565
3097.12067,0.20983
3099.04914,0.21733
3100.97760,0.21388
3102.90607,0.20275
3104.83454,0.20098
3106.76301,0.21374
3108.69148,0.22494
3110.61995,0.22355
3112.54842,0.21600
3114.47688,0.21561
3116.40535,0.22376
3118.33382,0.22843
3120.26229,0.22275
3122.19076,0.21390
3124.11923,0.21293
3126.04770,0.21694
3127.97617,0.21701
3129.90463,0.21272
3131.83310,0.21205
3133.76157,0.21777
3135.69004,0.22219
3137.61851,0.22238
3139.54698,0.22106
3141.47545,0.22255
3143.40391,0.22742
3145.33238,0.23068
3147.26085,0.22983
3149.18932,0.22539
3151.11779,0.22139
3153.04626,0.22326
3154.97473,0.22840
3156.90320,0.22827
3158.83166,0.22418
3160.76013,0.22231
3162.68860,0.22247
3164.61707,0.22608
3166.54554,0.23400
3168.47401,0.23871
3170.40248,0.23361
3172.33094,0.22501
3174.25941,0.22230
3176.18788,0.22327
3178.11635,0.22495
3180.04482,0.22971
3181.97329,0.23321
3183.90176,0.23074
3185.83022,0.22527
3187.75869,0.21973
3189.68716,0.21628
3191.61563,0.21707
3193.54410,0.22173
3195.47257,0.22465
3197.40104,0.22186
3199.32951,0.21990
3201.25797,0.22232
3203.18644,0.22376
3205.11491,0.22333
3207.04338,0.22678
3208.97185,0.23434
3210.90032,0.23809
3212.82879,0.23595
3214.75725,0.23255
3216.68572,0.22842
3218.61419,0.22458
3220.54266,0.22325
3222.47113,0.22188
3224.39960,0.21966
3226.32807,0.21898
3228.25654,0.22044
3230.18500,0.22178
3232.11347,0.22156
3234.04194,0.22269
3235.97041,0.22565
3237.89888,0.22624
3239.82735,0.22508
3241.75582,0.22832
3243.68428,0.23717
3245.61275,0.24159
3247.54122,0.23230
3249.46969,0.21958
3251.39816,0.21699
3253.32663,0.22025
3255.25510,0.22319
3257.18357,0.22733
3259.11203,0.23119
3261.04050,0.22917
3262.96897,0.22170
3264.89744,0.21582
3266.82591,0.21451
3268.75438,0.21501
3270.68285,0.21585
3272.61131,0.21843
3274.53978,0.22011
3276.46825,0.21726
3278.39672,0.21272
3280.32519,0.21170
3282.25366,0.21637
3284.18213,0.22107
3286.11060,0.21959
3288.03906,0.21820
3289.96753,0.22321
3291.89600,0.22854
3293.82447,0.22916
3295.75294,0.22787
3297.68141,0.22610
3299.60988,0.22378
3301.53834,0.22205
3303.46681,0.22002
3305.39528,0.21765
3307.32375,0.21825
3309.25222,0.22057
3311.18069,0.22020
3313.10916,0.21966
3315.03763,0.22182
3316.96609,0.22357
3318.89456,0.22432
3320.82303,0.22479
3322.75150,0.22465
3324.67997,0.22674
3326.60844,0.22930
3328.53691,0.22763
3330.46537,0.22405
3332.39384,0.22327
3334.32231,0.22545
3336.25078,0.22538
3338.17925,0.22244
3340.10772,0.22382
3342.03619,0.22907
3343.96466,0.22981
3345.89312,0.22566
3347.82159,0.22311
3349.75006,0.22289
3351.67853,0.22417
3353.60700,0.22831
3355.53547,0.23171
3357.46394,0.23279
3359.39240,0.23297
3361.32087,0.23065
3363.24934,0.22851
3365.17781,0.22862
3367.10628,0.22604
3369.03475,0.22263
3370.96322,0.22435
3372.89168,0.22565
3374.82015,0.22308
3376.74862,0.22364
3378.67709,0.22817
3380.60556,0.23053
3382.53403,0.22924
3384.46250,0.22653
3386.39097,0.22207
3388.31943,0.21781
3390.24790,0.21887
3392.17637,0.22281
3394.10484,0.22339
3396.03331,0.22415
3397.96178,0.22788
3399.89025,0.22861
3401.81871,0.22821
3403.74718,0.22865
3405.67565,0.22425
3407.60412,0.22025
3409.53259,0.22291
3411.46106,0.22318
3413.38953,0.21858
3415.31800,0.21750
3417.24646,0.21806
3419.17493,0.21544
3421.10340,0.21151
3423.03187,0.21127
3424.96034,0.21655
3426.88881,0.21963
3428.81728,0.21515
3430.74574,0.20779
3432.67421,0.20421
3434.60268,0.20434
3436.53115,0.20613
3438.45962,0.21215
3440.38809,0.21964
3442.31656,0.22127
3444.24503,0.21992
3446.17349,0.22206
3448.10196,0.22288
3450.03043,0.21857
3451.95890,0.21397
3453.88737,0.21154
3455.81584,0.21103
3457.74431,0.21081
3459.67277,0.21062
3461.60124,0.21097
3463.52971,0.21021
3465.45818,0.20731
3467.38665,0.20360
3469.31512,0.20167
3471.24359,0.20211
3473.17206,0.20254
3475.10052,0.20045
3477.02899,0.19708
3478.95746,0.19786
3480.88593,0.20276
3482.81440,0.20265
3484.74287,0.19736
3486.67134,0.19542
3488.59980,0.19551
3490.52827,0.19418
3492.45674,0.19458
3494.38521,0.19730
3496.31368,0.19730
3498.24215,0.19309
3500.17062,0.19051
3502.09909,0.19277
3504.02755,0.19385
3505.95602,0.19126
3507.88449,0.19098
3509.81296,0.19111
3511.74143,0.18964
3513.66990,0.19009
3515.59837,0.19031
3517.52683,0.18937
3519.45530,0.18840
3521.38377,0.18731
3523.31224,0.18707
3525.24071,0.18934
3527.16918,0.19406
3529.09765,0.19475
3531.02611,0.18739
3532.95458,0.17958
3534.88305,0.17908
3536.81152,0.18266
3538.73999,0.18321
3540.66846,0.18229
3542.59693,0.18332
3544.52540,0.18746
3546.45386,0.19191
3548.38233,0.19028
3550.31080,0.18660
3552.23927,0.18599
3554.16774,0.18532
3556.09621,0.18205
3558.02468,0.17689
3559.95314,0.17419
3561.88161,0.17625
3563.81008,0.18201
3565.73855,0.19367
3567.66702,0.19955
3569.59549,0.18786
3571.52396,0.17328
3573.45243,0.16180
3575.38089,0.15554
3577.30936,0.15848
3579.23783,0.16459
3581.16630,0.16689
3583.09477,0.16948
3585.02324,0.17654
3586.95171,0.17986
3588.88017,0.17105
3590.80864,0.16681
3592.73711,0.17344
3594.66558,0.17853
3596.59405,0.17624
3598.52252,0.17441
3600.45099,0.17307
3602.37946,0.16725
3604.30792,0.16358
3606.23639,0.17022
3608.16486,0.17910
3610.09333,0.17883
3612.02180,0.17576
3613.95027,0.17325
3615.87874,0.17403
3617.80720,0.17960
3619.73567,0.17626
3621.66414,0.16117
3623.59261,0.15192
3625.52108,0.15689
3627.44955,0.17719
3629.37802,0.19142
3631.30649,0.17786
3633.23495,0.16324
3635.16342,0.15428
3637.09189,0.14679
3639.02036,0.14334
3640.94883,0.14594
3642.87730,0.15332
3644.80577,0.16762
3646.73423,0.19281
3648.66270,0.21567
3650.59117,0.20026
3652.51964,0.17268
3654.44811,0.15849
3656.37658,0.15175
3658.30505,0.14678
3660.23352,0.14364
3662.16198,0.14077
3664.09045,0.13821
3666.01892,0.14154
3667.94739,0.15430
3669.87586,0.16774
3671.80433,0.17296
3673.73280,0.18182
3675.66126,0.18250
3677.58973,0.16235
3679.51820,0.14710
3681.44667,0.13901
3683.37514,0.13626
3685.30361,0.14255
3687.23208,0.15787
3689.16055,0.17163
3691.08901,0.16694
3693.01748,0.15271
3694.94595,0.14205
3696.87442,0.13783
3698.80289,0.14154
3700.73136,0.14774
3702.65983,0.14511
3704.58829,0.13968
3706.51676,0.14395
3708.44523,0.15738
3710.37370,0.16786
3712.30217,0.16078
3714.23064,0.14939
3716.15911,0.14482
3718.08757,0.14421
3720.01604,0.14811
3721.94451,0.15613
3723.87298,0.16004
3725.80145,0.15532
3727.72992,0.15102
3729.65839,0.15528
3731.58686,0.16752
3733.51532,0.18420
3735.44379,0.18768
3737.37226,0.16780
3739.30073,0.15170
3741.22920,0.15144
3743.15767,0.16165
3745.08614,0.16750
3747.01460,0.16655
3748.94307,0.17712
3750.87154,0.19149
3752.80001,0.17905
3754.72848,0.15972
3756.65695,0.15383
3758.58542,0.15521
3760.51389,0.14995
3762.44235,0.14236
3764.37082,0.14112
3766.29929,0.14333
3768.22776,0.14480
3770.15623,0.14149
3772.08470,0.13204
3774.01317,0.12643
3775.94163,0.12869
3777.87010,0.13511
3779.79857,0.14015
3781.72704,0.14143
3783.65551,0.14066
3785.58398,0.13704
3787.51245,0.13175
3789.44092,0.12759
3791.36938,0.12558
3793.29785,0.12838
3795.22632,0.13885
3797.15479,0.14952
3799.08326,0.15493
3801.01173,0.16286
3802.94020,0.16561
3804.86866,0.16251
3806.79713,0.15662
3808.72560,0.14318
3810.65407,0.13470
3812.58254,0.13802
3814.51101,0.15143
3816.43948,0.16291
3818.36795,0.16486
3820.29641,0.16864
3822.22488,0.16441
3824.15335,0.15394
3826.08182,0.14691
3828.01029,0.13699
3829.93876,0.12937
3831.86723,0.13320
3833.79569,0.14244
3835.72416,0.14880
3837.65263,0.15483
3839.58110,0.15768
3841.50957,0.15268
3843.43804,0.14427
3845.36651,0.13522
3847.29498,0.12969
3849.22344,0.13406
3851.15191,0.15357
3853.08038,0.17993
3855.00885,0.17035
3856.93732,0.14696
3858.86579,0.13482
3860.79426,0.13305
3862.72272,0.14026
3864.65119,0.14431
3866.57966,0.13998
3868.50813,0.14155
3870.43660,0.14555
3872.36507,0.14212
3874.29354,0.13988
3876.22200,0.13990
3878.15047,0.14230
3880.07894,0.14768
3882.00741,0.14817
3883.93588,0.14535
3885.86435,0.14174
3887.79282,0.13567
3889.72129,0.13121
3891.64975,0.12636
3893.57822,0.11875
3895.50669,0.11605
3897.43516,0.12291
3899.36363,0.13541
3901.29210,0.14390
3903.22057,0.14556
3905.14903,0.13955
3907.07750,0.12808
3909.00597,0.11865
3910.93444,0.11420
3912.86291,0.11607
3914.79138,0.12358
3916.71985,0.12730
3918.64832,0.12320
3920.57678,0.12233
3922.50525,0.12522
3924.43372,0.12438
3926.36219,0.11919
3928.29066,0.11650
3930.21913,0.12187
3932.14760,0.12795
3934.07606,0.12444
3936.00453,0.11919
3937.93300,0.11798
3939.86147,0.11600
3941.78994,0.11389
3943.71841,0.11546
3945.64688,0.11730
3947.57535,0.11610
3949.50381,0.11453
3951.43228,0.11605
3953.36075,0.11727
3955.28922,0.11519
3957.21769,0.11379
3959.14616,0.11698
3961.07463,0.12140
3963.00309,0.12000
3964.93156,0.11433
3966.86003,0.11206
3968.78850,0.11107
3970.71697,0.10596
3972.64544,0.10048
3974.57391,0.10103
3976.50238,0.10556
3978.43084,0.10618
3980.35931,0.10318
3982.28778,0.10182
3984.21625,0.10452
3986.14472,0.11137
3988.07319,0.11659
3990.00166,0.11559
3991.93012,0.11147
3993.85859,0.10860
3995.78706,0.10648
3997.71553,0.10331
3999.64400,0.10179
4001.57247,0.10400
4003.50094,0.10687
4005.42941,0.10741
4007.35787,0.10907
4009.28634,0.11277
4011.21481,0.11262
4013.14328,0.10950
4015.07175,0.10801
4017.00022,0.10768
4018.92869,0.10666
4020.85715,0.10676
4022.78562,0.10811
4024.71409,0.10584
4026.64256,0.09989
4028.57103,0.09444
4030.49950,0.09177
4032.42797,0.09362
4034.35644,0.09867
4036.28490,0.10242
4038.21337,0.10340
4040.14184,0.10420
4042.07031,0.10519
4043.99878,0.10431
4045.92725,0.10297
4047.85572,0.10339
4049.78418,0.10455
4051.71265,0.10430
4053.64112,0.10191
4055.56959,0.10143
4057.49806,0.10495
4059.42653,0.10715
4061.35500,0.10535
4063.28346,0.10167
4065.21193,0.09708
4067.14040,0.09251
4069.06887,0.08964
4070.99734,0.09040
4072.92581,0.09526
4074.85428,0.09979
4076.78275,0.10129
4078.71121,0.10003
4080.63968,0.09405
4082.56815,0.08743
4084.49662,0.08640
4086.42509,0.08799
4088.35356,0.08943
4090.28203,0.09345
4092.21049,0.09827
4094.13896,0.09921
4096.06743,0.09893
4097.99590,0.10099
4099.92437,0.10091
4101.85284,0.09661
4103.78131,0.09282
4105.70978,0.09143
4107.63824,0.09032
4109.56671,0.08862
4111.49518,0.08874
4113.42365,0.09150
4115.35212,0.09475
4117.28059,0.09704
4119.20906,0.09694
4121.13752,0.09437
4123.06599,0.09010
4124.99446,0.08610
4126.92293,0.08360
4128.85140,0.08046
4130.77987,0.07998
4132.70834,0.08501
4134.63681,0.08786
4136.56527,0.08636
4138.49374,0.08703
4140.42221,0.08989
4142.35068,0.09141
4144.27915,0.08909
4146.20762,0.08329
4148.13609,0.08043
4150.06455,0.08448
4151.99302,0.09070
4153.92149,0.09182
4155.84996,0.08864
4157.77843,0.08550
4159.70690,0.08385
4161.63537,0.08696
4163.56384,0.09308
4165.49230,0.09248
4167.42077,0.08597
4169.34924,0.08273
4171.27771,0.08001
4173.20618,0.07494
4175.13465,0.07428
4177.06312,0.07813
4178.99158,0.07985
4180.92005,0.07724
4182.84852,0.07399
4184.77699,0.07372
4186.70546,0.07352
4188.63393,0.07037
4190.56240,0.06816
4192.49087,0.06667
4194.41933,0.06133
4196.34780,0.05608
4198.27627,0.05900
4200.20474,0.06844
4202.13321,0.07433
4204.06168,0.07613
4205.99015,0.07934
4207.91861,0.08143
4209.84708,0.08028
4211.77555,0.07911
4213.70402,0.07517
4215.63249,0.06596
4217.56096,0.06235
4219.48943,0.06627
4221.41789,0.06434
4223.34636,0.05803
4225.27483,0.05962
4227.20330,0.06684
4229.13177,0.06818
4231.06024,0.06330
4232.98871,0.06373
4234.91718,0.07190
4236.84564,0.07782
4238.77411,0.07509
4240.70258,0.06758
4242.63105,0.06347
4244.55952,0.06533
4246.48799,0.06944
4248.41646,0.06870
4250.34492,0.06500
4252.27339,0.06627
4254.20186,0.06763
4256.13033,0.06604
4258.05880,0.06256
4259.98727,0.05883
4261.91574,0.06319
4263.84421,0.06846
4265.77267,0.06268
4267.70114,0.05426
4269.62961,0.05441
4271.55808,0.06252
4273.48655,0.07216
4275.41502,0.07579
4277.34349,0.07282
4279.27195,0.06899
4281.20042,0.06355
4283.12889,0.05694
4285.05736,0.05529
4286.98583,0.05641
4288.91430,0.05496
4290.84277,0.05563
4292.77124,0.06189
4294.69970,0.06462
4296.62817,0.05905
4298.55664,0.05523
4300.48511,0.06031
4302.41358,0.06449
4304.34205,0.05881
4306.27052,0.05037
4308.19898,0.04545
4310.12745,0.04387
4312.05592,0.04667
4313.98439,0.05265
4315.91286,0.05676
4317.84133,0.05581
4319.76980,0.05271
4321.69827,0.05229
4323.62673,0.05313
4325.55520,0.05059
4327.48367,0.04648
4329.41214,0.04641
4331.34061,0.05246
4333.26908,0.05987
4335.19755,0.06150
4337.12601,0.05697
4339.05448,0.05079
4340.98295,0.04669
4342.91142,0.04624
4344.83989,0.04832
4346.76836,0.05174
4348.69683,0.05541
4350.62530,0.05243
4352.55376,0.04014
4354.48223,0.03129
4356.41070,0.03319
4358.33917,0.03758
4360.26764,0.03873
4362.19611,0.03878
4364.12458,0.03999
4366.05304,0.04177
4367.98151,0.04243
4369.90998,0.03895
4371.83845,0.02988
4373.76692,0.02258
4375.69539,0.02624
4377.62386,0.03384
4379.55232,0.03378
4381.48079,0.03002
4383.40926,0.02863
4385.33773,0.03026
4387.26620,0.03242
4389.19467,0.02962
4391.12314,0.02504
4393.05161,0.02534
4394.98007,0.02915
4396.90854,0.03555
4398.83701,0.04332
4400.76548,0.04296
4402.69395,0.02974
4404.62242,0.01757
4406.55089,0.01821
4408.47935,0.02667
4410.40782,0.03402
4412.33629,0.03387
4414.26476,0.02572
4416.19323,0.01347
4418.12170,0.00638
4420.05017,0.01218
4421.97864,0.02180
4423.90710,0.02690
4425.83557,0.02773
4427.76404,0.02376
4429.69251,0.02345
4431.62098,0.03074
4433.54945,0.03341
4435.47792,0.02868
4437.40638,0.02288
4439.33485,0.01648
4441.26332,0.01212
4443.19179,0.01401
4445.12026,0.01990
4447.04873,0.02278
4448.97720,0.02213
4450.90567,0.02339
4452.83413,0.02451
4454.76260,0.02023
4456.69107,0.01552
4458.61954,0.01906
4460.54801,0.02618
4462.47648,0.02739
4464.40495,0.02316
4466.33341,0.02040
4468.26188,0.02114
4470.19035,0.02047
4472.11882,0.02022
4474.04729,0.02170
4475.97576,0.02021
4477.90423,0.01650
4479.83270,0.01169
4481.76116,0.00535
4483.68963,0.00063
4485.61810,0.00157
4487.54657,0.01098
4489.47504,0.02408
4491.40351,0.02897
4493.33198,0.02608
4495.26044,0.02635
4497.18891,0.02757
4499.11738,0.02026
4501.04585,0.01088
4502.97432,0.00886
4504.90279,0.00718
4506.83126,0.00409
4508.75973,0.00567
4510.68819,0.01029
4512.61666,0.01318
4514.54513,0.01038
4516.47360,0.00437
4518.40207,0.00161
4520.33054,0.00331
4522.25901,0.00524
4524.18747,0.00593
4526.11594,0.00477
4528.04441,-0.00020
4529.97288,-0.00214
4531.90135,0.00291
4533.82982,0.00754
4535.75829,0.00859
4537.68676,0.00869
4539.61522,0.00910
4541.54369,0.01040
4543.47216,0.01188
4545.40063,0.01040
4547.32910,0.00616
4549.25757,0.00552
4551.18604,0.01163
4553.11450,0.01767
4555.04297,0.01766
4556.97144,0.01459
4558.89991,0.01151
4560.82838,0.00949
4562.75685,0.01139
4564.68532,0.01354
4566.61378,0.00940
4568.54225,0.00351
4570.47072,0.00298
4572.39919,0.00565
4574.32766,0.00756
4576.25613,0.00927
4578.18460,0.01228
4580.11307,0.01793
4582.04153,0.02095
4583.97000,0.01792
4585.89847,0.01320
4587.82694,0.00362
4589.75541,-0.00802
4591.68388,-0.01160
4593.61235,-0.00867
4595.54081,-0.00453
4597.46928,-0.00300
4599.39775,-0.00606
4601.32622,-0.00504
4603.25469,0.00470
4605.18316,0.00812
4607.11163,0.00074
4609.04010,-0.00537
4610.96856,-0.00720
4612.89703,-0.00388
4614.82550,0.00694
4616.75397,0.01889
4618.68244,0.02035
4620.61091,0.01284
4622.53938,0.00317
4624.46784,-0.00813
4626.39631,-0.01573
4628.32478,-0.01253
4630.25325,0.00187
4632.18172,0.01300
4634.11019,0.00944
4636.03866,0.00524
4637.96713,0.00781
4639.89559,0.00947
4641.82406,0.01415
4643.75253,0.01797
4645.68100,0.01091
4647.60947,0.00226
4649.53794,-0.00186
4651.46641,-0.00355
4653.39487,-0.00040
4655.32334,0.00576
4657.25181,0.00741
4659.18028,0.00451
4661.10875,0.00301
4663.03722,0.00298
4664.96569,0.00085
4666.89416,-0.00633
4668.82262,-0.01515
4670.75109,-0.01964
4672.67956,-0.01777
4674.60803,-0.01011
4676.53650,-0.00006
4678.46497,0.00697
4680.39344,0.00760
4682.32190,0.00713
4684.25037,0.01009
4686.17884,0.01242
4688.10731,0.01043
4690.03578,0.00530
4691.96425,-0.00120
4693.89272,-0.00529
4695.82119,-0.00173
4697.74965,0.00563
4699.67812,0.00846
4701.60659,0.00513
4703.53506,0.00130
4705.46353,-0.00184
4707.39200,-0.00611
4709.32047,-0.00739
4711.24893,-0.00527
4713.17740,-0.00248
4715.10587,0.00075
4717.03434,0.00469
4718.96281,0.00561
4720.89128,-0.00166
4722.81975,-0.00539
4724.74821,0.00064
4726.67668,0.00115
4728.60515,0.00050
4730.53362,0.00840
4732.46209,0.01441
4734.39056,0.01421
4736.31903,0.01153
4738.24750,0.00679
4740.17596,0.00216
4742.10443,0.00026
4744.03290,0.00184
4745.96137,0.00814
4747.88984,0.01498
4749.81831,0.01152
4751.74678,-0.00104
4753.67524,-0.00687
4755.60371,-0.00232
4757.53218,0.00262
4759.46065,0.00454
4761.38912,0.00797
4763.31759,0.01270
4765.24606,0.00908
4767.17453,-0.00265
4769.10299,-0.00898
4771.03146,-0.00612
4772.95993,-0.00701
4774.88840,-0.01456
4776.81687,-0.01588
4778.74534,-0.01044
4780.67381,-0.00443
4782.60227,0.00021
4784.53074,0.00209
4786.45921,0.00036
4788.38768,-0.00670
4790.31615,-0.01125
4792.24462,-0.00556
4794.17309,0.00627
4796.10156,0.02018
4798.03002,0.02694
4799.95849,0.01731
4801.88696,-0.00156
4803.81543,-0.01258
4805.74390,-0.00747
4807.67237,-0.00055
4809.60084,-0.00499
4811.52930,-0.01184
4813.45777,-0.01135
4815.38624,-0.00942
4817.31471,-0.00354
4819.24318,0.00640
4821.17165,0.01390
4823.10012,0.01677
4825.02859,0.01352
4826.95705,0.01432
4828.88552,0.02164
4830.81399,0.01927
4832.74246,0.00866
4834.67093,0.00248
4836.59940,0.00524
4838.52787,0.01121
4840.45633,0.01119
4842.38480,0.00567
4844.31327,0.00142
4846.24174,0.00143
4848.17021,0.00566
4850.09868,0.01329
4852.02715,0.01718
4853.95562,0.01678
4855.88408,0.01651
4857.81255,0.00672
4859.74102,-0.00816
4861.66949,-0.00707
4863.59796,0.00508
4865.52643,0.01178
4867.45490,0.00912
4869.38336,0.00029
4871.31183,-0.00107
4873.24030,0.01030
4875.16877,0.01756
4877.09724,0.01398
4879.02571,0.00893
4880.95418,0.00246
4882.88265,-0.00612
4884.81111,-0.00792
4886.73958,-0.00650
4888.66805,-0.00606
4890.59652,0.00323
4892.52499,0.01487
4894.45346,0.01344
4896.38193,0.00221
4898.31039,-0.00991
4900.23886,-0.01506
4902.16733,-0.01091
4904.09580,-0.00305
4906.02427,0.00261
4907.95274,-0.00320
4909.88121,-0.01403
4911.80967,-0.01569
4913.73814,-0.01313
4915.66661,-0.00753
4917.59508,0.00158
4919.52355,0.00617
4921.45202,0.00912
4923.38049,0.01515
4925.30896,0.01938
4927.23742,0.01784
4929.16589,0.01511
4931.09436,0.01566
4933.02283,0.01728
4934.95130,0.01617
4936.87977,0.00711
4938.80824,-0.00843
4940.73670,-0.01901
4942.66517,-0.02307
4944.59364,-0.02269
4946.52211,-0.01272
4948.45058,0.00392
4950.37905,0.01560
4952.30752,0.01633
4954.23599,0.00994
4956.16445,0.00263
4958.09292,-0.00410
4960.02139,-0.00907
4961.94986,-0.00706
4963.87833,0.00286
4965.80680,0.01256
4967.73527,0.01095
4969.66373,-0.00181
4971.59220,-0.01213
4973.52067,-0.01515
4975.44914,-0.00977
4977.37761,0.00393
4979.30608,0.01099
4981.23455,0.00540
4983.16302,-0.00066
4985.09148,0.00690
4987.01995,0.02176
4988.94842,0.01941
4990.87689,0.00230
4992.80536,-0.00251
4994.73383,0.00758
4996.66230,0.01306
4998.59076,0.01392
5000.51923,0.02409
5002.44770,0.03725
5004.37617,0.03870
5006.30464,0.03106
5008.23311,0.02493
5010.16158,0.02134
5012.09005,0.01281
5014.01851,0.00390
5015.94698,0.00750
5017.87545,0.01746
5019.80392,0.02175
5021.73239,0.02352
5023.66086,0.02800
5025.58933,0.02808
5027.51779,0.02155
5029.44626,0.02257
5031.37473,0.03195
5033.30320,0.03262
5035.23167,0.02084
5037.16014,0.01107
5039.08861,0.00743
5041.01708,0.00274
5042.94554,0.00325
5044.87401,0.00733
5046.80248,0.00402
5048.73095,0.00369
5050.65942,0.01183
5052.58789,0.01613
5054.51636,0.01342
5056.44482,0.01484
5058.37329,0.02321
5060.30176,0.02497
5062.23023,0.02001
5064.15870,0.01831
5066.08717,0.01897
5068.01564,0.01970
5069.94410,0.01989
5071.87257,0.01860
5073.80104,0.01458
5075.72951,0.00790
5077.65798,0.00776
5079.58645,0.02565
5081.51492,0.04606
5083.44339,0.04565
5085.37185,0.03000
5087.30032,0.01448
5089.22879,0.00658
5091.15726,0.00566
5093.08573,0.01005
5095.01420,0.01720
5096.94267,0.01871
5098.87113,0.01334
5100.79960,0.00946
5102.72807,0.00925
5104.65654,0.00828
5106.58501,0.00873
5108.51348,0.01382
5110.44195,0.02031
5112.37042,0.02308
5114.29888,0.02362
5116.22735,0.02634
5118.15582,0.02891
5120.08429,0.02874
5122.01276,0.02524
5123.94123,0.02668
5125.86970,0.03586
5127.79816,0.03853
5129.72663,0.03494
5131.65510,0.03521
5133.58357,0.03819
5135.51204,0.03887
5137.44051,0.03243
5139.36898,0.02179
5141.29745,0.02340
5143.22591,0.04363
5145.15438,0.06311
5147.08285,0.06923
5149.01132,0.06768
5150.93979,0.06082
5152.86826,0.05347
5154.79673,0.04397
5156.72519,0.02815
5158.65366,0.02546
5160.58213,0.04030
5162.51060,0.05404
5164.43907,0.05476
5166.36754,0.04305
5168.29601,0.03565
5170.22448,0.03264
5172.15294,0.02636
5174.08141,0.03091
5176.00988,0.04606
5177.93835,0.06105
5179.86682,0.07093
5181.79529,0.06647
5183.72376,0.04829
5185.65222,0.03233
5187.58069,0.02701
5189.50916,0.02130
5191.43763,0.01803
5193.36610,0.02979
5195.29457,0.04191
5197.22304,0.03807
5199.15151,0.02789
5201.07997,0.02621
5203.00844,0.03514
5204.93691,0.04804
5206.86538,0.05594
5208.79385,0.05195
5210.72232,0.03752
5212.65079,0.02017
5214.57925,0.01118
5216.50772,0.01765
5218.43619,0.02789
5220.36466,0.02215
5222.29313,0.00509
5224.22160,0.00530
5226.15007,0.03548
5228.07854,0.06246
5230.00700,0.06500
5231.93547,0.05917
5233.86394,0.05244
5235.79241,0.04462
5237.72088,0.03947
5239.64935,0.02807
5241.57782,0.01443
5243.50628,0.01797
5245.43475,0.02958
5247.36322,0.03702
5249.29169,0.04825
5251.22016,0.05737
5253.14863,0.05192
5255.07710,0.03338
5257.00556,0.02196
5258.93403,0.03036
5260.86250,0.04693
5262.79097,0.05654
5264.71944,0.05963
5266.64791,0.06021
5268.57638,0.05290
5270.50485,0.04471
5272.43331,0.04780
5274.36178,0.05369
5276.29025,0.05043
5278.21872,0.04014
5280.14719,0.03226
5282.07566,0.03531
5284.00413,0.04996
5285.93259,0.06090
5287.86106,0.05808
5289.78953,0.05397
5291.71800,0.05784
5293.64647,0.06179
5295.57494,0.06043
5297.50341,0.05576
5299.43188,0.05094
5301.36034,0.05423
5303.28881,0.06374
5305.21728,0.06421
5307.14575,0.05729
5309.07422,0.05248
5311.00269,0.05075
5312.93116,0.05260
5314.85962,0.05636
5316.78809,0.05629
5318.71656,0.05034
5320.64503,0.05197
5322.57350,0.06653
5324.50197,0.08066
5326.43044,0.08491
5328.35891,0.07371
5330.28737,0.06187
5332.21584,0.06052
5334.14431,0.05717
5336.07278,0.05518
5338.00125,0.05235
5339.92972,0.04267
5341.85819,0.04898
5343.78665,0.07121
5345.71512,0.08042
5347.64359,0.08029
5349.57206,0.08463
5351.50053,0.07229
5353.42900,0.04460
5355.35747,0.04306
5357.28594,0.06538
5359.21440,0.08468
5361.14287,0.08676
5363.07134,0.06378
5364.99981,0.03502
5366.92828,0.03033
5368.85675,0.04342
5370.78522,0.05255
5372.71368,0.05888
5374.64215,0.07228
5376.57062,0.08798
5378.49909,0.09128
5380.42756,0.08543
5382.35603,0.08485
5384.28450,0.07895
5386.21297,0.06052
5388.14143,0.05751
5390.06990,0.06725
5391.99837,0.07453
5393.92684,0.08320
5395.85531,0.08405
5397.78378,0.07370
5399.71225,0.06774
5401.64071,0.07139
5403.56918,0.08655
5405.49765,0.10230
5407.42612,0.10124
5409.35459,0.10372
5411.28306,0.12824
5413.21153,0.13628
5415.13999,0.10835
5417.06846,0.07824
5418.99693,0.05465
5420.92540,0.04292
5422.85387,0.04670
5424.78234,0.04809
5426.71081,0.04583
5428.63928,0.04534
5430.56774,0.04812
5432.49621,0.05882
5434.42468,0.06845
5436.35315,0.06943
5438.28162,0.06679
5440.21009,0.06611
5442.13856,0.07022
5444.06702,0.08773
5445.99549,0.11944
5447.92396,0.13231
5449.85243,0.10678
5451.78090,0.06785
5453.70937,0.03625
5455.63784,0.02486
5457.56631,0.04629
5459.49477,0.06762
5461.42324,0.05312
5463.35171,0.03756
5465.28018,0.05266
5467.20865,0.06307
5469.13712,0.05416
5471.06559,0.06289
5472.99405,0.08433
5474.92252,0.07846
5476.85099,0.05458
5478.77946,0.04422
5480.70793,0.03753
5482.63640,0.03337
5484.56487,0.04857
5486.49334,0.07525
5488.42180,0.08491
5490.35027,0.07150
5492.27874,0.05783
5494.20721,0.05555
5496.13568,0.05658
5498.06415,0.05599
5499.99262,0.05183
5501.92108,0.04727
5503.84955,0.05552
5505.77802,0.07499
5507.70649,0.08158
5509.63496,0.07588
5511.56343,0.07537
5513.49190,0.07455
5515.42037,0.07858
5517.34883,0.09377
5519.27730,0.09095
5521.20577,0.06565
5523.13424,0.05301
5525.06271,0.05818
5526.99118,0.05721
5528.91965,0.04738
5530.84811,0.04033
5532.77658,0.03563
5534.70505,0.03435
5536.63352,0.03686
5538.56199,0.02206
5540.49046,0.00154
5542.41893,0.01668
5544.34740,0.05063
5546.27586,0.07134
5548.20433,0.07887
5550.13280,0.07245
5552.06127,0.06955
5553.98974,0.07863
5555.91821,0.07226
5557.84668,0.04521
5559.77514,0.02298
5561.70361,0.03047
5563.63208,0.07063
5565.56055,0.09946
5567.48902,0.09041
5569.41749,0.07226
5571.34596,0.05739
5573.27443,0.04600
5575.20289,0.04700
5577.13136,0.05011
5579.05983,0.04631
5580.98830,0.04115
5582.91677,0.04689
5584.84524,0.06015
5586.77371,0.07364
5588.70217,0.09294
5590.63064,0.10725
5592.55911,0.11292
5594.48758,0.11931
5596.41605,0.11169
5598.34452,0.08012
5600.27299,0.05287
5602.20145,0.04964
5604.12992,0.04676
5606.05839,0.03615
5607.98686,0.04454
5609.91533,0.07030
5611.84380,0.08390
5613.77227,0.09297
5615.70074,0.10909
5617.62920,0.10701
5619.55767,0.08294
5621.48614,0.07054
5623.41461,0.09093
5625.34308,0.11450
5627.27155,0.11694
5629.20002,0.12103
5631.12848,0.12296
5633.05695,0.10388
5634.98542,0.07282
5636.91389,0.04779
5638.84236,0.03991
5640.77083,0.04713
5642.69930,0.06406
5644.62777,0.08304
5646.55623,0.09826
5648.48470,0.11760
5650.41317,0.12230
5652.34164,0.09391
5654.27011,0.08096
5656.19858,0.10675
5658.12705,0.12129
5660.05551,0.10759
5661.98398,0.10324
5663.91245,0.11718
5665.84092,0.12147
5667.76939,0.10604
5669.69786,0.09180
5671.62633,0.09425
5673.55480,0.09996
5675.48326,0.10419
5677.41173,0.10553
5679.34020,0.09658
5681.26867,0.09270
5683.19714,0.09501
5685.12561,0.09529
5687.05408,0.10002
5688.98254,0.09097
5690.91101,0.06611
5692.83948,0.06524
5694.76795,0.07405
5696.69642,0.05727
5698.62489,0.04449
5700.55336,0.05680
5702.48183,0.06895
5704.41029,0.06407
5706.33876,0.04729
5708.26723,0.04312
5710.19570,0.06670
5712.12417,0.09278
5714.05264,0.09746
5715.98111,0.09243
5717.90957,0.09695
5719.83804,0.11100
5721.76651,0.10522
5723.69498,0.07333
5725.62345,0.04642
5727.55192,0.03788
5729.48039,0.04446
5731.40886,0.05804
5733.33732,0.06442
5735.26579,0.05721
5737.19426,0.04921
5739.12273,0.05548
5741.05120,0.07643
5742.97967,0.08468
5744.90814,0.06058
5746.83660,0.04166
5748.76507,0.03968
5750.69354,0.02946
5752.62201,0.04266
5754.55048,0.08486
5756.47895,0.10813
5758.40742,0.10512
5760.33588,0.08681
5762.26435,0.05999
5764.19282,0.04059
5766.12129,0.05187
5768.04976,0.09740
5769.97823,0.12434
5771.90670,0.09821
5773.83517,0.07219
5775.76363,0.08331
5777.69210,0.10617
5779.62057,0.12170
5781.54904,0.13695
5783.47751,0.14810
5785.40598,0.13203
5787.33445,0.09188
5789.26291,0.06200
5791.19138,0.05472
5793.11985,0.05612
5795.04832,0.06733
5796.97679,0.09532
5798.90526,0.11831
5800.83373,0.11748
5802.76220,0.09873
5804.69066,0.07408
5806.61913,0.05469
5808.54760,0.05075
5810.47607,0.06390
5812.40454,0.08599
5814.33301,0.09974
5816.26148,0.08434
5818.18994,0.05525
5820.11841,0.05378
5822.04688,0.07235
5823.97535,0.07435
5825.90382,0.06260
5827.83229,0.06541
5829.76076,0.08497
5831.68923,0.09619
5833.61769,0.07902
5835.54616,0.04679
5837.47463,0.04616
5839.40310,0.07897
5841.33157,0.10072
5843.26004,0.09866
5845.18851,0.08077
5847.11697,0.05195
5849.04544,0.04375
5850.97391,0.06491
5852.90238,0.06847
5854.83085,0.05063
5856.75932,0.05151
5858.68779,0.06230
5860.61626,0.04557
5862.54472,0.02896
5864.47319,0.04492
5866.40166,0.06581
5868.33013,0.07181
5870.25860,0.07378
5872.18707,0.07622
5874.11554,0.07444
5876.04400,0.08324
5877.97247,0.10005
5879.90094,0.10623
5881.82941,0.11425
5883.75788,0.11617
5885.68635,0.08652
5887.61482,0.04123
5889.54329,0.03496
5891.47175,0.06763
5893.40022,0.08751
5895.32869,0.07651
5897.25716,0.05224
5899.18563,0.05927
5901.11410,0.10157
5903.04257,0.12727
5904.97103,0.10940
5906.89950,0.06415
5908.82797,0.03419
5910.75644,0.03329
5912.68491,0.02598
5914.61338,0.01122
5916.54185,0.01728
5918.47032,0.04932
5920.39878,0.09118
5922.32725,0.11151
5924.25572,0.09866
5926.18419,0.07737
5928.11266,0.06935
5930.04113,0.07476
5931.96960,0.08122
5933.89806,0.07116
5935.82653,0.05108
5937.75500,0.04971
5939.68347,0.04857
5941.61194,0.03780
5943.54041,0.06078
5945.46888,0.08891
5947.39734,0.07828
5949.32581,0.07757
5951.25428,0.09886
5953.18275,0.09564
5955.11122,0.08069
5957.03969,0.05911
5958.96816,0.02002
5960.89663,0.00046
5962.82509,0.01767
5964.75356,0.06379
5966.68203,0.10464
5968.61050,0.09766
5970.53897,0.08971
5972.46744,0.10294
5974.39591,0.09832
5976.32437,0.10129
5978.25284,0.10027
5980.18131,0.06025
5982.10978,0.03140
5984.03825,0.04047
5985.96672,0.04946
5987.89519,0.05415
5989.82366,0.07533
5991.75212,0.08850
5993.68059,0.08207
5995.60906,0.09802
5997.53753,0.13782
5999.46600,0.16027
6001.39447,0.14370
6003.32294,0.09406
6005.25140,0.04941
6007.17987,0.03937
6009.10834,0.04565
6011.03681,0.05568
6012.96528,0.08761
6014.89375,0.12182
6016.82222,0.12084
6018.75069,0.08957
6020.67915,0.06264
6022.60762,0.06063
6024.53609,0.07200
6026.46456,0.06960
6028.39303,0.05546
6030.32150,0.08518
6032.24997,0.15164
6034.17843,0.16943
6036.10690,0.14202
6038.03537,0.13553
6039.96384,0.12863
6041.89231,0.08039
6043.82078,0.03095
6045.74925,0.03292
6047.67772,0.04201
6049.60618,0.00589
6051.53465,-0.00909
6053.46312,0.05431
6055.39159,0.14907
6057.32006,0.18993
6059.24853,0.17089
6061.17700,0.17807
6063.10546,0.21385
6065.03393,0.20096
6066.96240,0.14454
6068.89087,0.10036
6070.81934,0.09270
6072.74781,0.09916
6074.67628,0.10648
6076.60475,0.11078
6078.53321,0.09321
6080.46168,0.06320
6082.39015,0.03867
6084.31862,0.02193
6086.24709,0.03798
6088.17556,0.06458
6090.10403,0.04832
6092.03249,0.05462
6093.96096,0.13451
6095.88943,0.19364
6097.81790,0.17445
6099.74637,0.11537
6101.67484,0.07046
6103.60331,0.06694
6105.53177,0.06142
6107.46024,0.03614
6109.38871,0.03540
6111.31718,0.05974
6113.24565,0.07777
6115.17412,0.06768
6117.10259,0.06979
6119.03106,0.13885
6120.95952,0.19921
6122.88799,0.18051
6124.81646,0.12215
6126.74493,0.08431
6128.67340,0.07845
6130.60187,0.07542
6132.53034,0.08075
6134.45880,0.10560
6136.38727,0.11828
6138.31574,0.10097
6140.24421,0.09668
6142.17268,0.11966
6144.10115,0.11465
6146.02962,0.09338
6147.95809,0.10247
6149.88655,0.11267
6151.81502,0.09748
6153.74349,0.07707
6155.67196,0.05822
6157.60043,0.04631
6159.52890,0.04058
6161.45737,0.01631
6163.38583,-0.00337
6165.31430,0.03208
6167.24277,0.08484
6169.17124,0.10999
6171.09971,0.12798
6173.02818,0.14927
6174.95665,0.15236
6176.88512,0.11313
6178.81358,0.05466
6180.74205,0.03451
6182.67052,0.04580
6184.59899,0.05615
6186.52746,0.07629
6188.45593,0.11224
6190.38440,0.11919
6192.31286,0.07453
6194.24133,0.04760
6196.16980,0.09474
6198.09827,0.15048
6200.02674,0.13755
6201.95521,0.08294
6203.88368,0.04687
6205.81215,0.04160
6207.74061,0.03415
6209.66908,0.02285
6211.59755,0.05241
6213.52602,0.09897
6215.45449,0.10359
6217.38296,0.07644
6219.31143,0.06717
6221.23989,0.09985
6223.16836,0.15203
6225.09683,0.15756
6227.02530,0.07705
6228.95377,-0.01037
6230.88224,-0.01473
6232.81071,0.03189
6234.73918,0.05952
6236.66764,0.06973
6238.59611,0.07275
6240.52458,0.04821
6242.45305,0.01902
6244.38152,0.00863
6246.30999,-0.01376
6248.23846,-0.03210
6250.16692,-0.00326
6252.09539,0.04971
6254.02386,0.06892
6255.95233,0.05798
6257.88080,0.04857
6259.80927,0.05705
6261.73774,0.09246
6263.66621,0.11880
6265.59467,0.08756
6267.52314,0.02874
6269.45161,0.00373
6271.38008,0.01462
6273.30855,0.04480
6275.23702,0.09793
6277.16549,0.15508
6279.09395,0.15906
6281.02242,0.10877
6282.95089,0.06503
6284.87936,0.05124
6286.80783,0.05169
6288.73630,0.05380
6290.66477,0.04334
6292.59323,0.03246
6294.52170,0.03881
6296.45017,0.03755
6298.37864,0.02942
6300.30711,0.05362
6302.23558,0.08044
6304.16405,0.06546
6306.09252,0.03646
6308.02098,0.01318
6309.94945,0.01569
6311.87792,0.06034
6313.80639,0.09850
6315.73486,0.08438
6317.66333,0.06106
6319.59180,0.07519
6321.52026,0.06968
6323.44873,0.00406
6325.37720,-0.03424
6327.30567,0.01902
6329.23414,0.11358
6331.16261,0.15937
6333.09108,0.14386
6335.01955,0.12870
6336.94801,0.15009
6338.87648,0.18024
6340.80495,0.18325
6342.73342,0.15405
6344.66189,0.09853
6346.59036,0.02626
6348.51883,-0.03885
6350.44729,-0.06389
6352.37576,-0.03811
6354.30423,0.00061
6356.23270,0.05001
6358.16117,0.11405
6360.08964,0.13983
6362.01811,0.10467
6363.94658,0.04881
6365.87504,0.02431
6367.80351,0.04697
6369.73198,0.07036
6371.66045,0.08223
6373.58892,0.09504
6375.51739,0.09517
6377.44586,0.09149
6379.37432,0.08423
6381.30279,0.06026
6383.23126,0.04628
6385.15973,0.06239
6387.08820,0.09197
6389.01667,0.13051
6390.94514,0.14490
6392.87361,0.10781
6394.80207,0.06757
6396.73054,0.06122
6398.65901,0.06946
6400.58748,0.10417
6402.51595,0.18399
6404.44442,0.25488
6406.37289,0.26571
6408.30135,0.21776
6410.22982,0.14674
6412.15829,0.11714
6414.08676,0.10626
6416.01523,0.06543
6417.94370,0.03923
6419.87217,0.02740
6421.80064,-0.00954
6423.72910,-0.02456
6425.65757,0.03066
6427.58604,0.10963
6429.51451,0.11994
6431.44298,0.07041
6433.37145,0.06204
6435.29992,0.11439
6437.22838,0.15243
6439.15685,0.09602
6441.08532,0.00038
6443.01379,-0.03766
6444.94226,-0.01243
6446.87073,0.01840
6448.79920,0.01854
6450.72766,0.01390
6452.65613,0.04537
6454.58460,0.08100
6456.51307,0.07857
6458.44154,0.04690
6460.37001,0.00757
6462.29848,-0.02549
6464.22695,-0.03251
6466.15541,-0.00603
6468.08388,0.04201
6470.01235,0.07450
6471.94082,0.06601
6473.86929,0.06765
6475.79776,0.11462
6477.72623,0.12574
6479.65469,0.05810
6481.58316,-0.00563
6483.51163,-0.00220
6485.44010,0.04227
6487.36857,0.05967
6489.29704,0.02652
6491.22551,-0.00731
6493.15398,0.01893
6495.08244,0.11048
6497.01091,0.18527
6498.93938,0.16640
6500.86785,0.09357
6502.79632,0.05874
6504.72479,0.06356
6506.65326,0.08472
6508.58172,0.09458
6510.51019,0.05552
6512.43866,0.00990
6514.36713,0.00266
6516.29560,0.02174
6518.22407,0.06450
6520.15254,0.11499
6522.08101,0.13213
6524.00947,0.11127
6525.93794,0.10677
6527.86641,0.12663
6529.79488,0.11515
6531.72335,0.06848
6533.65182,0.05839
6535.58029,0.09355
6537.50875,0.12607
6539.43722,0.14828
6541.36569,0.14836
6543.29416,0.13649
6545.22263,0.13011
6547.15110,0.12617
6549.07957,0.11865
6551.00804,0.10697
6552.93650,0.12440
6554.86497,0.14508
6556.79344,0.13898
6558.72191,0.15837
6560.65038,0.20681
6562.57885,0.22658
6564.50732,0.21264
6566.43578,0.18275
6568.36425,0.11617
6570.29272,0.07014
6572.22119,0.10628
6574.14966,0.12431
6576.07813,0.07335
6578.00660,0.04948
6579.93507,0.08738
6581.86353,0.09990
6583.79200,0.03983
6585.72047,0.00459
6587.64894,0.04695
6589.57741,0.08591
6591.50588,0.11211
6593.43435,0.14240
6595.36281,0.10708
6597.29128,0.04781
6599.21975,0.05147
6601.14822,0.07917
6603.07669,0.04902
6605.00516,0.01814
6606.93363,0.05045
6608.86210,0.05051
6610.79056,-0.02368
6612.71903,-0.05225
6614.64750,0.01430
6616.57597,0.08023
6618.50444,0.08773
6620.43291,0.10547
6622.36138,0.14652
6624.28984,0.14164
6626.21831,0.10130
6628.14678,0.08621
6630.07525,0.11450
6632.00372,0.13048
6633.93219,0.07598
6635.86066,-0.01016
6637.78912,-0.03989
6639.71759,0.00202
6641.64606,0.04250
6643.57453,0.03580
6645.50300,0.05162
6647.43147,0.08538
6649.35994,0.05692
6651.28841,0.01679
6653.21687,0.03376
6655.14534,0.09385
6657.07381,0.14301
6659.00228,0.13884
6660.93075,0.08742
6662.85922,0.04867
6664.78769,0.08267
6666.71615,0.14861
6668.64462,0.12206
6670.57309,0.06083
6672.50156,0.12179
6674.43003,0.19697
6676.35850,0.20590
6678.28697,0.19357
6680.21544,0.13385
6682.14390,0.07633
6684.07237,0.07086
6686.00084,0.03508
6687.92931,-0.05238
6689.85778,-0.06915
6691.78625,-0.00363
6693.71472,0.05640
6695.64318,0.09829
6697.57165,0.11104
6699.50012,0.09676
6701.42859,0.08810
6703.35706,0.07034
6705.28553,0.05845
6707.21400,0.07608
6709.14247,0.07040
6711.07093,0.04484
6712.99940,0.06294
6714.92787,0.10669
6716.85634,0.08118
6718.78481,0.01968
6720.71328,0.06914
6722.64175,0.16396
6724.57021,0.14003
6726.49868,0.07471
6728.42715,0.08810
6730.35562,0.16788
6732.28409,0.24633
6734.21256,0.23320
6736.14103,0.12916
6738.06950,0.07310
6739.99796,0.09676
6741.92643,0.09960
6743.85490,0.06171
6745.78337,0.09209
6747.71184,0.18073
6749.64031,0.16031
6751.56878,0.00882
6753.49724,-0.09954
6755.42571,-0.04120
6757.35418,0.09217
6759.28265,0.14385
6761.21112,0.05507
6763.13959,-0.06249
6765.06806,-0.04431
6766.99653,0.05405
6768.92499,0.05230
6770.85346,0.00899
6772.78193,0.01244
6774.71040,0.01273
6776.63887,0.02316
6778.56734,0.05609
6780.49581,0.06674
6782.42427,0.02516
6784.35274,-0.02933
6786.28121,-0.02908
6788.20968,-0.02913
6790.13815,-0.03948
6792.06662,0.04111
6793.99509,0.12188
6795.92355,0.09985
6797.85202,0.05606
6799.78049,0.08469
6801.70896,0.16812
6803.63743,0.16641
6805.56590,0.06089
6807.49437,-0.03258
6809.42284,-0.06229
6811.35130,0.00497
6813.27977,0.12129
6815.20824,0.18305
6817.13671,0.16758
6819.06518,0.10091
6820.99365,0.04401
6822.92212,0.04873
6824.85058,0.04292
6826.77905,0.01215
6828.70752,0.05286
6830.63599,0.09157
6832.56446,0.03384
6834.49293,0.00424
6836.42140,0.04955
6838.34987,0.02698
6840.27833,-0.04408
6842.20680,-0.02929
6844.13527,0.06253
6846.06374,0.14555
6847.99221,0.18167
6849.92068,0.16587
6851.84915,0.13237
6853.77761,0.13247
6855.70608,0.13196
6857.63455,0.07188
6859.56302,0.03640
6861.49149,0.06301
6863.41996,0.03435
6865.34843,-0.05664
6867.27690,-0.07167
6869.20536,-0.00143
6871.13383,0.04983
6873.06230,0.04610
6874.99077,0.02317
6876.91924,0.01266
6878.84771,0.02370
6880.77618,0.03489
6882.70464,0.01480
6884.63311,0.00960
6886.56158,0.04373
6888.49005,0.06775
6890.41852,0.08533
6892.34699,0.13349
6894.27546,0.16546
6896.20393,0.15331
6898.13239,0.16456
6900.06086,0.16198
6901.98933,0.08638
6903.91780,0.05891
6905.84627,0.10722
6907.77474,0.10198
6909.70321,0.08857
6911.63167,0.09537
6913.56014,0.03596
6915.48861,-0.03561
6917.41708,-0.03369
6919.34555,0.01009
6921.27402,0.00183
6923.20249,-0.07089
6925.13096,-0.10612
6927.05942,-0.12823
6928.98789,-0.20454
6930.91636,-0.23313
6932.84483,-0.12409
6934.77330,0.01017
6936.70177,0.08641
6938.63024,0.12697
6940.55870,0.11886
6942.48717,0.08961
6944.41564,0.12491
6946.34411,0.16334
6948.27258,0.07918
6950.20105,-0.08953
6952.12952,-0.16320
6954.05799,-0.08514
6955.98645,-0.03726
6957.91492,-0.08267
6959.84339,-0.08235
6961.77186,-0.01382
6963.70033,0.07601
6965.62880,0.15271
6967.55727,0.15337
6969.48573,0.06625
6971.41420,0.03029
6973.34267,0.13985
6975.27114,0.22889
6977.19961,0.18871
6979.12808,0.14371
6981.05655,0.14241
6982.98501,0.15741
6984.91348,0.14283
6986.84195,0.09631
6988.77042,0.08446
6990.69889,0.07887
6992.62736,0.04692
6994.55583,0.03571
6996.48430,-0.00591
6998.41276,-0.08370
7000.34123,-0.02051
7002.26970,0.07329
7004.19817,0.03672
7006.12664,0.04126
7008.05511,0.09905
7009.98358,0.02537
7011.91204,-0.07058
7013.84051,-0.04816
7015.76898,0.02914
7017.69745,0.11567
7019.62592,0.18634
7021.55439,0.18848
7023.48286,0.16235
7025.41133,0.15566
7027.33979,0.14951
7029.26826,0.12218
7031.19673,0.07804
7033.12520,-0.02982
7035.05367,-0.14335
7036.98214,-0.08290
7038.91061,0.06706
7040.83907,0.17882
7042.76754,0.23767
7044.69601,0.24005
7046.62448,0.25443
7048.55295,0.28169
7050.48142,0.17512
7052.40989,-0.02560
7054.33836,-0.11966
7056.26682,-0.07138
7058.19529,0.04943
7060.12376,0.17475
7062.05223,0.18189
7063.98070,0.07109
7065.90917,0.01920
7067.83764,0.05327
7069.76610,0.11027
7071.69457,0.15943
7073.62304,0.15136
7075.55151,0.10976
7077.47998,0.08317
7079.40845,0.09625
7081.33692,0.13693
7083.26539,0.12820
7085.19385,0.07655
7087.12232,-0.00295
7089.05079,-0.09056
7090.97926,-0.07853
7092.90773,0.02452
7094.83620,0.14720
7096.76467,0.26713
7098.69313,0.22495
7100.62160,0.01263
7102.55007,-0.12093
7104.47854,-0.07888
7106.40701,0.04346
7108.33548,0.08400
7110.26395,0.05410
7112.19242,0.01404
7114.12088,0.03703
7116.04935,0.20741
7117.97782,0.41596
7119.90629,0.38941
7121.83476,0.17554
7123.76323,0.03472
7125.69170,0.07149
7127.62016,0.13806
7129.54863,0.11442
7131.47710,0.07164
7133.40557,0.06828
7135.33404,0.10807
7137.26251,0.17307
7139.19098,0.19249
7141.11944,0.09175
7143.04791,-0.04369
7144.97638,-0.03856
7146.90485,0.02716
7148.83332,0.03139
7150.76179,0.01531
7152.69026,-0.04224
7154.61873,-0.04291
7156.54719,0.06072
7158.47566,0.11952
7160.40413,0.10449
7162.33260,0.06162
7164.26107,0.04429
7166.18954,0.08009
7168.11801,0.06049
7170.04647,-0.08515
7171.97494,-0.16545
7173.90341,-0.03151
7175.83188,0.20947
7177.76035,0.36090
7179.68882,0.34227
7181.61729,0.17832
7183.54576,0.04713
7185.47422,0.07790
7187.40269,0.05419
7189.33116,-0.05540
7191.25963,-0.07871
7193.18810,-0.02140
7195.11657,-0.03449
7197.04504,-0.10524
7198.97350,-0.11977
7200.90197,-0.04336
7202.83044,0.06939
7204.75891,0.11666
7206.68738,0.07489
7208.61585,0.03475
7210.54432,0.00472
7212.47279,-0.03277
7214.40125,-0.05873
7216.32972,0.02116
7218.25819,0.17657
7220.18666,0.17497
7222.11513,0.07525
7224.04360,0.01766
7225.97207,0.04770
7227.90053,0.10986
7229.82900,0.20784
7231.75747,0.31379
7233.68594,0.22278
7235.61441,0.02014
7237.54288,-0.08712
7239.47135,-0.03859
7241.39982,0.05695
7243.32828,0.11026
7245.25675,0.15123
7247.18522,0.17205
7249.11369,0.15199
7251.04216,0.10789
7252.97063,0.01210
7254.89910,-0.01872
7256.82756,0.07712
7258.75603,0.17657
7260.68450,0.20354
7262.61297,0.19781
7264.54144,0.18535
7266.46991,0.10031
7268.39838,-0.04568
7270.32685,-0.19613
7272.25531,-0.22173
7274.18378,-0.09821
7276.11225,-0.03005
7278.04072,-0.04625
7279.96919,-0.10575
7281.89766,-0.14303
7283.82613,-0.12577
7285.75459,-0.04315
7287.68306,0.10503
7289.61153,0.16812
7291.54000,0.06681
7293.46847,-0.00288
7295.39694,0.06253
7297.32541,0.16697
7299.25387,0.22952
7301.18234,0.22557
7303.11081,0.11935
7305.03928,0.01032
7306.96775,0.04341
7308.89622,0.16768
7310.82469,0.13853
7312.75316,0.00008
7314.68162,0.03575
7316.61009,0.17464
7318.53856,0.06896
7320.46703,-0.10587
7322.39550,-0.05321
7324.32397,0.14663
7326.25244,0.24912
7328.18090,0.27105
7330.10937,0.27062
7332.03784,0.20096
7333.96631,0.12973
7335.89478,0.14118
7337.82325,0.21725
7339.75172,0.32320
7341.68019,0.31654
7343.60865,0.16743
7345.53712,-0.01287
7347.46559,-0.05100
7349.39406,0.04552
7351.32253,-0.00377
7353.25100,-0.09819
7355.17947,-0.04129
7357.10793,0.00143
7359.03640,-0.02948
7360.96487,0.04076
7362.89334,0.16276
7364.82181,0.18759
7366.75028,0.10846
7368.67875,0.04846
7370.60722,0.06504
7372.53568,0.09847
7374.46415,0.16098
7376.39262,0.21802
7378.32109,0.11975
7380.24956,-0.00880
7382.17803,-0.02443
7384.10650,0.00451
7386.03496,0.02009
7387.96343,0.09974
7389.89190,0.16891
7391.82037,0.09969
7393.74884,-0.03273
7395.67731,-0.06963
7397.60578,-0.00252
7399.53425,0.02959
7401.46271,-0.06196
7403.39118,-0.21649
7405.31965,-0.25411
7407.24812,-0.16204
7409.17659,-0.08620
7411.10506,-0.05654
7413.03353,-0.07046
7414.96199,-0.09902
7416.89046,-0.06047
7418.81893,0.05134
7420.74740,0.12396
7422.67587,0.14816
7424.60434,0.14753
7426.53281,0.08853
7428.46128,-0.04771
7430.38974,-0.09822
7432.31821,0.17067
7434.24668,0.50469
7436.17515,0.53829
7438.10362,0.29043
7440.03209,0.02855
7441.96056,-0.03362
7443.88902,0.04170
7445.81749,0.07331
7447.74596,0.07126
7449.67443,0.05384
7451.60290,0.01915
7453.53137,0.02923
7455.45984,-0.02856
7457.38831,-0.20259
7459.31677,-0.32688
7461.24524,-0.26960
7463.17371,-0.12430
7465.10218,0.07365
7467.03065,0.20263
7468.95912,0.17911
7470.88759,0.09513
7472.81605,-0.07514
7474.74452,-0.29818
7476.67299,-0.30263
7478.60146,-0.02295
7480.52993,0.17945
7482.45840,0.19398
7484.38687,0.27196
7486.31533,0.35186
7488.24380,0.28894
7490.17227,0.25989
7492.10074,0.30789
7494.02921,0.25485
7495.95768,0.18550
7497.88615,0.14865
