399.19301,0.09530
401.12148,-0.25762
403.04995,0.04140
404.97842,0.21712
406.90689,0.34853
408.83536,0.38047
410.76382,0.22720
412.69229,0.09893
414.62076,0.04521
416.54923,-0.02017
418.47770,0.05399
420.40617,0.27150
422.33464,0.33799
424.26311,0.27882
426.19157,0.17078
428.12004,0.06371
430.04851,-0.03583
431.97698,-0.07253
433.90545,-0.01512
435.83392,0.04084
437.76239,0.04983
439.69085,0.08204
441.61932,0.17746
443.54779,0.21301
445.47626,0.14032
447.40473,0.07210
449.33320,0.03645
451.26167,0.01091
453.19013,0.02030
455.11860,0.07303
457.04707,0.09524
458.97554,0.07485
460.90401,0.08120
462.83248,0.06968
464.76095,0.02564
466.68942,0.01241
468.61788,0.03705
470.54635,0.11104
472.47482,0.24273
474.40329,0.27401
476.33176,0.16018
478.26023,0.10522
480.18870,0.11095
482.11716,0.12884
484.04563,0.14897
485.97410,0.15088
487.90257,0.12630
489.83104,0.12161
491.75951,0.13657
493.68798,0.12608
495.61645,0.08549
497.54491,0.06958
499.47338,0.11814
501.40185,0.18875
503.33032,0.20400
505.25879,0.13336
507.18726,0.03437
509.11573,0.01378
511.04419,0.06716
512.97266,0.12574
514.90113,0.16361
516.82960,0.17360
518.75807,0.15564
520.68654,0.13352
522.61501,0.11609
524.54348,0.09675
526.47194,0.09259
528.40041,0.10594
530.32888,0.11385
532.25735,0.12097
534.18582,0.13888
536.11429,0.14989
538.04276,0.13431
539.97122,0.10625
541.89969,0.09398
543.82816,0.10570
545.75663,0.12090
547.68510,0.11638
549.61357,0.18283
551.54204,0.48983
553.47051,0.80642
555.39897,0.69601
557.32744,0.31962
559.25591,0.12732
561.18438,0.11263
563.11285,0.13125
565.04132,0.16647
566.96979,0.19954
568.89825,0.19444
570.82672,0.14529
572.75519,0.09344
574.68366,0.07481
576.61213,0.07519
578.54060,0.07740
580.46907,0.08459
582.39754,0.08897
584.32600,0.08138
586.25447,0.06885
588.18294,0.06340
590.11141,0.06764
592.03988,0.07261
593.96835,0.07133
595.89682,0.06898
597.82528,0.08220
599.75375,0.11381
601.68222,0.14072
603.61069,0.14682
605.53916,0.12910
607.46763,0.09933
609.39610,0.09131
611.32456,0.11733
613.25303,0.13715
615.18150,0.10948
617.10997,0.06150
619.03844,0.04603
620.96691,0.07072
622.89538,0.10906
624.82385,0.12688
626.75231,0.11655
628.68078,0.11045
630.60925,0.11895
632.53772,0.11570
634.46619,0.10912
636.39466,0.12084
638.32313,0.13778
640.25159,0.13930
642.18006,0.12048
644.10853,0.10317
646.03700,0.09753
647.96547,0.08813
649.89394,0.08294
651.82241,0.09082
653.75088,0.08804
655.67934,0.07881
657.60781,0.09590
659.53628,0.12668
661.46475,0.13391
663.39322,0.11783
665.32169,0.09673
667.25016,0.08159
669.17862,0.08893
671.10709,0.10542
673.03556,0.10629
674.96403,0.10084
676.89250,0.10932
678.82097,0.12312
680.74944,0.13094
682.67791,0.14058
684.60637,0.14507
686.53484,0.13486
688.46331,0.11614
690.39178,0.10187
692.32025,0.10158
694.24872,0.11511
696.17719,0.13359
698.10565,0.14473
700.03412,0.14403
701.96259,0.13666
703.89106,0.12986
705.81953,0.12809
707.74800,0.12597
709.67647,0.11833
711.60494,0.11537
713.53340,0.12412
715.46187,0.13639
717.39034,0.14600
719.31881,0.15193
721.24728,0.14979
723.17575,0.13517
725.10422,0.11621
727.03268,0.10849
728.96115,0.11534
730.88962,0.12659
732.81809,0.13698
734.74656,0.14813
736.67503,0.15478
738.60350,0.15400
740.53197,0.15069
742.46043,0.14838
744.38890,0.14644
746.31737,0.14152
748.24584,0.13591
750.17431,0.13367
752.10278,0.13028
754.03125,0.11810
755.95971,0.10198
757.88818,0.09890
759.81665,0.11006
761.74512,0.12111
763.67359,0.12492
765.60206,0.12084
767.53053,0.11676
769.45900,0.12431
771.38746,0.13511
773.31593,0.13359
775.24440,0.12260
777.17287,0.11581
779.10134,0.12653
781.02981,0.15108
782.95828,0.16226
784.88674,0.14991
786.81521,0.13629
788.74368,0.13180
790.67215,0.12887
792.60062,0.12373
794.52909,0.11906
796.45756,0.12325
798.38602,0.13612
800.31449,0.14862
802.24296,0.14955
804.17143,0.13841
806.09990,0.13115
808.02837,0.12824
809.95684,0.12449
811.88531,0.12743
813.81377,0.13208
815.74224,0.13069
817.67071,0.12736
819.59918,0.12733
821.52765,0.13176
823.45612,0.13540
825.38459,0.13367
827.31305,0.12953
829.24152,0.12917
831.16999,0.12994
833.09846,0.12958
835.02693,0.13212
836.95540,0.13263
838.88387,0.13080
840.81234,0.12977
842.74080,0.12289
844.66927,0.11692
846.59774,0.12515
848.52621,0.13752
850.45468,0.14006
852.38315,0.13613
854.31162,0.13131
856.24008,0.13187
858.16855,0.14109
860.09702,0.14702
862.02549,0.14488
863.95396,0.14318
865.88243,0.13997
867.81090,0.13030
869.73937,0.12063
871.66783,0.12259
873.59630,0.13903
875.52477,0.15638
877.45324,0.16052
879.38171,0.14989
881.31018,0.13239
883.23865,0.11986
885.16711,0.12047
887.09558,0.13065
889.02405,0.13350
890.95252,0.12972
892.88099,0.13382
894.80946,0.14003
896.73793,0.14213
898.66640,0.14174
900.59486,0.13901
902.52333,0.13725
904.45180,0.13689
906.38027,0.13811
908.30874,0.13935
910.23721,0.13821
912.16568,0.13760
914.09414,0.13565
916.02261,0.12951
917.95108,0.12617
919.87955,0.12951
921.80802,0.13293
923.73649,0.13325
925.66496,0.13219
927.59343,0.12813
929.52189,0.12498
931.45036,0.13035
933.37883,0.13679
935.30730,0.13541
937.23577,0.13271
939.16424,0.13270
941.09271,0.13004
943.02117,0.12523
944.94964,0.12614
946.87811,0.12967
948.80658,0.12858
950.73505,0.12910
952.66352,0.13601
954.59199,0.14436
956.52045,0.14780
958.44892,0.14506
960.37739,0.14078
962.30586,0.14143
964.23433,0.14817
966.16280,0.15054
968.09127,0.14343
970.01974,0.13851
971.94820,0.14138
973.87667,0.14434
975.80514,0.14537
977.73361,0.14848
979.66208,0.15221
981.59055,0.14936
983.51902,0.13870
985.44748,0.13336
987.37595,0.13895
989.30442,0.14467
991.23289,0.14763
993.16136,0.14838
995.08983,0.14570
997.01830,0.14630
998.94677,0.15097
1000.87523,0.15384
1002.80370,0.15152
1004.73217,0.14511
1006.66064,0.14267
1008.58911,0.14668
1010.51758,0.14748
1012.44605,0.14228
1014.37451,0.14041
1016.30298,0.14396
1018.23145,0.14640
1020.15992,0.14450
1022.08839,0.14237
1024.01686,0.14337
1025.94533,0.15550
1027.87380,0.18458
1029.80226,0.19817
1031.73073,0.17658
1033.65920,0.15374
1035.58767,0.14590
1037.51614,0.13836
1039.44461,0.12877
1041.37308,0.13050
1043.30154,0.14490
1045.23001,0.15638
1047.15848,0.16228
1049.08695,0.17059
1051.01542,0.17735
1052.94389,0.17522
1054.87236,0.16735
1056.80083,0.16099
1058.72929,0.16018
1060.65776,0.16410
1062.58623,0.16580
1064.51470,0.16274
1066.44317,0.16043
1068.37164,0.15691
1070.30011,0.15025
1072.22857,0.14807
1074.15704,0.14961
1076.08551,0.15198
1078.01398,0.15656
1079.94245,0.15767
1081.87092,0.15551
1083.79939,0.15731
1085.72786,0.15864
1087.65632,0.15373
1089.58479,0.14821
1091.51326,0.14613
1093.44173,0.14601
1095.37020,0.15086
1097.29867,0.16244
1099.22714,0.17095
1101.15560,0.16810
1103.08407,0.15712
1105.01254,0.14984
1106.94101,0.15315
1108.86948,0.15896
1110.79795,0.16124
1112.72642,0.16272
1114.65489,0.16044
1116.58335,0.15143
1118.51182,0.14416
1120.44029,0.14418
1122.36876,0.14862
1124.29723,0.15534
1126.22570,0.16060
1128.15417,0.16456
1130.08263,0.16785
1132.01110,0.16519
1133.93957,0.15820
1135.86804,0.15255
1137.79651,0.14773
1139.72498,0.14321
1141.65345,0.14290
1143.58191,0.14919
1145.51038,0.15720
1147.43885,0.15851
1149.36732,0.15219
1151.29579,0.14870
1153.22426,0.15555
1155.15273,0.16611
1157.08120,0.17208
1159.00966,0.17100
1160.93813,0.16360
1162.86660,0.15694
1164.79507,0.15613
1166.72354,0.15636
1168.65201,0.15326
1170.58048,0.15134
1172.50894,0.15438
1174.43741,0.15882
1176.36588,0.16191
1178.29435,0.16312
1180.22282,0.15934
1182.15129,0.15102
1184.07976,0.14739
1186.00823,0.15126
1187.93669,0.15444
1189.86516,0.15505
1191.79363,0.15594
1193.72210,0.15770
1195.65057,0.16081
1197.57904,0.16341
1199.50751,0.16563
1201.43597,0.16875
1203.36444,0.16864
1205.29291,0.16401
1207.22138,0.15975
1209.14985,0.15780
1211.07832,0.15716
1213.00679,0.15707
1214.93526,0.15685
1216.86372,0.15881
1218.79219,0.16322
1220.72066,0.16336
1222.64913,0.15816
1224.57760,0.15654
1226.50607,0.16202
1228.43454,0.16794
1230.36300,0.17086
1232.29147,0.17271
1234.21994,0.17203
1236.14841,0.16903
1238.07688,0.16751
1240.00535,0.16680
1241.93382,0.16510
1243.86229,0.16433
1245.79075,0.16438
1247.71922,0.16251
1249.64769,0.16026
1251.57616,0.16029
1253.50463,0.16073
1255.43310,0.15948
1257.36157,0.15739
1259.29003,0.15637
1261.21850,0.15776
1263.14697,0.16118
1265.07544,0.16271
1267.00391,0.16074
1268.93238,0.16138
1270.86085,0.16605
1272.78932,0.16818
1274.71778,0.16630
1276.64625,0.16566
1278.57472,0.16823
1280.50319,0.16929
1282.43166,0.16907
1284.36013,0.17112
1286.28860,0.16974
1288.21706,0.16553
1290.14553,0.16747
1292.07400,0.17142
1294.00247,0.17067
1295.93094,0.16685
1297.85941,0.16153
1299.78788,0.15514
1301.71634,0.14488
1303.64481,0.13279
1305.57328,0.13516
1307.50175,0.15487
1309.43022,0.17051
1311.35869,0.17319
1313.28716,0.17184
1315.21563,0.17094
1317.14409,0.17127
1319.07256,0.17140
1321.00103,0.16926
1322.92950,0.16781
1324.85797,0.16702
1326.78644,0.16615
1328.71491,0.16783
1330.64337,0.16791
1332.57184,0.16547
1334.50031,0.16649
1336.42878,0.17045
1338.35725,0.17507
1340.28572,0.17300
1342.21419,0.16445
1344.14266,0.16226
1346.07112,0.16457
1347.99959,0.16682
1349.92806,0.16934
1351.85653,0.16738
1353.78500,0.16084
1355.71347,0.15646
1357.64194,0.15848
1359.57040,0.16565
1361.49887,0.17455
1363.42734,0.17847
1365.35581,0.17527
1367.28428,0.17181
1369.21275,0.17104
1371.14122,0.17440
1373.06969,0.18179
1374.99815,0.18450
1376.92662,0.17979
1378.85509,0.17585
1380.78356,0.17338
1382.71203,0.17210
1384.64050,0.17488
1386.56897,0.18070
1388.49743,0.18410
1390.42590,0.18423
1392.35437,0.18704
1394.28284,0.19289
1396.21131,0.19582
1398.13978,0.19470
1400.06825,0.18975
1401.99672,0.18597
1403.92518,0.18760
1405.85365,0.18791
1407.78212,0.18511
1409.71059,0.18544
1411.63906,0.18716
1413.56753,0.18793
1415.49600,0.19344
1417.42446,0.20684
1419.35293,0.21303
1421.28140,0.20551
1423.20987,0.19862
1425.13834,0.19020
1427.06681,0.18472
1428.99528,0.18860
1430.92375,0.19273
1432.85221,0.19394
1434.78068,0.19976
1436.70915,0.20357
1438.63762,0.19563
1440.56609,0.18851
1442.49456,0.18523
1444.42303,0.18404
1446.35149,0.18836
1448.27996,0.19398
1450.20843,0.19415
1452.13690,0.19644
1454.06537,0.21045
1455.99384,0.23742
1457.92231,0.24368
1459.85077,0.21589
1461.77924,0.20102
1463.70771,0.20353
1465.63618,0.20463
1467.56465,0.19775
1469.49312,0.19980
1471.42159,0.21455
1473.35006,0.22416
1475.27852,0.21637
1477.20699,0.20572
1479.13546,0.19896
1481.06393,0.19491
1482.99240,0.19117
1484.92087,0.19191
1486.84934,0.20469
1488.77780,0.22609
1490.70627,0.22753
1492.63474,0.21285
1494.56321,0.20919
1496.49168,0.21596
1498.42015,0.21712
1500.34862,0.21125
1502.27709,0.21197
1504.20555,0.23225
1506.13402,0.27894
1508.06249,0.28713
1509.99096,0.24833
1511.91943,0.22498
1513.84790,0.22506
1515.77637,0.24150
1517.70483,0.25617
1519.63330,0.26738
1521.56177,0.27325
1523.49024,0.25869
1525.41871,0.24368
1527.34718,0.23035
1529.27565,0.21690
1531.20412,0.21734
1533.13258,0.22949
1535.06105,0.23180
1536.98952,0.23754
1538.91799,0.27196
1540.84646,0.30299
1542.77493,0.27501
1544.70340,0.23752
1546.63186,0.21511
1548.56033,0.21150
1550.48880,0.21399
1552.41727,0.21453
1554.34574,0.22129
1556.27421,0.24174
1558.20268,0.27415
1560.13115,0.25463
1562.05961,0.21892
1563.98808,0.20767
1565.91655,0.20828
1567.84502,0.21641
1569.77349,0.22055
1571.70196,0.21047
1573.63043,0.21043
1575.55889,0.22535
1577.48736,0.22186
1579.41583,0.20254
1581.34430,0.19320
1583.27277,0.19132
1585.20124,0.18903
1587.12971,0.18735
1589.05818,0.18789
1590.98664,0.18856
1592.91511,0.19080
1594.84358,0.19444
1596.77205,0.19404
1598.70052,0.19096
1600.62899,0.19061
1602.55746,0.19326
1604.48592,0.19555
1606.41439,0.19517
1608.34286,0.19339
1610.27133,0.19309
1612.19980,0.19652
1614.12827,0.20626
1616.05674,0.21981
1617.98521,0.21711
1619.91367,0.20830
1621.84214,0.21464
1623.77061,0.22534
1625.69908,0.22621
1627.62755,0.22252
1629.55602,0.21434
1631.48449,0.21046
1633.41295,0.22377
1635.34142,0.24814
1637.26989,0.24102
1639.19836,0.21771
1641.12683,0.20775
1643.05530,0.21248
1644.98377,0.23432
1646.91223,0.25891
1648.84070,0.25180
1650.76917,0.24791
1652.69764,0.26742
1654.62611,0.25393
1656.55458,0.22229
1658.48305,0.21010
1660.41152,0.21582
1662.33998,0.22480
1664.26845,0.21831
1666.19692,0.21362
1668.12539,0.22683
1670.05386,0.24070
1671.98233,0.23698
1673.91080,0.23216
1675.83926,0.22410
1677.76773,0.21522
1679.69620,0.21773
1681.62467,0.23340
1683.55314,0.25680
1685.48161,0.25214
1687.41008,0.22995
1689.33855,0.21630
1691.26701,0.20928
1693.19548,0.21536
1695.12395,0.24031
1697.05242,0.26501
1698.98089,0.26725
1700.90936,0.24671
1702.83783,0.22745
1704.76629,0.22461
1706.69476,0.22179
1708.62323,0.21062
1710.55170,0.20263
1712.48017,0.20505
1714.40864,0.22092
1716.33711,0.24425
1718.26558,0.23983
1720.19404,0.21424
1722.12251,0.20044
1724.05098,0.19543
1725.97945,0.19365
1727.90792,0.19883
1729.83639,0.21035
1731.76486,0.22495
1733.69332,0.23440
1735.62179,0.22238
1737.55026,0.21179
1739.47873,0.21308
1741.40720,0.21598
1743.33567,0.21674
1745.26414,0.22022
1747.19261,0.22868
1749.12107,0.23583
1751.04954,0.22665
1752.97801,0.20957
1754.90648,0.20254
1756.83495,0.20333
1758.76342,0.20573
1760.69189,0.21016
1762.62035,0.20942
1764.54882,0.20207
1766.47729,0.20098
1768.40576,0.21114
1770.33423,0.22906
1772.26270,0.23777
1774.19117,0.22144
1776.11964,0.20340
1778.04810,0.19976
1779.97657,0.20559
1781.90504,0.20788
1783.83351,0.20449
1785.76198,0.20020
1787.69045,0.19829
1789.61892,0.20436
1791.54738,0.21619
1793.47585,0.21829
1795.40432,0.21091
1797.33279,0.20498
1799.26126,0.20327
1801.18973,0.20268
1803.11820,0.19811
1805.04666,0.19402
1806.97513,0.19493
1808.90360,0.19849
1810.83207,0.20013
1812.76054,0.19688
1814.68901,0.19238
1816.61748,0.18828
1818.54595,0.18378
1820.47441,0.18346
1822.40288,0.19187
1824.33135,0.20443
1826.25982,0.21082
1828.18829,0.21407
1830.11676,0.21363
1832.04523,0.20269
1833.97369,0.19467
1835.90216,0.19526
1837.83063,0.19621
1839.75910,0.19556
1841.68757,0.20085
1843.61604,0.21181
1845.54451,0.21432
1847.47298,0.20617
1849.40144,0.19620
1851.32991,0.18973
1853.25838,0.18851
1855.18685,0.18957
1857.11532,0.19173
1859.04379,0.19582
1860.97226,0.19827
1862.90072,0.19667
1864.82919,0.19776
1866.75766,0.20606
1868.68613,0.21081
1870.61460,0.20312
1872.54307,0.19490
1874.47154,0.19227
1876.40001,0.19163
1878.32847,0.18969
1880.25694,0.18818
1882.18541,0.19002
1884.11388,0.19293
1886.04235,0.19586
1887.97082,0.20172
1889.89929,0.20467
1891.82775,0.19974
1893.75622,0.19589
1895.68469,0.19490
1897.61316,0.19134
1899.54163,0.18760
1901.47010,0.18853
1903.39857,0.19308
1905.32704,0.19703
1907.25550,0.19998
1909.18397,0.20177
1911.11244,0.19943
1913.04091,0.19484
1914.96938,0.19390
1916.89785,0.19740
1918.82632,0.19837
1920.75478,0.19631
1922.68325,0.19645
1924.61172,0.19651
1926.54019,0.19467
1928.46866,0.19211
1930.39713,0.18969
1932.32560,0.18994
1934.25407,0.19269
1936.18253,0.19398
1938.11100,0.19275
1940.03947,0.19366
1941.96794,0.19795
1943.89641,0.19882
1945.82488,0.19489
1947.75335,0.19043
1949.68181,0.18855
1951.61028,0.19099
1953.53875,0.19526
1955.46722,0.19778
1957.39569,0.19664
1959.32416,0.19452
1961.25263,0.19548
1963.18110,0.19765
1965.10956,0.19991
1967.03803,0.20168
1968.96650,0.19971
1970.89497,0.19593
1972.82344,0.19419
1974.75191,0.19356
1976.68038,0.19251
1978.60884,0.19232
1980.53731,0.19237
1982.46578,0.19125
1984.39425,0.19109
1986.32272,0.19346
1988.25119,0.19694
1990.17966,0.20004
1992.10812,0.20132
1994.03659,0.19965
1995.96506,0.19689
1997.89353,0.19478
1999.82200,0.19384
2001.75047,0.19500
2003.67894,0.19711
2005.60741,0.19700
2007.53587,0.19388
2009.46434,0.19123
2011.39281,0.19164
2013.32128,0.19273
2015.24975,0.19236
2017.17822,0.19230
2019.10669,0.19358
2021.03515,0.19452
2022.96362,0.19449
2024.89209,0.19413
2026.82056,0.19376
2028.74903,0.19424
2030.67750,0.19610
2032.60597,0.19790
2034.53444,0.19807
2036.46290,0.19721
2038.39137,0.19678
2040.31984,0.19592
2042.24831,0.19343
2044.17678,0.19256
2046.10525,0.19533
2048.03372,0.19681
2049.96218,0.19479
2051.89065,0.19322
2053.81912,0.19384
2055.74759,0.19476
2057.67606,0.19393
2059.60453,0.19216
2061.53300,0.19187
2063.46147,0.19284
2065.38993,0.19406
2067.31840,0.19483
2069.24687,0.19388
2071.17534,0.19293
2073.10381,0.19453
2075.03228,0.19681
2076.96075,0.19752
2078.88921,0.19772
2080.81768,0.19784
2082.74615,0.19702
2084.67462,0.19616
2086.60309,0.19674
2088.53156,0.19763
2090.46003,0.19725
2092.38850,0.19679
2094.31696,0.19647
2096.24543,0.19569
2098.17390,0.19612
2100.10237,0.19718
2102.03084,0.19705
2103.95931,0.19688
2105.88778,0.19702
2107.81624,0.19622
2109.74471,0.19467
2111.67318,0.19475
2113.60165,0.19777
2115.53012,0.20025
2117.45859,0.19785
2119.38706,0.19299
2121.31553,0.19125
2123.24399,0.19170
2125.17246,0.19163
2127.10093,0.19294
2129.02940,0.19562
2130.95787,0.19741
2132.88634,0.19759
2134.81481,0.19656
2136.74327,0.19612
2138.67174,0.19636
2140.60021,0.19571
2142.52868,0.19480
2144.45715,0.19467
2146.38562,0.19463
2148.31409,0.19428
2150.24255,0.19474
2152.17102,0.19566
2154.09949,0.19583
2156.02796,0.19544
2157.95643,0.19522
2159.88490,0.19682
2161.81337,0.19852
2163.74184,0.19730
2165.67030,0.19610
2167.59877,0.19614
2169.52724,0.19484
2171.45571,0.19341
2173.38418,0.19347
2175.31265,0.19367
2177.24112,0.19381
2179.16958,0.19430
2181.09805,0.19330
2183.02652,0.19133
2184.95499,0.19155
2186.88346,0.19208
2188.81193,0.19135
2190.74040,0.19316
2192.66887,0.19599
2194.59733,0.19486
2196.52580,0.19273
2198.45427,0.19397
2200.38274,0.19671
2202.31121,0.19888
2204.23968,0.19962
2206.16815,0.19853
2208.09661,0.19774
2210.02508,0.19746
2211.95355,0.19721
2213.88202,0.19794
2215.81049,0.19685
2217.73896,0.19355
2219.66743,0.19253
2221.59590,0.19427
2223.52436,0.19615
2225.45283,0.19676
2227.38130,0.19604
2229.30977,0.19537
2231.23824,0.19532
2233.16671,0.19575
2235.09518,0.19637
2237.02364,0.19592
2238.95211,0.19442
2240.88058,0.19337
2242.80905,0.19336
2244.73752,0.19320
2246.66599,0.19280
2248.59446,0.19462
2250.52293,0.19879
2252.45139,0.20152
2254.37986,0.20020
2256.30833,0.19681
2258.23680,0.19376
2260.16527,0.19372
2262.09374,0.19953
2264.02221,0.20571
2265.95067,0.20501
2267.87914,0.19988
2269.80761,0.19647
2271.73608,0.19679
2273.66455,0.19865
2275.59302,0.19877
2277.52149,0.19652
2279.44996,0.19471
2281.37842,0.19525
2283.30689,0.19728
2285.23536,0.19889
2287.16383,0.19836
2289.09230,0.19605
2291.02077,0.19459
2292.94924,0.19993
2294.87770,0.21049
2296.80617,0.21094
2298.73464,0.20058
2300.66311,0.19536
2302.59158,0.19760
2304.52005,0.20021
2306.44852,0.19963
2308.37699,0.19698
2310.30545,0.19618
2312.23392,0.19577
2314.16239,0.19490
2316.09086,0.19713
2318.01933,0.20062
2319.94780,0.20308
2321.87627,0.20711
2323.80473,0.20847
2325.73320,0.20232
2327.66167,0.19745
2329.59014,0.19837
2331.51861,0.19896
2333.44708,0.19787
2335.37555,0.19714
2337.30401,0.19930
2339.23248,0.20483
2341.16095,0.20356
2343.08942,0.19099
2345.01789,0.18351
2346.94636,0.18893
2348.87483,0.19692
2350.80330,0.20285
2352.73176,0.20668
2354.66023,0.20938
2356.58870,0.21179
2358.51717,0.20605
2360.44564,0.19415
2362.37411,0.20382
2364.30258,0.23406
2366.23104,0.24309
2368.15951,0.22365
2370.08798,0.20723
2372.01645,0.20406
2373.94492,0.20452
2375.87339,0.20288
2377.80186,0.19842
2379.73033,0.19527
2381.65879,0.19593
2383.58726,0.19636
2385.51573,0.19486
2387.44420,0.19480
2389.37267,0.19731
2391.30114,0.19931
2393.22961,0.19877
2395.15807,0.19701
2397.08654,0.19566
2399.01501,0.19598
2400.94348,0.19781
2402.87195,0.19862
2404.80042,0.19815
2406.72889,0.19768
2408.65736,0.19692
2410.58582,0.19629
2412.51429,0.19603
2414.44276,0.19544
2416.37123,0.19505
2418.29970,0.19548
2420.22817,0.19621
2422.15664,0.19652
2424.08510,0.19598
2426.01357,0.19530
2427.94204,0.19618
2429.87051,0.19871
2431.79898,0.20123
2433.72745,0.20167
2435.65592,0.19945
2437.58439,0.19745
2439.51285,0.19671
2441.44132,0.19545
2443.36979,0.19374
2445.29826,0.19234
2447.22673,0.19292
2449.15520,0.19537
2451.08367,0.19722
2453.01213,0.19755
2454.94060,0.19618
2456.86907,0.19526
2458.79754,0.19631
2460.72601,0.19721
2462.65448,0.19674
2464.58295,0.19520
2466.51142,0.19467
2468.43988,0.19703
2470.36835,0.19968
2472.29682,0.20055
2474.22529,0.20074
2476.15376,0.20026
2478.08223,0.19833
2480.01070,0.19621
2481.93916,0.19534
2483.86763,0.19479
2485.79610,0.19393
2487.72457,0.19437
2489.65304,0.19666
2491.58151,0.19788
2493.50998,0.19711
2495.43844,0.19826
2497.36691,0.20043
2499.29538,0.20073
2501.22385,0.20061
2503.15232,0.19993
2505.08079,0.19768
2507.00926,0.19493
2508.93773,0.19459
2510.86619,0.19670
2512.79466,0.19887
2514.72313,0.20140
2516.65160,0.20213
2518.58007,0.20033
2520.50854,0.19949
2522.43701,0.19867
2524.36547,0.19576
2526.29394,0.19425
2528.22241,0.19750
2530.15088,0.20129
2532.07935,0.20144
2534.00782,0.20002
2535.93629,0.19888
2537.86476,0.19769
2539.79322,0.19680
2541.72169,0.19677
2543.65016,0.19733
2545.57863,0.19920
2547.50710,0.20176
2549.43557,0.20157
2551.36404,0.20019
2553.29250,0.20184
2555.22097,0.20377
2557.14944,0.20250
2559.07791,0.20025
2561.00638,0.19871
2562.93485,0.19681
2564.86332,0.19493
2566.79179,0.19446
2568.72025,0.19527
2570.64872,0.19767
2572.57719,0.20039
2574.50566,0.20120
2576.43413,0.20190
2578.36260,0.20293
2580.29107,0.20301
2582.21953,0.20323
2584.14800,0.20358
2586.07647,0.20346
2588.00494,0.20319
2589.93341,0.20218
2591.86188,0.19960
2593.79035,0.19749
2595.71882,0.19723
2597.64728,0.19632
2599.57575,0.19471
2601.50422,0.19547
2603.43269,0.19781
2605.36116,0.19848
2607.28963,0.19912
2609.21810,0.20213
2611.14656,0.20499
2613.07503,0.20493
2615.00350,0.20274
2616.93197,0.20218
2618.86044,0.20398
2620.78891,0.20525
2622.71738,0.20523
2624.64585,0.20329
2626.57431,0.20180
2628.50278,0.20432
2630.43125,0.20705
2632.35972,0.20608
2634.28819,0.20363
2636.21666,0.20295
2638.14513,0.20487
2640.07359,0.20757
2642.00206,0.20847
2643.93053,0.20670
2645.85900,0.20400
2647.78747,0.20260
2649.71594,0.20167
2651.64441,0.19970
2653.57288,0.19945
2655.50134,0.20241
2657.42981,0.20492
2659.35828,0.20604
2661.28675,0.20757
2663.21522,0.20811
2665.14369,0.20661
2667.07216,0.20518
2669.00062,0.20456
2670.92909,0.20353
2672.85756,0.20335
2674.78603,0.20515
2676.71450,0.20596
2678.64297,0.20541
2680.57144,0.20652
2682.49990,0.20787
2684.42837,0.20764
2686.35684,0.20744
2688.28531,0.20736
2690.21378,0.20657
2692.14225,0.20505
2694.07072,0.20387
2695.99919,0.20419
2697.92765,0.20541
2699.85612,0.20661
2701.78459,0.20720
2703.71306,0.20732
2705.64153,0.20731
2707.57000,0.20699
2709.49847,0.20685
2711.42693,0.20632
2713.35540,0.20508
2715.28387,0.20542
2717.21234,0.20718
2719.14081,0.20799
2721.06928,0.20808
2722.99775,0.20835
2724.92622,0.20741
2726.85468,0.20439
2728.78315,0.20279
2730.71162,0.20403
2732.64009,0.20430
2734.56856,0.20364
2736.49703,0.20420
2738.42550,0.20479
2740.35396,0.20440
2742.28243,0.20441
2744.21090,0.20551
2746.13937,0.20663
2748.06784,0.20825
2749.99631,0.20900
2751.92478,0.20572
2753.85325,0.20130
2755.78171,0.20113
2757.71018,0.20431
2759.63865,0.20671
2761.56712,0.20780
2763.49559,0.20870
2765.42406,0.21050
2767.35253,0.21410
2769.28099,0.21692
2771.20946,0.21560
2773.13793,0.21132
2775.06640,0.20974
2776.99487,0.21407
2778.92334,0.21896
2780.85181,0.21898
2782.78028,0.21506
2784.70874,0.21040
2786.63721,0.20853
2788.56568,0.20900
2790.49415,0.20797
2792.42262,0.20623
2794.35109,0.20746
2796.27956,0.21065
2798.20802,0.21305
2800.13649,0.21573
2802.06496,0.21825
2803.99343,0.21817
2805.92190,0.21623
2807.85037,0.21473
2809.77884,0.21595
2811.70731,0.21785
2813.63577,0.21598
2815.56424,0.21275
2817.49271,0.21230
2819.42118,0.21268
2821.34965,0.21180
2823.27812,0.21266
2825.20659,0.21738
2827.13505,0.22097
2829.06352,0.21852
2830.99199,0.21387
2832.92046,0.21203
2834.84893,0.21247
2836.77740,0.21408
2838.70587,0.21568
2840.63433,0.21581
2842.56280,0.21527
2844.49127,0.21470
2846.41974,0.21338
2848.34821,0.21082
2850.27668,0.20969
2852.20515,0.21195
2854.13362,0.21362
2856.06208,0.21376
2857.99055,0.21555
2859.91902,0.21595
2861.84749,0.21175
2863.77596,0.20841
2865.70443,0.21140
2867.63290,0.21741
2869.56136,0.21952
2871.48983,0.21606
2873.41830,0.21218
2875.34677,0.21189
2877.27524,0.21296
2879.20371,0.21270
2881.13218,0.21006
2883.06065,0.20496
2884.98911,0.20332
2886.91758,0.20958
2888.84605,0.21676
2890.77452,0.21913
2892.70299,0.21839
2894.63146,0.21593
2896.55993,0.21328
2898.48839,0.21159
2900.41686,0.21057
2902.34533,0.20888
2904.27380,0.20639
2906.20227,0.20526
2908.13074,0.20464
2910.05921,0.20350
2911.98768,0.20389
2913.91614,0.20533
2915.84461,0.20504
2917.77308,0.20395
2919.70155,0.20375
2921.63002,0.20394
2923.55849,0.20158
2925.48696,0.19420
2927.41542,0.19123
2929.34389,0.19817
2931.27236,0.20636
2933.20083,0.21031
2935.12930,0.20728
2937.05777,0.20109
2938.98624,0.20103
2940.91471,0.20581
2942.84317,0.20949
2944.77164,0.20749
2946.70011,0.19907
2948.62858,0.19593
2950.55705,0.20443
2952.48552,0.21327
2954.41399,0.21249
2956.34245,0.20208
2958.27092,0.19523
2960.19939,0.20248
2962.12786,0.21285
2964.05633,0.21614
2965.98480,0.21344
2967.91327,0.20865
2969.84174,0.20721
2971.77020,0.20944
2973.69867,0.21306
2975.62714,0.21610
2977.55561,0.21437
2979.48408,0.21029
2981.41255,0.21003
2983.34102,0.21205
2985.26948,0.21247
2987.19795,0.21005
2989.12642,0.20973
2991.05489,0.21593
2992.98336,0.21978
2994.91183,0.21621
2996.84030,0.21252
2998.76877,0.21366
3000.69723,0.21755
3002.62570,0.21851
3004.55417,0.21748
3006.48264,0.21729
3008.41111,0.21459
3010.33958,0.20791
3012.26805,0.19348
3014.19651,0.16494
3016.12498,0.13850
3018.05345,0.14731
3019.98192,0.18560
3021.91039,0.21400
3023.83886,0.22223
3025.76733,0.22333
3027.69579,0.22285
3029.62426,0.22252
3031.55273,0.22399
3033.48120,0.22485
3035.40967,0.22112
3037.33814,0.21542
3039.26661,0.21504
3041.19508,0.21967
3043.12354,0.22187
3045.05201,0.21848
3046.98048,0.21380
3048.90895,0.21381
3050.83742,0.21712
3052.76589,0.21891
3054.69436,0.21668
3056.62282,0.21122
3058.55129,0.21080
3060.47976,0.21536
3062.40823,0.21575
3064.33670,0.21093
3066.26517,0.20685
3068.19364,0.21090
3070.12211,0.21882
3072.05057,0.21978
3073.97904,0.21233
3075.90751,0.20426
3077.83598,0.20653
3079.76445,0.21613
3081.69292,0.21834
3083.62139,0.20760
3085.54985,0.19670
3087.47832,0.20053
3089.40679,0.21046
3091.33526,0.21152
3093.26373,0.20428
3095.19220,0.20020
3097.12067,0.20764
3099.04914,0.21675
3100.97760,0.21577
3102.90607,0.20796
3104.83454,0.20524
3106.76301,0.21269
3108.69148,0.22126
3110.61995,0.22012
3112.54842,0.21156
3114.47688,0.20980
3116.40535,0.21630
3118.33382,0.21806
3120.26229,0.21181
3122.19076,0.20828
3124.11923,0.21369
3126.04770,0.21773
3127.97617,0.21548
3129.90463,0.21257
3131.83310,0.21122
3133.76157,0.21279
3135.69004,0.21534
3137.61851,0.21550
3139.54698,0.21636
3141.47545,0.22123
3143.40391,0.22587
3145.33238,0.22712
3147.26085,0.22627
3149.18932,0.22357
3151.11779,0.22022
3153.04626,0.21837
3154.97473,0.21963
3156.90320,0.22209
3158.83166,0.22238
3160.76013,0.22276
3162.68860,0.22532
3164.61707,0.22712
3166.54554,0.22761
3168.47401,0.22787
3170.40248,0.22649
3172.33094,0.22372
3174.25941,0.22165
3176.18788,0.22318
3178.11635,0.22815
3180.04482,0.23177
3181.97329,0.23329
3183.90176,0.23562
3185.83022,0.23645
3187.75869,0.23171
3189.68716,0.22498
3191.61563,0.22313
3193.54410,0.22707
3195.47257,0.23100
3197.40104,0.23025
3199.32951,0.22747
3201.25797,0.22744
3203.18644,0.22874
3205.11491,0.22744
3207.04338,0.22613
3208.97185,0.22753
3210.90032,0.22876
3212.82879,0.22813
3214.75725,0.22753
3216.68572,0.22708
3218.61419,0.22399
3220.54266,0.22021
3222.47113,0.22032
3224.39960,0.22409
3226.32807,0.22875
3228.25654,0.23170
3230.18500,0.23114
3232.11347,0.22933
3234.04194,0.22873
3235.97041,0.22648
3237.89888,0.22190
3239.82735,0.21764
3241.75582,0.21789
3243.68428,0.22643
3245.61275,0.23392
3247.54122,0.22981
3249.46969,0.22089
3251.39816,0.21724
3253.32663,0.21959
3255.25510,0.22223
3257.18357,0.22307
3259.11203,0.22628
3261.04050,0.22944
3262.96897,0.22696
3264.89744,0.22032
3266.82591,0.21444
3268.75438,0.21305
3270.68285,0.21392
3272.61131,0.21410
3274.53978,0.21687
3276.46825,0.22168
3278.39672,0.22193
3280.32519,0.21925
3282.25366,0.21924
3284.18213,0.22134
3286.11060,0.22442
3288.03906,0.22660
3289.96753,0.22713
3291.89600,0.22796
3293.82447,0.22670
3295.75294,0.22097
3297.68141,0.21613
3299.60988,0.21710
3301.53834,0.21979
3303.46681,0.22095
3305.39528,0.22140
3307.32375,0.22043
3309.25222,0.21724
3311.18069,0.21246
3313.10916,0.21073
3315.03763,0.21443
3316.96609,0.21818
3318.89456,0.21868
3320.82303,0.21890
3322.75150,0.22020
3324.67997,0.22247
3326.60844,0.22763
3328.53691,0.23281
3330.46537,0.23360
3332.39384,0.23159
3334.32231,0.23005
3336.25078,0.22943
3338.17925,0.22781
3340.10772,0.22674
3342.03619,0.22981
3343.96466,0.23412
3345.89312,0.23287
3347.82159,0.22585
3349.75006,0.22079
3351.67853,0.22323
3353.60700,0.23044
3355.53547,0.23424
3357.46394,0.23286
3359.39240,0.23356
3361.32087,0.23430
3363.24934,0.23008
3365.17781,0.22760
3367.10628,0.22937
3369.03475,0.23044
3370.96322,0.23090
3372.89168,0.23244
3374.82015,0.23201
3376.74862,0.22725
3378.67709,0.22347
3380.60556,0.22591
3382.53403,0.23036
3384.46250,0.23120
3386.39097,0.23068
3388.31943,0.23210
3390.24790,0.23344
3392.17637,0.23151
3394.10484,0.22682
3396.03331,0.22342
3397.96178,0.22232
3399.89025,0.22212
3401.81871,0.22362
3403.74718,0.22621
3405.67565,0.22607
3407.60412,0.22282
3409.53259,0.22127
3411.46106,0.22206
3413.38953,0.22255
3415.31800,0.22278
3417.24646,0.22281
3419.17493,0.22284
3421.10340,0.22019
3423.03187,0.21525
3424.96034,0.21452
3426.88881,0.21422
3428.81728,0.20871
3430.74574,0.20667
3432.67421,0.21207
3434.60268,0.21530
3436.53115,0.21507
3438.45962,0.21393
3440.38809,0.20882
3442.31656,0.20621
3444.24503,0.21234
3446.17349,0.21871
3448.10196,0.21889
3450.03043,0.21567
3451.95890,0.21145
3453.88737,0.20643
3455.81584,0.20190
3457.74431,0.20095
3459.67277,0.20415
3461.60124,0.20643
3463.52971,0.20464
3465.45818,0.20210
3467.38665,0.20218
3469.31512,0.20655
3471.24359,0.21230
3473.17206,0.21268
3475.10052,0.20754
3477.02899,0.20144
3478.95746,0.19864
3480.88593,0.20141
3482.81440,0.20521
3484.74287,0.20521
3486.67134,0.20152
3488.59980,0.19525
3490.52827,0.18978
3492.45674,0.18913
3494.38521,0.19163
3496.31368,0.19131
3498.24215,0.18835
3500.17062,0.19091
3502.09909,0.20182
3504.02755,0.20982
3505.95602,0.20691
3507.88449,0.19911
3509.81296,0.19111
3511.74143,0.18383
3513.66990,0.17701
3515.59837,0.17382
3517.52683,0.17795
3519.45530,0.18431
3521.38377,0.18879
3523.31224,0.19346
3525.24071,0.19812
3527.16918,0.19916
3529.09765,0.19277
3531.02611,0.18210
3532.95458,0.17725
3534.88305,0.18312
3536.81152,0.19147
3538.73999,0.19106
3540.66846,0.18552
3542.59693,0.18352
3544.52540,0.18777
3546.45386,0.19495
3548.38233,0.19728
3550.31080,0.19532
3552.23927,0.19142
3554.16774,0.18256
3556.09621,0.17333
3558.02468,0.17075
3559.95314,0.17503
3561.88161,0.18267
3563.81008,0.19237
3565.73855,0.20288
3567.66702,0.20054
3569.59549,0.18306
3571.52396,0.17095
3573.45243,0.16934
3575.38089,0.17075
3577.30936,0.17225
3579.23783,0.17502
3581.16630,0.17399
3583.09477,0.17155
3585.02324,0.17728
3586.95171,0.18768
3588.88017,0.18660
3590.80864,0.17821
3592.73711,0.17350
3594.66558,0.17135
3596.59405,0.17013
3598.52252,0.17071
3600.45099,0.16876
3602.37946,0.16277
3604.30792,0.16162
3606.23639,0.16735
3608.16486,0.17050
3610.09333,0.16977
3612.02180,0.17302
3613.95027,0.17690
3615.87874,0.17911
3617.80720,0.18408
3619.73567,0.18269
3621.66414,0.16966
3623.59261,0.16098
3625.52108,0.16628
3627.44955,0.18672
3629.37802,0.19572
3631.30649,0.17592
3633.23495,0.16110
3635.16342,0.15570
3637.09189,0.15456
3639.02036,0.15635
3640.94883,0.15783
3642.87730,0.16007
3644.80577,0.17033
3646.73423,0.19049
3648.66270,0.20521
3650.59117,0.18785
3652.51964,0.16169
3654.44811,0.15012
3656.37658,0.15096
3658.30505,0.15046
3660.23352,0.14595
3662.16198,0.14381
3664.09045,0.14284
3666.01892,0.14353
3667.94739,0.15204
3669.87586,0.16432
3671.80433,0.16500
3673.73280,0.16435
3675.66126,0.16739
3677.58973,0.15970
3679.51820,0.14841
3681.44667,0.14343
3683.37514,0.14465
3685.30361,0.15019
3687.23208,0.16168
3689.16055,0.17472
3691.08901,0.17002
3693.01748,0.15401
3694.94595,0.14350
3696.87442,0.13950
3698.80289,0.13989
3700.73136,0.14306
3702.65983,0.14383
3704.58829,0.14105
3706.51676,0.14013
3708.44523,0.14657
3710.37370,0.16024
3712.30217,0.16373
3714.23064,0.15364
3716.15911,0.14755
3718.08757,0.15025
3720.01604,0.15756
3721.94451,0.16387
3723.87298,0.16368
3725.80145,0.15210
3727.72992,0.14049
3729.65839,0.14406
3731.58686,0.16344
3733.51532,0.18841
3735.44379,0.19227
3737.37226,0.17240
3739.30073,0.15766
3741.22920,0.15388
3743.15767,0.15967
3745.08614,0.17170
3747.01460,0.18129
3748.94307,0.19274
3750.87154,0.19483
3752.80001,0.17374
3754.72848,0.15622
3756.65695,0.15108
3758.58542,0.15190
3760.51389,0.14808
3762.44235,0.14233
3764.37082,0.14156
3766.29929,0.14004
3768.22776,0.13709
3770.15623,0.13919
3772.08470,0.14028
3774.01317,0.13750
3775.94163,0.13924
3777.87010,0.14713
3779.79857,0.14671
3781.72704,0.13738
3783.65551,0.13537
3785.58398,0.13651
3787.51245,0.13312
3789.44092,0.13091
3791.36938,0.13195
3793.29785,0.13529
3795.22632,0.14328
3797.15479,0.15104
3799.08326,0.15465
3801.01173,0.15868
3802.94020,0.15569
3804.86866,0.14912
3806.79713,0.14646
3808.72560,0.14212
3810.65407,0.13618
3812.58254,0.13371
3814.51101,0.13647
3816.43948,0.14164
3818.36795,0.14865
3820.29641,0.16149
3822.22488,0.16331
3824.15335,0.15271
3826.08182,0.14802
3828.01029,0.14746
3829.93876,0.14801
3831.86723,0.15077
3833.79569,0.15531
3835.72416,0.16308
3837.65263,0.17051
3839.58110,0.16880
3841.50957,0.15873
3843.43804,0.14440
3845.36651,0.13414
3847.29498,0.13518
3849.22344,0.14559
3851.15191,0.16669
3853.08038,0.19046
3855.00885,0.17328
3856.93732,0.14789
3858.86579,0.13989
3860.79426,0.14131
3862.72272,0.14363
3864.65119,0.13798
3866.57966,0.12843
3868.50813,0.12946
3870.43660,0.14055
3872.36507,0.14453
3874.29354,0.13871
3876.22200,0.13453
3878.15047,0.13962
3880.07894,0.14623
3882.00741,0.14281
3883.93588,0.13863
3885.86435,0.13742
3887.79282,0.13404
3889.72129,0.13362
3891.64975,0.13582
3893.57822,0.13164
3895.50669,0.12831
3897.43516,0.13436
3899.36363,0.14313
3901.29210,0.14523
3903.22057,0.14222
3905.14903,0.13313
3907.07750,0.12066
3909.00597,0.11325
3910.93444,0.11402
3912.86291,0.11831
3914.79138,0.12101
3916.71985,0.12382
3918.64832,0.12640
3920.57678,0.12570
3922.50525,0.12322
3924.43372,0.12075
3926.36219,0.11926
3928.29066,0.11891
3930.21913,0.11880
3932.14760,0.11902
3934.07606,0.11976
3936.00453,0.12026
3937.93300,0.12104
3939.86147,0.12263
3941.78994,0.12479
3943.71841,0.12429
3945.64688,0.11902
3947.57535,0.11563
3949.50381,0.11667
3951.43228,0.11662
3953.36075,0.11553
3955.28922,0.11449
3957.21769,0.11202
3959.14616,0.11119
3961.07463,0.11520
3963.00309,0.12083
3964.93156,0.12305
3966.86003,0.11965
3968.78850,0.11221
3970.71697,0.10746
3972.64544,0.10888
3974.57391,0.11022
3976.50238,0.10823
3978.43084,0.10740
3980.35931,0.10736
3982.28778,0.10687
3984.21625,0.10922
3986.14472,0.11176
3988.07319,0.11061
3990.00166,0.10707
3991.93012,0.10294
3993.85859,0.10391
3995.78706,0.11174
3997.71553,0.11709
3999.64400,0.11351
4001.57247,0.10637
4003.50094,0.10371
4005.42941,0.10475
4007.35787,0.10757
4009.28634,0.11218
4011.21481,0.11296
4013.14328,0.10908
4015.07175,0.10733
4017.00022,0.10862
4018.92869,0.10788
4020.85715,0.10383
4022.78562,0.10081
4024.71409,0.10108
4026.64256,0.10197
4028.57103,0.10305
4030.49950,0.10500
4032.42797,0.10464
4034.35644,0.09966
4036.28490,0.09267
4038.21337,0.09105
4040.14184,0.09546
4042.07031,0.09901
4043.99878,0.10151
4045.92725,0.10313
4047.85572,0.10076
4049.78418,0.09837
4051.71265,0.10040
4053.64112,0.10468
4055.56959,0.10819
4057.49806,0.10816
4059.42653,0.10504
4061.35500,0.10235
4063.28346,0.10019
4065.21193,0.09960
4067.14040,0.10084
4069.06887,0.09990
4070.99734,0.09646
4072.92581,0.09349
4074.85428,0.09261
4076.78275,0.09509
4078.71121,0.10096
4080.63968,0.10660
4082.56815,0.10886
4084.49662,0.10639
4086.42509,0.09810
4088.35356,0.08888
4090.28203,0.08604
4092.21049,0.08822
4094.13896,0.08956
4096.06743,0.09038
4097.99590,0.09255
4099.92437,0.09203
4101.85284,0.08868
4103.78131,0.08733
4105.70978,0.08909
4107.63824,0.09297
4109.56671,0.09694
4111.49518,0.09890
4113.42365,0.09603
4115.35212,0.08853
4117.28059,0.08235
4119.20906,0.07910
4121.13752,0.07709
4123.06599,0.07822
4124.99446,0.08376
4126.92293,0.09166
4128.85140,0.09771
4130.77987,0.09705
4132.70834,0.09061
4134.63681,0.08467
4136.56527,0.08212
4138.49374,0.08424
4140.42221,0.08882
4142.35068,0.08860
4144.27915,0.08443
4146.20762,0.08334
4148.13609,0.08580
4150.06455,0.08853
4151.99302,0.08896
4153.92149,0.08490
4155.84996,0.07895
4157.77843,0.07667
4159.70690,0.07818
4161.63537,0.07883
4163.56384,0.07706
4165.49230,0.07486
4167.42077,0.07517
4169.34924,0.07987
4171.27771,0.08489
4173.20618,0.08478
4175.13465,0.08221
4177.06312,0.08353
4178.99158,0.08490
4180.92005,0.07863
4182.84852,0.07048
4184.77699,0.06843
4186.70546,0.07043
4188.63393,0.07354
4190.56240,0.07647
4192.49087,0.07706
4194.41933,0.07746
4196.34780,0.08214
4198.27627,0.08864
4200.20474,0.08874
4202.13321,0.08183
4204.06168,0.07595
4205.99015,0.07174
4207.91861,0.06698
4209.84708,0.06466
4211.77555,0.06392
4213.70402,0.06383
4215.63249,0.06499
4217.56096,0.06594
4219.48943,0.06818
4221.41789,0.07065
4223.34636,0.07011
4225.27483,0.07072
4227.20330,0.07398
4229.13177,0.07315
4231.06024,0.06784
4232.98871,0.06458
4234.91718,0.06447
4236.84564,0.06383
4238.77411,0.06136
4240.70258,0.05786
4242.63105,0.05613
4244.55952,0.06027
4246.48799,0.06855
4248.41646,0.07285
4250.34492,0.07117
4252.27339,0.06908
4254.20186,0.06758
4256.13033,0.06391
4258.05880,0.05908
4259.98727,0.06018
4261.91574,0.06759
4263.84421,0.06914
4265.77267,0.06421
4267.70114,0.06219
4269.62961,0.06096
4271.55808,0.05590
4273.48655,0.05149
4275.41502,0.05152
4277.34349,0.05440
4279.27195,0.05778
4281.20042,0.05920
4283.12889,0.05769
4285.05736,0.05666
4286.98583,0.05845
4288.91430,0.05974
4290.84277,0.05910
4292.77124,0.05612
4294.69970,0.05095
4296.62817,0.04821
4298.55664,0.04888
4300.48511,0.05462
4302.41358,0.06474
4304.34205,0.06807
4306.27052,0.06043
4308.19898,0.05096
4310.12745,0.04831
4312.05592,0.05261
4313.98439,0.05852
4315.91286,0.06274
4317.84133,0.06511
4319.76980,0.06207
4321.69827,0.05280
4323.62673,0.04472
4325.55520,0.04376
4327.48367,0.04751
4329.41214,0.04965
4331.34061,0.04978
4333.26908,0.04860
4335.19755,0.04772
4337.12601,0.05103
4339.05448,0.05320
4340.98295,0.04714
4342.91142,0.03724
4344.83989,0.03445
4346.76836,0.03821
4348.69683,0.04026
4350.62530,0.04094
4352.55376,0.04218
4354.48223,0.04446
4356.41070,0.04822
4358.33917,0.04899
4360.26764,0.04461
4362.19611,0.03806
4364.12458,0.03065
4366.05304,0.02674
4367.98151,0.02993
4369.90998,0.03481
4371.83845,0.03666
4373.76692,0.03634
4375.69539,0.03663
4377.62386,0.03841
4379.55232,0.03950
4381.48079,0.03875
4383.40926,0.03720
4385.33773,0.03405
4387.26620,0.03004
4389.19467,0.03204
4391.12314,0.03888
4393.05161,0.03908
4394.98007,0.03338
4396.90854,0.03231
4398.83701,0.03193
4400.76548,0.02703
4402.69395,0.02566
4404.62242,0.03025
4406.55089,0.03543
4408.47935,0.03658
4410.40782,0.03191
4412.33629,0.02462
4414.26476,0.02240
4416.19323,0.02956
4418.12170,0.03609
4420.05017,0.03412
4421.97864,0.02942
4423.90710,0.02448
4425.83557,0.01853
4427.76404,0.01460
4429.69251,0.01354
4431.62098,0.01209
4433.54945,0.00798
4435.47792,0.00550
4437.40638,0.00887
4439.33485,0.01591
4441.26332,0.02278
4443.19179,0.02577
4445.12026,0.02347
4447.04873,0.01727
4448.97720,0.01275
4450.90567,0.01488
4452.83413,0.01774
4454.76260,0.01544
4456.69107,0.01237
4458.61954,0.01079
4460.54801,0.00567
4462.47648,-0.00173
4464.40495,-0.00313
4466.33341,0.00502
4468.26188,0.01777
4470.19035,0.02515
4472.11882,0.02487
4474.04729,0.02095
4475.97576,0.01316
4477.90423,0.00487
4479.83270,0.00247
4481.76116,0.00359
4483.68963,0.00555
4485.61810,0.00956
4487.54657,0.01207
4489.47504,0.01149
4491.40351,0.01131
4493.33198,0.01434
4495.26044,0.01918
4497.18891,0.02009
4499.11738,0.01772
4501.04585,0.01865
4502.97432,0.02133
4504.90279,0.02072
4506.83126,0.01834
4508.75973,0.01707
4510.68819,0.01372
4512.61666,0.00656
4514.54513,0.00510
4516.47360,0.01154
4518.40207,0.01445
4520.33054,0.01075
4522.25901,0.00774
4524.18747,0.01002
4526.11594,0.01329
4528.04441,0.01499
4529.97288,0.01772
4531.90135,0.02141
4533.82982,0.02316
4535.75829,0.01795
4537.68676,0.01003
4539.61522,0.00888
4541.54369,0.01269
4543.47216,0.01467
4545.40063,0.01112
4547.32910,0.00435
4549.25757,-0.00007
4551.18604,0.00015
4553.11450,0.00366
4555.04297,0.00859
4556.97144,0.01108
4558.89991,0.00519
4560.82838,-0.00447
4562.75685,-0.00555
4564.68532,0.00176
4566.61378,0.00543
4568.54225,0.00262
4570.47072,-0.00284
4572.39919,-0.00879
4574.32766,-0.00737
4576.25613,0.00250
4578.18460,0.01029
4580.11307,0.01330
4582.04153,0.01913
4583.97000,0.02516
4585.89847,0.01892
4587.82694,0.00654
4589.75541,0.00228
4591.68388,0.00560
4593.61235,0.01178
4595.54081,0.01442
4597.46928,0.01077
4599.39775,0.00809
4601.32622,0.00961
4603.25469,0.01103
4605.18316,0.01012
4607.11163,0.00731
4609.04010,0.00524
4610.96856,0.00746
4612.89703,0.01115
4614.82550,0.01241
4616.75397,0.01341
4618.68244,0.01530
4620.61091,0.01206
4622.53938,0.00306
4624.46784,0.00078
4626.39631,0.00721
4628.32478,0.00766
4630.25325,-0.00099
4632.18172,-0.00430
4634.11019,0.00412
4636.03866,0.01160
4637.96713,0.01066
4639.89559,0.00866
4641.82406,0.01283
4643.75253,0.02070
4645.68100,0.02221
4647.60947,0.01221
4649.53794,-0.00088
4651.46641,-0.00936
4653.39487,-0.01284
4655.32334,-0.00641
4657.25181,0.00503
4659.18028,0.00296
4661.10875,-0.00779
4663.03722,-0.00713
4664.96569,-0.00260
4666.89416,-0.00464
4668.82262,-0.00275
4670.75109,0.00272
4672.67956,0.00098
4674.60803,-0.00342
4676.53650,-0.00057
4678.46497,0.00562
4680.39344,0.00695
4682.32190,0.00081
4684.25037,-0.01069
4686.17884,-0.01848
4688.10731,-0.01631
4690.03578,-0.00778
4691.96425,-0.00184
4693.89272,-0.00127
4695.82119,-0.00053
4697.74965,0.00355
4699.67812,0.00712
4701.60659,0.00720
4703.53506,0.00879
4705.46353,0.01144
4707.39200,0.01013
4709.32047,0.00583
4711.24893,0.00468
4713.17740,0.00852
4715.10587,0.00687
4717.03434,-0.00006
4718.96281,-0.00069
4720.89128,-0.00212
4722.81975,-0.00857
4724.74821,-0.00218
4726.67668,0.01788
4728.60515,0.02845
4730.53362,0.01840
4732.46209,0.00102
4734.39056,-0.00487
4736.31903,0.00144
4738.24750,0.01006
4740.17596,0.01262
4742.10443,0.00520
4744.03290,-0.00231
4745.96137,0.00053
4747.88984,0.00563
4749.81831,0.00157
4751.74678,-0.00634
4753.67524,-0.00872
4755.60371,-0.00423
4757.53218,0.00133
4759.46065,0.00414
4761.38912,0.00923
4763.31759,0.01542
4765.24606,0.01261
4767.17453,-0.00005
4769.10299,-0.00783
4771.03146,-0.00266
4772.95993,0.00485
4774.88840,0.01101
4776.81687,0.01379
4778.74534,0.00479
4780.67381,-0.00403
4782.60227,-0.00182
4784.53074,-0.00151
4786.45921,-0.00264
4788.38768,0.00627
4790.31615,0.01762
4792.24462,0.02381
4794.17309,0.02482
4796.10156,0.01851
4798.03002,0.01129
4799.95849,0.00931
4801.88696,0.00652
4803.81543,0.00182
4805.74390,0.00231
4807.67237,0.00579
4809.60084,0.00679
4811.52930,0.00753
4813.45777,0.00860
4815.38624,0.00607
4817.31471,-0.00236
4819.24318,-0.01031
4821.17165,-0.00712
4823.10012,0.00205
4825.02859,0.00530
4826.95705,0.00407
4828.88552,0.00143
4830.81399,-0.00423
4832.74246,-0.00816
4834.67093,-0.00542
4836.59940,-0.00125
4838.52787,0.00369
4840.45633,0.01064
4842.38480,0.01478
4844.31327,0.01219
4846.24174,-0.00096
4848.17021,-0.01202
4850.09868,-0.00918
4852.02715,-0.00411
4853.95562,-0.00379
4855.88408,0.00185
4857.81255,0.01375
4859.74102,0.01960
4861.66949,0.01392
4863.59796,0.00318
4865.52643,-0.00407
4867.45490,-0.00546
4869.38336,-0.00240
4871.31183,0.00306
4873.24030,0.00529
4875.16877,0.00320
4877.09724,0.00357
4879.02571,0.00747
4880.95418,0.00610
4882.88265,-0.00143
4884.81111,-0.00428
4886.73958,0.00118
4888.66805,0.01244
4890.59652,0.02466
4892.52499,0.02540
4894.45346,0.01217
4896.38193,-0.00236
4898.31039,-0.00781
4900.23886,-0.00150
4902.16733,0.00853
4904.09580,0.01119
4906.02427,0.00707
4907.95274,0.00309
4909.88121,0.00299
4911.80967,0.00443
4913.73814,0.00375
4915.66661,0.00054
4917.59508,-0.00215
4919.52355,0.00219
4921.45202,0.01024
4923.38049,0.01044
4925.30896,0.00877
4927.23742,0.01524
4929.16589,0.01846
4931.09436,0.01493
4933.02283,0.01362
4934.95130,0.01195
4936.87977,0.01215
4938.80824,0.01573
4940.73670,0.01667
4942.66517,0.01589
4944.59364,0.01159
4946.52211,0.00428
4948.45058,0.00278
4950.37905,0.00595
4952.30752,0.00703
4954.23599,0.00608
4956.16445,0.00022
4958.09292,-0.00597
4960.02139,0.00330
4961.94986,0.01793
4963.87833,0.01733
4965.80680,0.01287
4967.73527,0.01993
4969.66373,0.03172
4971.59220,0.03656
4973.52067,0.02929
4975.44914,0.02069
4977.37761,0.01808
4979.30608,0.00723
4981.23455,-0.00284
4983.16302,0.00851
4985.09148,0.02299
4987.01995,0.02169
4988.94842,0.00848
4990.87689,-0.00790
4992.80536,-0.01082
4994.73383,0.00012
4996.66230,0.00533
4998.59076,0.00735
5000.51923,0.01338
5002.44770,0.01583
5004.37617,0.01551
5006.30464,0.01747
5008.23311,0.01854
5010.16158,0.01619
5012.09005,0.01270
5014.01851,0.01714
5015.94698,0.02834
5017.87545,0.03061
5019.80392,0.02633
5021.73239,0.02260
5023.66086,0.01409
5025.58933,0.00215
5027.51779,-0.00411
5029.44626,0.00199
5031.37473,0.00876
5033.30320,0.00089
5035.23167,-0.01425
5037.16014,-0.01922
5039.08861,-0.00935
5041.01708,0.00937
5042.94554,0.03035
5044.87401,0.04093
5046.80248,0.03828
5048.73095,0.03529
5050.65942,0.02833
5052.58789,0.01267
5054.51636,0.00473
5056.44482,0.00879
5058.37329,0.00874
5060.30176,0.00243
5062.23023,0.00098
5064.15870,0.00415
5066.08717,0.00528
5068.01564,0.00360
5069.94410,0.00809
5071.87257,0.02061
5073.80104,0.02764
5075.72951,0.02896
5077.65798,0.03200
5079.58645,0.03157
5081.51492,0.02247
5083.44339,0.01140
5085.37185,0.01115
5087.30032,0.02059
5089.22879,0.02941
5091.15726,0.03464
5093.08573,0.03704
5095.01420,0.03430
5096.94267,0.02257
5098.87113,0.00924
5100.79960,0.00907
5102.72807,0.02220
5104.65654,0.02927
5106.58501,0.02841
5108.51348,0.03956
5110.44195,0.05554
5112.37042,0.05795
5114.29888,0.04874
5116.22735,0.03412
5118.15582,0.02306
5120.08429,0.02227
5122.01276,0.02477
5123.94123,0.02783
5125.86970,0.03300
5127.79816,0.03293
5129.72663,0.02509
5131.65510,0.01571
5133.58357,0.01055
5135.51204,0.01503
5137.44051,0.02420
5139.36898,0.02114
5141.29745,0.01003
5143.22591,0.00585
5145.15438,0.00348
5147.08285,0.00895
5149.01132,0.02758
5150.93979,0.03604
5152.86826,0.02672
5154.79673,0.02084
5156.72519,0.02372
5158.65366,0.02482
5160.58213,0.03490
5162.51060,0.05220
5164.43907,0.04770
5166.36754,0.02704
5168.29601,0.01954
5170.22448,0.02549
5172.15294,0.02572
5174.08141,0.01405
5176.00988,0.00757
5177.93835,0.01689
5179.86682,0.02638
5181.79529,0.03106
5183.72376,0.04172
5185.65222,0.05625
5187.58069,0.06596
5189.50916,0.06463
5191.43763,0.05627
5193.36610,0.05117
5195.29457,0.04898
5197.22304,0.04693
5199.15151,0.04597
5201.07997,0.04403
5203.00844,0.03734
5204.93691,0.03079
5206.86538,0.03425
5208.79385,0.04116
5210.72232,0.04346
5212.65079,0.04546
5214.57925,0.03765
5216.50772,0.01454
5218.43619,0.00706
5220.36466,0.02605
5222.29313,0.03725
5224.22160,0.03411
5226.15007,0.03161
5228.07854,0.03658
5230.00700,0.04722
5231.93547,0.04483
5233.86394,0.02780
5235.79241,0.02220
5237.72088,0.02649
5239.64935,0.01825
5241.57782,0.00600
5243.50628,0.01301
5245.43475,0.03748
5247.36322,0.06093
5249.29169,0.06258
5251.22016,0.04314
5253.14863,0.03134
5255.07710,0.03582
5257.00556,0.04293
5258.93403,0.03769
5260.86250,0.01902
5262.79097,0.01098
5264.71944,0.02553
5266.64791,0.03855
5268.57638,0.03637
5270.50485,0.03106
5272.43331,0.03096
5274.36178,0.03448
5276.29025,0.04039
5278.21872,0.04384
5280.14719,0.04906
5282.07566,0.05766
5284.00413,0.05782
5285.93259,0.05012
5287.86106,0.04162
5289.78953,0.03639
5291.71800,0.03823
5293.64647,0.04611
5295.57494,0.06224
5297.50341,0.08262
5299.43188,0.08339
5301.36034,0.05673
5303.28881,0.03922
5305.21728,0.04233
5307.14575,0.03656
5309.07422,0.03231
5311.00269,0.05391
5312.93116,0.07837
5314.85962,0.07589
5316.78809,0.05309
5318.71656,0.03504
5320.64503,0.02565
5322.57350,0.02989
5324.50197,0.05315
5326.43044,0.07091
5328.35891,0.06705
5330.28737,0.05980
5332.21584,0.05988
5334.14431,0.05465
5336.07278,0.04623
5338.00125,0.04542
5339.92972,0.04283
5341.85819,0.05012
5343.78665,0.06680
5345.71512,0.06240
5347.64359,0.05747
5349.57206,0.06903
5351.50053,0.07580
5353.42900,0.07590
5355.35747,0.08098
5357.28594,0.08864
5359.21440,0.09072
5361.14287,0.08063
5363.07134,0.06299
5364.99981,0.04545
5366.92828,0.03866
5368.85675,0.05859
5370.78522,0.08573
5372.71368,0.09654
5374.64215,0.10829
5376.57062,0.11461
5378.49909,0.09329
5380.42756,0.07258
5382.35603,0.07474
5384.28450,0.09301
5386.21297,0.10526
5388.14143,0.09893
5390.06990,0.08188
5391.99837,0.05940
5393.92684,0.04802
5395.85531,0.06086
5397.78378,0.06690
5399.71225,0.05228
5401.64071,0.03828
5403.56918,0.03433
5405.49765,0.04038
5407.42612,0.05256
5409.35459,0.06438
5411.28306,0.07560
5413.21153,0.08140
5415.13999,0.07806
5417.06846,0.06451
5418.99693,0.05441
5420.92540,0.06823
5422.85387,0.08691
5424.78234,0.08854
5426.71081,0.08803
5428.63928,0.09460
5430.56774,0.09285
5432.49621,0.07669
5434.42468,0.06042
5436.35315,0.06095
5438.28162,0.07101
5440.21009,0.07259
5442.13856,0.06910
5444.06702,0.07187
5445.99549,0.08424
5447.92396,0.09912
5449.85243,0.09153
5451.78090,0.06723
5453.70937,0.05683
5455.63784,0.06749
5457.56631,0.07767
5459.49477,0.06264
5461.42324,0.04968
5463.35171,0.06587
5465.28018,0.07509
5467.20865,0.06631
5469.13712,0.06402
5471.06559,0.06050
5472.99405,0.05665
5474.92252,0.06963
5476.85099,0.08042
5478.77946,0.06530
5480.70793,0.04175
5482.63640,0.03870
5484.56487,0.05327
5486.49334,0.06055
5488.42180,0.06567
5490.35027,0.08059
5492.27874,0.08463
5494.20721,0.07523
5496.13568,0.07280
5498.06415,0.08541
5499.99262,0.11187
5501.92108,0.12156
5503.84955,0.09707
5505.77802,0.06701
5507.70649,0.05462
5509.63496,0.04992
5511.56343,0.04518
5513.49190,0.05898
5515.42037,0.08897
5517.34883,0.09766
5519.27730,0.08042
5521.20577,0.06975
5523.13424,0.07798
5525.06271,0.09490
5526.99118,0.10676
5528.91965,0.10611
5530.84811,0.09334
5532.77658,0.06906
5534.70505,0.04569
5536.63352,0.04065
5538.56199,0.04410
5540.49046,0.04250
5542.41893,0.04783
5544.34740,0.05405
5546.27586,0.04491
5548.20433,0.05134
5550.13280,0.08619
5552.06127,0.10623
5553.98974,0.09632
5555.91821,0.08857
5557.84668,0.09112
5559.77514,0.07817
5561.70361,0.06067
5563.63208,0.06246
5565.56055,0.05713
5567.48902,0.03683
5569.41749,0.04391
5571.34596,0.07681
5573.27443,0.09628
5575.20289,0.09957
5577.13136,0.10066
5579.05983,0.09217
5580.98830,0.06812
5582.91677,0.04510
5584.84524,0.03618
5586.77371,0.03556
5588.70217,0.04857
5590.63064,0.07962
5592.55911,0.10943
5594.48758,0.10591
5596.41605,0.06753
5598.34452,0.05381
5600.27299,0.08136
5602.20145,0.08571
5604.12992,0.06731
5606.05839,0.07854
5607.98686,0.09525
5609.91533,0.08539
5611.84380,0.09101
5613.77227,0.12369
5615.70074,0.12219
5617.62920,0.07590
5619.55767,0.05334
5621.48614,0.08208
5623.41461,0.10978
5625.34308,0.10463
5627.27155,0.08930
5629.20002,0.07960
5631.12848,0.07049
5633.05695,0.06267
5634.98542,0.06112
5636.91389,0.07161
5638.84236,0.08422
5640.77083,0.08828
5642.69930,0.08210
5644.62777,0.06164
5646.55623,0.05422
5648.48470,0.07619
5650.41317,0.09115
5652.34164,0.08753
5654.27011,0.08890
5656.19858,0.10273
5658.12705,0.11870
5660.05551,0.12385
5661.98398,0.10742
5663.91245,0.08822
5665.84092,0.09717
5667.76939,0.11039
5669.69786,0.09501
5671.62633,0.07908
5673.55480,0.08946
5675.48326,0.10325
5677.41173,0.10394
5679.34020,0.10190
5681.26867,0.10099
5683.19714,0.09867
5685.12561,0.08943
5687.05408,0.05907
5688.98254,0.02571
5690.91101,0.04328
5692.83948,0.10238
5694.76795,0.14348
5696.69642,0.14586
5698.62489,0.12090
5700.55336,0.09097
5702.48183,0.07386
5704.41029,0.07436
5706.33876,0.08948
5708.26723,0.10030
5710.19570,0.09339
5712.12417,0.07992
5714.05264,0.08233
5715.98111,0.10071
5717.90957,0.10177
5719.83804,0.07192
5721.76651,0.04436
5723.69498,0.04282
5725.62345,0.05502
5727.55192,0.07117
5729.48039,0.08193
5731.40886,0.08007
5733.33732,0.08313
5735.26579,0.09995
5737.19426,0.10720
5739.12273,0.08532
5741.05120,0.05676
5742.97967,0.05315
5744.90814,0.07529
5746.83660,0.10920
5748.76507,0.13851
5750.69354,0.14830
5752.62201,0.13208
5754.55048,0.11049
5756.47895,0.10602
5758.40742,0.10543
5760.33588,0.10027
5762.26435,0.10261
5764.19282,0.11010
5766.12129,0.10647
5768.04976,0.09050
5769.97823,0.08299
5771.90670,0.08507
5773.83517,0.07902
5775.76363,0.07542
5777.69210,0.08569
5779.62057,0.10736
5781.54904,0.13029
5783.47751,0.12912
5785.40598,0.11640
5787.33445,0.12480
5789.26291,0.12900
5791.19138,0.11995
5793.11985,0.12795
5795.04832,0.13352
5796.97679,0.10844
5798.90526,0.07499
5800.83373,0.06426
5802.76220,0.07254
5804.69066,0.07549
5806.61913,0.06823
5808.54760,0.06831
5810.47607,0.07988
5812.40454,0.08197
5814.33301,0.08089
5816.26148,0.09690
5818.18994,0.11330
5820.11841,0.12214
5822.04688,0.13788
5823.97535,0.15994
5825.90382,0.16352
5827.83229,0.12868
5829.76076,0.07968
5831.68923,0.05045
5833.61769,0.03618
5835.54616,0.03295
5837.47463,0.05012
5839.40310,0.07624
5841.33157,0.08675
5843.26004,0.06785
5845.18851,0.03123
5847.11697,0.01606
5849.04544,0.05561
5850.97391,0.11841
5852.90238,0.14430
5854.83085,0.12544
5856.75932,0.08893
5858.68779,0.06736
5860.61626,0.05324
5862.54472,0.02468
5864.47319,0.00370
5866.40166,0.01518
5868.33013,0.03783
5870.25860,0.03528
5872.18707,0.02560
5874.11554,0.04881
5876.04400,0.09791
5877.97247,0.11994
5879.90094,0.09087
5881.82941,0.06887
5883.75788,0.08848
5885.68635,0.11619
5887.61482,0.12864
5889.54329,0.12111
5891.47175,0.10034
5893.40022,0.09447
5895.32869,0.11066
5897.25716,0.11967
5899.18563,0.12148
5901.11410,0.12256
5903.04257,0.11137
5904.97103,0.11324
5906.89950,0.12755
5908.82797,0.10908
5910.75644,0.07869
5912.68491,0.08672
5914.61338,0.10124
5916.54185,0.09550
5918.47032,0.10019
5920.39878,0.11263
5922.32725,0.10139
5924.25572,0.06490
5926.18419,0.04333
5928.11266,0.06138
5930.04113,0.08619
5931.96960,0.08657
5933.89806,0.07482
5935.82653,0.07202
5937.75500,0.06728
5939.68347,0.04998
5941.61194,0.03533
5943.54041,0.04142
5945.46888,0.06284
5947.39734,0.09294
5949.32581,0.12992
5951.25428,0.14582
5953.18275,0.12302
5955.11122,0.09319
5957.03969,0.10280
5958.96816,0.13215
5960.89663,0.12607
5962.82509,0.10366
5964.75356,0.09431
5966.68203,0.09413
5968.61050,0.10096
5970.53897,0.10831
5972.46744,0.10382
5974.39591,0.09526
5976.32437,0.09698
5978.25284,0.08749
5980.18131,0.06586
5982.10978,0.07079
5984.03825,0.09861
5985.96672,0.10408
5987.89519,0.07639
5989.82366,0.04971
5991.75212,0.05667
5993.68059,0.09436
5995.60906,0.12345
5997.53753,0.12647
5999.46600,0.12426
6001.39447,0.11104
6003.32294,0.07656
6005.25140,0.04001
6007.17987,0.01814
6009.10834,0.01249
6011.03681,0.01112
6012.96528,0.00907
6014.89375,0.02696
6016.82222,0.06336
6018.75069,0.07433
6020.67915,0.05412
6022.60762,0.06245
6024.53609,0.12003
6026.46456,0.17149
6028.39303,0.16065
6030.32150,0.10311
6032.24997,0.06067
6034.17843,0.05544
6036.10690,0.06001
6038.03537,0.05797
6039.96384,0.05952
6041.89231,0.07171
6043.82078,0.09340
6045.74925,0.10764
6047.67772,0.11420
6049.60618,0.11952
6051.53465,0.13713
6053.46312,0.17723
6055.39159,0.17592
6057.32006,0.11020
6059.24853,0.05420
6061.17700,0.03354
6063.10546,0.04093
6065.03393,0.05923
6066.96240,0.05997
6068.89087,0.04776
6070.81934,0.04703
6072.74781,0.06577
6074.67628,0.08315
6076.60475,0.08105
6078.53321,0.08313
6080.46168,0.10609
6082.39015,0.12286
6084.31862,0.12414
6086.24709,0.13680
6088.17556,0.14135
6090.10403,0.10840
6092.03249,0.07838
6093.96096,0.07310
6095.88943,0.09345
6097.81790,0.12283
6099.74637,0.12226
6101.67484,0.11758
6103.60331,0.11935
6105.53177,0.09509
6107.46024,0.06039
6109.38871,0.04851
6111.31718,0.05703
6113.24565,0.07032
6115.17412,0.08574
6117.10259,0.09054
6119.03106,0.07876
6120.95952,0.07857
6122.88799,0.07350
6124.81646,0.03144
6126.74493,0.01222
6128.67340,0.04641
6130.60187,0.05755
6132.53034,0.04032
6134.45880,0.05055
6136.38727,0.09753
6138.31574,0.14786
6140.24421,0.17024
6142.17268,0.15206
6144.10115,0.09219
6146.02962,0.02869
6147.95809,0.01126
6149.88655,0.03579
6151.81502,0.05119
6153.74349,0.04318
6155.67196,0.04551
6157.60043,0.04964
6159.52890,0.03980
6161.45737,0.04410
6163.38583,0.06202
6165.31430,0.07670
6167.24277,0.10168
6169.17124,0.13659
6171.09971,0.16130
6173.02818,0.14382
6174.95665,0.09957
6176.88512,0.09244
6178.81358,0.12872
6180.74205,0.16472
6182.67052,0.17931
6184.59899,0.16781
6186.52746,0.13135
6188.45593,0.10770
6190.38440,0.13541
6192.31286,0.16988
6194.24133,0.15455
6196.16980,0.10712
6198.09827,0.07888
6200.02674,0.06939
6201.95521,0.05015
6203.88368,0.03669
6205.81215,0.04552
6207.74061,0.05511
6209.66908,0.06245
6211.59755,0.06134
6213.52602,0.04965
6215.45449,0.05927
6217.38296,0.07297
6219.31143,0.04541
6221.23989,0.02287
6223.16836,0.07734
6225.09683,0.17634
6227.02530,0.21209
6228.95377,0.16105
6230.88224,0.11531
6232.81071,0.10199
6234.73918,0.07384
6236.66764,0.06266
6238.59611,0.09438
6240.52458,0.13935
6242.45305,0.16331
6244.38152,0.16114
6246.30999,0.14995
6248.23846,0.12338
6250.16692,0.07366
6252.09539,0.02798
6254.02386,-0.00841
6255.95233,-0.05352
6257.88080,-0.07554
6259.80927,-0.05318
6261.73774,-0.00083
6263.66621,0.05664
6265.59467,0.06478
6267.52314,0.02831
6269.45161,0.02468
6271.38008,0.08141
6273.30855,0.14669
6275.23702,0.17070
6277.16549,0.16975
6279.09395,0.12787
6281.02242,0.05524
6282.95089,0.04049
6284.87936,0.08591
6286.80783,0.10391
6288.73630,0.07657
6290.66477,0.05379
6292.59323,0.08238
6294.52170,0.11802
6296.45017,0.08913
6298.37864,0.05476
6300.30711,0.07285
6302.23558,0.07293
6304.16405,0.03848
6306.09252,0.05332
6308.02098,0.10768
6309.94945,0.13929
6311.87792,0.15579
6313.80639,0.14334
6315.73486,0.08105
6317.66333,0.00936
6319.59180,-0.03794
6321.52026,-0.03377
6323.44873,0.03481
6325.37720,0.10425
6327.30567,0.11472
6329.23414,0.07693
6331.16261,0.04814
6333.09108,0.06034
6335.01955,0.07440
6336.94801,0.06645
6338.87648,0.06505
6340.80495,0.06981
6342.73342,0.06531
6344.66189,0.07536
6346.59036,0.10897
6348.51883,0.13163
6350.44729,0.15108
6352.37576,0.14931
6354.30423,0.08123
6356.23270,0.01141
6358.16117,0.01233
6360.08964,0.05281
6362.01811,0.07791
6363.94658,0.08404
6365.87504,0.07511
6367.80351,0.06231
6369.73198,0.04234
6371.66045,-0.00043
6373.58892,-0.03326
6375.51739,-0.03587
6377.44586,-0.00783
6379.37432,0.04991
6381.30279,0.11172
6383.23126,0.13066
6385.15973,0.09136
6387.08820,0.05629
6389.01667,0.03889
6390.94514,0.00481
6392.87361,-0.03566
6394.80207,-0.03334
6396.73054,0.00328
6398.65901,0.04766
6400.58748,0.09403
6402.51595,0.10762
6404.44442,0.07063
6406.37289,0.02267
6408.30135,0.03275
6410.22982,0.10261
6412.15829,0.12792
6414.08676,0.06673
6416.01523,0.00619
6417.94370,-0.00495
6419.87217,-0.00581
6421.80064,-0.02391
6423.72910,-0.04660
6425.65757,-0.04489
6427.58604,-0.02018
6429.51451,0.00283
6431.44298,0.03437
6433.37145,0.07170
6435.29992,0.10367
6437.22838,0.12619
6439.15685,0.11315
6441.08532,0.06395
6443.01379,0.03090
6444.94226,0.04398
6446.87073,0.03315
6448.79920,-0.00686
6450.72766,0.00105
6452.65613,0.02879
6454.58460,0.03179
6456.51307,0.05432
6458.44154,0.07180
6460.37001,0.03733
6462.29848,0.02297
6464.22695,0.04546
6466.15541,0.01551
6468.08388,-0.05846
6470.01235,-0.09376
6471.94082,-0.07713
6473.86929,-0.01482
6475.79776,0.10541
6477.72623,0.18443
6479.65469,0.14483
6481.58316,0.10384
6483.51163,0.12142
6485.44010,0.11174
6487.36857,0.06591
6489.29704,0.04922
6491.22551,0.09871
6493.15398,0.18121
6495.08244,0.20111
6497.01091,0.14163
6498.93938,0.08662
6500.86785,0.07139
6502.79632,0.03461
6504.72479,-0.03523
6506.65326,-0.07206
6508.58172,-0.05150
6510.51019,0.00060
6512.43866,0.04797
6514.36713,0.06797
6516.29560,0.06286
6518.22407,0.01396
6520.15254,-0.06527
6522.08101,-0.10470
6524.00947,-0.06946
6525.93794,0.00577
6527.86641,0.04666
6529.79488,0.01419
6531.72335,-0.01419
6533.65182,0.02526
6535.58029,0.06526
6537.50875,0.07608
6539.43722,0.09591
6541.36569,0.12311
6543.29416,0.14249
6545.22263,0.13974
6547.15110,0.10337
6549.07957,0.03486
6551.00804,-0.04066
6552.93650,-0.07721
6554.86497,-0.04966
6556.79344,0.03449
6558.72191,0.12598
6560.65038,0.16792
6562.57885,0.17319
6564.50732,0.19459
6566.43578,0.22492
6568.36425,0.18926
6570.29272,0.07309
6572.22119,-0.01665
6574.14966,-0.01142
6576.07813,0.00623
6578.00660,-0.02043
6579.93507,-0.04122
6581.86353,-0.02329
6583.79200,0.02328
6585.72047,0.06465
6587.64894,0.08021
6589.57741,0.07987
6591.50588,0.06231
6593.43435,0.02687
6595.36281,0.01455
6597.29128,0.04170
6599.21975,0.06805
6601.14822,0.08886
6603.07669,0.12594
6605.00516,0.15262
6606.93363,0.13044
6608.86210,0.07948
6610.79056,0.03783
6612.71903,0.00358
6614.64750,0.00114
6616.57597,0.04988
6618.50444,0.09156
6620.43291,0.06027
6622.36138,-0.00066
6624.28984,-0.01516
6626.21831,-0.00372
6628.14678,0.01704
6630.07525,0.04889
6632.00372,0.07760
6633.93219,0.09814
6635.86066,0.10122
6637.78912,0.08926
6639.71759,0.05662
6641.64606,0.02924
6643.57453,0.03771
6645.50300,0.07307
6647.43147,0.08619
6649.35994,0.06468
6651.28841,0.07017
6653.21687,0.07113
6655.14534,0.01489
6657.07381,-0.04087
6659.00228,-0.03766
6660.93075,-0.01376
6662.85922,-0.00694
6664.78769,0.01923
6666.71615,0.04809
6668.64462,0.01423
6670.57309,-0.03305
6672.50156,-0.00226
6674.43003,0.05577
6676.35850,0.05841
6678.28697,0.05743
6680.21544,0.10568
6682.14390,0.16420
6684.07237,0.19613
6686.00084,0.22829
6687.92931,0.25466
6689.85778,0.20719
6691.78625,0.11433
6693.71472,0.02798
6695.64318,-0.05586
6697.57165,-0.08527
6699.50012,-0.02935
6701.42859,0.01284
6703.35706,-0.00575
6705.28553,-0.02756
6707.21400,-0.02492
6709.14247,0.03457
6711.07093,0.13627
6712.99940,0.19605
6714.92787,0.19062
6716.85634,0.13642
6718.78481,0.06277
6720.71328,0.04138
6722.64175,0.06757
6724.57021,0.07962
6726.49868,0.10113
6728.42715,0.13849
6730.35562,0.15246
6732.28409,0.12331
6734.21256,0.07269
6736.14103,0.07027
6738.06950,0.10629
6739.99796,0.10469
6741.92643,0.10630
6743.85490,0.13621
6745.78337,0.12036
6747.71184,0.07719
6749.64031,0.04777
6751.56878,0.02258
6753.49724,0.02680
6755.42571,0.04851
6757.35418,0.03894
6759.28265,-0.00548
6761.21112,-0.03791
6763.13959,0.00638
6765.06806,0.07622
6766.99653,0.07966
6768.92499,0.03100
6770.85346,-0.00371
6772.78193,0.00700
6774.71040,0.01344
6776.63887,-0.03078
6778.56734,-0.05334
6780.49581,-0.01372
6782.42427,0.03355
6784.35274,0.04674
6786.28121,0.06726
6788.20968,0.12341
6790.13815,0.17763
6792.06662,0.20875
6793.99509,0.23116
6795.92355,0.24158
6797.85202,0.21124
6799.78049,0.14769
6801.70896,0.10811
6803.63743,0.11403
6805.56590,0.10042
6807.49437,0.03199
6809.42284,-0.00387
6811.35130,0.03776
6813.27977,0.05228
6815.20824,0.04241
6817.13671,0.07570
6819.06518,0.06834
6820.99365,-0.01198
6822.92212,-0.08237
6824.85058,-0.05790
6826.77905,0.06682
6828.70752,0.21251
6830.63599,0.23943
6832.56446,0.16435
6834.49293,0.08273
6836.42140,0.03110
6838.34987,0.04978
6840.27833,0.10243
6842.20680,0.12590
6844.13527,0.12668
6846.06374,0.11788
6847.99221,0.11314
6849.92068,0.10928
6851.84915,0.07075
6853.77761,0.02585
6855.70608,0.01581
6857.63455,0.05502
6859.56302,0.12245
6861.49149,0.15863
6863.41996,0.14008
6865.34843,0.11531
6867.27690,0.10522
6869.20536,0.09055
6871.13383,0.05372
6873.06230,0.01438
6874.99077,0.00319
6876.91924,0.01079
6878.84771,0.03035
6880.77618,0.02371
6882.70464,-0.00171
6884.63311,0.02410
6886.56158,0.06619
6888.49005,0.07471
6890.41852,0.07595
6892.34699,0.06632
6894.27546,0.02752
6896.20393,-0.01792
6898.13239,-0.03401
6900.06086,-0.00871
6901.98933,0.01653
6903.91780,0.02347
6905.84627,0.05611
6907.77474,0.11749
6909.70321,0.12790
6911.63167,0.06095
6913.56014,-0.01298
6915.48861,-0.06467
6917.41708,-0.09208
6919.34555,-0.06341
6921.27402,-0.04690
6923.20249,-0.05209
6925.13096,-0.05008
6927.05942,-0.07258
6928.98789,-0.02567
6930.91636,0.16732
6932.84483,0.27588
6934.77330,0.18408
6936.70177,0.07516
6938.63024,0.02687
6940.55870,0.02022
6942.48717,-0.01812
6944.41564,-0.09615
6946.34411,-0.12244
6948.27258,-0.06943
6950.20105,0.00038
6952.12952,0.04525
6954.05799,0.04768
6955.98645,0.00067
6957.91492,-0.05621
6959.84339,-0.07467
6961.77186,-0.00015
6963.70033,0.11865
6965.62880,0.15179
6967.55727,0.11872
6969.48573,0.10851
6971.41420,0.06844
6973.34267,-0.02631
6975.27114,-0.05163
6977.19961,0.00538
6979.12808,0.02595
6981.05655,0.02178
6982.98501,0.05638
6984.91348,0.08347
6986.84195,0.03654
6988.77042,-0.03850
6990.69889,-0.04256
6992.62736,-0.00580
6994.55583,0.03493
6996.48430,0.14082
6998.41276,0.26167
7000.34123,0.26125
7002.26970,0.15991
7004.19817,0.07243
7006.12664,0.05241
7008.05511,0.06694
7009.98358,0.06332
7011.91204,0.01139
7013.84051,-0.03451
7015.76898,0.03115
7017.69745,0.14228
7019.62592,0.17969
7021.55439,0.15413
7023.48286,0.14529
7025.41133,0.15908
7027.33979,0.12072
7029.26826,0.00419
7031.19673,-0.08773
7033.12520,-0.09735
7035.05367,-0.04392
7036.98214,-0.00540
7038.91061,0.02403
7040.83907,0.13177
7042.76754,0.22471
7044.69601,0.17102
7046.62448,0.13625
7048.55295,0.19251
7050.48142,0.19101
7052.40989,0.07901
7054.33836,-0.00276
7056.26682,0.07359
7058.19529,0.19208
7060.12376,0.16355
7062.05223,0.03521
7063.98070,-0.05381
7065.90917,-0.04186
7067.83764,0.04708
7069.76610,0.16342
7071.69457,0.21607
7073.62304,0.14872
7075.55151,0.04738
7077.47998,0.04995
7079.40845,0.14962
7081.33692,0.20765
7083.26539,0.17916
7085.19385,0.16369
7087.12232,0.15543
7089.05079,0.08469
7090.97926,0.06085
7092.90773,0.11415
7094.83620,0.10646
7096.76467,0.08347
7098.69313,0.09970
7100.62160,0.09240
7102.55007,0.08095
7104.47854,0.07737
7106.40701,0.07872
7108.33548,0.07353
7110.26395,0.04491
7112.19242,0.05487
7114.12088,0.14194
7116.04935,0.24891
7117.97782,0.29975
7119.90629,0.25804
7121.83476,0.16549
7123.76323,0.08706
7125.69170,0.05572
7127.62016,0.06329
7129.54863,0.08099
7131.47710,0.08169
7133.40557,0.06829
7135.33404,0.07696
7137.26251,0.10909
7139.19098,0.06628
7141.11944,-0.04582
7143.04791,-0.03612
7144.97638,0.08414
7146.90485,0.06820
7148.83332,-0.03283
7150.76179,-0.02169
7152.69026,0.05358
7154.61873,0.07560
7156.54719,0.06324
7158.47566,0.06466
7160.40413,0.04477
7162.33260,0.02152
7164.26107,0.13076
7166.18954,0.28876
7168.11801,0.25471
7170.04647,0.07477
7171.97494,-0.02915
7173.90341,-0.00434
7175.83188,0.06030
7177.76035,0.08779
7179.68882,0.05386
7181.61729,0.04320
7183.54576,0.13326
7185.47422,0.19926
7187.40269,0.17102
7189.33116,0.20216
7191.25963,0.31235
7193.18810,0.27165
7195.11657,0.11920
7197.04504,0.04829
7198.97350,0.10130
7200.90197,0.19713
7202.83044,0.27736
7204.75891,0.30711
7206.68738,0.21856
7208.61585,0.08723
7210.54432,0.06289
7212.47279,0.19528
7214.40125,0.26441
7216.32972,0.08152
7218.25819,-0.07750
7220.18666,-0.02039
7222.11513,0.04108
7224.04360,0.08942
7225.97207,0.12339
7227.90053,0.08288
7229.82900,-0.03010
7231.75747,-0.09442
7233.68594,-0.04513
7235.61441,-0.03015
7237.54288,-0.06923
7239.47135,-0.01947
7241.39982,0.09670
7243.32828,0.08048
7245.25675,0.01238
7247.18522,0.07672
7249.11369,0.12322
7251.04216,0.00160
7252.97063,-0.13486
7254.89910,-0.08657
7256.82756,0.04952
7258.75603,0.22599
7260.68450,0.26306
7262.61297,0.03090
7264.54144,-0.10217
7266.46991,0.01203
7268.39838,0.11256
7270.32685,0.04614
7272.25531,-0.05748
7274.18378,0.01119
7276.11225,0.14359
7278.04072,0.23011
7279.96919,0.24388
7281.89766,0.20898
7283.82613,0.14353
7285.75459,0.08460
7287.68306,0.04793
7289.61153,-0.06339
7291.54000,-0.18767
7293.46847,-0.12316
7295.39694,0.02608
7297.32541,0.07044
7299.25387,0.02898
7301.18234,0.01713
7303.11081,0.07897
7305.03928,0.11744
7306.96775,0.10016
7308.89622,0.14203
7310.82469,0.24604
7312.75316,0.23267
7314.68162,0.05724
7316.61009,-0.14288
7318.53856,-0.21524
7320.46703,-0.19001
7322.39550,-0.11892
7324.32397,-0.02105
7326.25244,0.01877
7328.18090,-0.00708
7330.10937,0.05970
7332.03784,0.19477
7333.96631,0.25043
7335.89478,0.23482
7337.82325,0.21086
7339.75172,0.20285
7341.68019,0.20909
7343.60865,0.21861
7345.53712,0.17312
7347.46559,-0.02750
7349.39406,-0.30861
7351.32253,-0.38475
7353.25100,-0.23587
7355.17947,-0.09496
7357.10793,0.01905
7359.03640,0.20050
7360.96487,0.33613
7362.89334,0.28501
7364.82181,0.16083
7366.75028,0.13209
7368.67875,0.16490
7370.60722,0.16230
7372.53568,0.14628
7374.46415,0.04373
7376.39262,-0.18867
7378.32109,-0.26775
7380.24956,-0.18839
7382.17803,-0.04214
7384.10650,0.11083
7386.03496,0.14294
7387.96343,0.04318
7389.89190,-0.01664
7391.82037,-0.02006
7393.74884,-0.04157
7395.67731,-0.08223
7397.60578,-0.09629
7399.53425,-0.04823
7401.46271,0.09308
7403.39118,0.27858
7405.31965,0.31077
7407.24812,0.16560
7409.17659,0.05708
7411.10506,0.09479
7413.03353,0.12101
7414.96199,0.05353
7416.89046,0.01689
7418.81893,0.08308
7420.74740,0.19258
7422.67587,0.17150
7424.60434,0.04080
7426.53281,-0.00583
7428.46128,0.07249
7430.38974,0.20650
7432.31821,0.29217
7434.24668,0.28969
7436.17515,0.32593
7438.10362,0.44446
7440.03209,0.44453
7441.96056,0.29110
7443.88902,0.09155
7445.81749,-0.05273
7447.74596,-0.05123
7449.67443,0.07070
7451.60290,0.22084
7453.53137,0.28293
7455.45984,0.26837
7457.38831,0.25364
7459.31677,0.14761
7461.24524,-0.03753
7463.17371,0.02491
7465.10218,0.28060
7467.03065,0.35310
7468.95912,0.26720
7470.88759,0.25682
7472.81605,0.30201
7474.74452,0.30440
7476.67299,0.27151
7478.60146,0.23203
7480.52993,0.25258
7482.45840,0.27012
7484.38687,0.18876
7486.31533,0.09053
7488.24380,0.03599
7490.17227,0.06123
7492.10074,0.15015
7494.02921,0.20117
7495.95768,0.22234
7497.88615,0.30698
