399.19301,-0.41264
401.12148,-0.01583
403.04995,0.15027
404.97842,0.27548
406.90689,0.31239
408.83536,0.25384
410.76382,0.19174
412.69229,0.19171
414.62076,0.19726
416.54923,0.16119
418.47770,0.07232
420.40617,0.02147
422.33464,-0.00403
424.26311,-0.03665
426.19157,0.00097
428.12004,0.05311
430.04851,0.06347
431.97698,0.09385
433.90545,0.11461
435.83392,0.04219
437.76239,-0.04144
439.69085,-0.01965
441.61932,0.10394
443.54779,0.22037
445.47626,0.25232
447.40473,0.17829
449.33320,0.04237
451.26167,-0.04134
453.19013,-0.03289
455.11860,0.03111
457.04707,0.08016
458.97554,0.04897
460.90401,-0.00111
462.83248,0.01426
464.76095,0.06338
466.68942,0.07082
468.61788,0.05657
470.54635,0.09436
472.47482,0.20388
474.40329,0.25600
476.33176,0.20740
478.26023,0.19183
480.18870,0.18371
482.11716,0.14229
484.04563,0.08814
485.97410,0.06680
487.90257,0.08443
489.83104,0.11446
491.75951,0.13614
493.68798,0.14036
495.61645,0.12543
497.54491,0.10196
499.47338,0.08741
501.40185,0.08896
503.33032,0.10120
505.25879,0.11253
507.18726,0.10637
509.11573,0.09233
511.04419,0.10533
512.97266,0.13047
514.90113,0.12384
516.82960,0.09101
518.75807,0.07657
520.68654,0.08054
522.61501,0.08735
524.54348,0.09553
526.47194,0.08571
528.40041,0.07429
530.32888,0.09056
532.25735,0.10679
534.18582,0.10020
536.11429,0.08151
538.04276,0.05897
539.97122,0.05294
541.89969,0.06690
543.82816,0.07325
545.75663,0.07673
547.68510,0.09195
549.61357,0.11123
551.54204,0.14443
553.47051,0.17229
555.39897,0.15135
557.32744,0.12277
559.25591,0.12825
561.18438,0.12179
563.11285,0.09791
565.04132,0.09434
566.96979,0.10677
568.89825,0.11147
570.82672,0.11490
572.75519,0.12730
574.68366,0.12249
576.61213,0.09638
578.54060,0.07850
580.46907,0.08144
582.39754,0.10049
584.32600,0.11225
586.25447,0.10945
588.18294,0.10884
590.11141,0.11386
592.03988,0.12519
593.96835,0.13886
595.89682,0.13734
597.82528,0.12893
599.75375,0.12412
601.68222,0.11220
603.61069,0.09051
605.53916,0.07396
607.46763,0.08537
609.39610,0.11232
611.32456,0.12117
613.25303,0.11504
615.18150,0.10768
617.10997,0.09612
619.03844,0.08584
620.96691,0.08300
622.89538,0.08461
624.82385,0.09129
626.75231,0.10199
628.68078,0.11761
630.60925,0.13507
632.53772,0.13943
634.46619,0.12917
636.39466,0.11710
638.32313,0.10733
640.25159,0.10354
642.18006,0.11249
644.10853,0.12234
646.03700,0.12003
647.96547,0.12003
649.89394,0.13577
651.82241,0.14866
653.75088,0.14161
655.67934,0.13178
657.60781,0.13178
659.53628,0.12888
661.46475,0.12265
663.39322,0.11891
665.32169,0.11337
667.25016,0.10638
669.17862,0.11216
671.10709,0.12744
673.03556,0.13632
674.96403,0.13280
676.89250,0.11912
678.82097,0.10443
680.74944,0.09402
682.67791,0.09413
684.60637,0.10989
686.53484,0.13049
688.46331,0.13504
690.39178,0.13040
692.32025,0.13141
694.24872,0.13079
696.17719,0.12708
698.10565,0.12537
700.03412,0.12435
701.96259,0.12356
703.89106,0.12677
705.81953,0.12975
707.74800,0.12437
709.67647,0.11939
711.60494,0.12143
713.53340,0.12629
715.46187,0.13292
717.39034,0.14235
719.31881,0.14781
721.24728,0.13431
723.17575,0.11310
725.10422,0.11130
727.03268,0.12371
728.96115,0.12884
730.88962,0.12733
732.81809,0.12915
734.74656,0.12706
736.67503,0.11881
738.60350,0.11559
740.53197,0.11836
742.46043,0.12249
744.38890,0.12385
746.31737,0.12081
748.24584,0.12048
750.17431,0.12485
752.10278,0.12518
754.03125,0.12064
755.95971,0.12062
757.88818,0.12346
759.81665,0.12292
761.74512,0.12187
763.67359,0.12111
765.60206,0.12041
767.53053,0.11846
769.45900,0.11433
771.38746,0.11672
773.31593,0.12922
775.24440,0.14062
777.17287,0.14028
779.10134,0.13363
781.02981,0.13052
782.95828,0.12794
784.88674,0.12515
786.81521,0.12962
788.74368,0.13913
790.67215,0.14310
792.60062,0.14061
794.52909,0.13925
796.45756,0.13926
798.38602,0.13747
800.31449,0.13583
802.24296,0.13254
804.17143,0.12574
806.09990,0.11837
808.02837,0.11605
809.95684,0.12472
811.88531,0.13575
813.81377,0.13582
815.74224,0.12899
817.67071,0.12253
819.59918,0.11808
821.52765,0.11878
823.45612,0.12285
825.38459,0.12584
827.31305,0.12722
829.24152,0.12553
831.16999,0.12132
833.09846,0.12058
835.02693,0.12547
836.95540,0.13094
838.88387,0.13198
840.81234,0.12996
842.74080,0.12961
844.66927,0.13199
846.59774,0.13296
848.52621,0.12951
850.45468,0.12528
852.38315,0.12122
854.31162,0.11929
856.24008,0.12518
858.16855,0.12917
860.09702,0.12238
862.02549,0.11879
863.95396,0.12862
865.88243,0.13976
867.81090,0.14130
869.73937,0.13502
871.66783,0.12696
873.59630,0.12373
875.52477,0.12586
877.45324,0.13102
879.38171,0.13686
881.31018,0.13779
883.23865,0.13608
885.16711,0.13521
887.09558,0.13000
889.02405,0.12357
890.95252,0.12155
892.88099,0.12005
894.80946,0.11908
896.73793,0.12443
898.66640,0.13686
900.59486,0.14696
902.52333,0.14690
904.45180,0.14422
906.38027,0.14549
908.30874,0.14643
910.23721,0.14811
912.16568,0.15145
914.09414,0.14845
916.02261,0.14193
917.95108,0.14063
919.87955,0.14128
921.80802,0.14053
923.73649,0.14160
925.66496,0.14570
927.59343,0.14891
929.52189,0.14659
931.45036,0.14006
933.37883,0.13557
935.30730,0.13626
937.23577,0.14054
939.16424,0.14486
941.09271,0.14494
943.02117,0.14172
944.94964,0.14074
946.87811,0.14099
948.80658,0.13794
950.73505,0.13604
952.66352,0.13743
954.59199,0.13655
956.52045,0.13546
958.44892,0.13767
960.37739,0.13936
962.30586,0.13905
964.23433,0.13712
966.16280,0.13536
968.09127,0.13827
970.01974,0.14436
971.94820,0.14640
973.87667,0.14237
975.80514,0.14022
977.73361,0.14400
979.66208,0.14596
981.59055,0.14251
983.51902,0.13868
985.44748,0.14142
987.37595,0.14911
989.30442,0.15175
991.23289,0.14970
993.16136,0.14823
995.08983,0.14660
997.01830,0.14430
998.94677,0.14414
1000.87523,0.14754
1002.80370,0.14914
1004.73217,0.14731
1006.66064,0.14781
1008.58911,0.14914
1010.51758,0.14882
1012.44605,0.15290
1014.37451,0.15886
1016.30298,0.15863
1018.23145,0.15519
1020.15992,0.15301
1022.08839,0.15123
1024.01686,0.15094
1025.94533,0.15631
1027.87380,0.16208
1029.80226,0.15705
1031.73073,0.14695
1033.65920,0.14602
1035.58767,0.15111
1037.51614,0.15050
1039.44461,0.14855
1041.37308,0.15334
1043.30154,0.15801
1045.23001,0.15804
1047.15848,0.15803
1049.08695,0.15762
1051.01542,0.15496
1052.94389,0.15362
1054.87236,0.15567
1056.80083,0.15802
1058.72929,0.15797
1060.65776,0.15651
1062.58623,0.15656
1064.51470,0.15950
1066.44317,0.16319
1068.37164,0.16529
1070.30011,0.16390
1072.22857,0.15797
1074.15704,0.15404
1076.08551,0.15490
1078.01398,0.15461
1079.94245,0.15506
1081.87092,0.15794
1083.79939,0.15818
1085.72786,0.15636
1087.65632,0.15367
1089.58479,0.14887
1091.51326,0.14447
1093.44173,0.14212
1095.37020,0.14330
1097.29867,0.14818
1099.22714,0.15255
1101.15560,0.15621
1103.08407,0.15890
1105.01254,0.15706
1106.94101,0.15318
1108.86948,0.15102
1110.79795,0.15220
1112.72642,0.15767
1114.65489,0.15934
1116.58335,0.15294
1118.51182,0.14824
1120.44029,0.14917
1122.36876,0.15263
1124.29723,0.15485
1126.22570,0.15376
1128.15417,0.15296
1130.08263,0.15269
1132.01110,0.15094
1133.93957,0.14762
1135.86804,0.14404
1137.79651,0.14329
1139.72498,0.14715
1141.65345,0.15418
1143.58191,0.15929
1145.51038,0.15989
1147.43885,0.15887
1149.36732,0.15902
1151.29579,0.16059
1153.22426,0.16221
1155.15273,0.16214
1157.08120,0.15992
1159.00966,0.15842
1160.93813,0.15918
1162.86660,0.15989
1164.79507,0.16148
1166.72354,0.16536
1168.65201,0.16751
1170.58048,0.16546
1172.50894,0.16131
1174.43741,0.15897
1176.36588,0.16035
1178.29435,0.16251
1180.22282,0.16332
1182.15129,0.16230
1184.07976,0.16051
1186.00823,0.16125
1187.93669,0.16419
1189.86516,0.16564
1191.79363,0.16370
1193.72210,0.16007
1195.65057,0.15817
1197.57904,0.15891
1199.50751,0.15920
1201.43597,0.15932
1203.36444,0.16225
1205.29291,0.16313
1207.22138,0.15878
1209.14985,0.15614
1211.07832,0.15944
1213.00679,0.16411
1214.93526,0.16447
1216.86372,0.16091
1218.79219,0.15774
1220.72066,0.15790
1222.64913,0.16053
1224.57760,0.16214
1226.50607,0.16243
1228.43454,0.16198
1230.36300,0.16058
1232.29147,0.16133
1234.21994,0.16338
1236.14841,0.16394
1238.07688,0.16499
1240.00535,0.16612
1241.93382,0.16685
1243.86229,0.16646
1245.79075,0.16305
1247.71922,0.16040
1249.64769,0.16075
1251.57616,0.16166
1253.50463,0.16236
1255.43310,0.16116
1257.36157,0.15883
1259.29003,0.15988
1261.21850,0.16420
1263.14697,0.16937
1265.07544,0.17261
1267.00391,0.17167
1268.93238,0.17044
1270.86085,0.16995
1272.78932,0.16745
1274.71778,0.16518
1276.64625,0.16519
1278.57472,0.16641
1280.50319,0.16765
1282.43166,0.16875
1284.36013,0.17116
1286.28860,0.17376
1288.21706,0.17424
1290.14553,0.17366
1292.07400,0.17205
1294.00247,0.16987
1295.93094,0.16914
1297.85941,0.16960
1299.78788,0.17046
1301.71634,0.16921
1303.64481,0.16615
1305.57328,0.16701
1307.50175,0.17120
1309.43022,0.17298
1311.35869,0.17365
1313.28716,0.17483
1315.21563,0.17455
1317.14409,0.17580
1319.07256,0.17863
1321.00103,0.17716
1322.92950,0.17153
1324.85797,0.16639
1326.78644,0.16599
1328.71491,0.17078
1330.64337,0.17410
1332.57184,0.17122
1334.50031,0.16812
1336.42878,0.17286
1338.35725,0.18168
1340.28572,0.18079
1342.21419,0.17336
1344.14266,0.17300
1346.07112,0.17655
1347.99959,0.17715
1349.92806,0.17569
1351.85653,0.17290
1353.78500,0.16976
1355.71347,0.16902
1357.64194,0.17078
1359.57040,0.17554
1361.49887,0.18382
1363.42734,0.18592
1365.35581,0.18003
1367.28428,0.17778
1369.21275,0.17760
1371.14122,0.17660
1373.06969,0.18087
1374.99815,0.18613
1376.92662,0.18433
1378.85509,0.18005
1380.78356,0.17494
1382.71203,0.17184
1384.64050,0.17732
1386.56897,0.18597
1388.49743,0.18517
1390.42590,0.18197
1392.35437,0.18852
1394.28284,0.19971
1396.21131,0.20328
1398.13978,0.19982
1400.06825,0.19127
1401.99672,0.18338
1403.92518,0.18330
1405.85365,0.18410
1407.78212,0.18174
1409.71059,0.18164
1411.63906,0.18161
1413.56753,0.18155
1415.49600,0.18798
1417.42446,0.19998
1419.35293,0.20009
1421.28140,0.18880
1423.20987,0.18538
1425.13834,0.18559
1427.06681,0.18638
1428.99528,0.19195
1430.92375,0.19657
1432.85221,0.19725
1434.78068,0.20201
1436.70915,0.20549
1438.63762,0.19536
1440.56609,0.18579
1442.49456,0.18347
1444.42303,0.18549
1446.35149,0.18986
1448.27996,0.19126
1450.20843,0.18925
1452.13690,0.19250
1454.06537,0.20679
1455.99384,0.23289
1457.92231,0.24032
1459.85077,0.21419
1461.77924,0.19981
1463.70771,0.20223
1465.63618,0.20203
1467.56465,0.19457
1469.49312,0.19951
1471.42159,0.22116
1473.35006,0.23526
1475.27852,0.22372
1477.20699,0.20769
1479.13546,0.19620
1481.06393,0.18978
1482.99240,0.18970
1484.92087,0.19944
1486.84934,0.22030
1488.77780,0.23986
1490.70627,0.23184
1492.63474,0.21361
1494.56321,0.21302
1496.49168,0.22351
1498.42015,0.21974
1500.34862,0.20440
1502.27709,0.19736
1504.20555,0.21268
1506.13402,0.26391
1508.06249,0.28113
1509.99096,0.24278
1511.91943,0.22106
1513.84790,0.22070
1515.77637,0.23403
1517.70483,0.25039
1519.63330,0.26841
1521.56177,0.28009
1523.49024,0.26374
1525.41871,0.24263
1527.34718,0.22509
1529.27565,0.21170
1531.20412,0.21420
1533.13258,0.22655
1535.06105,0.22966
1536.98952,0.24110
1538.91799,0.28506
1540.84646,0.32283
1542.77493,0.29195
1544.70340,0.24788
1546.63186,0.21791
1548.56033,0.20978
1550.48880,0.21342
1552.41727,0.21872
1554.34574,0.23057
1556.27421,0.25739
1558.20268,0.29449
1560.13115,0.26537
1562.05961,0.22237
1563.98808,0.20811
1565.91655,0.20742
1567.84502,0.21689
1569.77349,0.22281
1571.70196,0.21333
1573.63043,0.21318
1575.55889,0.22547
1577.48736,0.21873
1579.41583,0.19905
1581.34430,0.18847
1583.27277,0.18572
1585.20124,0.18749
1587.12971,0.19163
1589.05818,0.19399
1590.98664,0.19388
1592.91511,0.19459
1594.84358,0.19404
1596.77205,0.18891
1598.70052,0.18464
1600.62899,0.18692
1602.55746,0.19214
1604.48592,0.19461
1606.41439,0.19570
1608.34286,0.19631
1610.27133,0.19466
1612.19980,0.19549
1614.12827,0.20551
1616.05674,0.21949
1617.98521,0.21568
1619.91367,0.20789
1621.84214,0.21456
1623.77061,0.22067
1625.69908,0.21609
1627.62755,0.21218
1629.55602,0.20707
1631.48449,0.20520
1633.41295,0.22032
1635.34142,0.24834
1637.26989,0.24339
1639.19836,0.21893
1641.12683,0.20768
1643.05530,0.21217
1644.98377,0.23412
1646.91223,0.25883
1648.84070,0.25394
1650.76917,0.25496
1652.69764,0.27892
1654.62611,0.25807
1656.55458,0.21981
1658.48305,0.20454
1660.41152,0.20727
1662.33998,0.21734
1664.26845,0.21703
1666.19692,0.21545
1668.12539,0.22759
1670.05386,0.23936
1671.98233,0.23435
1673.91080,0.23042
1675.83926,0.22727
1677.76773,0.22195
1679.69620,0.22485
1681.62467,0.24297
1683.55314,0.27000
1685.48161,0.26010
1687.41008,0.23353
1689.33855,0.22039
1691.26701,0.21284
1693.19548,0.21612
1695.12395,0.23854
1697.05242,0.26480
1698.98089,0.27399
1700.90936,0.26067
1702.83783,0.24291
1704.76629,0.23589
1706.69476,0.22455
1708.62323,0.20943
1710.55170,0.20545
1712.48017,0.21548
1714.40864,0.23674
1716.33711,0.25728
1718.26558,0.24551
1720.19404,0.21740
1722.12251,0.20340
1724.05098,0.19698
1725.97945,0.19171
1727.90792,0.19648
1729.83639,0.21177
1731.76486,0.22986
1733.69332,0.24331
1735.62179,0.23257
1737.55026,0.21840
1739.47873,0.21483
1741.40720,0.21455
1743.33567,0.21484
1745.26414,0.21807
1747.19261,0.22713
1749.12107,0.23725
1751.04954,0.23022
1752.97801,0.21212
1754.90648,0.20435
1756.83495,0.20573
1758.76342,0.20613
1760.69189,0.20582
1762.62035,0.20279
1764.54882,0.19744
1766.47729,0.19945
1768.40576,0.21035
1770.33423,0.22594
1772.26270,0.23506
1774.19117,0.22471
1776.11964,0.21069
1778.04810,0.20531
1779.97657,0.20547
1781.90504,0.20296
1783.83351,0.19822
1785.76198,0.19517
1787.69045,0.19522
1789.61892,0.20357
1791.54738,0.21727
1793.47585,0.21778
1795.40432,0.20848
1797.33279,0.20563
1799.26126,0.20972
1801.18973,0.21043
1803.11820,0.20328
1805.04666,0.19618
1806.97513,0.19410
1808.90360,0.19666
1810.83207,0.19812
1812.76054,0.19400
1814.68901,0.19043
1816.61748,0.19082
1818.54595,0.19266
1820.47441,0.19553
1822.40288,0.20008
1824.33135,0.20459
1826.25982,0.20760
1828.18829,0.21183
1830.11676,0.21183
1832.04523,0.20280
1833.97369,0.19664
1835.90216,0.19594
1837.83063,0.19473
1839.75910,0.19489
1841.68757,0.20287
1843.61604,0.21435
1845.54451,0.21387
1847.47298,0.20373
1849.40144,0.19496
1851.32991,0.19031
1853.25838,0.18849
1855.18685,0.18755
1857.11532,0.18778
1859.04379,0.18908
1860.97226,0.18971
1862.90072,0.19061
1864.82919,0.19623
1866.75766,0.20766
1868.68613,0.21533
1870.61460,0.20841
1872.54307,0.19645
1874.47154,0.19060
1876.40001,0.19102
1878.32847,0.19237
1880.25694,0.19225
1882.18541,0.19212
1884.11388,0.19257
1886.04235,0.19487
1887.97082,0.19960
1889.89929,0.20109
1891.82775,0.19783
1893.75622,0.19602
1895.68469,0.19479
1897.61316,0.19182
1899.54163,0.18955
1901.47010,0.18810
1903.39857,0.18752
1905.32704,0.18967
1907.25550,0.19330
1909.18397,0.19469
1911.11244,0.19325
1913.04091,0.19315
1914.96938,0.19805
1916.89785,0.20450
1918.82632,0.20437
1920.75478,0.19996
1922.68325,0.19617
1924.61172,0.19209
1926.54019,0.19024
1928.46866,0.19086
1930.39713,0.19074
1932.32560,0.19049
1934.25407,0.19219
1936.18253,0.19485
1938.11100,0.19669
1940.03947,0.19869
1941.96794,0.20095
1943.89641,0.20001
1945.82488,0.19530
1947.75335,0.19072
1949.68181,0.18945
1951.61028,0.19028
1953.53875,0.19014
1955.46722,0.18900
1957.39569,0.18816
1959.32416,0.18887
1961.25263,0.19087
1963.18110,0.19292
1965.10956,0.19572
1967.03803,0.19693
1968.96650,0.19391
1970.89497,0.19055
1972.82344,0.18951
1974.75191,0.18919
1976.68038,0.18927
1978.60884,0.19057
1980.53731,0.19192
1982.46578,0.19232
1984.39425,0.19264
1986.32272,0.19434
1988.25119,0.19736
1990.17966,0.19944
1992.10812,0.19845
1994.03659,0.19520
1995.96506,0.19266
1997.89353,0.19197
1999.82200,0.19232
2001.75047,0.19226
2003.67894,0.19124
2005.60741,0.19039
2007.53587,0.19050
2009.46434,0.19126
2011.39281,0.19193
2013.32128,0.19242
2015.24975,0.19392
2017.17822,0.19593
2019.10669,0.19545
2021.03515,0.19309
2022.96362,0.19206
2024.89209,0.19132
2026.82056,0.18955
2028.74903,0.18895
2030.67750,0.18977
2032.60597,0.19058
2034.53444,0.19118
2036.46290,0.19131
2038.39137,0.19104
2040.31984,0.19119
2042.24831,0.19204
2044.17678,0.19282
2046.10525,0.19248
2048.03372,0.19208
2049.96218,0.19283
2051.89065,0.19269
2053.81912,0.19110
2055.74759,0.19106
2057.67606,0.19303
2059.60453,0.19402
2061.53300,0.19326
2063.46147,0.19279
2065.38993,0.19329
2067.31840,0.19423
2069.24687,0.19500
2071.17534,0.19445
2073.10381,0.19256
2075.03228,0.19126
2076.96075,0.19154
2078.88921,0.19248
2080.81768,0.19310
2082.74615,0.19351
2084.67462,0.19421
2086.60309,0.19422
2088.53156,0.19336
2090.46003,0.19350
2092.38850,0.19395
2094.31696,0.19327
2096.24543,0.19242
2098.17390,0.19145
2100.10237,0.19093
2102.03084,0.19230
2103.95931,0.19355
2105.88778,0.19376
2107.81624,0.19493
2109.74471,0.19578
2111.67318,0.19541
2113.60165,0.19550
2115.53012,0.19525
2117.45859,0.19437
2119.38706,0.19435
2121.31553,0.19441
2123.24399,0.19419
2125.17246,0.19455
2127.10093,0.19503
2129.02940,0.19401
2130.95787,0.19167
2132.88634,0.19111
2134.81481,0.19185
2136.74327,0.19120
2138.67174,0.19153
2140.60021,0.19489
2142.52868,0.19773
2144.45715,0.19723
2146.38562,0.19562
2148.31409,0.19498
2150.24255,0.19440
2152.17102,0.19348
2154.09949,0.19340
2156.02796,0.19436
2157.95643,0.19550
2159.88490,0.19676
2161.81337,0.19776
2163.74184,0.19824
2165.67030,0.19832
2167.59877,0.19741
2169.52724,0.19633
2171.45571,0.19664
2173.38418,0.19774
2175.31265,0.19811
2177.24112,0.19779
2179.16958,0.19736
2181.09805,0.19638
2183.02652,0.19492
2184.95499,0.19416
2186.88346,0.19413
2188.81193,0.19404
2190.74040,0.19419
2192.66887,0.19523
2194.59733,0.19635
2196.52580,0.19622
2198.45427,0.19488
2200.38274,0.19335
2202.31121,0.19288
2204.23968,0.19376
2206.16815,0.19450
2208.09661,0.19423
2210.02508,0.19396
2211.95355,0.19438
2213.88202,0.19474
2215.81049,0.19463
2217.73896,0.19427
2219.66743,0.19454
2221.59590,0.19502
2223.52436,0.19395
2225.45283,0.19331
2227.38130,0.19447
2229.30977,0.19502
2231.23824,0.19480
2233.16671,0.19488
2235.09518,0.19437
2237.02364,0.19343
2238.95211,0.19374
2240.88058,0.19479
2242.80905,0.19545
2244.73752,0.19622
2246.66599,0.19686
2248.59446,0.19676
2250.52293,0.19641
2252.45139,0.19622
2254.37986,0.19628
2256.30833,0.19642
2258.23680,0.19598
2260.16527,0.19551
2262.09374,0.19548
2264.02221,0.19561
2265.95067,0.19639
2267.87914,0.19631
2269.80761,0.19448
2271.73608,0.19316
2273.66455,0.19329
2275.59302,0.19430
2277.52149,0.19586
2279.44996,0.19636
2281.37842,0.19478
2283.30689,0.19274
2285.23536,0.19182
2287.16383,0.19218
2289.09230,0.19313
2291.02077,0.19425
2292.94924,0.19819
2294.87770,0.20620
2296.80617,0.21042
2298.73464,0.20564
2300.66311,0.19948
2302.59158,0.19804
2304.52005,0.20044
2306.44852,0.20348
2308.37699,0.20396
2310.30545,0.20323
2312.23392,0.20337
2314.16239,0.20329
2316.09086,0.20270
2318.01933,0.20385
2319.94780,0.21026
2321.87627,0.21900
2323.80473,0.21865
2325.73320,0.20799
2327.66167,0.19781
2329.59014,0.19587
2331.51861,0.20353
2333.44708,0.21484
2335.37555,0.22426
2337.30401,0.22963
2339.23248,0.22721
2341.16095,0.21683
2343.08942,0.20901
2345.01789,0.21038
2346.94636,0.21233
2348.87483,0.21270
2350.80330,0.21815
2352.73176,0.23262
2354.66023,0.24447
2356.58870,0.24294
2358.51717,0.23437
2360.44564,0.21720
2362.37411,0.20660
2364.30258,0.21853
2366.23104,0.22737
2368.15951,0.21734
2370.08798,0.20792
2372.01645,0.20633
2373.94492,0.20594
2375.87339,0.20427
2377.80186,0.20263
2379.73033,0.20178
2381.65879,0.20004
2383.58726,0.19811
2385.51573,0.19642
2387.44420,0.19467
2389.37267,0.19489
2391.30114,0.19634
2393.22961,0.19687
2395.15807,0.19662
2397.08654,0.19651
2399.01501,0.19685
2400.94348,0.19686
2402.87195,0.19645
2404.80042,0.19570
2406.72889,0.19462
2408.65736,0.19409
2410.58582,0.19337
2412.51429,0.19256
2414.44276,0.19451
2416.37123,0.19764
2418.29970,0.19778
2420.22817,0.19603
2422.15664,0.19504
2424.08510,0.19518
2426.01357,0.19628
2427.94204,0.19721
2429.87051,0.19650
2431.79898,0.19452
2433.72745,0.19302
2435.65592,0.19386
2437.58439,0.19650
2439.51285,0.19815
2441.44132,0.19774
2443.36979,0.19658
2445.29826,0.19635
2447.22673,0.19644
2449.15520,0.19608
2451.08367,0.19598
2453.01213,0.19529
2454.94060,0.19454
2456.86907,0.19614
2458.79754,0.19913
2460.72601,0.20004
2462.65448,0.19870
2464.58295,0.19800
2466.51142,0.19837
2468.43988,0.19795
2470.36835,0.19665
2472.29682,0.19672
2474.22529,0.19872
2476.15376,0.19983
2478.08223,0.19884
2480.01070,0.19730
2481.93916,0.19504
2483.86763,0.19180
2485.79610,0.19035
2487.72457,0.19238
2489.65304,0.19446
2491.58151,0.19399
2493.50998,0.19444
2495.43844,0.19663
2497.36691,0.19652
2499.29538,0.19486
2501.22385,0.19492
2503.15232,0.19642
2505.08079,0.19770
2507.00926,0.19799
2508.93773,0.19761
2510.86619,0.19642
2512.79466,0.19497
2514.72313,0.19474
2516.65160,0.19484
2518.58007,0.19577
2520.50854,0.19843
2522.43701,0.19960
2524.36547,0.19880
2526.29394,0.19852
2528.22241,0.19919
2530.15088,0.20013
2532.07935,0.19939
2534.00782,0.19596
2535.93629,0.19335
2537.86476,0.19478
2539.79322,0.19753
2541.72169,0.19950
2543.65016,0.20233
2545.57863,0.20380
2547.50710,0.20102
2549.43557,0.19750
2551.36404,0.19669
2553.29250,0.19747
2555.22097,0.19783
2557.14944,0.19739
2559.07791,0.19737
2561.00638,0.19849
2562.93485,0.20006
2564.86332,0.20035
2566.79179,0.19867
2568.72025,0.19701
2570.64872,0.19596
2572.57719,0.19489
2574.50566,0.19501
2576.43413,0.19700
2578.36260,0.19838
2580.29107,0.19818
2582.21953,0.19907
2584.14800,0.19976
2586.07647,0.19777
2588.00494,0.19661
2589.93341,0.19865
2591.86188,0.20038
2593.79035,0.19959
2595.71882,0.19857
2597.64728,0.19843
2599.57575,0.19844
2601.50422,0.19834
2603.43269,0.19738
2605.36116,0.19659
2607.28963,0.19825
2609.21810,0.20062
2611.14656,0.20152
2613.07503,0.20207
2615.00350,0.20261
2616.93197,0.20241
2618.86044,0.20137
2620.78891,0.20085
2622.71738,0.20177
2624.64585,0.20217
2626.57431,0.20133
2628.50278,0.20079
2630.43125,0.20052
2632.35972,0.19985
2634.28819,0.19933
2636.21666,0.19945
2638.14513,0.20075
2640.07359,0.20269
2642.00206,0.20395
2643.93053,0.20470
2645.85900,0.20475
2647.78747,0.20400
2649.71594,0.20318
2651.64441,0.20178
2653.57288,0.20006
2655.50134,0.19978
2657.42981,0.20112
2659.35828,0.20246
2661.28675,0.20342
2663.21522,0.20434
2665.14369,0.20435
2667.07216,0.20349
2669.00062,0.20291
2670.92909,0.20263
2672.85756,0.20221
2674.78603,0.20172
2676.71450,0.20153
2678.64297,0.20207
2680.57144,0.20195
2682.49990,0.20114
2684.42837,0.20269
2686.35684,0.20585
2688.28531,0.20648
2690.21378,0.20469
2692.14225,0.20369
2694.07072,0.20518
2695.99919,0.20872
2697.92765,0.21054
2699.85612,0.20850
2701.78459,0.20545
2703.71306,0.20311
2705.64153,0.20221
2707.57000,0.20302
2709.49847,0.20320
2711.42693,0.20284
2713.35540,0.20430
2715.28387,0.20642
2717.21234,0.20736
2719.14081,0.20862
2721.06928,0.20964
2722.99775,0.20851
2724.92622,0.20773
2726.85468,0.20813
2728.78315,0.20763
2730.71162,0.20719
2732.64009,0.20744
2734.56856,0.20690
2736.49703,0.20602
2738.42550,0.20678
2740.35396,0.20845
2742.28243,0.20991
2744.21090,0.21132
2746.13937,0.21161
2748.06784,0.21048
2749.99631,0.20896
2751.92478,0.20775
2753.85325,0.20733
2755.78171,0.20808
2757.71018,0.20960
2759.63865,0.21147
2761.56712,0.21347
2763.49559,0.21410
2765.42406,0.21118
2767.35253,0.20717
2769.28099,0.20906
2771.20946,0.21335
2773.13793,0.21182
2775.06640,0.20914
2776.99487,0.20949
2778.92334,0.20947
2780.85181,0.20859
2782.78028,0.20832
2784.70874,0.20911
2786.63721,0.21113
2788.56568,0.21385
2790.49415,0.21535
2792.42262,0.21396
2794.35109,0.21112
2796.27956,0.20999
2798.20802,0.21098
2800.13649,0.21183
2802.06496,0.21177
2803.99343,0.21148
2805.92190,0.21065
2807.85037,0.20978
2809.77884,0.20995
2811.70731,0.21071
2813.63577,0.21151
2815.56424,0.21231
2817.49271,0.21250
2819.42118,0.21190
2821.34965,0.21133
2823.27812,0.21176
2825.20659,0.21249
2827.13505,0.21136
2829.06352,0.20973
2830.99199,0.21039
2832.92046,0.21174
2834.84893,0.21237
2836.77740,0.21326
2838.70587,0.21379
2840.63433,0.21327
2842.56280,0.21296
2844.49127,0.21316
2846.41974,0.21318
2848.34821,0.21327
2850.27668,0.21318
2852.20515,0.21286
2854.13362,0.21281
2856.06208,0.21287
2857.99055,0.21202
2859.91902,0.21035
2861.84749,0.21094
2863.77596,0.21520
2865.70443,0.21854
2867.63290,0.21792
2869.56136,0.21685
2871.48983,0.21722
2873.41830,0.21642
2875.34677,0.21305
2877.27524,0.21043
2879.20371,0.21147
2881.13218,0.21237
2883.06065,0.21026
2884.98911,0.20852
2886.91758,0.20986
2888.84605,0.21207
2890.77452,0.21246
2892.70299,0.21142
2894.63146,0.20946
2896.55993,0.20765
2898.48839,0.20765
2900.41686,0.20899
2902.34533,0.21058
2904.27380,0.21202
2906.20227,0.21341
2908.13074,0.21375
2910.05921,0.21179
2911.98768,0.20971
2913.91614,0.21095
2915.84461,0.21448
2917.77308,0.21600
2919.70155,0.21441
2921.63002,0.21303
2923.55849,0.21385
2925.48696,0.21458
2927.41542,0.21416
2929.34389,0.21463
2931.27236,0.21479
2933.20083,0.21288
2935.12930,0.21058
2937.05777,0.20832
2938.98624,0.20702
2940.91471,0.20840
2942.84317,0.21073
2944.77164,0.21225
2946.70011,0.21396
2948.62858,0.21608
2950.55705,0.21616
2952.48552,0.21372
2954.41399,0.21267
2956.34245,0.21338
2958.27092,0.21340
2960.19939,0.21448
2962.12786,0.21523
2964.05633,0.21226
2965.98480,0.20887
2967.91327,0.20838
2969.84174,0.21125
2971.77020,0.21558
2973.69867,0.21715
2975.62714,0.21663
2977.55561,0.21613
2979.48408,0.21504
2981.41255,0.21563
2983.34102,0.21802
2985.26948,0.21828
2987.19795,0.21724
2989.12642,0.21764
2991.05489,0.21948
2992.98336,0.22050
2994.91183,0.21897
2996.84030,0.21765
2998.76877,0.21828
3000.69723,0.21891
3002.62570,0.21972
3004.55417,0.22249
3006.48264,0.22495
3008.41111,0.22363
3010.33958,0.21914
3012.26805,0.21236
3014.19651,0.20371
3016.12498,0.19827
3018.05345,0.20212
3019.98192,0.21189
3021.91039,0.21897
3023.83886,0.22117
3025.76733,0.22041
3027.69579,0.21889
3029.62426,0.21859
3031.55273,0.22007
3033.48120,0.22182
3035.40967,0.22134
3037.33814,0.21951
3039.26661,0.21903
3041.19508,0.21958
3043.12354,0.21975
3045.05201,0.21893
3046.98048,0.21857
3048.90895,0.21969
3050.83742,0.21965
3052.76589,0.21898
3054.69436,0.21876
3056.62282,0.21782
3058.55129,0.21894
3060.47976,0.22071
3062.40823,0.21945
3064.33670,0.21774
3066.26517,0.21687
3068.19364,0.21623
3070.12211,0.21607
3072.05057,0.21694
3073.97904,0.21723
3075.90751,0.21414
3077.83598,0.21069
3079.76445,0.20983
3081.69292,0.21046
3083.62139,0.21230
3085.54985,0.21546
3087.47832,0.21763
3089.40679,0.21512
3091.33526,0.21091
3093.26373,0.21053
3095.19220,0.21386
3097.12067,0.21821
3099.04914,0.22177
3100.97760,0.22389
3102.90607,0.22279
3104.83454,0.22063
3106.76301,0.22103
3108.69148,0.22101
3110.61995,0.21860
3112.54842,0.21680
3114.47688,0.21779
3116.40535,0.22062
3118.33382,0.22320
3120.26229,0.22320
3122.19076,0.22018
3124.11923,0.21800
3126.04770,0.21932
3127.97617,0.22150
3129.90463,0.22168
3131.83310,0.22028
3133.76157,0.21851
3135.69004,0.21776
3137.61851,0.21791
3139.54698,0.21839
3141.47545,0.22112
3143.40391,0.22509
3145.33238,0.22653
3147.26085,0.22489
3149.18932,0.22315
3151.11779,0.22310
3153.04626,0.22286
3154.97473,0.22185
3156.90320,0.22145
3158.83166,0.22164
3160.76013,0.22239
3162.68860,0.22539
3164.61707,0.22880
3166.54554,0.22947
3168.47401,0.23013
3170.40248,0.23248
3172.33094,0.23298
3174.25941,0.23001
3176.18788,0.22683
3178.11635,0.22598
3180.04482,0.22458
3181.97329,0.22034
3183.90176,0.21892
3185.83022,0.22289
3187.75869,0.22525
3189.68716,0.22459
3191.61563,0.22485
3193.54410,0.22715
3195.47257,0.23029
3197.40104,0.23072
3199.32951,0.22781
3201.25797,0.22536
3203.18644,0.22373
3205.11491,0.22064
3207.04338,0.21887
3208.97185,0.22042
3210.90032,0.22301
3212.82879,0.22603
3214.75725,0.22739
3216.68572,0.22532
3218.61419,0.22343
3220.54266,0.22315
3222.47113,0.22085
3224.39960,0.21804
3226.32807,0.21853
3228.25654,0.21981
3230.18500,0.22004
3232.11347,0.21909
3234.04194,0.21726
3235.97041,0.21760
3237.89888,0.21957
3239.82735,0.21944
3241.75582,0.22008
3243.68428,0.22576
3245.61275,0.22922
3247.54122,0.22333
3249.46969,0.21665
3251.39816,0.21801
3253.32663,0.22206
3255.25510,0.22201
3257.18357,0.21968
3259.11203,0.21911
3261.04050,0.21964
3262.96897,0.21781
3264.89744,0.21580
3266.82591,0.21920
3268.75438,0.22609
3270.68285,0.22906
3272.61131,0.22652
3274.53978,0.22252
3276.46825,0.21910
3278.39672,0.21720
3280.32519,0.21726
3282.25366,0.21655
3284.18213,0.21427
3286.11060,0.21340
3288.03906,0.21431
3289.96753,0.21627
3291.89600,0.21828
3293.82447,0.21886
3295.75294,0.21873
3297.68141,0.21696
3299.60988,0.21343
3301.53834,0.21195
3303.46681,0.21312
3305.39528,0.21424
3307.32375,0.21488
3309.25222,0.21659
3311.18069,0.21931
3313.10916,0.21951
3315.03763,0.21656
3316.96609,0.21640
3318.89456,0.22055
3320.82303,0.22300
3322.75150,0.22145
3324.67997,0.22022
3326.60844,0.22141
3328.53691,0.22364
3330.46537,0.22539
3332.39384,0.22405
3334.32231,0.22253
3336.25078,0.22327
3338.17925,0.22156
3340.10772,0.21888
3342.03619,0.21906
3343.96466,0.21951
3345.89312,0.21961
3347.82159,0.22141
3349.75006,0.22328
3351.67853,0.22312
3353.60700,0.22228
3355.53547,0.22121
3357.46394,0.21989
3359.39240,0.22098
3361.32087,0.22451
3363.24934,0.22668
3365.17781,0.22645
3367.10628,0.22630
3369.03475,0.22680
3370.96322,0.22673
3372.89168,0.22775
3374.82015,0.23087
3376.74862,0.23262
3378.67709,0.23089
3380.60556,0.22780
3382.53403,0.22624
3384.46250,0.22494
3386.39097,0.22119
3388.31943,0.21709
3390.24790,0.21716
3392.17637,0.22096
3394.10484,0.22339
3396.03331,0.22339
3397.96178,0.22142
3399.89025,0.21963
3401.81871,0.22240
3403.74718,0.22500
3405.67565,0.22256
3407.60412,0.21906
3409.53259,0.21714
3411.46106,0.21662
3413.38953,0.21743
3415.31800,0.21743
3417.24646,0.21702
3419.17493,0.22000
3421.10340,0.22238
3423.03187,0.21940
3424.96034,0.21504
3426.88881,0.21159
3428.81728,0.21005
3430.74574,0.21123
3432.67421,0.21098
3434.60268,0.20743
3436.53115,0.20471
3438.45962,0.20617
3440.38809,0.21025
3442.31656,0.21286
3444.24503,0.21567
3446.17349,0.22019
3448.10196,0.21871
3450.03043,0.21250
3451.95890,0.20933
3453.88737,0.20699
3455.81584,0.20598
3457.74431,0.20879
3459.67277,0.21105
3461.60124,0.21046
3463.52971,0.20762
3465.45818,0.20368
3467.38665,0.20298
3469.31512,0.20515
3471.24359,0.20574
3473.17206,0.20602
3475.10052,0.20735
3477.02899,0.20799
3478.95746,0.20805
3480.88593,0.20726
3482.81440,0.20440
3484.74287,0.20314
3486.67134,0.20584
3488.59980,0.20551
3490.52827,0.19966
3492.45674,0.19474
3494.38521,0.19283
3496.31368,0.19101
3498.24215,0.18852
3500.17062,0.18983
3502.09909,0.19472
3504.02755,0.19492
3505.95602,0.19183
3507.88449,0.19333
3509.81296,0.19533
3511.74143,0.19063
3513.66990,0.18392
3515.59837,0.18205
3517.52683,0.18403
3519.45530,0.18684
3521.38377,0.19047
3523.31224,0.19451
3525.24071,0.19750
3527.16918,0.19727
3529.09765,0.19132
3531.02611,0.18340
3532.95458,0.18001
3534.88305,0.18083
3536.81152,0.18113
3538.73999,0.18007
3540.66846,0.18023
3542.59693,0.18377
3544.52540,0.18987
3546.45386,0.19168
3548.38233,0.18856
3550.31080,0.18725
3552.23927,0.18675
3554.16774,0.18366
3556.09621,0.17927
3558.02468,0.17677
3559.95314,0.17863
3561.88161,0.18268
3563.81008,0.18818
3565.73855,0.19755
3567.66702,0.19911
3569.59549,0.18620
3571.52396,0.17551
3573.45243,0.17212
3575.38089,0.17134
3577.30936,0.16983
3579.23783,0.16861
3581.16630,0.16769
3583.09477,0.16886
3585.02324,0.17954
3586.95171,0.19459
3588.88017,0.19061
3590.80864,0.17658
3592.73711,0.17148
3594.66558,0.17312
3596.59405,0.17338
3598.52252,0.17069
3600.45099,0.16831
3602.37946,0.16798
3604.30792,0.16946
3606.23639,0.17435
3608.16486,0.17967
3610.09333,0.17976
3612.02180,0.17858
3613.95027,0.17714
3615.87874,0.17807
3617.80720,0.18524
3619.73567,0.18383
3621.66414,0.16820
3623.59261,0.15841
3625.52108,0.16290
3627.44955,0.18147
3629.37802,0.19384
3631.30649,0.18221
3633.23495,0.17036
3635.16342,0.16211
3637.09189,0.15514
3639.02036,0.15040
3640.94883,0.14691
3642.87730,0.14779
3644.80577,0.16002
3646.73423,0.18809
3648.66270,0.21799
3650.59117,0.20273
3652.51964,0.16965
3654.44811,0.15647
3656.37658,0.15476
3658.30505,0.14983
3660.23352,0.14359
3662.16198,0.13968
3664.09045,0.14042
3666.01892,0.14878
3667.94739,0.16443
3669.87586,0.17812
3671.80433,0.17897
3673.73280,0.18378
3675.66126,0.18973
3677.58973,0.17511
3679.51820,0.15623
3681.44667,0.14396
3683.37514,0.14052
3685.30361,0.14659
3687.23208,0.16088
3689.16055,0.17431
3691.08901,0.16832
3693.01748,0.15137
3694.94595,0.13912
3696.87442,0.13475
3698.80289,0.13794
3700.73136,0.14437
3702.65983,0.14496
3704.58829,0.14198
3706.51676,0.14381
3708.44523,0.15084
3710.37370,0.16006
3712.30217,0.15930
3714.23064,0.14722
3716.15911,0.13821
3718.08757,0.13598
3720.01604,0.14065
3721.94451,0.15208
3723.87298,0.16227
3725.80145,0.16064
3727.72992,0.15142
3729.65839,0.14855
3731.58686,0.15703
3733.51532,0.17347
3735.44379,0.18508
3737.37226,0.17711
3739.30073,0.16361
3741.22920,0.16076
3743.15767,0.16907
3745.08614,0.17666
3747.01460,0.17766
3748.94307,0.18552
3750.87154,0.19131
3752.80001,0.17448
3754.72848,0.15952
3756.65695,0.15904
3758.58542,0.16128
3760.51389,0.15271
3762.44235,0.14322
3764.37082,0.14206
3766.29929,0.14467
3768.22776,0.14662
3770.15623,0.14484
3772.08470,0.13763
3774.01317,0.13355
3775.94163,0.13729
3777.87010,0.14489
3779.79857,0.14632
3781.72704,0.14057
3783.65551,0.13768
3785.58398,0.13523
3787.51245,0.13075
3789.44092,0.12933
3791.36938,0.12862
3793.29785,0.12854
3795.22632,0.13406
3797.15479,0.14102
3799.08326,0.14623
3801.01173,0.15203
3802.94020,0.14935
3804.86866,0.14567
3806.79713,0.14662
3808.72560,0.14029
3810.65407,0.13072
3812.58254,0.12854
3814.51101,0.13744
3816.43948,0.15171
3818.36795,0.16021
3820.29641,0.16384
3822.22488,0.15670
3824.15335,0.14820
3826.08182,0.14652
3828.01029,0.14430
3829.93876,0.14144
3831.86723,0.14398
3833.79569,0.15108
3835.72416,0.15812
3837.65263,0.16417
3839.58110,0.16421
3841.50957,0.15744
3843.43804,0.14850
3845.36651,0.13895
3847.29498,0.13582
3849.22344,0.14489
3851.15191,0.16516
3853.08038,0.18236
3855.00885,0.16509
3856.93732,0.14367
3858.86579,0.13595
3860.79426,0.13931
3862.72272,0.15185
3864.65119,0.16187
3866.57966,0.16009
3868.50813,0.15612
3870.43660,0.15193
3872.36507,0.14590
3874.29354,0.13925
3876.22200,0.13304
3878.15047,0.13353
3880.07894,0.13738
3882.00741,0.13659
3883.93588,0.13699
3885.86435,0.13685
3887.79282,0.13255
3889.72129,0.13304
3891.64975,0.13780
3893.57822,0.13505
3895.50669,0.12925
3897.43516,0.13093
3899.36363,0.13811
3901.29210,0.14368
3903.22057,0.14353
3905.14903,0.13207
3907.07750,0.11842
3909.00597,0.11397
3910.93444,0.11558
3912.86291,0.11688
3914.79138,0.11755
3916.71985,0.11897
3918.64832,0.12148
3920.57678,0.12688
3922.50525,0.13225
3924.43372,0.12976
3926.36219,0.12293
3928.29066,0.12236
3930.21913,0.12435
3932.14760,0.12181
3934.07606,0.11753
3936.00453,0.11521
3937.93300,0.11327
3939.86147,0.11178
3941.78994,0.11425
3943.71841,0.11856
3945.64688,0.12042
3947.57535,0.11987
3949.50381,0.11666
3951.43228,0.11460
3953.36075,0.11537
3955.28922,0.11547
3957.21769,0.11438
3959.14616,0.11297
3961.07463,0.11075
3963.00309,0.10903
3964.93156,0.10939
3966.86003,0.10969
3968.78850,0.10976
3970.71697,0.11154
3972.64544,0.11293
3974.57391,0.11126
3976.50238,0.10734
3978.43084,0.10448
3980.35931,0.10324
3982.28778,0.10316
3984.21625,0.10513
3986.14472,0.10669
3988.07319,0.10635
3990.00166,0.10711
3991.93012,0.11012
3993.85859,0.11250
3995.78706,0.11268
3997.71553,0.11309
3999.64400,0.11455
4001.57247,0.11227
4003.50094,0.10392
4005.42941,0.09643
4007.35787,0.09629
4009.28634,0.10151
4011.21481,0.10562
4013.14328,0.10481
4015.07175,0.10062
4017.00022,0.09688
4018.92869,0.09695
4020.85715,0.10079
4022.78562,0.10620
4024.71409,0.11132
4026.64256,0.11259
4028.57103,0.10915
4030.49950,0.10403
4032.42797,0.10133
4034.35644,0.10254
4036.28490,0.10259
4038.21337,0.09946
4040.14184,0.09637
4042.07031,0.09544
4043.99878,0.09764
4045.92725,0.10104
4047.85572,0.10254
4049.78418,0.10131
4051.71265,0.10005
4053.64112,0.10003
4055.56959,0.10040
4057.49806,0.10209
4059.42653,0.10349
4061.35500,0.10219
4063.28346,0.09917
4065.21193,0.09583
4067.14040,0.09106
4069.06887,0.08653
4070.99734,0.08770
4072.92581,0.09259
4074.85428,0.09517
4076.78275,0.09473
4078.71121,0.09353
4080.63968,0.09403
4082.56815,0.09619
4084.49662,0.09688
4086.42509,0.09505
4088.35356,0.09227
4090.28203,0.09010
4092.21049,0.09088
4094.13896,0.09372
4096.06743,0.09406
4097.99590,0.09190
4099.92437,0.09091
4101.85284,0.09014
4103.78131,0.08761
4105.70978,0.08776
4107.63824,0.09268
4109.56671,0.09544
4111.49518,0.09124
4113.42365,0.08669
4115.35212,0.08846
4117.28059,0.09211
4119.20906,0.09257
4121.13752,0.09001
4123.06599,0.08601
4124.99446,0.08390
4126.92293,0.08653
4128.85140,0.09129
4130.77987,0.09300
4132.70834,0.09006
4134.63681,0.08402
4136.56527,0.07876
4138.49374,0.07687
4140.42221,0.07749
4142.35068,0.07995
4144.27915,0.08418
4146.20762,0.08839
4148.13609,0.08887
4150.06455,0.08705
4151.99302,0.08674
4153.92149,0.08495
4155.84996,0.08122
4157.77843,0.08162
4159.70690,0.08456
4161.63537,0.08403
4163.56384,0.08095
4165.49230,0.07844
4167.42077,0.07881
4169.34924,0.08229
4171.27771,0.08451
4173.20618,0.08157
4175.13465,0.07794
4177.06312,0.07924
4178.99158,0.08020
4180.92005,0.07746
4182.84852,0.07450
4184.77699,0.07197
4186.70546,0.07076
4188.63393,0.07165
4190.56240,0.07397
4192.49087,0.07680
4194.41933,0.07631
4196.34780,0.07251
4198.27627,0.07220
4200.20474,0.07547
4202.13321,0.07647
4204.06168,0.07566
4205.99015,0.07643
4207.91861,0.07941
4209.84708,0.08079
4211.77555,0.07696
4213.70402,0.07212
4215.63249,0.07263
4217.56096,0.07574
4219.48943,0.07525
4221.41789,0.07245
4223.34636,0.07021
4225.27483,0.06977
4227.20330,0.07225
4229.13177,0.07256
4231.06024,0.06672
4232.98871,0.06051
4234.91718,0.05810
4236.84564,0.05812
4238.77411,0.05981
4240.70258,0.06312
4242.63105,0.06693
4244.55952,0.06826
4246.48799,0.06725
4248.41646,0.06724
4250.34492,0.06820
4252.27339,0.06684
4254.20186,0.06249
4256.13033,0.05865
4258.05880,0.05757
4259.98727,0.06066
4261.91574,0.06502
4263.84421,0.06537
4265.77267,0.06521
4267.70114,0.06706
4269.62961,0.06676
4271.55808,0.06394
4273.48655,0.06092
4275.41502,0.05698
4277.34349,0.05399
4279.27195,0.05502
4281.20042,0.05378
4283.12889,0.04798
4285.05736,0.04585
4286.98583,0.04807
4288.91430,0.05002
4290.84277,0.05149
4292.77124,0.05134
4294.69970,0.04821
4296.62817,0.04788
4298.55664,0.05199
4300.48511,0.05314
4302.41358,0.05296
4304.34205,0.05485
4306.27052,0.05220
4308.19898,0.04716
4310.12745,0.04633
4312.05592,0.04641
4313.98439,0.04798
4315.91286,0.05219
4317.84133,0.05604
4319.76980,0.05910
4321.69827,0.05773
4323.62673,0.05329
4325.55520,0.05225
4327.48367,0.05215
4329.41214,0.04869
4331.34061,0.04494
4333.26908,0.04439
4335.19755,0.04509
4337.12601,0.04708
4339.05448,0.05197
4340.98295,0.05469
4342.91142,0.05022
4344.83989,0.04448
4346.76836,0.04584
4348.69683,0.05141
4350.62530,0.05417
4352.55376,0.05148
4354.48223,0.04551
4356.41070,0.04203
4358.33917,0.04258
4360.26764,0.04341
4362.19611,0.04252
4364.12458,0.04035
4366.05304,0.03847
4367.98151,0.03646
4369.90998,0.03256
4371.83845,0.03064
4373.76692,0.03405
4375.69539,0.03816
4377.62386,0.03883
4379.55232,0.03618
4381.48079,0.03272
4383.40926,0.03302
4385.33773,0.03543
4387.26620,0.03478
4389.19467,0.03281
4391.12314,0.03248
4393.05161,0.03458
4394.98007,0.03927
4396.90854,0.04025
4398.83701,0.03335
4400.76548,0.02625
4402.69395,0.02450
4404.62242,0.02495
4406.55089,0.02352
4408.47935,0.02128
4410.40782,0.02333
4412.33629,0.02746
4414.26476,0.02898
4416.19323,0.02888
4418.12170,0.02644
4420.05017,0.02082
4421.97864,0.01668
4423.90710,0.01908
4425.83557,0.02507
4427.76404,0.02842
4429.69251,0.02860
4431.62098,0.02695
4433.54945,0.02504
4435.47792,0.02523
4437.40638,0.02595
4439.33485,0.02513
4441.26332,0.02373
4443.19179,0.02233
4445.12026,0.02228
4447.04873,0.02313
4448.97720,0.02211
4450.90567,0.02125
4452.83413,0.02304
4454.76260,0.02421
4456.69107,0.02264
4458.61954,0.02049
4460.54801,0.01889
4462.47648,0.01847
4464.40495,0.02001
4466.33341,0.02348
4468.26188,0.02764
4470.19035,0.02813
4472.11882,0.02327
4474.04729,0.01734
4475.97576,0.01497
4477.90423,0.01669
4479.83270,0.01937
4481.76116,0.01944
4483.68963,0.01691
4485.61810,0.01529
4487.54657,0.01551
4489.47504,0.01617
4491.40351,0.01522
4493.33198,0.01197
4495.26044,0.00923
4497.18891,0.00728
4499.11738,0.00586
4501.04585,0.00758
4502.97432,0.01066
4504.90279,0.01197
4506.83126,0.01097
4508.75973,0.00510
4510.68819,-0.00050
4512.61666,0.00262
4514.54513,0.00840
4516.47360,0.00884
4518.40207,0.00562
4520.33054,0.00116
4522.25901,-0.00198
4524.18747,-0.00018
4526.11594,0.00421
4528.04441,0.00898
4529.97288,0.01602
4531.90135,0.01998
4533.82982,0.01648
4535.75829,0.01012
4537.68676,0.00538
4539.61522,0.00398
4541.54369,0.00510
4543.47216,0.00745
4545.40063,0.01182
4547.32910,0.01604
4549.25757,0.01424
4551.18604,0.00963
4553.11450,0.01056
4555.04297,0.01492
4556.97144,0.01647
4558.89991,0.01579
4560.82838,0.01666
4562.75685,0.01600
4564.68532,0.00901
4566.61378,0.00256
4568.54225,0.00591
4570.47072,0.01328
4572.39919,0.01258
4574.32766,0.00369
4576.25613,-0.00501
4578.18460,-0.00415
4580.11307,0.00673
4582.04153,0.01307
4583.97000,0.00832
4585.89847,0.00188
4587.82694,-0.00083
4589.75541,0.00023
4591.68388,0.00606
4593.61235,0.01152
4595.54081,0.01264
4597.46928,0.01319
4599.39775,0.01179
4601.32622,0.00597
4603.25469,0.00126
4605.18316,0.00301
4607.11163,0.00755
4609.04010,0.01111
4610.96856,0.01464
4612.89703,0.01262
4614.82550,0.00434
4616.75397,0.00248
4618.68244,0.00748
4620.61091,0.00755
4622.53938,0.00396
4624.46784,0.00372
4626.39631,0.00492
4628.32478,0.00318
4630.25325,-0.00139
4632.18172,-0.00437
4634.11019,-0.00490
4636.03866,-0.00820
4637.96713,-0.01030
4639.89559,-0.00476
4641.82406,0.00220
4643.75253,0.00569
4645.68100,0.00808
4647.60947,0.00892
4649.53794,0.00800
4651.46641,0.00732
4653.39487,0.00541
4655.32334,0.00227
4657.25181,-0.00043
4659.18028,-0.00250
4661.10875,0.00013
4663.03722,0.00355
4664.96569,-0.00059
4666.89416,-0.00506
4668.82262,-0.00255
4670.75109,0.00151
4672.67956,0.00387
4674.60803,0.00479
4676.53650,0.00153
4678.46497,-0.00445
4680.39344,-0.00670
4682.32190,-0.00556
4684.25037,-0.00310
4686.17884,0.00639
4688.10731,0.01981
4690.03578,0.02234
4691.96425,0.01349
4693.89272,0.00737
4695.82119,0.00827
4697.74965,0.00669
4699.67812,0.00214
4701.60659,0.00226
4703.53506,0.00299
4705.46353,0.00221
4707.39200,0.00823
4709.32047,0.01704
4711.24893,0.01669
4713.17740,0.00945
4715.10587,0.00301
4717.03434,0.00178
4718.96281,0.00717
4720.89128,0.00812
4722.81975,-0.00053
4724.74821,-0.00267
4726.67668,0.00497
4728.60515,0.01212
4730.53362,0.01852
4732.46209,0.01832
4734.39056,0.00898
4736.31903,0.00204
4738.24750,0.00012
4740.17596,-0.00039
4742.10443,-0.00133
4744.03290,-0.00611
4745.96137,-0.01257
4747.88984,-0.01341
4749.81831,-0.00767
4751.74678,0.00104
4753.67524,0.00707
4755.60371,0.00439
4757.53218,0.00119
4759.46065,0.00724
4761.38912,0.01359
4763.31759,0.01042
4765.24606,0.00386
4767.17453,-0.00037
4769.10299,-0.00132
4771.03146,0.00417
4772.95993,0.00952
4774.88840,0.00854
4776.81687,0.00724
4778.74534,0.00726
4780.67381,0.00626
4782.60227,0.00886
4784.53074,0.01566
4786.45921,0.01814
4788.38768,0.01273
4790.31615,0.00215
4792.24462,-0.00758
4794.17309,-0.00894
4796.10156,-0.00287
4798.03002,0.00050
4799.95849,-0.00007
4801.88696,0.00338
4803.81543,0.00767
4805.74390,0.00875
4807.67237,0.01224
4809.60084,0.01605
4811.52930,0.01695
4813.45777,0.01829
4815.38624,0.01841
4817.31471,0.01244
4819.24318,0.00381
4821.17165,0.00333
4823.10012,0.00861
4825.02859,0.00592
4826.95705,-0.00086
4828.88552,0.00222
4830.81399,0.01136
4832.74246,0.01363
4834.67093,0.00733
4836.59940,0.00399
4838.52787,0.00931
4840.45633,0.01314
4842.38480,0.00816
4844.31327,0.00337
4846.24174,0.00363
4848.17021,0.00030
4850.09868,-0.00355
4852.02715,-0.00088
4853.95562,0.00263
4855.88408,0.00496
4857.81255,0.00901
4859.74102,0.01129
4861.66949,0.00709
4863.59796,0.00162
4865.52643,-0.00094
4867.45490,-0.00209
4869.38336,-0.00078
4871.31183,-0.00094
4873.24030,-0.00195
4875.16877,0.00288
4877.09724,0.00846
4879.02571,0.00876
4880.95418,0.00550
4882.88265,-0.00148
4884.81111,-0.01097
4886.73958,-0.01514
4888.66805,-0.01023
4890.59652,-0.00220
4892.52499,0.00316
4894.45346,0.00546
4896.38193,0.00682
4898.31039,0.00997
4900.23886,0.01307
4902.16733,0.01097
4904.09580,0.00738
4906.02427,0.00794
4907.95274,0.00672
4909.88121,0.00231
4911.80967,-0.00006
4913.73814,-0.00274
4915.66661,-0.00465
4917.59508,-0.00605
4919.52355,-0.01056
4921.45202,-0.00783
4923.38049,0.00159
4925.30896,0.00675
4927.23742,0.01218
4929.16589,0.01442
4931.09436,0.00711
4933.02283,-0.00058
4934.95130,-0.00584
4936.87977,-0.01292
4938.80824,-0.01465
4940.73670,-0.00273
4942.66517,0.01181
4944.59364,0.01480
4946.52211,0.01255
4948.45058,0.01304
4950.37905,0.01275
4952.30752,0.01065
4954.23599,0.00921
4956.16445,0.01191
4958.09292,0.01688
4960.02139,0.01498
4961.94986,0.01167
4963.87833,0.01798
4965.80680,0.02370
4967.73527,0.01608
4969.66373,-0.00161
4971.59220,-0.01310
4973.52067,-0.00529
4975.44914,0.00976
4977.37761,0.01670
4979.30608,0.01985
4981.23455,0.02135
4983.16302,0.01227
4985.09148,-0.00266
4987.01995,-0.00561
4988.94842,0.00686
4990.87689,0.02300
4992.80536,0.02779
4994.73383,0.01924
4996.66230,0.01459
4998.59076,0.01709
5000.51923,0.01778
5002.44770,0.01672
5004.37617,0.01443
5006.30464,0.01161
5008.23311,0.00883
5010.16158,0.00930
5012.09005,0.01638
5014.01851,0.02381
5015.94698,0.02241
5017.87545,0.01324
5019.80392,0.01032
5021.73239,0.01770
5023.66086,0.01971
5025.58933,0.00928
5027.51779,0.00310
5029.44626,0.00949
5031.37473,0.01493
5033.30320,0.01371
5035.23167,0.00742
5037.16014,-0.00123
5039.08861,-0.00193
5041.01708,0.00993
5042.94554,0.02953
5044.87401,0.04949
5046.80248,0.05574
5048.73095,0.03925
5050.65942,0.02075
5052.58789,0.02045
5054.51636,0.02184
5056.44482,0.01710
5058.37329,0.02232
5060.30176,0.02785
5062.23023,0.01737
5064.15870,0.01120
5066.08717,0.02134
5068.01564,0.02822
5069.94410,0.02433
5071.87257,0.01967
5073.80104,0.01702
5075.72951,0.01246
5077.65798,0.01118
5079.58645,0.01809
5081.51492,0.02641
5083.44339,0.03260
5085.37185,0.03487
5087.30032,0.02818
5089.22879,0.02030
5091.15726,0.02261
5093.08573,0.02755
5095.01420,0.02671
5096.94267,0.02288
5098.87113,0.01661
5100.79960,0.01169
5102.72807,0.01422
5104.65654,0.02134
5106.58501,0.02531
5108.51348,0.02441
5110.44195,0.02642
5112.37042,0.03312
5114.29888,0.03488
5116.22735,0.02539
5118.15582,0.00844
5120.08429,-0.00685
5122.01276,-0.01132
5123.94123,-0.00057
5125.86970,0.00964
5127.79816,0.00530
5129.72663,0.00288
5131.65510,0.00646
5133.58357,0.00576
5135.51204,0.00576
5137.44051,0.00715
5139.36898,0.00790
5141.29745,0.00915
5143.22591,0.00735
5145.15438,0.00471
5147.08285,0.00467
5149.01132,0.00886
5150.93979,0.01833
5152.86826,0.02456
5154.79673,0.02301
5156.72519,0.02066
5158.65366,0.02521
5160.58213,0.03279
5162.51060,0.03589
5164.43907,0.04048
5166.36754,0.04202
5168.29601,0.03104
5170.22448,0.02438
5172.15294,0.02960
5174.08141,0.03022
5176.00988,0.02747
5177.93835,0.03398
5179.86682,0.04191
5181.79529,0.03479
5183.72376,0.01653
5185.65222,0.00840
5187.58069,0.01617
5189.50916,0.02531
5191.43763,0.03347
5193.36610,0.04355
5195.29457,0.04925
5197.22304,0.04714
5199.15151,0.03889
5201.07997,0.03176
5203.00844,0.03377
5204.93691,0.04059
5206.86538,0.03929
5208.79385,0.03367
5210.72232,0.04036
5212.65079,0.05149
5214.57925,0.05390
5216.50772,0.05290
5218.43619,0.05132
5220.36466,0.05312
5222.29313,0.06297
5224.22160,0.06971
5226.15007,0.06335
5228.07854,0.05230
5230.00700,0.04974
5231.93547,0.05481
5233.86394,0.05531
5235.79241,0.04251
5237.72088,0.02868
5239.64935,0.03599
5241.57782,0.05852
5243.50628,0.06376
5245.43475,0.04485
5247.36322,0.03268
5249.29169,0.03544
5251.22016,0.04031
5253.14863,0.04281
5255.07710,0.04115
5257.00556,0.03643
5258.93403,0.03257
5260.86250,0.03702
5262.79097,0.04670
5264.71944,0.05010
5266.64791,0.04694
5268.57638,0.04227
5270.50485,0.03980
5272.43331,0.04003
5274.36178,0.04476
5276.29025,0.05061
5278.21872,0.04658
5280.14719,0.03416
5282.07566,0.02438
5284.00413,0.02088
5285.93259,0.02617
5287.86106,0.03809
5289.78953,0.04359
5291.71800,0.04350
5293.64647,0.04465
5295.57494,0.03818
5297.50341,0.03166
5299.43188,0.03681
5301.36034,0.04493
5303.28881,0.05589
5305.21728,0.07058
5307.14575,0.07692
5309.07422,0.07214
5311.00269,0.06101
5312.93116,0.05137
5314.85962,0.05785
5316.78809,0.06852
5318.71656,0.05993
5320.64503,0.04645
5322.57350,0.03941
5324.50197,0.03642
5326.43044,0.03959
5328.35891,0.03591
5330.28737,0.03065
5332.21584,0.04631
5334.14431,0.06934
5336.07278,0.07267
5338.00125,0.05840
5339.92972,0.04903
5341.85819,0.05901
5343.78665,0.07567
5345.71512,0.08061
5347.64359,0.08303
5349.57206,0.08108
5351.50053,0.06304
5353.42900,0.05072
5355.35747,0.05723
5357.28594,0.05310
5359.21440,0.03969
5361.14287,0.03971
5363.07134,0.04134
5364.99981,0.03572
5366.92828,0.03387
5368.85675,0.03504
5370.78522,0.04021
5372.71368,0.04705
5374.64215,0.05265
5376.57062,0.06448
5378.49909,0.07223
5380.42756,0.06794
5382.35603,0.06413
5384.28450,0.06505
5386.21297,0.06563
5388.14143,0.05876
5390.06990,0.04748
5391.99837,0.04468
5393.92684,0.05373
5395.85531,0.07173
5397.78378,0.08639
5399.71225,0.08176
5401.64071,0.06877
5403.56918,0.06815
5405.49765,0.07645
5407.42612,0.07666
5409.35459,0.06247
5411.28306,0.04964
5413.21153,0.05858
5415.13999,0.07033
5417.06846,0.06379
5418.99693,0.05445
5420.92540,0.05316
5422.85387,0.05010
5424.78234,0.04300
5426.71081,0.04069
5428.63928,0.04568
5430.56774,0.06376
5432.49621,0.08838
5434.42468,0.09931
5436.35315,0.09277
5438.28162,0.08007
5440.21009,0.07129
5442.13856,0.06895
5444.06702,0.06965
5445.99549,0.07579
5447.92396,0.08132
5449.85243,0.06889
5451.78090,0.04948
5453.70937,0.05363
5455.63784,0.07052
5457.56631,0.06162
5459.49477,0.03632
5461.42324,0.02015
5463.35171,0.01357
5465.28018,0.02957
5467.20865,0.06341
5469.13712,0.07309
5471.06559,0.05596
5472.99405,0.05531
5474.92252,0.07849
5476.85099,0.08811
5478.77946,0.07180
5480.70793,0.05383
5482.63640,0.04630
5484.56487,0.05078
5486.49334,0.06225
5488.42180,0.06474
5490.35027,0.06675
5492.27874,0.08212
5494.20721,0.08995
5496.13568,0.08587
5498.06415,0.07872
5499.99262,0.06855
5501.92108,0.05868
5503.84955,0.05229
5505.77802,0.05808
5507.70649,0.07131
5509.63496,0.07836
5511.56343,0.07942
5513.49190,0.07428
5515.42037,0.07004
5517.34883,0.07401
5519.27730,0.07860
5521.20577,0.07909
5523.13424,0.07730
5525.06271,0.07151
5526.99118,0.06536
5528.91965,0.06449
5530.84811,0.06403
5532.77658,0.05937
5534.70505,0.05656
5536.63352,0.06164
5538.56199,0.06092
5540.49046,0.04820
5542.41893,0.04544
5544.34740,0.05401
5546.27586,0.05161
5548.20433,0.04096
5550.13280,0.04250
5552.06127,0.04968
5553.98974,0.04453
5555.91821,0.04052
5557.84668,0.05822
5559.77514,0.08483
5561.70361,0.09635
5563.63208,0.09804
5565.56055,0.10678
5567.48902,0.10639
5569.41749,0.08655
5571.34596,0.07871
5573.27443,0.09525
5575.20289,0.10400
5577.13136,0.08859
5579.05983,0.06756
5580.98830,0.05622
5582.91677,0.05436
5584.84524,0.05571
5586.77371,0.05393
5588.70217,0.05423
5590.63064,0.06973
5592.55911,0.08975
5594.48758,0.09581
5596.41605,0.08925
5598.34452,0.08267
5600.27299,0.08863
5602.20145,0.09897
5604.12992,0.09597
5606.05839,0.08429
5607.98686,0.07893
5609.91533,0.08946
5611.84380,0.10573
5613.77227,0.10748
5615.70074,0.09088
5617.62920,0.06158
5619.55767,0.04897
5621.48614,0.07014
5623.41461,0.09033
5625.34308,0.08503
5627.27155,0.06366
5629.20002,0.04929
5631.12848,0.05566
5633.05695,0.07208
5634.98542,0.08923
5636.91389,0.10335
5638.84236,0.10623
5640.77083,0.09929
5642.69930,0.08224
5644.62777,0.06231
5646.55623,0.06166
5648.48470,0.06794
5650.41317,0.06255
5652.34164,0.05882
5654.27011,0.06577
5656.19858,0.07130
5658.12705,0.06081
5660.05551,0.05174
5661.98398,0.06033
5663.91245,0.06509
5665.84092,0.06406
5667.76939,0.07806
5669.69786,0.08328
5671.62633,0.05443
5673.55480,0.03422
5675.48326,0.04938
5677.41173,0.06668
5679.34020,0.07215
5681.26867,0.07820
5683.19714,0.07943
5685.12561,0.07439
5687.05408,0.07435
5688.98254,0.07953
5690.91101,0.07580
5692.83948,0.05897
5694.76795,0.05005
5696.69642,0.05871
5698.62489,0.07211
5700.55336,0.08041
5702.48183,0.07676
5704.41029,0.05873
5706.33876,0.03725
5708.26723,0.03680
5710.19570,0.06030
5712.12417,0.08261
5714.05264,0.09055
5715.98111,0.09033
5717.90957,0.09062
5719.83804,0.08770
5721.76651,0.08188
5723.69498,0.08694
5725.62345,0.09407
5727.55192,0.07995
5729.48039,0.05676
5731.40886,0.05590
5733.33732,0.07704
5735.26579,0.09966
5737.19426,0.10627
5739.12273,0.09786
5741.05120,0.09239
5742.97967,0.09078
5744.90814,0.07401
5746.83660,0.04998
5748.76507,0.04469
5750.69354,0.06148
5752.62201,0.07979
5754.55048,0.08264
5756.47895,0.08573
5758.40742,0.10064
5760.33588,0.11096
5762.26435,0.10723
5764.19282,0.09264
5766.12129,0.07716
5768.04976,0.07333
5769.97823,0.07538
5771.90670,0.07128
5773.83517,0.07541
5775.76363,0.09775
5777.69210,0.10289
5779.62057,0.07956
5781.54904,0.07541
5783.47751,0.09522
5785.40598,0.09516
5787.33445,0.06573
5789.26291,0.03985
5791.19138,0.05644
5793.11985,0.11025
5795.04832,0.14783
5796.97679,0.13649
5798.90526,0.10796
5800.83373,0.09937
5802.76220,0.09678
5804.69066,0.09061
5806.61913,0.09604
5808.54760,0.10451
5810.47607,0.09717
5812.40454,0.08006
5814.33301,0.07430
5816.26148,0.07748
5818.18994,0.08402
5820.11841,0.09253
5822.04688,0.09744
5823.97535,0.10946
5825.90382,0.11403
5827.83229,0.09264
5829.76076,0.07060
5831.68923,0.06738
5833.61769,0.07069
5835.54616,0.06664
5837.47463,0.05722
5839.40310,0.05865
5841.33157,0.07931
5843.26004,0.10488
5845.18851,0.11532
5847.11697,0.10867
5849.04544,0.09217
5850.97391,0.06671
5852.90238,0.04327
5854.83085,0.03601
5856.75932,0.04929
5858.68779,0.07682
5860.61626,0.08925
5862.54472,0.07444
5864.47319,0.05565
5866.40166,0.04772
5868.33013,0.05254
5870.25860,0.05600
5872.18707,0.04684
5874.11554,0.05314
5876.04400,0.09256
5877.97247,0.11535
5879.90094,0.09195
5881.82941,0.07236
5883.75788,0.08731
5885.68635,0.11333
5887.61482,0.13117
5889.54329,0.13458
5891.47175,0.12207
5893.40022,0.10322
5895.32869,0.09581
5897.25716,0.09989
5899.18563,0.09349
5901.11410,0.08823
5903.04257,0.10535
5904.97103,0.11879
5906.89950,0.11305
5908.82797,0.11168
5910.75644,0.12580
5912.68491,0.13154
5914.61338,0.12316
5916.54185,0.11955
5918.47032,0.11246
5920.39878,0.08900
5922.32725,0.07480
5924.25572,0.08897
5926.18419,0.09660
5928.11266,0.07505
5930.04113,0.05046
5931.96960,0.03767
5933.89806,0.03683
5935.82653,0.05560
5937.75500,0.08367
5939.68347,0.09156
5941.61194,0.06904
5943.54041,0.03478
5945.46888,0.01316
5947.39734,0.00903
5949.32581,0.02077
5951.25428,0.05230
5953.18275,0.08720
5955.11122,0.10692
5957.03969,0.12260
5958.96816,0.13267
5960.89663,0.10839
5962.82509,0.06718
5964.75356,0.04613
5966.68203,0.04931
5968.61050,0.07335
5970.53897,0.10363
5972.46744,0.11989
5974.39591,0.12004
5976.32437,0.11199
5978.25284,0.10407
5980.18131,0.09953
5982.10978,0.08874
5984.03825,0.06658
5985.96672,0.05818
5987.89519,0.08161
5989.82366,0.10503
5991.75212,0.10760
5993.68059,0.09890
5995.60906,0.07463
5997.53753,0.06219
5999.46600,0.08748
6001.39447,0.10917
6003.32294,0.10079
6005.25140,0.09069
6007.17987,0.08811
6009.10834,0.07419
6011.03681,0.05859
6012.96528,0.04597
6014.89375,0.03444
6016.82222,0.04116
6018.75069,0.06237
6020.67915,0.08170
6022.60762,0.09593
6024.53609,0.10978
6026.46456,0.11730
6028.39303,0.10639
6030.32150,0.10238
6032.24997,0.12612
6034.17843,0.15471
6036.10690,0.16593
6038.03537,0.15375
6039.96384,0.12600
6041.89231,0.10435
6043.82078,0.10099
6045.74925,0.11836
6047.67772,0.14575
6049.60618,0.13991
6051.53465,0.08744
6053.46312,0.04373
6055.39159,0.05956
6057.32006,0.09944
6059.24853,0.10163
6061.17700,0.09077
6063.10546,0.09425
6065.03393,0.09146
6066.96240,0.08722
6068.89087,0.08489
6070.81934,0.06766
6072.74781,0.05236
6074.67628,0.05747
6076.60475,0.07642
6078.53321,0.08821
6080.46168,0.06372
6082.39015,0.03546
6084.31862,0.04990
6086.24709,0.08518
6088.17556,0.11436
6090.10403,0.13545
6092.03249,0.13421
6093.96096,0.09586
6095.88943,0.05203
6097.81790,0.06230
6099.74637,0.09482
6101.67484,0.07132
6103.60331,0.03247
6105.53177,0.03550
6107.46024,0.05888
6109.38871,0.08117
6111.31718,0.09302
6113.24565,0.08926
6115.17412,0.07735
6117.10259,0.06301
6119.03106,0.05266
6120.95952,0.05743
6122.88799,0.06065
6124.81646,0.05203
6126.74493,0.07256
6128.67340,0.10781
6130.60187,0.09496
6132.53034,0.07667
6134.45880,0.08441
6136.38727,0.07321
6138.31574,0.05043
6140.24421,0.04870
6142.17268,0.06527
6144.10115,0.09480
6146.02962,0.11691
6147.95809,0.12375
6149.88655,0.12686
6151.81502,0.11868
6153.74349,0.09745
6155.67196,0.08487
6157.60043,0.08715
6159.52890,0.09183
6161.45737,0.10247
6163.38583,0.11504
6165.31430,0.08886
6167.24277,0.02306
6169.17124,-0.01864
6171.09971,-0.00858
6173.02818,0.00919
6174.95665,0.01473
6176.88512,0.02974
6178.81358,0.06262
6180.74205,0.09957
6182.67052,0.11846
6184.59899,0.12322
6186.52746,0.12357
6188.45593,0.10262
6190.38440,0.07723
6192.31286,0.07564
6194.24133,0.05568
6196.16980,0.00766
6198.09827,-0.00933
6200.02674,0.01009
6201.95521,0.03269
6203.88368,0.04171
6205.81215,0.03768
6207.74061,0.04718
6209.66908,0.07341
6211.59755,0.07149
6213.52602,0.03953
6215.45449,0.02558
6217.38296,0.03566
6219.31143,0.03538
6221.23989,0.01430
6223.16836,0.00591
6225.09683,0.02458
6227.02530,0.04110
6228.95377,0.04567
6230.88224,0.02574
6232.81071,-0.00750
6234.73918,-0.00336
6236.66764,0.03771
6238.59611,0.07953
6240.52458,0.08388
6242.45305,0.05734
6244.38152,0.05008
6246.30999,0.06206
6248.23846,0.07091
6250.16692,0.08092
6252.09539,0.07926
6254.02386,0.05361
6255.95233,0.03099
6257.88080,0.03472
6259.80927,0.04863
6261.73774,0.04264
6263.66621,0.01936
6265.59467,0.02701
6267.52314,0.06449
6269.45161,0.07312
6271.38008,0.07069
6273.30855,0.09318
6275.23702,0.10666
6277.16549,0.08414
6279.09395,0.06387
6281.02242,0.06674
6282.95089,0.07452
6284.87936,0.07650
6286.80783,0.07241
6288.73630,0.06533
6290.66477,0.05915
6292.59323,0.04310
6294.52170,0.03095
6296.45017,0.04044
6298.37864,0.04184
6300.30711,0.04463
6302.23558,0.08719
6304.16405,0.11274
6306.09252,0.08561
6308.02098,0.07198
6309.94945,0.10616
6311.87792,0.13226
6313.80639,0.10724
6315.73486,0.07211
6317.66333,0.06640
6319.59180,0.08087
6321.52026,0.10015
6323.44873,0.11054
6325.37720,0.09452
6327.30567,0.05864
6329.23414,0.04625
6331.16261,0.09085
6333.09108,0.14039
6335.01955,0.11792
6336.94801,0.07033
6338.87648,0.05924
6340.80495,0.04988
6342.73342,0.03176
6344.66189,0.01228
6346.59036,0.00384
6348.51883,0.03289
6350.44729,0.06511
6352.37576,0.07367
6354.30423,0.07620
6356.23270,0.08452
6358.16117,0.09044
6360.08964,0.06967
6362.01811,0.04961
6363.94658,0.08401
6365.87504,0.13419
6367.80351,0.12692
6369.73198,0.09707
6371.66045,0.09591
6373.58892,0.11066
6375.51739,0.12248
6377.44586,0.11951
6379.37432,0.09723
6381.30279,0.07302
6383.23126,0.06031
6385.15973,0.05803
6387.08820,0.06919
6389.01667,0.07990
6390.94514,0.06449
6392.87361,0.03867
6394.80207,0.03589
6396.73054,0.05234
6398.65901,0.07473
6400.58748,0.08043
6402.51595,0.06550
6404.44442,0.05026
6406.37289,0.03771
6408.30135,0.05639
6410.22982,0.10878
6412.15829,0.12505
6414.08676,0.07521
6416.01523,0.01732
6417.94370,0.03579
6419.87217,0.09942
6421.80064,0.11066
6423.72910,0.09413
6425.65757,0.08262
6427.58604,0.07046
6429.51451,0.06324
6431.44298,0.03258
6433.37145,-0.03645
6435.29992,-0.07852
6437.22838,-0.04763
6439.15685,0.00032
6441.08532,0.01033
6443.01379,0.01912
6444.94226,0.04903
6446.87073,0.07688
6448.79920,0.09634
6450.72766,0.10857
6452.65613,0.10677
6454.58460,0.08835
6456.51307,0.07623
6458.44154,0.07972
6460.37001,0.05826
6462.29848,0.02302
6464.22695,0.03226
6466.15541,0.06474
6468.08388,0.07291
6470.01235,0.06265
6471.94082,0.04049
6473.86929,0.02420
6475.79776,0.04050
6477.72623,0.06896
6479.65469,0.09537
6481.58316,0.12624
6483.51163,0.14575
6485.44010,0.14230
6487.36857,0.10931
6489.29704,0.05395
6491.22551,0.02096
6493.15398,0.02940
6495.08244,0.02521
6497.01091,-0.01187
6498.93938,-0.02864
6500.86785,0.02395
6502.79632,0.09151
6504.72479,0.09994
6506.65326,0.11316
6508.58172,0.18119
6510.51019,0.21142
6512.43866,0.13493
6514.36713,0.03039
6516.29560,-0.01910
6518.22407,-0.00087
6520.15254,0.04271
6522.08101,0.05733
6524.00947,0.01143
6525.93794,-0.03762
6527.86641,0.00028
6529.79488,0.07171
6531.72335,0.09806
6533.65182,0.09525
6535.58029,0.09585
6537.50875,0.09483
6539.43722,0.07141
6541.36569,0.03909
6543.29416,0.02013
6545.22263,0.02399
6547.15110,0.04805
6549.07957,0.06700
6551.00804,0.07675
6552.93650,0.09128
6554.86497,0.08442
6556.79344,0.04663
6558.72191,0.01117
6560.65038,0.00232
6562.57885,0.01714
6564.50732,0.03915
6566.43578,0.04858
6568.36425,0.03542
6570.29272,0.03195
6572.22119,0.03807
6574.14966,0.01825
6576.07813,0.00624
6578.00660,0.02409
6579.93507,0.04774
6581.86353,0.05409
6583.79200,0.04224
6585.72047,0.04345
6587.64894,0.05300
6589.57741,0.05363
6591.50588,0.05653
6593.43435,0.08183
6595.36281,0.11547
6597.29128,0.13723
6599.21975,0.15146
6601.14822,0.15097
6603.07669,0.13207
6605.00516,0.08364
6606.93363,0.03425
6608.86210,0.02267
6610.79056,0.02546
6612.71903,0.03822
6614.64750,0.07099
6616.57597,0.10879
6618.50444,0.11500
6620.43291,0.09380
6622.36138,0.08213
6624.28984,0.08514
6626.21831,0.09242
6628.14678,0.07576
6630.07525,0.05699
6632.00372,0.06868
6633.93219,0.03851
6635.86066,-0.01393
6637.78912,0.02499
6639.71759,0.10027
6641.64606,0.12907
6643.57453,0.13224
6645.50300,0.14269
6647.43147,0.14995
6649.35994,0.12394
6651.28841,0.07172
6653.21687,0.02675
6655.14534,-0.00025
6657.07381,0.01352
6659.00228,0.07906
6660.93075,0.12946
6662.85922,0.12828
6664.78769,0.10431
6666.71615,0.08256
6668.64462,0.06499
6670.57309,0.05814
6672.50156,0.05938
6674.43003,0.03984
6676.35850,0.03278
6678.28697,0.05854
6680.21544,0.06679
6682.14390,0.05052
6684.07237,0.02929
6686.00084,0.02969
6687.92931,0.05481
6689.85778,0.04674
6691.78625,0.02868
6693.71472,0.03269
6695.64318,0.01945
6697.57165,0.00861
6699.50012,0.03494
6701.42859,0.03607
6703.35706,-0.00149
6705.28553,0.00734
6707.21400,0.05471
6709.14247,0.07636
6711.07093,0.09657
6712.99940,0.09611
6714.92787,0.03650
6716.85634,-0.01199
6718.78481,-0.00040
6720.71328,0.02509
6722.64175,0.03063
6724.57021,0.02951
6726.49868,0.04161
6728.42715,0.05411
6730.35562,0.05377
6732.28409,0.04272
6734.21256,0.01669
6736.14103,-0.00115
6738.06950,0.00380
6739.99796,0.00443
6741.92643,0.01048
6743.85490,0.05450
6745.78337,0.08997
6747.71184,0.04699
6749.64031,-0.03016
6751.56878,-0.01643
6753.49724,0.07237
6755.42571,0.10439
6757.35418,0.04933
6759.28265,-0.03253
6761.21112,-0.06182
6763.13959,-0.00745
6765.06806,0.06746
6766.99653,0.10836
6768.92499,0.13123
6770.85346,0.16330
6772.78193,0.17540
6774.71040,0.14609
6776.63887,0.10190
6778.56734,0.07293
6780.49581,0.04895
6782.42427,0.02114
6784.35274,0.02035
6786.28121,0.07404
6788.20968,0.14607
6790.13815,0.16585
6792.06662,0.11751
6793.99509,0.07888
6795.92355,0.09062
6797.85202,0.11650
6799.78049,0.13099
6801.70896,0.12759
6803.63743,0.07246
6805.56590,0.00529
6807.49437,0.01893
6809.42284,0.07507
6811.35130,0.11024
6813.27977,0.12815
6815.20824,0.10992
6817.13671,0.06586
6819.06518,0.04741
6820.99365,0.04086
6822.92212,0.05051
6824.85058,0.07391
6826.77905,0.06517
6828.70752,0.03621
6830.63599,0.02696
6832.56446,0.04990
6834.49293,0.11097
6836.42140,0.18384
6838.34987,0.19321
6840.27833,0.13582
6842.20680,0.05841
6844.13527,-0.01171
6846.06374,-0.04993
6847.99221,-0.03223
6849.92068,0.01048
6851.84915,0.01570
6853.77761,-0.01739
6855.70608,-0.07802
6857.63455,-0.10264
6859.56302,-0.02378
6861.49149,0.09757
6863.41996,0.15483
6865.34843,0.16688
6867.27690,0.17250
6869.20536,0.13236
6871.13383,0.03440
6873.06230,-0.03020
6874.99077,0.01047
6876.91924,0.06370
6878.84771,0.06550
6880.77618,0.02972
6882.70464,0.01091
6884.63311,0.06534
6886.56158,0.15355
6888.49005,0.18106
6890.41852,0.09337
6892.34699,-0.03848
6894.27546,-0.06027
6896.20393,-0.01520
6898.13239,-0.00091
6900.06086,0.03472
6901.98933,0.07971
6903.91780,0.07109
6905.84627,0.05777
6907.77474,0.06603
6909.70321,0.03539
6911.63167,-0.00490
6913.56014,0.00548
6915.48861,0.05783
6917.41708,0.12912
6919.34555,0.15790
6921.27402,0.10469
6923.20249,0.04144
6925.13096,0.01763
6927.05942,0.02484
6928.98789,0.03900
6930.91636,0.06572
6932.84483,0.08942
6934.77330,0.07075
6936.70177,0.03937
6938.63024,0.00955
6940.55870,-0.00973
6942.48717,0.01139
6944.41564,0.02280
6946.34411,0.00545
6948.27258,0.02561
6950.20105,0.06540
6952.12952,0.03616
6954.05799,-0.05359
6955.98645,-0.07907
6957.91492,0.00380
6959.84339,0.06740
6961.77186,0.06562
6963.70033,0.09203
6965.62880,0.15344
6967.55727,0.17315
6969.48573,0.14078
6971.41420,0.11851
6973.34267,0.10985
6975.27114,0.02989
6977.19961,-0.07050
6979.12808,-0.06021
6981.05655,0.02155
6982.98501,0.07651
6984.91348,0.11114
6986.84195,0.13257
6988.77042,0.08557
6990.69889,0.03618
6992.62736,0.06910
6994.55583,0.12911
6996.48430,0.13712
6998.41276,0.08796
7000.34123,0.03160
7002.26970,0.00932
7004.19817,0.05042
7006.12664,0.07513
7008.05511,-0.02249
7009.98358,-0.09924
7011.91204,-0.03889
7013.84051,0.06421
7015.76898,0.11323
7017.69745,0.13030
7019.62592,0.11897
7021.55439,0.07597
7023.48286,0.04694
7025.41133,0.06074
7027.33979,0.07380
7029.26826,0.04394
7031.19673,0.02253
7033.12520,0.03662
7035.05367,0.02123
7036.98214,-0.01403
7038.91061,-0.00040
7040.83907,0.05209
7042.76754,0.09534
7044.69601,0.13069
7046.62448,0.17773
7048.55295,0.16377
7050.48142,0.09948
7052.40989,0.07750
7054.33836,0.10716
7056.26682,0.14996
7058.19529,0.13798
7060.12376,0.07515
7062.05223,0.06595
7063.98070,0.05386
7065.90917,-0.03012
7067.83764,-0.07450
7069.76610,-0.07263
7071.69457,-0.09113
7073.62304,-0.05764
7075.55151,-0.00093
7077.47998,0.00098
7079.40845,-0.01812
7081.33692,0.01235
7083.26539,0.03400
7085.19385,-0.01661
7087.12232,-0.06803
7089.05079,-0.06870
7090.97926,-0.01940
7092.90773,0.08344
7094.83620,0.14234
7096.76467,0.08304
7098.69313,-0.00310
7100.62160,-0.01716
7102.55007,0.01334
7104.47854,0.03624
7106.40701,0.02506
7108.33548,0.01791
7110.26395,0.03579
7112.19242,0.02958
7114.12088,-0.03791
7116.04935,-0.11493
7117.97782,-0.07735
7119.90629,0.05012
7121.83476,0.11564
7123.76323,0.12190
7125.69170,0.12745
7127.62016,0.12477
7129.54863,0.10762
7131.47710,0.09259
7133.40557,0.07655
7135.33404,0.10342
7137.26251,0.15803
7139.19098,0.16000
7141.11944,0.14709
7143.04791,0.16298
7144.97638,0.15450
7146.90485,0.11141
7148.83332,0.05742
7150.76179,0.00025
7152.69026,-0.01934
7154.61873,0.02698
7156.54719,0.07081
7158.47566,0.04765
7160.40413,-0.03005
7162.33260,-0.08967
7164.26107,-0.08686
7166.18954,-0.03485
7168.11801,0.07225
7170.04647,0.16397
7171.97494,0.12565
7173.90341,0.09103
7175.83188,0.19885
7177.76035,0.32286
7179.68882,0.29904
7181.61729,0.20250
7183.54576,0.17829
7185.47422,0.16974
7187.40269,0.11189
7189.33116,0.03674
7191.25963,-0.03323
7193.18810,-0.06763
7195.11657,-0.06915
7197.04504,-0.02463
7198.97350,0.06518
7200.90197,0.11682
7202.83044,0.09117
7204.75891,0.05622
7206.68738,0.03812
7208.61585,0.01811
7210.54432,0.03096
7212.47279,0.01612
7214.40125,-0.04168
7216.32972,-0.03099
7218.25819,0.05997
7220.18666,0.10628
7222.11513,0.11068
7224.04360,0.08476
7225.97207,0.08179
7227.90053,0.16957
7229.82900,0.22867
7231.75747,0.18855
7233.68594,0.13538
7235.61441,0.07295
7237.54288,0.03183
7239.47135,0.08659
7241.39982,0.18447
7243.32828,0.20091
7245.25675,0.10739
7247.18522,0.02056
7249.11369,0.00620
7251.04216,0.03513
7252.97063,0.06728
7254.89910,0.07894
7256.82756,0.03831
7258.75603,-0.03279
7260.68450,-0.09413
7262.61297,-0.09241
7264.54144,0.00681
7266.46991,0.11113
7268.39838,0.13492
7270.32685,0.14743
7272.25531,0.20965
7274.18378,0.21308
7276.11225,0.09627
7278.04072,-0.07186
7279.96919,-0.12560
7281.89766,-0.02004
7283.82613,0.01515
7285.75459,-0.01697
7287.68306,0.01718
7289.61153,0.11435
7291.54000,0.16561
7293.46847,0.15415
7295.39694,0.12000
7297.32541,0.07168
7299.25387,0.05500
7301.18234,0.11011
7303.11081,0.16340
7305.03928,0.07911
7306.96775,-0.13340
7308.89622,-0.29700
7310.82469,-0.27217
7312.75316,-0.17615
7314.68162,-0.12525
7316.61009,-0.08006
7318.53856,0.01910
7320.46703,0.15397
7322.39550,0.33317
7324.32397,0.39688
7326.25244,0.25612
7328.18090,0.19915
7330.10937,0.31865
7332.03784,0.26437
7333.96631,0.09432
7335.89478,0.05195
7337.82325,0.12404
7339.75172,0.14459
7341.68019,-0.04331
7343.60865,-0.20554
7345.53712,-0.20608
7347.46559,-0.14900
7349.39406,-0.07541
7351.32253,0.02000
7353.25100,0.02829
7355.17947,0.00160
7357.10793,0.05005
7359.03640,0.05449
7360.96487,-0.03388
7362.89334,-0.02458
7364.82181,0.07435
7366.75028,0.09599
7368.67875,-0.00036
7370.60722,-0.10155
7372.53568,-0.13295
7374.46415,-0.06106
7376.39262,0.07569
7378.32109,0.14066
7380.24956,0.09664
7382.17803,0.05069
7384.10650,0.06798
7386.03496,0.06626
7387.96343,0.00942
7389.89190,-0.00595
7391.82037,0.07798
7393.74884,0.16814
7395.67731,0.20065
7397.60578,0.24791
7399.53425,0.26958
7401.46271,0.22970
7403.39118,0.21020
7405.31965,0.19877
7407.24812,0.10364
7409.17659,-0.01901
7411.10506,-0.04034
7413.03353,0.04207
7414.96199,0.08994
7416.89046,0.06433
7418.81893,0.08730
7420.74740,0.08240
7422.67587,-0.06139
7424.60434,-0.15816
7426.53281,-0.09794
7428.46128,0.07451
7430.38974,0.21384
7432.31821,0.23348
7434.24668,0.20761
7436.17515,0.15844
7438.10362,0.08535
7440.03209,-0.00799
7441.96056,-0.06133
7443.88902,-0.04379
7445.81749,-0.02275
7447.74596,-0.00838
7449.67443,0.02037
7451.60290,0.00978
7453.53137,-0.00702
7455.45984,0.03191
7457.38831,0.01884
7459.31677,-0.07696
7461.24524,-0.05750
7463.17371,0.07371
7465.10218,0.09259
7467.03065,0.02309
7468.95912,0.06657
7470.88759,0.18248
7472.81605,0.16166
7474.74452,0.06102
7476.67299,0.09057
7478.60146,0.28659
7480.52993,0.49271
7482.45840,0.47262
7484.38687,0.25814
7486.31533,0.10027
7488.24380,0.05013
7490.17227,0.02620
7492.10074,0.05111
7494.02921,0.11727
7495.95768,0.14788
7497.88615,0.15066
