399.19301,-0.13950
401.12148,-0.16646
403.04995,-0.19179
404.97842,-0.05643
406.90689,0.12329
408.83536,0.22538
410.76382,0.18357
412.69229,0.06345
414.62076,0.00483
416.54923,0.03625
418.47770,0.16243
420.40617,0.22919
422.33464,0.14678
424.26311,0.06342
426.19157,0.04600
428.12004,0.04935
430.04851,-0.01122
431.97698,-0.05358
433.90545,0.02646
435.83392,0.08175
437.76239,0.06611
439.69085,0.04010
441.61932,0.02073
443.54779,0.01693
445.47626,0.04021
447.40473,0.06268
449.33320,0.06238
451.26167,0.07541
453.19013,0.10954
455.11860,0.12263
457.04707,0.10229
458.97554,0.07541
460.90401,0.07585
462.83248,0.09543
464.76095,0.10507
466.68942,0.09530
468.61788,0.06735
470.54635,0.04293
472.47482,0.05045
474.40329,0.04693
476.33176,0.00202
478.26023,0.00023
480.18870,0.05917
482.11716,0.11530
484.04563,0.10165
485.97410,0.06599
487.90257,0.03749
489.83104,-0.00001
491.75951,-0.00582
493.68798,0.01574
495.61645,0.02634
497.54491,0.03866
499.47338,0.07582
501.40185,0.13645
503.33032,0.18643
505.25879,0.21150
507.18726,0.20727
509.11573,0.15139
511.04419,0.09015
512.97266,0.07859
514.90113,0.10576
516.82960,0.12768
518.75807,0.11275
520.68654,0.07215
522.61501,0.04506
524.54348,0.05231
526.47194,0.07989
528.40041,0.10736
530.32888,0.13013
532.25735,0.14123
534.18582,0.12842
536.11429,0.09668
538.04276,0.08027
539.97122,0.08498
541.89969,0.08546
543.82816,0.08762
545.75663,0.09135
547.68510,0.08636
549.61357,0.12017
551.54204,0.24189
553.47051,0.36553
555.39897,0.33807
557.32744,0.18378
559.25591,0.08491
561.18438,0.08681
563.11285,0.10127
565.04132,0.09200
566.96979,0.09182
568.89825,0.10899
570.82672,0.11169
572.75519,0.09214
574.68366,0.07866
576.61213,0.08845
578.54060,0.10071
580.46907,0.09731
582.39754,0.08626
584.32600,0.07855
586.25447,0.07345
588.18294,0.06703
590.11141,0.06963
592.03988,0.08874
593.96835,0.10717
595.89682,0.11735
597.82528,0.11600
599.75375,0.10079
601.68222,0.08289
603.61069,0.07056
605.53916,0.06828
607.46763,0.07384
609.39610,0.07997
611.32456,0.08830
613.25303,0.10359
615.18150,0.11285
617.10997,0.10129
619.03844,0.08440
620.96691,0.08690
622.89538,0.10419
624.82385,0.11041
626.75231,0.09847
628.68078,0.08931
630.60925,0.10178
632.53772,0.12363
634.46619,0.12848
636.39466,0.11657
638.32313,0.10248
640.25159,0.09272
642.18006,0.09085
644.10853,0.09340
646.03700,0.09676
647.96547,0.10773
649.89394,0.12070
651.82241,0.12690
653.75088,0.12985
655.67934,0.12265
657.60781,0.10741
659.53628,0.10137
661.46475,0.10775
663.39322,0.11668
665.32169,0.12169
667.25016,0.11740
669.17862,0.10651
671.10709,0.10611
673.03556,0.10894
674.96403,0.11043
676.89250,0.11051
678.82097,0.11381
680.74944,0.12702
682.67791,0.14083
684.60637,0.13994
686.53484,0.12882
688.46331,0.12173
690.39178,0.12220
692.32025,0.12669
694.24872,0.12610
696.17719,0.12308
698.10565,0.12691
700.03412,0.12843
701.96259,0.12151
703.89106,0.11482
705.81953,0.11220
707.74800,0.11300
709.67647,0.12039
711.60494,0.12958
713.53340,0.13131
715.46187,0.12231
717.39034,0.11014
719.31881,0.10894
721.24728,0.11651
723.17575,0.12366
725.10422,0.12810
727.03268,0.12565
728.96115,0.12056
730.88962,0.11932
732.81809,0.11662
734.74656,0.11275
736.67503,0.11434
738.60350,0.12204
740.53197,0.13511
742.46043,0.14298
744.38890,0.13715
746.31737,0.13149
748.24584,0.13653
750.17431,0.13944
752.10278,0.13180
754.03125,0.12708
755.95971,0.12784
757.88818,0.12583
759.81665,0.12825
761.74512,0.13387
763.67359,0.13052
765.60206,0.12338
767.53053,0.12047
769.45900,0.11900
771.38746,0.12145
773.31593,0.12748
775.24440,0.13154
777.17287,0.13619
779.10134,0.13811
781.02981,0.13183
782.95828,0.12586
784.88674,0.12948
786.81521,0.13919
788.74368,0.14074
790.67215,0.13067
792.60062,0.12064
794.52909,0.11773
796.45756,0.12543
798.38602,0.13658
800.31449,0.13480
802.24296,0.12326
804.17143,0.11912
806.09990,0.12400
808.02837,0.12709
809.95684,0.12697
811.88531,0.12545
813.81377,0.12259
815.74224,0.12615
817.67071,0.13608
819.59918,0.13988
821.52765,0.12966
823.45612,0.11477
825.38459,0.10979
827.31305,0.11341
829.24152,0.11890
831.16999,0.12433
833.09846,0.12911
835.02693,0.13401
836.95540,0.13282
838.88387,0.12258
840.81234,0.11666
842.74080,0.11935
844.66927,0.12082
846.59774,0.12350
848.52621,0.13172
850.45468,0.13413
852.38315,0.12998
854.31162,0.13132
856.24008,0.13330
858.16855,0.12820
860.09702,0.12524
862.02549,0.13484
863.95396,0.14641
865.88243,0.14403
867.81090,0.13583
869.73937,0.13430
871.66783,0.13783
873.59630,0.13928
875.52477,0.13381
877.45324,0.12455
879.38171,0.12061
881.31018,0.12596
883.23865,0.13284
885.16711,0.13636
887.09558,0.13896
889.02405,0.13795
890.95252,0.13275
892.88099,0.13114
894.80946,0.13581
896.73793,0.13895
898.66640,0.13788
900.59486,0.13935
902.52333,0.14262
904.45180,0.14105
906.38027,0.13519
908.30874,0.12902
910.23721,0.12707
912.16568,0.13261
914.09414,0.14209
916.02261,0.14631
917.95108,0.14354
919.87955,0.14223
921.80802,0.14285
923.73649,0.14061
925.66496,0.13779
927.59343,0.13705
929.52189,0.13568
931.45036,0.13315
933.37883,0.13348
935.30730,0.13589
937.23577,0.13919
939.16424,0.14245
941.09271,0.14254
943.02117,0.13969
944.94964,0.13482
946.87811,0.13294
948.80658,0.13726
950.73505,0.14198
952.66352,0.14493
954.59199,0.14709
956.52045,0.14740
958.44892,0.14676
960.37739,0.14565
962.30586,0.14329
964.23433,0.14232
966.16280,0.14297
968.09127,0.14142
970.01974,0.13734
971.94820,0.13495
973.87667,0.13913
975.80514,0.14548
977.73361,0.14633
979.66208,0.14363
981.59055,0.14259
983.51902,0.14321
985.44748,0.14184
987.37595,0.14077
989.30442,0.14570
991.23289,0.15310
993.16136,0.15418
995.08983,0.15040
997.01830,0.15074
998.94677,0.15339
1000.87523,0.15354
1002.80370,0.15299
1004.73217,0.14915
1006.66064,0.14194
1008.58911,0.13997
1010.51758,0.14502
1012.44605,0.14672
1014.37451,0.14209
1016.30298,0.14165
1018.23145,0.14511
1020.15992,0.14442
1022.08839,0.14154
1024.01686,0.14072
1025.94533,0.13583
1027.87380,0.11930
1029.80226,0.11179
1031.73073,0.12815
1033.65920,0.14412
1035.58767,0.14915
1037.51614,0.15170
1039.44461,0.15205
1041.37308,0.15128
1043.30154,0.15082
1045.23001,0.14784
1047.15848,0.14444
1049.08695,0.14622
1051.01542,0.14840
1052.94389,0.14555
1054.87236,0.14435
1056.80083,0.14753
1058.72929,0.15127
1060.65776,0.15611
1062.58623,0.15788
1064.51470,0.15538
1066.44317,0.15653
1068.37164,0.15804
1070.30011,0.15669
1072.22857,0.15709
1074.15704,0.15742
1076.08551,0.15758
1078.01398,0.16006
1079.94245,0.16006
1081.87092,0.15458
1083.79939,0.14767
1085.72786,0.14290
1087.65632,0.14181
1089.58479,0.14482
1091.51326,0.14987
1093.44173,0.15351
1095.37020,0.15460
1097.29867,0.15477
1099.22714,0.15684
1101.15560,0.16055
1103.08407,0.16044
1105.01254,0.15734
1106.94101,0.15702
1108.86948,0.15744
1110.79795,0.15671
1112.72642,0.15984
1114.65489,0.16601
1116.58335,0.16915
1118.51182,0.16802
1120.44029,0.16305
1122.36876,0.15688
1124.29723,0.15336
1126.22570,0.15328
1128.15417,0.15469
1130.08263,0.15366
1132.01110,0.14982
1133.93957,0.14642
1135.86804,0.14525
1137.79651,0.14771
1139.72498,0.15270
1141.65345,0.15516
1143.58191,0.15452
1145.51038,0.15604
1147.43885,0.15968
1149.36732,0.15851
1151.29579,0.15529
1153.22426,0.15921
1155.15273,0.16530
1157.08120,0.16548
1159.00966,0.16260
1160.93813,0.15962
1162.86660,0.15598
1164.79507,0.15468
1166.72354,0.15883
1168.65201,0.16255
1170.58048,0.16007
1172.50894,0.15693
1174.43741,0.15913
1176.36588,0.16199
1178.29435,0.15920
1180.22282,0.15454
1182.15129,0.15416
1184.07976,0.15864
1186.00823,0.16378
1187.93669,0.16385
1189.86516,0.16107
1191.79363,0.16115
1193.72210,0.16321
1195.65057,0.16344
1197.57904,0.16066
1199.50751,0.15985
1201.43597,0.16317
1203.36444,0.16393
1205.29291,0.16012
1207.22138,0.15707
1209.14985,0.15789
1211.07832,0.16109
1213.00679,0.16289
1214.93526,0.16355
1216.86372,0.16739
1218.79219,0.17256
1220.72066,0.17353
1222.64913,0.16973
1224.57760,0.16514
1226.50607,0.16316
1228.43454,0.16240
1230.36300,0.16128
1232.29147,0.16007
1234.21994,0.15859
1236.14841,0.15908
1238.07688,0.16240
1240.00535,0.16366
1241.93382,0.16162
1243.86229,0.16090
1245.79075,0.16177
1247.71922,0.16190
1249.64769,0.16122
1251.57616,0.16071
1253.50463,0.16171
1255.43310,0.16501
1257.36157,0.16908
1259.29003,0.17053
1261.21850,0.17016
1263.14697,0.16929
1265.07544,0.16588
1267.00391,0.16260
1268.93238,0.16361
1270.86085,0.16627
1272.78932,0.16556
1274.71778,0.16368
1276.64625,0.16554
1278.57472,0.16871
1280.50319,0.16917
1282.43166,0.16873
1284.36013,0.16993
1286.28860,0.17156
1288.21706,0.17236
1290.14553,0.17338
1292.07400,0.17480
1294.00247,0.17480
1295.93094,0.17331
1297.85941,0.17101
1299.78788,0.16746
1301.71634,0.16385
1303.64481,0.16148
1305.57328,0.16232
1307.50175,0.16800
1309.43022,0.17401
1311.35869,0.17570
1313.28716,0.17536
1315.21563,0.17628
1317.14409,0.17781
1319.07256,0.17880
1321.00103,0.17901
1322.92950,0.17769
1324.85797,0.17430
1326.78644,0.17041
1328.71491,0.16869
1330.64337,0.16836
1332.57184,0.16786
1334.50031,0.16954
1336.42878,0.17589
1338.35725,0.18213
1340.28572,0.17871
1342.21419,0.17149
1344.14266,0.17087
1346.07112,0.17304
1347.99959,0.17350
1349.92806,0.17236
1351.85653,0.16985
1353.78500,0.16872
1355.71347,0.16992
1357.64194,0.17194
1359.57040,0.17715
1361.49887,0.18570
1363.42734,0.18797
1365.35581,0.18299
1367.28428,0.17972
1369.21275,0.17742
1371.14122,0.17738
1373.06969,0.18507
1374.99815,0.19128
1376.92662,0.18576
1378.85509,0.17840
1380.78356,0.17566
1382.71203,0.17530
1384.64050,0.17777
1386.56897,0.18302
1388.49743,0.18458
1390.42590,0.18266
1392.35437,0.18558
1394.28284,0.19466
1396.21131,0.20195
1398.13978,0.20012
1400.06825,0.19017
1401.99672,0.18323
1403.92518,0.18352
1405.85365,0.18372
1407.78212,0.18182
1409.71059,0.17943
1411.63906,0.17567
1413.56753,0.17651
1415.49600,0.18859
1417.42446,0.20570
1419.35293,0.20576
1421.28140,0.19348
1423.20987,0.18938
1425.13834,0.18552
1427.06681,0.18289
1428.99528,0.18872
1430.92375,0.19331
1432.85221,0.19453
1434.78068,0.20274
1436.70915,0.20858
1438.63762,0.19687
1440.56609,0.18502
1442.49456,0.18159
1444.42303,0.18443
1446.35149,0.19090
1448.27996,0.19320
1450.20843,0.19015
1452.13690,0.19290
1454.06537,0.20895
1455.99384,0.23912
1457.92231,0.24705
1459.85077,0.21681
1461.77924,0.19925
1463.70771,0.19916
1465.63618,0.19932
1467.56465,0.19418
1469.49312,0.20028
1471.42159,0.22330
1473.35006,0.24050
1475.27852,0.22910
1477.20699,0.20966
1479.13546,0.19837
1481.06393,0.19590
1482.99240,0.19446
1484.92087,0.19686
1486.84934,0.21180
1488.77780,0.23095
1490.70627,0.22816
1492.63474,0.21518
1494.56321,0.21626
1496.49168,0.22637
1498.42015,0.22357
1500.34862,0.20943
1502.27709,0.20377
1504.20555,0.22123
1506.13402,0.27087
1508.06249,0.28172
1509.99096,0.24216
1511.91943,0.22044
1513.84790,0.21981
1515.77637,0.23287
1517.70483,0.24714
1519.63330,0.26358
1521.56177,0.27929
1523.49024,0.26599
1525.41871,0.24353
1527.34718,0.22673
1529.27565,0.21479
1531.20412,0.21653
1533.13258,0.22863
1535.06105,0.23053
1536.98952,0.23714
1538.91799,0.27655
1540.84646,0.31384
1542.77493,0.28296
1544.70340,0.24060
1546.63186,0.21387
1548.56033,0.20756
1550.48880,0.21310
1552.41727,0.22264
1554.34574,0.23893
1556.27421,0.26788
1558.20268,0.30374
1560.13115,0.26934
1562.05961,0.22389
1563.98808,0.20923
1565.91655,0.20816
1567.84502,0.21668
1569.77349,0.22262
1571.70196,0.21429
1573.63043,0.21440
1575.55889,0.22540
1577.48736,0.21730
1579.41583,0.19811
1581.34430,0.18878
1583.27277,0.18663
1585.20124,0.18712
1587.12971,0.18975
1589.05818,0.19307
1590.98664,0.19386
1592.91511,0.19293
1594.84358,0.19190
1596.77205,0.18905
1598.70052,0.18745
1600.62899,0.19018
1602.55746,0.19142
1604.48592,0.18883
1606.41439,0.18953
1608.34286,0.19439
1610.27133,0.19535
1612.19980,0.19362
1614.12827,0.20090
1616.05674,0.21708
1617.98521,0.21779
1619.91367,0.21145
1621.84214,0.21806
1623.77061,0.22346
1625.69908,0.21642
1627.62755,0.20849
1629.55602,0.20200
1631.48449,0.20149
1633.41295,0.21630
1635.34142,0.24654
1637.26989,0.24939
1639.19836,0.22424
1641.12683,0.20719
1643.05530,0.20924
1644.98377,0.23420
1646.91223,0.26148
1648.84070,0.25260
1650.76917,0.25267
1652.69764,0.28435
1654.62611,0.26580
1656.55458,0.22299
1658.48305,0.20725
1660.41152,0.21144
1662.33998,0.22027
1664.26845,0.21651
1666.19692,0.21463
1668.12539,0.23138
1670.05386,0.24782
1671.98233,0.24049
1673.91080,0.23173
1675.83926,0.22405
1677.76773,0.21756
1679.69620,0.22367
1681.62467,0.24556
1683.55314,0.27436
1685.48161,0.26474
1687.41008,0.23651
1689.33855,0.22195
1691.26701,0.21598
1693.19548,0.22094
1695.12395,0.24044
1697.05242,0.26093
1698.98089,0.26800
1700.90936,0.25556
1702.83783,0.23920
1704.76629,0.23371
1706.69476,0.22372
1708.62323,0.20828
1710.55170,0.20242
1712.48017,0.21053
1714.40864,0.23235
1716.33711,0.25760
1718.26558,0.24889
1720.19404,0.21861
1722.12251,0.20183
1724.05098,0.19532
1725.97945,0.19332
1727.90792,0.19938
1729.83639,0.21409
1731.76486,0.23432
1733.69332,0.24805
1735.62179,0.23361
1737.55026,0.21970
1739.47873,0.22015
1741.40720,0.22273
1743.33567,0.22147
1745.26414,0.22086
1747.19261,0.22586
1749.12107,0.23329
1751.04954,0.22570
1752.97801,0.20852
1754.90648,0.20174
1756.83495,0.20280
1758.76342,0.20302
1760.69189,0.20517
1762.62035,0.20482
1764.54882,0.19855
1766.47729,0.19826
1768.40576,0.20903
1770.33423,0.22550
1772.26270,0.23222
1774.19117,0.21954
1776.11964,0.20558
1778.04810,0.20080
1779.97657,0.20337
1781.90504,0.20446
1783.83351,0.20151
1785.76198,0.19763
1787.69045,0.19768
1789.61892,0.20890
1791.54738,0.22392
1793.47585,0.22153
1795.40432,0.20958
1797.33279,0.20415
1799.26126,0.20583
1801.18973,0.20654
1803.11820,0.20045
1805.04666,0.19447
1806.97513,0.19401
1808.90360,0.19730
1810.83207,0.19796
1812.76054,0.19309
1814.68901,0.18879
1816.61748,0.18796
1818.54595,0.18984
1820.47441,0.19382
1822.40288,0.19948
1824.33135,0.20546
1826.25982,0.20866
1828.18829,0.21202
1830.11676,0.21177
1832.04523,0.20210
1833.97369,0.19575
1835.90216,0.19655
1837.83063,0.19704
1839.75910,0.19692
1841.68757,0.20134
1843.61604,0.20791
1845.54451,0.20793
1847.47298,0.20304
1849.40144,0.19775
1851.32991,0.19314
1853.25838,0.19113
1855.18685,0.19111
1857.11532,0.19098
1859.04379,0.19110
1860.97226,0.19247
1862.90072,0.19429
1864.82919,0.19854
1866.75766,0.20873
1868.68613,0.21554
1870.61460,0.20622
1872.54307,0.19348
1874.47154,0.18819
1876.40001,0.18831
1878.32847,0.19004
1880.25694,0.19171
1882.18541,0.19280
1884.11388,0.19328
1886.04235,0.19402
1887.97082,0.19626
1889.89929,0.19759
1891.82775,0.19570
1893.75622,0.19440
1895.68469,0.19434
1897.61316,0.19387
1899.54163,0.19386
1901.47010,0.19299
1903.39857,0.19200
1905.32704,0.19393
1907.25550,0.19748
1909.18397,0.19798
1911.11244,0.19362
1913.04091,0.18976
1914.96938,0.19219
1916.89785,0.19844
1918.82632,0.20046
1920.75478,0.19967
1922.68325,0.19957
1924.61172,0.19590
1926.54019,0.19114
1928.46866,0.18992
1930.39713,0.18995
1932.32560,0.18883
1934.25407,0.18817
1936.18253,0.18942
1938.11100,0.19106
1940.03947,0.19323
1941.96794,0.19610
1943.89641,0.19603
1945.82488,0.19296
1947.75335,0.19015
1949.68181,0.18838
1951.61028,0.18841
1953.53875,0.19064
1955.46722,0.19229
1957.39569,0.19106
1959.32416,0.18952
1961.25263,0.19013
1963.18110,0.19135
1965.10956,0.19300
1967.03803,0.19509
1968.96650,0.19497
1970.89497,0.19339
1972.82344,0.19246
1974.75191,0.19202
1976.68038,0.19197
1978.60884,0.19202
1980.53731,0.19137
1982.46578,0.19141
1984.39425,0.19324
1986.32272,0.19437
1988.25119,0.19465
1990.17966,0.19621
1992.10812,0.19706
1994.03659,0.19522
1995.96506,0.19339
1997.89353,0.19342
1999.82200,0.19278
2001.75047,0.19020
2003.67894,0.18870
2005.60741,0.19001
2007.53587,0.19241
2009.46434,0.19355
2011.39281,0.19339
2013.32128,0.19375
2015.24975,0.19500
2017.17822,0.19482
2019.10669,0.19241
2021.03515,0.19075
2022.96362,0.19071
2024.89209,0.19012
2026.82056,0.18830
2028.74903,0.18684
2030.67750,0.18749
2032.60597,0.18964
2034.53444,0.19123
2036.46290,0.19181
2038.39137,0.19223
2040.31984,0.19339
2042.24831,0.19476
2044.17678,0.19444
2046.10525,0.19322
2048.03372,0.19323
2049.96218,0.19409
2051.89065,0.19525
2053.81912,0.19585
2055.74759,0.19446
2057.67606,0.19306
2059.60453,0.19405
2061.53300,0.19583
2063.46147,0.19642
2065.38993,0.19565
2067.31840,0.19381
2069.24687,0.19161
2071.17534,0.18986
2073.10381,0.18912
2075.03228,0.18970
2076.96075,0.19127
2078.88921,0.19308
2080.81768,0.19411
2082.74615,0.19367
2084.67462,0.19236
2086.60309,0.19140
2088.53156,0.19152
2090.46003,0.19227
2092.38850,0.19237
2094.31696,0.19181
2096.24543,0.19215
2098.17390,0.19404
2100.10237,0.19575
2102.03084,0.19584
2103.95931,0.19487
2105.88778,0.19422
2107.81624,0.19506
2109.74471,0.19593
2111.67318,0.19466
2113.60165,0.19221
2115.53012,0.19049
2117.45859,0.19047
2119.38706,0.19173
2121.31553,0.19240
2123.24399,0.19184
2125.17246,0.19172
2127.10093,0.19258
2129.02940,0.19329
2130.95787,0.19398
2132.88634,0.19499
2134.81481,0.19511
2136.74327,0.19351
2138.67174,0.19231
2140.60021,0.19322
2142.52868,0.19474
2144.45715,0.19557
2146.38562,0.19579
2148.31409,0.19542
2150.24255,0.19419
2152.17102,0.19319
2154.09949,0.19390
2156.02796,0.19524
2157.95643,0.19530
2159.88490,0.19462
2161.81337,0.19462
2163.74184,0.19459
2165.67030,0.19431
2167.59877,0.19510
2169.52724,0.19609
2171.45571,0.19522
2173.38418,0.19366
2175.31265,0.19350
2177.24112,0.19391
2179.16958,0.19402
2181.09805,0.19354
2183.02652,0.19323
2184.95499,0.19423
2186.88346,0.19496
2188.81193,0.19496
2190.74040,0.19550
2192.66887,0.19602
2194.59733,0.19614
2196.52580,0.19644
2198.45427,0.19548
2200.38274,0.19242
2202.31121,0.19044
2204.23968,0.19142
2206.16815,0.19243
2208.09661,0.19182
2210.02508,0.19146
2211.95355,0.19249
2213.88202,0.19363
2215.81049,0.19337
2217.73896,0.19373
2219.66743,0.19643
2221.59590,0.19827
2223.52436,0.19701
2225.45283,0.19427
2227.38130,0.19279
2229.30977,0.19357
2231.23824,0.19500
2233.16671,0.19597
2235.09518,0.19701
2237.02364,0.19796
2238.95211,0.19746
2240.88058,0.19585
2242.80905,0.19456
2244.73752,0.19364
2246.66599,0.19343
2248.59446,0.19470
2250.52293,0.19670
2252.45139,0.19779
2254.37986,0.19754
2256.30833,0.19679
2258.23680,0.19629
2260.16527,0.19693
2262.09374,0.19745
2264.02221,0.19561
2265.95067,0.19388
2267.87914,0.19497
2269.80761,0.19724
2271.73608,0.19888
2273.66455,0.19939
2275.59302,0.19881
2277.52149,0.19788
2279.44996,0.19732
2281.37842,0.19736
2283.30689,0.19729
2285.23536,0.19641
2287.16383,0.19629
2289.09230,0.19754
2291.02077,0.19846
2292.94924,0.19911
2294.87770,0.20025
2296.80617,0.20195
2298.73464,0.20274
2300.66311,0.20092
2302.59158,0.19916
2304.52005,0.20043
2306.44852,0.20274
2308.37699,0.20320
2310.30545,0.20125
2312.23392,0.19886
2314.16239,0.20056
2316.09086,0.20623
2318.01933,0.21014
2319.94780,0.21103
2321.87627,0.21329
2323.80473,0.21715
2325.73320,0.21772
2327.66167,0.21622
2329.59014,0.21694
2331.51861,0.21989
2333.44708,0.22334
2335.37555,0.22437
2337.30401,0.22360
2339.23248,0.22495
2341.16095,0.22723
2343.08942,0.22637
2345.01789,0.21955
2346.94636,0.21163
2348.87483,0.20979
2350.80330,0.21403
2352.73176,0.22191
2354.66023,0.22863
2356.58870,0.23102
2358.51717,0.23446
2360.44564,0.23991
2362.37411,0.24331
2364.30258,0.24341
2366.23104,0.23653
2368.15951,0.22587
2370.08798,0.21822
2372.01645,0.21293
2373.94492,0.20743
2375.87339,0.20233
2377.80186,0.19863
2379.73033,0.19611
2381.65879,0.19539
2383.58726,0.19688
2385.51573,0.19852
2387.44420,0.19863
2389.37267,0.19792
2391.30114,0.19741
2393.22961,0.19746
2395.15807,0.19707
2397.08654,0.19500
2399.01501,0.19306
2400.94348,0.19361
2402.87195,0.19553
2404.80042,0.19594
2406.72889,0.19435
2408.65736,0.19309
2410.58582,0.19285
2412.51429,0.19262
2414.44276,0.19326
2416.37123,0.19520
2418.29970,0.19595
2420.22817,0.19450
2422.15664,0.19415
2424.08510,0.19528
2426.01357,0.19414
2427.94204,0.19144
2429.87051,0.19054
2431.79898,0.19116
2433.72745,0.19193
2435.65592,0.19376
2437.58439,0.19678
2439.51285,0.19726
2441.44132,0.19402
2443.36979,0.19139
2445.29826,0.19182
2447.22673,0.19344
2449.15520,0.19491
2451.08367,0.19748
2453.01213,0.20093
2454.94060,0.20281
2456.86907,0.20211
2458.79754,0.19867
2460.72601,0.19497
2462.65448,0.19460
2464.58295,0.19576
2466.51142,0.19516
2468.43988,0.19390
2470.36835,0.19432
2472.29682,0.19627
2474.22529,0.19783
2476.15376,0.19821
2478.08223,0.19885
2480.01070,0.19978
2481.93916,0.19978
2483.86763,0.19961
2485.79610,0.19945
2487.72457,0.19880
2489.65304,0.19866
2491.58151,0.19907
2493.50998,0.19892
2495.43844,0.19752
2497.36691,0.19507
2499.29538,0.19376
2501.22385,0.19423
2503.15232,0.19429
2505.08079,0.19362
2507.00926,0.19345
2508.93773,0.19386
2510.86619,0.19471
2512.79466,0.19573
2514.72313,0.19607
2516.65160,0.19600
2518.58007,0.19699
2520.50854,0.19748
2522.43701,0.19580
2524.36547,0.19472
2526.29394,0.19584
2528.22241,0.19791
2530.15088,0.19936
2532.07935,0.19929
2534.00782,0.19916
2535.93629,0.19950
2537.86476,0.19976
2539.79322,0.20043
2541.72169,0.20028
2543.65016,0.19937
2545.57863,0.19978
2547.50710,0.19987
2549.43557,0.19773
2551.36404,0.19592
2553.29250,0.19613
2555.22097,0.19729
2557.14944,0.19864
2559.07791,0.19976
2561.00638,0.20061
2562.93485,0.20139
2564.86332,0.20189
2566.79179,0.20135
2568.72025,0.19980
2570.64872,0.19829
2572.57719,0.19704
2574.50566,0.19664
2576.43413,0.19749
2578.36260,0.19819
2580.29107,0.19815
2582.21953,0.19832
2584.14800,0.19874
2586.07647,0.19907
2588.00494,0.20021
2589.93341,0.20123
2591.86188,0.20037
2593.79035,0.19923
2595.71882,0.19985
2597.64728,0.20077
2599.57575,0.19973
2601.50422,0.19802
2603.43269,0.19785
2605.36116,0.19870
2607.28963,0.19898
2609.21810,0.19821
2611.14656,0.19765
2613.07503,0.19797
2615.00350,0.19921
2616.93197,0.20162
2618.86044,0.20322
2620.78891,0.20308
2622.71738,0.20242
2624.64585,0.20183
2626.57431,0.20150
2628.50278,0.20158
2630.43125,0.20210
2632.35972,0.20236
2634.28819,0.20198
2636.21666,0.20080
2638.14513,0.19925
2640.07359,0.20059
2642.00206,0.20469
2643.93053,0.20592
2645.85900,0.20321
2647.78747,0.20106
2649.71594,0.20134
2651.64441,0.20180
2653.57288,0.20108
2655.50134,0.20028
2657.42981,0.19968
2659.35828,0.19973
2661.28675,0.20151
2663.21522,0.20355
2665.14369,0.20465
2667.07216,0.20534
2669.00062,0.20491
2670.92909,0.20253
2672.85756,0.20056
2674.78603,0.20085
2676.71450,0.20133
2678.64297,0.20150
2680.57144,0.20259
2682.49990,0.20285
2684.42837,0.20194
2686.35684,0.20299
2688.28531,0.20514
2690.21378,0.20571
2692.14225,0.20650
2694.07072,0.20813
2695.99919,0.20799
2697.92765,0.20607
2699.85612,0.20516
2701.78459,0.20592
2703.71306,0.20617
2705.64153,0.20443
2707.57000,0.20222
2709.49847,0.20188
2711.42693,0.20301
2713.35540,0.20447
2715.28387,0.20458
2717.21234,0.20282
2719.14081,0.20251
2721.06928,0.20466
2722.99775,0.20547
2724.92622,0.20389
2726.85468,0.20388
2728.78315,0.20590
2730.71162,0.20634
2732.64009,0.20621
2734.56856,0.20825
2736.49703,0.20957
2738.42550,0.20883
2740.35396,0.20920
2742.28243,0.20999
2744.21090,0.20890
2746.13937,0.20634
2748.06784,0.20401
2749.99631,0.20362
2751.92478,0.20481
2753.85325,0.20609
2755.78171,0.20727
2757.71018,0.20889
2759.63865,0.20988
2761.56712,0.21007
2763.49559,0.21084
2765.42406,0.21170
2767.35253,0.21175
2769.28099,0.21115
2771.20946,0.21091
2773.13793,0.21117
2775.06640,0.21022
2776.99487,0.20827
2778.92334,0.20772
2780.85181,0.20856
2782.78028,0.21003
2784.70874,0.21167
2786.63721,0.21198
2788.56568,0.21102
2790.49415,0.20963
2792.42262,0.20870
2794.35109,0.20908
2796.27956,0.21023
2798.20802,0.21132
2800.13649,0.21186
2802.06496,0.21230
2803.99343,0.21282
2805.92190,0.21292
2807.85037,0.21358
2809.77884,0.21498
2811.70731,0.21514
2813.63577,0.21342
2815.56424,0.21110
2817.49271,0.20931
2819.42118,0.20918
2821.34965,0.21161
2823.27812,0.21414
2825.20659,0.21405
2827.13505,0.21382
2829.06352,0.21465
2830.99199,0.21487
2832.92046,0.21522
2834.84893,0.21531
2836.77740,0.21455
2838.70587,0.21486
2840.63433,0.21593
2842.56280,0.21586
2844.49127,0.21556
2846.41974,0.21590
2848.34821,0.21479
2850.27668,0.21215
2852.20515,0.21127
2854.13362,0.21229
2856.06208,0.21295
2857.99055,0.21347
2859.91902,0.21411
2861.84749,0.21327
2863.77596,0.20994
2865.70443,0.20706
2867.63290,0.20876
2869.56136,0.21167
2871.48983,0.21056
2873.41830,0.20859
2875.34677,0.20933
2877.27524,0.21028
2879.20371,0.21006
2881.13218,0.21016
2883.06065,0.21142
2884.98911,0.21312
2886.91758,0.21271
2888.84605,0.21095
2890.77452,0.21193
2892.70299,0.21329
2894.63146,0.21023
2896.55993,0.20612
2898.48839,0.20626
2900.41686,0.20948
2902.34533,0.21094
2904.27380,0.20963
2906.20227,0.20897
2908.13074,0.20956
2910.05921,0.21010
2911.98768,0.21113
2913.91614,0.21159
2915.84461,0.20964
2917.77308,0.20720
2919.70155,0.20777
2921.63002,0.21140
2923.55849,0.21427
2925.48696,0.21388
2927.41542,0.21333
2929.34389,0.21345
2931.27236,0.21171
2933.20083,0.21062
2935.12930,0.21056
2937.05777,0.20884
2938.98624,0.20786
2940.91471,0.20899
2942.84317,0.20969
2944.77164,0.20929
2946.70011,0.20954
2948.62858,0.21112
2950.55705,0.21246
2952.48552,0.21301
2954.41399,0.21317
2956.34245,0.21257
2958.27092,0.21283
2960.19939,0.21488
2962.12786,0.21548
2964.05633,0.21374
2965.98480,0.21313
2967.91327,0.21572
2969.84174,0.21977
2971.77020,0.22183
2973.69867,0.22153
2975.62714,0.22018
2977.55561,0.21794
2979.48408,0.21760
2981.41255,0.22061
2983.34102,0.22272
2985.26948,0.22175
2987.19795,0.22060
2989.12642,0.22228
2991.05489,0.22463
2992.98336,0.22267
2994.91183,0.21973
2996.84030,0.22198
2998.76877,0.22486
3000.69723,0.22340
3002.62570,0.22083
3004.55417,0.22024
3006.48264,0.22094
3008.41111,0.22016
3010.33958,0.21731
3012.26805,0.21310
3014.19651,0.20645
3016.12498,0.20270
3018.05345,0.20865
3019.98192,0.21777
3021.91039,0.22112
3023.83886,0.22121
3025.76733,0.22153
3027.69579,0.22096
3029.62426,0.22074
3031.55273,0.22200
3033.48120,0.22303
3035.40967,0.22219
3037.33814,0.21994
3039.26661,0.21895
3041.19508,0.21963
3043.12354,0.21939
3045.05201,0.21799
3046.98048,0.21722
3048.90895,0.21585
3050.83742,0.21272
3052.76589,0.21126
3054.69436,0.21277
3056.62282,0.21514
3058.55129,0.21884
3060.47976,0.22306
3062.40823,0.22312
3064.33670,0.21874
3066.26517,0.21486
3068.19364,0.21498
3070.12211,0.21875
3072.05057,0.22134
3073.97904,0.21994
3075.90751,0.21790
3077.83598,0.21775
3079.76445,0.21851
3081.69292,0.21828
3083.62139,0.21603
3085.54985,0.21301
3087.47832,0.21222
3089.40679,0.21397
3091.33526,0.21661
3093.26373,0.21904
3095.19220,0.21953
3097.12067,0.21953
3099.04914,0.22158
3100.97760,0.22346
3102.90607,0.22218
3104.83454,0.21853
3106.76301,0.21613
3108.69148,0.21760
3110.61995,0.21938
3112.54842,0.21686
3114.47688,0.21504
3116.40535,0.21861
3118.33382,0.22215
3120.26229,0.22225
3122.19076,0.22339
3124.11923,0.22741
3126.04770,0.22816
3127.97617,0.22311
3129.90463,0.21874
3131.83310,0.21985
3133.76157,0.22368
3135.69004,0.22466
3137.61851,0.22268
3139.54698,0.22191
3141.47545,0.22389
3143.40391,0.22648
3145.33238,0.22681
3147.26085,0.22487
3149.18932,0.22235
3151.11779,0.21968
3153.04626,0.21779
3154.97473,0.21818
3156.90320,0.22114
3158.83166,0.22475
3160.76013,0.22514
3162.68860,0.22269
3164.61707,0.22255
3166.54554,0.22572
3168.47401,0.22789
3170.40248,0.22708
3172.33094,0.22550
3174.25941,0.22465
3176.18788,0.22330
3178.11635,0.22188
3180.04482,0.22301
3181.97329,0.22518
3183.90176,0.22601
3185.83022,0.22614
3187.75869,0.22571
3189.68716,0.22441
3191.61563,0.22264
3193.54410,0.22302
3195.47257,0.22651
3197.40104,0.22926
3199.32951,0.22966
3201.25797,0.22974
3203.18644,0.22850
3205.11491,0.22368
3207.04338,0.21923
3208.97185,0.21945
3210.90032,0.22071
3212.82879,0.21981
3214.75725,0.21867
3216.68572,0.21772
3218.61419,0.21700
3220.54266,0.21700
3222.47113,0.21730
3224.39960,0.21913
3226.32807,0.22268
3228.25654,0.22543
3230.18500,0.22522
3232.11347,0.22249
3234.04194,0.21804
3235.97041,0.21378
3237.89888,0.21457
3239.82735,0.22066
3241.75582,0.22592
3243.68428,0.22548
3245.61275,0.22179
3247.54122,0.22040
3249.46969,0.22034
3251.39816,0.21944
3253.32663,0.21942
3255.25510,0.21993
3257.18357,0.22033
3259.11203,0.22122
3261.04050,0.22124
3262.96897,0.21969
3264.89744,0.21746
3266.82591,0.21633
3268.75438,0.21680
3270.68285,0.21775
3272.61131,0.21860
3274.53978,0.21963
3276.46825,0.21934
3278.39672,0.21655
3280.32519,0.21718
3282.25366,0.22098
3284.18213,0.22060
3286.11060,0.21745
3288.03906,0.21528
3289.96753,0.21505
3291.89600,0.21647
3293.82447,0.21882
3295.75294,0.22156
3297.68141,0.22176
3299.60988,0.21895
3301.53834,0.21666
3303.46681,0.21452
3305.39528,0.21324
3307.32375,0.21703
3309.25222,0.21978
3311.18069,0.21694
3313.10916,0.21560
3315.03763,0.21818
3316.96609,0.22165
3318.89456,0.22367
3320.82303,0.22436
3322.75150,0.22364
3324.67997,0.22198
3326.60844,0.22196
3328.53691,0.22320
3330.46537,0.22499
3332.39384,0.22682
3334.32231,0.22698
3336.25078,0.22505
3338.17925,0.22147
3340.10772,0.21773
3342.03619,0.21598
3343.96466,0.21656
3345.89312,0.21828
3347.82159,0.21979
3349.75006,0.22067
3351.67853,0.22176
3353.60700,0.22183
3355.53547,0.22007
3357.46394,0.22015
3359.39240,0.22354
3361.32087,0.22631
3363.24934,0.22552
3365.17781,0.22410
3367.10628,0.22539
3369.03475,0.22750
3370.96322,0.22913
3372.89168,0.23161
3374.82015,0.23255
3376.74862,0.22954
3378.67709,0.22606
3380.60556,0.22457
3382.53403,0.22268
3384.46250,0.21960
3386.39097,0.21807
3388.31943,0.22038
3390.24790,0.22435
3392.17637,0.22525
3394.10484,0.22449
3396.03331,0.22526
3397.96178,0.22449
3399.89025,0.22116
3401.81871,0.21848
3403.74718,0.21690
3405.67565,0.21476
3407.60412,0.21264
3409.53259,0.21211
3411.46106,0.21159
3413.38953,0.21037
3415.31800,0.21104
3417.24646,0.21432
3419.17493,0.21792
3421.10340,0.21862
3423.03187,0.21584
3424.96034,0.21423
3426.88881,0.21712
3428.81728,0.22054
3430.74574,0.21917
3432.67421,0.21510
3434.60268,0.21186
3436.53115,0.21011
3438.45962,0.21167
3440.38809,0.21509
3442.31656,0.21597
3444.24503,0.21487
3446.17349,0.21517
3448.10196,0.21427
3450.03043,0.20844
3451.95890,0.20324
3453.88737,0.20330
3455.81584,0.20597
3457.74431,0.20828
3459.67277,0.20829
3461.60124,0.20583
3463.52971,0.20422
3465.45818,0.20565
3467.38665,0.20668
3469.31512,0.20497
3471.24359,0.20358
3473.17206,0.20229
3475.10052,0.19921
3477.02899,0.19708
3478.95746,0.19839
3480.88593,0.20030
3482.81440,0.19823
3484.74287,0.19517
3486.67134,0.19622
3488.59980,0.19804
3490.52827,0.19612
3492.45674,0.19256
3494.38521,0.19240
3496.31368,0.19543
3498.24215,0.19478
3500.17062,0.19216
3502.09909,0.19379
3504.02755,0.19421
3505.95602,0.19123
3507.88449,0.19144
3509.81296,0.19321
3511.74143,0.19174
3513.66990,0.18798
3515.59837,0.18562
3517.52683,0.18723
3519.45530,0.19024
3521.38377,0.19164
3523.31224,0.19346
3525.24071,0.19733
3527.16918,0.20008
3529.09765,0.19696
3531.02611,0.18836
3532.95458,0.18160
3534.88305,0.18177
3536.81152,0.18312
3538.73999,0.17910
3540.66846,0.17674
3542.59693,0.18132
3544.52540,0.18736
3546.45386,0.18900
3548.38233,0.18644
3550.31080,0.18515
3552.23927,0.18451
3554.16774,0.17958
3556.09621,0.17586
3558.02468,0.17831
3559.95314,0.18153
3561.88161,0.18231
3563.81008,0.18680
3565.73855,0.19659
3567.66702,0.19617
3569.59549,0.18142
3571.52396,0.17107
3573.45243,0.16939
3575.38089,0.17060
3577.30936,0.17112
3579.23783,0.16989
3581.16630,0.16806
3583.09477,0.17244
3585.02324,0.18772
3586.95171,0.19895
3588.88017,0.18456
3590.80864,0.16989
3592.73711,0.17349
3594.66558,0.18234
3596.59405,0.18237
3598.52252,0.17805
3600.45099,0.17358
3602.37946,0.16632
3604.30792,0.16125
3606.23639,0.16525
3608.16486,0.17449
3610.09333,0.18043
3612.02180,0.18253
3613.95027,0.17927
3615.87874,0.17618
3617.80720,0.18089
3619.73567,0.18225
3621.66414,0.17298
3623.59261,0.16602
3625.52108,0.16772
3627.44955,0.17680
3629.37802,0.17704
3631.30649,0.16425
3633.23495,0.15831
3635.16342,0.15732
3637.09189,0.15647
3639.02036,0.15524
3640.94883,0.15351
3642.87730,0.15487
3644.80577,0.16322
3646.73423,0.18229
3648.66270,0.20535
3650.59117,0.19631
3652.51964,0.17215
3654.44811,0.16166
3656.37658,0.15902
3658.30505,0.15355
3660.23352,0.14641
3662.16198,0.14116
3664.09045,0.13945
3666.01892,0.14334
3667.94739,0.15631
3669.87586,0.17247
3671.80433,0.17757
3673.73280,0.18371
3675.66126,0.18768
3677.58973,0.17219
3679.51820,0.15532
3681.44667,0.14466
3683.37514,0.14106
3685.30361,0.14701
3687.23208,0.16200
3689.16055,0.17605
3691.08901,0.16923
3693.01748,0.15165
3694.94595,0.14093
3696.87442,0.13700
3698.80289,0.13896
3700.73136,0.14552
3702.65983,0.14580
3704.58829,0.14068
3706.51676,0.14251
3708.44523,0.15422
3710.37370,0.17016
3712.30217,0.17079
3714.23064,0.15545
3716.15911,0.14564
3718.08757,0.14564
3720.01604,0.15209
3721.94451,0.16094
3723.87298,0.16408
3725.80145,0.15770
3727.72992,0.14931
3729.65839,0.14914
3731.58686,0.15915
3733.51532,0.17502
3735.44379,0.18782
3737.37226,0.18294
3739.30073,0.17029
3741.22920,0.16788
3743.15767,0.17964
3745.08614,0.19143
3747.01460,0.18992
3748.94307,0.19307
3750.87154,0.19771
3752.80001,0.18194
3754.72848,0.16491
3756.65695,0.16106
3758.58542,0.16303
3760.51389,0.15623
3762.44235,0.14597
3764.37082,0.14306
3766.29929,0.14506
3768.22776,0.14788
3770.15623,0.14765
3772.08470,0.14020
3774.01317,0.13379
3775.94163,0.13457
3777.87010,0.13971
3779.79857,0.14091
3781.72704,0.13712
3783.65551,0.13615
3785.58398,0.13701
3787.51245,0.13499
3789.44092,0.13124
3791.36938,0.12997
3793.29785,0.13422
3795.22632,0.14231
3797.15479,0.15041
3799.08326,0.15952
3801.01173,0.16484
3802.94020,0.15559
3804.86866,0.15043
3806.79713,0.15089
3808.72560,0.14134
3810.65407,0.13130
3812.58254,0.13134
3814.51101,0.14084
3816.43948,0.15113
3818.36795,0.15569
3820.29641,0.16073
3822.22488,0.15836
3824.15335,0.15036
3826.08182,0.14516
3828.01029,0.14106
3829.93876,0.14028
3831.86723,0.14127
3833.79569,0.14306
3835.72416,0.15257
3837.65263,0.16507
3839.58110,0.16382
3841.50957,0.15533
3843.43804,0.14871
3845.36651,0.14130
3847.29498,0.13837
3849.22344,0.14684
3851.15191,0.16704
3853.08038,0.18323
3855.00885,0.16218
3856.93732,0.13798
3858.86579,0.12901
3860.79426,0.13161
3862.72272,0.14086
3864.65119,0.14747
3866.57966,0.15098
3868.50813,0.15883
3870.43660,0.16270
3872.36507,0.15475
3874.29354,0.14378
3876.22200,0.13412
3878.15047,0.13242
3880.07894,0.13819
3882.00741,0.14010
3883.93588,0.13933
3885.86435,0.13787
3887.79282,0.13162
3889.72129,0.12731
3891.64975,0.12818
3893.57822,0.12820
3895.50669,0.12791
3897.43516,0.13309
3899.36363,0.14254
3901.29210,0.14930
3903.22057,0.14842
3905.14903,0.13909
3907.07750,0.12799
3909.00597,0.12160
3910.93444,0.11967
3912.86291,0.11961
3914.79138,0.12180
3916.71985,0.12491
3918.64832,0.12310
3920.57678,0.12027
3922.50525,0.12344
3924.43372,0.12759
3926.36219,0.12635
3928.29066,0.12424
3930.21913,0.12341
3932.14760,0.11885
3934.07606,0.11306
3936.00453,0.11394
3937.93300,0.11920
3939.86147,0.12268
3941.78994,0.12281
3943.71841,0.12121
3945.64688,0.12249
3947.57535,0.12545
3949.50381,0.12168
3951.43228,0.11246
3953.36075,0.10707
3955.28922,0.10817
3957.21769,0.11211
3959.14616,0.11310
3961.07463,0.10990
3963.00309,0.10671
3964.93156,0.10596
3966.86003,0.10652
3968.78850,0.10755
3970.71697,0.11004
3972.64544,0.11295
3974.57391,0.11312
3976.50238,0.11111
3978.43084,0.11022
3980.35931,0.11180
3982.28778,0.11269
3984.21625,0.11021
3986.14472,0.10702
3988.07319,0.10554
3990.00166,0.10461
3991.93012,0.10153
3993.85859,0.09838
3995.78706,0.09940
3997.71553,0.10271
3999.64400,0.10550
4001.57247,0.10757
4003.50094,0.10760
4005.42941,0.10459
4007.35787,0.10180
4009.28634,0.10200
4011.21481,0.10272
4013.14328,0.10173
4015.07175,0.10034
4017.00022,0.10159
4018.92869,0.10570
4020.85715,0.10842
4022.78562,0.10760
4024.71409,0.10525
4026.64256,0.10298
4028.57103,0.10175
4030.49950,0.10169
4032.42797,0.10105
4034.35644,0.09994
4036.28490,0.09968
4038.21337,0.09780
4040.14184,0.09437
4042.07031,0.09429
4043.99878,0.09494
4045.92725,0.09281
4047.85572,0.09279
4049.78418,0.09516
4051.71265,0.09591
4053.64112,0.09662
4055.56959,0.09978
4057.49806,0.10193
4059.42653,0.09843
4061.35500,0.09217
4063.28346,0.09059
4065.21193,0.09457
4067.14040,0.09823
4069.06887,0.09845
4070.99734,0.09691
4072.92581,0.09602
4074.85428,0.09494
4076.78275,0.09294
4078.71121,0.09371
4080.63968,0.09747
4082.56815,0.10064
4084.49662,0.10138
4086.42509,0.09822
4088.35356,0.09305
4090.28203,0.09142
4092.21049,0.09278
4094.13896,0.09048
4096.06743,0.08520
4097.99590,0.08257
4099.92437,0.08302
4101.85284,0.08574
4103.78131,0.08740
4105.70978,0.08536
4107.63824,0.08519
4109.56671,0.08864
4111.49518,0.09150
4113.42365,0.09280
4115.35212,0.09217
4117.28059,0.09212
4119.20906,0.09474
4121.13752,0.09396
4123.06599,0.08913
4124.99446,0.08755
4126.92293,0.08909
4128.85140,0.08994
4130.77987,0.09082
4132.70834,0.09254
4134.63681,0.09118
4136.56527,0.08588
4138.49374,0.08273
4140.42221,0.08382
4142.35068,0.08723
4144.27915,0.09111
4146.20762,0.09351
4148.13609,0.09280
4150.06455,0.08782
4151.99302,0.08335
4153.92149,0.08477
4155.84996,0.08630
4157.77843,0.08348
4159.70690,0.08375
4161.63537,0.08704
4163.56384,0.08370
4165.49230,0.07609
4167.42077,0.07265
4169.34924,0.07314
4171.27771,0.07497
4173.20618,0.07887
4175.13465,0.08265
4177.06312,0.08143
4178.99158,0.07628
4180.92005,0.07249
4182.84852,0.07111
4184.77699,0.07153
4186.70546,0.07361
4188.63393,0.07422
4190.56240,0.07355
4192.49087,0.07350
4194.41933,0.07272
4196.34780,0.07136
4198.27627,0.07028
4200.20474,0.07038
4202.13321,0.07181
4204.06168,0.07211
4205.99015,0.06996
4207.91861,0.06915
4209.84708,0.07234
4211.77555,0.07518
4213.70402,0.07438
4215.63249,0.07077
4217.56096,0.06729
4219.48943,0.06607
4221.41789,0.06576
4223.34636,0.06519
4225.27483,0.06396
4227.20330,0.06243
4229.13177,0.06258
4231.06024,0.06445
4232.98871,0.06593
4234.91718,0.06655
4236.84564,0.06790
4238.77411,0.07048
4240.70258,0.07458
4242.63105,0.08107
4244.55952,0.08473
4246.48799,0.08071
4248.41646,0.07474
4250.34492,0.07074
4252.27339,0.06780
4254.20186,0.06746
4256.13033,0.06882
4258.05880,0.06853
4259.98727,0.06649
4261.91574,0.06521
4263.84421,0.06510
4265.77267,0.06526
4267.70114,0.06588
4269.62961,0.06424
4271.55808,0.06019
4273.48655,0.06139
4275.41502,0.06456
4277.34349,0.05923
4279.27195,0.05287
4281.20042,0.05572
4283.12889,0.06248
4285.05736,0.06422
4286.98583,0.06059
4288.91430,0.05654
4290.84277,0.05597
4292.77124,0.05838
4294.69970,0.05812
4296.62817,0.05738
4298.55664,0.06104
4300.48511,0.06228
4302.41358,0.05720
4304.34205,0.05455
4306.27052,0.05806
4308.19898,0.05788
4310.12745,0.05288
4312.05592,0.05221
4313.98439,0.05456
4315.91286,0.05307
4317.84133,0.04908
4319.76980,0.04926
4321.69827,0.05234
4323.62673,0.05061
4325.55520,0.04408
4327.48367,0.03879
4329.41214,0.03668
4331.34061,0.03598
4333.26908,0.03540
4335.19755,0.03602
4337.12601,0.03803
4339.05448,0.03893
4340.98295,0.04018
4342.91142,0.04402
4344.83989,0.04688
4346.76836,0.04645
4348.69683,0.04712
4350.62530,0.05014
4352.55376,0.04836
4354.48223,0.04179
4356.41070,0.03989
4358.33917,0.04508
4360.26764,0.05128
4362.19611,0.05217
4364.12458,0.04708
4366.05304,0.04065
4367.98151,0.03605
4369.90998,0.03428
4371.83845,0.03360
4373.76692,0.03183
4375.69539,0.03137
4377.62386,0.03404
4379.55232,0.03761
4381.48079,0.03739
4383.40926,0.03313
4385.33773,0.03131
4387.26620,0.03308
4389.19467,0.03350
4391.12314,0.03253
4393.05161,0.03364
4394.98007,0.03778
4396.90854,0.04151
4398.83701,0.04098
4400.76548,0.04169
4402.69395,0.04607
4404.62242,0.04309
4406.55089,0.03198
4408.47935,0.02661
4410.40782,0.02974
4412.33629,0.03184
4414.26476,0.03067
4416.19323,0.02883
4418.12170,0.02656
4420.05017,0.02499
4421.97864,0.02648
4423.90710,0.02987
4425.83557,0.02919
4427.76404,0.02635
4429.69251,0.02674
4431.62098,0.02874
4433.54945,0.03134
4435.47792,0.03235
4437.40638,0.02961
4439.33485,0.02766
4441.26332,0.02845
4443.19179,0.02814
4445.12026,0.02671
4447.04873,0.02665
4448.97720,0.02819
4450.90567,0.02941
4452.83413,0.02845
4454.76260,0.02659
4456.69107,0.02273
4458.61954,0.01659
4460.54801,0.01517
4462.47648,0.01939
4464.40495,0.02015
4466.33341,0.01504
4468.26188,0.00981
4470.19035,0.00922
4472.11882,0.01367
4474.04729,0.01827
4475.97576,0.01870
4477.90423,0.01481
4479.83270,0.01001
4481.76116,0.00888
4483.68963,0.01028
4485.61810,0.00911
4487.54657,0.00642
4489.47504,0.00765
4491.40351,0.01050
4493.33198,0.00903
4495.26044,0.00594
4497.18891,0.00499
4499.11738,0.00421
4501.04585,0.00596
4502.97432,0.01265
4504.90279,0.01642
4506.83126,0.01431
4508.75973,0.01102
4510.68819,0.00523
4512.61666,-0.00308
4514.54513,-0.00660
4516.47360,-0.00068
4518.40207,0.00959
4520.33054,0.01692
4522.25901,0.02170
4524.18747,0.02199
4526.11594,0.01412
4528.04441,0.00817
4529.97288,0.01039
4531.90135,0.01227
4533.82982,0.01046
4535.75829,0.00547
4537.68676,-0.00247
4539.61522,-0.00578
4541.54369,0.00089
4543.47216,0.01386
4545.40063,0.02535
4547.32910,0.02541
4549.25757,0.01487
4551.18604,0.00549
4553.11450,0.00130
4555.04297,0.00012
4556.97144,0.00109
4558.89991,0.00211
4560.82838,-0.00027
4562.75685,-0.00386
4564.68532,-0.00121
4566.61378,0.00514
4568.54225,0.00627
4570.47072,0.00353
4572.39919,0.00375
4574.32766,0.00651
4576.25613,0.00475
4578.18460,-0.00176
4580.11307,-0.00228
4582.04153,0.00469
4583.97000,0.00745
4585.89847,0.00439
4587.82694,0.00466
4589.75541,0.01067
4591.68388,0.01420
4593.61235,0.01182
4595.54081,0.00648
4597.46928,0.00008
4599.39775,-0.00223
4601.32622,0.00080
4603.25469,0.00380
4605.18316,0.00161
4607.11163,-0.00173
4609.04010,-0.00079
4610.96856,0.00227
4612.89703,0.00769
4614.82550,0.01061
4616.75397,0.00385
4618.68244,-0.00315
4620.61091,0.00025
4622.53938,0.00501
4624.46784,0.00496
4626.39631,0.00590
4628.32478,0.00459
4630.25325,-0.00085
4632.18172,-0.00054
4634.11019,0.00938
4636.03866,0.01775
4637.96713,0.01678
4639.89559,0.01021
4641.82406,0.00168
4643.75253,-0.00477
4645.68100,-0.00349
4647.60947,0.00387
4649.53794,0.00622
4651.46641,0.00229
4653.39487,0.00038
4655.32334,0.00124
4657.25181,0.00408
4659.18028,0.00823
4661.10875,0.00968
4663.03722,0.00332
4664.96569,-0.00602
4666.89416,-0.00699
4668.82262,-0.00214
4670.75109,0.00104
4672.67956,0.00061
4674.60803,-0.00207
4676.53650,-0.00269
4678.46497,-0.00330
4680.39344,-0.00105
4682.32190,0.00799
4684.25037,0.01248
4686.17884,0.00785
4688.10731,-0.00233
4690.03578,-0.01054
4691.96425,-0.00325
4693.89272,0.01304
4695.82119,0.01928
4697.74965,0.01638
4699.67812,0.01205
4701.60659,0.00439
4703.53506,-0.00152
4705.46353,0.00113
4707.39200,0.00666
4709.32047,0.00773
4711.24893,0.00303
4713.17740,-0.00184
4715.10587,-0.00245
4717.03434,-0.00293
4718.96281,-0.00664
4720.89128,-0.01027
4722.81975,-0.00943
4724.74821,-0.00414
4726.67668,-0.00043
4728.60515,0.00335
4730.53362,0.00969
4732.46209,0.01051
4734.39056,0.00659
4736.31903,0.00801
4738.24750,0.01404
4740.17596,0.01401
4742.10443,0.00548
4744.03290,0.00080
4745.96137,0.00467
4747.88984,0.00929
4749.81831,0.01158
4751.74678,0.01002
4753.67524,0.00101
4755.60371,-0.00982
4757.53218,-0.01152
4759.46065,-0.00273
4761.38912,0.00785
4763.31759,0.01041
4765.24606,0.00882
4767.17453,0.01048
4769.10299,0.00789
4771.03146,0.00262
4772.95993,0.00286
4774.88840,-0.00020
4776.81687,-0.00559
4778.74534,0.00080
4780.67381,0.01052
4782.60227,0.00661
4784.53074,-0.00243
4786.45921,-0.00286
4788.38768,0.00180
4790.31615,0.00397
4792.24462,0.00017
4794.17309,-0.00672
4796.10156,-0.00710
4798.03002,-0.00012
4799.95849,0.00513
4801.88696,0.00813
4803.81543,0.01156
4805.74390,0.01212
4807.67237,0.00950
4809.60084,0.00690
4811.52930,0.00489
4813.45777,0.00071
4815.38624,-0.00615
4817.31471,-0.00765
4819.24318,-0.00007
4821.17165,0.00582
4823.10012,0.00212
4825.02859,-0.00633
4826.95705,-0.00804
4828.88552,0.00229
4830.81399,0.01029
4832.74246,0.00641
4834.67093,0.00563
4836.59940,0.01026
4838.52787,0.00326
4840.45633,-0.00695
4842.38480,-0.00357
4844.31327,0.00422
4846.24174,0.00374
4848.17021,0.00053
4850.09868,0.00300
4852.02715,0.00450
4853.95562,0.00154
4855.88408,0.00066
4857.81255,0.00212
4859.74102,0.00297
4861.66949,0.00372
4863.59796,0.00425
4865.52643,0.00409
4867.45490,0.00842
4869.38336,0.01612
4871.31183,0.01382
4873.24030,0.00597
4875.16877,0.00961
4877.09724,0.01613
4879.02571,0.01394
4880.95418,0.00992
4882.88265,0.00668
4884.81111,0.00210
4886.73958,-0.00124
4888.66805,-0.00111
4890.59652,0.00375
4892.52499,0.00799
4894.45346,0.00365
4896.38193,-0.00367
4898.31039,-0.00803
4900.23886,-0.00893
4902.16733,-0.00166
4904.09580,0.00944
4906.02427,0.01514
4907.95274,0.01550
4909.88121,0.01286
4911.80967,0.00996
4913.73814,0.01113
4915.66661,0.01809
4917.59508,0.02496
4919.52355,0.02328
4921.45202,0.01654
4923.38049,0.01077
4925.30896,0.00455
4927.23742,0.00156
4929.16589,0.00302
4931.09436,0.00486
4933.02283,0.00876
4934.95130,0.01590
4936.87977,0.02269
4938.80824,0.02223
4940.73670,0.01400
4942.66517,0.00603
4944.59364,-0.00122
4946.52211,-0.00775
4948.45058,-0.00706
4950.37905,-0.00115
4952.30752,-0.00010
4954.23599,-0.00377
4956.16445,-0.00190
4958.09292,0.00378
4960.02139,0.00335
4961.94986,-0.00494
4963.87833,-0.01295
4965.80680,-0.01370
4967.73527,-0.00659
4969.66373,0.00790
4971.59220,0.01997
4973.52067,0.01683
4975.44914,0.00163
4977.37761,-0.00597
4979.30608,0.00230
4981.23455,0.01121
4983.16302,0.01190
4985.09148,0.00750
4987.01995,0.00657
4988.94842,0.01351
4990.87689,0.01932
4992.80536,0.02108
4994.73383,0.02515
4996.66230,0.02997
4998.59076,0.02847
5000.51923,0.02141
5002.44770,0.01306
5004.37617,0.00751
5006.30464,0.00566
5008.23311,0.00409
5010.16158,0.00292
5012.09005,0.00233
5014.01851,0.00180
5015.94698,0.00220
5017.87545,0.00429
5019.80392,0.01090
5021.73239,0.02025
5023.66086,0.02630
5025.58933,0.03055
5027.51779,0.03341
5029.44626,0.02721
5031.37473,0.01260
5033.30320,0.00476
5035.23167,0.00815
5037.16014,0.01250
5039.08861,0.01942
5041.01708,0.02817
5042.94554,0.02846
5044.87401,0.02244
5046.80248,0.01834
5048.73095,0.01844
5050.65942,0.01930
5052.58789,0.01977
5054.51636,0.02310
5056.44482,0.02618
5058.37329,0.01999
5060.30176,0.00994
5062.23023,0.00854
5064.15870,0.01090
5066.08717,0.01010
5068.01564,0.01071
5069.94410,0.01533
5071.87257,0.02023
5073.80104,0.02459
5075.72951,0.02552
5077.65798,0.01975
5079.58645,0.01310
5081.51492,0.01227
5083.44339,0.01750
5085.37185,0.01959
5087.30032,0.01519
5089.22879,0.01577
5091.15726,0.02441
5093.08573,0.03222
5095.01420,0.03384
5096.94267,0.02550
5098.87113,0.01407
5100.79960,0.01412
5102.72807,0.01585
5104.65654,0.01255
5106.58501,0.01256
5108.51348,0.00559
5110.44195,-0.00452
5112.37042,0.00273
5114.29888,0.01981
5116.22735,0.03158
5118.15582,0.02917
5120.08429,0.01175
5122.01276,0.00193
5123.94123,0.00856
5125.86970,0.01458
5127.79816,0.01686
5129.72663,0.02337
5131.65510,0.03123
5133.58357,0.03242
5135.51204,0.02485
5137.44051,0.02156
5139.36898,0.03729
5141.29745,0.05791
5143.22591,0.05906
5145.15438,0.04837
5147.08285,0.04838
5149.01132,0.05272
5150.93979,0.04250
5152.86826,0.02715
5154.79673,0.02786
5156.72519,0.04164
5158.65366,0.04777
5160.58213,0.04321
5162.51060,0.03489
5164.43907,0.02208
5166.36754,0.01558
5168.29601,0.02346
5170.22448,0.02865
5172.15294,0.02288
5174.08141,0.01833
5176.00988,0.01732
5177.93835,0.01621
5179.86682,0.01780
5181.79529,0.02580
5183.72376,0.03192
5185.65222,0.02560
5187.58069,0.02159
5189.50916,0.03087
5191.43763,0.03923
5193.36610,0.04213
5195.29457,0.04161
5197.22304,0.03375
5199.15151,0.03221
5201.07997,0.04506
5203.00844,0.05280
5204.93691,0.05095
5206.86538,0.05589
5208.79385,0.06335
5210.72232,0.06232
5212.65079,0.06212
5214.57925,0.06138
5216.50772,0.05192
5218.43619,0.04208
5220.36466,0.04238
5222.29313,0.04985
5224.22160,0.05465
5226.15007,0.05288
5228.07854,0.04745
5230.00700,0.04074
5231.93547,0.03930
5233.86394,0.04809
5235.79241,0.05365
5237.72088,0.04445
5239.64935,0.03373
5241.57782,0.03502
5243.50628,0.04686
5245.43475,0.05418
5247.36322,0.04769
5249.29169,0.04190
5251.22016,0.04362
5253.14863,0.04772
5255.07710,0.05046
5257.00556,0.04560
5258.93403,0.03679
5260.86250,0.03324
5262.79097,0.03619
5264.71944,0.04340
5266.64791,0.05012
5268.57638,0.04697
5270.50485,0.03738
5272.43331,0.03484
5274.36178,0.04341
5276.29025,0.05079
5278.21872,0.04358
5280.14719,0.03485
5282.07566,0.03846
5284.00413,0.04580
5285.93259,0.04974
5287.86106,0.05198
5289.78953,0.05419
5291.71800,0.05555
5293.64647,0.05470
5295.57494,0.04527
5297.50341,0.03171
5299.43188,0.02867
5301.36034,0.03146
5303.28881,0.03174
5305.21728,0.03465
5307.14575,0.04636
5309.07422,0.05822
5311.00269,0.05544
5312.93116,0.05157
5314.85962,0.06228
5316.78809,0.07291
5318.71656,0.06747
5320.64503,0.05166
5322.57350,0.04078
5324.50197,0.04534
5326.43044,0.05732
5328.35891,0.05974
5330.28737,0.05297
5332.21584,0.04915
5334.14431,0.04865
5336.07278,0.04514
5338.00125,0.04872
5339.92972,0.06519
5341.85819,0.07581
5343.78665,0.06889
5345.71512,0.04950
5347.64359,0.03827
5349.57206,0.04463
5351.50053,0.05879
5353.42900,0.06353
5355.35747,0.05471
5357.28594,0.04996
5359.21440,0.06043
5361.14287,0.07528
5363.07134,0.07668
5364.99981,0.06578
5366.92828,0.05368
5368.85675,0.04258
5370.78522,0.03891
5372.71368,0.05174
5374.64215,0.06954
5376.57062,0.06570
5378.49909,0.04554
5380.42756,0.03887
5382.35603,0.05139
5384.28450,0.06395
5386.21297,0.05354
5388.14143,0.03724
5390.06990,0.04083
5391.99837,0.05159
5393.92684,0.05438
5395.85531,0.06006
5397.78378,0.07117
5399.71225,0.07694
5401.64071,0.07574
5403.56918,0.06492
5405.49765,0.04995
5407.42612,0.04809
5409.35459,0.06055
5411.28306,0.07058
5413.21153,0.07196
5415.13999,0.07178
5417.06846,0.06580
5418.99693,0.05513
5420.92540,0.04688
5422.85387,0.03894
5424.78234,0.03843
5426.71081,0.05377
5428.63928,0.07610
5430.56774,0.08870
5432.49621,0.08955
5434.42468,0.08266
5436.35315,0.06564
5438.28162,0.05082
5440.21009,0.04994
5442.13856,0.05188
5444.06702,0.04889
5445.99549,0.05192
5447.92396,0.05652
5449.85243,0.05740
5451.78090,0.06426
5453.70937,0.06745
5455.63784,0.06340
5457.56631,0.05718
5459.49477,0.03971
5461.42324,0.02515
5463.35171,0.03062
5465.28018,0.04960
5467.20865,0.07716
5469.13712,0.09412
5471.06559,0.08426
5472.99405,0.07031
5474.92252,0.06649
5476.85099,0.06419
5478.77946,0.06868
5480.70793,0.08266
5482.63640,0.08687
5484.56487,0.07661
5486.49334,0.06930
5488.42180,0.06744
5490.35027,0.06482
5492.27874,0.06275
5494.20721,0.06330
5496.13568,0.07271
5498.06415,0.09057
5499.99262,0.10084
5501.92108,0.08972
5503.84955,0.06841
5505.77802,0.05903
5507.70649,0.06338
5509.63496,0.06780
5511.56343,0.07096
5513.49190,0.07413
5515.42037,0.06815
5517.34883,0.05231
5519.27730,0.04610
5521.20577,0.05387
5523.13424,0.05785
5525.06271,0.05423
5526.99118,0.04901
5528.91965,0.05354
5530.84811,0.07233
5532.77658,0.08107
5534.70505,0.07137
5536.63352,0.05739
5538.56199,0.04574
5540.49046,0.04350
5542.41893,0.05294
5544.34740,0.06875
5546.27586,0.08867
5548.20433,0.09094
5550.13280,0.06651
5552.06127,0.04962
5553.98974,0.05782
5555.91821,0.07473
5557.84668,0.08157
5559.77514,0.07863
5561.70361,0.08149
5563.63208,0.08600
5565.56055,0.08090
5567.48902,0.07817
5569.41749,0.08795
5571.34596,0.09691
5573.27443,0.09344
5575.20289,0.08237
5577.13136,0.07061
5579.05983,0.06661
5580.98830,0.07936
5582.91677,0.09657
5584.84524,0.09983
5586.77371,0.09755
5588.70217,0.10317
5590.63064,0.10279
5592.55911,0.08136
5594.48758,0.05890
5596.41605,0.05172
5598.34452,0.04234
5600.27299,0.03002
5602.20145,0.03986
5604.12992,0.06042
5606.05839,0.06399
5607.98686,0.05930
5609.91533,0.05457
5611.84380,0.04768
5613.77227,0.05366
5615.70074,0.07337
5617.62920,0.08863
5619.55767,0.09405
5621.48614,0.09354
5623.41461,0.08477
5625.34308,0.07572
5627.27155,0.07535
5629.20002,0.08152
5631.12848,0.09660
5633.05695,0.10506
5634.98542,0.09377
5636.91389,0.07879
5638.84236,0.06814
5640.77083,0.06508
5642.69930,0.07658
5644.62777,0.08589
5646.55623,0.08264
5648.48470,0.08233
5650.41317,0.08808
5652.34164,0.10007
5654.27011,0.10911
5656.19858,0.10164
5658.12705,0.08854
5660.05551,0.07341
5661.98398,0.06424
5663.91245,0.07331
5665.84092,0.08644
5667.76939,0.09086
5669.69786,0.07921
5671.62633,0.05749
5673.55480,0.04902
5675.48326,0.06547
5677.41173,0.10297
5679.34020,0.13159
5681.26867,0.12638
5683.19714,0.10305
5685.12561,0.08726
5687.05408,0.08597
5688.98254,0.08846
5690.91101,0.09128
5692.83948,0.09897
5694.76795,0.10502
5696.69642,0.10632
5698.62489,0.10360
5700.55336,0.09478
5702.48183,0.09043
5704.41029,0.09722
5706.33876,0.10221
5708.26723,0.10821
5710.19570,0.12463
5712.12417,0.13682
5714.05264,0.11924
5715.98111,0.07813
5717.90957,0.06070
5719.83804,0.07187
5721.76651,0.07227
5723.69498,0.06225
5725.62345,0.07226
5727.55192,0.10835
5729.48039,0.13528
5731.40886,0.13273
5733.33732,0.11686
5735.26579,0.09985
5737.19426,0.08641
5739.12273,0.08382
5741.05120,0.08884
5742.97967,0.08988
5744.90814,0.08689
5746.83660,0.08738
5748.76507,0.10011
5750.69354,0.11315
5752.62201,0.10731
5754.55048,0.09084
5756.47895,0.07251
5758.40742,0.05670
5760.33588,0.05111
5762.26435,0.06468
5764.19282,0.09678
5766.12129,0.11708
5768.04976,0.10359
5769.97823,0.08613
5771.90670,0.09706
5773.83517,0.11515
5775.76363,0.10419
5777.69210,0.07380
5779.62057,0.07095
5781.54904,0.10463
5783.47751,0.12955
5785.40598,0.12482
5787.33445,0.10794
5789.26291,0.08472
5791.19138,0.06599
5793.11985,0.07022
5795.04832,0.07947
5796.97679,0.07141
5798.90526,0.06034
5800.83373,0.06104
5802.76220,0.06325
5804.69066,0.06202
5806.61913,0.05800
5808.54760,0.05158
5810.47607,0.04697
5812.40454,0.04263
5814.33301,0.05592
5816.26148,0.08730
5818.18994,0.10970
5820.11841,0.12362
5822.04688,0.13017
5823.97535,0.12014
5825.90382,0.09626
5827.83229,0.07096
5829.76076,0.06045
5831.68923,0.06360
5833.61769,0.06711
5835.54616,0.07088
5837.47463,0.07646
5839.40310,0.07387
5841.33157,0.06391
5843.26004,0.05011
5845.18851,0.03671
5847.11697,0.04014
5849.04544,0.06500
5850.97391,0.09090
5852.90238,0.09444
5854.83085,0.07821
5856.75932,0.06423
5858.68779,0.07180
5860.61626,0.09036
5862.54472,0.09876
5864.47319,0.10552
5866.40166,0.11207
5868.33013,0.10429
5870.25860,0.08809
5872.18707,0.08216
5874.11554,0.09060
5876.04400,0.09875
5877.97247,0.10174
5879.90094,0.10123
5881.82941,0.09534
5883.75788,0.08474
5885.68635,0.07541
5887.61482,0.07464
5889.54329,0.07053
5891.47175,0.06197
5893.40022,0.06649
5895.32869,0.07782
5897.25716,0.07817
5899.18563,0.06659
5901.11410,0.05412
5903.04257,0.05253
5904.97103,0.06044
5906.89950,0.06199
5908.82797,0.06195
5910.75644,0.08062
5912.68491,0.09774
5914.61338,0.08601
5916.54185,0.06783
5918.47032,0.06745
5920.39878,0.07450
5922.32725,0.07282
5924.25572,0.06550
5926.18419,0.06128
5928.11266,0.06093
5930.04113,0.07217
5931.96960,0.08840
5933.89806,0.07769
5935.82653,0.04372
5937.75500,0.02267
5939.68347,0.02003
5941.61194,0.03331
5943.54041,0.05694
5945.46888,0.07326
5947.39734,0.09020
5949.32581,0.10039
5951.25428,0.07167
5953.18275,0.03209
5955.11122,0.02964
5957.03969,0.06460
5958.96816,0.09725
5960.89663,0.08784
5962.82509,0.06221
5964.75356,0.05994
5966.68203,0.08024
5968.61050,0.09487
5970.53897,0.08260
5972.46744,0.06670
5974.39591,0.06475
5976.32437,0.06987
5978.25284,0.08130
5980.18131,0.08304
5982.10978,0.06692
5984.03825,0.04872
5985.96672,0.04759
5987.89519,0.07935
5989.82366,0.11773
5991.75212,0.11103
5993.68059,0.06520
5995.60906,0.02867
5997.53753,0.02453
5999.46600,0.04144
6001.39447,0.06497
6003.32294,0.08987
6005.25140,0.09730
6007.17987,0.08585
6009.10834,0.09387
6011.03681,0.10979
6012.96528,0.10050
6014.89375,0.07570
6016.82222,0.05516
6018.75069,0.05387
6020.67915,0.05917
6022.60762,0.05462
6024.53609,0.04523
6026.46456,0.04313
6028.39303,0.06523
6030.32150,0.08888
6032.24997,0.09109
6034.17843,0.09151
6036.10690,0.08522
6038.03537,0.06564
6039.96384,0.06399
6041.89231,0.07486
6043.82078,0.06795
6045.74925,0.06063
6047.67772,0.06557
6049.60618,0.08146
6051.53465,0.11587
6053.46312,0.13637
6055.39159,0.12261
6057.32006,0.10860
6059.24853,0.12047
6061.17700,0.14231
6063.10546,0.15376
6065.03393,0.15916
6066.96240,0.13648
6068.89087,0.07510
6070.81934,0.03141
6072.74781,0.04321
6074.67628,0.07593
6076.60475,0.08710
6078.53321,0.09023
6080.46168,0.10567
6082.39015,0.11387
6084.31862,0.09273
6086.24709,0.05897
6088.17556,0.04856
6090.10403,0.04787
6092.03249,0.04170
6093.96096,0.04874
6095.88943,0.06392
6097.81790,0.07128
6099.74637,0.06114
6101.67484,0.04080
6103.60331,0.04271
6105.53177,0.06486
6107.46024,0.07285
6109.38871,0.06362
6111.31718,0.05329
6113.24565,0.03613
6115.17412,0.02577
6117.10259,0.03227
6119.03106,0.04138
6120.95952,0.06999
6122.88799,0.10518
6124.81646,0.11782
6126.74493,0.13348
6128.67340,0.15235
6130.60187,0.13759
6132.53034,0.10059
6134.45880,0.08242
6136.38727,0.07917
6138.31574,0.06366
6140.24421,0.05057
6142.17268,0.04387
6144.10115,0.03355
6146.02962,0.03748
6147.95809,0.06199
6149.88655,0.10419
6151.81502,0.12042
6153.74349,0.08598
6155.67196,0.06568
6157.60043,0.06742
6159.52890,0.05881
6161.45737,0.06329
6163.38583,0.09007
6165.31430,0.09652
6167.24277,0.06508
6169.17124,0.04571
6171.09971,0.07061
6173.02818,0.09359
6174.95665,0.07236
6176.88512,0.02237
6178.81358,-0.00797
6180.74205,0.01180
6182.67052,0.05053
6184.59899,0.06774
6186.52746,0.07059
6188.45593,0.08244
6190.38440,0.08913
6192.31286,0.08043
6194.24133,0.09038
6196.16980,0.10600
6198.09827,0.07149
6200.02674,0.02435
6201.95521,0.03252
6203.88368,0.06518
6205.81215,0.07611
6207.74061,0.09033
6209.66908,0.10429
6211.59755,0.08577
6213.52602,0.07560
6215.45449,0.10409
6217.38296,0.12612
6219.31143,0.11541
6221.23989,0.08900
6223.16836,0.05737
6225.09683,0.04813
6227.02530,0.06109
6228.95377,0.05878
6230.88224,0.06177
6232.81071,0.08452
6234.73918,0.08065
6236.66764,0.04771
6238.59611,0.03144
6240.52458,0.06695
6242.45305,0.12995
6244.38152,0.15848
6246.30999,0.14570
6248.23846,0.11909
6250.16692,0.08322
6252.09539,0.04883
6254.02386,0.02925
6255.95233,0.03034
6257.88080,0.06764
6259.80927,0.10586
6261.73774,0.10509
6263.66621,0.09795
6265.59467,0.10331
6267.52314,0.09471
6269.45161,0.07393
6271.38008,0.07056
6273.30855,0.08308
6275.23702,0.08075
6277.16549,0.07749
6279.09395,0.09417
6281.02242,0.11010
6282.95089,0.09413
6284.87936,0.06222
6286.80783,0.06154
6288.73630,0.08372
6290.66477,0.10475
6292.59323,0.11038
6294.52170,0.09535
6296.45017,0.07145
6298.37864,0.03185
6300.30711,-0.02934
6302.23558,-0.06672
6304.16405,-0.03887
6306.09252,0.02099
6308.02098,0.07111
6309.94945,0.08595
6311.87792,0.07216
6313.80639,0.06905
6315.73486,0.07840
6317.66333,0.08342
6319.59180,0.08217
6321.52026,0.08001
6323.44873,0.09076
6325.37720,0.11271
6327.30567,0.13533
6329.23414,0.13595
6331.16261,0.09848
6333.09108,0.05917
6335.01955,0.04828
6336.94801,0.06597
6338.87648,0.10183
6340.80495,0.13082
6342.73342,0.13528
6344.66189,0.10448
6346.59036,0.07395
6348.51883,0.09753
6350.44729,0.13851
6352.37576,0.15128
6354.30423,0.14491
6356.23270,0.13019
6358.16117,0.10743
6360.08964,0.06251
6362.01811,-0.00598
6363.94658,-0.04502
6365.87504,0.01047
6367.80351,0.11669
6369.73198,0.16821
6371.66045,0.17224
6373.58892,0.16398
6375.51739,0.12174
6377.44586,0.06220
6379.37432,0.03846
6381.30279,0.05946
6383.23126,0.07811
6385.15973,0.06851
6387.08820,0.07719
6389.01667,0.07606
6390.94514,0.01909
6392.87361,-0.02573
6394.80207,-0.01331
6396.73054,0.01804
6398.65901,0.05758
6400.58748,0.10552
6402.51595,0.14758
6404.44442,0.15258
6406.37289,0.12895
6408.30135,0.11609
6410.22982,0.10060
6412.15829,0.06734
6414.08676,0.04693
6416.01523,0.07116
6417.94370,0.12729
6419.87217,0.13535
6421.80064,0.08923
6423.72910,0.05976
6425.65757,0.04203
6427.58604,0.03459
6429.51451,0.08042
6431.44298,0.11331
6433.37145,0.06424
6435.29992,0.01790
6437.22838,0.04128
6439.15685,0.07723
6441.08532,0.07149
6443.01379,0.04676
6444.94226,0.04237
6446.87073,0.08077
6448.79920,0.13566
6450.72766,0.14854
6452.65613,0.10285
6454.58460,0.05960
6456.51307,0.04651
6458.44154,0.02803
6460.37001,0.00749
6462.29848,0.00910
6464.22695,0.03659
6466.15541,0.06434
6468.08388,0.04871
6470.01235,0.01891
6471.94082,0.03331
6473.86929,0.06169
6475.79776,0.05377
6477.72623,0.04132
6479.65469,0.05939
6481.58316,0.07060
6483.51163,0.06048
6485.44010,0.04764
6487.36857,0.04595
6489.29704,0.04712
6491.22551,0.03783
6493.15398,0.05703
6495.08244,0.09392
6497.01091,0.09371
6498.93938,0.09382
6500.86785,0.12229
6502.79632,0.12496
6504.72479,0.09149
6506.65326,0.05863
6508.58172,0.03102
6510.51019,0.01321
6512.43866,0.04201
6514.36713,0.10295
6516.29560,0.12220
6518.22407,0.09562
6520.15254,0.09277
6522.08101,0.11211
6524.00947,0.07655
6525.93794,0.00103
6527.86641,-0.01320
6529.79488,0.00890
6531.72335,0.02359
6533.65182,0.06912
6535.58029,0.13295
6537.50875,0.15678
6539.43722,0.13012
6541.36569,0.09310
6543.29416,0.06428
6545.22263,0.02390
6547.15110,-0.00741
6549.07957,0.00024
6551.00804,0.01510
6552.93650,0.00059
6554.86497,0.00446
6556.79344,0.06596
6558.72191,0.13199
6560.65038,0.13009
6562.57885,0.08029
6564.50732,0.06420
6566.43578,0.09784
6568.36425,0.11681
6570.29272,0.10092
6572.22119,0.08145
6574.14966,0.06943
6576.07813,0.07598
6578.00660,0.11057
6579.93507,0.14585
6581.86353,0.15178
6583.79200,0.10867
6585.72047,0.04805
6587.64894,0.04013
6589.57741,0.08076
6591.50588,0.10052
6593.43435,0.08497
6595.36281,0.07477
6597.29128,0.06427
6599.21975,0.04457
6601.14822,0.04063
6603.07669,0.04250
6605.00516,0.04926
6606.93363,0.07947
6608.86210,0.08572
6610.79056,0.03445
6612.71903,-0.00961
6614.64750,-0.01120
6616.57597,-0.00175
6618.50444,0.01947
6620.43291,0.05069
6622.36138,0.06765
6624.28984,0.08145
6626.21831,0.09844
6628.14678,0.08904
6630.07525,0.06175
6632.00372,0.04554
6633.93219,0.05399
6635.86066,0.07552
6637.78912,0.06898
6639.71759,0.07067
6641.64606,0.11710
6643.57453,0.16218
6645.50300,0.14250
6647.43147,0.07705
6649.35994,0.04812
6651.28841,0.07749
6653.21687,0.14872
6655.14534,0.20616
6657.07381,0.18930
6659.00228,0.14429
6660.93075,0.08717
6662.85922,-0.00947
6664.78769,-0.06537
6666.71615,-0.02745
6668.64462,0.03635
6670.57309,0.06881
6672.50156,0.07796
6674.43003,0.06217
6676.35850,0.04316
6678.28697,0.07568
6680.21544,0.12350
6682.14390,0.08577
6684.07237,0.00981
6686.00084,0.00910
6687.92931,0.05765
6689.85778,0.07828
6691.78625,0.04723
6693.71472,0.00565
6695.64318,0.00011
6697.57165,0.03961
6699.50012,0.07152
6701.42859,0.03555
6703.35706,-0.02805
6705.28553,-0.02028
6707.21400,0.06012
6709.14247,0.09900
6711.07093,0.08311
6712.99940,0.11059
6714.92787,0.16100
6716.85634,0.14215
6718.78481,0.06767
6720.71328,0.00031
6722.64175,-0.04860
6724.57021,-0.07465
6726.49868,-0.07557
6728.42715,-0.06105
6730.35562,-0.01506
6732.28409,0.06523
6734.21256,0.15127
6736.14103,0.16235
6738.06950,0.06738
6739.99796,-0.00235
6741.92643,0.04612
6743.85490,0.10231
6745.78337,0.08483
6747.71184,0.05920
6749.64031,0.09363
6751.56878,0.14965
6753.49724,0.15901
6755.42571,0.10796
6757.35418,0.01816
6759.28265,-0.03624
6761.21112,0.01879
6763.13959,0.09494
6765.06806,0.09961
6766.99653,0.05595
6768.92499,0.00989
6770.85346,-0.03214
6772.78193,-0.07842
6774.71040,-0.08252
6776.63887,-0.02352
6778.56734,0.00913
6780.49581,-0.00252
6782.42427,-0.01289
6784.35274,-0.02164
6786.28121,-0.02163
6788.20968,0.00088
6790.13815,0.04993
6792.06662,0.13487
6793.99509,0.17063
6795.92355,0.12280
6797.85202,0.09709
6799.78049,0.09439
6801.70896,0.06873
6803.63743,0.05805
6805.56590,0.05873
6807.49437,0.03299
6809.42284,-0.02412
6811.35130,-0.06682
6813.27977,-0.03291
6815.20824,0.05026
6817.13671,0.12208
6819.06518,0.15198
6820.99365,0.12781
6822.92212,0.07315
6824.85058,0.03198
6826.77905,-0.00069
6828.70752,0.01128
6830.63599,0.05347
6832.56446,0.03290
6834.49293,-0.01315
6836.42140,-0.01268
6838.34987,0.01747
6840.27833,0.03852
6842.20680,0.02471
6844.13527,-0.00037
6846.06374,0.02598
6847.99221,0.09898
6849.92068,0.12808
6851.84915,0.06579
6853.77761,0.02016
6855.70608,0.05491
6857.63455,0.07210
6859.56302,0.05692
6861.49149,0.05931
6863.41996,0.04309
6865.34843,-0.02269
6867.27690,-0.10195
6869.20536,-0.12462
6871.13383,-0.07491
6873.06230,0.00158
6874.99077,0.03193
6876.91924,0.03076
6878.84771,0.04646
6880.77618,0.06264
6882.70464,0.05436
6884.63311,0.04165
6886.56158,0.04866
6888.49005,0.06611
6890.41852,0.03749
6892.34699,-0.02043
6894.27546,-0.00402
6896.20393,0.06422
6898.13239,0.09854
6900.06086,0.09809
6901.98933,0.07578
6903.91780,0.04631
6905.84627,0.07701
6907.77474,0.13234
6909.70321,0.11065
6911.63167,0.06717
6913.56014,0.07995
6915.48861,0.10761
6917.41708,0.10903
6919.34555,0.06302
6921.27402,-0.02224
6923.20249,-0.04679
6925.13096,0.01134
6927.05942,0.07320
6928.98789,0.09486
6930.91636,0.10144
6932.84483,0.12427
6934.77330,0.12286
6936.70177,0.10051
6938.63024,0.11733
6940.55870,0.15665
6942.48717,0.12444
6944.41564,0.01873
6946.34411,-0.03552
6948.27258,0.02907
6950.20105,0.10099
6952.12952,0.12174
6954.05799,0.08901
6955.98645,0.01645
6957.91492,-0.00832
6959.84339,0.04575
6961.77186,0.11296
6963.70033,0.11202
6965.62880,0.05539
6967.55727,-0.00311
6969.48573,-0.02908
6971.41420,-0.00861
6973.34267,0.02616
6975.27114,0.04506
6977.19961,0.06780
6979.12808,0.08028
6981.05655,0.06958
6982.98501,0.05284
6984.91348,0.04856
6986.84195,0.05430
6988.77042,0.06140
6990.69889,0.09117
6992.62736,0.09830
6994.55583,0.05892
6996.48430,0.06223
6998.41276,0.10117
7000.34123,0.07940
7002.26970,0.04684
7004.19817,0.07143
7006.12664,0.11841
7008.05511,0.09629
7009.98358,0.04338
7011.91204,0.05244
7013.84051,0.08391
7015.76898,0.08171
7017.69745,0.06504
7019.62592,0.06650
7021.55439,0.10553
7023.48286,0.10687
7025.41133,0.02512
7027.33979,-0.02532
7029.26826,0.03853
7031.19673,0.11960
7033.12520,0.11742
7035.05367,0.08646
7036.98214,0.13887
7038.91061,0.19902
7040.83907,0.15491
7042.76754,0.07443
7044.69601,0.08172
7046.62448,0.09717
7048.55295,0.02507
7050.48142,-0.06643
7052.40989,-0.09232
7054.33836,-0.05635
7056.26682,-0.01210
7058.19529,0.03182
7060.12376,0.09350
7062.05223,0.15203
7063.98070,0.17246
7065.90917,0.15684
7067.83764,0.12753
7069.76610,0.08514
7071.69457,0.07046
7073.62304,0.10380
7075.55151,0.14422
7077.47998,0.15842
7079.40845,0.10366
7081.33692,0.05191
7083.26539,0.11381
7085.19385,0.18119
7087.12232,0.19501
7089.05079,0.21224
7090.97926,0.24466
7092.90773,0.22321
7094.83620,0.15933
7096.76467,0.14397
7098.69313,0.18940
7100.62160,0.20041
7102.55007,0.16583
7104.47854,0.16188
7106.40701,0.15893
7108.33548,0.09036
7110.26395,0.01781
7112.19242,0.01489
7114.12088,0.05994
7116.04935,0.02931
7117.97782,-0.09898
7119.90629,-0.13787
7121.83476,-0.06955
7123.76323,-0.05318
7125.69170,-0.14966
7127.62016,-0.18854
7129.54863,-0.05170
7131.47710,0.10477
7133.40557,0.16042
7135.33404,0.14021
7137.26251,0.09494
7139.19098,0.08007
7141.11944,0.09979
7143.04791,0.11272
7144.97638,0.11334
7146.90485,0.05921
7148.83332,-0.00997
7150.76179,0.01891
7152.69026,0.08667
7154.61873,0.08638
7156.54719,0.07980
7158.47566,0.09813
7160.40413,0.11670
7162.33260,0.10544
7164.26107,0.03707
7166.18954,-0.01583
7168.11801,0.01042
7170.04647,0.05780
7171.97494,0.08119
7173.90341,0.07632
7175.83188,0.04407
7177.76035,-0.00158
7179.68882,-0.00065
7181.61729,0.05823
7183.54576,0.02176
7185.47422,-0.10192
7187.40269,-0.08520
7189.33116,0.07127
7191.25963,0.19891
7193.18810,0.20014
7195.11657,0.13498
7197.04504,0.08000
7198.97350,0.07227
7200.90197,0.10230
7202.83044,0.12674
7204.75891,0.11545
7206.68738,0.11491
7208.61585,0.15652
7210.54432,0.18626
7212.47279,0.12312
7214.40125,0.00210
7216.32972,-0.04996
7218.25819,0.00584
7220.18666,0.04837
7222.11513,0.00751
7224.04360,-0.00978
7225.97207,0.12164
7227.90053,0.25802
7229.82900,0.21550
7231.75747,0.06801
7233.68594,0.01702
7235.61441,0.05857
7237.54288,0.10025
7239.47135,0.13804
7241.39982,0.14524
7243.32828,0.06548
7245.25675,0.01946
7247.18522,0.01016
7249.11369,-0.03966
7251.04216,-0.03243
7252.97063,0.08443
7254.89910,0.05382
7256.82756,-0.08669
7258.75603,-0.09527
7260.68450,0.06244
7262.61297,0.18645
7264.54144,0.16803
7266.46991,0.10228
7268.39838,0.09176
7270.32685,0.11640
7272.25531,0.08872
7274.18378,0.03197
7276.11225,0.01980
7278.04072,0.04114
7279.96919,0.04886
7281.89766,0.00782
7283.82613,0.00468
7285.75459,0.06321
7287.68306,0.11500
7289.61153,0.15155
7291.54000,0.20896
7293.46847,0.23546
7295.39694,0.19776
7297.32541,0.19720
7299.25387,0.24451
7301.18234,0.25540
7303.11081,0.17969
7305.03928,0.07208
7306.96775,0.02954
7308.89622,0.00027
7310.82469,-0.00345
7312.75316,0.06664
7314.68162,0.09306
7316.61009,0.06400
7318.53856,0.07201
7320.46703,0.02383
7322.39550,-0.08909
7324.32397,-0.07067
7326.25244,0.07449
7328.18090,0.19995
7330.10937,0.16632
7332.03784,0.02091
7333.96631,-0.03262
7335.89478,0.01282
7337.82325,0.09208
7339.75172,0.16405
7341.68019,0.17674
7343.60865,0.19397
7345.53712,0.16578
7347.46559,0.03908
7349.39406,-0.03550
7351.32253,0.02827
7353.25100,0.16147
7355.17947,0.24023
7357.10793,0.15315
7359.03640,0.04954
7360.96487,0.10702
7362.89334,0.14091
7364.82181,0.10145
7366.75028,0.09116
7368.67875,0.12535
7370.60722,0.11335
7372.53568,0.02471
7374.46415,-0.05014
7376.39262,-0.00124
7378.32109,0.01422
7380.24956,-0.06101
7382.17803,-0.15342
7384.10650,-0.17685
7386.03496,-0.12349
7387.96343,-0.07119
7389.89190,0.00439
7391.82037,0.12217
7393.74884,0.14005
7395.67731,0.01573
7397.60578,-0.05823
7399.53425,0.00119
7401.46271,0.12574
7403.39118,0.29021
7405.31965,0.35913
7407.24812,0.27209
7409.17659,0.18543
7411.10506,0.12752
7413.03353,0.06326
7414.96199,0.00771
7416.89046,0.00013
7418.81893,0.06974
7420.74740,0.12306
7422.67587,0.07649
7424.60434,0.00528
7426.53281,-0.02726
7428.46128,-0.01375
7430.38974,0.01229
7432.31821,-0.06155
7434.24668,-0.18834
7436.17515,-0.22277
7438.10362,-0.21254
7440.03209,-0.17254
7441.96056,-0.04800
7443.88902,0.03254
7445.81749,0.02877
7447.74596,0.01435
7449.67443,-0.03477
7451.60290,-0.04257
7453.53137,0.04229
7455.45984,0.07949
7457.38831,0.08566
7459.31677,0.13067
7461.24524,0.17771
7463.17371,0.15511
7465.10218,0.06291
7467.03065,-0.00167
7468.95912,0.02668
7470.88759,0.11616
7472.81605,0.20767
7474.74452,0.21640
7476.67299,0.15040
7478.60146,0.10648
7480.52993,0.13313
7482.45840,0.14309
7484.38687,0.09224
7486.31533,0.05314
7488.24380,0.05122
7490.17227,0.08531
7492.10074,0.12284
7494.02921,0.12277
7495.95768,0.13504
7497.88615,0.23314
