399.19301,0.97732
401.12148,1.35967
403.04995,0.71200
404.97842,0.05556
406.90689,-0.13252
408.83536,-0.08357
410.76382,-0.07309
412.69229,-0.06954
414.62076,0.03426
416.54923,0.19196
418.47770,0.33549
420.40617,0.37761
422.33464,0.30611
424.26311,0.21075
426.19157,0.16973
428.12004,0.15986
430.04851,0.12076
431.97698,0.05848
433.90545,0.01736
435.83392,-0.00859
437.76239,-0.01929
439.69085,0.00014
441.61932,0.04409
443.54779,0.09338
445.47626,0.13621
447.40473,0.16055
449.33320,0.13115
451.26167,0.05828
453.19013,0.03307
455.11860,0.08702
457.04707,0.12423
458.97554,0.09462
460.90401,0.09139
462.83248,0.10239
464.76095,0.05614
466.68942,0.01834
468.61788,0.05000
470.54635,0.10750
472.47482,0.18495
474.40329,0.23952
476.33176,0.16725
478.26023,0.10083
480.18870,0.09911
482.11716,0.12920
484.04563,0.13203
485.97410,0.11416
487.90257,0.11577
489.83104,0.08967
491.75951,0.04464
493.68798,0.05013
495.61645,0.08705
497.54491,0.10990
499.47338,0.12457
501.40185,0.12673
503.33032,0.09691
505.25879,0.06018
507.18726,0.03565
509.11573,0.02882
511.04419,0.02903
512.97266,0.02738
514.90113,0.03692
516.82960,0.06334
518.75807,0.08393
520.68654,0.08911
522.61501,0.10108
524.54348,0.11171
526.47194,0.10700
528.40041,0.10973
530.32888,0.13235
532.25735,0.14198
534.18582,0.12247
536.11429,0.11603
538.04276,0.13826
539.97122,0.14335
541.89969,0.11405
543.82816,0.09474
545.75663,0.09576
547.68510,0.09437
549.61357,0.16126
551.54204,0.49369
553.47051,0.87092
555.39897,0.73692
557.32744,0.29990
559.25591,0.11409
561.18438,0.10196
563.11285,0.09266
565.04132,0.09762
566.96979,0.13050
568.89825,0.15817
570.82672,0.13605
572.75519,0.10237
574.68366,0.09275
576.61213,0.08624
578.54060,0.07974
580.46907,0.08993
582.39754,0.10529
584.32600,0.11400
586.25447,0.11983
588.18294,0.12487
590.11141,0.12801
592.03988,0.12982
593.96835,0.12698
595.89682,0.11688
597.82528,0.10626
599.75375,0.10119
601.68222,0.11597
603.61069,0.13702
605.53916,0.13513
607.46763,0.12464
609.39610,0.12007
611.32456,0.11447
613.25303,0.10996
615.18150,0.10615
617.10997,0.09881
619.03844,0.09800
620.96691,0.10012
622.89538,0.09284
624.82385,0.08497
626.75231,0.09174
628.68078,0.10610
630.60925,0.11140
632.53772,0.11295
634.46619,0.11714
636.39466,0.11994
638.32313,0.11849
640.25159,0.11947
642.18006,0.13149
644.10853,0.14420
646.03700,0.14438
647.96547,0.14025
649.89394,0.13620
651.82241,0.11137
653.75088,0.07676
655.67934,0.06723
657.60781,0.07906
659.53628,0.09088
661.46475,0.09780
663.39322,0.10377
665.32169,0.11205
667.25016,0.13313
669.17862,0.15408
671.10709,0.14669
673.03556,0.13800
674.96403,0.13362
676.89250,0.13251
678.82097,0.14250
680.74944,0.15279
682.67791,0.14324
684.60637,0.12312
686.53484,0.11560
688.46331,0.12284
690.39178,0.12891
692.32025,0.12501
694.24872,0.12044
696.17719,0.12225
698.10565,0.12666
700.03412,0.13092
701.96259,0.13243
703.89106,0.13208
705.81953,0.13127
707.74800,0.12567
709.67647,0.12462
711.60494,0.13510
713.53340,0.13834
715.46187,0.13219
717.39034,0.13388
719.31881,0.13918
721.24728,0.13659
723.17575,0.12912
725.10422,0.12470
727.03268,0.12738
728.96115,0.13614
730.88962,0.14125
732.81809,0.13662
734.74656,0.13064
736.67503,0.13072
738.60350,0.13215
740.53197,0.12935
742.46043,0.12399
744.38890,0.11526
746.31737,0.10781
748.24584,0.11218
750.17431,0.12093
752.10278,0.12180
754.03125,0.11989
755.95971,0.12219
757.88818,0.12599
759.81665,0.12794
761.74512,0.12709
763.67359,0.12332
765.60206,0.11833
767.53053,0.11572
769.45900,0.11563
771.38746,0.11886
773.31593,0.12927
775.24440,0.13862
777.17287,0.13725
779.10134,0.13159
781.02981,0.13029
782.95828,0.13531
784.88674,0.14374
786.81521,0.14298
788.74368,0.12862
790.67215,0.12172
792.60062,0.13421
794.52909,0.14847
796.45756,0.14528
798.38602,0.13034
800.31449,0.12205
802.24296,0.12800
804.17143,0.13408
806.09990,0.12913
808.02837,0.12495
809.95684,0.12547
811.88531,0.12435
813.81377,0.12303
815.74224,0.11956
817.67071,0.11871
819.59918,0.12502
821.52765,0.13002
823.45612,0.13314
825.38459,0.13148
827.31305,0.12216
829.24152,0.12155
831.16999,0.13182
833.09846,0.13968
835.02693,0.14217
836.95540,0.13923
838.88387,0.13540
840.81234,0.13720
842.74080,0.13847
844.66927,0.12933
846.59774,0.11350
848.52621,0.10689
850.45468,0.11829
852.38315,0.13488
854.31162,0.13969
856.24008,0.13575
858.16855,0.13198
860.09702,0.12925
862.02549,0.12839
863.95396,0.12826
865.88243,0.12735
867.81090,0.12339
869.73937,0.11593
871.66783,0.11612
873.59630,0.12481
875.52477,0.12718
877.45324,0.12223
879.38171,0.11975
881.31018,0.12410
883.23865,0.13359
885.16711,0.13651
887.09558,0.12654
889.02405,0.11987
890.95252,0.12751
892.88099,0.13907
894.80946,0.14365
896.73793,0.14242
898.66640,0.14306
900.59486,0.14846
902.52333,0.15295
904.45180,0.15224
906.38027,0.14991
908.30874,0.14911
910.23721,0.14866
912.16568,0.14309
914.09414,0.13134
916.02261,0.12574
917.95108,0.13135
919.87955,0.13782
921.80802,0.14010
923.73649,0.14255
925.66496,0.14706
927.59343,0.14762
929.52189,0.14173
931.45036,0.13857
933.37883,0.14047
935.30730,0.14198
937.23577,0.14495
939.16424,0.14597
941.09271,0.13929
943.02117,0.13116
944.94964,0.12642
946.87811,0.12299
948.80658,0.12398
950.73505,0.13585
952.66352,0.15258
954.59199,0.15737
956.52045,0.14876
958.44892,0.14179
960.37739,0.13966
962.30586,0.13658
964.23433,0.13528
966.16280,0.13781
968.09127,0.13994
970.01974,0.14035
971.94820,0.14114
973.87667,0.14155
975.80514,0.14144
977.73361,0.14268
979.66208,0.14369
981.59055,0.14339
983.51902,0.14109
985.44748,0.13818
987.37595,0.13774
989.30442,0.13773
991.23289,0.14142
993.16136,0.15312
995.08983,0.16182
997.01830,0.15972
998.94677,0.15279
1000.87523,0.14465
1002.80370,0.13794
1004.73217,0.13601
1006.66064,0.13776
1008.58911,0.14106
1010.51758,0.14201
1012.44605,0.14082
1014.37451,0.14310
1016.30298,0.14581
1018.23145,0.14515
1020.15992,0.14615
1022.08839,0.14886
1024.01686,0.14759
1025.94533,0.14152
1027.87380,0.13548
1029.80226,0.13476
1031.73073,0.14147
1033.65920,0.15183
1035.58767,0.15763
1037.51614,0.15864
1039.44461,0.15855
1041.37308,0.15569
1043.30154,0.14977
1045.23001,0.14562
1047.15848,0.14724
1049.08695,0.14950
1051.01542,0.15020
1052.94389,0.15472
1054.87236,0.16095
1056.80083,0.16180
1058.72929,0.15551
1060.65776,0.15253
1062.58623,0.16239
1064.51470,0.17081
1066.44317,0.16508
1068.37164,0.15800
1070.30011,0.15636
1072.22857,0.15984
1074.15704,0.16796
1076.08551,0.16920
1078.01398,0.16490
1079.94245,0.16622
1081.87092,0.16720
1083.79939,0.15862
1085.72786,0.14899
1087.65632,0.14971
1089.58479,0.15220
1091.51326,0.14773
1093.44173,0.14639
1095.37020,0.15472
1097.29867,0.16134
1099.22714,0.15873
1101.15560,0.15754
1103.08407,0.16481
1105.01254,0.16974
1106.94101,0.16375
1108.86948,0.15541
1110.79795,0.15591
1112.72642,0.16076
1114.65489,0.15594
1116.58335,0.14517
1118.51182,0.14457
1120.44029,0.15087
1122.36876,0.15689
1124.29723,0.16161
1126.22570,0.15949
1128.15417,0.15483
1130.08263,0.15373
1132.01110,0.15409
1133.93957,0.15468
1135.86804,0.15350
1137.79651,0.15108
1139.72498,0.14987
1141.65345,0.14919
1143.58191,0.14748
1145.51038,0.14756
1147.43885,0.15386
1149.36732,0.16135
1151.29579,0.16183
1153.22426,0.15971
1155.15273,0.16174
1157.08120,0.16418
1159.00966,0.16515
1160.93813,0.16647
1162.86660,0.16775
1164.79507,0.16952
1166.72354,0.16963
1168.65201,0.16639
1170.58048,0.16272
1172.50894,0.16021
1174.43741,0.16056
1176.36588,0.16442
1178.29435,0.16690
1180.22282,0.16702
1182.15129,0.16672
1184.07976,0.16292
1186.00823,0.15648
1187.93669,0.15267
1189.86516,0.15288
1191.79363,0.15524
1193.72210,0.15664
1195.65057,0.15560
1197.57904,0.15482
1199.50751,0.15693
1201.43597,0.16103
1203.36444,0.16361
1205.29291,0.16117
1207.22138,0.15800
1209.14985,0.16008
1211.07832,0.16290
1213.00679,0.16277
1214.93526,0.16259
1216.86372,0.16193
1218.79219,0.16027
1220.72066,0.15957
1222.64913,0.16152
1224.57760,0.16594
1226.50607,0.16768
1228.43454,0.16536
1230.36300,0.16258
1232.29147,0.16110
1234.21994,0.16165
1236.14841,0.16226
1238.07688,0.16120
1240.00535,0.15903
1241.93382,0.15745
1243.86229,0.15824
1245.79075,0.15930
1247.71922,0.15957
1249.64769,0.16090
1251.57616,0.16015
1253.50463,0.15724
1255.43310,0.15872
1257.36157,0.16282
1259.29003,0.16369
1261.21850,0.16222
1263.14697,0.16122
1265.07544,0.16058
1267.00391,0.15840
1268.93238,0.15689
1270.86085,0.16028
1272.78932,0.16422
1274.71778,0.16256
1276.64625,0.16134
1278.57472,0.16575
1280.50319,0.16774
1282.43166,0.16499
1284.36013,0.16383
1286.28860,0.16145
1288.21706,0.15781
1290.14553,0.15845
1292.07400,0.15821
1294.00247,0.15485
1295.93094,0.15462
1297.85941,0.15533
1299.78788,0.14981
1301.71634,0.13524
1303.64481,0.11813
1305.57328,0.11874
1307.50175,0.14169
1309.43022,0.16140
1311.35869,0.16785
1313.28716,0.17238
1315.21563,0.17525
1317.14409,0.17438
1319.07256,0.17088
1321.00103,0.16465
1322.92950,0.16129
1324.85797,0.16022
1326.78644,0.15803
1328.71491,0.15850
1330.64337,0.15834
1332.57184,0.15611
1334.50031,0.15624
1336.42878,0.15915
1338.35725,0.16594
1340.28572,0.16640
1342.21419,0.15755
1344.14266,0.15266
1346.07112,0.15227
1347.99959,0.15465
1349.92806,0.15771
1351.85653,0.15735
1353.78500,0.15727
1355.71347,0.15916
1357.64194,0.16193
1359.57040,0.16807
1361.49887,0.17670
1363.42734,0.17861
1365.35581,0.17401
1367.28428,0.17491
1369.21275,0.18091
1371.14122,0.18464
1373.06969,0.18680
1374.99815,0.18725
1376.92662,0.18324
1378.85509,0.17814
1380.78356,0.17566
1382.71203,0.17603
1384.64050,0.17966
1386.56897,0.18598
1388.49743,0.18791
1390.42590,0.18637
1392.35437,0.19046
1394.28284,0.19778
1396.21131,0.19926
1398.13978,0.19651
1400.06825,0.19099
1401.99672,0.18533
1403.92518,0.18474
1405.85365,0.18592
1407.78212,0.18475
1409.71059,0.18284
1411.63906,0.18087
1413.56753,0.18212
1415.49600,0.19206
1417.42446,0.20772
1419.35293,0.21085
1421.28140,0.20078
1423.20987,0.19674
1425.13834,0.19507
1427.06681,0.19076
1428.99528,0.18885
1430.92375,0.18918
1432.85221,0.19235
1434.78068,0.20225
1436.70915,0.20724
1438.63762,0.19597
1440.56609,0.18520
1442.49456,0.18102
1444.42303,0.18234
1446.35149,0.18870
1448.27996,0.19242
1450.20843,0.18988
1452.13690,0.19303
1454.06537,0.20950
1455.99384,0.23831
1457.92231,0.24537
1459.85077,0.21500
1461.77924,0.19786
1463.70771,0.20024
1465.63618,0.20229
1467.56465,0.19692
1469.49312,0.20184
1471.42159,0.22246
1473.35006,0.23832
1475.27852,0.22785
1477.20699,0.20878
1479.13546,0.19661
1481.06393,0.19249
1482.99240,0.19102
1484.92087,0.19612
1486.84934,0.21348
1488.77780,0.23164
1490.70627,0.22656
1492.63474,0.21352
1494.56321,0.21556
1496.49168,0.22509
1498.42015,0.22061
1500.34862,0.20901
1502.27709,0.20955
1504.20555,0.23252
1506.13402,0.28143
1508.06249,0.28311
1509.99096,0.23876
1511.91943,0.21616
1513.84790,0.21626
1515.77637,0.23054
1517.70483,0.24387
1519.63330,0.25354
1521.56177,0.26233
1523.49024,0.25521
1525.41871,0.24144
1527.34718,0.22488
1529.27565,0.21016
1531.20412,0.21128
1533.13258,0.22434
1535.06105,0.22914
1536.98952,0.24019
1538.91799,0.28605
1540.84646,0.32829
1542.77493,0.29213
1544.70340,0.24147
1546.63186,0.21282
1548.56033,0.20947
1550.48880,0.21388
1552.41727,0.21674
1554.34574,0.22708
1556.27421,0.25414
1558.20268,0.29463
1560.13115,0.27019
1562.05961,0.22762
1563.98808,0.21216
1565.91655,0.20819
1567.84502,0.21188
1569.77349,0.21530
1571.70196,0.20898
1573.63043,0.20833
1575.55889,0.21552
1577.48736,0.21042
1579.41583,0.19908
1581.34430,0.19331
1583.27277,0.18990
1585.20124,0.18785
1587.12971,0.18679
1589.05818,0.18626
1590.98664,0.18773
1592.91511,0.19035
1594.84358,0.19127
1596.77205,0.18887
1598.70052,0.18637
1600.62899,0.18821
1602.55746,0.19212
1604.48592,0.19424
1606.41439,0.19538
1608.34286,0.19403
1610.27133,0.18856
1612.19980,0.18697
1614.12827,0.19784
1616.05674,0.21583
1617.98521,0.21623
1619.91367,0.20919
1621.84214,0.21437
1623.77061,0.21902
1625.69908,0.21552
1627.62755,0.21255
1629.55602,0.20632
1631.48449,0.20507
1633.41295,0.22290
1635.34142,0.25171
1637.26989,0.24340
1639.19836,0.21757
1641.12683,0.20858
1643.05530,0.21566
1644.98377,0.23789
1646.91223,0.26177
1648.84070,0.25656
1650.76917,0.25628
1652.69764,0.28158
1654.62611,0.26748
1656.55458,0.23002
1658.48305,0.21494
1660.41152,0.22097
1662.33998,0.23144
1664.26845,0.22306
1666.19692,0.21498
1668.12539,0.22820
1670.05386,0.24261
1671.98233,0.23502
1673.91080,0.22818
1675.83926,0.22392
1677.76773,0.21940
1679.69620,0.22418
1681.62467,0.24264
1683.55314,0.26839
1685.48161,0.26132
1687.41008,0.23606
1689.33855,0.22087
1691.26701,0.21405
1693.19548,0.21989
1695.12395,0.24209
1697.05242,0.26521
1698.98089,0.26980
1700.90936,0.25157
1702.83783,0.23066
1704.76629,0.22430
1706.69476,0.21956
1708.62323,0.20936
1710.55170,0.20448
1712.48017,0.21218
1714.40864,0.23416
1716.33711,0.25787
1718.26558,0.24544
1720.19404,0.21538
1722.12251,0.20204
1724.05098,0.19950
1725.97945,0.19769
1727.90792,0.19929
1729.83639,0.20988
1731.76486,0.22896
1733.69332,0.24363
1735.62179,0.23274
1737.55026,0.22101
1739.47873,0.21860
1741.40720,0.21580
1743.33567,0.21453
1745.26414,0.21947
1747.19261,0.22887
1749.12107,0.23506
1751.04954,0.22525
1752.97801,0.20933
1754.90648,0.20451
1756.83495,0.20740
1758.76342,0.20833
1760.69189,0.20885
1762.62035,0.20658
1764.54882,0.19991
1766.47729,0.19971
1768.40576,0.21036
1770.33423,0.22602
1772.26270,0.23033
1774.19117,0.21521
1776.11964,0.20174
1778.04810,0.20033
1779.97657,0.20610
1781.90504,0.20748
1783.83351,0.20264
1785.76198,0.19768
1787.69045,0.19828
1789.61892,0.20798
1791.54738,0.21974
1793.47585,0.21764
1795.40432,0.20777
1797.33279,0.20348
1799.26126,0.20568
1801.18973,0.20791
1803.11820,0.20509
1805.04666,0.20190
1806.97513,0.20244
1808.90360,0.20462
1810.83207,0.20261
1812.76054,0.19631
1814.68901,0.19356
1816.61748,0.19579
1818.54595,0.19709
1820.47441,0.19552
1822.40288,0.19630
1824.33135,0.19991
1826.25982,0.20280
1828.18829,0.20691
1830.11676,0.20721
1832.04523,0.19901
1833.97369,0.19364
1835.90216,0.19454
1837.83063,0.19617
1839.75910,0.19835
1841.68757,0.20466
1843.61604,0.21190
1845.54451,0.20998
1847.47298,0.20089
1849.40144,0.19350
1851.32991,0.19019
1853.25838,0.18958
1855.18685,0.18956
1857.11532,0.18912
1859.04379,0.18916
1860.97226,0.19174
1862.90072,0.19600
1864.82919,0.20018
1866.75766,0.20721
1868.68613,0.21337
1870.61460,0.20797
1872.54307,0.19854
1874.47154,0.19347
1876.40001,0.19096
1878.32847,0.19026
1880.25694,0.19282
1882.18541,0.19594
1884.11388,0.19773
1886.04235,0.20090
1887.97082,0.20365
1889.89929,0.20034
1891.82775,0.19610
1893.75622,0.19794
1895.68469,0.19949
1897.61316,0.19550
1899.54163,0.19147
1901.47010,0.19082
1903.39857,0.19122
1905.32704,0.19210
1907.25550,0.19524
1909.18397,0.19748
1911.11244,0.19542
1913.04091,0.19379
1914.96938,0.19636
1916.89785,0.20066
1918.82632,0.20219
1920.75478,0.20175
1922.68325,0.20183
1924.61172,0.19991
1926.54019,0.19550
1928.46866,0.19109
1930.39713,0.18938
1932.32560,0.19177
1934.25407,0.19452
1936.18253,0.19364
1938.11100,0.19295
1940.03947,0.19747
1941.96794,0.20252
1943.89641,0.20136
1945.82488,0.19678
1947.75335,0.19221
1949.68181,0.18861
1951.61028,0.18866
1953.53875,0.19129
1955.46722,0.19273
1957.39569,0.19372
1959.32416,0.19531
1961.25263,0.19524
1963.18110,0.19340
1965.10956,0.19318
1967.03803,0.19432
1968.96650,0.19328
1970.89497,0.19102
1972.82344,0.19049
1974.75191,0.19117
1976.68038,0.19173
1978.60884,0.19438
1980.53731,0.19841
1982.46578,0.19923
1984.39425,0.19716
1986.32272,0.19457
1988.25119,0.19311
1990.17966,0.19498
1992.10812,0.19741
1994.03659,0.19624
1995.96506,0.19395
1997.89353,0.19356
1999.82200,0.19404
2001.75047,0.19428
2003.67894,0.19507
2005.60741,0.19585
2007.53587,0.19523
2009.46434,0.19508
2011.39281,0.19645
2013.32128,0.19706
2015.24975,0.19595
2017.17822,0.19380
2019.10669,0.19236
2021.03515,0.19348
2022.96362,0.19500
2024.89209,0.19440
2026.82056,0.19333
2028.74903,0.19320
2030.67750,0.19352
2032.60597,0.19371
2034.53444,0.19380
2036.46290,0.19460
2038.39137,0.19524
2040.31984,0.19347
2042.24831,0.18993
2044.17678,0.18841
2046.10525,0.19059
2048.03372,0.19373
2049.96218,0.19454
2051.89065,0.19268
2053.81912,0.19043
2055.74759,0.19049
2057.67606,0.19327
2059.60453,0.19603
2061.53300,0.19636
2063.46147,0.19491
2065.38993,0.19329
2067.31840,0.19287
2069.24687,0.19396
2071.17534,0.19536
2073.10381,0.19651
2075.03228,0.19747
2076.96075,0.19768
2078.88921,0.19752
2080.81768,0.19728
2082.74615,0.19541
2084.67462,0.19289
2086.60309,0.19337
2088.53156,0.19639
2090.46003,0.19857
2092.38850,0.19917
2094.31696,0.19909
2096.24543,0.19772
2098.17390,0.19529
2100.10237,0.19405
2102.03084,0.19438
2103.95931,0.19482
2105.88778,0.19429
2107.81624,0.19438
2109.74471,0.19628
2111.67318,0.19705
2113.60165,0.19625
2115.53012,0.19608
2117.45859,0.19692
2119.38706,0.19863
2121.31553,0.19969
2123.24399,0.19870
2125.17246,0.19680
2127.10093,0.19580
2129.02940,0.19661
2130.95787,0.19803
2132.88634,0.19848
2134.81481,0.19816
2136.74327,0.19726
2138.67174,0.19539
2140.60021,0.19383
2142.52868,0.19525
2144.45715,0.19842
2146.38562,0.19913
2148.31409,0.19812
2150.24255,0.19844
2152.17102,0.19993
2154.09949,0.20029
2156.02796,0.19766
2157.95643,0.19414
2159.88490,0.19408
2161.81337,0.19682
2163.74184,0.19726
2165.67030,0.19520
2167.59877,0.19405
2169.52724,0.19436
2171.45571,0.19531
2173.38418,0.19537
2175.31265,0.19478
2177.24112,0.19557
2179.16958,0.19731
2181.09805,0.19856
2183.02652,0.19811
2184.95499,0.19544
2186.88346,0.19317
2188.81193,0.19412
2190.74040,0.19668
2192.66887,0.19708
2194.59733,0.19463
2196.52580,0.19377
2198.45427,0.19639
2200.38274,0.19732
2202.31121,0.19560
2204.23968,0.19500
2206.16815,0.19567
2208.09661,0.19672
2210.02508,0.19761
2211.95355,0.19725
2213.88202,0.19509
2215.81049,0.19263
2217.73896,0.19198
2219.66743,0.19354
2221.59590,0.19580
2223.52436,0.19642
2225.45283,0.19625
2227.38130,0.19708
2229.30977,0.19785
2231.23824,0.19826
2233.16671,0.19883
2235.09518,0.19920
2237.02364,0.19845
2238.95211,0.19682
2240.88058,0.19630
2242.80905,0.19815
2244.73752,0.20158
2246.66599,0.20278
2248.59446,0.19896
2250.52293,0.19389
2252.45139,0.19211
2254.37986,0.19355
2256.30833,0.19595
2258.23680,0.19707
2260.16527,0.19572
2262.09374,0.19374
2264.02221,0.19409
2265.95067,0.19603
2267.87914,0.19711
2269.80761,0.19820
2271.73608,0.19966
2273.66455,0.19840
2275.59302,0.19412
2277.52149,0.19044
2279.44996,0.18921
2281.37842,0.19062
2283.30689,0.19290
2285.23536,0.19404
2287.16383,0.19507
2289.09230,0.19532
2291.02077,0.19502
2292.94924,0.19904
2294.87770,0.20588
2296.80617,0.20666
2298.73464,0.20098
2300.66311,0.19710
2302.59158,0.19692
2304.52005,0.19756
2306.44852,0.19809
2308.37699,0.19860
2310.30545,0.19801
2312.23392,0.19319
2314.16239,0.18833
2316.09086,0.18927
2318.01933,0.19227
2319.94780,0.19383
2321.87627,0.19434
2323.80473,0.19480
2325.73320,0.19436
2327.66167,0.19185
2329.59014,0.19138
2331.51861,0.19595
2333.44708,0.20000
2335.37555,0.19822
2337.30401,0.19711
2339.23248,0.19976
2341.16095,0.19492
2343.08942,0.18642
2345.01789,0.19213
2346.94636,0.20385
2348.87483,0.20766
2350.80330,0.20510
2352.73176,0.20210
2354.66023,0.20520
2356.58870,0.21073
2358.51717,0.21001
2360.44564,0.21098
2362.37411,0.22011
2364.30258,0.22602
2366.23104,0.22002
2368.15951,0.20607
2370.08798,0.19479
2372.01645,0.19128
2373.94492,0.19020
2375.87339,0.19068
2377.80186,0.19557
2379.73033,0.19912
2381.65879,0.19720
2383.58726,0.19550
2385.51573,0.19725
2387.44420,0.19909
2389.37267,0.19969
2391.30114,0.20051
2393.22961,0.20106
2395.15807,0.19991
2397.08654,0.19757
2399.01501,0.19578
2400.94348,0.19547
2402.87195,0.19505
2404.80042,0.19329
2406.72889,0.19326
2408.65736,0.19541
2410.58582,0.19592
2412.51429,0.19526
2414.44276,0.19549
2416.37123,0.19581
2418.29970,0.19610
2420.22817,0.19691
2422.15664,0.19712
2424.08510,0.19707
2426.01357,0.19850
2427.94204,0.19925
2429.87051,0.19750
2431.79898,0.19655
2433.72745,0.19691
2435.65592,0.19571
2437.58439,0.19418
2439.51285,0.19380
2441.44132,0.19408
2443.36979,0.19586
2445.29826,0.19839
2447.22673,0.19854
2449.15520,0.19734
2451.08367,0.19884
2453.01213,0.20104
2454.94060,0.20017
2456.86907,0.19773
2458.79754,0.19638
2460.72601,0.19590
2462.65448,0.19466
2464.58295,0.19368
2466.51142,0.19522
2468.43988,0.19840
2470.36835,0.20003
2472.29682,0.19943
2474.22529,0.19917
2476.15376,0.19961
2478.08223,0.19939
2480.01070,0.19919
2481.93916,0.19959
2483.86763,0.20062
2485.79610,0.20252
2487.72457,0.20297
2489.65304,0.20063
2491.58151,0.19809
2493.50998,0.19630
2495.43844,0.19516
2497.36691,0.19659
2499.29538,0.20029
2501.22385,0.20192
2503.15232,0.19995
2505.08079,0.19823
2507.00926,0.19799
2508.93773,0.19812
2510.86619,0.19999
2512.79466,0.20183
2514.72313,0.19969
2516.65160,0.19630
2518.58007,0.19597
2520.50854,0.19693
2522.43701,0.19715
2524.36547,0.19794
2526.29394,0.19890
2528.22241,0.19793
2530.15088,0.19699
2532.07935,0.19829
2534.00782,0.19902
2535.93629,0.19825
2537.86476,0.19956
2539.79322,0.20200
2541.72169,0.20085
2543.65016,0.19792
2545.57863,0.19760
2547.50710,0.19840
2549.43557,0.19758
2551.36404,0.19616
2553.29250,0.19642
2555.22097,0.19834
2557.14944,0.20016
2559.07791,0.20100
2561.00638,0.20076
2562.93485,0.20003
2564.86332,0.20009
2566.79179,0.20050
2568.72025,0.19982
2570.64872,0.19937
2572.57719,0.20091
2574.50566,0.20258
2576.43413,0.20230
2578.36260,0.20008
2580.29107,0.19776
2582.21953,0.19764
2584.14800,0.19843
2586.07647,0.19829
2588.00494,0.19794
2589.93341,0.19792
2591.86188,0.19868
2593.79035,0.19941
2595.71882,0.19871
2597.64728,0.19825
2599.57575,0.19966
2601.50422,0.20067
2603.43269,0.20064
2605.36116,0.20185
2607.28963,0.20321
2609.21810,0.20444
2611.14656,0.20718
2613.07503,0.20764
2615.00350,0.20385
2616.93197,0.20118
2618.86044,0.20174
2620.78891,0.20283
2622.71738,0.20391
2624.64585,0.20489
2626.57431,0.20475
2628.50278,0.20440
2630.43125,0.20438
2632.35972,0.20282
2634.28819,0.20067
2636.21666,0.20096
2638.14513,0.20256
2640.07359,0.20347
2642.00206,0.20475
2643.93053,0.20561
2645.85900,0.20328
2647.78747,0.20040
2649.71594,0.20085
2651.64441,0.20231
2653.57288,0.20173
2655.50134,0.20083
2657.42981,0.20122
2659.35828,0.20066
2661.28675,0.20038
2663.21522,0.20346
2665.14369,0.20701
2667.07216,0.20869
2669.00062,0.20967
2670.92909,0.20924
2672.85756,0.20634
2674.78603,0.20245
2676.71450,0.19986
2678.64297,0.19976
2680.57144,0.20265
2682.49990,0.20688
2684.42837,0.20895
2686.35684,0.20918
2688.28531,0.20899
2690.21378,0.20803
2692.14225,0.20687
2694.07072,0.20554
2695.99919,0.20625
2697.92765,0.20978
2699.85612,0.21098
2701.78459,0.20871
2703.71306,0.20764
2705.64153,0.20872
2707.57000,0.20832
2709.49847,0.20633
2711.42693,0.20665
2713.35540,0.20933
2715.28387,0.21075
2717.21234,0.21082
2719.14081,0.21134
2721.06928,0.21128
2722.99775,0.21068
2724.92622,0.21036
2726.85468,0.20882
2728.78315,0.20692
2730.71162,0.20818
2732.64009,0.21185
2734.56856,0.21338
2736.49703,0.21148
2738.42550,0.20916
2740.35396,0.20890
2742.28243,0.21087
2744.21090,0.21297
2746.13937,0.21220
2748.06784,0.20989
2749.99631,0.20889
2751.92478,0.20814
2753.85325,0.20687
2755.78171,0.20652
2757.71018,0.20755
2759.63865,0.20857
2761.56712,0.20947
2763.49559,0.21084
2765.42406,0.21203
2767.35253,0.21021
2769.28099,0.20458
2771.20946,0.20354
2773.13793,0.20917
2775.06640,0.21182
2776.99487,0.21053
2778.92334,0.21081
2780.85181,0.21385
2782.78028,0.21762
2784.70874,0.21901
2786.63721,0.21743
2788.56568,0.21503
2790.49415,0.21305
2792.42262,0.21085
2794.35109,0.20896
2796.27956,0.20981
2798.20802,0.21293
2800.13649,0.21463
2802.06496,0.21507
2803.99343,0.21629
2805.92190,0.21619
2807.85037,0.21417
2809.77884,0.21298
2811.70731,0.21343
2813.63577,0.21451
2815.56424,0.21479
2817.49271,0.21401
2819.42118,0.21493
2821.34965,0.21844
2823.27812,0.22014
2825.20659,0.21774
2827.13505,0.21464
2829.06352,0.21353
2830.99199,0.21432
2832.92046,0.21651
2834.84893,0.21884
2836.77740,0.22053
2838.70587,0.22178
2840.63433,0.22268
2842.56280,0.22296
2844.49127,0.22088
2846.41974,0.21652
2848.34821,0.21162
2850.27668,0.20654
2852.20515,0.20368
2854.13362,0.20552
2856.06208,0.21088
2857.99055,0.21535
2859.91902,0.21506
2861.84749,0.21224
2863.77596,0.21165
2865.70443,0.21339
2867.63290,0.21539
2869.56136,0.21696
2871.48983,0.21649
2873.41830,0.21350
2875.34677,0.21008
2877.27524,0.20900
2879.20371,0.21035
2881.13218,0.21006
2883.06065,0.20822
2884.98911,0.20821
2886.91758,0.21017
2888.84605,0.21312
2890.77452,0.21581
2892.70299,0.21562
2894.63146,0.21106
2896.55993,0.20722
2898.48839,0.20817
2900.41686,0.21073
2902.34533,0.21175
2904.27380,0.20886
2906.20227,0.20353
2908.13074,0.20280
2910.05921,0.20768
2911.98768,0.21158
2913.91614,0.20783
2915.84461,0.19894
2917.77308,0.19798
2919.70155,0.20632
2921.63002,0.21130
2923.55849,0.20672
2925.48696,0.19755
2927.41542,0.19498
2929.34389,0.20187
2931.27236,0.20932
2933.20083,0.20976
2935.12930,0.20044
2937.05777,0.18910
2938.98624,0.19146
2940.91471,0.20607
2942.84317,0.21636
2944.77164,0.21414
2946.70011,0.20373
2948.62858,0.19958
2950.55705,0.20720
2952.48552,0.21438
2954.41399,0.21371
2956.34245,0.20452
2958.27092,0.19555
2960.19939,0.20155
2962.12786,0.21583
2964.05633,0.22008
2965.98480,0.21101
2967.91327,0.20204
2969.84174,0.20667
2971.77020,0.21663
2973.69867,0.21781
2975.62714,0.20952
2977.55561,0.19861
2979.48408,0.19772
2981.41255,0.20841
2983.34102,0.21855
2985.26948,0.22000
2987.19795,0.21199
2989.12642,0.20739
2991.05489,0.21493
2992.98336,0.22310
2994.91183,0.22488
2996.84030,0.22183
2998.76877,0.21786
3000.69723,0.21882
3002.62570,0.22082
3004.55417,0.21942
3006.48264,0.21578
3008.41111,0.20892
3010.33958,0.19707
3012.26805,0.17414
3014.19651,0.13659
3016.12498,0.10629
3018.05345,0.11987
3019.98192,0.16911
3021.91039,0.20678
3023.83886,0.21869
3025.76733,0.21869
3027.69579,0.21654
3029.62426,0.21873
3031.55273,0.22313
3033.48120,0.22409
3035.40967,0.22152
3037.33814,0.21765
3039.26661,0.21620
3041.19508,0.21741
3043.12354,0.21805
3045.05201,0.21590
3046.98048,0.21165
3048.90895,0.21182
3050.83742,0.21563
3052.76589,0.21607
3054.69436,0.21158
3056.62282,0.20394
3058.55129,0.20397
3060.47976,0.21395
3062.40823,0.21957
3064.33670,0.21330
3066.26517,0.20293
3068.19364,0.20387
3070.12211,0.21503
3072.05057,0.22186
3073.97904,0.21792
3075.90751,0.21000
3077.83598,0.21098
3079.76445,0.21678
3081.69292,0.21627
3083.62139,0.20694
3085.54985,0.19737
3087.47832,0.20294
3089.40679,0.21550
3091.33526,0.21607
3093.26373,0.20461
3095.19220,0.19688
3097.12067,0.20342
3099.04914,0.21407
3100.97760,0.21614
3102.90607,0.20708
3104.83454,0.20048
3106.76301,0.20687
3108.69148,0.21425
3110.61995,0.21224
3112.54842,0.20758
3114.47688,0.21288
3116.40535,0.22373
3118.33382,0.22437
3120.26229,0.21101
3122.19076,0.19825
3124.11923,0.20311
3126.04770,0.21713
3127.97617,0.22374
3129.90463,0.22104
3131.83310,0.21630
3133.76157,0.21725
3135.69004,0.22198
3137.61851,0.22343
3139.54698,0.22234
3141.47545,0.22527
3143.40391,0.23049
3145.33238,0.23041
3147.26085,0.22397
3149.18932,0.21821
3151.11779,0.21829
3153.04626,0.22040
3154.97473,0.22134
3156.90320,0.22215
3158.83166,0.22268
3160.76013,0.22258
3162.68860,0.22492
3164.61707,0.22993
3166.54554,0.23279
3168.47401,0.23198
3170.40248,0.22832
3172.33094,0.22333
3174.25941,0.22151
3176.18788,0.22474
3178.11635,0.22832
3180.04482,0.22845
3181.97329,0.22721
3183.90176,0.22747
3185.83022,0.22825
3187.75869,0.22711
3189.68716,0.22470
3191.61563,0.22268
3193.54410,0.22323
3195.47257,0.22646
3197.40104,0.22860
3199.32951,0.22879
3201.25797,0.22946
3203.18644,0.23157
3205.11491,0.23256
3207.04338,0.23021
3208.97185,0.22626
3210.90032,0.22199
3212.82879,0.21759
3214.75725,0.21611
3216.68572,0.21976
3218.61419,0.22496
3220.54266,0.22728
3222.47113,0.22682
3224.39960,0.22682
3226.32807,0.22723
3228.25654,0.22456
3230.18500,0.22073
3232.11347,0.22033
3234.04194,0.22203
3235.97041,0.22173
3237.89888,0.21861
3239.82735,0.21691
3241.75582,0.21835
3243.68428,0.21860
3245.61275,0.21988
3247.54122,0.22574
3249.46969,0.23028
3251.39816,0.23108
3253.32663,0.23096
3255.25510,0.23065
3257.18357,0.22909
3259.11203,0.22438
3261.04050,0.21933
3262.96897,0.21845
3264.89744,0.21832
3266.82591,0.21522
3268.75438,0.21404
3270.68285,0.21774
3272.61131,0.22136
3274.53978,0.22222
3276.46825,0.22198
3278.39672,0.22210
3280.32519,0.22433
3282.25366,0.22800
3284.18213,0.22903
3286.11060,0.22547
3288.03906,0.22149
3289.96753,0.22146
3291.89600,0.22235
3293.82447,0.22105
3295.75294,0.22095
3297.68141,0.22307
3299.60988,0.22238
3301.53834,0.21977
3303.46681,0.22139
3305.39528,0.22415
3307.32375,0.22155
3309.25222,0.21686
3311.18069,0.21759
3313.10916,0.22159
3315.03763,0.22190
3316.96609,0.22028
3318.89456,0.21968
3320.82303,0.21684
3322.75150,0.21296
3324.67997,0.21502
3326.60844,0.22066
3328.53691,0.22229
3330.46537,0.22276
3332.39384,0.22672
3334.32231,0.22958
3336.25078,0.22778
3338.17925,0.22458
3340.10772,0.22271
3342.03619,0.22205
3343.96466,0.22158
3345.89312,0.22166
3347.82159,0.22332
3349.75006,0.22698
3351.67853,0.23118
3353.60700,0.23068
3355.53547,0.22764
3357.46394,0.22932
3359.39240,0.23125
3361.32087,0.22864
3363.24934,0.22689
3365.17781,0.22650
3367.10628,0.22452
3369.03475,0.22328
3370.96322,0.22247
3372.89168,0.22210
3374.82015,0.22472
3376.74862,0.22778
3378.67709,0.22747
3380.60556,0.22523
3382.53403,0.22512
3384.46250,0.22679
3386.39097,0.22566
3388.31943,0.22218
3390.24790,0.22341
3392.17637,0.22910
3394.10484,0.23136
3396.03331,0.23036
3397.96178,0.23090
3399.89025,0.23080
3401.81871,0.22595
3403.74718,0.22017
3405.67565,0.21697
3407.60412,0.21296
3409.53259,0.21081
3411.46106,0.21450
3413.38953,0.21635
3415.31800,0.21486
3417.24646,0.21889
3419.17493,0.22342
3421.10340,0.21955
3423.03187,0.21663
3424.96034,0.21996
3426.88881,0.22014
3428.81728,0.21701
3430.74574,0.21552
3432.67421,0.21149
3434.60268,0.20893
3436.53115,0.21466
3438.45962,0.21917
3440.38809,0.21590
3442.31656,0.21161
3444.24503,0.21261
3446.17349,0.21867
3448.10196,0.21945
3450.03043,0.21035
3451.95890,0.20332
3453.88737,0.20316
3455.81584,0.20628
3457.74431,0.21040
3459.67277,0.21121
3461.60124,0.20895
3463.52971,0.20785
3465.45818,0.20555
3467.38665,0.19946
3469.31512,0.19555
3471.24359,0.19740
3473.17206,0.19867
3475.10052,0.19728
3477.02899,0.19876
3478.95746,0.20361
3480.88593,0.20625
3482.81440,0.20325
3484.74287,0.19988
3486.67134,0.20044
3488.59980,0.20040
3490.52827,0.19714
3492.45674,0.19256
3494.38521,0.18968
3496.31368,0.19245
3498.24215,0.19890
3500.17062,0.20365
3502.09909,0.20481
3504.02755,0.20152
3505.95602,0.19662
3507.88449,0.19557
3509.81296,0.19781
3511.74143,0.19909
3513.66990,0.19843
3515.59837,0.19600
3517.52683,0.19190
3519.45530,0.18818
3521.38377,0.18826
3523.31224,0.19143
3525.24071,0.19385
3527.16918,0.19418
3529.09765,0.18989
3531.02611,0.18235
3532.95458,0.17895
3534.88305,0.18248
3536.81152,0.18683
3538.73999,0.18485
3540.66846,0.18212
3542.59693,0.18655
3544.52540,0.19327
3546.45386,0.19360
3548.38233,0.18965
3550.31080,0.18710
3552.23927,0.18523
3554.16774,0.18288
3556.09621,0.18239
3558.02468,0.18495
3559.95314,0.18802
3561.88161,0.19020
3563.81008,0.19690
3565.73855,0.20834
3567.66702,0.20472
3569.59549,0.18525
3571.52396,0.17437
3573.45243,0.17278
3575.38089,0.17132
3577.30936,0.16942
3579.23783,0.16908
3581.16630,0.16938
3583.09477,0.17411
3585.02324,0.18739
3586.95171,0.19590
3588.88017,0.18040
3590.80864,0.16615
3592.73711,0.16841
3594.66558,0.17396
3596.59405,0.17529
3598.52252,0.17483
3600.45099,0.17185
3602.37946,0.16857
3604.30792,0.16960
3606.23639,0.17404
3608.16486,0.17617
3610.09333,0.17735
3612.02180,0.18312
3613.95027,0.18531
3615.87874,0.18110
3617.80720,0.18202
3619.73567,0.18194
3621.66414,0.16978
3623.59261,0.16120
3625.52108,0.16589
3627.44955,0.18057
3629.37802,0.18633
3631.30649,0.17391
3633.23495,0.16267
3635.16342,0.15500
3637.09189,0.15125
3639.02036,0.15324
3640.94883,0.15813
3642.87730,0.16238
3644.80577,0.16984
3646.73423,0.18776
3648.66270,0.20760
3650.59117,0.19396
3652.51964,0.16838
3654.44811,0.15937
3656.37658,0.15841
3658.30505,0.15227
3660.23352,0.14355
3662.16198,0.13730
3664.09045,0.13713
3666.01892,0.14506
3667.94739,0.16070
3669.87586,0.17550
3671.80433,0.17652
3673.73280,0.17918
3675.66126,0.18082
3677.58973,0.16507
3679.51820,0.15279
3681.44667,0.14711
3683.37514,0.14297
3685.30361,0.14468
3687.23208,0.15523
3689.16055,0.17007
3691.08901,0.17189
3693.01748,0.15999
3694.94595,0.14969
3696.87442,0.14358
3698.80289,0.14206
3700.73136,0.14714
3702.65983,0.14843
3704.58829,0.14191
3706.51676,0.14121
3708.44523,0.15212
3710.37370,0.16813
3712.30217,0.16880
3714.23064,0.15639
3716.15911,0.15029
3718.08757,0.14924
3720.01604,0.14744
3721.94451,0.14918
3723.87298,0.15804
3725.80145,0.15987
3727.72992,0.14850
3729.65839,0.14238
3731.58686,0.15136
3733.51532,0.16729
3735.44379,0.17347
3737.37226,0.16543
3739.30073,0.15805
3741.22920,0.16133
3743.15767,0.17350
3745.08614,0.17793
3747.01460,0.17103
3748.94307,0.17342
3750.87154,0.17918
3752.80001,0.16593
3754.72848,0.15211
3756.65695,0.14976
3758.58542,0.14990
3760.51389,0.14503
3762.44235,0.14222
3764.37082,0.14282
3766.29929,0.14142
3768.22776,0.13995
3770.15623,0.13888
3772.08470,0.13451
3774.01317,0.13099
3775.94163,0.13270
3777.87010,0.13873
3779.79857,0.13947
3781.72704,0.13203
3783.65551,0.12839
3785.58398,0.12815
3787.51245,0.12415
3789.44092,0.12199
3791.36938,0.12699
3793.29785,0.13636
3795.22632,0.14530
3797.15479,0.14714
3799.08326,0.14958
3801.01173,0.16241
3802.94020,0.16424
3804.86866,0.15259
3806.79713,0.14159
3808.72560,0.13271
3810.65407,0.12955
3812.58254,0.13177
3814.51101,0.13637
3816.43948,0.13975
3818.36795,0.14442
3820.29641,0.15414
3822.22488,0.15538
3824.15335,0.14733
3826.08182,0.14184
3828.01029,0.13970
3829.93876,0.14090
3831.86723,0.14485
3833.79569,0.15186
3835.72416,0.16406
3837.65263,0.17751
3839.58110,0.17590
3841.50957,0.15974
3843.43804,0.14307
3845.36651,0.13194
3847.29498,0.12995
3849.22344,0.13709
3851.15191,0.15223
3853.08038,0.17069
3855.00885,0.16703
3856.93732,0.15127
3858.86579,0.14264
3860.79426,0.14466
3862.72272,0.15188
3864.65119,0.15073
3866.57966,0.14329
3868.50813,0.14098
3870.43660,0.14138
3872.36507,0.13651
3874.29354,0.12715
3876.22200,0.12037
3878.15047,0.12323
3880.07894,0.13272
3882.00741,0.13863
3883.93588,0.14097
3885.86435,0.13835
3887.79282,0.13107
3889.72129,0.13157
3891.64975,0.13805
3893.57822,0.13581
3895.50669,0.12886
3897.43516,0.12579
3899.36363,0.12803
3901.29210,0.13499
3903.22057,0.13813
3905.14903,0.13211
3907.07750,0.12363
3909.00597,0.11817
3910.93444,0.11582
3912.86291,0.11572
3914.79138,0.11834
3916.71985,0.12137
3918.64832,0.12208
3920.57678,0.12059
3922.50525,0.11976
3924.43372,0.12109
3926.36219,0.11977
3928.29066,0.11812
3930.21913,0.12253
3932.14760,0.12742
3934.07606,0.12330
3936.00453,0.11600
3937.93300,0.11454
3939.86147,0.11838
3941.78994,0.12147
3943.71841,0.11933
3945.64688,0.11639
3947.57535,0.11584
3949.50381,0.11508
3951.43228,0.11522
3953.36075,0.11732
3955.28922,0.11890
3957.21769,0.11624
3959.14616,0.10971
3961.07463,0.10649
3963.00309,0.10920
3964.93156,0.11104
3966.86003,0.10816
3968.78850,0.10523
3970.71697,0.10682
3972.64544,0.11182
3974.57391,0.11567
3976.50238,0.11452
3978.43084,0.11026
3980.35931,0.10719
3982.28778,0.10467
3984.21625,0.10251
3986.14472,0.10450
3988.07319,0.11008
3990.00166,0.11391
3991.93012,0.11334
3993.85859,0.10971
3995.78706,0.10723
3997.71553,0.10909
3999.64400,0.11193
4001.57247,0.11102
4003.50094,0.10706
4005.42941,0.10520
4007.35787,0.10650
4009.28634,0.10468
4011.21481,0.09867
4013.14328,0.09750
4015.07175,0.10649
4017.00022,0.11607
4018.92869,0.11454
4020.85715,0.10611
4022.78562,0.10123
4024.71409,0.10103
4026.64256,0.10054
4028.57103,0.09926
4030.49950,0.09997
4032.42797,0.10077
4034.35644,0.09919
4036.28490,0.09644
4038.21337,0.09539
4040.14184,0.09838
4042.07031,0.10175
4043.99878,0.10227
4045.92725,0.10388
4047.85572,0.10509
4049.78418,0.10195
4051.71265,0.09905
4053.64112,0.09885
4055.56959,0.10015
4057.49806,0.10212
4059.42653,0.10336
4061.35500,0.10411
4063.28346,0.10364
4065.21193,0.10348
4067.14040,0.10541
4069.06887,0.10324
4070.99734,0.09747
4072.92581,0.09652
4074.85428,0.09970
4076.78275,0.10207
4078.71121,0.10036
4080.63968,0.09586
4082.56815,0.09505
4084.49662,0.09844
4086.42509,0.10075
4088.35356,0.09809
4090.28203,0.09317
4092.21049,0.09299
4094.13896,0.09861
4096.06743,0.10256
4097.99590,0.09836
4099.92437,0.09182
4101.85284,0.09075
4103.78131,0.09245
4105.70978,0.09242
4107.63824,0.09261
4109.56671,0.09391
4111.49518,0.09335
4113.42365,0.09228
4115.35212,0.09181
4117.28059,0.08774
4119.20906,0.08366
4121.13752,0.08646
4123.06599,0.09044
4124.99446,0.09186
4126.92293,0.09256
4128.85140,0.09028
4130.77987,0.08860
4132.70834,0.08975
4134.63681,0.08865
4136.56527,0.08448
4138.49374,0.07976
4140.42221,0.07677
4142.35068,0.07886
4144.27915,0.08567
4146.20762,0.08977
4148.13609,0.08751
4150.06455,0.08568
4151.99302,0.08585
4153.92149,0.08108
4155.84996,0.07645
4157.77843,0.08061
4159.70690,0.08657
4161.63537,0.08776
4163.56384,0.08848
4165.49230,0.09132
4167.42077,0.09176
4169.34924,0.08820
4171.27771,0.08546
4173.20618,0.08484
4175.13465,0.08439
4177.06312,0.08440
4178.99158,0.08289
4180.92005,0.07851
4182.84852,0.07481
4184.77699,0.07161
4186.70546,0.06964
4188.63393,0.07138
4190.56240,0.07257
4192.49087,0.07229
4194.41933,0.07635
4196.34780,0.08403
4198.27627,0.08682
4200.20474,0.08186
4202.13321,0.07600
4204.06168,0.07456
4205.99015,0.07438
4207.91861,0.07263
4209.84708,0.07277
4211.77555,0.07452
4213.70402,0.07524
4215.63249,0.07584
4217.56096,0.07447
4219.48943,0.07070
4221.41789,0.06947
4223.34636,0.06977
4225.27483,0.06725
4227.20330,0.06431
4229.13177,0.06432
4231.06024,0.06670
4232.98871,0.06827
4234.91718,0.06940
4236.84564,0.07179
4238.77411,0.07398
4240.70258,0.07513
4242.63105,0.07240
4244.55952,0.06781
4246.48799,0.06899
4248.41646,0.07440
4250.34492,0.07660
4252.27339,0.07411
4254.20186,0.07079
4256.13033,0.06777
4258.05880,0.06187
4259.98727,0.05519
4261.91574,0.05490
4263.84421,0.05935
4265.77267,0.06066
4267.70114,0.05837
4269.62961,0.05694
4271.55808,0.05835
4273.48655,0.06099
4275.41502,0.06206
4277.34349,0.06038
4279.27195,0.05737
4281.20042,0.05752
4283.12889,0.05978
4285.05736,0.05958
4286.98583,0.05940
4288.91430,0.06044
4290.84277,0.06094
4292.77124,0.06065
4294.69970,0.05818
4296.62817,0.05362
4298.55664,0.04900
4300.48511,0.04680
4302.41358,0.04983
4304.34205,0.05630
4306.27052,0.05877
4308.19898,0.05490
4310.12745,0.05109
4312.05592,0.05032
4313.98439,0.04878
4315.91286,0.04618
4317.84133,0.04621
4319.76980,0.04706
4321.69827,0.04642
4323.62673,0.04680
4325.55520,0.04669
4327.48367,0.04470
4329.41214,0.04561
4331.34061,0.04935
4333.26908,0.05109
4335.19755,0.04981
4337.12601,0.04739
4339.05448,0.04553
4340.98295,0.04359
4342.91142,0.04123
4344.83989,0.03944
4346.76836,0.03848
4348.69683,0.03856
4350.62530,0.03827
4352.55376,0.03763
4354.48223,0.04064
4356.41070,0.04617
4358.33917,0.04706
4360.26764,0.04368
4362.19611,0.04333
4364.12458,0.04637
4366.05304,0.04611
4367.98151,0.04339
4369.90998,0.04320
4371.83845,0.04012
4373.76692,0.03061
4375.69539,0.02405
4377.62386,0.02492
4379.55232,0.02614
4381.48079,0.02620
4383.40926,0.02827
4385.33773,0.03057
4387.26620,0.03368
4389.19467,0.03712
4391.12314,0.03938
4393.05161,0.04365
4394.98007,0.04606
4396.90854,0.04107
4398.83701,0.03382
4400.76548,0.03109
4402.69395,0.02987
4404.62242,0.02591
4406.55089,0.02619
4408.47935,0.03027
4410.40782,0.02757
4412.33629,0.02229
4414.26476,0.02416
4416.19323,0.02760
4418.12170,0.02691
4420.05017,0.02664
4421.97864,0.02714
4423.90710,0.02836
4425.83557,0.03258
4427.76404,0.03530
4429.69251,0.03293
4431.62098,0.02954
4433.54945,0.03128
4435.47792,0.03472
4437.40638,0.03075
4439.33485,0.02198
4441.26332,0.01853
4443.19179,0.02455
4445.12026,0.03485
4447.04873,0.04003
4448.97720,0.03693
4450.90567,0.02875
4452.83413,0.02017
4454.76260,0.01762
4456.69107,0.01984
4458.61954,0.01763
4460.54801,0.01292
4462.47648,0.01267
4464.40495,0.01702
4466.33341,0.02248
4468.26188,0.02033
4470.19035,0.01374
4472.11882,0.01547
4474.04729,0.01975
4475.97576,0.01747
4477.90423,0.01618
4479.83270,0.02002
4481.76116,0.02250
4483.68963,0.02399
4485.61810,0.02577
4487.54657,0.02232
4489.47504,0.01596
4491.40351,0.01320
4493.33198,0.01262
4495.26044,0.01100
4497.18891,0.01026
4499.11738,0.00920
4501.04585,0.00694
4502.97432,0.01000
4504.90279,0.01557
4506.83126,0.01429
4508.75973,0.01007
4510.68819,0.01036
4512.61666,0.01322
4514.54513,0.01566
4516.47360,0.01782
4518.40207,0.02046
4520.33054,0.02292
4522.25901,0.02412
4524.18747,0.02551
4526.11594,0.02543
4528.04441,0.01968
4529.97288,0.00972
4531.90135,0.00601
4533.82982,0.01330
4535.75829,0.01922
4537.68676,0.01565
4539.61522,0.00926
4541.54369,0.00802
4543.47216,0.01059
4545.40063,0.00917
4547.32910,0.00454
4549.25757,0.00456
4551.18604,0.01031
4553.11450,0.01542
4555.04297,0.01319
4556.97144,0.00635
4558.89991,0.00395
4560.82838,0.00627
4562.75685,0.00941
4564.68532,0.00942
4566.61378,0.00434
4568.54225,0.00436
4570.47072,0.01480
4572.39919,0.02363
4574.32766,0.02170
4576.25613,0.01561
4578.18460,0.01391
4580.11307,0.01375
4582.04153,0.01189
4583.97000,0.01267
4585.89847,0.01524
4587.82694,0.01371
4589.75541,0.01075
4591.68388,0.00978
4593.61235,0.00964
4595.54081,0.01018
4597.46928,0.00703
4599.39775,0.00074
4601.32622,0.00030
4603.25469,0.00390
4605.18316,0.00011
4607.11163,-0.00609
4609.04010,-0.00292
4610.96856,-0.00145
4612.89703,-0.00997
4614.82550,-0.01521
4616.75397,-0.01136
4618.68244,-0.00370
4620.61091,0.00343
4622.53938,0.00382
4624.46784,-0.00108
4626.39631,-0.00498
4628.32478,-0.00949
4630.25325,-0.00717
4632.18172,0.00678
4634.11019,0.01628
4636.03866,0.01575
4637.96713,0.01262
4639.89559,0.00829
4641.82406,0.00293
4643.75253,-0.00111
4645.68100,-0.00129
4647.60947,0.00600
4649.53794,0.01844
4651.46641,0.02005
4653.39487,0.01044
4655.32334,0.00948
4657.25181,0.01321
4659.18028,0.00665
4661.10875,0.00108
4663.03722,0.00717
4664.96569,0.01301
4666.89416,0.01192
4668.82262,0.01174
4670.75109,0.01362
4672.67956,0.01293
4674.60803,0.01214
4676.53650,0.01447
4678.46497,0.01618
4680.39344,0.01371
4682.32190,0.01156
4684.25037,0.01015
4686.17884,0.00336
4688.10731,-0.00331
4690.03578,-0.00239
4691.96425,-0.00092
4693.89272,-0.00642
4695.82119,-0.01417
4697.74965,-0.01520
4699.67812,-0.01150
4701.60659,-0.01373
4703.53506,-0.02028
4705.46353,-0.01938
4707.39200,-0.01125
4709.32047,-0.00013
4711.24893,0.01106
4713.17740,0.01518
4715.10587,0.01248
4717.03434,0.01125
4718.96281,0.01527
4720.89128,0.01740
4722.81975,0.01670
4724.74821,0.02117
4726.67668,0.02585
4728.60515,0.02254
4730.53362,0.01362
4732.46209,0.00605
4734.39056,0.00035
4736.31903,-0.00792
4738.24750,-0.01198
4740.17596,-0.00664
4742.10443,0.00227
4744.03290,0.00861
4745.96137,0.00714
4747.88984,0.00319
4749.81831,0.00272
4751.74678,-0.00187
4753.67524,-0.00932
4755.60371,-0.00653
4757.53218,0.00484
4759.46065,0.00791
4761.38912,0.00175
4763.31759,-0.00088
4765.24606,0.00087
4767.17453,0.00472
4769.10299,0.01180
4771.03146,0.01990
4772.95993,0.02308
4774.88840,0.01904
4776.81687,0.01800
4778.74534,0.02400
4780.67381,0.02406
4782.60227,0.01551
4784.53074,0.00722
4786.45921,0.00166
4788.38768,0.00060
4790.31615,0.00303
4792.24462,0.00359
4794.17309,0.00184
4796.10156,0.00588
4798.03002,0.01660
4799.95849,0.02019
4801.88696,0.01320
4803.81543,0.00063
4805.74390,-0.01102
4807.67237,-0.00974
4809.60084,0.00016
4811.52930,0.00372
4813.45777,0.00195
4815.38624,0.00129
4817.31471,0.00224
4819.24318,0.00709
4821.17165,0.01427
4823.10012,0.01804
4825.02859,0.01429
4826.95705,0.00203
4828.88552,-0.00636
4830.81399,-0.00671
4832.74246,-0.01101
4834.67093,-0.01293
4836.59940,-0.00231
4838.52787,0.01023
4840.45633,0.01583
4842.38480,0.01551
4844.31327,0.01281
4846.24174,0.01034
4848.17021,0.00933
4850.09868,0.00915
4852.02715,0.00569
4853.95562,0.00161
4855.88408,0.00116
4857.81255,0.00371
4859.74102,0.00835
4861.66949,0.01188
4863.59796,0.01124
4865.52643,0.00489
4867.45490,-0.00356
4869.38336,-0.00803
4871.31183,-0.00541
4873.24030,0.00378
4875.16877,0.00992
4877.09724,0.00915
4879.02571,0.00831
4880.95418,0.00604
4882.88265,0.00324
4884.81111,0.00848
4886.73958,0.01279
4888.66805,0.00779
4890.59652,0.00184
4892.52499,-0.00226
4894.45346,-0.00591
4896.38193,-0.00675
4898.31039,-0.00600
4900.23886,-0.00464
4902.16733,-0.00336
4904.09580,-0.00941
4906.02427,-0.01230
4907.95274,0.00087
4909.88121,0.01087
4911.80967,0.01198
4913.73814,0.01371
4915.66661,0.00648
4917.59508,-0.00422
4919.52355,-0.00406
4921.45202,-0.00082
4923.38049,0.00222
4925.30896,0.01116
4927.23742,0.01572
4929.16589,0.00612
4931.09436,-0.00602
4933.02283,-0.00647
4934.95130,0.00423
4936.87977,0.01761
4938.80824,0.02288
4940.73670,0.01503
4942.66517,0.00719
4944.59364,0.01170
4946.52211,0.01894
4948.45058,0.02308
4950.37905,0.03047
4952.30752,0.03627
4954.23599,0.03173
4956.16445,0.02086
4958.09292,0.01303
4960.02139,0.00974
4961.94986,0.01582
4963.87833,0.03030
4965.80680,0.03002
4967.73527,0.01657
4969.66373,0.01368
4971.59220,0.01844
4973.52067,0.01941
4975.44914,0.01653
4977.37761,0.01237
4979.30608,0.01214
4981.23455,0.01377
4983.16302,0.00558
4985.09148,-0.00166
4987.01995,0.00700
4988.94842,0.01606
4990.87689,0.01332
4992.80536,0.00729
4994.73383,0.00814
4996.66230,0.01640
4998.59076,0.02405
5000.51923,0.02559
5002.44770,0.01686
5004.37617,0.00249
5006.30464,0.00046
5008.23311,0.01316
5010.16158,0.02038
5012.09005,0.01516
5014.01851,0.01558
5015.94698,0.02315
5017.87545,0.01935
5019.80392,0.01162
5021.73239,0.01984
5023.66086,0.03456
5025.58933,0.03447
5027.51779,0.02098
5029.44626,0.01135
5031.37473,0.01081
5033.30320,0.01552
5035.23167,0.02019
5037.16014,0.01805
5039.08861,0.00850
5041.01708,-0.00358
5042.94554,-0.01227
5044.87401,-0.01432
5046.80248,-0.00357
5048.73095,0.01435
5050.65942,0.01861
5052.58789,0.01300
5054.51636,0.01440
5056.44482,0.01969
5058.37329,0.01604
5060.30176,0.00435
5062.23023,0.00315
5064.15870,0.01737
5066.08717,0.02883
5068.01564,0.02265
5069.94410,0.00946
5071.87257,0.01014
5073.80104,0.02276
5075.72951,0.02899
5077.65798,0.02350
5079.58645,0.01566
5081.51492,0.00775
5083.44339,-0.00035
5085.37185,0.00124
5087.30032,0.00595
5089.22879,-0.00217
5091.15726,-0.01210
5093.08573,-0.00902
5095.01420,0.00651
5096.94267,0.02607
5098.87113,0.03274
5100.79960,0.01981
5102.72807,-0.00131
5104.65654,-0.00653
5106.58501,0.01091
5108.51348,0.02131
5110.44195,0.01920
5112.37042,0.02597
5114.29888,0.03442
5116.22735,0.03315
5118.15582,0.02968
5120.08429,0.02938
5122.01276,0.02771
5123.94123,0.01899
5125.86970,0.01422
5127.79816,0.01998
5129.72663,0.02183
5131.65510,0.02406
5133.58357,0.03296
5135.51204,0.03405
5137.44051,0.02952
5139.36898,0.03230
5141.29745,0.03625
5143.22591,0.03262
5145.15438,0.03077
5147.08285,0.02871
5149.01132,0.01803
5150.93979,0.01707
5152.86826,0.03334
5154.79673,0.04852
5156.72519,0.05217
5158.65366,0.04705
5160.58213,0.03380
5162.51060,0.01329
5164.43907,-0.00313
5166.36754,-0.00462
5168.29601,0.00377
5170.22448,0.00710
5172.15294,0.00842
5174.08141,0.01825
5176.00988,0.02356
5177.93835,0.02091
5179.86682,0.03131
5181.79529,0.05826
5183.72376,0.07546
5185.65222,0.06116
5187.58069,0.04000
5189.50916,0.04386
5191.43763,0.05406
5193.36610,0.05425
5195.29457,0.05462
5197.22304,0.05691
5199.15151,0.05854
5201.07997,0.04781
5203.00844,0.02753
5204.93691,0.03152
5206.86538,0.06287
5208.79385,0.07540
5210.72232,0.05425
5212.65079,0.02396
5214.57925,0.00932
5216.50772,0.01866
5218.43619,0.03710
5220.36466,0.04442
5222.29313,0.04210
5224.22160,0.04317
5226.15007,0.05077
5228.07854,0.05351
5230.00700,0.04696
5231.93547,0.03816
5233.86394,0.03081
5235.79241,0.02388
5237.72088,0.01758
5239.64935,0.01856
5241.57782,0.02091
5243.50628,0.01655
5245.43475,0.02443
5247.36322,0.04895
5249.29169,0.06704
5251.22016,0.06975
5253.14863,0.06187
5255.07710,0.04656
5257.00556,0.03000
5258.93403,0.01967
5260.86250,0.02108
5262.79097,0.03230
5264.71944,0.04156
5266.64791,0.04082
5268.57638,0.03194
5270.50485,0.02366
5272.43331,0.02479
5274.36178,0.03131
5276.29025,0.03713
5278.21872,0.04297
5280.14719,0.04423
5282.07566,0.03881
5284.00413,0.03942
5285.93259,0.05308
5287.86106,0.06999
5289.78953,0.07096
5291.71800,0.04867
5293.64647,0.02577
5295.57494,0.01901
5297.50341,0.02890
5299.43188,0.04575
5301.36034,0.05935
5303.28881,0.07211
5305.21728,0.08221
5307.14575,0.08340
5309.07422,0.07743
5311.00269,0.06198
5312.93116,0.04128
5314.85962,0.03825
5316.78809,0.05551
5318.71656,0.07586
5320.64503,0.09672
5322.57350,0.10789
5324.50197,0.09490
5326.43044,0.06525
5328.35891,0.04199
5330.28737,0.05000
5332.21584,0.08224
5334.14431,0.10245
5336.07278,0.10287
5338.00125,0.09748
5339.92972,0.08688
5341.85819,0.07964
5343.78665,0.08188
5345.71512,0.07783
5347.64359,0.05890
5349.57206,0.04406
5351.50053,0.05565
5353.42900,0.07613
5355.35747,0.06336
5357.28594,0.04652
5359.21440,0.05686
5361.14287,0.06650
5363.07134,0.05668
5364.99981,0.04387
5366.92828,0.03921
5368.85675,0.04337
5370.78522,0.05837
5372.71368,0.06721
5374.64215,0.05418
5376.57062,0.04161
5378.49909,0.05275
5380.42756,0.07111
5382.35603,0.07708
5384.28450,0.07616
5386.21297,0.07701
5388.14143,0.07115
5390.06990,0.05863
5391.99837,0.05572
5393.92684,0.07967
5395.85531,0.09244
5397.78378,0.06637
5399.71225,0.04997
5401.64071,0.05266
5403.56918,0.05189
5405.49765,0.05743
5407.42612,0.06794
5409.35459,0.07782
5411.28306,0.08361
5413.21153,0.06961
5415.13999,0.05918
5417.06846,0.06521
5418.99693,0.05963
5420.92540,0.04375
5422.85387,0.04306
5424.78234,0.05961
5426.71081,0.07200
5428.63928,0.07535
5430.56774,0.09137
5432.49621,0.10528
5434.42468,0.08864
5436.35315,0.06055
5438.28162,0.04470
5440.21009,0.03683
5442.13856,0.03206
5444.06702,0.03478
5445.99549,0.05527
5447.92396,0.07892
5449.85243,0.07633
5451.78090,0.06032
5453.70937,0.05775
5455.63784,0.06607
5457.56631,0.07531
5459.49477,0.07523
5461.42324,0.06298
5463.35171,0.05353
5465.28018,0.05182
5467.20865,0.05767
5469.13712,0.06877
5471.06559,0.06786
5472.99405,0.05210
5474.92252,0.04534
5476.85099,0.06517
5478.77946,0.08682
5480.70793,0.08750
5482.63640,0.07539
5484.56487,0.07148
5486.49334,0.08027
5488.42180,0.08079
5490.35027,0.06765
5492.27874,0.06908
5494.20721,0.09173
5496.13568,0.10714
5498.06415,0.09946
5499.99262,0.06911
5501.92108,0.04012
5503.84955,0.04380
5505.77802,0.06389
5507.70649,0.07029
5509.63496,0.07718
5511.56343,0.08449
5513.49190,0.07313
5515.42037,0.04959
5517.34883,0.02879
5519.27730,0.02981
5521.20577,0.05038
5523.13424,0.07243
5525.06271,0.09376
5526.99118,0.10284
5528.91965,0.08968
5530.84811,0.07843
5532.77658,0.08766
5534.70505,0.09278
5536.63352,0.07156
5538.56199,0.04839
5540.49046,0.04914
5542.41893,0.06384
5544.34740,0.07917
5546.27586,0.08355
5548.20433,0.07657
5550.13280,0.08652
5552.06127,0.10308
5553.98974,0.08918
5555.91821,0.06549
5557.84668,0.06366
5559.77514,0.07361
5561.70361,0.07937
5563.63208,0.07234
5565.56055,0.06370
5567.48902,0.06272
5569.41749,0.05926
5571.34596,0.06985
5573.27443,0.10636
5575.20289,0.13200
5577.13136,0.12534
5579.05983,0.10657
5580.98830,0.09194
5582.91677,0.08352
5584.84524,0.07718
5586.77371,0.06375
5588.70217,0.05202
5590.63064,0.06146
5592.55911,0.07906
5594.48758,0.08174
5596.41605,0.06012
5598.34452,0.03632
5600.27299,0.05942
5602.20145,0.11309
5604.12992,0.13198
5606.05839,0.10879
5607.98686,0.06933
5609.91533,0.02778
5611.84380,0.01081
5613.77227,0.03042
5615.70074,0.05484
5617.62920,0.06836
5619.55767,0.08721
5621.48614,0.11203
5623.41461,0.12591
5625.34308,0.12756
5627.27155,0.11199
5629.20002,0.08222
5631.12848,0.07201
5633.05695,0.07653
5634.98542,0.07294
5636.91389,0.07110
5638.84236,0.07069
5640.77083,0.06528
5642.69930,0.06538
5644.62777,0.07170
5646.55623,0.07016
5648.48470,0.05646
5650.41317,0.04879
5652.34164,0.05504
5654.27011,0.05985
5656.19858,0.06887
5658.12705,0.08744
5660.05551,0.09236
5661.98398,0.08177
5663.91245,0.06343
5665.84092,0.04953
5667.76939,0.06756
5669.69786,0.09224
5671.62633,0.08984
5673.55480,0.07949
5675.48326,0.06991
5677.41173,0.06882
5679.34020,0.08998
5681.26867,0.10392
5683.19714,0.09863
5685.12561,0.09556
5687.05408,0.08610
5688.98254,0.06372
5690.91101,0.04135
5692.83948,0.02430
5694.76795,0.03063
5696.69642,0.05909
5698.62489,0.07566
5700.55336,0.08037
5702.48183,0.09251
5704.41029,0.10627
5706.33876,0.11296
5708.26723,0.11044
5710.19570,0.09873
5712.12417,0.09000
5714.05264,0.09161
5715.98111,0.09185
5717.90957,0.09335
5719.83804,0.10379
5721.76651,0.10421
5723.69498,0.08923
5725.62345,0.07683
5727.55192,0.06638
5729.48039,0.04915
5731.40886,0.02780
5733.33732,0.02014
5735.26579,0.05116
5737.19426,0.08822
5739.12273,0.08145
5741.05120,0.05805
5742.97967,0.04793
5744.90814,0.04241
5746.83660,0.03876
5748.76507,0.04484
5750.69354,0.06587
5752.62201,0.08816
5754.55048,0.09025
5756.47895,0.07976
5758.40742,0.07540
5760.33588,0.07770
5762.26435,0.08236
5764.19282,0.07978
5766.12129,0.05947
5768.04976,0.03505
5769.97823,0.02876
5771.90670,0.04792
5773.83517,0.09041
5775.76363,0.13455
5777.69210,0.14140
5779.62057,0.11724
5781.54904,0.09656
5783.47751,0.08286
5785.40598,0.07402
5787.33445,0.06458
5789.26291,0.05546
5791.19138,0.06650
5793.11985,0.08720
5795.04832,0.09595
5796.97679,0.09186
5798.90526,0.06900
5800.83373,0.04491
5802.76220,0.04404
5804.69066,0.05347
5806.61913,0.06291
5808.54760,0.06912
5810.47607,0.06167
5812.40454,0.04146
5814.33301,0.04191
5816.26148,0.09927
5818.18994,0.16739
5820.11841,0.15729
5822.04688,0.08586
5823.97535,0.04766
5825.90382,0.05647
5827.83229,0.05939
5829.76076,0.04681
5831.68923,0.05182
5833.61769,0.06331
5835.54616,0.06315
5837.47463,0.06013
5839.40310,0.04798
5841.33157,0.04315
5843.26004,0.06048
5845.18851,0.08583
5847.11697,0.10581
5849.04544,0.10232
5850.97391,0.09209
5852.90238,0.11303
5854.83085,0.15241
5856.75932,0.17450
5858.68779,0.17183
5860.61626,0.14096
5862.54472,0.09483
5864.47319,0.07256
5866.40166,0.07452
5868.33013,0.07664
5870.25860,0.08072
5872.18707,0.10289
5874.11554,0.11854
5876.04400,0.09805
5877.97247,0.07489
5879.90094,0.07323
5881.82941,0.08389
5883.75788,0.09050
5885.68635,0.07310
5887.61482,0.05695
5889.54329,0.07968
5891.47175,0.10475
5893.40022,0.08747
5895.32869,0.05381
5897.25716,0.04976
5899.18563,0.07747
5901.11410,0.10968
5903.04257,0.12529
5904.97103,0.10514
5906.89950,0.07389
5908.82797,0.07192
5910.75644,0.07643
5912.68491,0.06826
5914.61338,0.06873
5916.54185,0.07747
5918.47032,0.07352
5920.39878,0.06200
5922.32725,0.06900
5924.25572,0.10026
5926.18419,0.11964
5928.11266,0.08592
5930.04113,0.04397
5931.96960,0.06032
5933.89806,0.09697
5935.82653,0.08638
5937.75500,0.06085
5939.68347,0.06426
5941.61194,0.07222
5943.54041,0.06689
5945.46888,0.05894
5947.39734,0.05832
5949.32581,0.07396
5951.25428,0.09910
5953.18275,0.11401
5955.11122,0.12119
5957.03969,0.14160
5958.96816,0.14682
5960.89663,0.09889
5962.82509,0.05033
5964.75356,0.04392
5966.68203,0.06088
5968.61050,0.09097
5970.53897,0.12587
5972.46744,0.13376
5974.39591,0.11254
5976.32437,0.10091
5978.25284,0.10228
5980.18131,0.09870
5982.10978,0.10257
5984.03825,0.11393
5985.96672,0.10459
5987.89519,0.08611
5989.82366,0.09136
5991.75212,0.09717
5993.68059,0.07328
5995.60906,0.05298
5997.53753,0.07408
5999.46600,0.10274
6001.39447,0.09135
6003.32294,0.06888
6005.25140,0.10408
6007.17987,0.17097
6009.10834,0.19598
6011.03681,0.17028
6012.96528,0.12721
6014.89375,0.08706
6016.82222,0.05600
6018.75069,0.04875
6020.67915,0.06018
6022.60762,0.07703
6024.53609,0.09793
6026.46456,0.11100
6028.39303,0.10755
6030.32150,0.08773
6032.24997,0.06499
6034.17843,0.05789
6036.10690,0.08700
6038.03537,0.13573
6039.96384,0.14107
6041.89231,0.09696
6043.82078,0.06269
6045.74925,0.06814
6047.67772,0.08301
6049.60618,0.09230
6051.53465,0.10228
6053.46312,0.10726
6055.39159,0.11777
6057.32006,0.13786
6059.24853,0.15047
6061.17700,0.13749
6063.10546,0.11582
6065.03393,0.12633
6066.96240,0.13941
6068.89087,0.12523
6070.81934,0.11124
6072.74781,0.09465
6074.67628,0.06074
6076.60475,0.05234
6078.53321,0.08232
6080.46168,0.10707
6082.39015,0.11568
6084.31862,0.11630
6086.24709,0.09283
6088.17556,0.06897
6090.10403,0.09532
6092.03249,0.14329
6093.96096,0.17038
6095.88943,0.16976
6097.81790,0.14840
6099.74637,0.12700
6101.67484,0.11160
6103.60331,0.11302
6105.53177,0.11908
6107.46024,0.10237
6109.38871,0.06830
6111.31718,0.03359
6113.24565,0.02596
6115.17412,0.06149
6117.10259,0.11370
6119.03106,0.12240
6120.95952,0.08651
6122.88799,0.06471
6124.81646,0.06123
6126.74493,0.06152
6128.67340,0.06476
6130.60187,0.05720
6132.53034,0.05338
6134.45880,0.08668
6136.38727,0.11181
6138.31574,0.08307
6140.24421,0.04168
6142.17268,0.02465
6144.10115,0.02976
6146.02962,0.04432
6147.95809,0.05601
6149.88655,0.05479
6151.81502,0.04861
6153.74349,0.05180
6155.67196,0.05522
6157.60043,0.06360
6159.52890,0.07513
6161.45737,0.07992
6163.38583,0.11035
6165.31430,0.15239
6167.24277,0.14340
6169.17124,0.11123
6171.09971,0.10137
6173.02818,0.09274
6174.95665,0.07112
6176.88512,0.06475
6178.81358,0.08565
6180.74205,0.09096
6182.67052,0.06710
6184.59899,0.04941
6186.52746,0.04970
6188.45593,0.06119
6190.38440,0.07179
6192.31286,0.09307
6194.24133,0.12536
6196.16980,0.13713
6198.09827,0.13063
6200.02674,0.12114
6201.95521,0.11585
6203.88368,0.12105
6205.81215,0.12445
6207.74061,0.11358
6209.66908,0.07017
6211.59755,0.00680
6213.52602,-0.01751
6215.45449,-0.01297
6217.38296,-0.01326
6219.31143,0.01303
6221.23989,0.07667
6223.16836,0.13043
6225.09683,0.14528
6227.02530,0.12707
6228.95377,0.10713
6230.88224,0.11237
6232.81071,0.11329
6234.73918,0.09565
6236.66764,0.10328
6238.59611,0.14403
6240.52458,0.16025
6242.45305,0.12336
6244.38152,0.08867
6246.30999,0.09386
6248.23846,0.11894
6250.16692,0.15092
6252.09539,0.17901
6254.02386,0.17555
6255.95233,0.14051
6257.88080,0.10880
6259.80927,0.10116
6261.73774,0.09803
6263.66621,0.09172
6265.59467,0.10798
6267.52314,0.12913
6269.45161,0.12206
6271.38008,0.10800
6273.30855,0.10929
6275.23702,0.13373
6277.16549,0.14155
6279.09395,0.08675
6281.02242,0.02921
6282.95089,0.02879
6284.87936,0.05050
6286.80783,0.05059
6288.73630,0.03746
6290.66477,0.05951
6292.59323,0.10494
6294.52170,0.08424
6296.45017,0.01136
6298.37864,-0.02202
6300.30711,-0.01248
6302.23558,0.01366
6304.16405,0.04427
6306.09252,0.03951
6308.02098,0.01706
6309.94945,0.02716
6311.87792,0.05302
6313.80639,0.06094
6315.73486,0.05378
6317.66333,0.04512
6319.59180,0.03790
6321.52026,0.03615
6323.44873,0.04256
6325.37720,0.06565
6327.30567,0.10109
6329.23414,0.10037
6331.16261,0.06937
6333.09108,0.07882
6335.01955,0.10933
6336.94801,0.11072
6338.87648,0.09635
6340.80495,0.07182
6342.73342,0.03756
6344.66189,0.02339
6346.59036,0.04194
6348.51883,0.06035
6350.44729,0.09660
6352.37576,0.15595
6354.30423,0.14518
6356.23270,0.09203
6358.16117,0.07920
6360.08964,0.06673
6362.01811,0.02207
6363.94658,-0.00937
6365.87504,-0.01990
6367.80351,-0.01552
6369.73198,0.02212
6371.66045,0.08702
6373.58892,0.13976
6375.51739,0.14137
6377.44586,0.11019
6379.37432,0.07866
6381.30279,0.05666
6383.23126,0.05233
6385.15973,0.06989
6387.08820,0.10326
6389.01667,0.13686
6390.94514,0.14020
6392.87361,0.09883
6394.80207,0.07712
6396.73054,0.09973
6398.65901,0.11114
6400.58748,0.11611
6402.51595,0.12129
6404.44442,0.10048
6406.37289,0.07017
6408.30135,0.06759
6410.22982,0.07849
6412.15829,0.07064
6414.08676,0.05156
6416.01523,0.03969
6417.94370,0.04136
6419.87217,0.03904
6421.80064,0.04950
6423.72910,0.07820
6425.65757,0.08031
6427.58604,0.07042
6429.51451,0.07640
6431.44298,0.08509
6433.37145,0.08933
6435.29992,0.09317
6437.22838,0.10742
6439.15685,0.12419
6441.08532,0.12506
6443.01379,0.10971
6444.94226,0.09870
6446.87073,0.11715
6448.79920,0.14625
6450.72766,0.13497
6452.65613,0.08371
6454.58460,0.04124
6456.51307,0.05797
6458.44154,0.11873
6460.37001,0.12273
6462.29848,0.07541
6464.22695,0.05992
6466.15541,0.05122
6468.08388,0.00912
6470.01235,-0.02769
6471.94082,-0.01997
6473.86929,0.03650
6475.79776,0.11665
6477.72623,0.14742
6479.65469,0.09090
6481.58316,0.02475
6483.51163,0.01874
6485.44010,0.04089
6487.36857,0.08159
6489.29704,0.13493
6491.22551,0.15549
6493.15398,0.13934
6495.08244,0.10134
6497.01091,0.06902
6498.93938,0.07654
6500.86785,0.08798
6502.79632,0.06923
6504.72479,0.04223
6506.65326,0.03062
6508.58172,0.08184
6510.51019,0.15273
6512.43866,0.12398
6514.36713,0.05174
6516.29560,0.04526
6518.22407,0.09830
6520.15254,0.12111
6522.08101,0.05170
6524.00947,-0.00911
6525.93794,0.05592
6527.86641,0.13954
6529.79488,0.14713
6531.72335,0.13576
6533.65182,0.13572
6535.58029,0.10822
6537.50875,0.04552
6539.43722,0.01426
6541.36569,0.06351
6543.29416,0.13070
6545.22263,0.15355
6547.15110,0.13940
6549.07957,0.09150
6551.00804,0.03944
6552.93650,0.03594
6554.86497,0.08255
6556.79344,0.15294
6558.72191,0.20734
6560.65038,0.21927
6562.57885,0.21978
6564.50732,0.20872
6566.43578,0.12078
6568.36425,-0.00744
6570.29272,-0.05771
6572.22119,-0.02553
6574.14966,0.02060
6576.07813,0.05727
6578.00660,0.08611
6579.93507,0.12828
6581.86353,0.16856
6583.79200,0.18921
6585.72047,0.21486
6587.64894,0.20966
6589.57741,0.15926
6591.50588,0.10052
6593.43435,0.05908
6595.36281,0.04618
6597.29128,0.01723
6599.21975,-0.01810
6601.14822,0.00845
6603.07669,0.04982
6605.00516,0.01026
6606.93363,-0.06732
6608.86210,-0.05962
6610.79056,0.05926
6612.71903,0.17932
6614.64750,0.16117
6616.57597,0.02866
6618.50444,-0.03994
6620.43291,-0.01277
6622.36138,0.03111
6624.28984,0.07744
6626.21831,0.11380
6628.14678,0.08115
6630.07525,-0.02609
6632.00372,-0.05199
6633.93219,0.06929
6635.86066,0.17690
6637.78912,0.12787
6639.71759,0.01704
6641.64606,-0.04829
6643.57453,-0.06769
6645.50300,-0.07058
6647.43147,-0.06741
6649.35994,-0.05788
6651.28841,-0.03445
6653.21687,-0.00286
6655.14534,0.02196
6657.07381,0.08227
6659.00228,0.17295
6660.93075,0.15506
6662.85922,0.04051
6664.78769,0.01342
6666.71615,0.09830
6668.64462,0.15189
6670.57309,0.15862
6672.50156,0.16777
6674.43003,0.10719
6676.35850,-0.01642
6678.28697,-0.10824
6680.21544,-0.10704
6682.14390,-0.01015
6684.07237,0.10186
6686.00084,0.09616
6687.92931,-0.02928
6689.85778,-0.10472
6691.78625,-0.07422
6693.71472,-0.01994
6695.64318,0.02744
6697.57165,0.05206
6699.50012,0.04434
6701.42859,0.06831
6703.35706,0.18674
6705.28553,0.26918
6707.21400,0.20499
6709.14247,0.11106
6711.07093,0.06715
6712.99940,0.06858
6714.92787,0.10597
6716.85634,0.12466
6718.78481,0.12312
6720.71328,0.13856
6722.64175,0.15430
6724.57021,0.14678
6726.49868,0.10923
6728.42715,0.07800
6730.35562,0.07341
6732.28409,0.08513
6734.21256,0.15049
6736.14103,0.20457
6738.06950,0.14809
6739.99796,0.05094
6741.92643,0.01950
6743.85490,0.04487
6745.78337,0.05856
6747.71184,0.06815
6749.64031,0.08475
6751.56878,0.08516
6753.49724,0.09204
6755.42571,0.08680
6757.35418,0.04983
6759.28265,0.03777
6761.21112,0.05863
6763.13959,0.05282
6765.06806,-0.02080
6766.99653,-0.11516
6768.92499,-0.12895
6770.85346,-0.08499
6772.78193,-0.04039
6774.71040,0.01485
6776.63887,0.04931
6778.56734,0.02193
6780.49581,-0.01589
6782.42427,-0.02106
6784.35274,-0.01187
6786.28121,0.00705
6788.20968,0.01912
6790.13815,0.01822
6792.06662,0.03585
6793.99509,0.05510
6795.92355,0.07618
6797.85202,0.12124
6799.78049,0.14272
6801.70896,0.08384
6803.63743,0.02192
6805.56590,0.04065
6807.49437,0.07119
6809.42284,0.08594
6811.35130,0.11308
6813.27977,0.14569
6815.20824,0.16876
6817.13671,0.16200
6819.06518,0.12584
6820.99365,0.07872
6822.92212,0.02048
6824.85058,-0.00392
6826.77905,0.03364
6828.70752,0.07030
6830.63599,0.06575
6832.56446,0.06119
6834.49293,0.06445
6836.42140,0.06009
6838.34987,0.06215
6840.27833,0.06246
6842.20680,0.03217
6844.13527,-0.01449
6846.06374,-0.02127
6847.99221,0.04268
6849.92068,0.11750
6851.84915,0.12353
6853.77761,0.06266
6855.70608,-0.02968
6857.63455,-0.06335
6859.56302,-0.02768
6861.49149,-0.00846
6863.41996,-0.01594
6865.34843,-0.01504
6867.27690,-0.04682
6869.20536,-0.07160
6871.13383,0.00926
6873.06230,0.13070
6874.99077,0.15308
6876.91924,0.11422
6878.84771,0.08258
6880.77618,0.09540
6882.70464,0.13876
6884.63311,0.10156
6886.56158,-0.01516
6888.49005,-0.06761
6890.41852,-0.00989
6892.34699,0.08933
6894.27546,0.13915
6896.20393,0.12071
6898.13239,0.07533
6900.06086,0.03712
6901.98933,0.02151
6903.91780,0.00588
6905.84627,-0.02873
6907.77474,-0.02181
6909.70321,0.07949
6911.63167,0.16361
6913.56014,0.11527
6915.48861,0.07199
6917.41708,0.10066
6919.34555,0.07583
6921.27402,-0.01375
6923.20249,-0.07554
6925.13096,-0.08722
6927.05942,-0.06577
6928.98789,-0.04424
6930.91636,-0.06201
6932.84483,-0.05525
6934.77330,0.01507
6936.70177,0.06332
6938.63024,0.10849
6940.55870,0.19376
6942.48717,0.18691
6944.41564,0.08241
6946.34411,0.03439
6948.27258,0.04596
6950.20105,0.02349
6952.12952,-0.02273
6954.05799,-0.05923
6955.98645,-0.07515
6957.91492,-0.08879
6959.84339,-0.10269
6961.77186,-0.06628
6963.70033,0.01269
6965.62880,0.05790
6967.55727,0.03312
6969.48573,-0.00039
6971.41420,0.04124
6973.34267,0.12879
6975.27114,0.15678
6977.19961,0.07810
6979.12808,-0.02469
6981.05655,-0.04181
6982.98501,0.00384
6984.91348,-0.02607
6986.84195,-0.14878
6988.77042,-0.23752
6990.69889,-0.18570
6992.62736,-0.04013
6994.55583,0.08187
6996.48430,0.10866
6998.41276,0.08306
7000.34123,0.12760
7002.26970,0.17635
7004.19817,0.15471
7006.12664,0.14503
7008.05511,0.14532
7009.98358,0.11717
7011.91204,0.10996
7013.84051,0.13039
7015.76898,0.12219
7017.69745,0.08123
7019.62592,0.05181
7021.55439,0.05713
7023.48286,0.08756
7025.41133,0.08206
7027.33979,-0.03552
7029.26826,-0.16904
7031.19673,-0.12397
7033.12520,0.00592
7035.05367,0.09288
7036.98214,0.14917
7038.91061,0.13069
7040.83907,0.07150
7042.76754,0.17234
7044.69601,0.36074
7046.62448,0.38836
7048.55295,0.33686
7050.48142,0.25250
7052.40989,0.09358
7054.33836,0.04776
7056.26682,0.19792
7058.19529,0.24778
7060.12376,0.12114
7062.05223,0.04953
7063.98070,0.04175
7065.90917,0.04382
7067.83764,0.10735
7069.76610,0.23533
7071.69457,0.30896
7073.62304,0.25694
7075.55151,0.16996
7077.47998,0.11078
7079.40845,0.11676
7081.33692,0.16766
7083.26539,0.11210
7085.19385,-0.01012
7087.12232,-0.07029
7089.05079,-0.04155
7090.97926,0.00030
7092.90773,0.03177
7094.83620,0.05625
7096.76467,-0.03273
7098.69313,-0.18854
7100.62160,-0.22215
7102.55007,-0.19800
7104.47854,-0.15449
7106.40701,-0.10153
7108.33548,-0.14231
7110.26395,-0.15439
7112.19242,-0.02123
7114.12088,0.07498
7116.04935,0.00824
7117.97782,-0.07164
7119.90629,-0.01422
7121.83476,0.01154
7123.76323,-0.08711
7125.69170,-0.15282
7127.62016,-0.11477
7129.54863,-0.06727
7131.47710,0.00021
7133.40557,0.10684
7135.33404,0.11194
7137.26251,-0.00086
7139.19098,-0.06313
7141.11944,0.02687
7143.04791,0.20405
7144.97638,0.30095
7146.90485,0.22232
7148.83332,0.11471
7150.76179,0.09858
7152.69026,0.15403
7154.61873,0.17350
7156.54719,0.13180
7158.47566,0.12532
7160.40413,0.17554
7162.33260,0.19901
7164.26107,0.13173
7166.18954,0.03173
7168.11801,0.00055
7170.04647,0.00053
7171.97494,-0.06973
7173.90341,-0.12533
7175.83188,-0.07026
7177.76035,-0.02058
7179.68882,0.00666
7181.61729,0.12463
7183.54576,0.23342
7185.47422,0.23125
7187.40269,0.18645
7189.33116,0.10818
7191.25963,-0.00152
7193.18810,-0.07340
7195.11657,-0.08995
7197.04504,-0.11560
7198.97350,-0.12186
7200.90197,-0.03340
7202.83044,0.13321
7204.75891,0.24745
7206.68738,0.21499
7208.61585,0.17669
7210.54432,0.19757
7212.47279,0.26030
7214.40125,0.31676
7216.32972,0.25894
7218.25819,0.08563
7220.18666,0.02792
7222.11513,0.05255
7224.04360,0.05188
7225.97207,0.04041
7227.90053,0.02033
7229.82900,0.00520
7231.75747,0.05950
7233.68594,0.11700
7235.61441,0.08936
7237.54288,0.04569
7239.47135,0.09382
7241.39982,0.19512
7243.32828,0.18039
7245.25675,0.05309
7247.18522,-0.02891
7249.11369,-0.08309
7251.04216,-0.15675
7252.97063,-0.16626
7254.89910,-0.02679
7256.82756,0.11683
7258.75603,0.18403
7260.68450,0.14220
7262.61297,0.07668
7264.54144,0.10554
7266.46991,0.12503
7268.39838,0.06554
7270.32685,-0.05626
7272.25531,-0.15522
7274.18378,-0.09152
7276.11225,0.04499
7278.04072,0.23700
7279.96919,0.50969
7281.89766,0.55578
7283.82613,0.31170
7285.75459,0.03737
7287.68306,-0.11783
7289.61153,-0.10686
7291.54000,-0.00559
7293.46847,-0.01505
7295.39694,-0.06952
7297.32541,0.01690
7299.25387,0.10958
7301.18234,0.04692
7303.11081,-0.06314
7305.03928,-0.07717
7306.96775,-0.03490
7308.89622,0.03727
7310.82469,0.12325
7312.75316,0.12981
7314.68162,0.11651
7316.61009,0.14571
7318.53856,0.13702
7320.46703,0.11060
7322.39550,0.17275
7324.32397,0.29478
7326.25244,0.35738
7328.18090,0.40497
7330.10937,0.42306
7332.03784,0.30241
7333.96631,0.18990
7335.89478,0.18750
7337.82325,0.20520
7339.75172,0.13156
7341.68019,0.03520
7343.60865,0.03060
7345.53712,0.05960
7347.46559,0.06819
7349.39406,0.03778
7351.32253,-0.01887
7353.25100,-0.00895
7355.17947,0.13040
7357.10793,0.25607
7359.03640,0.09543
7360.96487,-0.24542
7362.89334,-0.46673
7364.82181,-0.44408
7366.75028,-0.24498
7368.67875,-0.09218
7370.60722,-0.02263
7372.53568,0.05673
7374.46415,0.11325
7376.39262,0.08105
7378.32109,0.04791
7380.24956,0.02409
7382.17803,-0.03198
7384.10650,-0.09611
7386.03496,-0.13259
7387.96343,-0.07122
7389.89190,0.07954
7391.82037,0.20362
7393.74884,0.21509
7395.67731,0.09902
7397.60578,-0.04790
7399.53425,-0.16267
7401.46271,-0.24601
7403.39118,-0.20568
7405.31965,-0.02948
7407.24812,0.02310
7409.17659,-0.03568
7411.10506,-0.02130
7413.03353,0.02266
7414.96199,0.07221
7416.89046,0.16285
7418.81893,0.20100
7420.74740,0.14903
7422.67587,0.13346
7424.60434,0.12706
7426.53281,0.09577
7428.46128,0.10969
7430.38974,0.16581
7432.31821,0.10582
7434.24668,-0.07957
7436.17515,-0.24097
7438.10362,-0.24980
7440.03209,-0.11273
7441.96056,0.00436
7443.88902,0.01493
7445.81749,0.01922
7447.74596,0.07396
7449.67443,0.15990
7451.60290,0.24454
7453.53137,0.28697
7455.45984,0.30120
7457.38831,0.28718
7459.31677,0.24194
7461.24524,0.14449
7463.17371,0.02793
7465.10218,-0.00156
7467.03065,0.03403
7468.95912,0.09490
7470.88759,0.22713
7472.81605,0.35610
7474.74452,0.31707
7476.67299,0.10037
7478.60146,-0.02553
7480.52993,0.14780
7482.45840,0.28402
7484.38687,0.23604
7486.31533,0.21512
7488.24380,0.21023
7490.17227,0.19137
7492.10074,0.16746
7494.02921,0.14254
7495.95768,0.14704
7497.88615,0.11550
