399.19301,0.91100
401.12148,-0.09370
403.04995,0.11148
404.97842,0.10026
406.90689,0.01089
408.83536,0.01282
410.76382,0.09068
412.69229,0.11475
414.62076,0.06097
416.54923,-0.02939
418.47770,-0.11656
420.40617,-0.15056
422.33464,-0.12664
424.26311,-0.09012
426.19157,-0.05273
428.12004,0.00207
430.04851,0.05343
431.97698,0.11317
433.90545,0.16732
435.83392,0.15249
437.76239,0.11459
439.69085,0.09768
441.61932,0.08873
443.54779,0.10987
445.47626,0.14692
447.40473,0.13146
449.33320,0.07156
451.26167,0.03467
453.19013,0.02900
455.11860,0.02399
457.04707,0.03704
458.97554,0.04978
460.90401,0.00862
462.83248,-0.03657
464.76095,-0.02335
466.68942,0.01524
468.61788,0.03377
470.54635,0.06112
472.47482,0.14267
474.40329,0.23188
476.33176,0.20068
478.26023,0.12814
480.18870,0.08475
482.11716,0.06250
484.04563,0.04806
485.97410,0.05618
487.90257,0.08773
489.83104,0.13189
491.75951,0.15817
493.68798,0.14003
495.61645,0.10125
497.54491,0.07109
499.47338,0.06563
501.40185,0.07991
503.33032,0.08024
505.25879,0.07060
507.18726,0.08342
509.11573,0.11269
511.04419,0.12526
512.97266,0.11537
514.90113,0.10728
516.82960,0.10667
518.75807,0.08681
520.68654,0.04913
522.61501,0.03151
524.54348,0.06320
526.47194,0.09851
528.40041,0.06795
530.32888,0.03344
532.25735,0.06047
534.18582,0.09926
536.11429,0.10601
538.04276,0.08654
539.97122,0.06596
541.89969,0.07235
543.82816,0.08775
545.75663,0.07887
547.68510,0.06438
549.61357,0.11871
551.54204,0.35368
553.47051,0.61635
555.39897,0.54528
557.32744,0.24391
559.25591,0.08692
561.18438,0.07519
563.11285,0.10123
565.04132,0.13848
566.96979,0.15166
568.89825,0.12622
570.82672,0.09318
572.75519,0.09385
574.68366,0.11399
576.61213,0.11424
578.54060,0.09189
580.46907,0.07374
582.39754,0.08094
584.32600,0.10419
586.25447,0.11828
588.18294,0.11752
590.11141,0.11838
592.03988,0.12215
593.96835,0.11679
595.89682,0.10168
597.82528,0.08941
599.75375,0.08692
601.68222,0.08010
603.61069,0.06466
605.53916,0.06454
607.46763,0.08266
609.39610,0.09988
611.32456,0.11220
613.25303,0.11258
615.18150,0.09605
617.10997,0.08500
619.03844,0.09103
620.96691,0.08983
622.89538,0.07795
624.82385,0.08441
626.75231,0.11207
628.68078,0.12836
630.60925,0.11510
632.53772,0.09575
634.46619,0.09599
636.39466,0.10518
638.32313,0.10696
640.25159,0.10340
642.18006,0.09982
644.10853,0.10353
646.03700,0.11655
647.96547,0.12357
649.89394,0.12032
651.82241,0.12119
653.75088,0.12572
655.67934,0.12450
657.60781,0.12313
659.53628,0.12596
661.46475,0.12558
663.39322,0.12349
665.32169,0.12837
667.25016,0.14641
669.17862,0.15544
671.10709,0.13809
673.03556,0.12422
674.96403,0.11625
676.89250,0.10677
678.82097,0.10288
680.74944,0.11895
682.67791,0.14390
684.60637,0.15101
686.53484,0.13417
688.46331,0.11097
690.39178,0.10233
692.32025,0.10566
694.24872,0.10730
696.17719,0.11191
698.10565,0.12508
700.03412,0.13593
701.96259,0.13649
703.89106,0.13377
705.81953,0.13570
707.74800,0.13391
709.67647,0.12363
711.60494,0.12028
713.53340,0.12383
715.46187,0.12186
717.39034,0.12316
719.31881,0.13360
721.24728,0.14728
723.17575,0.16163
725.10422,0.16948
727.03268,0.16203
728.96115,0.14242
730.88962,0.12236
732.81809,0.11033
734.74656,0.11116
736.67503,0.12010
738.60350,0.12738
740.53197,0.13083
742.46043,0.12921
744.38890,0.12489
746.31737,0.12485
748.24584,0.12593
750.17431,0.12376
752.10278,0.12234
754.03125,0.12024
755.95971,0.11764
757.88818,0.12013
759.81665,0.12501
761.74512,0.12900
763.67359,0.13265
765.60206,0.13713
767.53053,0.13710
769.45900,0.13062
771.38746,0.12612
773.31593,0.12163
775.24440,0.11940
777.17287,0.12830
779.10134,0.14296
781.02981,0.15279
782.95828,0.14931
784.88674,0.13525
786.81521,0.11990
788.74368,0.10935
790.67215,0.10714
792.60062,0.11254
794.52909,0.12435
796.45756,0.13354
798.38602,0.13087
800.31449,0.12189
802.24296,0.11895
804.17143,0.12417
806.09990,0.12279
808.02837,0.10897
809.95684,0.10074
811.88531,0.11040
813.81377,0.12225
815.74224,0.11562
817.67071,0.09866
819.59918,0.09335
821.52765,0.10452
823.45612,0.12275
825.38459,0.13896
827.31305,0.14986
829.24152,0.15304
831.16999,0.14369
833.09846,0.12350
835.02693,0.10472
836.95540,0.09706
838.88387,0.10257
840.81234,0.11907
842.74080,0.13042
844.66927,0.12242
846.59774,0.11053
848.52621,0.10933
850.45468,0.11788
852.38315,0.13381
854.31162,0.14350
856.24008,0.13914
858.16855,0.12860
860.09702,0.12215
862.02549,0.12868
863.95396,0.14141
865.88243,0.14384
867.81090,0.12828
869.73937,0.10729
871.66783,0.10932
873.59630,0.12987
875.52477,0.14017
877.45324,0.14558
879.38171,0.15450
881.31018,0.14986
883.23865,0.13481
885.16711,0.12881
887.09558,0.13298
889.02405,0.14162
890.95252,0.15335
892.88099,0.16142
894.80946,0.15588
896.73793,0.14195
898.66640,0.13597
900.59486,0.13710
902.52333,0.13622
904.45180,0.13553
906.38027,0.13605
908.30874,0.13476
910.23721,0.13406
912.16568,0.13664
914.09414,0.13870
916.02261,0.13650
917.95108,0.13279
919.87955,0.13235
921.80802,0.13654
923.73649,0.14373
925.66496,0.14877
927.59343,0.14713
929.52189,0.14650
931.45036,0.15038
933.37883,0.14832
935.30730,0.14136
937.23577,0.13675
939.16424,0.13495
941.09271,0.13470
943.02117,0.13341
944.94964,0.13342
946.87811,0.13543
948.80658,0.13549
950.73505,0.13561
952.66352,0.13718
954.59199,0.13930
956.52045,0.14304
958.44892,0.14401
960.37739,0.13964
962.30586,0.13455
964.23433,0.12845
966.16280,0.12320
968.09127,0.12570
970.01974,0.13531
971.94820,0.14662
973.87667,0.15686
975.80514,0.16493
977.73361,0.16385
979.66208,0.15055
981.59055,0.13899
983.51902,0.13807
985.44748,0.13979
987.37595,0.13893
989.30442,0.13771
991.23289,0.14020
993.16136,0.14835
995.08983,0.15485
997.01830,0.15194
998.94677,0.14275
1000.87523,0.13721
1002.80370,0.13899
1004.73217,0.14005
1006.66064,0.13978
1008.58911,0.14557
1010.51758,0.15245
1012.44605,0.15277
1014.37451,0.15058
1016.30298,0.14994
1018.23145,0.14871
1020.15992,0.14678
1022.08839,0.14705
1024.01686,0.15261
1025.94533,0.17301
1027.87380,0.20098
1029.80226,0.19670
1031.73073,0.16305
1033.65920,0.14605
1035.58767,0.14436
1037.51614,0.13938
1039.44461,0.13930
1041.37308,0.14587
1043.30154,0.15212
1045.23001,0.15817
1047.15848,0.16212
1049.08695,0.16220
1051.01542,0.16283
1052.94389,0.16382
1054.87236,0.16160
1056.80083,0.15623
1058.72929,0.15406
1060.65776,0.15936
1062.58623,0.16622
1064.51470,0.16816
1066.44317,0.16626
1068.37164,0.16597
1070.30011,0.16463
1072.22857,0.16107
1074.15704,0.16267
1076.08551,0.16764
1078.01398,0.17181
1079.94245,0.17535
1081.87092,0.17133
1083.79939,0.15759
1085.72786,0.14630
1087.65632,0.14311
1089.58479,0.14303
1091.51326,0.14513
1093.44173,0.15128
1095.37020,0.15855
1097.29867,0.16113
1099.22714,0.15922
1101.15560,0.15786
1103.08407,0.15839
1105.01254,0.15747
1106.94101,0.15587
1108.86948,0.15559
1110.79795,0.15277
1112.72642,0.14945
1114.65489,0.15178
1116.58335,0.15533
1118.51182,0.15489
1120.44029,0.15459
1122.36876,0.15562
1124.29723,0.15641
1126.22570,0.15734
1128.15417,0.15574
1130.08263,0.15197
1132.01110,0.14868
1133.93957,0.14606
1135.86804,0.14726
1137.79651,0.15351
1139.72498,0.16023
1141.65345,0.16331
1143.58191,0.16017
1145.51038,0.15323
1147.43885,0.14894
1149.36732,0.14760
1151.29579,0.14825
1153.22426,0.15412
1155.15273,0.16264
1157.08120,0.16685
1159.00966,0.16562
1160.93813,0.16347
1162.86660,0.16533
1164.79507,0.16960
1166.72354,0.17161
1168.65201,0.17141
1170.58048,0.17006
1172.50894,0.16798
1174.43741,0.16704
1176.36588,0.16662
1178.29435,0.16431
1180.22282,0.16367
1182.15129,0.16659
1184.07976,0.16814
1186.00823,0.16754
1187.93669,0.16693
1189.86516,0.16608
1191.79363,0.16463
1193.72210,0.16355
1195.65057,0.16355
1197.57904,0.16447
1199.50751,0.16536
1201.43597,0.16457
1203.36444,0.16432
1205.29291,0.16708
1207.22138,0.16919
1209.14985,0.16793
1211.07832,0.16606
1213.00679,0.16512
1214.93526,0.16368
1216.86372,0.16141
1218.79219,0.15957
1220.72066,0.15870
1222.64913,0.15975
1224.57760,0.16320
1226.50607,0.16309
1228.43454,0.15667
1230.36300,0.15313
1232.29147,0.15792
1234.21994,0.16535
1236.14841,0.16880
1238.07688,0.16642
1240.00535,0.16247
1241.93382,0.16262
1243.86229,0.16438
1245.79075,0.16241
1247.71922,0.15802
1249.64769,0.15578
1251.57616,0.15527
1253.50463,0.15328
1255.43310,0.15282
1257.36157,0.15524
1259.29003,0.15734
1261.21850,0.15973
1263.14697,0.16205
1265.07544,0.16199
1267.00391,0.16030
1268.93238,0.15895
1270.86085,0.15894
1272.78932,0.15921
1274.71778,0.16003
1276.64625,0.16228
1278.57472,0.16169
1280.50319,0.15627
1282.43166,0.15377
1284.36013,0.15844
1286.28860,0.16197
1288.21706,0.16012
1290.14553,0.15971
1292.07400,0.16260
1294.00247,0.16495
1295.93094,0.16499
1297.85941,0.16137
1299.78788,0.15109
1301.71634,0.13282
1303.64481,0.11560
1305.57328,0.11767
1307.50175,0.14108
1309.43022,0.16339
1311.35869,0.17100
1313.28716,0.17131
1315.21563,0.17318
1317.14409,0.17767
1319.07256,0.17908
1321.00103,0.17533
1322.92950,0.17354
1324.85797,0.17309
1326.78644,0.16781
1328.71491,0.16142
1330.64337,0.15571
1332.57184,0.15281
1334.50031,0.15642
1336.42878,0.16176
1338.35725,0.16537
1340.28572,0.16122
1342.21419,0.15605
1344.14266,0.16113
1346.07112,0.16457
1347.99959,0.16228
1349.92806,0.16154
1351.85653,0.16028
1353.78500,0.15972
1355.71347,0.16378
1357.64194,0.16864
1359.57040,0.17235
1361.49887,0.17822
1363.42734,0.18157
1365.35581,0.17854
1367.28428,0.17602
1369.21275,0.17637
1371.14122,0.17962
1373.06969,0.18491
1374.99815,0.18560
1376.92662,0.18053
1378.85509,0.17645
1380.78356,0.17421
1382.71203,0.17271
1384.64050,0.17578
1386.56897,0.18332
1388.49743,0.18408
1390.42590,0.17893
1392.35437,0.18086
1394.28284,0.18915
1396.21131,0.19277
1398.13978,0.18952
1400.06825,0.18352
1401.99672,0.17950
1403.92518,0.17992
1405.85365,0.18153
1407.78212,0.18247
1409.71059,0.18483
1411.63906,0.18508
1413.56753,0.18251
1415.49600,0.18709
1417.42446,0.20160
1419.35293,0.20711
1421.28140,0.19859
1423.20987,0.19382
1425.13834,0.18955
1427.06681,0.18533
1428.99528,0.18656
1430.92375,0.18827
1432.85221,0.18923
1434.78068,0.19566
1436.70915,0.20136
1438.63762,0.19354
1440.56609,0.18409
1442.49456,0.18102
1444.42303,0.18324
1446.35149,0.19073
1448.27996,0.19640
1450.20843,0.19388
1452.13690,0.19430
1454.06537,0.20681
1455.99384,0.23149
1457.92231,0.24247
1459.85077,0.22187
1461.77924,0.20833
1463.70771,0.20937
1465.63618,0.20713
1467.56465,0.19726
1469.49312,0.19981
1471.42159,0.21840
1473.35006,0.23068
1475.27852,0.22123
1477.20699,0.20920
1479.13546,0.20299
1481.06393,0.19985
1482.99240,0.19649
1484.92087,0.19881
1486.84934,0.21237
1488.77780,0.22796
1490.70627,0.22286
1492.63474,0.20901
1494.56321,0.21082
1496.49168,0.22518
1498.42015,0.22652
1500.34862,0.21604
1502.27709,0.21830
1504.20555,0.24285
1506.13402,0.28567
1508.06249,0.27970
1509.99096,0.23908
1511.91943,0.22025
1513.84790,0.22159
1515.77637,0.23596
1517.70483,0.24978
1519.63330,0.26081
1521.56177,0.26689
1523.49024,0.25302
1525.41871,0.23849
1527.34718,0.22546
1529.27565,0.21356
1531.20412,0.21683
1533.13258,0.22953
1535.06105,0.23094
1536.98952,0.23732
1538.91799,0.27076
1540.84646,0.29530
1542.77493,0.26772
1544.70340,0.23724
1546.63186,0.21698
1548.56033,0.21022
1550.48880,0.21011
1552.41727,0.21372
1554.34574,0.22733
1556.27421,0.25188
1558.20268,0.28130
1560.13115,0.25516
1562.05961,0.21691
1563.98808,0.20474
1565.91655,0.20533
1567.84502,0.21311
1569.77349,0.21946
1571.70196,0.21382
1573.63043,0.21162
1575.55889,0.21757
1577.48736,0.21283
1579.41583,0.19945
1581.34430,0.19101
1583.27277,0.18835
1585.20124,0.18893
1587.12971,0.19083
1589.05818,0.19267
1590.98664,0.19331
1592.91511,0.19377
1594.84358,0.19297
1596.77205,0.18858
1598.70052,0.18407
1600.62899,0.18401
1602.55746,0.18818
1604.48592,0.19111
1606.41439,0.19067
1608.34286,0.19027
1610.27133,0.18912
1612.19980,0.18843
1614.12827,0.19607
1616.05674,0.21206
1617.98521,0.21601
1619.91367,0.21298
1621.84214,0.22085
1623.77061,0.22675
1625.69908,0.22077
1627.62755,0.21651
1629.55602,0.21268
1631.48449,0.20932
1633.41295,0.21786
1635.34142,0.24018
1637.26989,0.24012
1639.19836,0.22006
1641.12683,0.20991
1643.05530,0.21771
1644.98377,0.24513
1646.91223,0.27091
1648.84070,0.26235
1650.76917,0.26085
1652.69764,0.28167
1654.62611,0.25877
1656.55458,0.22157
1658.48305,0.20760
1660.41152,0.21094
1662.33998,0.22089
1664.26845,0.22053
1666.19692,0.22026
1668.12539,0.23437
1670.05386,0.24535
1671.98233,0.23841
1673.91080,0.23303
1675.83926,0.22559
1677.76773,0.21695
1679.69620,0.22159
1681.62467,0.24259
1683.55314,0.26710
1685.48161,0.25422
1687.41008,0.23003
1689.33855,0.21844
1691.26701,0.21191
1693.19548,0.21691
1695.12395,0.23890
1697.05242,0.25838
1698.98089,0.25910
1700.90936,0.24643
1702.83783,0.23407
1704.76629,0.22994
1706.69476,0.22129
1708.62323,0.20711
1710.55170,0.20107
1712.48017,0.20826
1714.40864,0.22789
1716.33711,0.25061
1718.26558,0.24366
1720.19404,0.21552
1722.12251,0.19953
1724.05098,0.19518
1725.97945,0.19430
1727.90792,0.19773
1729.83639,0.20764
1731.76486,0.22227
1733.69332,0.23253
1735.62179,0.22311
1737.55026,0.21601
1739.47873,0.21985
1741.40720,0.22273
1743.33567,0.22041
1745.26414,0.22102
1747.19261,0.22996
1749.12107,0.23706
1751.04954,0.22552
1752.97801,0.20788
1754.90648,0.20137
1756.83495,0.20167
1758.76342,0.20228
1760.69189,0.20638
1762.62035,0.20743
1764.54882,0.20228
1766.47729,0.20291
1768.40576,0.21081
1770.33423,0.22272
1772.26270,0.23034
1774.19117,0.22029
1776.11964,0.20635
1778.04810,0.20122
1779.97657,0.20268
1781.90504,0.20399
1783.83351,0.20440
1785.76198,0.20263
1787.69045,0.20038
1789.61892,0.20691
1791.54738,0.21848
1793.47585,0.21635
1795.40432,0.20697
1797.33279,0.20425
1799.26126,0.20782
1801.18973,0.21079
1803.11820,0.20616
1805.04666,0.19896
1806.97513,0.19681
1808.90360,0.20022
1810.83207,0.20332
1812.76054,0.19991
1814.68901,0.19492
1816.61748,0.19501
1818.54595,0.19664
1820.47441,0.19576
1822.40288,0.19615
1824.33135,0.19979
1826.25982,0.20524
1828.18829,0.21352
1830.11676,0.21713
1832.04523,0.20854
1833.97369,0.20104
1835.90216,0.20111
1837.83063,0.20204
1839.75910,0.20084
1841.68757,0.20355
1843.61604,0.21002
1845.54451,0.20902
1847.47298,0.20257
1849.40144,0.19780
1851.32991,0.19444
1853.25838,0.19281
1855.18685,0.19181
1857.11532,0.19026
1859.04379,0.18999
1860.97226,0.19198
1862.90072,0.19454
1864.82919,0.19887
1866.75766,0.20798
1868.68613,0.21366
1870.61460,0.20531
1872.54307,0.19408
1874.47154,0.18962
1876.40001,0.19020
1878.32847,0.19162
1880.25694,0.19236
1882.18541,0.19261
1884.11388,0.19213
1886.04235,0.19171
1887.97082,0.19469
1889.89929,0.19956
1891.82775,0.20100
1893.75622,0.20099
1895.68469,0.20059
1897.61316,0.19693
1899.54163,0.19215
1901.47010,0.19046
1903.39857,0.19137
1905.32704,0.19248
1907.25550,0.19430
1909.18397,0.19617
1911.11244,0.19636
1913.04091,0.19648
1914.96938,0.19881
1916.89785,0.20239
1918.82632,0.20301
1920.75478,0.20142
1922.68325,0.20015
1924.61172,0.19743
1926.54019,0.19432
1928.46866,0.19150
1930.39713,0.18988
1932.32560,0.19190
1934.25407,0.19364
1936.18253,0.19209
1938.11100,0.19151
1940.03947,0.19473
1941.96794,0.19858
1943.89641,0.19858
1945.82488,0.19610
1947.75335,0.19436
1949.68181,0.19465
1951.61028,0.19623
1953.53875,0.19717
1955.46722,0.19684
1957.39569,0.19507
1959.32416,0.19349
1961.25263,0.19390
1963.18110,0.19486
1965.10956,0.19666
1967.03803,0.19847
1968.96650,0.19598
1970.89497,0.19181
1972.82344,0.19042
1974.75191,0.19084
1976.68038,0.19101
1978.60884,0.18984
1980.53731,0.18874
1982.46578,0.18944
1984.39425,0.19158
1986.32272,0.19439
1988.25119,0.19775
1990.17966,0.20164
1992.10812,0.20277
1994.03659,0.19936
1995.96506,0.19511
1997.89353,0.19198
1999.82200,0.19028
2001.75047,0.19032
2003.67894,0.19130
2005.60741,0.19205
2007.53587,0.19183
2009.46434,0.19122
2011.39281,0.19115
2013.32128,0.19217
2015.24975,0.19458
2017.17822,0.19642
2019.10669,0.19637
2021.03515,0.19696
2022.96362,0.19803
2024.89209,0.19668
2026.82056,0.19490
2028.74903,0.19557
2030.67750,0.19629
2032.60597,0.19576
2034.53444,0.19643
2036.46290,0.19787
2038.39137,0.19755
2040.31984,0.19544
2042.24831,0.19385
2044.17678,0.19342
2046.10525,0.19255
2048.03372,0.19205
2049.96218,0.19244
2051.89065,0.19235
2053.81912,0.19392
2055.74759,0.19779
2057.67606,0.19967
2059.60453,0.19807
2061.53300,0.19584
2063.46147,0.19472
2065.38993,0.19416
2067.31840,0.19361
2069.24687,0.19305
2071.17534,0.19268
2073.10381,0.19273
2075.03228,0.19370
2076.96075,0.19556
2078.88921,0.19700
2080.81768,0.19765
2082.74615,0.19721
2084.67462,0.19516
2086.60309,0.19365
2088.53156,0.19465
2090.46003,0.19565
2092.38850,0.19493
2094.31696,0.19451
2096.24543,0.19428
2098.17390,0.19339
2100.10237,0.19225
2102.03084,0.19117
2103.95931,0.19155
2105.88778,0.19412
2107.81624,0.19736
2109.74471,0.19912
2111.67318,0.19895
2113.60165,0.19746
2115.53012,0.19546
2117.45859,0.19504
2119.38706,0.19682
2121.31553,0.19906
2123.24399,0.20099
2125.17246,0.20200
2127.10093,0.20068
2129.02940,0.19752
2130.95787,0.19443
2132.88634,0.19313
2134.81481,0.19459
2136.74327,0.19791
2138.67174,0.20046
2140.60021,0.19990
2142.52868,0.19748
2144.45715,0.19640
2146.38562,0.19686
2148.31409,0.19678
2150.24255,0.19562
2152.17102,0.19536
2154.09949,0.19598
2156.02796,0.19560
2157.95643,0.19585
2159.88490,0.19740
2161.81337,0.19844
2163.74184,0.19914
2165.67030,0.19917
2167.59877,0.19757
2169.52724,0.19564
2171.45571,0.19561
2173.38418,0.19777
2175.31265,0.19952
2177.24112,0.19921
2179.16958,0.19747
2181.09805,0.19523
2183.02652,0.19350
2184.95499,0.19237
2186.88346,0.19228
2188.81193,0.19393
2190.74040,0.19598
2192.66887,0.19727
2194.59733,0.19729
2196.52580,0.19576
2198.45427,0.19444
2200.38274,0.19502
2202.31121,0.19632
2204.23968,0.19628
2206.16815,0.19617
2208.09661,0.19832
2210.02508,0.20040
2211.95355,0.19937
2213.88202,0.19787
2215.81049,0.19871
2217.73896,0.19906
2219.66743,0.19750
2221.59590,0.19641
2223.52436,0.19564
2225.45283,0.19501
2227.38130,0.19673
2229.30977,0.19859
2231.23824,0.19611
2233.16671,0.19215
2235.09518,0.19164
2237.02364,0.19361
2238.95211,0.19540
2240.88058,0.19575
2242.80905,0.19529
2244.73752,0.19636
2246.66599,0.19935
2248.59446,0.20148
2250.52293,0.20106
2252.45139,0.19937
2254.37986,0.19779
2256.30833,0.19602
2258.23680,0.19401
2260.16527,0.19448
2262.09374,0.19731
2264.02221,0.19862
2265.95067,0.19824
2267.87914,0.19790
2269.80761,0.19702
2271.73608,0.19539
2273.66455,0.19647
2275.59302,0.20013
2277.52149,0.20081
2279.44996,0.19894
2281.37842,0.19804
2283.30689,0.19768
2285.23536,0.19692
2287.16383,0.19613
2289.09230,0.19573
2291.02077,0.19660
2292.94924,0.19943
2294.87770,0.20089
2296.80617,0.19900
2298.73464,0.19654
2300.66311,0.19471
2302.59158,0.19450
2304.52005,0.19610
2306.44852,0.19731
2308.37699,0.19866
2310.30545,0.20045
2312.23392,0.20012
2314.16239,0.19732
2316.09086,0.19412
2318.01933,0.19186
2319.94780,0.19131
2321.87627,0.19189
2323.80473,0.19090
2325.73320,0.18998
2327.66167,0.19273
2329.59014,0.19166
2331.51861,0.17982
2333.44708,0.17352
2335.37555,0.18617
2337.30401,0.20115
2339.23248,0.20317
2341.16095,0.20207
2343.08942,0.20206
2345.01789,0.19783
2346.94636,0.19629
2348.87483,0.19805
2350.80330,0.19747
2352.73176,0.19367
2354.66023,0.19186
2356.58870,0.19169
2358.51717,0.17979
2360.44564,0.16281
2362.37411,0.16047
2364.30258,0.17569
2366.23104,0.20460
2368.15951,0.22160
2370.08798,0.21394
2372.01645,0.20217
2373.94492,0.19679
2375.87339,0.19607
2377.80186,0.19837
2379.73033,0.19985
2381.65879,0.19837
2383.58726,0.19603
2385.51573,0.19502
2387.44420,0.19508
2389.37267,0.19477
2391.30114,0.19517
2393.22961,0.19646
2395.15807,0.19615
2397.08654,0.19627
2399.01501,0.19798
2400.94348,0.19723
2402.87195,0.19434
2404.80042,0.19257
2406.72889,0.19264
2408.65736,0.19387
2410.58582,0.19441
2412.51429,0.19460
2414.44276,0.19728
2416.37123,0.19987
2418.29970,0.19818
2420.22817,0.19554
2422.15664,0.19757
2424.08510,0.20199
2426.01357,0.20182
2427.94204,0.19806
2429.87051,0.19615
2431.79898,0.19550
2433.72745,0.19409
2435.65592,0.19410
2437.58439,0.19646
2439.51285,0.19725
2441.44132,0.19498
2443.36979,0.19366
2445.29826,0.19582
2447.22673,0.19859
2449.15520,0.19941
2451.08367,0.19792
2453.01213,0.19343
2454.94060,0.18884
2456.86907,0.18868
2458.79754,0.19295
2460.72601,0.19695
2462.65448,0.19747
2464.58295,0.19703
2466.51142,0.19849
2468.43988,0.19999
2470.36835,0.19925
2472.29682,0.19770
2474.22529,0.19605
2476.15376,0.19381
2478.08223,0.19162
2480.01070,0.19102
2481.93916,0.19312
2483.86763,0.19632
2485.79610,0.19880
2487.72457,0.19991
2489.65304,0.20012
2491.58151,0.19998
2493.50998,0.19930
2495.43844,0.19819
2497.36691,0.19583
2499.29538,0.19313
2501.22385,0.19343
2503.15232,0.19717
2505.08079,0.20076
2507.00926,0.20146
2508.93773,0.20022
2510.86619,0.19942
2512.79466,0.19980
2514.72313,0.20070
2516.65160,0.20206
2518.58007,0.20410
2520.50854,0.20575
2522.43701,0.20386
2524.36547,0.19964
2526.29394,0.19773
2528.22241,0.19761
2530.15088,0.19743
2532.07935,0.19619
2534.00782,0.19475
2535.93629,0.19699
2537.86476,0.20157
2539.79322,0.20343
2541.72169,0.20231
2543.65016,0.20031
2545.57863,0.19844
2547.50710,0.19838
2549.43557,0.19979
2551.36404,0.20019
2553.29250,0.19958
2555.22097,0.19928
2557.14944,0.20003
2559.07791,0.20119
2561.00638,0.20153
2562.93485,0.20159
2564.86332,0.20153
2566.79179,0.20068
2568.72025,0.19974
2570.64872,0.19934
2572.57719,0.19973
2574.50566,0.20105
2576.43413,0.20209
2578.36260,0.20162
2580.29107,0.20071
2582.21953,0.20028
2584.14800,0.19941
2586.07647,0.19859
2588.00494,0.19881
2589.93341,0.19865
2591.86188,0.19698
2593.79035,0.19677
2595.71882,0.19976
2597.64728,0.20260
2599.57575,0.20338
2601.50422,0.20301
2603.43269,0.20269
2605.36116,0.20348
2607.28963,0.20510
2609.21810,0.20619
2611.14656,0.20594
2613.07503,0.20533
2615.00350,0.20453
2616.93197,0.20302
2618.86044,0.20271
2620.78891,0.20422
2622.71738,0.20522
2624.64585,0.20474
2626.57431,0.20365
2628.50278,0.20320
2630.43125,0.20429
2632.35972,0.20543
2634.28819,0.20490
2636.21666,0.20373
2638.14513,0.20415
2640.07359,0.20566
2642.00206,0.20604
2643.93053,0.20592
2645.85900,0.20556
2647.78747,0.20387
2649.71594,0.20222
2651.64441,0.20240
2653.57288,0.20426
2655.50134,0.20615
2657.42981,0.20626
2659.35828,0.20608
2661.28675,0.20676
2663.21522,0.20580
2665.14369,0.20456
2667.07216,0.20633
2669.00062,0.20770
2670.92909,0.20656
2672.85756,0.20677
2674.78603,0.20774
2676.71450,0.20705
2678.64297,0.20708
2680.57144,0.20898
2682.49990,0.21152
2684.42837,0.21191
2686.35684,0.20851
2688.28531,0.20554
2690.21378,0.20559
2692.14225,0.20533
2694.07072,0.20352
2695.99919,0.20468
2697.92765,0.20927
2699.85612,0.21041
2701.78459,0.20704
2703.71306,0.20460
2705.64153,0.20434
2707.57000,0.20490
2709.49847,0.20534
2711.42693,0.20521
2713.35540,0.20639
2715.28387,0.20904
2717.21234,0.21024
2719.14081,0.20916
2721.06928,0.20727
2722.99775,0.20630
2724.92622,0.20682
2726.85468,0.20823
2728.78315,0.20953
2730.71162,0.20917
2732.64009,0.20753
2734.56856,0.20697
2736.49703,0.20940
2738.42550,0.21278
2740.35396,0.21258
2742.28243,0.20988
2744.21090,0.20891
2746.13937,0.21075
2748.06784,0.21305
2749.99631,0.21283
2751.92478,0.21078
2753.85325,0.20987
2755.78171,0.21156
2757.71018,0.21450
2759.63865,0.21510
2761.56712,0.21361
2763.49559,0.21422
2765.42406,0.21581
2767.35253,0.21548
2769.28099,0.21267
2771.20946,0.20788
2773.13793,0.20563
2775.06640,0.20577
2776.99487,0.20614
2778.92334,0.20997
2780.85181,0.21417
2782.78028,0.21382
2784.70874,0.21166
2786.63721,0.21007
2788.56568,0.20949
2790.49415,0.21199
2792.42262,0.21561
2794.35109,0.21609
2796.27956,0.21402
2798.20802,0.21065
2800.13649,0.20694
2802.06496,0.20607
2803.99343,0.20853
2805.92190,0.21099
2807.85037,0.21252
2809.77884,0.21498
2811.70731,0.21678
2813.63577,0.21535
2815.56424,0.21277
2817.49271,0.21113
2819.42118,0.21063
2821.34965,0.21016
2823.27812,0.20822
2825.20659,0.20818
2827.13505,0.21233
2829.06352,0.21666
2830.99199,0.21841
2832.92046,0.21844
2834.84893,0.21755
2836.77740,0.21659
2838.70587,0.21659
2840.63433,0.21696
2842.56280,0.21743
2844.49127,0.21913
2846.41974,0.22090
2848.34821,0.22010
2850.27668,0.21719
2852.20515,0.21308
2854.13362,0.20854
2856.06208,0.20783
2857.99055,0.21143
2859.91902,0.21522
2861.84749,0.21706
2863.77596,0.21650
2865.70443,0.21572
2867.63290,0.21567
2869.56136,0.21460
2871.48983,0.21320
2873.41830,0.21289
2875.34677,0.21370
2877.27524,0.21557
2879.20371,0.21880
2881.13218,0.22108
2883.06065,0.21697
2884.98911,0.20875
2886.91758,0.20608
2888.84605,0.20954
2890.77452,0.21262
2892.70299,0.21418
2894.63146,0.21479
2896.55993,0.21380
2898.48839,0.21170
2900.41686,0.20855
2902.34533,0.20509
2904.27380,0.20265
2906.20227,0.20302
2908.13074,0.20783
2910.05921,0.21253
2911.98768,0.21262
2913.91614,0.20929
2915.84461,0.20467
2917.77308,0.20319
2919.70155,0.20519
2921.63002,0.20662
2923.55849,0.20332
2925.48696,0.19245
2927.41542,0.18688
2929.34389,0.19585
2931.27236,0.20526
2933.20083,0.20580
2935.12930,0.19896
2937.05777,0.19086
2938.98624,0.19399
2940.91471,0.20507
2942.84317,0.21029
2944.77164,0.20487
2946.70011,0.19339
2948.62858,0.19280
2950.55705,0.20611
2952.48552,0.21480
2954.41399,0.21060
2956.34245,0.19601
2958.27092,0.18521
2960.19939,0.19191
2962.12786,0.20437
2964.05633,0.20798
2965.98480,0.20394
2967.91327,0.19982
2969.84174,0.20221
2971.77020,0.20878
2973.69867,0.21364
2975.62714,0.21147
2977.55561,0.20175
2979.48408,0.19908
2981.41255,0.20854
2983.34102,0.21583
2985.26948,0.21291
2987.19795,0.20300
2989.12642,0.19983
2991.05489,0.20947
2992.98336,0.21776
2994.91183,0.21821
2996.84030,0.21530
2998.76877,0.21339
3000.69723,0.21657
3002.62570,0.21993
3004.55417,0.21608
3006.48264,0.20844
3008.41111,0.20384
3010.33958,0.19675
3012.26805,0.17215
3014.19651,0.12834
3016.12498,0.09555
3018.05345,0.11216
3019.98192,0.16423
3021.91039,0.20368
3023.83886,0.22001
3025.76733,0.22503
3027.69579,0.22289
3029.62426,0.22152
3031.55273,0.22524
3033.48120,0.22848
3035.40967,0.22604
3037.33814,0.21959
3039.26661,0.21708
3041.19508,0.21862
3043.12354,0.21800
3045.05201,0.21453
3046.98048,0.20868
3048.90895,0.20574
3050.83742,0.20980
3052.76589,0.21357
3054.69436,0.20789
3056.62282,0.19547
3058.55129,0.19371
3060.47976,0.20538
3062.40823,0.21361
3064.33670,0.20978
3066.26517,0.20046
3068.19364,0.20002
3070.12211,0.20958
3072.05057,0.21752
3073.97904,0.21497
3075.90751,0.20467
3077.83598,0.20514
3079.76445,0.21880
3081.69292,0.22529
3083.62139,0.21251
3085.54985,0.19387
3087.47832,0.19366
3089.40679,0.20758
3091.33526,0.21206
3093.26373,0.20132
3095.19220,0.19586
3097.12067,0.20865
3099.04914,0.21871
3100.97760,0.21256
3102.90607,0.20057
3104.83454,0.19765
3106.76301,0.20707
3108.69148,0.21327
3110.61995,0.20554
3112.54842,0.19561
3114.47688,0.20222
3116.40535,0.21991
3118.33382,0.22753
3120.26229,0.22066
3122.19076,0.21329
3124.11923,0.21670
3126.04770,0.22243
3127.97617,0.22040
3129.90463,0.21471
3131.83310,0.21489
3133.76157,0.21993
3135.69004,0.22172
3137.61851,0.22026
3139.54698,0.21719
3141.47545,0.21450
3143.40391,0.21538
3145.33238,0.21889
3147.26085,0.21916
3149.18932,0.21532
3151.11779,0.21435
3153.04626,0.21610
3154.97473,0.21694
3156.90320,0.21704
3158.83166,0.21759
3160.76013,0.22001
3162.68860,0.22417
3164.61707,0.22811
3166.54554,0.23119
3168.47401,0.23496
3170.40248,0.23809
3172.33094,0.23832
3174.25941,0.23555
3176.18788,0.23213
3178.11635,0.23101
3180.04482,0.23095
3181.97329,0.22949
3183.90176,0.22798
3185.83022,0.22778
3187.75869,0.22686
3189.68716,0.22554
3191.61563,0.22550
3193.54410,0.22618
3195.47257,0.22588
3197.40104,0.22406
3199.32951,0.22425
3201.25797,0.22563
3203.18644,0.22528
3205.11491,0.22603
3207.04338,0.22808
3208.97185,0.22844
3210.90032,0.22692
3212.82879,0.22598
3214.75725,0.22693
3216.68572,0.22668
3218.61419,0.22461
3220.54266,0.22433
3222.47113,0.22751
3224.39960,0.23255
3226.32807,0.23395
3228.25654,0.22897
3230.18500,0.22195
3232.11347,0.21848
3234.04194,0.22161
3235.97041,0.22746
3237.89888,0.22968
3239.82735,0.22980
3241.75582,0.22850
3243.68428,0.21942
3245.61275,0.20833
3247.54122,0.20962
3249.46969,0.21907
3251.39816,0.22345
3253.32663,0.22076
3255.25510,0.21815
3257.18357,0.22134
3259.11203,0.22642
3261.04050,0.22675
3262.96897,0.22379
3264.89744,0.22139
3266.82591,0.22124
3268.75438,0.22348
3270.68285,0.22409
3272.61131,0.22317
3274.53978,0.22491
3276.46825,0.22651
3278.39672,0.22487
3280.32519,0.22277
3282.25366,0.22244
3284.18213,0.22182
3286.11060,0.21997
3288.03906,0.21960
3289.96753,0.22233
3291.89600,0.22632
3293.82447,0.22772
3295.75294,0.22632
3297.68141,0.22360
3299.60988,0.22077
3301.53834,0.22062
3303.46681,0.22116
3305.39528,0.22088
3307.32375,0.22251
3309.25222,0.22375
3311.18069,0.22335
3313.10916,0.22453
3315.03763,0.22440
3316.96609,0.22131
3318.89456,0.22313
3320.82303,0.23058
3322.75150,0.23391
3324.67997,0.23163
3326.60844,0.23018
3328.53691,0.23166
3330.46537,0.23178
3332.39384,0.22815
3334.32231,0.22510
3336.25078,0.22703
3338.17925,0.23171
3340.10772,0.23304
3342.03619,0.23059
3343.96466,0.22707
3345.89312,0.22302
3347.82159,0.22250
3349.75006,0.22633
3351.67853,0.22712
3353.60700,0.22506
3355.53547,0.22548
3357.46394,0.22655
3359.39240,0.22948
3361.32087,0.23429
3363.24934,0.23456
3365.17781,0.23044
3367.10628,0.22580
3369.03475,0.22507
3370.96322,0.22957
3372.89168,0.23265
3374.82015,0.23085
3376.74862,0.22735
3378.67709,0.22562
3380.60556,0.22427
3382.53403,0.22049
3384.46250,0.21978
3386.39097,0.22600
3388.31943,0.22940
3390.24790,0.22428
3392.17637,0.21832
3394.10484,0.21692
3396.03331,0.22000
3397.96178,0.22574
3399.89025,0.23010
3401.81871,0.23068
3403.74718,0.22720
3405.67565,0.22318
3407.60412,0.22238
3409.53259,0.22275
3411.46106,0.22195
3413.38953,0.21897
3415.31800,0.21564
3417.24646,0.21693
3419.17493,0.22174
3421.10340,0.22641
3423.03187,0.22877
3424.96034,0.22514
3426.88881,0.21944
3428.81728,0.22045
3430.74574,0.22566
3432.67421,0.22401
3434.60268,0.21381
3436.53115,0.20534
3438.45962,0.20540
3440.38809,0.21109
3442.31656,0.21693
3444.24503,0.22015
3446.17349,0.22126
3448.10196,0.22095
3450.03043,0.21767
3451.95890,0.21242
3453.88737,0.20828
3455.81584,0.20511
3457.74431,0.20342
3459.67277,0.20617
3461.60124,0.20937
3463.52971,0.20676
3465.45818,0.20430
3467.38665,0.20817
3469.31512,0.21352
3471.24359,0.21596
3473.17206,0.21445
3475.10052,0.21023
3477.02899,0.20735
3478.95746,0.20637
3480.88593,0.20682
3482.81440,0.20941
3484.74287,0.21062
3486.67134,0.20654
3488.59980,0.19848
3490.52827,0.19173
3492.45674,0.18982
3494.38521,0.19164
3496.31368,0.19502
3498.24215,0.19903
3500.17062,0.20271
3502.09909,0.20548
3504.02755,0.20712
3505.95602,0.20547
3507.88449,0.19960
3509.81296,0.19402
3511.74143,0.19199
3513.66990,0.18958
3515.59837,0.18496
3517.52683,0.18270
3519.45530,0.18438
3521.38377,0.18698
3523.31224,0.19115
3525.24071,0.19688
3527.16918,0.19898
3529.09765,0.19569
3531.02611,0.19140
3532.95458,0.18895
3534.88305,0.18788
3536.81152,0.18713
3538.73999,0.18513
3540.66846,0.18315
3542.59693,0.18426
3544.52540,0.18760
3546.45386,0.18966
3548.38233,0.19067
3550.31080,0.19387
3552.23927,0.19728
3554.16774,0.19357
3556.09621,0.18472
3558.02468,0.17937
3559.95314,0.17789
3561.88161,0.17665
3563.81008,0.18036
3565.73855,0.19411
3567.66702,0.20178
3569.59549,0.18961
3571.52396,0.17523
3573.45243,0.16616
3575.38089,0.15936
3577.30936,0.15701
3579.23783,0.16214
3581.16630,0.16800
3583.09477,0.17308
3585.02324,0.18451
3586.95171,0.19393
3588.88017,0.18419
3590.80864,0.17150
3592.73711,0.16844
3594.66558,0.16877
3596.59405,0.16921
3598.52252,0.16957
3600.45099,0.16689
3602.37946,0.16416
3604.30792,0.16706
3606.23639,0.17555
3608.16486,0.18146
3610.09333,0.18115
3612.02180,0.18280
3613.95027,0.18431
3615.87874,0.18609
3617.80720,0.19098
3619.73567,0.18427
3621.66414,0.16605
3623.59261,0.15595
3625.52108,0.15808
3627.44955,0.17012
3629.37802,0.17839
3631.30649,0.17018
3633.23495,0.16295
3635.16342,0.16092
3637.09189,0.15806
3639.02036,0.15459
3640.94883,0.15363
3642.87730,0.15563
3644.80577,0.16331
3646.73423,0.18162
3648.66270,0.20416
3650.59117,0.19499
3652.51964,0.16947
3654.44811,0.15867
3656.37658,0.15767
3658.30505,0.15445
3660.23352,0.15026
3662.16198,0.14773
3664.09045,0.14688
3666.01892,0.15061
3667.94739,0.16111
3669.87586,0.16888
3671.80433,0.16552
3673.73280,0.17129
3675.66126,0.18103
3677.58973,0.16878
3679.51820,0.15503
3681.44667,0.14858
3683.37514,0.14452
3685.30361,0.14447
3687.23208,0.15214
3689.16055,0.16295
3691.08901,0.16068
3693.01748,0.15135
3694.94595,0.14679
3696.87442,0.14465
3698.80289,0.14487
3700.73136,0.15025
3702.65983,0.15043
3704.58829,0.14285
3706.51676,0.14196
3708.44523,0.15142
3710.37370,0.16657
3712.30217,0.16923
3714.23064,0.15473
3716.15911,0.14472
3718.08757,0.14216
3720.01604,0.14125
3721.94451,0.14210
3723.87298,0.14590
3725.80145,0.15031
3727.72992,0.15139
3729.65839,0.15283
3731.58686,0.16259
3733.51532,0.17917
3735.44379,0.18736
3737.37226,0.17680
3739.30073,0.16201
3741.22920,0.15613
3743.15767,0.16165
3745.08614,0.17203
3747.01460,0.17761
3748.94307,0.18839
3750.87154,0.19752
3752.80001,0.17822
3754.72848,0.15677
3756.65695,0.15301
3758.58542,0.15747
3760.51389,0.15376
3762.44235,0.14820
3764.37082,0.14812
3766.29929,0.14819
3768.22776,0.14730
3770.15623,0.14290
3772.08470,0.13364
3774.01317,0.12768
3775.94163,0.12838
3777.87010,0.13452
3779.79857,0.13729
3781.72704,0.13270
3783.65551,0.12967
3785.58398,0.12886
3787.51245,0.12766
3789.44092,0.12819
3791.36938,0.13098
3793.29785,0.13641
3795.22632,0.14631
3797.15479,0.15807
3799.08326,0.16924
3801.01173,0.17561
3802.94020,0.16540
3804.86866,0.15667
3806.79713,0.15452
3808.72560,0.14469
3810.65407,0.13493
3812.58254,0.13575
3814.51101,0.14608
3816.43948,0.15403
3818.36795,0.15303
3820.29641,0.15344
3822.22488,0.14925
3824.15335,0.14012
3826.08182,0.13429
3828.01029,0.13179
3829.93876,0.13264
3831.86723,0.13757
3833.79569,0.14647
3835.72416,0.15511
3837.65263,0.16170
3839.58110,0.16183
3841.50957,0.15019
3843.43804,0.13762
3845.36651,0.13355
3847.29498,0.13656
3849.22344,0.14356
3851.15191,0.15682
3853.08038,0.17517
3855.00885,0.16678
3856.93732,0.14722
3858.86579,0.14026
3860.79426,0.14286
3862.72272,0.14845
3864.65119,0.15054
3866.57966,0.14918
3868.50813,0.14971
3870.43660,0.14686
3872.36507,0.13948
3874.29354,0.13483
3876.22200,0.13008
3878.15047,0.12814
3880.07894,0.13195
3882.00741,0.13687
3883.93588,0.14202
3885.86435,0.14110
3887.79282,0.13274
3889.72129,0.13175
3891.64975,0.13813
3893.57822,0.13766
3895.50669,0.13343
3897.43516,0.13692
3899.36363,0.14591
3901.29210,0.14842
3903.22057,0.14300
3905.14903,0.13493
3907.07750,0.12781
3909.00597,0.12238
3910.93444,0.11796
3912.86291,0.11551
3914.79138,0.11490
3916.71985,0.11538
3918.64832,0.11675
3920.57678,0.11888
3922.50525,0.12213
3924.43372,0.12332
3926.36219,0.12031
3928.29066,0.11850
3930.21913,0.12012
3932.14760,0.12080
3934.07606,0.11859
3936.00453,0.11596
3937.93300,0.11624
3939.86147,0.12234
3941.78994,0.12783
3943.71841,0.12396
3945.64688,0.11825
3947.57535,0.11736
3949.50381,0.11717
3951.43228,0.11652
3953.36075,0.11757
3955.28922,0.11883
3957.21769,0.11865
3959.14616,0.11901
3961.07463,0.11901
3963.00309,0.11613
3964.93156,0.11531
3966.86003,0.11705
3968.78850,0.11394
3970.71697,0.10830
3972.64544,0.10769
3974.57391,0.11127
3976.50238,0.11277
3978.43084,0.10978
3980.35931,0.10705
3982.28778,0.10735
3984.21625,0.10746
3986.14472,0.10584
3988.07319,0.10409
3990.00166,0.10192
3991.93012,0.10084
3993.85859,0.10256
3995.78706,0.10314
3997.71553,0.10461
3999.64400,0.10897
4001.57247,0.10989
4003.50094,0.10988
4005.42941,0.11120
4007.35787,0.10725
4009.28634,0.10099
4011.21481,0.09961
4013.14328,0.10344
4015.07175,0.10812
4017.00022,0.10771
4018.92869,0.10390
4020.85715,0.10201
4022.78562,0.10190
4024.71409,0.10305
4026.64256,0.10602
4028.57103,0.10728
4030.49950,0.10459
4032.42797,0.10166
4034.35644,0.10002
4036.28490,0.09946
4038.21337,0.10066
4040.14184,0.10345
4042.07031,0.10714
4043.99878,0.10731
4045.92725,0.10430
4047.85572,0.10575
4049.78418,0.10868
4051.71265,0.10558
4053.64112,0.10070
4055.56959,0.09814
4057.49806,0.09580
4059.42653,0.09648
4061.35500,0.10015
4063.28346,0.09887
4065.21193,0.09350
4067.14040,0.08948
4069.06887,0.08786
4070.99734,0.09220
4072.92581,0.09792
4074.85428,0.09688
4076.78275,0.09618
4078.71121,0.09984
4080.63968,0.10100
4082.56815,0.09892
4084.49662,0.09739
4086.42509,0.09659
4088.35356,0.09627
4090.28203,0.09875
4092.21049,0.10074
4094.13896,0.09756
4096.06743,0.09387
4097.99590,0.09390
4099.92437,0.09619
4101.85284,0.09848
4103.78131,0.09911
4105.70978,0.10045
4107.63824,0.10220
4109.56671,0.09974
4111.49518,0.09536
4113.42365,0.09257
4115.35212,0.09092
4117.28059,0.09063
4119.20906,0.08859
4121.13752,0.08390
4123.06599,0.08541
4124.99446,0.09524
4126.92293,0.10151
4128.85140,0.09594
4130.77987,0.08481
4132.70834,0.07986
4134.63681,0.08079
4136.56527,0.07857
4138.49374,0.07410
4140.42221,0.07393
4142.35068,0.07772
4144.27915,0.08076
4146.20762,0.08253
4148.13609,0.08613
4150.06455,0.09011
4151.99302,0.09050
4153.92149,0.08921
4155.84996,0.08993
4157.77843,0.08948
4159.70690,0.08810
4161.63537,0.09036
4163.56384,0.08937
4165.49230,0.08163
4167.42077,0.07872
4169.34924,0.08260
4171.27771,0.08304
4173.20618,0.07833
4175.13465,0.07402
4177.06312,0.07354
4178.99158,0.07643
4180.92005,0.07899
4182.84852,0.07782
4184.77699,0.07370
4186.70546,0.07236
4188.63393,0.07713
4190.56240,0.08136
4192.49087,0.08004
4194.41933,0.07987
4196.34780,0.08315
4198.27627,0.08273
4200.20474,0.08073
4202.13321,0.08203
4204.06168,0.08086
4205.99015,0.07784
4207.91861,0.07872
4209.84708,0.08063
4211.77555,0.07969
4213.70402,0.07548
4215.63249,0.07018
4217.56096,0.06743
4219.48943,0.06838
4221.41789,0.07033
4223.34636,0.06973
4225.27483,0.06898
4227.20330,0.07224
4229.13177,0.07581
4231.06024,0.07547
4232.98871,0.07448
4234.91718,0.07452
4236.84564,0.07365
4238.77411,0.07437
4240.70258,0.07638
4242.63105,0.07424
4244.55952,0.06988
4246.48799,0.06808
4248.41646,0.06773
4250.34492,0.06583
4252.27339,0.06330
4254.20186,0.06444
4256.13033,0.06593
4258.05880,0.05854
4259.98727,0.04606
4261.91574,0.04280
4263.84421,0.05109
4265.77267,0.06177
4267.70114,0.06810
4269.62961,0.06869
4271.55808,0.06781
4273.48655,0.06890
4275.41502,0.07029
4277.34349,0.06786
4279.27195,0.06004
4281.20042,0.05322
4283.12889,0.05301
4285.05736,0.05697
4286.98583,0.05841
4288.91430,0.05624
4290.84277,0.05644
4292.77124,0.05800
4294.69970,0.05848
4296.62817,0.06297
4298.55664,0.06945
4300.48511,0.06850
4302.41358,0.06135
4304.34205,0.05698
4306.27052,0.05661
4308.19898,0.05508
4310.12745,0.05031
4312.05592,0.04570
4313.98439,0.04547
4315.91286,0.04871
4317.84133,0.05054
4319.76980,0.04860
4321.69827,0.04449
4323.62673,0.04239
4325.55520,0.04660
4327.48367,0.05196
4329.41214,0.04914
4331.34061,0.04181
4333.26908,0.03944
4335.19755,0.04094
4337.12601,0.03983
4339.05448,0.03601
4340.98295,0.03506
4342.91142,0.04102
4344.83989,0.04729
4346.76836,0.04452
4348.69683,0.03988
4350.62530,0.03880
4352.55376,0.03528
4354.48223,0.03407
4356.41070,0.03926
4358.33917,0.04238
4360.26764,0.04111
4362.19611,0.03985
4364.12458,0.03996
4366.05304,0.04296
4367.98151,0.04769
4369.90998,0.04976
4371.83845,0.04861
4373.76692,0.04497
4375.69539,0.04273
4377.62386,0.04575
4379.55232,0.04860
4381.48079,0.04795
4383.40926,0.04750
4385.33773,0.04575
4387.26620,0.03737
4389.19467,0.02520
4391.12314,0.01768
4393.05161,0.01737
4394.98007,0.02029
4396.90854,0.02368
4398.83701,0.02989
4400.76548,0.03675
4402.69395,0.03625
4404.62242,0.03212
4406.55089,0.03366
4408.47935,0.03753
4410.40782,0.03695
4412.33629,0.03035
4414.26476,0.02454
4416.19323,0.02974
4418.12170,0.03792
4420.05017,0.03662
4421.97864,0.02960
4423.90710,0.02393
4425.83557,0.02324
4427.76404,0.02273
4429.69251,0.01751
4431.62098,0.01613
4433.54945,0.01977
4435.47792,0.01970
4437.40638,0.01854
4439.33485,0.02013
4441.26332,0.02332
4443.19179,0.03099
4445.12026,0.03761
4447.04873,0.03409
4448.97720,0.02631
4450.90567,0.02307
4452.83413,0.02415
4454.76260,0.02285
4456.69107,0.01835
4458.61954,0.01739
4460.54801,0.01810
4462.47648,0.01529
4464.40495,0.01394
4466.33341,0.01697
4468.26188,0.01694
4470.19035,0.01268
4472.11882,0.01332
4474.04729,0.01986
4475.97576,0.02265
4477.90423,0.01859
4479.83270,0.01593
4481.76116,0.01765
4483.68963,0.01656
4485.61810,0.01127
4487.54657,0.00716
4489.47504,0.00410
4491.40351,0.00289
4493.33198,0.00527
4495.26044,0.00773
4497.18891,0.01129
4499.11738,0.01480
4501.04585,0.01287
4502.97432,0.00813
4504.90279,0.00593
4506.83126,0.00759
4508.75973,0.01186
4510.68819,0.01767
4512.61666,0.02149
4514.54513,0.01726
4516.47360,0.00860
4518.40207,0.00573
4520.33054,0.00685
4522.25901,0.00513
4524.18747,0.00344
4526.11594,0.00783
4528.04441,0.01952
4529.97288,0.02911
4531.90135,0.02614
4533.82982,0.01780
4535.75829,0.01521
4537.68676,0.01333
4539.61522,0.00608
4541.54369,-0.00109
4543.47216,-0.00346
4545.40063,-0.00184
4547.32910,0.00101
4549.25757,0.00434
4551.18604,0.00613
4553.11450,0.00746
4555.04297,0.01514
4556.97144,0.02348
4558.89991,0.02461
4560.82838,0.02235
4562.75685,0.01763
4564.68532,0.01150
4566.61378,0.00879
4568.54225,0.01164
4570.47072,0.01835
4572.39919,0.02318
4574.32766,0.02324
4576.25613,0.01899
4578.18460,0.01128
4580.11307,0.00214
4582.04153,-0.00817
4583.97000,-0.01402
4585.89847,-0.01042
4587.82694,-0.00560
4589.75541,-0.00789
4591.68388,-0.01060
4593.61235,-0.00322
4595.54081,0.00849
4597.46928,0.01342
4599.39775,0.00940
4601.32622,0.00092
4603.25469,-0.00718
4605.18316,-0.01255
4607.11163,-0.01087
4609.04010,-0.00455
4610.96856,0.00092
4612.89703,0.00758
4614.82550,0.01510
4616.75397,0.01783
4618.68244,0.01390
4620.61091,0.00638
4622.53938,-0.00105
4624.46784,-0.00384
4626.39631,0.00147
4628.32478,0.00830
4630.25325,0.00420
4632.18172,-0.00753
4634.11019,-0.01137
4636.03866,-0.00346
4637.96713,0.00856
4639.89559,0.01743
4641.82406,0.01972
4643.75253,0.01224
4645.68100,0.00181
4647.60947,0.00112
4649.53794,0.00450
4651.46641,0.00554
4653.39487,0.00829
4655.32334,0.00715
4657.25181,0.00190
4659.18028,0.00251
4661.10875,0.00202
4663.03722,-0.00756
4664.96569,-0.01599
4666.89416,-0.01601
4668.82262,-0.00886
4670.75109,0.00167
4672.67956,0.00707
4674.60803,0.00648
4676.53650,0.00753
4678.46497,0.00982
4680.39344,0.00776
4682.32190,0.00457
4684.25037,0.00667
4686.17884,0.00947
4688.10731,0.00821
4690.03578,0.00621
4691.96425,0.00462
4693.89272,0.00604
4695.82119,0.01223
4697.74965,0.01881
4699.67812,0.01943
4701.60659,0.00958
4703.53506,-0.00123
4705.46353,-0.00150
4707.39200,0.00019
4709.32047,-0.00253
4711.24893,-0.00247
4713.17740,0.00085
4715.10587,0.00152
4717.03434,0.00077
4718.96281,0.00456
4720.89128,0.01113
4722.81975,0.01536
4724.74821,0.01537
4726.67668,0.00806
4728.60515,0.00179
4730.53362,0.00909
4732.46209,0.01739
4734.39056,0.01036
4736.31903,0.00029
4738.24750,0.00295
4740.17596,0.01208
4742.10443,0.01014
4744.03290,-0.00625
4745.96137,-0.01938
4747.88984,-0.01453
4749.81831,0.00200
4751.74678,0.01328
4753.67524,0.01388
4755.60371,0.00830
4757.53218,0.00242
4759.46065,-0.00029
4761.38912,-0.00025
4763.31759,0.00312
4765.24606,0.00796
4767.17453,0.01249
4769.10299,0.01367
4771.03146,0.00442
4772.95993,-0.00905
4774.88840,-0.01142
4776.81687,-0.00279
4778.74534,0.00574
4780.67381,0.00564
4782.60227,-0.00281
4784.53074,-0.00839
4786.45921,-0.00532
4788.38768,0.00295
4790.31615,0.01219
4792.24462,0.01892
4794.17309,0.01993
4796.10156,0.01565
4798.03002,0.01198
4799.95849,0.00992
4801.88696,0.00751
4803.81543,0.00531
4805.74390,0.00428
4807.67237,0.00562
4809.60084,0.00824
4811.52930,0.00721
4813.45777,0.00260
4815.38624,0.00187
4817.31471,0.00300
4819.24318,0.00169
4821.17165,0.00131
4823.10012,0.00189
4825.02859,0.00389
4826.95705,0.00748
4828.88552,0.00999
4830.81399,0.01148
4832.74246,0.01371
4834.67093,0.01750
4836.59940,0.01738
4838.52787,0.00524
4840.45633,-0.00663
4842.38480,-0.00527
4844.31327,-0.00337
4846.24174,-0.00433
4848.17021,-0.00452
4850.09868,-0.00620
4852.02715,-0.00322
4853.95562,0.00269
4855.88408,0.00247
4857.81255,-0.00298
4859.74102,-0.00463
4861.66949,-0.00193
4863.59796,0.00126
4865.52643,0.00427
4867.45490,-0.00012
4869.38336,-0.00843
4871.31183,-0.00790
4873.24030,0.00057
4875.16877,0.00413
4877.09724,0.00137
4879.02571,0.00142
4880.95418,-0.00056
4882.88265,-0.01054
4884.81111,-0.01870
4886.73958,-0.01609
4888.66805,-0.00692
4890.59652,0.00447
4892.52499,0.01419
4894.45346,0.01438
4896.38193,0.00399
4898.31039,-0.00470
4900.23886,0.00110
4902.16733,0.01273
4904.09580,0.01477
4906.02427,0.00798
4907.95274,0.00250
4909.88121,0.00537
4911.80967,0.00990
4913.73814,0.00635
4915.66661,0.00001
4917.59508,-0.00228
4919.52355,-0.00077
4921.45202,0.00276
4923.38049,0.00164
4925.30896,-0.00390
4927.23742,-0.00480
4929.16589,0.00184
4931.09436,0.01081
4933.02283,0.01610
4934.95130,0.01746
4936.87977,0.01382
4938.80824,0.00704
4940.73670,0.00345
4942.66517,0.00146
4944.59364,0.00291
4946.52211,0.00777
4948.45058,0.00785
4950.37905,0.00603
4952.30752,0.00750
4954.23599,0.01127
4956.16445,0.01363
4958.09292,0.00869
4960.02139,0.00200
4961.94986,0.00029
4963.87833,0.00063
4965.80680,0.00352
4967.73527,0.00581
4969.66373,0.00524
4971.59220,0.00680
4973.52067,0.00998
4975.44914,0.01272
4977.37761,0.01098
4979.30608,0.00338
4981.23455,0.00236
4983.16302,0.01667
4985.09148,0.03525
4987.01995,0.04181
4988.94842,0.03789
4990.87689,0.02876
4992.80536,0.01599
4994.73383,0.01205
4996.66230,0.01388
4998.59076,0.01097
5000.51923,0.01166
5002.44770,0.00975
5004.37617,-0.00203
5006.30464,-0.00609
5008.23311,-0.00309
5010.16158,-0.00454
5012.09005,-0.00211
5014.01851,0.00706
5015.94698,0.01294
5017.87545,0.01104
5019.80392,0.00639
5021.73239,0.00763
5023.66086,0.01099
5025.58933,0.00499
5027.51779,0.00035
5029.44626,0.01155
5031.37473,0.02777
5033.30320,0.03443
5035.23167,0.02923
5037.16014,0.01561
5039.08861,0.00220
5041.01708,0.00190
5042.94554,0.01123
5044.87401,0.01160
5046.80248,0.00137
5048.73095,0.00040
5050.65942,0.01539
5052.58789,0.02918
5054.51636,0.02813
5056.44482,0.01856
5058.37329,0.01661
5060.30176,0.01952
5062.23023,0.01213
5064.15870,-0.00347
5066.08717,-0.01173
5068.01564,0.00007
5069.94410,0.02066
5071.87257,0.02954
5073.80104,0.02705
5075.72951,0.02045
5077.65798,0.01136
5079.58645,0.00564
5081.51492,0.00177
5083.44339,-0.00668
5085.37185,-0.00468
5087.30032,0.01715
5089.22879,0.04019
5091.15726,0.04669
5093.08573,0.03065
5095.01420,0.00267
5096.94267,-0.01310
5098.87113,-0.00755
5100.79960,0.00352
5102.72807,0.00513
5104.65654,0.00687
5106.58501,0.01822
5108.51348,0.02045
5110.44195,0.00969
5112.37042,0.01025
5114.29888,0.02346
5116.22735,0.02978
5118.15582,0.02325
5120.08429,0.01444
5122.01276,0.01653
5123.94123,0.02993
5125.86970,0.04087
5127.79816,0.04027
5129.72663,0.03560
5131.65510,0.03438
5133.58357,0.03937
5135.51204,0.05236
5137.44051,0.06480
5139.36898,0.06354
5141.29745,0.04804
5143.22591,0.03528
5145.15438,0.03942
5147.08285,0.04887
5149.01132,0.04806
5150.93979,0.04150
5152.86826,0.04215
5154.79673,0.04389
5156.72519,0.03103
5158.65366,0.01911
5160.58213,0.01979
5162.51060,0.02158
5164.43907,0.02750
5166.36754,0.04124
5168.29601,0.04594
5170.22448,0.02735
5172.15294,0.00895
5174.08141,0.01118
5176.00988,0.01957
5177.93835,0.02651
5179.86682,0.02924
5181.79529,0.02887
5183.72376,0.02632
5185.65222,0.01419
5187.58069,0.00926
5189.50916,0.02094
5191.43763,0.02437
5193.36610,0.01747
5195.29457,0.02006
5197.22304,0.02472
5199.15151,0.02442
5201.07997,0.03275
5203.00844,0.04969
5204.93691,0.06164
5206.86538,0.05668
5208.79385,0.04110
5210.72232,0.03137
5212.65079,0.03372
5214.57925,0.04237
5216.50772,0.04030
5218.43619,0.03557
5220.36466,0.04891
5222.29313,0.06144
5224.22160,0.06106
5226.15007,0.06347
5228.07854,0.06471
5230.00700,0.05189
5231.93547,0.03792
5233.86394,0.04039
5235.79241,0.05539
5237.72088,0.06971
5239.64935,0.06569
5241.57782,0.04598
5243.50628,0.03589
5245.43475,0.03246
5247.36322,0.01991
5249.29169,0.00950
5251.22016,0.01233
5253.14863,0.02649
5255.07710,0.04486
5257.00556,0.05181
5258.93403,0.04791
5260.86250,0.05003
5262.79097,0.06784
5264.71944,0.07993
5266.64791,0.06139
5268.57638,0.04906
5270.50485,0.06897
5272.43331,0.08661
5274.36178,0.08173
5276.29025,0.06326
5278.21872,0.04342
5280.14719,0.03144
5282.07566,0.02799
5284.00413,0.03145
5285.93259,0.03760
5287.86106,0.03802
5289.78953,0.03160
5291.71800,0.03426
5293.64647,0.05597
5295.57494,0.07924
5297.50341,0.08502
5299.43188,0.07013
5301.36034,0.03614
5303.28881,0.00432
5305.21728,0.00301
5307.14575,0.02100
5309.07422,0.03736
5311.00269,0.04262
5312.93116,0.03167
5314.85962,0.02373
5316.78809,0.03489
5318.71656,0.05162
5320.64503,0.06929
5322.57350,0.08520
5324.50197,0.08088
5326.43044,0.05626
5328.35891,0.03859
5330.28737,0.04795
5332.21584,0.06453
5334.14431,0.06314
5336.07278,0.05911
5338.00125,0.06373
5339.92972,0.06329
5341.85819,0.06802
5343.78665,0.08853
5345.71512,0.09121
5347.64359,0.06577
5349.57206,0.05051
5351.50053,0.05579
5353.42900,0.06603
5355.35747,0.06601
5357.28594,0.05797
5359.21440,0.05346
5361.14287,0.04603
5363.07134,0.03511
5364.99981,0.04009
5366.92828,0.05458
5368.85675,0.06703
5370.78522,0.08172
5372.71368,0.09074
5374.64215,0.08884
5376.57062,0.08202
5378.49909,0.07495
5380.42756,0.07063
5382.35603,0.07584
5384.28450,0.09556
5386.21297,0.10618
5388.14143,0.08370
5390.06990,0.05612
5391.99837,0.05037
5393.92684,0.05513
5395.85531,0.06285
5397.78378,0.07901
5399.71225,0.08668
5401.64071,0.08269
5403.56918,0.07062
5405.49765,0.04986
5407.42612,0.04126
5409.35459,0.05421
5411.28306,0.07885
5413.21153,0.09845
5415.13999,0.09000
5417.06846,0.06574
5418.99693,0.05240
5420.92540,0.05298
5422.85387,0.05421
5424.78234,0.05121
5426.71081,0.04451
5428.63928,0.04185
5430.56774,0.05714
5432.49621,0.07693
5434.42468,0.08705
5436.35315,0.09418
5438.28162,0.09828
5440.21009,0.08304
5442.13856,0.05725
5444.06702,0.05485
5445.99549,0.06113
5447.92396,0.04839
5449.85243,0.03764
5451.78090,0.04503
5453.70937,0.05637
5455.63784,0.06735
5457.56631,0.08318
5459.49477,0.08661
5461.42324,0.07561
5463.35171,0.07367
5465.28018,0.07205
5467.20865,0.06093
5469.13712,0.05609
5471.06559,0.05470
5472.99405,0.05078
5474.92252,0.06701
5476.85099,0.10131
5478.77946,0.11352
5480.70793,0.10052
5482.63640,0.08543
5484.56487,0.07939
5486.49334,0.07343
5488.42180,0.05977
5490.35027,0.05891
5492.27874,0.08400
5494.20721,0.10300
5496.13568,0.09027
5498.06415,0.05792
5499.99262,0.03206
5501.92108,0.02312
5503.84955,0.02872
5505.77802,0.05219
5507.70649,0.07777
5509.63496,0.08105
5511.56343,0.06356
5513.49190,0.05798
5515.42037,0.07862
5517.34883,0.08831
5519.27730,0.08339
5521.20577,0.08784
5523.13424,0.08835
5525.06271,0.07649
5526.99118,0.06357
5528.91965,0.05764
5530.84811,0.05906
5532.77658,0.05736
5534.70505,0.05869
5536.63352,0.06870
5538.56199,0.07416
5540.49046,0.07454
5542.41893,0.07234
5544.34740,0.06624
5546.27586,0.05876
5548.20433,0.05829
5550.13280,0.08071
5552.06127,0.11071
5553.98974,0.11146
5555.91821,0.08782
5557.84668,0.06805
5559.77514,0.05688
5561.70361,0.05643
5563.63208,0.06451
5565.56055,0.06562
5567.48902,0.06686
5569.41749,0.08333
5571.34596,0.10304
5573.27443,0.10333
5575.20289,0.08033
5577.13136,0.04791
5579.05983,0.03250
5580.98830,0.05640
5582.91677,0.08130
5584.84524,0.06864
5586.77371,0.04658
5588.70217,0.04084
5590.63064,0.05061
5592.55911,0.06983
5594.48758,0.08770
5596.41605,0.09553
5598.34452,0.09542
5600.27299,0.09373
5602.20145,0.08837
5604.12992,0.07847
5606.05839,0.07621
5607.98686,0.08267
5609.91533,0.08869
5611.84380,0.10003
5613.77227,0.11068
5615.70074,0.10038
5617.62920,0.07253
5619.55767,0.04743
5621.48614,0.04734
5623.41461,0.06823
5625.34308,0.07649
5627.27155,0.07535
5629.20002,0.08702
5631.12848,0.09182
5633.05695,0.08977
5634.98542,0.10128
5636.91389,0.10394
5638.84236,0.08776
5640.77083,0.08521
5642.69930,0.09370
5644.62777,0.09640
5646.55623,0.09624
5648.48470,0.07446
5650.41317,0.04747
5652.34164,0.06446
5654.27011,0.09524
5656.19858,0.10034
5658.12705,0.10164
5660.05551,0.10627
5661.98398,0.09776
5663.91245,0.09097
5665.84092,0.09945
5667.76939,0.10238
5669.69786,0.09589
5671.62633,0.09588
5673.55480,0.10120
5675.48326,0.09936
5677.41173,0.09271
5679.34020,0.09626
5681.26867,0.09879
5683.19714,0.08072
5685.12561,0.05150
5687.05408,0.03153
5688.98254,0.03788
5690.91101,0.07526
5692.83948,0.10904
5694.76795,0.10562
5696.69642,0.09583
5698.62489,0.10899
5700.55336,0.11600
5702.48183,0.09717
5704.41029,0.06835
5706.33876,0.05444
5708.26723,0.05741
5710.19570,0.06564
5712.12417,0.08534
5714.05264,0.10590
5715.98111,0.10694
5717.90957,0.09329
5719.83804,0.06815
5721.76651,0.05115
5723.69498,0.07604
5725.62345,0.12630
5727.55192,0.14014
5729.48039,0.09998
5731.40886,0.06554
5733.33732,0.07387
5735.26579,0.09658
5737.19426,0.08809
5739.12273,0.05411
5741.05120,0.02772
5742.97967,0.02759
5744.90814,0.05820
5746.83660,0.08998
5748.76507,0.09800
5750.69354,0.10236
5752.62201,0.10800
5754.55048,0.09381
5756.47895,0.07605
5758.40742,0.07605
5760.33588,0.07447
5762.26435,0.06357
5764.19282,0.06868
5766.12129,0.09422
5768.04976,0.11898
5769.97823,0.12750
5771.90670,0.11587
5773.83517,0.10160
5775.76363,0.09369
5777.69210,0.08131
5779.62057,0.06827
5781.54904,0.06231
5783.47751,0.07496
5785.40598,0.10437
5787.33445,0.12234
5789.26291,0.12439
5791.19138,0.12241
5793.11985,0.12622
5795.04832,0.13075
5796.97679,0.12127
5798.90526,0.10778
5800.83373,0.10367
5802.76220,0.10535
5804.69066,0.08941
5806.61913,0.05598
5808.54760,0.04444
5810.47607,0.05418
5812.40454,0.05647
5814.33301,0.05654
5816.26148,0.06786
5818.18994,0.08220
5820.11841,0.09641
5822.04688,0.10727
5823.97535,0.09265
5825.90382,0.04711
5827.83229,0.01017
5829.76076,0.02612
5831.68923,0.07556
5833.61769,0.09974
5835.54616,0.06615
5837.47463,0.01387
5839.40310,-0.00429
5841.33157,-0.00710
5843.26004,-0.00762
5845.18851,0.02265
5847.11697,0.05038
5849.04544,0.02927
5850.97391,0.00673
5852.90238,0.03246
5854.83085,0.08107
5856.75932,0.12009
5858.68779,0.13658
5860.61626,0.13159
5862.54472,0.11111
5864.47319,0.08935
5866.40166,0.09304
5868.33013,0.11322
5870.25860,0.12096
5872.18707,0.11677
5874.11554,0.11319
5876.04400,0.12438
5877.97247,0.13998
5879.90094,0.13747
5881.82941,0.12434
5883.75788,0.10558
5885.68635,0.08393
5887.61482,0.06655
5889.54329,0.06051
5891.47175,0.06906
5893.40022,0.06800
5895.32869,0.05714
5897.25716,0.06326
5899.18563,0.08589
5901.11410,0.12047
5903.04257,0.14944
5904.97103,0.13254
5906.89950,0.08933
5908.82797,0.07984
5910.75644,0.09781
5912.68491,0.11247
5914.61338,0.12306
5916.54185,0.11869
5918.47032,0.10375
5920.39878,0.08239
5922.32725,0.04979
5924.25572,0.04284
5926.18419,0.07091
5928.11266,0.06504
5930.04113,0.02137
5931.96960,0.01400
5933.89806,0.03669
5935.82653,0.04689
5937.75500,0.06476
5939.68347,0.10813
5941.61194,0.15554
5943.54041,0.16050
5945.46888,0.10158
5947.39734,0.03854
5949.32581,0.03618
5951.25428,0.06719
5953.18275,0.08621
5955.11122,0.09491
5957.03969,0.09349
5958.96816,0.07182
5960.89663,0.04245
5962.82509,0.04112
5964.75356,0.06459
5966.68203,0.08319
5968.61050,0.10141
5970.53897,0.13135
5972.46744,0.13778
5974.39591,0.10596
5976.32437,0.08145
5978.25284,0.08405
5980.18131,0.08959
5982.10978,0.07963
5984.03825,0.07627
5985.96672,0.08489
5987.89519,0.07392
5989.82366,0.06661
5991.75212,0.08507
5993.68059,0.09569
5995.60906,0.09123
5997.53753,0.07885
5999.46600,0.05082
6001.39447,0.03292
6003.32294,0.04396
6005.25140,0.06316
6007.17987,0.07815
6009.10834,0.09495
6011.03681,0.11093
6012.96528,0.11062
6014.89375,0.10991
6016.82222,0.12627
6018.75069,0.14108
6020.67915,0.14995
6022.60762,0.13980
6024.53609,0.10375
6026.46456,0.08280
6028.39303,0.09562
6030.32150,0.10284
6032.24997,0.07558
6034.17843,0.04502
6036.10690,0.04557
6038.03537,0.06485
6039.96384,0.07515
6041.89231,0.07439
6043.82078,0.07113
6045.74925,0.06405
6047.67772,0.05897
6049.60618,0.06679
6051.53465,0.09066
6053.46312,0.11032
6055.39159,0.09715
6057.32006,0.07908
6059.24853,0.08739
6061.17700,0.09139
6063.10546,0.09074
6065.03393,0.11714
6066.96240,0.14704
6068.89087,0.15208
6070.81934,0.14620
6072.74781,0.14151
6074.67628,0.12536
6076.60475,0.08893
6078.53321,0.05344
6080.46168,0.05819
6082.39015,0.10363
6084.31862,0.12776
6086.24709,0.10453
6088.17556,0.09867
6090.10403,0.12254
6092.03249,0.12803
6093.96096,0.11250
6095.88943,0.09580
6097.81790,0.09225
6099.74637,0.09882
6101.67484,0.08111
6103.60331,0.03930
6105.53177,0.03146
6107.46024,0.07392
6109.38871,0.10278
6111.31718,0.07712
6113.24565,0.04071
6115.17412,0.03821
6117.10259,0.06396
6119.03106,0.09529
6120.95952,0.12351
6122.88799,0.15890
6124.81646,0.19081
6126.74493,0.18161
6128.67340,0.12902
6130.60187,0.08984
6132.53034,0.08058
6134.45880,0.04512
6136.38727,-0.00720
6138.31574,-0.00697
6140.24421,0.02791
6142.17268,0.04212
6144.10115,0.03884
6146.02962,0.03765
6147.95809,0.05128
6149.88655,0.07061
6151.81502,0.07063
6153.74349,0.05410
6155.67196,0.04474
6157.60043,0.06160
6159.52890,0.10028
6161.45737,0.11492
6163.38583,0.09863
6165.31430,0.09905
6167.24277,0.10478
6169.17124,0.10369
6171.09971,0.12237
6173.02818,0.14095
6174.95665,0.13064
6176.88512,0.09330
6178.81358,0.05665
6180.74205,0.05276
6182.67052,0.05576
6184.59899,0.04372
6186.52746,0.04308
6188.45593,0.05961
6190.38440,0.06774
6192.31286,0.03748
6194.24133,-0.00157
6196.16980,0.02794
6198.09827,0.06879
6200.02674,0.04408
6201.95521,0.03572
6203.88368,0.09437
6205.81215,0.12932
6207.74061,0.08568
6209.66908,0.03819
6211.59755,0.04929
6213.52602,0.07802
6215.45449,0.08933
6217.38296,0.08520
6219.31143,0.06354
6221.23989,0.03209
6223.16836,0.02963
6225.09683,0.05149
6227.02530,0.05024
6228.95377,0.03537
6230.88224,0.03678
6232.81071,0.04935
6234.73918,0.06298
6236.66764,0.09155
6238.59611,0.11433
6240.52458,0.08737
6242.45305,0.01565
6244.38152,-0.02848
6246.30999,-0.00127
6248.23846,0.03644
6250.16692,0.05913
6252.09539,0.09481
6254.02386,0.10872
6255.95233,0.06908
6257.88080,0.02448
6259.80927,0.03236
6261.73774,0.06682
6263.66621,0.08603
6265.59467,0.08313
6267.52314,0.06325
6269.45161,0.04492
6271.38008,0.05671
6273.30855,0.08749
6275.23702,0.07816
6277.16549,0.07074
6279.09395,0.12697
6281.02242,0.16970
6282.95089,0.15025
6284.87936,0.11573
6286.80783,0.11019
6288.73630,0.12082
6290.66477,0.10835
6292.59323,0.09044
6294.52170,0.10648
6296.45017,0.11980
6298.37864,0.09631
6300.30711,0.06907
6302.23558,0.05117
6304.16405,0.02122
6306.09252,-0.00634
6308.02098,-0.01062
6309.94945,0.00109
6311.87792,0.01274
6313.80639,0.04024
6315.73486,0.09956
6317.66333,0.14817
6319.59180,0.15105
6321.52026,0.12608
6323.44873,0.11711
6325.37720,0.13096
6327.30567,0.11917
6329.23414,0.08411
6331.16261,0.08677
6333.09108,0.12880
6335.01955,0.13881
6336.94801,0.08675
6338.87648,0.02968
6340.80495,0.00260
6342.73342,-0.00337
6344.66189,0.03345
6346.59036,0.09249
6348.51883,0.10634
6350.44729,0.09605
6352.37576,0.08565
6354.30423,0.04612
6356.23270,0.01261
6358.16117,0.05502
6360.08964,0.13697
6362.01811,0.15769
6363.94658,0.10532
6365.87504,0.04149
6367.80351,0.03667
6369.73198,0.06319
6371.66045,0.06415
6373.58892,0.06991
6375.51739,0.12267
6377.44586,0.19449
6379.37432,0.20675
6381.30279,0.16006
6383.23126,0.10404
6385.15973,0.05203
6387.08820,0.02296
6389.01667,0.02433
6390.94514,0.04917
6392.87361,0.06058
6394.80207,0.03151
6396.73054,0.02017
6398.65901,0.04655
6400.58748,0.09090
6402.51595,0.13288
6404.44442,0.12618
6406.37289,0.08610
6408.30135,0.08051
6410.22982,0.09685
6412.15829,0.09514
6414.08676,0.06275
6416.01523,0.04907
6417.94370,0.10187
6419.87217,0.12175
6421.80064,0.05676
6423.72910,-0.01735
6425.65757,-0.06655
6427.58604,-0.08210
6429.51451,-0.06376
6431.44298,-0.03146
6433.37145,0.01049
6435.29992,0.05868
6437.22838,0.10138
6439.15685,0.09413
6441.08532,0.02506
6443.01379,-0.01097
6444.94226,0.02935
6446.87073,0.06502
6448.79920,0.07289
6450.72766,0.05890
6452.65613,0.02359
6454.58460,0.00438
6456.51307,0.01799
6458.44154,0.03516
6460.37001,0.04220
6462.29848,0.08611
6464.22695,0.16857
6466.15541,0.18653
6468.08388,0.11829
6470.01235,0.06237
6471.94082,0.06556
6473.86929,0.09282
6475.79776,0.09970
6477.72623,0.07981
6479.65469,0.05674
6481.58316,0.04343
6483.51163,0.02709
6485.44010,-0.00835
6487.36857,-0.02493
6489.29704,0.00072
6491.22551,0.03385
6493.15398,0.05452
6495.08244,0.04459
6497.01091,0.02295
6498.93938,0.03082
6500.86785,0.02130
6502.79632,-0.01279
6504.72479,0.01174
6506.65326,0.05874
6508.58172,0.03993
6510.51019,-0.02608
6512.43866,-0.04630
6514.36713,0.01678
6516.29560,0.08000
6518.22407,0.10627
6520.15254,0.14802
6522.08101,0.16778
6524.00947,0.11875
6525.93794,0.08142
6527.86641,0.08993
6529.79488,0.07494
6531.72335,0.03784
6533.65182,0.00893
6535.58029,-0.02282
6537.50875,-0.04414
6539.43722,-0.03366
6541.36569,-0.00199
6543.29416,0.00851
6545.22263,-0.02905
6547.15110,-0.09417
6549.07957,-0.13825
6551.00804,-0.08810
6552.93650,0.03378
6554.86497,0.08076
6556.79344,-0.00941
6558.72191,-0.10873
6560.65038,-0.08302
6562.57885,0.01436
6564.50732,0.04008
6566.43578,-0.01307
6568.36425,-0.02674
6570.29272,0.00949
6572.22119,0.02484
6574.14966,0.00198
6576.07813,-0.01066
6578.00660,0.02553
6579.93507,0.06742
6581.86353,0.05019
6583.79200,0.02018
6585.72047,0.06181
6587.64894,0.13208
6589.57741,0.15520
6591.50588,0.11985
6593.43435,0.05783
6595.36281,0.03375
6597.29128,0.03461
6599.21975,0.02533
6601.14822,0.03645
6603.07669,0.02731
6605.00516,-0.01019
6606.93363,0.01640
6608.86210,0.07378
6610.79056,0.07164
6612.71903,0.04299
6614.64750,0.02668
6616.57597,-0.00927
6618.50444,-0.02853
6620.43291,0.02294
6622.36138,0.07798
6624.28984,0.07480
6626.21831,0.06257
6628.14678,0.08483
6630.07525,0.10383
6632.00372,0.06503
6633.93219,-0.00405
6635.86066,-0.02937
6637.78912,0.00475
6639.71759,0.06691
6641.64606,0.14903
6643.57453,0.22188
6645.50300,0.23345
6647.43147,0.16205
6649.35994,0.05661
6651.28841,-0.01814
6653.21687,-0.04592
6655.14534,-0.03231
6657.07381,0.03513
6659.00228,0.11742
6660.93075,0.12278
6662.85922,0.09372
6664.78769,0.11328
6666.71615,0.14259
6668.64462,0.13713
6670.57309,0.10662
6672.50156,0.04946
6674.43003,0.00409
6676.35850,0.03071
6678.28697,0.08012
6680.21544,0.07685
6682.14390,0.04643
6684.07237,0.03490
6686.00084,0.05863
6687.92931,0.12101
6689.85778,0.16696
6691.78625,0.13157
6693.71472,0.03340
6695.64318,-0.05448
6697.57165,-0.04208
6699.50012,0.03859
6701.42859,0.07464
6703.35706,0.07664
6705.28553,0.10832
6707.21400,0.13372
6709.14247,0.12382
6711.07093,0.12216
6712.99940,0.14193
6714.92787,0.14287
6716.85634,0.12577
6718.78481,0.15395
6720.71328,0.17741
6722.64175,0.11776
6724.57021,0.05351
6726.49868,0.06430
6728.42715,0.11812
6730.35562,0.13071
6732.28409,0.10579
6734.21256,0.09487
6736.14103,0.07549
6738.06950,0.02599
6739.99796,-0.02115
6741.92643,0.02363
6743.85490,0.13376
6745.78337,0.18012
6747.71184,0.16372
6749.64031,0.15031
6751.56878,0.14753
6753.49724,0.13106
6755.42571,0.10882
6757.35418,0.08942
6759.28265,0.05736
6761.21112,0.06264
6763.13959,0.14179
6765.06806,0.18635
6766.99653,0.15683
6768.92499,0.12042
6770.85346,0.05595
6772.78193,-0.03990
6774.71040,-0.11616
6776.63887,-0.16372
6778.56734,-0.14361
6780.49581,-0.05739
6782.42427,-0.00513
6784.35274,-0.01809
6786.28121,0.00012
6788.20968,0.09740
6790.13815,0.19988
6792.06662,0.21880
6793.99509,0.18302
6795.92355,0.15141
6797.85202,0.13873
6799.78049,0.11794
6801.70896,0.05825
6803.63743,0.02804
6805.56590,0.06599
6807.49437,0.08210
6809.42284,0.04898
6811.35130,0.00542
6813.27977,-0.01526
6815.20824,0.00491
6817.13671,0.03850
6819.06518,0.06636
6820.99365,0.12090
6822.92212,0.15348
6824.85058,0.11073
6826.77905,0.05564
6828.70752,-0.00845
6830.63599,-0.05779
6832.56446,-0.02503
6834.49293,0.07389
6836.42140,0.15753
6838.34987,0.13645
6840.27833,0.04294
6842.20680,-0.02142
6844.13527,-0.04203
6846.06374,-0.07931
6847.99221,-0.09968
6849.92068,-0.03527
6851.84915,0.02553
6853.77761,0.03912
6855.70608,0.06975
6857.63455,0.12661
6859.56302,0.11726
6861.49149,0.02167
6863.41996,-0.05475
6865.34843,-0.07493
6867.27690,-0.04740
6869.20536,0.04838
6871.13383,0.13922
6873.06230,0.12069
6874.99077,0.05582
6876.91924,0.04585
6878.84771,0.03282
6880.77618,0.00611
6882.70464,0.06564
6884.63311,0.16984
6886.56158,0.22159
6888.49005,0.25020
6890.41852,0.27756
6892.34699,0.20347
6894.27546,0.05523
6896.20393,-0.01553
6898.13239,0.04546
6900.06086,0.09475
6901.98933,0.04261
6903.91780,-0.00017
6905.84627,-0.00266
6907.77474,-0.04476
6909.70321,-0.08082
6911.63167,-0.05968
6913.56014,0.00706
6915.48861,0.10214
6917.41708,0.17598
6919.34555,0.13931
6921.27402,0.03249
6923.20249,-0.04681
6925.13096,-0.08912
6927.05942,-0.08482
6928.98789,-0.04329
6930.91636,-0.00042
6932.84483,0.03770
6934.77330,0.08039
6936.70177,0.09623
6938.63024,0.06546
6940.55870,0.00729
6942.48717,-0.04054
6944.41564,-0.03596
6946.34411,0.00452
6948.27258,0.01336
6950.20105,-0.00383
6952.12952,-0.00197
6954.05799,0.01583
6955.98645,0.01497
6957.91492,-0.01616
6959.84339,-0.04282
6961.77186,-0.03490
6963.70033,0.02784
6965.62880,0.11751
6967.55727,0.14339
6969.48573,0.11963
6971.41420,0.20169
6973.34267,0.35517
6975.27114,0.33940
6977.19961,0.14106
6979.12808,0.00702
6981.05655,0.01784
6982.98501,0.03723
6984.91348,-0.02533
6986.84195,-0.12185
6988.77042,-0.16170
6990.69889,-0.10742
6992.62736,-0.09217
6994.55583,-0.15831
6996.48430,-0.19611
6998.41276,-0.15033
7000.34123,-0.03193
7002.26970,0.07842
7004.19817,0.08824
7006.12664,0.08920
7008.05511,0.12527
7009.98358,0.06776
7011.91204,-0.03409
7013.84051,-0.05311
7015.76898,-0.03289
7017.69745,-0.05502
7019.62592,-0.13499
7021.55439,-0.20023
7023.48286,-0.15937
7025.41133,-0.08661
7027.33979,-0.01071
7029.26826,0.12269
7031.19673,0.15848
7033.12520,0.07615
7035.05367,0.03506
7036.98214,0.05276
7038.91061,0.05486
7040.83907,0.05928
7042.76754,0.09096
7044.69601,0.14098
7046.62448,0.20555
7048.55295,0.23231
7050.48142,0.20116
7052.40989,0.13887
7054.33836,0.08213
7056.26682,0.08734
7058.19529,0.12334
7060.12376,0.13474
7062.05223,0.12012
7063.98070,0.05695
7065.90917,0.00587
7067.83764,0.02272
7069.76610,0.03110
7071.69457,-0.01238
7073.62304,-0.00563
7075.55151,0.05997
7077.47998,0.11180
7079.40845,0.11477
7081.33692,0.05847
7083.26539,0.00108
7085.19385,0.00365
7087.12232,0.03502
7089.05079,0.03688
7090.97926,-0.01156
7092.90773,-0.08971
7094.83620,-0.10546
7096.76467,-0.02870
7098.69313,0.05562
7100.62160,0.09524
7102.55007,0.10678
7104.47854,0.06873
7106.40701,-0.03986
7108.33548,-0.09035
7110.26395,-0.02484
7112.19242,0.01646
7114.12088,-0.01317
7116.04935,0.02047
7117.97782,0.16636
7119.90629,0.21141
7121.83476,0.13596
7123.76323,0.09786
7125.69170,0.06089
7127.62016,0.02069
7129.54863,0.06973
7131.47710,0.17054
7133.40557,0.24951
7135.33404,0.24341
7137.26251,0.15061
7139.19098,0.07909
7141.11944,0.05222
7143.04791,-0.00724
7144.97638,-0.04495
7146.90485,-0.00315
7148.83332,0.00752
7150.76179,-0.01437
7152.69026,-0.00546
7154.61873,0.01522
7156.54719,0.01275
7158.47566,-0.00908
7160.40413,-0.03102
7162.33260,-0.06760
7164.26107,-0.10516
7166.18954,-0.07699
7168.11801,-0.01655
7170.04647,-0.02003
7171.97494,-0.08174
7173.90341,-0.03071
7175.83188,0.16171
7177.76035,0.27035
7179.68882,0.19350
7181.61729,0.05287
7183.54576,0.01189
7185.47422,0.07788
7187.40269,0.10388
7189.33116,0.05503
7191.25963,0.01828
7193.18810,0.05317
7195.11657,0.06998
7197.04504,0.05820
7198.97350,0.05338
7200.90197,0.03245
7202.83044,0.01148
7204.75891,0.00744
7206.68738,-0.04321
7208.61585,-0.07093
7210.54432,-0.02205
7212.47279,0.02182
7214.40125,0.01803
7216.32972,0.02082
7218.25819,0.10801
7220.18666,0.15859
7222.11513,0.13499
7224.04360,0.13515
7225.97207,0.09879
7227.90053,0.04078
7229.82900,0.07593
7231.75747,0.12898
7233.68594,0.10745
7235.61441,0.08579
7237.54288,0.12020
7239.47135,0.19737
7241.39982,0.31248
7243.32828,0.43097
7245.25675,0.45745
7247.18522,0.38561
7249.11369,0.25169
7251.04216,0.08968
7252.97063,-0.08411
7254.89910,-0.11188
7256.82756,-0.00036
7258.75603,0.11238
7260.68450,0.14229
7262.61297,0.08956
7264.54144,0.07064
7266.46991,0.13004
7268.39838,0.17781
7270.32685,0.12059
7272.25531,0.04172
7274.18378,0.03115
7276.11225,0.02043
7278.04072,0.06473
7279.96919,0.17978
7281.89766,0.26791
7283.82613,0.27543
7285.75459,0.17822
7287.68306,0.03750
7289.61153,-0.00581
7291.54000,0.10693
7293.46847,0.19613
7295.39694,0.18216
7297.32541,0.12540
7299.25387,0.03703
7301.18234,0.00199
7303.11081,0.07732
7305.03928,0.15768
7306.96775,0.12800
7308.89622,0.05649
7310.82469,0.09290
7312.75316,0.18548
7314.68162,0.27925
7316.61009,0.28314
7318.53856,0.19055
7320.46703,0.18758
7322.39550,0.17882
7324.32397,0.00665
7326.25244,-0.13796
7328.18090,-0.09705
7330.10937,-0.04326
7332.03784,-0.14365
7333.96631,-0.22626
7335.89478,-0.18011
7337.82325,-0.03566
7339.75172,0.06505
7341.68019,-0.02773
7343.60865,0.01712
7345.53712,0.21301
7347.46559,0.19175
7349.39406,-0.01797
7351.32253,-0.06174
7353.25100,0.07646
7355.17947,0.22716
7357.10793,0.33611
7359.03640,0.37438
7360.96487,0.25702
7362.89334,0.07560
7364.82181,0.06318
7366.75028,0.20943
7368.67875,0.27915
7370.60722,0.22703
7372.53568,0.19230
7374.46415,0.15473
7376.39262,0.03566
7378.32109,-0.03007
7380.24956,0.05008
7382.17803,0.18005
7384.10650,0.22976
7386.03496,0.26382
7387.96343,0.28838
7389.89190,0.14831
7391.82037,-0.08134
7393.74884,-0.12473
7395.67731,0.00853
7397.60578,0.05534
7399.53425,0.00246
7401.46271,-0.03987
7403.39118,-0.01174
7405.31965,0.08416
7407.24812,0.17631
7409.17659,0.20289
7411.10506,0.17598
7413.03353,0.14043
7414.96199,0.06834
7416.89046,-0.06866
7418.81893,-0.12798
7420.74740,-0.04740
7422.67587,0.00738
7424.60434,0.07517
7426.53281,0.13128
7428.46128,0.04994
7430.38974,-0.12991
7432.31821,-0.19414
7434.24668,-0.10696
7436.17515,0.02217
7438.10362,0.03238
7440.03209,0.02164
7441.96056,0.07553
7443.88902,0.01324
7445.81749,-0.08190
7447.74596,-0.03264
7449.67443,0.05774
7451.60290,0.15236
7453.53137,0.30747
7455.45984,0.33049
7457.38831,0.13992
7459.31677,-0.16715
7461.24524,-0.36984
7463.17371,-0.32405
7465.10218,-0.09831
7467.03065,0.06708
7468.95912,0.06914
7470.88759,0.00830
7472.81605,-0.08914
7474.74452,-0.12313
7476.67299,0.03504
7478.60146,0.18314
7480.52993,0.02228
7482.45840,-0.13145
7484.38687,0.02299
7486.31533,0.23345
7488.24380,0.28860
7490.17227,0.21187
7492.10074,0.16267
7494.02921,0.15987
7495.95768,0.12576
7497.88615,0.05838
