399.19301,6.63905
401.12148,-0.44922
403.04995,-0.33670
404.97842,0.01819
406.90689,0.08696
408.83536,0.00130
410.76382,-0.03351
412.69229,-0.01483
414.62076,-0.01676
416.54923,-0.00062
418.47770,0.05960
420.40617,0.11064
422.33464,0.12568
424.26311,0.05349
426.19157,-0.06304
428.12004,-0.16153
430.04851,-0.19780
431.97698,-0.08838
433.90545,0.05221
435.83392,0.15543
437.76239,0.21503
439.69085,0.21894
441.61932,0.17818
443.54779,0.11835
445.47626,0.08287
447.40473,0.08892
449.33320,0.08120
451.26167,0.05728
453.19013,0.08075
455.11860,0.12925
457.04707,0.15859
458.97554,0.16171
460.90401,0.14657
462.83248,0.11295
464.76095,0.07154
466.68942,0.03320
468.61788,0.00875
470.54635,0.06988
472.47482,0.19803
474.40329,0.18389
476.33176,0.09517
478.26023,0.05992
480.18870,0.04230
482.11716,0.07418
484.04563,0.12010
485.97410,0.11891
487.90257,0.09904
489.83104,0.07773
491.75951,0.07699
493.68798,0.11303
495.61645,0.14649
497.54491,0.13242
499.47338,0.08864
501.40185,0.04378
503.33032,0.01862
505.25879,0.05307
507.18726,0.11121
509.11573,0.10975
511.04419,0.07379
512.97266,0.06392
514.90113,0.07724
516.82960,0.09574
518.75807,0.11869
520.68654,0.12138
522.61501,0.10677
524.54348,0.11087
526.47194,0.11945
528.40041,0.10287
530.32888,0.08749
532.25735,0.09459
534.18582,0.11161
536.11429,0.12234
538.04276,0.12336
539.97122,0.13121
541.89969,0.14803
543.82816,0.14670
545.75663,0.12392
547.68510,0.09799
549.61357,0.07373
551.54204,0.07208
553.47051,0.10656
555.39897,0.15030
557.32744,0.16237
559.25591,0.12728
561.18438,0.08479
563.11285,0.08901
565.04132,0.14877
566.96979,0.19785
568.89825,0.17217
570.82672,0.12413
572.75519,0.11126
574.68366,0.11634
576.61213,0.12374
578.54060,0.12687
580.46907,0.12068
582.39754,0.12938
584.32600,0.16428
586.25447,0.19845
588.18294,0.20093
590.11141,0.17290
592.03988,0.14279
593.96835,0.12844
595.89682,0.13115
597.82528,0.14134
599.75375,0.13544
601.68222,0.11541
603.61069,0.11285
605.53916,0.12197
607.46763,0.12510
609.39610,0.13127
611.32456,0.13765
613.25303,0.13519
615.18150,0.12314
617.10997,0.11483
619.03844,0.12148
620.96691,0.12677
622.89538,0.11960
624.82385,0.11217
626.75231,0.11870
628.68078,0.12786
630.60925,0.12426
632.53772,0.12480
634.46619,0.13742
636.39466,0.14880
638.32313,0.15821
640.25159,0.16128
642.18006,0.15470
644.10853,0.15310
646.03700,0.15395
647.96547,0.14000
649.89394,0.11544
651.82241,0.09763
653.75088,0.10054
655.67934,0.12268
657.60781,0.13934
659.53628,0.13825
661.46475,0.13149
663.39322,0.12202
665.32169,0.11156
667.25016,0.11757
669.17862,0.13086
671.10709,0.11484
673.03556,0.09609
674.96403,0.09821
676.89250,0.11614
678.82097,0.12389
680.74944,0.12110
682.67791,0.11977
684.60637,0.11924
686.53484,0.11978
688.46331,0.11873
690.39178,0.11394
692.32025,0.10665
694.24872,0.09929
696.17719,0.09904
698.10565,0.11690
700.03412,0.14987
701.96259,0.16940
703.89106,0.16003
705.81953,0.14305
707.74800,0.13364
709.67647,0.12720
711.60494,0.11616
713.53340,0.10216
715.46187,0.10604
717.39034,0.12359
719.31881,0.13397
721.24728,0.14198
723.17575,0.14386
725.10422,0.13494
727.03268,0.13256
728.96115,0.14686
730.88962,0.16532
732.81809,0.16549
734.74656,0.15263
736.67503,0.15438
738.60350,0.16352
740.53197,0.15257
742.46043,0.13135
744.38890,0.13040
746.31737,0.14676
748.24584,0.15146
750.17431,0.13840
752.10278,0.12985
754.03125,0.13804
755.95971,0.14983
757.88818,0.15471
759.81665,0.15271
761.74512,0.14408
763.67359,0.13161
765.60206,0.11912
767.53053,0.11441
769.45900,0.12039
771.38746,0.12853
773.31593,0.13073
775.24440,0.13052
777.17287,0.13674
779.10134,0.14705
781.02981,0.15648
782.95828,0.15975
784.88674,0.15922
786.81521,0.16384
788.74368,0.16465
790.67215,0.15463
792.60062,0.14445
794.52909,0.14394
796.45756,0.14543
798.38602,0.13661
800.31449,0.12922
802.24296,0.14025
804.17143,0.15761
806.09990,0.16337
808.02837,0.16225
809.95684,0.15915
811.88531,0.15240
813.81377,0.15435
815.74224,0.17091
817.67071,0.18184
819.59918,0.17260
821.52765,0.15519
823.45612,0.14749
825.38459,0.14910
827.31305,0.14768
829.24152,0.13998
831.16999,0.13275
833.09846,0.13546
835.02693,0.14489
836.95540,0.14945
838.88387,0.15606
840.81234,0.16593
842.74080,0.16932
844.66927,0.17479
846.59774,0.18466
848.52621,0.18622
850.45468,0.17626
852.38315,0.16180
854.31162,0.15211
856.24008,0.15071
858.16855,0.15145
860.09702,0.15014
862.02549,0.15255
863.95396,0.15314
865.88243,0.14504
867.81090,0.08919
869.73937,-0.02880
871.66783,-0.05408
873.59630,0.06485
875.52477,0.15123
877.45324,0.15456
879.38171,0.14606
881.31018,0.14207
883.23865,0.14079
885.16711,0.14323
887.09558,0.14684
889.02405,0.14085
890.95252,0.12885
892.88099,0.13383
894.80946,0.15252
896.73793,0.15925
898.66640,0.15445
900.59486,0.15317
902.52333,0.15854
904.45180,0.16734
906.38027,0.17081
908.30874,0.16667
910.23721,0.16175
912.16568,0.15798
914.09414,0.14984
916.02261,0.13965
917.95108,0.13696
919.87955,0.13888
921.80802,0.14085
923.73649,0.14478
925.66496,0.15107
927.59343,0.15803
929.52189,0.15924
931.45036,0.15498
933.37883,0.15187
935.30730,0.14713
937.23577,0.14284
939.16424,0.14831
941.09271,0.15917
943.02117,0.16215
944.94964,0.15518
946.87811,0.14948
948.80658,0.14908
950.73505,0.14602
952.66352,0.14107
954.59199,0.14623
956.52045,0.15867
958.44892,0.16345
960.37739,0.16170
962.30586,0.15895
964.23433,0.15231
966.16280,0.14584
968.09127,0.14535
970.01974,0.14775
971.94820,0.15165
973.87667,0.15689
975.80514,0.15883
977.73361,0.15312
979.66208,0.14538
981.59055,0.14460
983.51902,0.14566
985.44748,0.14617
987.37595,0.15225
989.30442,0.15891
991.23289,0.16022
993.16136,0.16087
995.08983,0.16147
997.01830,0.16030
998.94677,0.16073
1000.87523,0.16403
1002.80370,0.17204
1004.73217,0.17754
1006.66064,0.17212
1008.58911,0.16241
1010.51758,0.15311
1012.44605,0.14968
1014.37451,0.15406
1016.30298,0.15813
1018.23145,0.16253
1020.15992,0.17024
1022.08839,0.17646
1024.01686,0.17353
1025.94533,0.16185
1027.87380,0.15359
1029.80226,0.15286
1031.73073,0.15582
1033.65920,0.16200
1035.58767,0.16509
1037.51614,0.16094
1039.44461,0.16040
1041.37308,0.17034
1043.30154,0.17779
1045.23001,0.17156
1047.15848,0.15710
1049.08695,0.14758
1051.01542,0.15188
1052.94389,0.16539
1054.87236,0.17803
1056.80083,0.18331
1058.72929,0.17976
1060.65776,0.17412
1062.58623,0.17717
1064.51470,0.18504
1066.44317,0.18593
1068.37164,0.18674
1070.30011,0.19400
1072.22857,0.20161
1074.15704,0.20324
1076.08551,0.19692
1078.01398,0.19122
1079.94245,0.18888
1081.87092,0.18198
1083.79939,0.17441
1085.72786,0.17220
1087.65632,0.16681
1089.58479,0.15465
1091.51326,0.14750
1093.44173,0.15310
1095.37020,0.16700
1097.29867,0.17833
1099.22714,0.17685
1101.15560,0.17248
1103.08407,0.17873
1105.01254,0.18237
1106.94101,0.17805
1108.86948,0.17905
1110.79795,0.18406
1112.72642,0.18486
1114.65489,0.18599
1116.58335,0.19220
1118.51182,0.19336
1120.44029,0.18467
1122.36876,0.17525
1124.29723,0.16837
1126.22570,0.16447
1128.15417,0.16551
1130.08263,0.16912
1132.01110,0.17251
1133.93957,0.17383
1135.86804,0.17335
1137.79651,0.17128
1139.72498,0.16547
1141.65345,0.16034
1143.58191,0.16336
1145.51038,0.17135
1147.43885,0.17612
1149.36732,0.17663
1151.29579,0.17618
1153.22426,0.17717
1155.15273,0.18102
1157.08120,0.18393
1159.00966,0.18113
1160.93813,0.17753
1162.86660,0.17865
1164.79507,0.18255
1166.72354,0.18749
1168.65201,0.18931
1170.58048,0.18384
1172.50894,0.17787
1174.43741,0.17594
1176.36588,0.17428
1178.29435,0.17461
1180.22282,0.17552
1182.15129,0.17198
1184.07976,0.17091
1186.00823,0.17713
1187.93669,0.18343
1189.86516,0.18432
1191.79363,0.18004
1193.72210,0.17381
1195.65057,0.17137
1197.57904,0.17328
1199.50751,0.17386
1201.43597,0.17248
1203.36444,0.17307
1205.29291,0.17519
1207.22138,0.17632
1209.14985,0.17644
1211.07832,0.17609
1213.00679,0.17791
1214.93526,0.18241
1216.86372,0.18242
1218.79219,0.17930
1220.72066,0.18098
1222.64913,0.18448
1224.57760,0.18548
1226.50607,0.18500
1228.43454,0.18358
1230.36300,0.18193
1232.29147,0.18112
1234.21994,0.17965
1236.14841,0.17633
1238.07688,0.17444
1240.00535,0.17413
1241.93382,0.17377
1243.86229,0.17564
1245.79075,0.17628
1247.71922,0.17259
1249.64769,0.17006
1251.57616,0.17053
1253.50463,0.17229
1255.43310,0.17517
1257.36157,0.17486
1259.29003,0.16913
1261.21850,0.16830
1263.14697,0.17816
1265.07544,0.18645
1267.00391,0.18416
1268.93238,0.17741
1270.86085,0.17537
1272.78932,0.17905
1274.71778,0.18171
1276.64625,0.18154
1278.57472,0.18154
1280.50319,0.18028
1282.43166,0.18020
1284.36013,0.18465
1286.28860,0.18462
1288.21706,0.17736
1290.14553,0.17475
1292.07400,0.17795
1294.00247,0.17876
1295.93094,0.17855
1297.85941,0.18034
1299.78788,0.17976
1301.71634,0.17446
1303.64481,0.16725
1305.57328,0.16455
1307.50175,0.17049
1309.43022,0.17715
1311.35869,0.17679
1313.28716,0.17443
1315.21563,0.17716
1317.14409,0.18312
1319.07256,0.18635
1321.00103,0.18635
1322.92950,0.18573
1324.85797,0.18380
1326.78644,0.18040
1328.71491,0.17816
1330.64337,0.17855
1332.57184,0.18236
1334.50031,0.18674
1336.42878,0.18563
1338.35725,0.18175
1340.28572,0.17856
1342.21419,0.17343
1344.14266,0.17096
1346.07112,0.17246
1347.99959,0.17398
1349.92806,0.17633
1351.85653,0.17929
1353.78500,0.18041
1355.71347,0.17979
1357.64194,0.17947
1359.57040,0.18029
1361.49887,0.18097
1363.42734,0.18122
1365.35581,0.18202
1367.28428,0.18161
1369.21275,0.17921
1371.14122,0.18035
1373.06969,0.18901
1374.99815,0.19718
1376.92662,0.19605
1378.85509,0.19069
1380.78356,0.18504
1382.71203,0.18213
1384.64050,0.18560
1386.56897,0.19181
1388.49743,0.19467
1390.42590,0.19424
1392.35437,0.19278
1394.28284,0.19303
1396.21131,0.19663
1398.13978,0.19652
1400.06825,0.19082
1401.99672,0.18777
1403.92518,0.18943
1405.85365,0.19119
1407.78212,0.19067
1409.71059,0.19206
1411.63906,0.19492
1413.56753,0.19469
1415.49600,0.19352
1417.42446,0.19417
1419.35293,0.19283
1421.28140,0.18881
1423.20987,0.18669
1425.13834,0.18589
1427.06681,0.18861
1428.99528,0.19685
1430.92375,0.20266
1432.85221,0.20121
1434.78068,0.19756
1436.70915,0.19381
1438.63762,0.19167
1440.56609,0.19293
1442.49456,0.19681
1444.42303,0.20087
1446.35149,0.20166
1448.27996,0.19823
1450.20843,0.19439
1452.13690,0.19241
1454.06537,0.19437
1455.99384,0.20606
1457.92231,0.21964
1459.85077,0.21472
1461.77924,0.20837
1463.70771,0.20862
1465.63618,0.20950
1467.56465,0.20860
1469.49312,0.21201
1471.42159,0.21874
1473.35006,0.21967
1475.27852,0.21318
1477.20699,0.20492
1479.13546,0.19771
1481.06393,0.19433
1482.99240,0.19390
1484.92087,0.19487
1486.84934,0.19935
1488.77780,0.20526
1490.70627,0.20348
1492.63474,0.19993
1494.56321,0.19938
1496.49168,0.19959
1498.42015,0.20222
1500.34862,0.20346
1502.27709,0.20228
1504.20555,0.20569
1506.13402,0.21792
1508.06249,0.21637
1509.99096,0.20257
1511.91943,0.19978
1513.84790,0.20407
1515.77637,0.20753
1517.70483,0.20667
1519.63330,0.20707
1521.56177,0.21382
1523.49024,0.21515
1525.41871,0.20824
1527.34718,0.20221
1529.27565,0.20039
1531.20412,0.19986
1533.13258,0.19733
1535.06105,0.19628
1536.98952,0.20324
1538.91799,0.22081
1540.84646,0.23648
1542.77493,0.22860
1544.70340,0.21466
1546.63186,0.20471
1548.56033,0.20288
1550.48880,0.20669
1552.41727,0.20900
1554.34574,0.20929
1556.27421,0.21279
1558.20268,0.21811
1560.13115,0.20907
1562.05961,0.19852
1563.98808,0.19364
1565.91655,0.19315
1567.84502,0.19640
1569.77349,0.19845
1571.70196,0.19611
1573.63043,0.19504
1575.55889,0.19785
1577.48736,0.19886
1579.41583,0.19646
1581.34430,0.19384
1583.27277,0.19004
1585.20124,0.18689
1587.12971,0.18712
1589.05818,0.18950
1590.98664,0.19015
1592.91511,0.18705
1594.84358,0.18434
1596.77205,0.18531
1598.70052,0.18825
1600.62899,0.19156
1602.55746,0.19281
1604.48592,0.19182
1606.41439,0.19207
1608.34286,0.19325
1610.27133,0.19419
1612.19980,0.19636
1614.12827,0.20010
1616.05674,0.20484
1617.98521,0.20634
1619.91367,0.20462
1621.84214,0.20484
1623.77061,0.20641
1625.69908,0.20599
1627.62755,0.20522
1629.55602,0.20663
1631.48449,0.21035
1633.41295,0.21568
1635.34142,0.21900
1637.26989,0.21395
1639.19836,0.20958
1641.12683,0.20892
1643.05530,0.20948
1644.98377,0.21605
1646.91223,0.23057
1648.84070,0.23190
1650.76917,0.22354
1652.69764,0.21726
1654.62611,0.21402
1656.55458,0.20777
1658.48305,0.19883
1660.41152,0.19409
1662.33998,0.19776
1664.26845,0.20210
1666.19692,0.20769
1668.12539,0.21843
1670.05386,0.22208
1671.98233,0.21524
1673.91080,0.21031
1675.83926,0.20819
1677.76773,0.20917
1679.69620,0.21393
1681.62467,0.22073
1683.55314,0.22308
1685.48161,0.21836
1687.41008,0.21712
1689.33855,0.21701
1691.26701,0.21495
1693.19548,0.21518
1695.12395,0.22032
1697.05242,0.22475
1698.98089,0.22342
1700.90936,0.21989
1702.83783,0.21657
1704.76629,0.21416
1706.69476,0.21420
1708.62323,0.21192
1710.55170,0.20627
1712.48017,0.20568
1714.40864,0.21341
1716.33711,0.22012
1718.26558,0.21374
1720.19404,0.20476
1722.12251,0.20094
1724.05098,0.19953
1725.97945,0.19960
1727.90792,0.20167
1729.83639,0.20450
1731.76486,0.20914
1733.69332,0.21432
1735.62179,0.21175
1737.55026,0.20830
1739.47873,0.20662
1741.40720,0.20435
1743.33567,0.20275
1745.26414,0.20340
1747.19261,0.20762
1749.12107,0.21331
1751.04954,0.21291
1752.97801,0.20552
1754.90648,0.20154
1756.83495,0.20372
1758.76342,0.20451
1760.69189,0.20218
1762.62035,0.20077
1764.54882,0.20133
1766.47729,0.20457
1768.40576,0.21008
1770.33423,0.21479
1772.26270,0.21609
1774.19117,0.21363
1776.11964,0.21046
1778.04810,0.20770
1779.97657,0.20382
1781.90504,0.19924
1783.83351,0.19896
1785.76198,0.20183
1787.69045,0.20343
1789.61892,0.20635
1791.54738,0.21047
1793.47585,0.21161
1795.40432,0.21246
1797.33279,0.21343
1799.26126,0.21144
1801.18973,0.20668
1803.11820,0.20258
1805.04666,0.20189
1806.97513,0.20491
1808.90360,0.20915
1810.83207,0.20993
1812.76054,0.20630
1814.68901,0.20284
1816.61748,0.20301
1818.54595,0.20940
1820.47441,0.21571
1822.40288,0.21258
1824.33135,0.20648
1826.25982,0.20636
1828.18829,0.20848
1830.11676,0.20809
1832.04523,0.20531
1833.97369,0.20435
1835.90216,0.20540
1837.83063,0.20564
1839.75910,0.20537
1841.68757,0.20648
1843.61604,0.20829
1845.54451,0.20921
1847.47298,0.20909
1849.40144,0.20742
1851.32991,0.20572
1853.25838,0.20602
1855.18685,0.20738
1857.11532,0.20713
1859.04379,0.20526
1860.97226,0.20431
1862.90072,0.20433
1864.82919,0.20584
1866.75766,0.20933
1868.68613,0.21149
1870.61460,0.21046
1872.54307,0.20794
1874.47154,0.20524
1876.40001,0.20495
1878.32847,0.20763
1880.25694,0.20945
1882.18541,0.20839
1884.11388,0.20575
1886.04235,0.20321
1887.97082,0.20253
1889.89929,0.20396
1891.82775,0.20463
1893.75622,0.20444
1895.68469,0.20611
1897.61316,0.20734
1899.54163,0.20595
1901.47010,0.20468
1903.39857,0.20432
1905.32704,0.20412
1907.25550,0.20544
1909.18397,0.20757
1911.11244,0.20653
1913.04091,0.20365
1914.96938,0.20395
1916.89785,0.20655
1918.82632,0.20642
1920.75478,0.20362
1922.68325,0.20206
1924.61172,0.20338
1926.54019,0.20531
1928.46866,0.20471
1930.39713,0.20260
1932.32560,0.20184
1934.25407,0.20190
1936.18253,0.20243
1938.11100,0.20418
1940.03947,0.20620
1941.96794,0.20709
1943.89641,0.20442
1945.82488,0.20014
1947.75335,0.19880
1949.68181,0.19882
1951.61028,0.19834
1953.53875,0.19973
1955.46722,0.20316
1957.39569,0.20484
1959.32416,0.20368
1961.25263,0.20304
1963.18110,0.20429
1965.10956,0.20498
1967.03803,0.20338
1968.96650,0.20180
1970.89497,0.20304
1972.82344,0.20489
1974.75191,0.20429
1976.68038,0.20396
1978.60884,0.20594
1980.53731,0.20705
1982.46578,0.20683
1984.39425,0.20725
1986.32272,0.20830
1988.25119,0.21009
1990.17966,0.21104
1992.10812,0.20744
1994.03659,0.20176
1995.96506,0.20082
1997.89353,0.20397
1999.82200,0.20571
2001.75047,0.20588
2003.67894,0.20636
2005.60741,0.20542
2007.53587,0.20433
2009.46434,0.20506
2011.39281,0.20571
2013.32128,0.20499
2015.24975,0.20359
2017.17822,0.20319
2019.10669,0.20405
2021.03515,0.20501
2022.96362,0.20568
2024.89209,0.20531
2026.82056,0.20393
2028.74903,0.20274
2030.67750,0.20118
2032.60597,0.19990
2034.53444,0.20042
2036.46290,0.20096
2038.39137,0.20058
2040.31984,0.19967
2042.24831,0.19910
2044.17678,0.20053
2046.10525,0.20300
2048.03372,0.20530
2049.96218,0.20750
2051.89065,0.20880
2053.81912,0.20781
2055.74759,0.20603
2057.67606,0.20585
2059.60453,0.20577
2061.53300,0.20653
2063.46147,0.20917
2065.38993,0.20919
2067.31840,0.20675
2069.24687,0.20539
2071.17534,0.20472
2073.10381,0.20552
2075.03228,0.20775
2076.96075,0.20856
2078.88921,0.20767
2080.81768,0.20700
2082.74615,0.20708
2084.67462,0.20770
2086.60309,0.20891
2088.53156,0.20951
2090.46003,0.20875
2092.38850,0.20740
2094.31696,0.20667
2096.24543,0.20713
2098.17390,0.20591
2100.10237,0.20303
2102.03084,0.20438
2103.95931,0.20887
2105.88778,0.21048
2107.81624,0.20953
2109.74471,0.20798
2111.67318,0.20616
2113.60165,0.20524
2115.53012,0.20578
2117.45859,0.20660
2119.38706,0.20543
2121.31553,0.20232
2123.24399,0.20083
2125.17246,0.20323
2127.10093,0.20783
2129.02940,0.21022
2130.95787,0.20918
2132.88634,0.20851
2134.81481,0.20800
2136.74327,0.20452
2138.67174,0.20111
2140.60021,0.20228
2142.52868,0.20550
2144.45715,0.20587
2146.38562,0.20357
2148.31409,0.20170
2150.24255,0.20249
2152.17102,0.20511
2154.09949,0.20611
2156.02796,0.20555
2157.95643,0.20526
2159.88490,0.20457
2161.81337,0.20430
2163.74184,0.20550
2165.67030,0.20784
2167.59877,0.21065
2169.52724,0.21084
2171.45571,0.20769
2173.38418,0.20409
2175.31265,0.20069
2177.24112,0.19871
2179.16958,0.20092
2181.09805,0.20491
2183.02652,0.20610
2184.95499,0.20559
2186.88346,0.20526
2188.81193,0.20507
2190.74040,0.20668
2192.66887,0.20938
2194.59733,0.20923
2196.52580,0.20604
2198.45427,0.20378
2200.38274,0.20340
2202.31121,0.20275
2204.23968,0.20229
2206.16815,0.20376
2208.09661,0.20511
2210.02508,0.20336
2211.95355,0.20218
2213.88202,0.20498
2215.81049,0.20651
2217.73896,0.20418
2219.66743,0.20226
2221.59590,0.20249
2223.52436,0.20326
2225.45283,0.20278
2227.38130,0.20320
2229.30977,0.20618
2231.23824,0.20744
2233.16671,0.20705
2235.09518,0.20825
2237.02364,0.20917
2238.95211,0.20799
2240.88058,0.20618
2242.80905,0.20529
2244.73752,0.20400
2246.66599,0.20262
2248.59446,0.20241
2250.52293,0.20162
2252.45139,0.20135
2254.37986,0.20174
2256.30833,0.20018
2258.23680,0.19945
2260.16527,0.20128
2262.09374,0.20086
2264.02221,0.19822
2265.95067,0.19894
2267.87914,0.20152
2269.80761,0.20197
2271.73608,0.20229
2273.66455,0.20411
2275.59302,0.20540
2277.52149,0.20422
2279.44996,0.20212
2281.37842,0.20308
2283.30689,0.20684
2285.23536,0.20828
2287.16383,0.20498
2289.09230,0.19909
2291.02077,0.19390
2292.94924,0.19189
2294.87770,0.19242
2296.80617,0.19190
2298.73464,0.18885
2300.66311,0.18559
2302.59158,0.18387
2304.52005,0.18145
2306.44852,0.17530
2308.37699,0.16794
2310.30545,0.16314
2312.23392,0.15924
2314.16239,0.15556
2316.09086,0.15464
2318.01933,0.15491
2319.94780,0.15151
2321.87627,0.14423
2323.80473,0.13595
2325.73320,0.12816
2327.66167,0.12501
2329.59014,0.12768
2331.51861,0.12890
2333.44708,0.12535
2335.37555,0.12484
2337.30401,0.12880
2339.23248,0.12208
2341.16095,0.10655
2343.08942,0.10503
2345.01789,0.11882
2346.94636,0.13326
2348.87483,0.14022
2350.80330,0.13917
2352.73176,0.13329
2354.66023,0.12661
2356.58870,0.12414
2358.51717,0.12371
2360.44564,0.10866
2362.37411,0.08203
2364.30258,0.07070
2366.23104,0.08844
2368.15951,0.11879
2370.08798,0.13585
2372.01645,0.13989
2373.94492,0.14741
2375.87339,0.15988
2377.80186,0.16969
2379.73033,0.17672
2381.65879,0.18447
2383.58726,0.19382
2385.51573,0.20211
2387.44420,0.20640
2389.37267,0.20756
2391.30114,0.20750
2393.22961,0.20710
2395.15807,0.20673
2397.08654,0.20652
2399.01501,0.20787
2400.94348,0.21048
2402.87195,0.21200
2404.80042,0.21116
2406.72889,0.20815
2408.65736,0.20551
2410.58582,0.20434
2412.51429,0.20326
2414.44276,0.20268
2416.37123,0.20315
2418.29970,0.20485
2420.22817,0.20778
2422.15664,0.20848
2424.08510,0.20518
2426.01357,0.20195
2427.94204,0.20221
2429.87051,0.20605
2431.79898,0.21121
2433.72745,0.21353
2435.65592,0.21198
2437.58439,0.20984
2439.51285,0.20878
2441.44132,0.20889
2443.36979,0.20976
2445.29826,0.20869
2447.22673,0.20587
2449.15520,0.20589
2451.08367,0.20909
2453.01213,0.21056
2454.94060,0.21047
2456.86907,0.21171
2458.79754,0.21164
2460.72601,0.20952
2462.65448,0.20821
2464.58295,0.20670
2466.51142,0.20568
2468.43988,0.20776
2470.36835,0.20852
2472.29682,0.20556
2474.22529,0.20365
2476.15376,0.20463
2478.08223,0.20712
2480.01070,0.20896
2481.93916,0.20850
2483.86763,0.20689
2485.79610,0.20622
2487.72457,0.20785
2489.65304,0.20977
2491.58151,0.20855
2493.50998,0.20643
2495.43844,0.20730
2497.36691,0.21059
2499.29538,0.21381
2501.22385,0.21357
2503.15232,0.21041
2505.08079,0.20979
2507.00926,0.21121
2508.93773,0.20911
2510.86619,0.20579
2512.79466,0.20797
2514.72313,0.21218
2516.65160,0.21152
2518.58007,0.20862
2520.50854,0.20884
2522.43701,0.21130
2524.36547,0.21181
2526.29394,0.21006
2528.22241,0.20918
2530.15088,0.20969
2532.07935,0.20959
2534.00782,0.20932
2535.93629,0.20911
2537.86476,0.20751
2539.79322,0.20626
2541.72169,0.20715
2543.65016,0.20950
2545.57863,0.21231
2547.50710,0.21270
2549.43557,0.21003
2551.36404,0.20917
2553.29250,0.21053
2555.22097,0.20947
2557.14944,0.20727
2559.07791,0.20872
2561.00638,0.21241
2562.93485,0.21297
2564.86332,0.21075
2566.79179,0.20994
2568.72025,0.21095
2570.64872,0.21221
2572.57719,0.21307
2574.50566,0.21281
2576.43413,0.21145
2578.36260,0.21090
2580.29107,0.21125
2582.21953,0.20991
2584.14800,0.20741
2586.07647,0.20707
2588.00494,0.20932
2589.93341,0.21246
2591.86188,0.21383
2593.79035,0.21092
2595.71882,0.20796
2597.64728,0.20981
2599.57575,0.21319
2601.50422,0.21427
2603.43269,0.21322
2605.36116,0.21161
2607.28963,0.21123
2609.21810,0.21198
2611.14656,0.21234
2613.07503,0.21202
2615.00350,0.21104
2616.93197,0.20889
2618.86044,0.20797
2620.78891,0.21085
2622.71738,0.21363
2624.64585,0.21222
2626.57431,0.21006
2628.50278,0.21117
2630.43125,0.21374
2632.35972,0.21511
2634.28819,0.21548
2636.21666,0.21532
2638.14513,0.21526
2640.07359,0.21560
2642.00206,0.21522
2643.93053,0.21336
2645.85900,0.21117
2647.78747,0.21056
2649.71594,0.21215
2651.64441,0.21519
2653.57288,0.21652
2655.50134,0.21446
2657.42981,0.21200
2659.35828,0.21144
2661.28675,0.21328
2663.21522,0.21657
2665.14369,0.21822
2667.07216,0.21727
2669.00062,0.21665
2670.92909,0.21703
2672.85756,0.21413
2674.78603,0.20987
2676.71450,0.21052
2678.64297,0.21210
2680.57144,0.21112
2682.49990,0.21225
2684.42837,0.21478
2686.35684,0.21641
2688.28531,0.21838
2690.21378,0.21882
2692.14225,0.21709
2694.07072,0.21623
2695.99919,0.21783
2697.92765,0.22057
2699.85612,0.22106
2701.78459,0.21905
2703.71306,0.21796
2705.64153,0.21779
2707.57000,0.21769
2709.49847,0.21865
2711.42693,0.21820
2713.35540,0.21459
2715.28387,0.21295
2717.21234,0.21595
2719.14081,0.21930
2721.06928,0.22049
2722.99775,0.21913
2724.92622,0.21699
2726.85468,0.21836
2728.78315,0.22105
2730.71162,0.22070
2732.64009,0.22076
2734.56856,0.22364
2736.49703,0.22437
2738.42550,0.22177
2740.35396,0.22105
2742.28243,0.22380
2744.21090,0.22500
2746.13937,0.22148
2748.06784,0.21859
2749.99631,0.21956
2751.92478,0.22038
2753.85325,0.21948
2755.78171,0.21948
2757.71018,0.22218
2759.63865,0.22439
2761.56712,0.22260
2763.49559,0.22005
2765.42406,0.22015
2767.35253,0.22117
2769.28099,0.22184
2771.20946,0.22179
2773.13793,0.22135
2775.06640,0.22456
2776.99487,0.22953
2778.92334,0.22952
2780.85181,0.22595
2782.78028,0.22343
2784.70874,0.22415
2786.63721,0.22823
2788.56568,0.23117
2790.49415,0.22889
2792.42262,0.22373
2794.35109,0.22114
2796.27956,0.22259
2798.20802,0.22368
2800.13649,0.22154
2802.06496,0.21952
2803.99343,0.22010
2805.92190,0.22245
2807.85037,0.22548
2809.77884,0.22762
2811.70731,0.22924
2813.63577,0.23146
2815.56424,0.23182
2817.49271,0.22978
2819.42118,0.22861
2821.34965,0.22859
2823.27812,0.22870
2825.20659,0.22954
2827.13505,0.22863
2829.06352,0.22521
2830.99199,0.22548
2832.92046,0.22926
2834.84893,0.23137
2836.77740,0.23326
2838.70587,0.23307
2840.63433,0.22819
2842.56280,0.22511
2844.49127,0.22659
2846.41974,0.22837
2848.34821,0.22871
2850.27668,0.22725
2852.20515,0.22437
2854.13362,0.22214
2856.06208,0.22185
2857.99055,0.22310
2859.91902,0.22367
2861.84749,0.22342
2863.77596,0.22346
2865.70443,0.22398
2867.63290,0.22450
2869.56136,0.22363
2871.48983,0.22400
2873.41830,0.22692
2875.34677,0.22840
2877.27524,0.22913
2879.20371,0.23324
2881.13218,0.23685
2883.06065,0.23291
2884.98911,0.22610
2886.91758,0.22512
2888.84605,0.22874
2890.77452,0.23035
2892.70299,0.22694
2894.63146,0.22196
2896.55993,0.22091
2898.48839,0.22432
2900.41686,0.22867
2902.34533,0.22878
2904.27380,0.22182
2906.20227,0.21474
2908.13074,0.21373
2910.05921,0.21623
2911.98768,0.22007
2913.91614,0.22338
2915.84461,0.22506
2917.77308,0.22680
2919.70155,0.22904
2921.63002,0.22947
2923.55849,0.22559
2925.48696,0.21822
2927.41542,0.20956
2929.34389,0.20659
2931.27236,0.21759
2933.20083,0.23013
2935.12930,0.22686
2937.05777,0.21698
2938.98624,0.21407
2940.91471,0.21705
2942.84317,0.22228
2944.77164,0.22525
2946.70011,0.22364
2948.62858,0.22218
2950.55705,0.22375
2952.48552,0.22622
2954.41399,0.22773
2956.34245,0.22515
2958.27092,0.22136
2960.19939,0.22397
2962.12786,0.22708
2964.05633,0.22529
2965.98480,0.22535
2967.91327,0.22807
2969.84174,0.22967
2971.77020,0.23003
2973.69867,0.23080
2975.62714,0.23006
2977.55561,0.22603
2979.48408,0.22566
2981.41255,0.23108
2983.34102,0.23467
2985.26948,0.23268
2987.19795,0.22912
2989.12642,0.22969
2991.05489,0.23183
2992.98336,0.23198
2994.91183,0.23339
2996.84030,0.23603
2998.76877,0.23832
3000.69723,0.24124
3002.62570,0.24113
3004.55417,0.23455
3006.48264,0.22724
3008.41111,0.22562
3010.33958,0.22569
3012.26805,0.21913
3014.19651,0.20537
3016.12498,0.19324
3018.05345,0.19591
3019.98192,0.21390
3021.91039,0.22895
3023.83886,0.23045
3025.76733,0.22653
3027.69579,0.22692
3029.62426,0.23040
3031.55273,0.23098
3033.48120,0.22939
3035.40967,0.22995
3037.33814,0.23198
3039.26661,0.23214
3041.19508,0.22958
3043.12354,0.22657
3045.05201,0.22653
3046.98048,0.22889
3048.90895,0.22998
3050.83742,0.22962
3052.76589,0.22932
3054.69436,0.22832
3056.62282,0.22714
3058.55129,0.22885
3060.47976,0.23105
3062.40823,0.22922
3064.33670,0.22384
3066.26517,0.21833
3068.19364,0.21853
3070.12211,0.22355
3072.05057,0.22563
3073.97904,0.22251
3075.90751,0.21932
3077.83598,0.22207
3079.76445,0.23003
3081.69292,0.23490
3083.62139,0.22886
3085.54985,0.21945
3087.47832,0.22022
3089.40679,0.22601
3091.33526,0.22552
3093.26373,0.22019
3095.19220,0.21817
3097.12067,0.22384
3099.04914,0.23240
3100.97760,0.23637
3102.90607,0.23175
3104.83454,0.22305
3106.76301,0.22164
3108.69148,0.22793
3110.61995,0.23125
3112.54842,0.22965
3114.47688,0.22846
3116.40535,0.22783
3118.33382,0.22692
3120.26229,0.22816
3122.19076,0.23134
3124.11923,0.23251
3126.04770,0.23044
3127.97617,0.22720
3129.90463,0.22575
3131.83310,0.22909
3133.76157,0.23378
3135.69004,0.23314
3137.61851,0.22802
3139.54698,0.22524
3141.47545,0.22724
3143.40391,0.22911
3145.33238,0.22828
3147.26085,0.22712
3149.18932,0.22766
3151.11779,0.22935
3153.04626,0.23063
3154.97473,0.23022
3156.90320,0.22859
3158.83166,0.22841
3160.76013,0.23101
3162.68860,0.23585
3164.61707,0.24008
3166.54554,0.24156
3168.47401,0.23739
3170.40248,0.22783
3172.33094,0.22456
3174.25941,0.23261
3176.18788,0.24085
3178.11635,0.23953
3180.04482,0.23434
3181.97329,0.23488
3183.90176,0.23921
3185.83022,0.24102
3187.75869,0.23831
3189.68716,0.23550
3191.61563,0.23434
3193.54410,0.23230
3195.47257,0.23325
3197.40104,0.23867
3199.32951,0.24071
3201.25797,0.23611
3203.18644,0.22883
3205.11491,0.22450
3207.04338,0.22786
3208.97185,0.23396
3210.90032,0.23495
3212.82879,0.23241
3214.75725,0.23138
3216.68572,0.23532
3218.61419,0.24032
3220.54266,0.23827
3222.47113,0.23223
3224.39960,0.23033
3226.32807,0.23184
3228.25654,0.23158
3230.18500,0.22730
3232.11347,0.22312
3234.04194,0.22409
3235.97041,0.22790
3237.89888,0.22991
3239.82735,0.22858
3241.75582,0.22832
3243.68428,0.23328
3245.61275,0.23794
3247.54122,0.23992
3249.46969,0.24483
3251.39816,0.24924
3253.32663,0.24443
3255.25510,0.23281
3257.18357,0.22581
3259.11203,0.22847
3261.04050,0.23275
3262.96897,0.23353
3264.89744,0.23261
3266.82591,0.23032
3268.75438,0.22911
3270.68285,0.22876
3272.61131,0.22667
3274.53978,0.22565
3276.46825,0.22766
3278.39672,0.22927
3280.32519,0.22919
3282.25366,0.22951
3284.18213,0.23069
3286.11060,0.23318
3288.03906,0.23421
3289.96753,0.23081
3291.89600,0.22728
3293.82447,0.22644
3295.75294,0.22668
3297.68141,0.22693
3299.60988,0.22641
3301.53834,0.22651
3303.46681,0.22847
3305.39528,0.23028
3307.32375,0.23151
3309.25222,0.23180
3311.18069,0.22849
3313.10916,0.22334
3315.03763,0.22226
3316.96609,0.22648
3318.89456,0.23254
3320.82303,0.23840
3322.75150,0.24134
3324.67997,0.23851
3326.60844,0.23337
3328.53691,0.23098
3330.46537,0.23236
3332.39384,0.23662
3334.32231,0.23884
3336.25078,0.23479
3338.17925,0.22923
3340.10772,0.22664
3342.03619,0.22634
3343.96466,0.22892
3345.89312,0.23274
3347.82159,0.23332
3349.75006,0.23028
3351.67853,0.22684
3353.60700,0.22818
3355.53547,0.23377
3357.46394,0.23686
3359.39240,0.24080
3361.32087,0.24574
3363.24934,0.24271
3365.17781,0.23731
3367.10628,0.23645
3369.03475,0.23620
3370.96322,0.23639
3372.89168,0.23917
3374.82015,0.24223
3376.74862,0.24094
3378.67709,0.23394
3380.60556,0.22569
3382.53403,0.22388
3384.46250,0.22937
3386.39097,0.23317
3388.31943,0.23172
3390.24790,0.22954
3392.17637,0.23012
3394.10484,0.23438
3396.03331,0.23881
3397.96178,0.24071
3399.89025,0.24049
3401.81871,0.23680
3403.74718,0.22950
3405.67565,0.22121
3407.60412,0.21481
3409.53259,0.21332
3411.46106,0.21740
3413.38953,0.22363
3415.31800,0.22664
3417.24646,0.22487
3419.17493,0.22362
3421.10340,0.22588
3423.03187,0.22799
3424.96034,0.22704
3426.88881,0.22380
3428.81728,0.22121
3430.74574,0.22272
3432.67421,0.22682
3434.60268,0.22596
3436.53115,0.22007
3438.45962,0.21702
3440.38809,0.21815
3442.31656,0.22041
3444.24503,0.22293
3446.17349,0.22463
3448.10196,0.22183
3450.03043,0.21601
3451.95890,0.21465
3453.88737,0.21754
3455.81584,0.21975
3457.74431,0.22148
3459.67277,0.22250
3461.60124,0.22075
3463.52971,0.21779
3465.45818,0.21581
3467.38665,0.21475
3469.31512,0.21489
3471.24359,0.21732
3473.17206,0.22010
3475.10052,0.21915
3477.02899,0.21751
3478.95746,0.21994
3480.88593,0.22131
3482.81440,0.21760
3484.74287,0.21453
3486.67134,0.21281
3488.59980,0.20870
3490.52827,0.20402
3492.45674,0.20259
3494.38521,0.20625
3496.31368,0.21108
3498.24215,0.21235
3500.17062,0.21163
3502.09909,0.21050
3504.02755,0.20574
3505.95602,0.19754
3507.88449,0.19524
3509.81296,0.19994
3511.74143,0.19969
3513.66990,0.19338
3515.59837,0.19040
3517.52683,0.19189
3519.45530,0.19472
3521.38377,0.19738
3523.31224,0.19756
3525.24071,0.19766
3527.16918,0.19902
3529.09765,0.19681
3531.02611,0.19141
3532.95458,0.18737
3534.88305,0.18738
3536.81152,0.18925
3538.73999,0.18723
3540.66846,0.18225
3542.59693,0.17848
3544.52540,0.17664
3546.45386,0.17684
3548.38233,0.17826
3550.31080,0.17981
3552.23927,0.18186
3554.16774,0.18535
3556.09621,0.18681
3558.02468,0.18131
3559.95314,0.17474
3561.88161,0.17522
3563.81008,0.17859
3565.73855,0.17683
3567.66702,0.17228
3569.59549,0.17221
3571.52396,0.17264
3573.45243,0.17248
3575.38089,0.17426
3577.30936,0.17727
3579.23783,0.17823
3581.16630,0.17637
3583.09477,0.17304
3585.02324,0.16923
3586.95171,0.16685
3588.88017,0.16460
3590.80864,0.16167
3592.73711,0.15860
3594.66558,0.15678
3596.59405,0.16115
3598.52252,0.16771
3600.45099,0.16798
3602.37946,0.16170
3604.30792,0.15590
3606.23639,0.15474
3608.16486,0.15724
3610.09333,0.16365
3612.02180,0.17237
3613.95027,0.17456
3615.87874,0.17107
3617.80720,0.16932
3619.73567,0.16449
3621.66414,0.15833
3623.59261,0.15800
3625.52108,0.16236
3627.44955,0.16915
3629.37802,0.17052
3631.30649,0.16557
3633.23495,0.16224
3635.16342,0.15782
3637.09189,0.15326
3639.02036,0.15277
3640.94883,0.15387
3642.87730,0.15225
3644.80577,0.15177
3646.73423,0.15851
3648.66270,0.16744
3650.59117,0.16143
3652.51964,0.14912
3654.44811,0.14174
3656.37658,0.14004
3658.30505,0.14318
3660.23352,0.14758
3662.16198,0.15085
3664.09045,0.15163
3666.01892,0.15079
3667.94739,0.14999
3669.87586,0.14830
3671.80433,0.14746
3673.73280,0.15059
3675.66126,0.15636
3677.58973,0.15654
3679.51820,0.15041
3681.44667,0.14527
3683.37514,0.14179
3685.30361,0.13810
3687.23208,0.13803
3689.16055,0.14395
3691.08901,0.14830
3693.01748,0.14770
3694.94595,0.14632
3696.87442,0.14296
3698.80289,0.13746
3700.73136,0.13651
3702.65983,0.14025
3704.58829,0.14179
3706.51676,0.14236
3708.44523,0.14536
3710.37370,0.15156
3712.30217,0.15448
3714.23064,0.14937
3716.15911,0.14485
3718.08757,0.14610
3720.01604,0.15067
3721.94451,0.15294
3723.87298,0.14959
3725.80145,0.14261
3727.72992,0.13809
3729.65839,0.13880
3731.58686,0.14422
3733.51532,0.15047
3735.44379,0.15271
3737.37226,0.15124
3739.30073,0.14854
3741.22920,0.14910
3743.15767,0.15280
3745.08614,0.15003
3747.01460,0.14184
3748.94307,0.14020
3750.87154,0.14352
3752.80001,0.14243
3754.72848,0.13984
3756.65695,0.13988
3758.58542,0.14221
3760.51389,0.14432
3762.44235,0.14531
3764.37082,0.14617
3766.29929,0.14493
3768.22776,0.14093
3770.15623,0.13633
3772.08470,0.13528
3774.01317,0.13933
3775.94163,0.14494
3777.87010,0.14842
3779.79857,0.14715
3781.72704,0.14314
3783.65551,0.14096
3785.58398,0.14139
3787.51245,0.14413
3789.44092,0.14623
3791.36938,0.14273
3793.29785,0.13568
3795.22632,0.13350
3797.15479,0.13863
3799.08326,0.14674
3801.01173,0.15609
3802.94020,0.15518
3804.86866,0.14775
3806.79713,0.14810
3808.72560,0.15000
3810.65407,0.14643
3812.58254,0.14430
3814.51101,0.14675
3816.43948,0.14756
3818.36795,0.14501
3820.29641,0.14711
3822.22488,0.14857
3824.15335,0.14202
3826.08182,0.13364
3828.01029,0.13071
3829.93876,0.13460
3831.86723,0.13662
3833.79569,0.13224
3835.72416,0.12918
3837.65263,0.13381
3839.58110,0.14209
3841.50957,0.14762
3843.43804,0.14605
3845.36651,0.13830
3847.29498,0.13412
3849.22344,0.13476
3851.15191,0.13826
3853.08038,0.14971
3855.00885,0.15234
3856.93732,0.14378
3858.86579,0.13945
3860.79426,0.13786
3862.72272,0.13563
3864.65119,0.13386
3866.57966,0.13587
3868.50813,0.14129
3870.43660,0.14613
3872.36507,0.14713
3874.29354,0.14493
3876.22200,0.14030
3878.15047,0.13811
3880.07894,0.14021
3882.00741,0.14101
3883.93588,0.13784
3885.86435,0.13201
3887.79282,0.12810
3889.72129,0.12980
3891.64975,0.13184
3893.57822,0.13006
3895.50669,0.13118
3897.43516,0.13323
3899.36363,0.12888
3901.29210,0.12408
3903.22057,0.12635
3905.14903,0.13069
3907.07750,0.13084
3909.00597,0.12558
3910.93444,0.11911
3912.86291,0.11805
3914.79138,0.12403
3916.71985,0.13009
3918.64832,0.12919
3920.57678,0.12454
3922.50525,0.12150
3924.43372,0.12083
3926.36219,0.12141
3928.29066,0.12361
3930.21913,0.12707
3932.14760,0.12888
3934.07606,0.12813
3936.00453,0.12719
3937.93300,0.12560
3939.86147,0.12374
3941.78994,0.12463
3943.71841,0.12545
3945.64688,0.12268
3947.57535,0.11899
3949.50381,0.11799
3951.43228,0.11871
3953.36075,0.11728
3955.28922,0.11579
3957.21769,0.11577
3959.14616,0.11616
3961.07463,0.11832
3963.00309,0.12014
3964.93156,0.11921
3966.86003,0.11642
3968.78850,0.11361
3970.71697,0.11370
3972.64544,0.11542
3974.57391,0.11596
3976.50238,0.11529
3978.43084,0.11374
3980.35931,0.11562
3982.28778,0.12164
3984.21625,0.12434
3986.14472,0.12515
3988.07319,0.12708
3990.00166,0.12433
3991.93012,0.11787
3993.85859,0.11294
3995.78706,0.11248
3997.71553,0.11717
3999.64400,0.12114
4001.57247,0.12304
4003.50094,0.12599
4005.42941,0.12615
4007.35787,0.12180
4009.28634,0.11763
4011.21481,0.11469
4013.14328,0.11171
4015.07175,0.11127
4017.00022,0.11455
4018.92869,0.11694
4020.85715,0.11531
4022.78562,0.11295
4024.71409,0.11096
4026.64256,0.10762
4028.57103,0.10581
4030.49950,0.10603
4032.42797,0.10571
4034.35644,0.10560
4036.28490,0.10747
4038.21337,0.11340
4040.14184,0.11923
4042.07031,0.11728
4043.99878,0.11120
4045.92725,0.10727
4047.85572,0.10417
4049.78418,0.10362
4051.71265,0.10658
4053.64112,0.10885
4055.56959,0.11128
4057.49806,0.11261
4059.42653,0.11219
4061.35500,0.11434
4063.28346,0.11635
4065.21193,0.11589
4067.14040,0.11374
4069.06887,0.11233
4070.99734,0.11281
4072.92581,0.11094
4074.85428,0.10795
4076.78275,0.10586
4078.71121,0.10194
4080.63968,0.09719
4082.56815,0.09570
4084.49662,0.09758
4086.42509,0.10015
4088.35356,0.10288
4090.28203,0.10312
4092.21049,0.09636
4094.13896,0.08796
4096.06743,0.08887
4097.99590,0.09433
4099.92437,0.09468
4101.85284,0.09463
4103.78131,0.09813
4105.70978,0.10247
4107.63824,0.10558
4109.56671,0.10550
4111.49518,0.10488
4113.42365,0.10693
4115.35212,0.10647
4117.28059,0.10169
4119.20906,0.09768
4121.13752,0.09482
4123.06599,0.09243
4124.99446,0.09277
4126.92293,0.09642
4128.85140,0.10148
4130.77987,0.10599
4132.70834,0.10673
4134.63681,0.10323
4136.56527,0.10045
4138.49374,0.09814
4140.42221,0.09428
4142.35068,0.09361
4144.27915,0.09552
4146.20762,0.09348
4148.13609,0.08978
4150.06455,0.09008
4151.99302,0.09225
4153.92149,0.09170
4155.84996,0.09109
4157.77843,0.09370
4159.70690,0.09412
4161.63537,0.09168
4163.56384,0.09102
4165.49230,0.09060
4167.42077,0.08689
4169.34924,0.08106
4171.27771,0.07840
4173.20618,0.07946
4175.13465,0.08448
4177.06312,0.09282
4178.99158,0.09483
4180.92005,0.08863
4182.84852,0.08349
4184.77699,0.08224
4186.70546,0.08533
4188.63393,0.09237
4190.56240,0.09429
4192.49087,0.08648
4194.41933,0.07584
4196.34780,0.07038
4198.27627,0.07409
4200.20474,0.08279
4202.13321,0.08686
4204.06168,0.08500
4205.99015,0.08544
4207.91861,0.08984
4209.84708,0.09090
4211.77555,0.08615
4213.70402,0.08147
4215.63249,0.08132
4217.56096,0.08439
4219.48943,0.08887
4221.41789,0.09038
4223.34636,0.08513
4225.27483,0.07840
4227.20330,0.07668
4229.13177,0.07984
4231.06024,0.08243
4232.98871,0.08089
4234.91718,0.07762
4236.84564,0.07305
4238.77411,0.06917
4240.70258,0.07096
4242.63105,0.07381
4244.55952,0.07470
4246.48799,0.07995
4248.41646,0.08871
4250.34492,0.09335
4252.27339,0.09019
4254.20186,0.08229
4256.13033,0.07554
4258.05880,0.07054
4259.98727,0.06807
4261.91574,0.07133
4263.84421,0.07560
4265.77267,0.07643
4267.70114,0.07604
4269.62961,0.07431
4271.55808,0.07197
4273.48655,0.07149
4275.41502,0.07182
4277.34349,0.07299
4279.27195,0.07441
4281.20042,0.07354
4283.12889,0.07393
4285.05736,0.07573
4286.98583,0.07291
4288.91430,0.07072
4290.84277,0.07271
4292.77124,0.07061
4294.69970,0.06319
4296.62817,0.05678
4298.55664,0.05468
4300.48511,0.05676
4302.41358,0.06224
4304.34205,0.06652
4306.27052,0.06432
4308.19898,0.06014
4310.12745,0.05896
4312.05592,0.05659
4313.98439,0.05224
4315.91286,0.05271
4317.84133,0.06155
4319.76980,0.07282
4321.69827,0.07632
4323.62673,0.07177
4325.55520,0.06645
4327.48367,0.06003
4329.41214,0.05064
4331.34061,0.04544
4333.26908,0.04637
4335.19755,0.04617
4337.12601,0.04811
4339.05448,0.05756
4340.98295,0.06240
4342.91142,0.05357
4344.83989,0.04473
4346.76836,0.04738
4348.69683,0.05625
4350.62530,0.06444
4352.55376,0.06462
4354.48223,0.05459
4356.41070,0.04480
4358.33917,0.04352
4360.26764,0.04829
4362.19611,0.05374
4364.12458,0.05362
4366.05304,0.04524
4367.98151,0.03926
4369.90998,0.04069
4371.83845,0.04055
4373.76692,0.04143
4375.69539,0.04698
4377.62386,0.04750
4379.55232,0.04385
4381.48079,0.04385
4383.40926,0.04618
4385.33773,0.04971
4387.26620,0.05213
4389.19467,0.04936
4391.12314,0.04399
4393.05161,0.04115
4394.98007,0.04122
4396.90854,0.04064
4398.83701,0.03884
4400.76548,0.04229
4402.69395,0.05318
4404.62242,0.05956
4406.55089,0.05643
4408.47935,0.05192
4410.40782,0.04695
4412.33629,0.03963
4414.26476,0.03289
4416.19323,0.03147
4418.12170,0.04064
4420.05017,0.05286
4421.97864,0.05249
4423.90710,0.04379
4425.83557,0.03915
4427.76404,0.03894
4429.69251,0.04172
4431.62098,0.04268
4433.54945,0.03608
4435.47792,0.02957
4437.40638,0.02949
4439.33485,0.03050
4441.26332,0.03022
4443.19179,0.02952
4445.12026,0.03058
4447.04873,0.03572
4448.97720,0.04166
4450.90567,0.04353
4452.83413,0.03644
4454.76260,0.02512
4456.69107,0.02160
4458.61954,0.02666
4460.54801,0.03076
4462.47648,0.02974
4464.40495,0.02770
4466.33341,0.02667
4468.26188,0.02726
4470.19035,0.03127
4472.11882,0.03556
4474.04729,0.03249
4475.97576,0.02646
4477.90423,0.02838
4479.83270,0.03246
4481.76116,0.02970
4483.68963,0.02027
4485.61810,0.00838
4487.54657,0.00228
4489.47504,0.00768
4491.40351,0.02129
4493.33198,0.03424
4495.26044,0.03902
4497.18891,0.03761
4499.11738,0.03624
4501.04585,0.03371
4502.97432,0.02882
4504.90279,0.02343
4506.83126,0.02127
4508.75973,0.02703
4510.68819,0.03566
4512.61666,0.03984
4514.54513,0.04064
4516.47360,0.04137
4518.40207,0.04510
4520.33054,0.05031
4522.25901,0.04515
4524.18747,0.02801
4526.11594,0.01495
4528.04441,0.01129
4529.97288,0.01010
4531.90135,0.01219
4533.82982,0.01541
4535.75829,0.01602
4537.68676,0.02000
4539.61522,0.02081
4541.54369,0.01484
4543.47216,0.01545
4545.40063,0.02296
4547.32910,0.02905
4549.25757,0.03239
4551.18604,0.03573
4553.11450,0.03484
4555.04297,0.02433
4556.97144,0.01152
4558.89991,0.00379
4560.82838,0.00173
4562.75685,0.00658
4564.68532,0.01382
4566.61378,0.01444
4568.54225,0.00878
4570.47072,0.00322
4572.39919,0.00357
4574.32766,0.00675
4576.25613,0.00362
4578.18460,0.00161
4580.11307,0.00893
4582.04153,0.01264
4583.97000,0.00849
4585.89847,0.00939
4587.82694,0.01743
4589.75541,0.02592
4591.68388,0.03295
4593.61235,0.03846
4595.54081,0.03788
4597.46928,0.02697
4599.39775,0.01408
4601.32622,0.01093
4603.25469,0.01670
4605.18316,0.02303
4607.11163,0.02536
4609.04010,0.02240
4610.96856,0.01756
4612.89703,0.01784
4614.82550,0.02377
4616.75397,0.02822
4618.68244,0.02309
4620.61091,0.01340
4622.53938,0.01004
4624.46784,0.01113
4626.39631,0.01087
4628.32478,0.00945
4630.25325,0.00882
4632.18172,0.01124
4634.11019,0.01743
4636.03866,0.01924
4637.96713,0.01101
4639.89559,0.00687
4641.82406,0.01485
4643.75253,0.02002
4645.68100,0.01860
4647.60947,0.01734
4649.53794,0.01253
4651.46641,0.00558
4653.39487,0.00398
4655.32334,0.00860
4657.25181,0.01673
4659.18028,0.02066
4661.10875,0.01367
4663.03722,0.00803
4664.96569,0.01168
4666.89416,0.01265
4668.82262,0.00993
4670.75109,0.00807
4672.67956,0.00339
4674.60803,-0.00329
4676.53650,-0.00651
4678.46497,-0.00191
4680.39344,0.00949
4682.32190,0.02288
4684.25037,0.02866
4686.17884,0.01854
4688.10731,0.00169
4690.03578,-0.00313
4691.96425,0.00763
4693.89272,0.02007
4695.82119,0.02484
4697.74965,0.02235
4699.67812,0.01554
4701.60659,0.01269
4703.53506,0.01590
4705.46353,0.01589
4707.39200,0.00980
4709.32047,0.00154
4711.24893,-0.00545
4713.17740,-0.00143
4715.10587,0.01450
4717.03434,0.01917
4718.96281,0.00274
4720.89128,-0.01026
4722.81975,-0.00252
4724.74821,0.00830
4726.67668,0.00526
4728.60515,0.00159
4730.53362,0.00754
4732.46209,0.01368
4734.39056,0.01316
4736.31903,0.00978
4738.24750,0.00836
4740.17596,0.00527
4742.10443,0.00308
4744.03290,0.00834
4745.96137,0.01491
4747.88984,0.01937
4749.81831,0.01576
4751.74678,-0.00045
4753.67524,-0.00934
4755.60371,0.00351
4757.53218,0.02374
4759.46065,0.03111
4761.38912,0.02353
4763.31759,0.01728
4765.24606,0.01932
4767.17453,0.01885
4769.10299,0.01418
4771.03146,0.01061
4772.95993,0.00465
4774.88840,0.00069
4776.81687,0.00536
4778.74534,0.00808
4780.67381,0.00065
4782.60227,-0.00530
4784.53074,-0.00254
4786.45921,-0.00130
4788.38768,0.00057
4790.31615,0.00712
4792.24462,0.00392
4794.17309,-0.00219
4796.10156,0.00714
4798.03002,0.02278
4799.95849,0.02850
4801.88696,0.02165
4803.81543,0.01390
4805.74390,0.01205
4807.67237,0.00815
4809.60084,0.00275
4811.52930,0.00248
4813.45777,0.00554
4815.38624,0.00771
4817.31471,0.00946
4819.24318,0.01008
4821.17165,0.00693
4823.10012,0.00538
4825.02859,0.00711
4826.95705,0.00533
4828.88552,0.00199
4830.81399,0.00160
4832.74246,0.00642
4834.67093,0.01398
4836.59940,0.01553
4838.52787,0.01415
4840.45633,0.01033
4842.38480,-0.00267
4844.31327,-0.01736
4846.24174,-0.01833
4848.17021,-0.00308
4850.09868,0.00943
4852.02715,0.00919
4853.95562,0.00335
4855.88408,-0.00238
4857.81255,0.00058
4859.74102,0.00969
4861.66949,0.01427
4863.59796,0.01960
4865.52643,0.03472
4867.45490,0.05137
4869.38336,0.05075
4871.31183,0.02982
4873.24030,0.01130
4875.16877,0.01158
4877.09724,0.01571
4879.02571,0.01144
4880.95418,0.00960
4882.88265,0.01229
4884.81111,0.01089
4886.73958,0.01464
4888.66805,0.02003
4890.59652,0.01014
4892.52499,-0.00027
4894.45346,0.00062
4896.38193,0.00689
4898.31039,0.01980
4900.23886,0.02803
4902.16733,0.01687
4904.09580,0.00085
4906.02427,0.00061
4907.95274,0.01017
4909.88121,0.01686
4911.80967,0.01343
4913.73814,0.00209
4915.66661,-0.00580
4917.59508,-0.00574
4919.52355,-0.00020
4921.45202,0.01002
4923.38049,0.02120
4925.30896,0.01867
4927.23742,0.00870
4929.16589,0.01574
4931.09436,0.02999
4933.02283,0.03057
4934.95130,0.02322
4936.87977,0.01948
4938.80824,0.01888
4940.73670,0.01269
4942.66517,0.00668
4944.59364,0.01043
4946.52211,0.00853
4948.45058,-0.00061
4950.37905,0.00166
4952.30752,0.01060
4954.23599,0.00955
4956.16445,-0.00037
4958.09292,-0.00336
4960.02139,0.00688
4961.94986,0.01732
4963.87833,0.01249
4965.80680,-0.00540
4967.73527,-0.01721
4969.66373,-0.00855
4971.59220,0.01047
4973.52067,0.01571
4975.44914,0.00929
4977.37761,0.00674
4979.30608,0.00606
4981.23455,0.00633
4983.16302,0.00803
4985.09148,0.01096
4987.01995,0.02410
4988.94842,0.03757
4990.87689,0.03172
4992.80536,0.01991
4994.73383,0.01364
4996.66230,0.00509
4998.59076,0.00277
5000.51923,0.01368
5002.44770,0.02726
5004.37617,0.02720
5006.30464,0.01536
5008.23311,0.01663
5010.16158,0.03329
5012.09005,0.03953
5014.01851,0.03051
5015.94698,0.02733
5017.87545,0.03188
5019.80392,0.02835
5021.73239,0.02416
5023.66086,0.02721
5025.58933,0.02481
5027.51779,0.01307
5029.44626,-0.00246
5031.37473,-0.01145
5033.30320,-0.00586
5035.23167,0.00523
5037.16014,0.01177
5039.08861,0.01213
5041.01708,0.01446
5042.94554,0.03213
5044.87401,0.06215
5046.80248,0.07627
5048.73095,0.05556
5050.65942,0.02751
5052.58789,0.01790
5054.51636,0.01002
5056.44482,-0.00010
5058.37329,0.00209
5060.30176,0.00847
5062.23023,0.01212
5064.15870,0.01481
5066.08717,0.01368
5068.01564,0.01572
5069.94410,0.02468
5071.87257,0.03051
5073.80104,0.02494
5075.72951,0.01564
5077.65798,0.01170
5079.58645,0.00326
5081.51492,-0.00740
5083.44339,-0.00470
5085.37185,0.00244
5087.30032,0.00791
5089.22879,0.02570
5091.15726,0.04595
5093.08573,0.04584
5095.01420,0.03754
5096.94267,0.03640
5098.87113,0.02873
5100.79960,0.01399
5102.72807,0.00862
5104.65654,0.01849
5106.58501,0.03736
5108.51348,0.04120
5110.44195,0.02449
5112.37042,0.00851
5114.29888,-0.00122
5116.22735,-0.00668
5118.15582,-0.00062
5120.08429,0.01510
5122.01276,0.02510
5123.94123,0.02723
5125.86970,0.03005
5127.79816,0.02938
5129.72663,0.02223
5131.65510,0.02015
5133.58357,0.03172
5135.51204,0.04164
5137.44051,0.03126
5139.36898,0.01277
5141.29745,0.01384
5143.22591,0.03890
5145.15438,0.06240
5147.08285,0.06136
5149.01132,0.04062
5150.93979,0.02333
5152.86826,0.02353
5154.79673,0.03035
5156.72519,0.03006
5158.65366,0.02996
5160.58213,0.03583
5162.51060,0.03758
5164.43907,0.03708
5166.36754,0.03393
5168.29601,0.01603
5170.22448,0.00431
5172.15294,0.01724
5174.08141,0.03227
5176.00988,0.04014
5177.93835,0.04283
5179.86682,0.03546
5181.79529,0.02979
5183.72376,0.03473
5185.65222,0.03414
5187.58069,0.02640
5189.50916,0.02428
5191.43763,0.02494
5193.36610,0.03220
5195.29457,0.04544
5197.22304,0.05763
5199.15151,0.07392
5201.07997,0.08687
5203.00844,0.09104
5204.93691,0.08877
5206.86538,0.06795
5208.79385,0.03672
5210.72232,0.01965
5212.65079,0.02090
5214.57925,0.03112
5216.50772,0.04035
5218.43619,0.04709
5220.36466,0.04124
5222.29313,0.02954
5224.22160,0.03586
5226.15007,0.05168
5228.07854,0.06471
5230.00700,0.07704
5231.93547,0.08278
5233.86394,0.08005
5235.79241,0.07391
5237.72088,0.07046
5239.64935,0.06187
5241.57782,0.04390
5243.50628,0.03552
5245.43475,0.04343
5247.36322,0.04777
5249.29169,0.03367
5251.22016,0.01629
5253.14863,0.02252
5255.07710,0.05228
5257.00556,0.07728
5258.93403,0.07018
5260.86250,0.03580
5262.79097,0.01619
5264.71944,0.03758
5266.64791,0.07410
5268.57638,0.08910
5270.50485,0.07542
5272.43331,0.06019
5274.36178,0.06100
5276.29025,0.06071
5278.21872,0.04456
5280.14719,0.02623
5282.07566,0.02185
5284.00413,0.03170
5285.93259,0.04947
5287.86106,0.05821
5289.78953,0.05123
5291.71800,0.05479
5293.64647,0.06910
5295.57494,0.07320
5297.50341,0.08101
5299.43188,0.09364
5301.36034,0.10322
5303.28881,0.10775
5305.21728,0.09065
5307.14575,0.06464
5309.07422,0.06445
5311.00269,0.08307
5312.93116,0.08021
5314.85962,0.06278
5316.78809,0.06849
5318.71656,0.07675
5320.64503,0.06608
5322.57350,0.05514
5324.50197,0.05488
5326.43044,0.07218
5328.35891,0.09088
5330.28737,0.08568
5332.21584,0.07551
5334.14431,0.07165
5336.07278,0.07143
5338.00125,0.08469
5339.92972,0.08694
5341.85819,0.07589
5343.78665,0.09306
5345.71512,0.11109
5347.64359,0.08121
5349.57206,0.05354
5351.50053,0.05744
5353.42900,0.05488
5355.35747,0.04929
5357.28594,0.06480
5359.21440,0.07947
5361.14287,0.08212
5363.07134,0.08769
5364.99981,0.09310
5366.92828,0.08010
5368.85675,0.06309
5370.78522,0.05902
5372.71368,0.05519
5374.64215,0.05120
5376.57062,0.06069
5378.49909,0.06436
5380.42756,0.05955
5382.35603,0.06648
5384.28450,0.07734
5386.21297,0.07845
5388.14143,0.06937
5390.06990,0.06039
5391.99837,0.06894
5393.92684,0.09055
5395.85531,0.09439
5397.78378,0.06965
5399.71225,0.04305
5401.64071,0.04025
5403.56918,0.06191
5405.49765,0.09273
5407.42612,0.10598
5409.35459,0.08293
5411.28306,0.04939
5413.21153,0.05354
5415.13999,0.07737
5417.06846,0.08209
5418.99693,0.08128
5420.92540,0.07946
5422.85387,0.07186
5424.78234,0.07871
5426.71081,0.09523
5428.63928,0.08948
5430.56774,0.07484
5432.49621,0.07449
5434.42468,0.07594
5436.35315,0.06534
5438.28162,0.04071
5440.21009,0.01356
5442.13856,0.00257
5444.06702,0.00684
5445.99549,0.01936
5447.92396,0.03891
5449.85243,0.04983
5451.78090,0.04961
5453.70937,0.04835
5455.63784,0.04019
5457.56631,0.03706
5459.49477,0.06842
5461.42324,0.11463
5463.35171,0.13337
5465.28018,0.12673
5467.20865,0.10389
5469.13712,0.07026
5471.06559,0.06048
5472.99405,0.07539
5474.92252,0.08277
5476.85099,0.07645
5478.77946,0.07330
5480.70793,0.08291
5482.63640,0.09679
5484.56487,0.10211
5486.49334,0.09593
5488.42180,0.08204
5490.35027,0.07781
5492.27874,0.09050
5494.20721,0.10500
5496.13568,0.11250
5498.06415,0.11865
5499.99262,0.12757
5501.92108,0.12078
5503.84955,0.09678
5505.77802,0.08514
5507.70649,0.08556
5509.63496,0.08152
5511.56343,0.07564
5513.49190,0.07072
5515.42037,0.06936
5517.34883,0.06190
5519.27730,0.04587
5521.20577,0.04642
5523.13424,0.05683
5525.06271,0.04428
5526.99118,0.02690
5528.91965,0.04580
5530.84811,0.09098
5532.77658,0.12563
5534.70505,0.12948
5536.63352,0.09763
5538.56199,0.06022
5540.49046,0.05549
5542.41893,0.08053
5544.34740,0.09543
5546.27586,0.08752
5548.20433,0.08635
5550.13280,0.09984
5552.06127,0.10853
5553.98974,0.10137
5555.91821,0.09782
5557.84668,0.11349
5559.77514,0.13198
5561.70361,0.13764
5563.63208,0.11837
5565.56055,0.08519
5567.48902,0.07083
5569.41749,0.07526
5571.34596,0.07820
5573.27443,0.07980
5575.20289,0.08626
5577.13136,0.09190
5579.05983,0.08189
5580.98830,0.06420
5582.91677,0.07005
5584.84524,0.09865
5586.77371,0.12699
5588.70217,0.12609
5590.63064,0.10376
5592.55911,0.09377
5594.48758,0.07146
5596.41605,0.02760
5598.34452,0.00947
5600.27299,0.03220
5602.20145,0.05525
5604.12992,0.04744
5606.05839,0.04219
5607.98686,0.08006
5609.91533,0.12991
5611.84380,0.14433
5613.77227,0.12574
5615.70074,0.09406
5617.62920,0.06121
5619.55767,0.04801
5621.48614,0.07152
5623.41461,0.09754
5625.34308,0.08578
5627.27155,0.06676
5629.20002,0.07150
5631.12848,0.08200
5633.05695,0.08473
5634.98542,0.09319
5636.91389,0.12144
5638.84236,0.13973
5640.77083,0.11907
5642.69930,0.07945
5644.62777,0.05208
5646.55623,0.04863
5648.48470,0.05976
5650.41317,0.07423
5652.34164,0.08601
5654.27011,0.09126
5656.19858,0.09209
5658.12705,0.09686
5660.05551,0.11461
5661.98398,0.12599
5663.91245,0.11039
5665.84092,0.08298
5667.76939,0.05152
5669.69786,0.03046
5671.62633,0.03979
5673.55480,0.06472
5675.48326,0.09512
5677.41173,0.12060
5679.34020,0.12126
5681.26867,0.11218
5683.19714,0.12454
5685.12561,0.15152
5687.05408,0.15581
5688.98254,0.13639
5690.91101,0.12215
5692.83948,0.11924
5694.76795,0.12623
5696.69642,0.14043
5698.62489,0.14268
5700.55336,0.11232
5702.48183,0.07031
5704.41029,0.05260
5706.33876,0.05247
5708.26723,0.06627
5710.19570,0.10304
5712.12417,0.13382
5714.05264,0.13233
5715.98111,0.12836
5717.90957,0.13899
5719.83804,0.12938
5721.76651,0.09866
5723.69498,0.08086
5725.62345,0.08203
5727.55192,0.08300
5729.48039,0.06433
5731.40886,0.04646
5733.33732,0.06034
5735.26579,0.08915
5737.19426,0.09696
5739.12273,0.09324
5741.05120,0.09647
5742.97967,0.08546
5744.90814,0.04915
5746.83660,0.01820
5748.76507,0.01703
5750.69354,0.03370
5752.62201,0.05156
5754.55048,0.05783
5756.47895,0.06548
5758.40742,0.10718
5760.33588,0.15487
5762.26435,0.15885
5764.19282,0.14146
5766.12129,0.14509
5768.04976,0.15649
5769.97823,0.14720
5771.90670,0.12130
5773.83517,0.10562
5775.76363,0.10788
5777.69210,0.10324
5779.62057,0.09173
5781.54904,0.08697
5783.47751,0.06938
5785.40598,0.05629
5787.33445,0.07543
5789.26291,0.08764
5791.19138,0.07545
5793.11985,0.06702
5795.04832,0.07344
5796.97679,0.08691
5798.90526,0.08707
5800.83373,0.07611
5802.76220,0.08072
5804.69066,0.10164
5806.61913,0.10884
5808.54760,0.09298
5810.47607,0.08050
5812.40454,0.08360
5814.33301,0.08775
5816.26148,0.08702
5818.18994,0.08342
5820.11841,0.08101
5822.04688,0.09248
5823.97535,0.10376
5825.90382,0.10937
5827.83229,0.13470
5829.76076,0.15317
5831.68923,0.14384
5833.61769,0.13119
5835.54616,0.11066
5837.47463,0.08634
5839.40310,0.07444
5841.33157,0.06742
5843.26004,0.07136
5845.18851,0.10310
5847.11697,0.13467
5849.04544,0.12702
5850.97391,0.09901
5852.90238,0.08350
5854.83085,0.07626
5856.75932,0.07743
5858.68779,0.09210
5860.61626,0.08255
5862.54472,0.02826
5864.47319,0.00347
5866.40166,0.05082
5868.33013,0.10483
5870.25860,0.12428
5872.18707,0.12763
5874.11554,0.14034
5876.04400,0.16147
5877.97247,0.15853
5879.90094,0.13458
5881.82941,0.12159
5883.75788,0.13740
5885.68635,0.16598
5887.61482,0.16707
5889.54329,0.14678
5891.47175,0.13144
5893.40022,0.11469
5895.32869,0.08070
5897.25716,0.04271
5899.18563,0.04478
5901.11410,0.07750
5903.04257,0.07713
5904.97103,0.04502
5906.89950,0.04450
5908.82797,0.08014
5910.75644,0.09845
5912.68491,0.08979
5914.61338,0.08594
5916.54185,0.10772
5918.47032,0.13777
5920.39878,0.12651
5922.32725,0.06732
5924.25572,0.02253
5926.18419,0.03066
5928.11266,0.04686
5930.04113,0.05398
5931.96960,0.08096
5933.89806,0.09497
5935.82653,0.08222
5937.75500,0.08413
5939.68347,0.08877
5941.61194,0.06349
5943.54041,0.02695
5945.46888,0.02401
5947.39734,0.05403
5949.32581,0.08548
5951.25428,0.10836
5953.18275,0.12396
5955.11122,0.11988
5957.03969,0.10844
5958.96816,0.12285
5960.89663,0.14353
5962.82509,0.14905
5964.75356,0.17294
5966.68203,0.20206
5968.61050,0.17924
5970.53897,0.12945
5972.46744,0.10490
5974.39591,0.08697
5976.32437,0.06843
5978.25284,0.08604
5980.18131,0.13575
5982.10978,0.16331
5984.03825,0.15501
5985.96672,0.14419
5987.89519,0.13281
5989.82366,0.10599
5991.75212,0.07092
5993.68059,0.04626
5995.60906,0.02024
5997.53753,-0.02462
5999.46600,-0.03327
6001.39447,0.03792
6003.32294,0.12951
6005.25140,0.15193
6007.17987,0.12009
6009.10834,0.09218
6011.03681,0.07326
6012.96528,0.07476
6014.89375,0.09903
6016.82222,0.10271
6018.75069,0.06175
6020.67915,0.03095
6022.60762,0.05468
6024.53609,0.08542
6026.46456,0.07879
6028.39303,0.06129
6030.32150,0.07428
6032.24997,0.07906
6034.17843,0.05468
6036.10690,0.06424
6038.03537,0.08699
6039.96384,0.08018
6041.89231,0.06706
6043.82078,0.05267
6045.74925,0.05420
6047.67772,0.07945
6049.60618,0.09770
6051.53465,0.11317
6053.46312,0.13836
6055.39159,0.15612
6057.32006,0.16470
6059.24853,0.14580
6061.17700,0.10754
6063.10546,0.11060
6065.03393,0.13093
6066.96240,0.11233
6068.89087,0.06589
6070.81934,0.01733
6072.74781,0.00549
6074.67628,0.04669
6076.60475,0.07049
6078.53321,0.05902
6080.46168,0.07183
6082.39015,0.09124
6084.31862,0.08477
6086.24709,0.06655
6088.17556,0.04594
6090.10403,0.03615
6092.03249,0.05390
6093.96096,0.08594
6095.88943,0.11997
6097.81790,0.14873
6099.74637,0.12755
6101.67484,0.07395
6103.60331,0.06499
6105.53177,0.08889
6107.46024,0.10319
6109.38871,0.12120
6111.31718,0.15897
6113.24565,0.18732
6115.17412,0.18185
6117.10259,0.14713
6119.03106,0.09769
6120.95952,0.06917
6122.88799,0.06079
6124.81646,0.05829
6126.74493,0.09566
6128.67340,0.18558
6130.60187,0.26152
6132.53034,0.23853
6134.45880,0.14805
6136.38727,0.09371
6138.31574,0.08704
6140.24421,0.08331
6142.17268,0.06611
6144.10115,0.04355
6146.02962,0.05184
6147.95809,0.07846
6149.88655,0.05111
6151.81502,-0.00712
6153.74349,-0.00240
6155.67196,0.04619
6157.60043,0.07540
6159.52890,0.07783
6161.45737,0.09453
6163.38583,0.14667
6165.31430,0.17679
6167.24277,0.14267
6169.17124,0.09434
6171.09971,0.07576
6173.02818,0.06874
6174.95665,0.07450
6176.88512,0.10537
6178.81358,0.15151
6180.74205,0.18644
6182.67052,0.19681
6184.59899,0.22480
6186.52746,0.26075
6188.45593,0.24173
6190.38440,0.18709
6192.31286,0.13576
6194.24133,0.08090
6196.16980,0.02623
6198.09827,-0.00710
6200.02674,0.00748
6201.95521,0.06285
6203.88368,0.11101
6205.81215,0.13686
6207.74061,0.16857
6209.66908,0.17650
6211.59755,0.11292
6213.52602,0.04070
6215.45449,0.01963
6217.38296,0.05319
6219.31143,0.11960
6221.23989,0.16965
6223.16836,0.17378
6225.09683,0.12951
6227.02530,0.06566
6228.95377,0.01662
6230.88224,-0.01361
6232.81071,-0.01909
6234.73918,-0.00407
6236.66764,0.04102
6238.59611,0.11321
6240.52458,0.15829
6242.45305,0.18170
6244.38152,0.20434
6246.30999,0.18556
6248.23846,0.16110
6250.16692,0.16680
6252.09539,0.15133
6254.02386,0.10245
6255.95233,0.05442
6257.88080,0.05488
6259.80927,0.08830
6261.73774,0.08801
6263.66621,0.05339
6265.59467,0.01813
6267.52314,0.00490
6269.45161,0.00675
6271.38008,-0.00723
6273.30855,-0.01557
6275.23702,0.02063
6277.16549,0.05942
6279.09395,0.07861
6281.02242,0.09536
6282.95089,0.09336
6284.87936,0.07576
6286.80783,0.06510
6288.73630,0.08697
6290.66477,0.13598
6292.59323,0.14661
6294.52170,0.11335
6296.45017,0.09271
6298.37864,0.10692
6300.30711,0.13813
6302.23558,0.14679
6304.16405,0.14071
6306.09252,0.15430
6308.02098,0.15980
6309.94945,0.13395
6311.87792,0.10025
6313.80639,0.08054
6315.73486,0.08647
6317.66333,0.09990
6319.59180,0.04814
6321.52026,-0.03629
6323.44873,-0.02778
6325.37720,0.03280
6327.30567,0.08748
6329.23414,0.15167
6331.16261,0.18803
6333.09108,0.18084
6335.01955,0.14921
6336.94801,0.08919
6338.87648,0.03124
6340.80495,0.04332
6342.73342,0.12520
6344.66189,0.18742
6346.59036,0.13617
6348.51883,0.00899
6350.44729,-0.06467
6352.37576,-0.04117
6354.30423,0.00993
6356.23270,0.04913
6358.16117,0.09382
6360.08964,0.12050
6362.01811,0.09421
6363.94658,0.03055
6365.87504,-0.03853
6367.80351,-0.04445
6369.73198,0.02066
6371.66045,0.07770
6373.58892,0.11836
6375.51739,0.15302
6377.44586,0.12848
6379.37432,0.07908
6381.30279,0.09232
6383.23126,0.13494
6385.15973,0.10700
6387.08820,0.02796
6389.01667,-0.02328
6390.94514,-0.02659
6392.87361,0.00409
6394.80207,0.08801
6396.73054,0.17980
6398.65901,0.20721
6400.58748,0.17813
6402.51595,0.12030
6404.44442,0.07777
6406.37289,0.07427
6408.30135,0.05757
6410.22982,0.04762
6412.15829,0.06142
6414.08676,0.04772
6416.01523,0.03289
6417.94370,0.06140
6419.87217,0.09969
6421.80064,0.07693
6423.72910,0.00161
6425.65757,-0.05279
6427.58604,-0.01595
6429.51451,0.07404
6431.44298,0.07637
6433.37145,0.03379
6435.29992,0.08197
6437.22838,0.13468
6439.15685,0.10507
6441.08532,0.06948
6443.01379,0.04090
6444.94226,0.01492
6446.87073,0.05109
6448.79920,0.10324
6450.72766,0.08963
6452.65613,0.08498
6454.58460,0.13964
6456.51307,0.17604
6458.44154,0.16140
6460.37001,0.13280
6462.29848,0.11275
6464.22695,0.09258
6466.15541,0.08939
6468.08388,0.13544
6470.01235,0.18248
6471.94082,0.18400
6473.86929,0.15305
6475.79776,0.09790
6477.72623,0.07633
6479.65469,0.13103
6481.58316,0.18083
6483.51163,0.16205
6485.44010,0.11050
6487.36857,0.08045
6489.29704,0.09134
6491.22551,0.08316
6493.15398,0.05272
6495.08244,0.07734
6497.01091,0.12207
6498.93938,0.14556
6500.86785,0.18215
6502.79632,0.20761
6504.72479,0.19176
6506.65326,0.17315
6508.58172,0.11890
6510.51019,0.02044
6512.43866,-0.03105
6514.36713,-0.03380
6516.29560,-0.02787
6518.22407,-0.00927
6520.15254,0.00744
6522.08101,0.00777
6524.00947,0.00035
6525.93794,0.00007
6527.86641,0.02785
6529.79488,0.09033
6531.72335,0.12650
6533.65182,0.12890
6535.58029,0.20069
6537.50875,0.29628
6539.43722,0.26339
6541.36569,0.12467
6543.29416,-0.00732
6545.22263,-0.02875
6547.15110,0.05310
6549.07957,0.09299
6551.00804,0.04231
6552.93650,0.00603
6554.86497,0.02068
6556.79344,0.07889
6558.72191,0.13065
6560.65038,0.09436
6562.57885,0.00904
6564.50732,-0.05356
6566.43578,-0.09418
6568.36425,-0.12549
6570.29272,-0.12051
6572.22119,-0.06415
6574.14966,-0.00197
6576.07813,0.03105
6578.00660,0.02593
6579.93507,0.00119
6581.86353,-0.00775
6583.79200,-0.01230
6585.72047,-0.03554
6587.64894,-0.05029
6589.57741,-0.00414
6591.50588,0.06904
6593.43435,0.08046
6595.36281,0.04869
6597.29128,0.05458
6599.21975,0.08519
6601.14822,0.05872
6603.07669,-0.02188
6605.00516,-0.05662
6606.93363,-0.04104
6608.86210,-0.02027
6610.79056,0.00388
6612.71903,0.03986
6614.64750,0.08501
6616.57597,0.14310
6618.50444,0.19315
6620.43291,0.16851
6622.36138,0.05813
6624.28984,-0.04473
6626.21831,-0.07379
6628.14678,-0.03706
6630.07525,0.01670
6632.00372,0.00189
6633.93219,-0.06360
6635.86066,-0.07658
6637.78912,0.01535
6639.71759,0.12777
6641.64606,0.14825
6643.57453,0.10812
6645.50300,0.13658
6647.43147,0.22203
6649.35994,0.25402
6651.28841,0.22989
6653.21687,0.19756
6655.14534,0.16328
6657.07381,0.16407
6659.00228,0.20459
6660.93075,0.19995
6662.85922,0.14690
6664.78769,0.09537
6666.71615,0.08573
6668.64462,0.09477
6670.57309,0.05997
6672.50156,0.03135
6674.43003,0.08714
6676.35850,0.17068
6678.28697,0.21335
6680.21544,0.24041
6682.14390,0.25819
6684.07237,0.22694
6686.00084,0.17084
6687.92931,0.11908
6689.85778,0.11609
6691.78625,0.17814
6693.71472,0.22227
6695.64318,0.22130
6697.57165,0.16356
6699.50012,0.04821
6701.42859,-0.02073
6703.35706,0.01519
6705.28553,0.11333
6707.21400,0.19460
6709.14247,0.16992
6711.07093,0.08341
6712.99940,0.02086
6714.92787,-0.00137
6716.85634,0.02941
6718.78481,0.10572
6720.71328,0.16242
6722.64175,0.16772
6724.57021,0.16788
6726.49868,0.18262
6728.42715,0.17364
6730.35562,0.11964
6732.28409,0.06552
6734.21256,0.02738
6736.14103,-0.02010
6738.06950,-0.05640
6739.99796,-0.04920
6741.92643,0.03047
6743.85490,0.10457
6745.78337,0.07181
6747.71184,0.02095
6749.64031,0.04565
6751.56878,0.06245
6753.49724,0.02436
6755.42571,0.02451
6757.35418,0.08737
6759.28265,0.09304
6761.21112,0.04958
6763.13959,0.09488
6765.06806,0.15596
6766.99653,0.15303
6768.92499,0.10669
6770.85346,0.03334
6772.78193,-0.00399
6774.71040,-0.01971
6776.63887,-0.04848
6778.56734,-0.01931
6780.49581,0.05554
6782.42427,0.11454
6784.35274,0.11976
6786.28121,0.07179
6788.20968,0.02268
6790.13815,-0.00192
6792.06662,-0.00364
6793.99509,0.00971
6795.92355,0.02626
6797.85202,0.03875
6799.78049,0.04864
6801.70896,0.06595
6803.63743,0.11379
6805.56590,0.16583
6807.49437,0.18813
6809.42284,0.18273
6811.35130,0.11457
6813.27977,0.02631
6815.20824,0.00343
6817.13671,0.01375
6819.06518,-0.00694
6820.99365,-0.02510
6822.92212,0.05990
6824.85058,0.19252
6826.77905,0.23933
6828.70752,0.20654
6830.63599,0.13892
6832.56446,0.06602
6834.49293,-0.00136
6836.42140,-0.04490
6838.34987,-0.01079
6840.27833,0.09021
6842.20680,0.15852
6844.13527,0.13696
6846.06374,0.07593
6847.99221,0.08437
6849.92068,0.13454
6851.84915,0.07931
6853.77761,-0.02571
6855.70608,-0.05104
6857.63455,0.04332
6859.56302,0.17163
6861.49149,0.20028
6863.41996,0.14428
6865.34843,0.14328
6867.27690,0.12518
6869.20536,0.03701
6871.13383,0.02395
6873.06230,0.10943
6874.99077,0.17359
6876.91924,0.19367
6878.84771,0.15954
6880.77618,0.08778
6882.70464,0.10344
6884.63311,0.18396
6886.56158,0.22464
6888.49005,0.21306
6890.41852,0.16485
6892.34699,0.08402
6894.27546,-0.01228
6896.20393,-0.06630
6898.13239,-0.05720
6900.06086,-0.05558
6901.98933,-0.03615
6903.91780,0.04178
6905.84627,0.15342
6907.77474,0.25853
6909.70321,0.26840
6911.63167,0.15821
6913.56014,0.05603
6915.48861,0.06523
6917.41708,0.09369
6919.34555,0.07988
6921.27402,0.09186
6923.20249,0.10316
6925.13096,0.08574
6927.05942,0.08528
6928.98789,0.08080
6930.91636,0.00935
6932.84483,-0.06911
6934.77330,-0.05768
6936.70177,0.00352
6938.63024,0.10100
6940.55870,0.25589
6942.48717,0.34833
6944.41564,0.31968
6946.34411,0.23377
6948.27258,0.07957
6950.20105,-0.07963
6952.12952,-0.08755
6954.05799,-0.01271
6955.98645,0.00258
6957.91492,0.00287
6959.84339,-0.00092
6961.77186,0.00444
6963.70033,0.07274
6965.62880,0.15207
6967.55727,0.17681
6969.48573,0.15730
6971.41420,0.08808
6973.34267,-0.04586
6975.27114,-0.15302
6977.19961,-0.13532
6979.12808,-0.02816
6981.05655,0.02543
6982.98501,-0.01507
6984.91348,-0.00209
6986.84195,0.07116
6988.77042,0.07308
6990.69889,-0.00587
6992.62736,-0.09576
6994.55583,-0.15323
6996.48430,-0.12709
6998.41276,-0.03286
7000.34123,0.04725
7002.26970,0.10750
7004.19817,0.10210
7006.12664,0.01916
7008.05511,-0.01787
7009.98358,0.02726
7011.91204,0.08774
7013.84051,0.15905
7015.76898,0.20863
7017.69745,0.22684
7019.62592,0.23631
7021.55439,0.19754
7023.48286,0.17319
7025.41133,0.19373
7027.33979,0.09478
7029.26826,-0.04910
7031.19673,0.02382
7033.12520,0.18389
7035.05367,0.23951
7036.98214,0.21928
7038.91061,0.18246
7040.83907,0.17877
7042.76754,0.16459
7044.69601,0.00608
7046.62448,-0.11635
7048.55295,-0.04907
7050.48142,0.10295
7052.40989,0.26098
7054.33836,0.34433
7056.26682,0.32558
7058.19529,0.24704
7060.12376,0.16370
7062.05223,0.13007
7063.98070,0.11459
7065.90917,0.07760
7067.83764,0.07442
7069.76610,0.12269
7071.69457,0.11709
7073.62304,0.07257
7075.55151,0.06048
7077.47998,0.03986
7079.40845,0.02174
7081.33692,-0.00633
7083.26539,-0.08186
7085.19385,-0.11429
7087.12232,-0.04503
7089.05079,0.05266
7090.97926,0.06550
7092.90773,0.03504
7094.83620,-0.00839
7096.76467,-0.07977
7098.69313,-0.06899
7100.62160,0.05371
7102.55007,0.14123
7104.47854,0.12101
7106.40701,0.03797
7108.33548,-0.02976
7110.26395,-0.03942
7112.19242,-0.01367
7114.12088,-0.01393
7116.04935,-0.02200
7117.97782,-0.00669
7119.90629,-0.01070
7121.83476,-0.04413
7123.76323,-0.06840
7125.69170,-0.05705
7127.62016,0.00195
7129.54863,0.08266
7131.47710,0.12478
7133.40557,0.07547
7135.33404,-0.04151
7137.26251,-0.16780
7139.19098,-0.20785
7141.11944,-0.00403
7143.04791,0.26380
7144.97638,0.26766
7146.90485,0.17849
7148.83332,0.24709
7150.76179,0.36587
7152.69026,0.38587
7154.61873,0.24198
7156.54719,0.08011
7158.47566,-0.00537
7160.40413,-0.07278
7162.33260,-0.14463
7164.26107,-0.16541
7166.18954,-0.08574
7168.11801,0.00032
7170.04647,0.02726
7171.97494,0.08177
7173.90341,0.11222
7175.83188,0.04116
7177.76035,-0.02351
7179.68882,-0.03029
7181.61729,-0.01963
7183.54576,0.07982
7185.47422,0.14840
7187.40269,0.05088
7189.33116,-0.01022
7191.25963,0.12455
7193.18810,0.29027
7195.11657,0.33912
7197.04504,0.28084
7198.97350,0.12319
7200.90197,0.00726
7202.83044,0.06522
7204.75891,0.16032
7206.68738,0.11269
7208.61585,0.01648
7210.54432,-0.08304
7212.47279,-0.15255
7214.40125,-0.15978
7216.32972,-0.06058
7218.25819,0.13481
7220.18666,0.22611
7222.11513,0.16321
7224.04360,0.06992
7225.97207,0.02147
7227.90053,-0.01225
7229.82900,0.03806
7231.75747,0.21075
7233.68594,0.27600
7235.61441,0.18859
7237.54288,0.07142
7239.47135,-0.00081
7241.39982,-0.03987
7243.32828,-0.07052
7245.25675,-0.05865
7247.18522,0.03054
7249.11369,0.14498
7251.04216,0.15621
7252.97063,0.00611
7254.89910,-0.05839
7256.82756,0.04728
7258.75603,0.18276
7260.68450,0.27310
7262.61297,0.27953
7264.54144,0.28369
7266.46991,0.28419
7268.39838,0.15637
7270.32685,-0.05925
7272.25531,-0.19112
7274.18378,-0.15822
7276.11225,-0.06965
7278.04072,0.02371
7279.96919,0.13047
7281.89766,0.24225
7283.82613,0.31396
7285.75459,0.24051
7287.68306,0.01831
7289.61153,-0.14563
7291.54000,-0.05656
7293.46847,0.05867
7295.39694,-0.00985
7297.32541,-0.06037
7299.25387,0.01043
7301.18234,0.15391
7303.11081,0.27199
7305.03928,0.21632
7306.96775,0.06824
7308.89622,-0.01145
7310.82469,0.01479
7312.75316,0.17302
7314.68162,0.31233
7316.61009,0.21582
7318.53856,0.06287
7320.46703,0.07152
7322.39550,0.13136
7324.32397,0.13651
7326.25244,0.08944
7328.18090,0.03214
7330.10937,0.02199
7332.03784,0.03847
7333.96631,-0.03990
7335.89478,-0.12717
7337.82325,-0.05700
7339.75172,0.28736
7341.68019,0.61641
7343.60865,0.63249
7345.53712,0.52466
7347.46559,0.38960
7349.39406,0.14349
7351.32253,-0.10540
7353.25100,-0.17337
7355.17947,-0.10836
7357.10793,-0.00859
7359.03640,0.03438
7360.96487,-0.05479
7362.89334,-0.16823
7364.82181,-0.10988
7366.75028,0.05962
7368.67875,0.12257
7370.60722,0.08160
7372.53568,0.02575
7374.46415,0.00751
7376.39262,0.06399
7378.32109,0.12002
7380.24956,0.14686
7382.17803,0.12142
7384.10650,0.05441
7386.03496,0.08713
7387.96343,0.29393
7389.89190,0.47879
7391.82037,0.48367
7393.74884,0.34403
7395.67731,0.20569
7397.60578,0.16809
7399.53425,0.16569
7401.46271,0.17719
7403.39118,0.15046
7405.31965,-0.02277
7407.24812,-0.15658
7409.17659,-0.12752
7411.10506,-0.07499
7413.03353,-0.06071
7414.96199,-0.01605
7416.89046,0.02895
7418.81893,0.09579
7420.74740,0.26430
7422.67587,0.28161
7424.60434,0.13468
7426.53281,0.03578
7428.46128,0.03598
7430.38974,0.08651
7432.31821,0.12102
7434.24668,0.10342
7436.17515,0.09164
7438.10362,0.07970
7440.03209,0.07491
7441.96056,0.15349
7443.88902,0.21272
7445.81749,0.16316
7447.74596,0.12289
7449.67443,0.20116
7451.60290,0.17585
7453.53137,-0.03594
7455.45984,-0.10674
7457.38831,-0.03407
7459.31677,0.07223
7461.24524,0.13540
7463.17371,0.11988
7465.10218,0.12975
7467.03065,0.18965
7468.95912,0.13893
7470.88759,-0.02689
7472.81605,-0.10575
7474.74452,-0.06668
7476.67299,-0.00218
7478.60146,0.11385
7480.52993,0.38803
7482.45840,0.68405
7484.38687,0.68523
7486.31533,0.50551
7488.24380,0.49824
7490.17227,0.63980
7492.10074,0.52042
7494.02921,0.21397
7495.95768,0.00849
7497.88615,-0.05311
