399.19301,0.90157
401.12148,-0.25385
403.04995,-0.14228
404.97842,0.17453
406.90689,0.26397
408.83536,0.22092
410.76382,0.11854
412.69229,0.04040
414.62076,0.08240
416.54923,0.15779
418.47770,0.19012
420.40617,0.20001
422.33464,0.16967
424.26311,0.10802
426.19157,0.08465
428.12004,0.11316
430.04851,0.17536
431.97698,0.17668
433.90545,0.08089
435.83392,0.06382
437.76239,0.15194
439.69085,0.24178
441.61932,0.28102
443.54779,0.28090
445.47626,0.26770
447.40473,0.28393
449.33320,0.31279
451.26167,0.27985
453.19013,0.19419
455.11860,0.11815
457.04707,0.07194
458.97554,0.08358
460.90401,0.14666
462.83248,0.17254
464.76095,0.13745
466.68942,0.12019
468.61788,0.12978
470.54635,0.25479
472.47482,0.96661
474.40329,1.77438
476.33176,1.15841
478.26023,0.42181
480.18870,0.17796
482.11716,0.10832
484.04563,0.05369
485.97410,0.05657
487.90257,0.09123
489.83104,0.09928
491.75951,0.09048
493.68798,0.12236
495.61645,0.17992
497.54491,0.19149
499.47338,0.15276
501.40185,0.12715
503.33032,0.12308
505.25879,0.10658
507.18726,0.06651
509.11573,0.02510
511.04419,0.02699
512.97266,0.06721
514.90113,0.09419
516.82960,0.10274
518.75807,0.09703
520.68654,0.05696
522.61501,0.00614
524.54348,-0.01088
526.47194,0.02019
528.40041,0.03442
530.32888,0.02069
532.25735,0.03974
534.18582,0.09752
536.11429,0.14656
538.04276,0.15124
539.97122,0.11337
541.89969,0.07302
543.82816,0.07396
545.75663,0.09779
547.68510,0.11562
549.61357,0.23088
551.54204,0.77362
553.47051,1.39300
555.39897,1.17883
557.32744,0.43591
559.25591,0.08440
561.18438,0.03843
563.11285,0.03650
565.04132,0.04802
566.96979,0.06443
568.89825,0.07173
570.82672,0.07179
572.75519,0.06470
574.68366,0.06013
576.61213,0.08927
578.54060,0.12408
580.46907,0.12888
582.39754,0.10184
584.32600,0.05831
586.25447,0.03684
588.18294,0.06022
590.11141,0.09502
592.03988,0.10734
593.96835,0.09764
595.89682,0.08129
597.82528,0.07308
599.75375,0.08888
601.68222,0.12373
603.61069,0.13625
605.53916,0.11798
607.46763,0.10757
609.39610,0.11456
611.32456,0.10796
613.25303,0.08526
615.18150,0.08396
617.10997,0.10852
619.03844,0.12251
620.96691,0.12639
622.89538,0.13828
624.82385,0.14439
626.75231,0.13465
628.68078,0.12468
630.60925,0.17438
632.53772,0.25777
634.46619,0.23687
636.39466,0.15282
638.32313,0.12470
640.25159,0.13361
642.18006,0.13567
644.10853,0.12411
646.03700,0.10484
647.96547,0.09562
649.89394,0.09912
651.82241,0.09683
653.75088,0.09784
655.67934,0.11664
657.60781,0.12646
659.53628,0.11436
661.46475,0.09339
663.39322,0.07844
665.32169,0.07791
667.25016,0.08839
669.17862,0.11572
671.10709,0.13988
673.03556,0.14409
674.96403,0.14104
676.89250,0.14799
678.82097,0.16171
680.74944,0.16980
682.67791,0.16613
684.60637,0.15779
686.53484,0.16131
688.46331,0.16662
690.39178,0.15992
692.32025,0.15061
694.24872,0.14308
696.17719,0.13027
698.10565,0.11312
700.03412,0.10935
701.96259,0.12497
703.89106,0.14398
705.81953,0.15169
707.74800,0.15061
709.67647,0.15539
711.60494,0.15652
713.53340,0.14264
715.46187,0.13655
717.39034,0.13877
719.31881,0.13559
721.24728,0.13220
723.17575,0.11848
725.10422,0.09608
727.03268,0.09423
728.96115,0.11975
730.88962,0.15089
732.81809,0.16392
734.74656,0.15932
736.67503,0.15939
738.60350,0.16224
740.53197,0.15643
742.46043,0.15424
744.38890,0.16031
746.31737,0.15816
748.24584,0.14517
750.17431,0.13762
752.10278,0.13995
754.03125,0.14422
755.95971,0.14789
757.88818,0.15373
759.81665,0.15692
761.74512,0.15166
763.67359,0.14449
765.60206,0.14336
767.53053,0.14745
769.45900,0.15038
771.38746,0.14991
773.31593,0.14696
775.24440,0.14157
777.17287,0.13717
779.10134,0.13317
781.02981,0.12106
782.95828,0.10902
784.88674,0.12045
786.81521,0.14697
788.74368,0.15288
790.67215,0.13665
792.60062,0.12657
794.52909,0.12746
796.45756,0.13348
798.38602,0.14725
800.31449,0.15639
802.24296,0.15085
804.17143,0.14425
806.09990,0.14928
808.02837,0.15724
809.95684,0.15488
811.88531,0.14601
813.81377,0.14483
815.74224,0.14771
817.67071,0.13932
819.59918,0.13065
821.52765,0.13352
823.45612,0.13609
825.38459,0.13570
827.31305,0.13982
829.24152,0.14429
831.16999,0.14891
833.09846,0.15309
835.02693,0.15203
836.95540,0.15890
838.88387,0.17170
840.81234,0.16916
842.74080,0.15005
844.66927,0.12998
846.59774,0.13013
848.52621,0.14877
850.45468,0.15888
852.38315,0.15611
854.31162,0.15399
856.24008,0.15559
858.16855,0.15777
860.09702,0.15403
862.02549,0.14953
863.95396,0.15571
865.88243,0.16408
867.81090,0.16033
869.73937,0.14531
871.66783,0.13408
873.59630,0.13747
875.52477,0.14412
877.45324,0.14384
879.38171,0.14647
881.31018,0.15566
883.23865,0.16152
885.16711,0.15974
887.09558,0.15188
889.02405,0.14363
890.95252,0.14651
892.88099,0.15709
894.80946,0.15987
896.73793,0.15361
898.66640,0.14924
900.59486,0.15436
902.52333,0.16139
904.45180,0.16347
906.38027,0.16881
908.30874,0.17521
910.23721,0.17210
912.16568,0.16377
914.09414,0.15825
916.02261,0.15631
917.95108,0.16158
919.87955,0.16831
921.80802,0.16156
923.73649,0.15142
925.66496,0.15568
927.59343,0.16293
929.52189,0.16236
931.45036,0.16589
933.37883,0.17630
935.30730,0.18001
937.23577,0.17146
939.16424,0.16186
941.09271,0.16054
943.02117,0.16264
944.94964,0.16526
946.87811,0.16836
948.80658,0.16456
950.73505,0.15421
952.66352,0.14883
954.59199,0.15009
956.52045,0.14943
958.44892,0.14564
960.37739,0.14464
962.30586,0.14812
964.23433,0.15137
966.16280,0.15372
968.09127,0.15587
970.01974,0.15620
971.94820,0.15722
973.87667,0.16085
975.80514,0.16369
977.73361,0.16069
979.66208,0.15582
981.59055,0.15663
983.51902,0.15978
985.44748,0.16015
987.37595,0.15567
989.30442,0.14787
991.23289,0.14398
993.16136,0.14537
995.08983,0.14628
997.01830,0.14732
998.94677,0.15460
1000.87523,0.16580
1002.80370,0.17152
1004.73217,0.16914
1006.66064,0.16223
1008.58911,0.15548
1010.51758,0.15198
1012.44605,0.14955
1014.37451,0.14778
1016.30298,0.15048
1018.23145,0.15859
1020.15992,0.16707
1022.08839,0.17107
1024.01686,0.16480
1025.94533,0.15786
1027.87380,0.17006
1029.80226,0.17486
1031.73073,0.15645
1033.65920,0.15408
1035.58767,0.16779
1037.51614,0.16962
1039.44461,0.16486
1041.37308,0.16414
1043.30154,0.16645
1045.23001,0.17333
1047.15848,0.17919
1049.08695,0.17612
1051.01542,0.17155
1052.94389,0.16807
1054.87236,0.16363
1056.80083,0.15942
1058.72929,0.15054
1060.65776,0.14231
1062.58623,0.14780
1064.51470,0.16403
1066.44317,0.17857
1068.37164,0.18368
1070.30011,0.17950
1072.22857,0.17399
1074.15704,0.17122
1076.08551,0.16818
1078.01398,0.16660
1079.94245,0.16914
1081.87092,0.16921
1083.79939,0.16557
1085.72786,0.16473
1087.65632,0.16539
1089.58479,0.16347
1091.51326,0.16045
1093.44173,0.16247
1095.37020,0.16897
1097.29867,0.17069
1099.22714,0.16451
1101.15560,0.15787
1103.08407,0.15859
1105.01254,0.16565
1106.94101,0.17385
1108.86948,0.17857
1110.79795,0.17726
1112.72642,0.17254
1114.65489,0.17091
1116.58335,0.17457
1118.51182,0.17727
1120.44029,0.17792
1122.36876,0.18016
1124.29723,0.18155
1126.22570,0.18087
1128.15417,0.17615
1130.08263,0.16663
1132.01110,0.15943
1133.93957,0.15576
1135.86804,0.15437
1137.79651,0.15857
1139.72498,0.16559
1141.65345,0.16612
1143.58191,0.15944
1145.51038,0.15778
1147.43885,0.16625
1149.36732,0.17778
1151.29579,0.18411
1153.22426,0.18323
1155.15273,0.17977
1157.08120,0.17484
1159.00966,0.16985
1160.93813,0.17109
1162.86660,0.17680
1164.79507,0.17873
1166.72354,0.17656
1168.65201,0.17477
1170.58048,0.17421
1172.50894,0.17505
1174.43741,0.17701
1176.36588,0.17661
1178.29435,0.17375
1180.22282,0.17123
1182.15129,0.16900
1184.07976,0.16738
1186.00823,0.16666
1187.93669,0.16833
1189.86516,0.17164
1191.79363,0.17201
1193.72210,0.17056
1195.65057,0.16955
1197.57904,0.16955
1199.50751,0.16895
1201.43597,0.16660
1203.36444,0.16925
1205.29291,0.17728
1207.22138,0.18055
1209.14985,0.17579
1211.07832,0.16989
1213.00679,0.16723
1214.93526,0.16776
1216.86372,0.17301
1218.79219,0.17841
1220.72066,0.17791
1222.64913,0.17462
1224.57760,0.17394
1226.50607,0.17683
1228.43454,0.17920
1230.36300,0.17834
1232.29147,0.17775
1234.21994,0.17941
1236.14841,0.18049
1238.07688,0.17877
1240.00535,0.17500
1241.93382,0.17192
1243.86229,0.16984
1245.79075,0.16822
1247.71922,0.16907
1249.64769,0.17279
1251.57616,0.17770
1253.50463,0.17942
1255.43310,0.17451
1257.36157,0.16969
1259.29003,0.17305
1261.21850,0.17952
1263.14697,0.18075
1265.07544,0.17918
1267.00391,0.17852
1268.93238,0.17809
1270.86085,0.17940
1272.78932,0.18176
1274.71778,0.18188
1276.64625,0.18277
1278.57472,0.18583
1280.50319,0.18424
1282.43166,0.18043
1284.36013,0.18234
1286.28860,0.18481
1288.21706,0.18258
1290.14553,0.17831
1292.07400,0.17500
1294.00247,0.17565
1295.93094,0.17912
1297.85941,0.18146
1299.78788,0.18000
1301.71634,0.17334
1303.64481,0.16568
1305.57328,0.16441
1307.50175,0.17021
1309.43022,0.17655
1311.35869,0.18090
1313.28716,0.18467
1315.21563,0.18763
1317.14409,0.18970
1319.07256,0.18804
1321.00103,0.18281
1322.92950,0.17950
1324.85797,0.17685
1326.78644,0.17297
1328.71491,0.17094
1330.64337,0.17013
1332.57184,0.17103
1334.50031,0.17570
1336.42878,0.18011
1338.35725,0.18103
1340.28572,0.17833
1342.21419,0.17433
1344.14266,0.17202
1346.07112,0.17031
1347.99959,0.16984
1349.92806,0.17228
1351.85653,0.17606
1353.78500,0.17952
1355.71347,0.18117
1357.64194,0.18082
1359.57040,0.18032
1361.49887,0.18049
1363.42734,0.18154
1365.35581,0.18393
1367.28428,0.18616
1369.21275,0.18638
1371.14122,0.18555
1373.06969,0.18648
1374.99815,0.19012
1376.92662,0.19245
1378.85509,0.19260
1380.78356,0.19289
1382.71203,0.19257
1384.64050,0.19408
1386.56897,0.19840
1388.49743,0.19716
1390.42590,0.19156
1392.35437,0.18894
1394.28284,0.18938
1396.21131,0.19243
1398.13978,0.19566
1400.06825,0.19617
1401.99672,0.19454
1403.92518,0.19138
1405.85365,0.18891
1407.78212,0.18868
1409.71059,0.18876
1411.63906,0.18896
1413.56753,0.18888
1415.49600,0.18959
1417.42446,0.19642
1419.35293,0.20460
1421.28140,0.20132
1423.20987,0.19402
1425.13834,0.19164
1427.06681,0.19555
1428.99528,0.20061
1430.92375,0.20100
1432.85221,0.19955
1434.78068,0.20077
1436.70915,0.19935
1438.63762,0.19259
1440.56609,0.18898
1442.49456,0.18905
1444.42303,0.19007
1446.35149,0.19261
1448.27996,0.19634
1450.20843,0.19795
1452.13690,0.19882
1454.06537,0.20367
1455.99384,0.21452
1457.92231,0.21991
1459.85077,0.21335
1461.77924,0.20955
1463.70771,0.20808
1465.63618,0.20391
1467.56465,0.20028
1469.49312,0.20246
1471.42159,0.21084
1473.35006,0.21592
1475.27852,0.20862
1477.20699,0.20150
1479.13546,0.19948
1481.06393,0.19867
1482.99240,0.19851
1484.92087,0.20082
1486.84934,0.20428
1488.77780,0.20667
1490.70627,0.20620
1492.63474,0.20388
1494.56321,0.20511
1496.49168,0.21069
1498.42015,0.21113
1500.34862,0.20851
1502.27709,0.21215
1504.20555,0.21893
1506.13402,0.22083
1508.06249,0.21291
1509.99096,0.20667
1511.91943,0.20370
1513.84790,0.20322
1515.77637,0.20308
1517.70483,0.20329
1519.63330,0.21175
1521.56177,0.22417
1523.49024,0.22092
1525.41871,0.21218
1527.34718,0.20803
1529.27565,0.20642
1531.20412,0.20863
1533.13258,0.21324
1535.06105,0.21447
1536.98952,0.21541
1538.91799,0.22042
1540.84646,0.22114
1542.77493,0.21052
1544.70340,0.20174
1546.63186,0.19959
1548.56033,0.20280
1550.48880,0.20590
1552.41727,0.20558
1554.34574,0.20724
1556.27421,0.21762
1558.20268,0.23266
1560.13115,0.21924
1562.05961,0.20224
1563.98808,0.19779
1565.91655,0.19863
1567.84502,0.20330
1569.77349,0.20867
1571.70196,0.20893
1573.63043,0.21038
1575.55889,0.21263
1577.48736,0.20535
1579.41583,0.19531
1581.34430,0.18850
1583.27277,0.18573
1585.20124,0.18753
1587.12971,0.18863
1589.05818,0.18756
1590.98664,0.18876
1592.91511,0.19080
1594.84358,0.18886
1596.77205,0.18359
1598.70052,0.18048
1600.62899,0.18323
1602.55746,0.18982
1604.48592,0.19393
1606.41439,0.19480
1608.34286,0.19687
1610.27133,0.19851
1612.19980,0.19876
1614.12827,0.20117
1616.05674,0.20565
1617.98521,0.20890
1619.91367,0.21021
1621.84214,0.20978
1623.77061,0.20738
1625.69908,0.20790
1627.62755,0.21058
1629.55602,0.20876
1631.48449,0.20618
1633.41295,0.21009
1635.34142,0.21791
1637.26989,0.21620
1639.19836,0.21034
1641.12683,0.20819
1643.05530,0.20999
1644.98377,0.21769
1646.91223,0.22780
1648.84070,0.22555
1650.76917,0.22146
1652.69764,0.22729
1654.62611,0.22865
1656.55458,0.21965
1658.48305,0.21777
1660.41152,0.22638
1662.33998,0.22989
1664.26845,0.21755
1666.19692,0.21037
1668.12539,0.21627
1670.05386,0.22521
1671.98233,0.22459
1673.91080,0.21805
1675.83926,0.21181
1677.76773,0.21078
1679.69620,0.21456
1681.62467,0.22362
1683.55314,0.23491
1685.48161,0.22906
1687.41008,0.21860
1689.33855,0.21520
1691.26701,0.21432
1693.19548,0.21856
1695.12395,0.23021
1697.05242,0.23815
1698.98089,0.23094
1700.90936,0.21580
1702.83783,0.21130
1704.76629,0.21547
1706.69476,0.21631
1708.62323,0.21150
1710.55170,0.20838
1712.48017,0.20911
1714.40864,0.21433
1716.33711,0.22309
1718.26558,0.21837
1720.19404,0.20552
1722.12251,0.20126
1724.05098,0.20112
1725.97945,0.19989
1727.90792,0.20034
1729.83639,0.20485
1731.76486,0.21138
1733.69332,0.21569
1735.62179,0.21427
1737.55026,0.21475
1739.47873,0.21806
1741.40720,0.21658
1743.33567,0.21048
1745.26414,0.20885
1747.19261,0.21489
1749.12107,0.21989
1751.04954,0.21284
1752.97801,0.20170
1754.90648,0.19725
1756.83495,0.19789
1758.76342,0.19962
1760.69189,0.20223
1762.62035,0.20434
1764.54882,0.20459
1766.47729,0.20595
1768.40576,0.21064
1770.33423,0.21893
1772.26270,0.22255
1774.19117,0.21470
1776.11964,0.20841
1778.04810,0.20808
1779.97657,0.20820
1781.90504,0.20618
1783.83351,0.20505
1785.76198,0.20429
1787.69045,0.20295
1789.61892,0.20469
1791.54738,0.21004
1793.47585,0.21260
1795.40432,0.20979
1797.33279,0.20626
1799.26126,0.20571
1801.18973,0.20643
1803.11820,0.20589
1805.04666,0.20565
1806.97513,0.20538
1808.90360,0.20532
1810.83207,0.20506
1812.76054,0.20222
1814.68901,0.20024
1816.61748,0.20460
1818.54595,0.21188
1820.47441,0.21392
1822.40288,0.21158
1824.33135,0.20862
1826.25982,0.20721
1828.18829,0.20906
1830.11676,0.21024
1832.04523,0.20785
1833.97369,0.20530
1835.90216,0.20491
1837.83063,0.20655
1839.75910,0.20921
1841.68757,0.21343
1843.61604,0.21595
1845.54451,0.21192
1847.47298,0.20940
1849.40144,0.21080
1851.32991,0.20944
1853.25838,0.20407
1855.18685,0.19836
1857.11532,0.19662
1859.04379,0.19983
1860.97226,0.20329
1862.90072,0.20404
1864.82919,0.20507
1866.75766,0.20832
1868.68613,0.21033
1870.61460,0.20778
1872.54307,0.20405
1874.47154,0.20300
1876.40001,0.20394
1878.32847,0.20562
1880.25694,0.20751
1882.18541,0.20618
1884.11388,0.20195
1886.04235,0.19998
1887.97082,0.20235
1889.89929,0.20552
1891.82775,0.20551
1893.75622,0.20390
1895.68469,0.20150
1897.61316,0.19938
1899.54163,0.20089
1901.47010,0.20425
1903.39857,0.20480
1905.32704,0.20395
1907.25550,0.20580
1909.18397,0.20815
1911.11244,0.20631
1913.04091,0.20240
1914.96938,0.20162
1916.89785,0.20419
1918.82632,0.20564
1920.75478,0.20522
1922.68325,0.20545
1924.61172,0.20578
1926.54019,0.20589
1928.46866,0.20724
1930.39713,0.20798
1932.32560,0.20602
1934.25407,0.20412
1936.18253,0.20273
1938.11100,0.20167
1940.03947,0.20379
1941.96794,0.20587
1943.89641,0.20343
1945.82488,0.20080
1947.75335,0.20070
1949.68181,0.20077
1951.61028,0.20169
1953.53875,0.20392
1955.46722,0.20509
1957.39569,0.20466
1959.32416,0.20249
1961.25263,0.19924
1963.18110,0.19681
1965.10956,0.19684
1967.03803,0.19923
1968.96650,0.20222
1970.89497,0.20578
1972.82344,0.20781
1974.75191,0.20615
1976.68038,0.20462
1978.60884,0.20426
1980.53731,0.20202
1982.46578,0.19896
1984.39425,0.19732
1986.32272,0.19788
1988.25119,0.20120
1990.17966,0.20610
1992.10812,0.20964
1994.03659,0.20900
1995.96506,0.20581
1997.89353,0.20330
1999.82200,0.20119
2001.75047,0.19972
2003.67894,0.20017
2005.60741,0.20076
2007.53587,0.20051
2009.46434,0.20137
2011.39281,0.20410
2013.32128,0.20714
2015.24975,0.20855
2017.17822,0.20779
2019.10669,0.20552
2021.03515,0.20421
2022.96362,0.20575
2024.89209,0.20780
2026.82056,0.20744
2028.74903,0.20633
2030.67750,0.20700
2032.60597,0.20732
2034.53444,0.20613
2036.46290,0.20452
2038.39137,0.20215
2040.31984,0.20165
2042.24831,0.20375
2044.17678,0.20401
2046.10525,0.20155
2048.03372,0.20122
2049.96218,0.20554
2051.89065,0.20848
2053.81912,0.20578
2055.74759,0.20285
2057.67606,0.20351
2059.60453,0.20466
2061.53300,0.20525
2063.46147,0.20679
2065.38993,0.20786
2067.31840,0.20745
2069.24687,0.20610
2071.17534,0.20427
2073.10381,0.20330
2075.03228,0.20309
2076.96075,0.20206
2078.88921,0.20212
2080.81768,0.20530
2082.74615,0.20904
2084.67462,0.21028
2086.60309,0.20871
2088.53156,0.20694
2090.46003,0.20743
2092.38850,0.20809
2094.31696,0.20677
2096.24543,0.20662
2098.17390,0.20819
2100.10237,0.20726
2102.03084,0.20456
2103.95931,0.20329
2105.88778,0.20244
2107.81624,0.20156
2109.74471,0.20262
2111.67318,0.20416
2113.60165,0.20339
2115.53012,0.20126
2117.45859,0.20048
2119.38706,0.20235
2121.31553,0.20544
2123.24399,0.20735
2125.17246,0.20691
2127.10093,0.20556
2129.02940,0.20577
2130.95787,0.20660
2132.88634,0.20227
2134.81481,0.19068
2136.74327,0.18356
2138.67174,0.19125
2140.60021,0.20418
2142.52868,0.20973
2144.45715,0.20925
2146.38562,0.20753
2148.31409,0.20587
2150.24255,0.20497
2152.17102,0.20363
2154.09949,0.20185
2156.02796,0.20161
2157.95643,0.20240
2159.88490,0.20251
2161.81337,0.20262
2163.74184,0.20362
2165.67030,0.20366
2167.59877,0.20293
2169.52724,0.20410
2171.45571,0.20647
2173.38418,0.20649
2175.31265,0.20408
2177.24112,0.20374
2179.16958,0.20520
2181.09805,0.20404
2183.02652,0.20175
2184.95499,0.20311
2186.88346,0.20711
2188.81193,0.20825
2190.74040,0.20687
2192.66887,0.20698
2194.59733,0.20811
2196.52580,0.20809
2198.45427,0.20637
2200.38274,0.20471
2202.31121,0.20451
2204.23968,0.20415
2206.16815,0.20290
2208.09661,0.20371
2210.02508,0.20601
2211.95355,0.20583
2213.88202,0.20524
2215.81049,0.20645
2217.73896,0.20746
2219.66743,0.20716
2221.59590,0.20537
2223.52436,0.20373
2225.45283,0.20353
2227.38130,0.20370
2229.30977,0.20457
2231.23824,0.20593
2233.16671,0.20532
2235.09518,0.20379
2237.02364,0.20442
2238.95211,0.20649
2240.88058,0.20672
2242.80905,0.20438
2244.73752,0.20330
2246.66599,0.20543
2248.59446,0.20673
2250.52293,0.20516
2252.45139,0.20378
2254.37986,0.20394
2256.30833,0.20458
2258.23680,0.20457
2260.16527,0.20309
2262.09374,0.20168
2264.02221,0.20216
2265.95067,0.20272
2267.87914,0.20096
2269.80761,0.19923
2271.73608,0.20138
2273.66455,0.20411
2275.59302,0.20183
2277.52149,0.19818
2279.44996,0.19913
2281.37842,0.20330
2283.30689,0.20478
2285.23536,0.20090
2287.16383,0.19607
2289.09230,0.19528
2291.02077,0.19728
2292.94924,0.19477
2294.87770,0.18941
2296.80617,0.19080
2298.73464,0.19341
2300.66311,0.19049
2302.59158,0.18908
2304.52005,0.19114
2306.44852,0.19004
2308.37699,0.18379
2310.30545,0.17839
2312.23392,0.17681
2314.16239,0.17382
2316.09086,0.16656
2318.01933,0.16061
2319.94780,0.16036
2321.87627,0.15867
2323.80473,0.14856
2325.73320,0.13762
2327.66167,0.13697
2329.59014,0.14749
2331.51861,0.15681
2333.44708,0.15441
2335.37555,0.14501
2337.30401,0.13565
2339.23248,0.13171
2341.16095,0.13270
2343.08942,0.13159
2345.01789,0.13753
2346.94636,0.15240
2348.87483,0.15816
2350.80330,0.14879
2352.73176,0.12945
2354.66023,0.11396
2356.58870,0.11703
2358.51717,0.13299
2360.44564,0.13610
2362.37411,0.12254
2364.30258,0.11224
2366.23104,0.11508
2368.15951,0.12095
2370.08798,0.12815
2372.01645,0.14538
2373.94492,0.16436
2375.87339,0.17489
2377.80186,0.18194
2379.73033,0.18862
2381.65879,0.19082
2383.58726,0.19145
2385.51573,0.19577
2387.44420,0.20104
2389.37267,0.20346
2391.30114,0.20426
2393.22961,0.20652
2395.15807,0.20955
2397.08654,0.21017
2399.01501,0.20898
2400.94348,0.20807
2402.87195,0.20703
2404.80042,0.20609
2406.72889,0.20622
2408.65736,0.20595
2410.58582,0.20525
2412.51429,0.20607
2414.44276,0.20711
2416.37123,0.20655
2418.29970,0.20570
2420.22817,0.20596
2422.15664,0.20682
2424.08510,0.20678
2426.01357,0.20550
2427.94204,0.20505
2429.87051,0.20635
2431.79898,0.20734
2433.72745,0.20646
2435.65592,0.20515
2437.58439,0.20552
2439.51285,0.20642
2441.44132,0.20690
2443.36979,0.20832
2445.29826,0.21054
2447.22673,0.21265
2449.15520,0.21297
2451.08367,0.20937
2453.01213,0.20540
2454.94060,0.20617
2456.86907,0.20966
2458.79754,0.21145
2460.72601,0.21083
2462.65448,0.21032
2464.58295,0.21056
2466.51142,0.21001
2468.43988,0.20881
2470.36835,0.20701
2472.29682,0.20518
2474.22529,0.20477
2476.15376,0.20560
2478.08223,0.20627
2480.01070,0.20586
2481.93916,0.20577
2483.86763,0.20766
2485.79610,0.21003
2487.72457,0.21205
2489.65304,0.21383
2491.58151,0.21234
2493.50998,0.20816
2495.43844,0.20705
2497.36691,0.20984
2499.29538,0.21283
2501.22385,0.21345
2503.15232,0.21121
2505.08079,0.20840
2507.00926,0.20699
2508.93773,0.20637
2510.86619,0.20642
2512.79466,0.20772
2514.72313,0.21019
2516.65160,0.21241
2518.58007,0.21338
2520.50854,0.21353
2522.43701,0.21317
2524.36547,0.21242
2526.29394,0.21088
2528.22241,0.20951
2530.15088,0.20971
2532.07935,0.20970
2534.00782,0.20773
2535.93629,0.20634
2537.86476,0.20750
2539.79322,0.20727
2541.72169,0.20465
2543.65016,0.20496
2545.57863,0.20821
2547.50710,0.20972
2549.43557,0.20903
2551.36404,0.20878
2553.29250,0.21022
2555.22097,0.21085
2557.14944,0.20925
2559.07791,0.20817
2561.00638,0.20825
2562.93485,0.20852
2564.86332,0.20989
2566.79179,0.21184
2568.72025,0.21245
2570.64872,0.21202
2572.57719,0.21187
2574.50566,0.21056
2576.43413,0.20881
2578.36260,0.20996
2580.29107,0.21181
2582.21953,0.21179
2584.14800,0.21161
2586.07647,0.21175
2588.00494,0.21277
2589.93341,0.21349
2591.86188,0.21102
2593.79035,0.20893
2595.71882,0.20960
2597.64728,0.20983
2599.57575,0.21056
2601.50422,0.21341
2603.43269,0.21572
2605.36116,0.21611
2607.28963,0.21635
2609.21810,0.21761
2611.14656,0.21807
2613.07503,0.21542
2615.00350,0.21127
2616.93197,0.20898
2618.86044,0.20884
2620.78891,0.20973
2622.71738,0.21025
2624.64585,0.20903
2626.57431,0.20825
2628.50278,0.21063
2630.43125,0.21485
2632.35972,0.21805
2634.28819,0.21718
2636.21666,0.21259
2638.14513,0.20959
2640.07359,0.21053
2642.00206,0.21288
2643.93053,0.21419
2645.85900,0.21315
2647.78747,0.20990
2649.71594,0.20900
2651.64441,0.21186
2653.57288,0.21397
2655.50134,0.21590
2657.42981,0.21766
2659.35828,0.21607
2661.28675,0.21300
2663.21522,0.21096
2665.14369,0.21095
2667.07216,0.21352
2669.00062,0.21646
2670.92909,0.21701
2672.85756,0.21637
2674.78603,0.21648
2676.71450,0.21598
2678.64297,0.21404
2680.57144,0.21250
2682.49990,0.21272
2684.42837,0.21421
2686.35684,0.21624
2688.28531,0.21827
2690.21378,0.21864
2692.14225,0.21807
2694.07072,0.21867
2695.99919,0.21821
2697.92765,0.21638
2699.85612,0.21651
2701.78459,0.21808
2703.71306,0.21927
2705.64153,0.21927
2707.57000,0.21768
2709.49847,0.21694
2711.42693,0.21796
2713.35540,0.21682
2715.28387,0.21499
2717.21234,0.21659
2719.14081,0.21865
2721.06928,0.21986
2722.99775,0.22066
2724.92622,0.21889
2726.85468,0.21668
2728.78315,0.21846
2730.71162,0.22303
2732.64009,0.22664
2734.56856,0.22790
2736.49703,0.22518
2738.42550,0.22090
2740.35396,0.22084
2742.28243,0.22286
2744.21090,0.22292
2746.13937,0.22218
2748.06784,0.22012
2749.99631,0.21862
2751.92478,0.22223
2753.85325,0.22745
2755.78171,0.22788
2757.71018,0.22375
2759.63865,0.22027
2761.56712,0.21997
2763.49559,0.22033
2765.42406,0.22056
2767.35253,0.22059
2769.28099,0.21912
2771.20946,0.21814
2773.13793,0.21954
2775.06640,0.22046
2776.99487,0.21883
2778.92334,0.21734
2780.85181,0.21793
2782.78028,0.21983
2784.70874,0.22279
2786.63721,0.22642
2788.56568,0.22845
2790.49415,0.22776
2792.42262,0.22731
2794.35109,0.22771
2796.27956,0.22618
2798.20802,0.22327
2800.13649,0.22208
2802.06496,0.22322
2803.99343,0.22449
2805.92190,0.22712
2807.85037,0.23258
2809.77884,0.23505
2811.70731,0.23225
2813.63577,0.22987
2815.56424,0.22861
2817.49271,0.22511
2819.42118,0.22289
2821.34965,0.22440
2823.27812,0.22349
2825.20659,0.22032
2827.13505,0.22105
2829.06352,0.22368
2830.99199,0.22575
2832.92046,0.22851
2834.84893,0.22981
2836.77740,0.22795
2838.70587,0.22465
2840.63433,0.22290
2842.56280,0.22467
2844.49127,0.22793
2846.41974,0.23086
2848.34821,0.23331
2850.27668,0.23293
2852.20515,0.22923
2854.13362,0.22588
2856.06208,0.22482
2857.99055,0.22583
2859.91902,0.22823
2861.84749,0.22892
2863.77596,0.22637
2865.70443,0.22371
2867.63290,0.22286
2869.56136,0.22324
2871.48983,0.22479
2873.41830,0.22683
2875.34677,0.22855
2877.27524,0.22826
2879.20371,0.22708
2881.13218,0.22800
2883.06065,0.22724
2884.98911,0.22402
2886.91758,0.22262
2888.84605,0.22299
2890.77452,0.22617
2892.70299,0.23148
2894.63146,0.23155
2896.55993,0.22562
2898.48839,0.22256
2900.41686,0.22506
2902.34533,0.22596
2904.27380,0.22101
2906.20227,0.21552
2908.13074,0.21623
2910.05921,0.22027
2911.98768,0.22001
2913.91614,0.21577
2915.84461,0.21354
2917.77308,0.21601
2919.70155,0.22156
2921.63002,0.22777
2923.55849,0.22937
2925.48696,0.22073
2927.41542,0.21013
2929.34389,0.20990
2931.27236,0.21667
2933.20083,0.22216
2935.12930,0.22233
2937.05777,0.21900
2938.98624,0.22024
2940.91471,0.22631
2942.84317,0.22997
2944.77164,0.22729
2946.70011,0.21952
2948.62858,0.21509
2950.55705,0.21835
2952.48552,0.22190
2954.41399,0.22216
2956.34245,0.22062
2958.27092,0.21952
2960.19939,0.22257
2962.12786,0.22529
2964.05633,0.22320
2965.98480,0.22082
2967.91327,0.22206
2969.84174,0.22786
2971.77020,0.23527
2973.69867,0.23879
2975.62714,0.23522
2977.55561,0.22848
2979.48408,0.22748
2981.41255,0.23136
2983.34102,0.23365
2985.26948,0.23411
2987.19795,0.23234
2989.12642,0.22853
2991.05489,0.22552
2992.98336,0.22478
2994.91183,0.22804
2996.84030,0.23202
2998.76877,0.23253
3000.69723,0.23315
3002.62570,0.23490
3004.55417,0.23511
3006.48264,0.23239
3008.41111,0.22619
3010.33958,0.21790
3012.26805,0.20694
3014.19651,0.19092
3016.12498,0.17760
3018.05345,0.18449
3019.98192,0.20823
3021.91039,0.22569
3023.83886,0.23116
3025.76733,0.23306
3027.69579,0.23598
3029.62426,0.23918
3031.55273,0.23766
3033.48120,0.23309
3035.40967,0.23188
3037.33814,0.22993
3039.26661,0.22592
3041.19508,0.22747
3043.12354,0.23132
3045.05201,0.22779
3046.98048,0.22062
3048.90895,0.22116
3050.83742,0.22721
3052.76589,0.23002
3054.69436,0.22826
3056.62282,0.22385
3058.55129,0.22356
3060.47976,0.23002
3062.40823,0.23507
3064.33670,0.23168
3066.26517,0.22405
3068.19364,0.22370
3070.12211,0.22963
3072.05057,0.23230
3073.97904,0.23040
3075.90751,0.22761
3077.83598,0.22800
3079.76445,0.23174
3081.69292,0.23472
3083.62139,0.23168
3085.54985,0.22408
3087.47832,0.22303
3089.40679,0.22931
3091.33526,0.23312
3093.26373,0.23094
3095.19220,0.22694
3097.12067,0.22694
3099.04914,0.23049
3100.97760,0.23100
3102.90607,0.22475
3104.83454,0.22134
3106.76301,0.22772
3108.69148,0.23307
3110.61995,0.23196
3112.54842,0.23165
3114.47688,0.23374
3116.40535,0.23337
3118.33382,0.22979
3120.26229,0.22528
3122.19076,0.22451
3124.11923,0.22962
3126.04770,0.23308
3127.97617,0.23298
3129.90463,0.23531
3131.83310,0.23929
3133.76157,0.24033
3135.69004,0.23771
3137.61851,0.23247
3139.54698,0.22808
3141.47545,0.22852
3143.40391,0.23060
3145.33238,0.23113
3147.26085,0.23129
3149.18932,0.23119
3151.11779,0.23099
3153.04626,0.23147
3154.97473,0.23181
3156.90320,0.23087
3158.83166,0.23068
3160.76013,0.23113
3162.68860,0.22810
3164.61707,0.22415
3166.54554,0.22353
3168.47401,0.22709
3170.40248,0.23480
3172.33094,0.23982
3174.25941,0.23725
3176.18788,0.23199
3178.11635,0.22966
3180.04482,0.22878
3181.97329,0.22749
3183.90176,0.23103
3185.83022,0.23702
3187.75869,0.23830
3189.68716,0.23407
3191.61563,0.22792
3193.54410,0.22815
3195.47257,0.23300
3197.40104,0.23400
3199.32951,0.23321
3201.25797,0.23527
3203.18644,0.23783
3205.11491,0.23584
3207.04338,0.23080
3208.97185,0.22721
3210.90032,0.22960
3212.82879,0.23725
3214.75725,0.23894
3216.68572,0.23404
3218.61419,0.23144
3220.54266,0.23196
3222.47113,0.23571
3224.39960,0.23870
3226.32807,0.23549
3228.25654,0.23320
3230.18500,0.23754
3232.11347,0.24226
3234.04194,0.24127
3235.97041,0.23359
3237.89888,0.22447
3239.82735,0.22237
3241.75582,0.22597
3243.68428,0.22578
3245.61275,0.21957
3247.54122,0.21623
3249.46969,0.22171
3251.39816,0.22890
3253.32663,0.23118
3255.25510,0.23102
3257.18357,0.22785
3259.11203,0.22343
3261.04050,0.22686
3262.96897,0.23363
3264.89744,0.23353
3266.82591,0.23149
3268.75438,0.23196
3270.68285,0.23219
3272.61131,0.23236
3274.53978,0.23183
3276.46825,0.22848
3278.39672,0.22572
3280.32519,0.22820
3282.25366,0.23258
3284.18213,0.23383
3286.11060,0.23214
3288.03906,0.22958
3289.96753,0.22712
3291.89600,0.22680
3293.82447,0.23170
3295.75294,0.23741
3297.68141,0.23610
3299.60988,0.23102
3301.53834,0.22975
3303.46681,0.22970
3305.39528,0.22751
3307.32375,0.22805
3309.25222,0.23272
3311.18069,0.23498
3313.10916,0.23298
3315.03763,0.23347
3316.96609,0.23561
3318.89456,0.23287
3320.82303,0.22874
3322.75150,0.22837
3324.67997,0.23060
3326.60844,0.23279
3328.53691,0.23240
3330.46537,0.23019
3332.39384,0.22888
3334.32231,0.22738
3336.25078,0.22587
3338.17925,0.22564
3340.10772,0.22586
3342.03619,0.22600
3343.96466,0.22413
3345.89312,0.22346
3347.82159,0.22859
3349.75006,0.23585
3351.67853,0.23957
3353.60700,0.23907
3355.53547,0.23687
3357.46394,0.23310
3359.39240,0.22952
3361.32087,0.22866
3363.24934,0.22879
3365.17781,0.22869
3367.10628,0.23089
3369.03475,0.23642
3370.96322,0.23927
3372.89168,0.23528
3374.82015,0.22969
3376.74862,0.22752
3378.67709,0.22619
3380.60556,0.22554
3382.53403,0.22797
3384.46250,0.22808
3386.39097,0.22317
3388.31943,0.22120
3390.24790,0.22713
3392.17637,0.23424
3394.10484,0.23754
3396.03331,0.23968
3397.96178,0.24155
3399.89025,0.24438
3401.81871,0.24760
3403.74718,0.24568
3405.67565,0.23776
3407.60412,0.23198
3409.53259,0.23230
3411.46106,0.23322
3413.38953,0.23324
3415.31800,0.23403
3417.24646,0.23216
3419.17493,0.22572
3421.10340,0.21991
3423.03187,0.21788
3424.96034,0.21643
3426.88881,0.21709
3428.81728,0.22356
3430.74574,0.22789
3432.67421,0.22246
3434.60268,0.21502
3436.53115,0.21391
3438.45962,0.21933
3440.38809,0.22525
3442.31656,0.22306
3444.24503,0.21500
3446.17349,0.21021
3448.10196,0.21064
3450.03043,0.21365
3451.95890,0.21652
3453.88737,0.21716
3455.81584,0.21571
3457.74431,0.21342
3459.67277,0.21471
3461.60124,0.21909
3463.52971,0.21735
3465.45818,0.21300
3467.38665,0.21532
3469.31512,0.21919
3471.24359,0.22081
3473.17206,0.22227
3475.10052,0.21984
3477.02899,0.21363
3478.95746,0.21034
3480.88593,0.21034
3482.81440,0.20895
3484.74287,0.20720
3486.67134,0.20613
3488.59980,0.20355
3490.52827,0.20250
3492.45674,0.20463
3494.38521,0.20590
3496.31368,0.20318
3498.24215,0.19809
3500.17062,0.19357
3502.09909,0.19096
3504.02755,0.19348
3505.95602,0.19968
3507.88449,0.20376
3509.81296,0.20387
3511.74143,0.20085
3513.66990,0.19782
3515.59837,0.19855
3517.52683,0.19890
3519.45530,0.19490
3521.38377,0.19434
3523.31224,0.20023
3525.24071,0.20541
3527.16918,0.20536
3529.09765,0.19985
3531.02611,0.19408
3532.95458,0.19232
3534.88305,0.19218
3536.81152,0.19012
3538.73999,0.18696
3540.66846,0.18589
3542.59693,0.18714
3544.52540,0.18867
3546.45386,0.18918
3548.38233,0.18805
3550.31080,0.18518
3552.23927,0.18145
3554.16774,0.17910
3556.09621,0.17763
3558.02468,0.17465
3559.95314,0.17453
3561.88161,0.18018
3563.81008,0.18665
3565.73855,0.19156
3567.66702,0.18969
3569.59549,0.18007
3571.52396,0.17513
3573.45243,0.17797
3575.38089,0.18040
3577.30936,0.17603
3579.23783,0.16956
3581.16630,0.16712
3583.09477,0.16776
3585.02324,0.16686
3586.95171,0.16014
3588.88017,0.15353
3590.80864,0.15522
3592.73711,0.16088
3594.66558,0.16669
3596.59405,0.17030
3598.52252,0.17065
3600.45099,0.16911
3602.37946,0.16781
3604.30792,0.16829
3606.23639,0.17291
3608.16486,0.17967
3610.09333,0.18011
3612.02180,0.17258
3613.95027,0.16251
3615.87874,0.16368
3617.80720,0.17408
3619.73567,0.17170
3621.66414,0.16040
3623.59261,0.15655
3625.52108,0.15751
3627.44955,0.15840
3629.37802,0.15466
3631.30649,0.14850
3633.23495,0.14619
3635.16342,0.14824
3637.09189,0.15015
3639.02036,0.14992
3640.94883,0.15170
3642.87730,0.15665
3644.80577,0.16270
3646.73423,0.16708
3648.66270,0.16344
3650.59117,0.15470
3652.51964,0.15169
3654.44811,0.15231
3656.37658,0.15185
3658.30505,0.14896
3660.23352,0.14906
3662.16198,0.15074
3664.09045,0.14804
3666.01892,0.14423
3667.94739,0.14903
3669.87586,0.16182
3671.80433,0.16440
3673.73280,0.15681
3675.66126,0.14796
3677.58973,0.14386
3679.51820,0.14334
3681.44667,0.14389
3683.37514,0.14256
3685.30361,0.14017
3687.23208,0.14217
3689.16055,0.14805
3691.08901,0.14788
3693.01748,0.14279
3694.94595,0.14237
3696.87442,0.14608
3698.80289,0.14570
3700.73136,0.14051
3702.65983,0.13787
3704.58829,0.14031
3706.51676,0.14492
3708.44523,0.15094
3710.37370,0.15671
3712.30217,0.15900
3714.23064,0.15641
3716.15911,0.14952
3718.08757,0.14176
3720.01604,0.13832
3721.94451,0.14024
3723.87298,0.14424
3725.80145,0.14699
3727.72992,0.14716
3729.65839,0.14789
3731.58686,0.15343
3733.51532,0.16187
3735.44379,0.16365
3737.37226,0.15987
3739.30073,0.15848
3741.22920,0.15679
3743.15767,0.15328
3745.08614,0.15223
3747.01460,0.15367
3748.94307,0.15641
3750.87154,0.15807
3752.80001,0.15112
3754.72848,0.14523
3756.65695,0.14581
3758.58542,0.14647
3760.51389,0.14070
3762.44235,0.13456
3764.37082,0.13285
3766.29929,0.13655
3768.22776,0.14353
3770.15623,0.14515
3772.08470,0.14084
3774.01317,0.13802
3775.94163,0.13745
3777.87010,0.13919
3779.79857,0.14076
3781.72704,0.13794
3783.65551,0.13352
3785.58398,0.13054
3787.51245,0.13142
3789.44092,0.13637
3791.36938,0.14135
3793.29785,0.14328
3795.22632,0.14321
3797.15479,0.14128
3799.08326,0.13715
3801.01173,0.13427
3802.94020,0.13634
3804.86866,0.14085
3806.79713,0.14234
3808.72560,0.14004
3810.65407,0.14142
3812.58254,0.14719
3814.51101,0.15641
3816.43948,0.16201
3818.36795,0.15817
3820.29641,0.15976
3822.22488,0.15922
3824.15335,0.14457
3826.08182,0.13403
3828.01029,0.13596
3829.93876,0.14091
3831.86723,0.14409
3833.79569,0.14945
3835.72416,0.15389
3837.65263,0.15455
3839.58110,0.15240
3841.50957,0.14667
3843.43804,0.14275
3845.36651,0.14385
3847.29498,0.14618
3849.22344,0.14958
3851.15191,0.15606
3853.08038,0.15692
3855.00885,0.14033
3856.93732,0.12916
3858.86579,0.12687
3860.79426,0.12749
3862.72272,0.12970
3864.65119,0.13217
3866.57966,0.13196
3868.50813,0.13485
3870.43660,0.14124
3872.36507,0.13864
3874.29354,0.13233
3876.22200,0.13371
3878.15047,0.13791
3880.07894,0.13835
3882.00741,0.13660
3883.93588,0.13221
3885.86435,0.12480
3887.79282,0.12550
3889.72129,0.13413
3891.64975,0.13827
3893.57822,0.13284
3895.50669,0.12819
3897.43516,0.12663
3899.36363,0.12527
3901.29210,0.12713
3903.22057,0.13193
3905.14903,0.12984
3907.07750,0.12245
3909.00597,0.12015
3910.93444,0.12541
3912.86291,0.13186
3914.79138,0.13254
3916.71985,0.13033
3918.64832,0.13152
3920.57678,0.13206
3922.50525,0.12951
3924.43372,0.12939
3926.36219,0.13360
3928.29066,0.13680
3930.21913,0.13677
3932.14760,0.13494
3934.07606,0.13091
3936.00453,0.12701
3937.93300,0.12696
3939.86147,0.13115
3941.78994,0.13539
3943.71841,0.13373
3945.64688,0.12975
3947.57535,0.12538
3949.50381,0.11719
3951.43228,0.11316
3953.36075,0.11659
3955.28922,0.11932
3957.21769,0.12020
3959.14616,0.12210
3961.07463,0.12321
3963.00309,0.12185
3964.93156,0.11915
3966.86003,0.11934
3968.78850,0.12317
3970.71697,0.12490
3972.64544,0.12526
3974.57391,0.12745
3976.50238,0.12672
3978.43084,0.12242
3980.35931,0.12145
3982.28778,0.12539
3984.21625,0.12709
3986.14472,0.12267
3988.07319,0.11818
3990.00166,0.12053
3991.93012,0.12508
3993.85859,0.12508
3995.78706,0.12366
3997.71553,0.12052
3999.64400,0.11541
4001.57247,0.11335
4003.50094,0.11255
4005.42941,0.11166
4007.35787,0.11233
4009.28634,0.11155
4011.21481,0.10977
4013.14328,0.11213
4015.07175,0.11774
4017.00022,0.12106
4018.92869,0.12010
4020.85715,0.11647
4022.78562,0.11283
4024.71409,0.11126
4026.64256,0.11181
4028.57103,0.11165
4030.49950,0.10848
4032.42797,0.10570
4034.35644,0.10575
4036.28490,0.10386
4038.21337,0.10015
4040.14184,0.10037
4042.07031,0.10289
4043.99878,0.10613
4045.92725,0.11010
4047.85572,0.10897
4049.78418,0.10526
4051.71265,0.10736
4053.64112,0.11187
4055.56959,0.11299
4057.49806,0.11281
4059.42653,0.11268
4061.35500,0.11048
4063.28346,0.10719
4065.21193,0.10557
4067.14040,0.10721
4069.06887,0.11073
4070.99734,0.11077
4072.92581,0.10834
4074.85428,0.10809
4076.78275,0.10805
4078.71121,0.10521
4080.63968,0.09825
4082.56815,0.08964
4084.49662,0.08607
4086.42509,0.09145
4088.35356,0.10319
4090.28203,0.11109
4092.21049,0.10768
4094.13896,0.10067
4096.06743,0.09817
4097.99590,0.09604
4099.92437,0.09236
4101.85284,0.09050
4103.78131,0.09156
4105.70978,0.09741
4107.63824,0.10460
4109.56671,0.10733
4111.49518,0.11002
4113.42365,0.11237
4115.35212,0.10863
4117.28059,0.10264
4119.20906,0.09950
4121.13752,0.10109
4123.06599,0.10389
4124.99446,0.10350
4126.92293,0.10098
4128.85140,0.09831
4130.77987,0.10114
4132.70834,0.10633
4134.63681,0.10313
4136.56527,0.09543
4138.49374,0.09035
4140.42221,0.08824
4142.35068,0.08967
4144.27915,0.09301
4146.20762,0.09532
4148.13609,0.09278
4150.06455,0.08781
4151.99302,0.08735
4153.92149,0.08630
4155.84996,0.08283
4157.77843,0.08297
4159.70690,0.08345
4161.63537,0.08475
4163.56384,0.08988
4165.49230,0.09449
4167.42077,0.09608
4169.34924,0.09344
4171.27771,0.08977
4173.20618,0.09119
4175.13465,0.09379
4177.06312,0.09135
4178.99158,0.08699
4180.92005,0.08714
4182.84852,0.09084
4184.77699,0.09324
4186.70546,0.09294
4188.63393,0.08983
4190.56240,0.08896
4192.49087,0.09290
4194.41933,0.09534
4196.34780,0.09179
4198.27627,0.08291
4200.20474,0.07745
4202.13321,0.07832
4204.06168,0.07718
4205.99015,0.07510
4207.91861,0.07477
4209.84708,0.07380
4211.77555,0.07626
4213.70402,0.08354
4215.63249,0.08905
4217.56096,0.08873
4219.48943,0.08525
4221.41789,0.08515
4223.34636,0.08960
4225.27483,0.09054
4227.20330,0.08559
4229.13177,0.08077
4231.06024,0.07567
4232.98871,0.07135
4234.91718,0.07137
4236.84564,0.07060
4238.77411,0.07037
4240.70258,0.07402
4242.63105,0.07416
4244.55952,0.07079
4246.48799,0.07196
4248.41646,0.07701
4250.34492,0.07920
4252.27339,0.07790
4254.20186,0.07626
4256.13033,0.07471
4258.05880,0.07362
4259.98727,0.07458
4261.91574,0.07755
4263.84421,0.07894
4265.77267,0.07644
4267.70114,0.07347
4269.62961,0.07367
4271.55808,0.07580
4273.48655,0.07591
4275.41502,0.07227
4277.34349,0.06909
4279.27195,0.07113
4281.20042,0.07301
4283.12889,0.06723
4285.05736,0.06029
4286.98583,0.06045
4288.91430,0.06468
4290.84277,0.06804
4292.77124,0.06761
4294.69970,0.06247
4296.62817,0.05717
4298.55664,0.05708
4300.48511,0.06101
4302.41358,0.06434
4304.34205,0.06355
4306.27052,0.06048
4308.19898,0.06064
4310.12745,0.06140
4312.05592,0.05801
4313.98439,0.05381
4315.91286,0.05500
4317.84133,0.05948
4319.76980,0.05734
4321.69827,0.04989
4323.62673,0.04809
4325.55520,0.05245
4327.48367,0.05455
4329.41214,0.05455
4331.34061,0.05765
4333.26908,0.05883
4335.19755,0.05526
4337.12601,0.05437
4339.05448,0.05527
4340.98295,0.05032
4342.91142,0.04478
4344.83989,0.04734
4346.76836,0.05079
4348.69683,0.04822
4350.62530,0.04841
4352.55376,0.05759
4354.48223,0.06726
4356.41070,0.06758
4358.33917,0.06200
4360.26764,0.05769
4362.19611,0.05360
4364.12458,0.04900
4366.05304,0.04314
4367.98151,0.03757
4369.90998,0.03967
4371.83845,0.04556
4373.76692,0.04663
4375.69539,0.04405
4377.62386,0.04184
4379.55232,0.04467
4381.48079,0.05303
4383.40926,0.06078
4385.33773,0.06422
4387.26620,0.06218
4389.19467,0.05411
4391.12314,0.04438
4393.05161,0.04146
4394.98007,0.04619
4396.90854,0.04631
4398.83701,0.03898
4400.76548,0.03525
4402.69395,0.03568
4404.62242,0.03558
4406.55089,0.03515
4408.47935,0.03208
4410.40782,0.02769
4412.33629,0.02599
4414.26476,0.02734
4416.19323,0.03292
4418.12170,0.03983
4420.05017,0.04315
4421.97864,0.04236
4423.90710,0.03833
4425.83557,0.03559
4427.76404,0.03937
4429.69251,0.04409
4431.62098,0.04192
4433.54945,0.04142
4435.47792,0.04642
4437.40638,0.04290
4439.33485,0.03268
4441.26332,0.03216
4443.19179,0.04263
4445.12026,0.04889
4447.04873,0.04091
4448.97720,0.03029
4450.90567,0.02953
4452.83413,0.03294
4454.76260,0.03403
4456.69107,0.03325
4458.61954,0.03139
4460.54801,0.03147
4462.47648,0.03286
4464.40495,0.03117
4466.33341,0.02755
4468.26188,0.02623
4470.19035,0.02660
4472.11882,0.02608
4474.04729,0.02910
4475.97576,0.03593
4477.90423,0.03551
4479.83270,0.02899
4481.76116,0.02836
4483.68963,0.03027
4485.61810,0.02882
4487.54657,0.02817
4489.47504,0.02780
4491.40351,0.02603
4493.33198,0.02526
4495.26044,0.02398
4497.18891,0.01833
4499.11738,0.01137
4501.04585,0.00694
4502.97432,0.00545
4504.90279,0.01098
4506.83126,0.02245
4508.75973,0.03100
4510.68819,0.03242
4512.61666,0.02661
4514.54513,0.01637
4516.47360,0.01363
4518.40207,0.02436
4520.33054,0.03327
4522.25901,0.02788
4524.18747,0.01916
4526.11594,0.01571
4528.04441,0.01005
4529.97288,0.00389
4531.90135,0.00620
4533.82982,0.01340
4535.75829,0.01507
4537.68676,0.01402
4539.61522,0.01995
4541.54369,0.02468
4543.47216,0.02281
4545.40063,0.02439
4547.32910,0.03285
4549.25757,0.04251
4551.18604,0.04146
4553.11450,0.02600
4555.04297,0.01430
4556.97144,0.01618
4558.89991,0.02031
4560.82838,0.02289
4562.75685,0.03003
4564.68532,0.03697
4566.61378,0.03294
4568.54225,0.02466
4570.47072,0.02113
4572.39919,0.01549
4574.32766,0.00915
4576.25613,0.01067
4578.18460,0.01339
4580.11307,0.01182
4582.04153,0.01740
4583.97000,0.03113
4585.89847,0.03558
4587.82694,0.02495
4589.75541,0.01352
4591.68388,0.00977
4593.61235,0.00791
4595.54081,0.00867
4597.46928,0.01356
4599.39775,0.01637
4601.32622,0.01610
4603.25469,0.01471
4605.18316,0.00944
4607.11163,0.00190
4609.04010,0.00147
4610.96856,0.00877
4612.89703,0.01607
4614.82550,0.01755
4616.75397,0.01760
4618.68244,0.02577
4620.61091,0.03441
4622.53938,0.03141
4624.46784,0.02320
4626.39631,0.02062
4628.32478,0.02030
4630.25325,0.01785
4632.18172,0.01512
4634.11019,0.01368
4636.03866,0.01357
4637.96713,0.01089
4639.89559,0.00686
4641.82406,0.00745
4643.75253,0.01235
4645.68100,0.01261
4647.60947,0.00479
4649.53794,-0.00203
4651.46641,-0.00780
4653.39487,-0.01381
4655.32334,-0.01208
4657.25181,-0.00741
4659.18028,-0.00386
4661.10875,0.00514
4663.03722,0.01061
4664.96569,0.00962
4666.89416,0.01176
4668.82262,0.01104
4670.75109,0.00759
4672.67956,0.00690
4674.60803,0.00377
4676.53650,0.00027
4678.46497,-0.00007
4680.39344,0.00036
4682.32190,0.00345
4684.25037,0.00696
4686.17884,0.00363
4688.10731,-0.00415
4690.03578,-0.01390
4691.96425,-0.02304
4693.89272,-0.02265
4695.82119,-0.01508
4697.74965,-0.00398
4699.67812,0.01158
4701.60659,0.02356
4703.53506,0.02241
4705.46353,0.00938
4707.39200,-0.00224
4709.32047,-0.00840
4711.24893,-0.01197
4713.17740,-0.00712
4715.10587,-0.00357
4717.03434,-0.00919
4718.96281,-0.00876
4720.89128,-0.00162
4722.81975,0.00623
4724.74821,0.01679
4726.67668,0.02156
4728.60515,0.01345
4730.53362,-0.00084
4732.46209,-0.00592
4734.39056,0.00528
4736.31903,0.01957
4738.24750,0.02170
4740.17596,0.00929
4742.10443,-0.00498
4744.03290,-0.01056
4745.96137,-0.01224
4747.88984,-0.00736
4749.81831,0.00712
4751.74678,0.01472
4753.67524,0.00716
4755.60371,-0.00392
4757.53218,-0.00994
4759.46065,-0.00943
4761.38912,-0.00152
4763.31759,0.00814
4765.24606,0.01106
4767.17453,0.00825
4769.10299,0.00609
4771.03146,0.00806
4772.95993,0.01284
4774.88840,0.01668
4776.81687,0.01569
4778.74534,0.01045
4780.67381,0.01072
4782.60227,0.02042
4784.53074,0.02692
4786.45921,0.02064
4788.38768,0.01205
4790.31615,0.01588
4792.24462,0.02494
4794.17309,0.02544
4796.10156,0.01952
4798.03002,0.01006
4799.95849,0.00087
4801.88696,0.00219
4803.81543,0.01472
4805.74390,0.02570
4807.67237,0.02015
4809.60084,0.00600
4811.52930,0.00633
4813.45777,0.01921
4815.38624,0.02641
4817.31471,0.02121
4819.24318,0.01163
4821.17165,0.00836
4823.10012,0.00884
4825.02859,0.01152
4826.95705,0.02318
4828.88552,0.02746
4830.81399,0.01177
4832.74246,-0.00336
4834.67093,-0.01055
4836.59940,-0.01726
4838.52787,-0.01336
4840.45633,0.00458
4842.38480,0.01799
4844.31327,0.01908
4846.24174,0.02056
4848.17021,0.02309
4850.09868,0.01157
4852.02715,-0.00810
4853.95562,-0.01406
4855.88408,-0.00883
4857.81255,-0.01153
4859.74102,-0.01949
4861.66949,-0.01363
4863.59796,0.00124
4865.52643,0.00708
4867.45490,0.00710
4869.38336,0.00975
4871.31183,0.01310
4873.24030,0.01827
4875.16877,0.02318
4877.09724,0.01932
4879.02571,0.01465
4880.95418,0.01802
4882.88265,0.02064
4884.81111,0.01845
4886.73958,0.01573
4888.66805,0.01499
4890.59652,0.01455
4892.52499,0.01448
4894.45346,0.02189
4896.38193,0.02827
4898.31039,0.01751
4900.23886,0.00382
4902.16733,-0.00185
4904.09580,-0.01052
4906.02427,-0.01277
4907.95274,-0.00726
4909.88121,-0.01150
4911.80967,-0.01627
4913.73814,-0.00428
4915.66661,0.01371
4917.59508,0.01984
4919.52355,0.01594
4921.45202,0.01235
4923.38049,0.01546
4925.30896,0.01740
4927.23742,0.00927
4929.16589,0.00264
4931.09436,0.00361
4933.02283,0.00694
4934.95130,0.00844
4936.87977,0.01190
4938.80824,0.01652
4940.73670,0.00593
4942.66517,-0.01195
4944.59364,-0.01698
4946.52211,-0.01999
4948.45058,-0.02181
4950.37905,-0.00635
4952.30752,0.01423
4954.23599,0.02422
4956.16445,0.02332
4958.09292,0.01631
4960.02139,0.02035
4961.94986,0.03710
4963.87833,0.04615
4965.80680,0.04029
4967.73527,0.02751
4969.66373,0.01228
4971.59220,-0.00102
4973.52067,0.00064
4975.44914,0.01537
4977.37761,0.02129
4979.30608,0.01060
4981.23455,-0.00442
4983.16302,-0.01485
4985.09148,-0.01487
4987.01995,0.00082
4988.94842,0.01773
4990.87689,0.02390
4992.80536,0.03560
4994.73383,0.04952
4996.66230,0.03996
4998.59076,0.01453
5000.51923,-0.00455
5002.44770,-0.00233
5004.37617,0.01734
5006.30464,0.02637
5008.23311,0.02112
5010.16158,0.01048
5012.09005,-0.00325
5014.01851,-0.00448
5015.94698,0.00943
5017.87545,0.02385
5019.80392,0.02660
5021.73239,0.01535
5023.66086,0.00719
5025.58933,0.00430
5027.51779,-0.00592
5029.44626,-0.00738
5031.37473,0.00244
5033.30320,0.00382
5035.23167,0.00509
5037.16014,0.01743
5039.08861,0.03043
5041.01708,0.03449
5042.94554,0.03521
5044.87401,0.03310
5046.80248,0.02464
5048.73095,0.02171
5050.65942,0.03013
5052.58789,0.03384
5054.51636,0.01649
5056.44482,-0.00074
5058.37329,0.01113
5060.30176,0.03459
5062.23023,0.04153
5064.15870,0.03174
5066.08717,0.01821
5068.01564,0.01407
5069.94410,0.02268
5071.87257,0.02981
5073.80104,0.02305
5075.72951,0.01792
5077.65798,0.03284
5079.58645,0.05032
5081.51492,0.04792
5083.44339,0.03367
5085.37185,0.01630
5087.30032,0.00371
5089.22879,0.01188
5091.15726,0.02950
5093.08573,0.02808
5095.01420,0.00977
5096.94267,-0.00112
5098.87113,0.00356
5100.79960,0.01263
5102.72807,0.02297
5104.65654,0.04201
5106.58501,0.05806
5108.51348,0.05240
5110.44195,0.03323
5112.37042,0.01950
5114.29888,0.01120
5116.22735,0.00284
5118.15582,0.01004
5120.08429,0.03457
5122.01276,0.05117
5123.94123,0.05122
5125.86970,0.04395
5127.79816,0.03253
5129.72663,0.01856
5131.65510,0.01649
5133.58357,0.02585
5135.51204,0.03091
5137.44051,0.03538
5139.36898,0.03459
5141.29745,0.02629
5143.22591,0.03244
5145.15438,0.04512
5147.08285,0.04433
5149.01132,0.04188
5150.93979,0.04106
5152.86826,0.03282
5154.79673,0.02258
5156.72519,0.02204
5158.65366,0.02783
5160.58213,0.02406
5162.51060,0.01699
5164.43907,0.02167
5166.36754,0.03016
5168.29601,0.03167
5170.22448,0.03203
5172.15294,0.04152
5174.08141,0.05125
5176.00988,0.04452
5177.93835,0.03019
5179.86682,0.02832
5181.79529,0.03579
5183.72376,0.04388
5185.65222,0.05213
5187.58069,0.06081
5189.50916,0.06905
5191.43763,0.07170
5193.36610,0.07304
5195.29457,0.07303
5197.22304,0.05999
5199.15151,0.03407
5201.07997,0.00741
5203.00844,-0.00508
5204.93691,0.00614
5206.86538,0.03147
5208.79385,0.04689
5210.72232,0.04700
5212.65079,0.04143
5214.57925,0.04832
5216.50772,0.06435
5218.43619,0.05499
5220.36466,0.02830
5222.29313,0.01416
5224.22160,0.00383
5226.15007,0.00082
5228.07854,0.02191
5230.00700,0.04097
5231.93547,0.03237
5233.86394,0.01900
5235.79241,0.02148
5237.72088,0.02952
5239.64935,0.03577
5241.57782,0.03971
5243.50628,0.03778
5245.43475,0.03363
5247.36322,0.03799
5249.29169,0.05016
5251.22016,0.06184
5253.14863,0.06489
5255.07710,0.05735
5257.00556,0.05391
5258.93403,0.06330
5260.86250,0.07703
5262.79097,0.08624
5264.71944,0.08314
5266.64791,0.06639
5268.57638,0.05302
5270.50485,0.05238
5272.43331,0.05376
5274.36178,0.05291
5276.29025,0.05054
5278.21872,0.04155
5280.14719,0.04035
5282.07566,0.05887
5284.00413,0.06700
5285.93259,0.05386
5287.86106,0.05354
5289.78953,0.07493
5291.71800,0.08976
5293.64647,0.08087
5295.57494,0.07012
5297.50341,0.07073
5299.43188,0.06897
5301.36034,0.05898
5303.28881,0.04145
5305.21728,0.02957
5307.14575,0.04372
5309.07422,0.06708
5311.00269,0.07783
5312.93116,0.08778
5314.85962,0.09654
5316.78809,0.09169
5318.71656,0.08715
5320.64503,0.09030
5322.57350,0.08743
5324.50197,0.09120
5326.43044,0.11290
5328.35891,0.11912
5330.28737,0.08976
5332.21584,0.04654
5334.14431,0.01896
5336.07278,0.02845
5338.00125,0.07792
5339.92972,0.12752
5341.85819,0.13532
5343.78665,0.10800
5345.71512,0.08489
5347.64359,0.08997
5349.57206,0.08993
5351.50053,0.06745
5353.42900,0.05182
5355.35747,0.05027
5357.28594,0.04422
5359.21440,0.05272
5361.14287,0.07757
5363.07134,0.07978
5364.99981,0.05801
5366.92828,0.04376
5368.85675,0.03510
5370.78522,0.02525
5372.71368,0.03125
5374.64215,0.05734
5376.57062,0.06836
5378.49909,0.05098
5380.42756,0.04260
5382.35603,0.04841
5384.28450,0.04712
5386.21297,0.03629
5388.14143,0.03450
5390.06990,0.04594
5391.99837,0.05964
5393.92684,0.07258
5395.85531,0.07455
5397.78378,0.06965
5399.71225,0.08450
5401.64071,0.10017
5403.56918,0.08883
5405.49765,0.07642
5407.42612,0.08401
5409.35459,0.09483
5411.28306,0.09985
5413.21153,0.09366
5415.13999,0.06780
5417.06846,0.04371
5418.99693,0.03339
5420.92540,0.03544
5422.85387,0.06058
5424.78234,0.09708
5426.71081,0.10443
5428.63928,0.08017
5430.56774,0.07105
5432.49621,0.07767
5434.42468,0.06514
5436.35315,0.04483
5438.28162,0.05166
5440.21009,0.07490
5442.13856,0.07419
5444.06702,0.05048
5445.99549,0.04680
5447.92396,0.06765
5449.85243,0.08017
5451.78090,0.08614
5453.70937,0.10028
5455.63784,0.10581
5457.56631,0.08773
5459.49477,0.06236
5461.42324,0.04743
5463.35171,0.05393
5465.28018,0.07368
5467.20865,0.08431
5469.13712,0.08541
5471.06559,0.09601
5472.99405,0.11413
5474.92252,0.11488
5476.85099,0.08993
5478.77946,0.06251
5480.70793,0.04586
5482.63640,0.03357
5484.56487,0.03702
5486.49334,0.06567
5488.42180,0.08460
5490.35027,0.07990
5492.27874,0.08160
5494.20721,0.09486
5496.13568,0.09688
5498.06415,0.09614
5499.99262,0.10824
5501.92108,0.10798
5503.84955,0.08410
5505.77802,0.06058
5507.70649,0.05379
5509.63496,0.06324
5511.56343,0.07929
5513.49190,0.09079
5515.42037,0.09986
5517.34883,0.10197
5519.27730,0.07105
5521.20577,0.03228
5523.13424,0.04031
5525.06271,0.08132
5526.99118,0.10033
5528.91965,0.08853
5530.84811,0.08123
5532.77658,0.08616
5534.70505,0.08116
5536.63352,0.07124
5538.56199,0.06670
5540.49046,0.05968
5542.41893,0.06084
5544.34740,0.08643
5546.27586,0.11785
5548.20433,0.12796
5550.13280,0.11574
5552.06127,0.09317
5553.98974,0.06634
5555.91821,0.04104
5557.84668,0.03553
5559.77514,0.05294
5561.70361,0.06044
5563.63208,0.04632
5565.56055,0.04819
5567.48902,0.08461
5569.41749,0.13323
5571.34596,0.15621
5573.27443,0.12351
5575.20289,0.08133
5577.13136,0.07779
5579.05983,0.07261
5580.98830,0.04890
5582.91677,0.04184
5584.84524,0.05893
5586.77371,0.08548
5588.70217,0.11181
5590.63064,0.12482
5592.55911,0.11144
5594.48758,0.07445
5596.41605,0.04129
5598.34452,0.04325
5600.27299,0.07302
5602.20145,0.10042
5604.12992,0.11354
5606.05839,0.11224
5607.98686,0.10515
5609.91533,0.09406
5611.84380,0.07061
5613.77227,0.04996
5615.70074,0.05010
5617.62920,0.06666
5619.55767,0.08207
5621.48614,0.08391
5623.41461,0.08656
5625.34308,0.09103
5627.27155,0.07929
5629.20002,0.06737
5631.12848,0.07452
5633.05695,0.08519
5634.98542,0.08450
5636.91389,0.07899
5638.84236,0.07614
5640.77083,0.07814
5642.69930,0.08892
5644.62777,0.10132
5646.55623,0.09593
5648.48470,0.07823
5650.41317,0.07818
5652.34164,0.08734
5654.27011,0.06862
5656.19858,0.03557
5658.12705,0.03755
5660.05551,0.07157
5661.98398,0.08787
5663.91245,0.08143
5665.84092,0.08967
5667.76939,0.10844
5669.69786,0.11349
5671.62633,0.11633
5673.55480,0.12868
5675.48326,0.14000
5677.41173,0.13674
5679.34020,0.11187
5681.26867,0.08145
5683.19714,0.07021
5685.12561,0.08641
5687.05408,0.12446
5688.98254,0.14778
5690.91101,0.14099
5692.83948,0.13585
5694.76795,0.11023
5696.69642,0.06189
5698.62489,0.05529
5700.55336,0.07820
5702.48183,0.07788
5704.41029,0.05233
5706.33876,0.03340
5708.26723,0.04520
5710.19570,0.06923
5712.12417,0.08442
5714.05264,0.08495
5715.98111,0.07183
5717.90957,0.06854
5719.83804,0.08543
5721.76651,0.10784
5723.69498,0.12084
5725.62345,0.10833
5727.55192,0.07878
5729.48039,0.07930
5731.40886,0.11755
5733.33732,0.12258
5735.26579,0.04771
5737.19426,-0.02876
5739.12273,-0.01656
5741.05120,0.04143
5742.97967,0.07798
5744.90814,0.09082
5746.83660,0.08730
5748.76507,0.08266
5750.69354,0.08873
5752.62201,0.09305
5754.55048,0.08787
5756.47895,0.07778
5758.40742,0.07990
5760.33588,0.07727
5762.26435,0.03144
5764.19282,-0.02104
5766.12129,-0.01292
5768.04976,0.04213
5769.97823,0.08107
5771.90670,0.07671
5773.83517,0.06588
5775.76363,0.07260
5777.69210,0.06690
5779.62057,0.04244
5781.54904,0.03195
5783.47751,0.04709
5785.40598,0.06353
5787.33445,0.06319
5789.26291,0.06912
5791.19138,0.08722
5793.11985,0.09698
5795.04832,0.10566
5796.97679,0.12541
5798.90526,0.13603
5800.83373,0.11460
5802.76220,0.07862
5804.69066,0.05824
5806.61913,0.04469
5808.54760,0.03857
5810.47607,0.06071
5812.40454,0.07654
5814.33301,0.05544
5816.26148,0.03590
5818.18994,0.04820
5820.11841,0.08677
5822.04688,0.12216
5823.97535,0.12020
5825.90382,0.09114
5827.83229,0.07113
5829.76076,0.07665
5831.68923,0.08958
5833.61769,0.07602
5835.54616,0.03755
5837.47463,0.00842
5839.40310,0.00877
5841.33157,0.02953
5843.26004,0.03093
5845.18851,0.02497
5847.11697,0.07224
5849.04544,0.14368
5850.97391,0.15010
5852.90238,0.11341
5854.83085,0.10527
5856.75932,0.13074
5858.68779,0.15062
5860.61626,0.12458
5862.54472,0.07677
5864.47319,0.07311
5866.40166,0.08761
5868.33013,0.08797
5870.25860,0.11257
5872.18707,0.13938
5874.11554,0.12741
5876.04400,0.12012
5877.97247,0.14926
5879.90094,0.15813
5881.82941,0.11905
5883.75788,0.08048
5885.68635,0.07712
5887.61482,0.08845
5889.54329,0.08926
5891.47175,0.07403
5893.40022,0.05031
5895.32869,0.05642
5897.25716,0.09984
5899.18563,0.13068
5901.11410,0.12470
5903.04257,0.10414
5904.97103,0.08972
5906.89950,0.07968
5908.82797,0.08176
5910.75644,0.09966
5912.68491,0.11395
5914.61338,0.10900
5916.54185,0.10235
5918.47032,0.10630
5920.39878,0.09043
5922.32725,0.07119
5924.25572,0.07743
5926.18419,0.08493
5928.11266,0.08769
5930.04113,0.08689
5931.96960,0.06771
5933.89806,0.05259
5935.82653,0.06944
5937.75500,0.07977
5939.68347,0.06872
5941.61194,0.07613
5943.54041,0.09651
5945.46888,0.08869
5947.39734,0.05547
5949.32581,0.03875
5951.25428,0.05978
5953.18275,0.08446
5955.11122,0.08519
5957.03969,0.10263
5958.96816,0.13465
5960.89663,0.12435
5962.82509,0.11940
5964.75356,0.13291
5966.68203,0.09620
5968.61050,0.04623
5970.53897,0.05906
5972.46744,0.10350
5974.39591,0.11481
5976.32437,0.07856
5978.25284,0.03081
5980.18131,0.01324
5982.10978,0.02396
5984.03825,0.02937
5985.96672,0.02786
5987.89519,0.04825
5989.82366,0.07334
5991.75212,0.07150
5993.68059,0.07307
5995.60906,0.10107
5997.53753,0.09983
5999.46600,0.06453
6001.39447,0.04450
6003.32294,0.04549
6005.25140,0.08960
6007.17987,0.15190
6009.10834,0.14520
6011.03681,0.08135
6012.96528,0.03768
6014.89375,0.04787
6016.82222,0.05353
6018.75069,0.01012
6020.67915,0.00849
6022.60762,0.08192
6024.53609,0.14331
6026.46456,0.14481
6028.39303,0.10585
6030.32150,0.07070
6032.24997,0.04854
6034.17843,0.03531
6036.10690,0.05334
6038.03537,0.08184
6039.96384,0.08318
6041.89231,0.06355
6043.82078,0.04219
6045.74925,0.03399
6047.67772,0.05421
6049.60618,0.09745
6051.53465,0.10181
6053.46312,0.04189
6055.39159,-0.01313
6057.32006,-0.00478
6059.24853,0.04254
6061.17700,0.09928
6063.10546,0.14259
6065.03393,0.15229
6066.96240,0.14817
6068.89087,0.11551
6070.81934,0.03058
6072.74781,-0.03970
6074.67628,-0.02717
6076.60475,0.02713
6078.53321,0.04422
6080.46168,0.04431
6082.39015,0.08924
6084.31862,0.14469
6086.24709,0.15890
6088.17556,0.15401
6090.10403,0.15959
6092.03249,0.16522
6093.96096,0.16192
6095.88943,0.15871
6097.81790,0.13973
6099.74637,0.10944
6101.67484,0.10037
6103.60331,0.09652
6105.53177,0.07754
6107.46024,0.05441
6109.38871,0.04740
6111.31718,0.06591
6113.24565,0.09563
6115.17412,0.11162
6117.10259,0.10577
6119.03106,0.10021
6120.95952,0.09379
6122.88799,0.06541
6124.81646,0.03004
6126.74493,0.01369
6128.67340,0.02395
6130.60187,0.04277
6132.53034,0.05146
6134.45880,0.06731
6136.38727,0.09358
6138.31574,0.09117
6140.24421,0.06147
6142.17268,0.03782
6144.10115,0.04696
6146.02962,0.09838
6147.95809,0.11534
6149.88655,0.05801
6151.81502,0.03523
6153.74349,0.10450
6155.67196,0.17174
6157.60043,0.17985
6159.52890,0.13597
6161.45737,0.07899
6163.38583,0.05091
6165.31430,0.04135
6167.24277,0.03864
6169.17124,0.05386
6171.09971,0.07338
6173.02818,0.08306
6174.95665,0.09518
6176.88512,0.08695
6178.81358,0.05959
6180.74205,0.08051
6182.67052,0.13826
6184.59899,0.15024
6186.52746,0.11529
6188.45593,0.10442
6190.38440,0.10527
6192.31286,0.09096
6194.24133,0.12242
6196.16980,0.17934
6198.09827,0.18538
6200.02674,0.16451
6201.95521,0.15214
6203.88368,0.12003
6205.81215,0.09010
6207.74061,0.12517
6209.66908,0.17707
6211.59755,0.14132
6213.52602,0.07824
6215.45449,0.08317
6217.38296,0.11055
6219.31143,0.11867
6221.23989,0.12293
6223.16836,0.11627
6225.09683,0.10259
6227.02530,0.09238
6228.95377,0.07468
6230.88224,0.06259
6232.81071,0.07173
6234.73918,0.07931
6236.66764,0.09086
6238.59611,0.10924
6240.52458,0.10705
6242.45305,0.10513
6244.38152,0.12026
6246.30999,0.12946
6248.23846,0.13551
6250.16692,0.14078
6252.09539,0.13107
6254.02386,0.11606
6255.95233,0.11371
6257.88080,0.11061
6259.80927,0.08602
6261.73774,0.05134
6263.66621,0.03142
6265.59467,0.05435
6267.52314,0.11205
6269.45161,0.14774
6271.38008,0.15610
6273.30855,0.15656
6275.23702,0.14040
6277.16549,0.12362
6279.09395,0.12193
6281.02242,0.10074
6282.95089,0.06551
6284.87936,0.06483
6286.80783,0.09001
6288.73630,0.10895
6290.66477,0.10467
6292.59323,0.07601
6294.52170,0.06642
6296.45017,0.10607
6298.37864,0.14277
6300.30711,0.13684
6302.23558,0.13317
6304.16405,0.14814
6306.09252,0.13370
6308.02098,0.10521
6309.94945,0.13345
6311.87792,0.18817
6313.80639,0.17126
6315.73486,0.09311
6317.66333,0.04550
6319.59180,0.04945
6321.52026,0.04298
6323.44873,0.05141
6325.37720,0.11264
6327.30567,0.13229
6329.23414,0.06085
6331.16261,0.00015
6333.09108,0.01616
6335.01955,0.04359
6336.94801,0.03778
6338.87648,0.02385
6340.80495,0.02408
6342.73342,0.04989
6344.66189,0.09089
6346.59036,0.10701
6348.51883,0.07807
6350.44729,0.03019
6352.37576,0.02147
6354.30423,0.08082
6356.23270,0.15233
6358.16117,0.14232
6360.08964,0.06869
6362.01811,0.05602
6363.94658,0.08414
6365.87504,0.08796
6367.80351,0.15102
6369.73198,0.24014
6371.66045,0.23466
6373.58892,0.16738
6375.51739,0.12883
6377.44586,0.13770
6379.37432,0.13919
6381.30279,0.11013
6383.23126,0.11507
6385.15973,0.12881
6387.08820,0.08184
6389.01667,0.03839
6390.94514,0.03566
6392.87361,0.07774
6394.80207,0.15245
6396.73054,0.17642
6398.65901,0.15510
6400.58748,0.13875
6402.51595,0.11380
6404.44442,0.05970
6406.37289,0.00507
6408.30135,0.00673
6410.22982,0.07463
6412.15829,0.12018
6414.08676,0.08719
6416.01523,0.04137
6417.94370,0.04106
6419.87217,0.08946
6421.80064,0.15363
6423.72910,0.19697
6425.65757,0.20172
6427.58604,0.17615
6429.51451,0.14886
6431.44298,0.13675
6433.37145,0.12773
6435.29992,0.11610
6437.22838,0.10472
6439.15685,0.07824
6441.08532,0.06133
6443.01379,0.10906
6444.94226,0.18048
6446.87073,0.20468
6448.79920,0.18926
6450.72766,0.14847
6452.65613,0.10627
6454.58460,0.08208
6456.51307,0.05608
6458.44154,0.01150
6460.37001,-0.03639
6462.29848,-0.05463
6464.22695,-0.02960
6466.15541,0.00880
6468.08388,0.02277
6470.01235,0.04038
6471.94082,0.11029
6473.86929,0.15363
6475.79776,0.08675
6477.72623,-0.00695
6479.65469,-0.03571
6481.58316,-0.03286
6483.51163,-0.01824
6485.44010,0.01186
6487.36857,0.03351
6489.29704,0.07017
6491.22551,0.12114
6493.15398,0.09144
6495.08244,0.01642
6497.01091,-0.01100
6498.93938,-0.02042
6500.86785,-0.02004
6502.79632,0.02647
6504.72479,0.10121
6506.65326,0.14696
6508.58172,0.13606
6510.51019,0.11061
6512.43866,0.10228
6514.36713,0.09192
6516.29560,0.10875
6518.22407,0.15303
6520.15254,0.13057
6522.08101,0.05222
6524.00947,0.02444
6525.93794,0.06684
6527.86641,0.11769
6529.79488,0.16221
6531.72335,0.19902
6533.65182,0.18072
6535.58029,0.10751
6537.50875,0.05326
6539.43722,0.05367
6541.36569,0.08687
6543.29416,0.09074
6545.22263,0.04441
6547.15110,0.01019
6549.07957,-0.02053
6551.00804,-0.07701
6552.93650,-0.09320
6554.86497,-0.06643
6556.79344,-0.06208
6558.72191,-0.05134
6560.65038,0.02924
6562.57885,0.13545
6564.50732,0.16856
6566.43578,0.18056
6568.36425,0.27052
6570.29272,0.31057
6572.22119,0.21642
6574.14966,0.15027
6576.07813,0.17978
6578.00660,0.19714
6579.93507,0.17352
6581.86353,0.14118
6583.79200,0.07623
6585.72047,0.01300
6587.64894,-0.00514
6589.57741,-0.00785
6591.50588,-0.00668
6593.43435,-0.00953
6595.36281,-0.03308
6597.29128,-0.06149
6599.21975,-0.07246
6601.14822,-0.03511
6603.07669,0.01111
6605.00516,-0.00075
6606.93363,-0.04701
6608.86210,-0.06385
6610.79056,-0.02178
6612.71903,0.05203
6614.64750,0.10984
6616.57597,0.14095
6618.50444,0.13140
6620.43291,0.06757
6622.36138,0.03109
6624.28984,0.04803
6626.21831,0.04843
6628.14678,0.08197
6630.07525,0.16881
6632.00372,0.23518
6633.93219,0.24255
6635.86066,0.15689
6637.78912,0.07217
6639.71759,0.07891
6641.64606,0.10211
6643.57453,0.06145
6645.50300,-0.00957
6647.43147,-0.02186
6649.35994,0.01319
6651.28841,0.02434
6653.21687,0.01582
6655.14534,0.03574
6657.07381,0.01553
6659.00228,-0.08366
6660.93075,-0.09643
6662.85922,0.00961
6664.78769,0.10008
6666.71615,0.09958
6668.64462,0.02731
6670.57309,-0.05562
6672.50156,-0.09415
6674.43003,-0.01231
6676.35850,0.13047
6678.28697,0.15212
6680.21544,0.06031
6682.14390,0.01607
6684.07237,0.06529
6686.00084,0.11951
6687.92931,0.11663
6689.85778,0.10889
6691.78625,0.13210
6693.71472,0.12800
6695.64318,0.06409
6697.57165,-0.01953
6699.50012,-0.03876
6701.42859,0.02919
6703.35706,0.08218
6705.28553,0.06536
6707.21400,0.08666
6709.14247,0.16778
6711.07093,0.24071
6712.99940,0.30579
6714.92787,0.30201
6716.85634,0.22324
6718.78481,0.21687
6720.71328,0.24232
6722.64175,0.15860
6724.57021,0.05575
6726.49868,0.02203
6728.42715,0.03272
6730.35562,0.07812
6732.28409,0.11008
6734.21256,0.07085
6736.14103,0.04682
6738.06950,0.10209
6739.99796,0.13702
6741.92643,0.13391
6743.85490,0.15662
6745.78337,0.12248
6747.71184,0.02048
6749.64031,0.01182
6751.56878,0.07214
6753.49724,0.08260
6755.42571,0.06794
6757.35418,0.05243
6759.28265,0.05531
6761.21112,0.07997
6763.13959,0.11435
6765.06806,0.18582
6766.99653,0.21786
6768.92499,0.15146
6770.85346,0.08079
6772.78193,0.06906
6774.71040,0.10322
6776.63887,0.15433
6778.56734,0.16571
6780.49581,0.13227
6782.42427,0.10367
6784.35274,0.09780
6786.28121,0.10396
6788.20968,0.11310
6790.13815,0.09103
6792.06662,0.02723
6793.99509,-0.04382
6795.92355,-0.05303
6797.85202,0.05283
6799.78049,0.18725
6801.70896,0.21966
6803.63743,0.13900
6805.56590,0.03276
6807.49437,-0.05161
6809.42284,-0.07615
6811.35130,-0.01819
6813.27977,0.03732
6815.20824,0.00493
6817.13671,-0.02858
6819.06518,0.02946
6820.99365,0.10140
6822.92212,0.12695
6824.85058,0.16305
6826.77905,0.21452
6828.70752,0.17152
6830.63599,0.04607
6832.56446,-0.01498
6834.49293,-0.01976
6836.42140,-0.00334
6838.34987,-0.00109
6840.27833,-0.03758
6842.20680,-0.03247
6844.13527,0.03790
6846.06374,0.10105
6847.99221,0.10102
6849.92068,0.08912
6851.84915,0.12422
6853.77761,0.13839
6855.70608,0.09532
6857.63455,0.06646
6859.56302,0.06045
6861.49149,-0.00264
6863.41996,-0.13590
6865.34843,-0.21268
6867.27690,-0.11464
6869.20536,0.01918
6871.13383,-0.00991
6873.06230,-0.09774
6874.99077,-0.06341
6876.91924,-0.02152
6878.84771,-0.01398
6880.77618,0.07657
6882.70464,0.14568
6884.63311,0.13359
6886.56158,0.13005
6888.49005,0.09000
6890.41852,0.04814
6892.34699,0.11544
6894.27546,0.18245
6896.20393,0.17692
6898.13239,0.13651
6900.06086,0.10741
6901.98933,0.14460
6903.91780,0.20846
6905.84627,0.21465
6907.77474,0.16684
6909.70321,0.08733
6911.63167,-0.03626
6913.56014,-0.13155
6915.48861,-0.06974
6917.41708,0.05684
6919.34555,0.02640
6921.27402,-0.08354
6923.20249,-0.06386
6925.13096,0.01275
6927.05942,0.02564
6928.98789,-0.03956
6930.91636,-0.13122
6932.84483,-0.19168
6934.77330,-0.17385
6936.70177,-0.04953
6938.63024,0.12361
6940.55870,0.19130
6942.48717,0.16995
6944.41564,0.21260
6946.34411,0.22086
6948.27258,0.05741
6950.20105,-0.10236
6952.12952,-0.07161
6954.05799,0.07031
6955.98645,0.13272
6957.91492,0.08165
6959.84339,0.07822
6961.77186,0.17971
6963.70033,0.22763
6965.62880,0.18157
6967.55727,0.14497
6969.48573,0.13886
6971.41420,0.15343
6973.34267,0.22548
6975.27114,0.30459
6977.19961,0.26835
6979.12808,0.13383
6981.05655,0.00031
6982.98501,-0.08245
6984.91348,-0.05388
6986.84195,0.09052
6988.77042,0.21280
6990.69889,0.23975
6992.62736,0.18477
6994.55583,0.09381
6996.48430,0.07396
6998.41276,0.08214
7000.34123,-0.06406
7002.26970,-0.25550
7004.19817,-0.26057
7006.12664,-0.10984
7008.05511,0.02105
7009.98358,0.05983
7011.91204,0.03014
7013.84051,-0.03403
7015.76898,-0.06792
7017.69745,0.00160
7019.62592,0.11866
7021.55439,0.10650
7023.48286,0.01394
7025.41133,0.01031
7027.33979,0.06952
7029.26826,0.11955
7031.19673,0.13550
7033.12520,0.11968
7035.05367,0.16715
7036.98214,0.26206
7038.91061,0.24546
7040.83907,0.19613
7042.76754,0.24290
7044.69601,0.23300
7046.62448,0.11574
7048.55295,0.06611
7050.48142,0.12595
7052.40989,0.22928
7054.33836,0.32683
7056.26682,0.38537
7058.19529,0.38087
7060.12376,0.35295
7062.05223,0.32794
7063.98070,0.26938
7065.90917,0.19634
7067.83764,0.10336
7069.76610,-0.03096
7071.69457,-0.09688
7073.62304,-0.03626
7075.55151,0.02917
7077.47998,0.04292
7079.40845,0.01784
7081.33692,-0.04638
7083.26539,-0.09163
7085.19385,-0.00830
7087.12232,0.13448
7089.05079,0.13093
7090.97926,0.00930
7092.90773,-0.06809
7094.83620,-0.03224
7096.76467,0.03240
7098.69313,0.07198
7100.62160,0.15636
7102.55007,0.22592
7104.47854,0.23994
7106.40701,0.26931
7108.33548,0.22376
7110.26395,0.00476
7112.19242,-0.21048
7114.12088,-0.21953
7116.04935,-0.04108
7117.97782,0.11338
7119.90629,0.03319
7121.83476,-0.04194
7123.76323,0.02833
7125.69170,0.07890
7127.62016,-0.00657
7129.54863,-0.11537
7131.47710,-0.06240
7133.40557,0.10540
7135.33404,0.18573
7137.26251,0.13758
7139.19098,0.07527
7141.11944,0.07489
7143.04791,0.12389
7144.97638,0.24537
7146.90485,0.31220
7148.83332,0.18732
7150.76179,0.05580
7152.69026,0.11624
7154.61873,0.28493
7156.54719,0.34401
7158.47566,0.29809
7160.40413,0.20545
7162.33260,0.08390
7164.26107,-0.02299
7166.18954,-0.01254
7168.11801,0.15796
7170.04647,0.25410
7171.97494,0.15021
7173.90341,0.05181
7175.83188,-0.05039
7177.76035,-0.14551
7179.68882,-0.06839
7181.61729,0.11923
7183.54576,0.21054
7185.47422,0.12521
7187.40269,-0.00311
7189.33116,-0.08500
7191.25963,-0.06105
7193.18810,0.03597
7195.11657,0.05851
7197.04504,0.05176
7198.97350,0.16470
7200.90197,0.37164
7202.83044,0.53922
7204.75891,0.46362
7206.68738,0.17258
7208.61585,0.03301
7210.54432,0.08338
7212.47279,0.14054
7214.40125,0.14036
7216.32972,0.10083
7218.25819,-0.04141
7220.18666,-0.12447
7222.11513,-0.04269
7224.04360,0.10557
7225.97207,0.19863
7227.90053,0.16049
7229.82900,0.02543
7231.75747,-0.07408
7233.68594,0.05800
7235.61441,0.20889
7237.54288,0.13009
7239.47135,0.00886
7241.39982,-0.01012
7243.32828,-0.03001
7245.25675,-0.02098
7247.18522,0.01696
7249.11369,-0.01768
7251.04216,-0.14599
7252.97063,-0.17754
7254.89910,-0.10241
7256.82756,-0.12650
7258.75603,-0.10342
7260.68450,0.10967
7262.61297,0.28325
7264.54144,0.20177
7266.46991,0.11854
7268.39838,0.15550
7270.32685,0.12103
7272.25531,-0.02899
7274.18378,-0.13263
7276.11225,-0.14136
7278.04072,-0.06711
7279.96919,0.04813
7281.89766,0.10548
7283.82613,0.12053
7285.75459,0.15926
7287.68306,0.16045
7289.61153,0.09865
7291.54000,0.02407
7293.46847,-0.00756
7295.39694,0.06859
7297.32541,0.17360
7299.25387,0.17059
7301.18234,0.09703
7303.11081,0.06389
7305.03928,0.04660
7306.96775,-0.06669
7308.89622,-0.04043
7310.82469,0.23776
7312.75316,0.35155
7314.68162,0.22427
7316.61009,-0.03371
7318.53856,-0.14048
7320.46703,-0.00459
7322.39550,0.12621
7324.32397,0.06056
7326.25244,-0.12287
7328.18090,-0.23024
7330.10937,-0.10774
7332.03784,0.11549
7333.96631,0.20536
7335.89478,0.15773
7337.82325,0.10421
7339.75172,0.09230
7341.68019,0.10048
7343.60865,0.15633
7345.53712,0.27690
7347.46559,0.30418
7349.39406,0.19283
7351.32253,0.14476
7353.25100,0.15000
7355.17947,0.09401
7357.10793,-0.00634
7359.03640,-0.04545
7360.96487,-0.03602
7362.89334,-0.11729
7364.82181,-0.15443
7366.75028,0.00971
7368.67875,0.21720
7370.60722,0.28710
7372.53568,0.31991
7374.46415,0.34456
7376.39262,0.17636
7378.32109,0.03027
7380.24956,0.08219
7382.17803,0.19600
7384.10650,0.14395
7386.03496,-0.05365
7387.96343,-0.13429
7389.89190,-0.07103
7391.82037,0.03261
7393.74884,0.18888
7395.67731,0.26853
7397.60578,0.13842
7399.53425,-0.00694
7401.46271,-0.00086
7403.39118,0.04605
7405.31965,0.03258
7407.24812,0.03815
7409.17659,0.05338
7411.10506,0.07822
7413.03353,0.17942
7414.96199,0.31555
7416.89046,0.34209
7418.81893,0.16572
7420.74740,-0.06154
7422.67587,-0.20051
7424.60434,-0.24365
7426.53281,-0.14776
7428.46128,0.02605
7430.38974,0.09944
7432.31821,0.09514
7434.24668,0.19224
7436.17515,0.28886
7438.10362,0.21758
7440.03209,0.10714
7441.96056,0.11802
7443.88902,0.15279
7445.81749,0.14155
7447.74596,0.07593
7449.67443,-0.05972
7451.60290,-0.13827
7453.53137,-0.07304
7455.45984,0.01634
7457.38831,0.04000
7459.31677,0.05285
7461.24524,0.19328
7463.17371,0.29011
7465.10218,0.20512
7467.03065,0.11418
7468.95912,0.11269
7470.88759,0.15782
7472.81605,0.19950
7474.74452,0.14087
7476.67299,-0.03791
7478.60146,-0.21943
7480.52993,-0.25850
7482.45840,-0.20173
7484.38687,-0.16865
7486.31533,-0.10202
7488.24380,0.06152
7490.17227,0.19601
7492.10074,0.20540
7494.02921,0.19952
7495.95768,0.19187
7497.88615,0.09816
